timestamp,x,y,z
1470242517015397,-0.0444336
1470242517030439,-0.043457
1470242517052982,-0.0483398
1470242517075446,-0.046875
1470242517090490,-0.0458984
1470242517113023,-0.046875
1470242517135513,-0.0449219
1470242517150531,-0.0444336
1470242517180598,-0.0473633
1470242517196055,-0.043457
1470242517218576,-0.0429688
1470242517234589,-0.0429688
1470242517255609,-0.0419922
1470242517287136,-0.0478516
1470242517293233,-0.0498047
1470242517316672,-0.0424805
1470242517347703,-0.0415039
1470242517349697,-0.0449219
1470242517369710,-0.0483398
1470242517391733,-0.0405273
1470242517409766,-0.043457
1470242517429764,-0.0410156
1470242517473304,-0.0439453
1470242517490878,-0.0493164
1470242517497825,-0.0439453
1470242517511374,-0.0375977
1470242517526851,-0.0429688
1470242517557881,-0.0454102
1470242517571892,-0.0429688
1470242517595413,-0.0454102
1470242517617433,-0.0507813
1470242517631948,-0.0415039
1470242517654967,-0.0458984
1470242517677489,-0.046875
1470242517692013,-0.0415039
1470242517715021,-0.043457
1470242517737541,-0.0449219
1470242517752075,-0.0429688
1470242517775074,-0.0458984
1470242517797594,-0.0429688
1470242517812137,-0.0439453
1470242517835129,-0.0424805
1470242517857650,-0.050293
1470242517878667,-0.0454102
1470242517895185,-0.0400391
1470242517917703,-0.0429688
1470242517938737,-0.0449219
1470242517955288,-0.0498047
1470242517977757,-0.0463867
1470242517998791,-0.0415039
1470242518015290,-0.043457
1470242518037810,-0.0454102
1470242518058853,-0.0444336
1470242518075344,-0.0424805
1470242518097864,-0.0458984
1470242518118883,-0.0473633
1470242518135398,-0.0493164
1470242518157418,-0.0444336
1470242518179008,-0.0419922
1470242518194983,-0.0454102
1470242518217472,-0.0458984
1470242518239091,-0.043457
1470242518254507,-0.0444336
1470242518277526,-0.0478516
1470242518300046,-0.0463867
1470242518315059,-0.046875
1470242518337580,-0.0439453
1470242518360104,-0.0449219
1470242518375140,-0.0410156
1470242518398135,-0.0493164
1470242518420154,-0.0546875
1470242518435217,-0.0483398
1470242518463738,-0.0429688
1470242518480244,-0.0444336
1470242518502730,-0.0483398
1470242518523747,-0.0458984
1470242518540262,-0.0410156
1470242518562783,-0.0478516
1470242518583833,-0.0458984
1470242518600315,-0.0522461
1470242518622871,-0.0424805
1470242518643861,-0.0429688
1470242518660369,-0.0458984
1470242518682891,-0.0551758
1470242518703909,-0.0483398
1470242518719924,-0.0439453
1470242518742467,-0.0454102
1470242518763967,-0.0458984
1470242518779978,-0.0517578
1470242518802497,-0.0458984
1470242518825017,-0.046875
1470242518840031,-0.043457
1470242518862551,-0.0483398
1470242518885073,-0.0444336
1470242518900085,-0.0507813
1470242518922605,-0.0449219
1470242518945125,-0.0458984
1470242518959660,-0.0483398
1470242518982659,-0.0463867
1470242519005179,-0.0507813
1470242519019692,-0.050293
1470242519042713,-0.0444336
1470242519065234,-0.043457
1470242519079745,-0.0493164
1470242519102767,-0.0478516
1470242519125289,-0.0454102
1470242519130816,-0.046875
1470242519146806,-0.046875
1470242519168326,-0.0449219
1470242519190427,-0.0429688
1470242519206860,-0.0517578
1470242519227879,-0.0507813
1470242519250402,-0.0493164
1470242519266914,-0.0439453
1470242519288440,-0.0454102
1470242519310455,-0.0439453
1470242519326968,-0.0532227
1470242519347993,-0.0415039
1470242519370542,-0.0454102
1470242519387026,-0.0522461
1470242519408076,-0.0483398
1470242519430580,-0.0473633
1470242519447076,-0.0483398
1470242519468126,-0.0444336
1470242519490644,-0.0449219
1470242519508657,-0.0498047
1470242519528175,-0.0498047
1470242519550700,-0.0449219
1470242519567183,-0.0419922
1470242519588207,-0.0473633
1470242519610725,-0.0458984
1470242519628239,-0.0483398
1470242519648257,-0.0458984
1470242519670777,-0.0458984
1470242519686791,-0.0478516
1470242519710829,-0.0493164
1470242519730831,-0.0454102
1470242519748347,-0.0415039
1470242519767864,-0.0473633
1470242519790892,-0.0458984
1470242519808460,-0.0478516
1470242519827918,-0.0424805
1470242519850438,-0.0463867
1470242519868455,-0.0463867
1470242519887985,-0.046875
1470242519910545,-0.0483398
1470242519928521,-0.0527344
1470242519948026,-0.0400391
1470242519970581,-0.0458984
1470242519988674,-0.0507813
1470242520008079,-0.0493164
1470242520030601,-0.0449219
1470242520048616,-0.0488281
1470242520068134,-0.0493164
1470242520090666,-0.0483398
1470242520108670,-0.0463867
1470242520128188,-0.0454102
1470242520153710,-0.0439453
1470242520168724,-0.0483398
1470242520188241,-0.0439453
1470242520210761,-0.0444336
1470242520228778,-0.050293
1470242520248295,-0.046875
1470242520270315,-0.0463867
1470242520288331,-0.0507813
1470242520307850,-0.046875
1470242520330369,-0.0463867
1470242520348396,-0.0493164
1470242520369414,-0.0463867
1470242520390433,-0.0458984
1470242520408449,-0.046875
1470242520429468,-0.0439453
1470242520457993,-0.0454102
1470242520468505,-0.0478516
1470242520489522,-0.0473633
1470242520510542,-0.0473633
1470242520528558,-0.0419922
1470242520549577,-0.0561523
1470242520570595,-0.0576172
1470242520588611,-0.0615234
1470242520609631,-0.0683594
1470242520630649,-0.0507813
1470242520648666,-0.0507813
1470242520669684,-0.065918
1470242520690702,-0.0449219
1470242520708719,-0.0419922
1470242520731239,-0.0395508
1470242520750756,-0.0561523
1470242520768773,-0.0429688
1470242520791293,-0.0351563
1470242520810811,-0.0332031
1470242520828326,-0.0493164
1470242520850847,-0.0273438
1470242520870864,-0.019043
1470242520888381,-0.0336914
1470242520910901,-0.0537109
1470242520930419,-0.0390625
1470242520948435,-0.0117188
1470242520970954,-0.0400391
1470242520990472,-0.0678711
1470242521008490,-0.0532227
1470242521031010,-0.0307617
1470242521050526,-0.0454102
1470242521068550,-0.0600586
1470242521091080,-0.0493164
1470242521110580,-0.0239258
1470242521128596,-0.0375977
1470242521151117,-0.046875
1470242521173651,-0.03125
1470242521188654,-0.0268555
1470242521211190,-0.034668
1470242521230688,-0.0356445
1470242521248704,-0.0341797
1470242521271224,-0.0371094
1470242521292243,-0.0249023
1470242521309265,-0.0185547
1470242521331278,-0.0219727
1470242521351796,-0.0292969
1470242521368813,-0.0180664
1470242521390846,-0.0351563
1470242521412350,-0.0585938
1470242521428378,-0.0195313
1470242521450885,0.0327148
1470242521471905,0.0078125
1470242521488447,-0.0395508
1470242521509938,-0.0327148
1470242521531457,-0.012207
1470242521547485,-0.0141602
1470242521570006,-0.00732422
1470242521591512,-0.0126953
1470242521607526,-0.0307617
1470242521630048,-0.0449219
1470242521651565,-0.0405273
1470242521667580,-0.0209961
1470242521690103,-0.0268555
1470242521714123,-0.0419922
1470242521727160,-0.0751953
1470242521750157,-0.0698242
1470242521772674,0.0185547
1470242521787690,0.0292969
1470242521810208,0.00878906
1470242521832729,-0.012207
1470242521853763,-0.0454102
1470242521870262,-0.0571289
1470242521892782,-0.0527344
1470242521913805,-0.0546875
1470242521930316,-0.0219727
1470242521952836,-0.0371094
1470242521966849,-0.0517578
1470242521989869,-0.0698242
1470242522012890,-0.0195313
1470242522033910,0.00439453
1470242522049924,0.00439453
1470242522072943,-0.0253906
1470242522093963,-0.0532227
1470242522109977,-0.0488281
1470242522132998,-0.0551758
1470242522154016,-0.0429688
1470242522170201,-0.043457
1470242522192720,-0.0493164
1470242522213769,-0.0522461
1470242522230255,-0.0463867
1470242522252774,-0.0410156
1470242522281299,-0.0341797
1470242522290307,-0.0498047
1470242522312828,-0.0546875
1470242522333849,-0.0424805
1470242522350362,-0.0288086
1470242522372882,-0.0336914
1470242522393901,-0.0478516
1470242522409924,-0.0473633
1470242522432936,-0.0405273
1470242522453955,-0.0375977
1470242522470469,-0.0302734
1470242522492492,-0.0507813
1470242522513534,-0.0649414
1470242522530023,-0.0639648
1470242522552543,-0.0351563
1470242522574067,-0.0439453
1470242522590079,-0.0366211
1470242522612598,-0.0405273
1470242522635117,-0.0668945
1470242522650131,-0.0693359
1470242522672651,-0.0527344
1470242522695171,-0.0712891
1470242522716190,-0.065918
1470242522732706,-0.0522461
1470242522762732,-0.0488281
1470242522769257,-0.0493164
1470242522792290,-0.0571289
1470242522815280,-0.074707
1470242522829799,-0.0732422
1470242522852813,-0.0678711
1470242522875333,-0.0668945
1470242522889346,-0.0595703
1470242522912866,-0.0458984
1470242522935388,-0.0654297
1470242522949400,-0.0595703
1470242522972920,-0.0600586
1470242522994941,-0.0600586
1470242523009454,-0.0800781
1470242523032975,-0.0839844
1470242523054994,-0.078125
1470242523076513,-0.0869141
1470242523092528,-0.0849609
1470242523122555,-0.09375
1470242523136067,-0.0991211
1470242523152583,-0.0854492
1470242523175102,-0.0791016
1470242523196121,-0.0869141
1470242523212636,-0.105957
1470242523235157,-0.124023
1470242523256175,-0.12793
1470242523272690,-0.119629
1470242523295210,-0.132813
1470242523317730,-0.143555
1470242523332244,-0.141113
1470242523355264,-0.149902
1470242523376283,-0.151855
1470242523392797,-0.144531
1470242523415318,-0.155273
1470242523436337,-0.152832
1470242523452852,-0.158203
1470242523475373,-0.152344
1470242523496392,-0.152832
1470242523511905,-0.163574
1470242523534925,-0.188965
1470242523557946,-0.205566
1470242523571959,-0.195313
1470242523595480,-0.197266
1470242523617500,-0.212891
1470242523633013,-0.212891
1470242523655533,-0.219727
1470242523677553,-0.225098
1470242523692567,-0.227539
1470242523715087,-0.227539
1470242523737607,-0.22998
1470242523752132,-0.233887
1470242523775141,-0.232422
1470242523797661,-0.240234
1470242523812174,-0.248047
1470242523835196,-0.251465
1470242523857715,-0.245117
1470242523871728,-0.230469
1470242523895249,-0.259766
1470242523917771,-0.251465
1470242523932283,-0.22998
1470242523955303,-0.219727
1470242523977823,-0.230469
1470242523992336,-0.273926
1470242524015358,-0.248535
1470242524037879,-0.222656
1470242524052390,-0.23291
1470242524075422,-0.231934
1470242524097433,-0.224121
1470242524118994,-0.22168
1470242524135464,-0.25293
1470242524158022,-0.342773
1470242524179004,-0.361816
1470242524195519,-0.3125
1470242524217540,-0.214844
1470242524239061,-0.0390625
1470242524255572,1.01563
1470242524277595,0.0371094
1470242524298614,-0.64209
1470242524314627,-0.135742
1470242524337670,0.296387
1470242524359185,0.118652
1470242524374679,-0.13916
1470242524397701,-0.172852
1470242524418765,-0.0249023
1470242524434733,0.0112305
1470242524457790,-0.0576172
1470242524478773,-0.0556641
1470242524494286,-0.0454102
1470242524517810,-0.0429688
1470242524540330,-0.0620117
1470242524555342,-0.0517578
1470242524577898,-0.0341797
1470242524600382,-0.0439453
1470242524615396,-0.0678711
1470242524637916,-0.0507813
1470242524660436,-0.0458984
1470242524674449,-0.0375977
1470242524697512,-0.0605469
1470242524720030,-0.059082
1470242524734502,-0.0585938
1470242524758023,-0.0463867
1470242524780043,-0.0463867
1470242524794556,-0.0581055
1470242524817577,-0.0683594
1470242524840098,-0.0390625
1470242524854610,-0.0498047
1470242524877631,-0.0449219
1470242524900151,-0.0556641
1470242524914665,-0.0585938
1470242524937685,-0.046875
1470242524960206,-0.0498047
1470242524974218,-0.059082
1470242524997739,-0.0532227
1470242525020259,-0.0498047
1470242525041279,-0.0375977
1470242525057794,-0.0517578
1470242525080313,-0.059082
1470242525101332,-0.0585938
1470242525117849,-0.0537109
1470242525147874,-0.0458984
1470242525161386,-0.0498047
1470242525177901,-0.0566406
1470242525200420,-0.0517578
1470242525221441,-0.0498047
1470242525237955,-0.0458984
1470242525260474,-0.0522461
1470242525281494,-0.0629883
1470242525297509,-0.0507813
1470242525320029,-0.0478516
1470242525341047,-0.0522461
1470242525357563,-0.0537109
1470242525380082,-0.0551758
1470242525401103,-0.0454102
1470242525417616,-0.0512695
1470242525440136,-0.050293
1470242525462656,-0.0522461
1470242525477670,-0.0537109
1470242525500190,-0.0512695
1470242525522710,-0.0522461
1470242525537724,-0.0483398
1470242525560259,-0.0546875
1470242525582766,-0.0493164
1470242525597821,-0.0473633
1470242525620309,-0.0522461
1470242525642818,-0.0576172
1470242525657331,-0.0546875
1470242525680352,-0.0493164
1470242525702871,-0.0458984
1470242525717385,-0.050293
1470242525740460,-0.0541992
1470242525762925,-0.0498047
1470242525785445,-0.0493164
1470242525800459,-0.0512695
1470242525822979,-0.0556641
1470242525836992,-0.0517578
1470242525860513,-0.0576172
1470242525882534,-0.0522461
1470242525897046,-0.0507813
1470242525920067,-0.0551758
1470242525942587,-0.050293
1470242525963908,-0.0507813
1470242525980422,-0.0566406
1470242526002943,-0.0571289
1470242526023961,-0.0532227
1470242526040476,-0.0488281
1470242526062497,-0.0678711
1470242526091522,-0.0664063
1470242526100530,-0.0786133
1470242526122550,-0.0620117
1470242526143569,-0.0512695
1470242526160084,-0.0668945
1470242526182604,-0.0727539
1470242526203622,-0.0668945
1470242526219638,-0.0634766
1470242526242658,-0.0625
1470242526263677,-0.0537109
1470242526280192,-0.0527344
1470242526302713,-0.0478516
1470242526323730,-0.0561523
1470242526340246,-0.0483398
1470242526362767,-0.0556641
1470242526383784,-0.0581055
1470242526400300,-0.0537109
1470242526422820,-0.059082
1470242526451847,-0.0610352
1470242526453847,-0.0644531
1470242526465858,-0.0532227
1470242526488379,-0.0566406
1470242526510398,-0.0566406
1470242526525412,-0.0546875
1470242526547932,-0.0546875
1470242526570453,-0.0585938
1470242526585465,-0.0541992
1470242526607985,-0.0595703
1470242526630506,-0.0615234
1470242526645520,-0.0712891
1470242526668041,-0.0712891
1470242526690559,-0.0644531
1470242526705573,-0.0585938
1470242526728093,-0.0654297
1470242526750614,-0.0620117
1470242526765627,-0.0703125
1470242526788148,-0.0644531
1470242526812170,-0.0600586
1470242526825681,-0.0664063
1470242526848202,-0.0639648
1470242526870721,-0.0703125
1470242526885735,-0.0629883
1470242526908255,-0.0595703
1470242526930776,-0.0668945
1470242526945789,-0.0668945
1470242526968309,-0.0620117
1470242526990830,-0.0683594
1470242527007344,-0.065918
1470242527028366,-0.0678711
1470242527050383,-0.0698242
1470242527066898,-0.0649414
1470242527087917,-0.0498047
1470242527110437,-0.0683594
1470242527126952,-0.0664063
1470242527147970,-0.0527344
1470242527170490,-0.059082
1470242527187006,-0.0610352
1470242527208024,-0.0581055
1470242527230544,-0.0532227
1470242527247060,-0.0488281
1470242527268078,-0.0551758
1470242527290598,-0.0581055
1470242527307114,-0.0532227
1470242527328132,-0.0522461
1470242527350653,-0.0600586
1470242527368669,-0.0620117
1470242527388186,-0.0620117
1470242527410707,-0.0581055
1470242527428723,-0.0664063
1470242527448240,-0.0644531
1470242527470761,-0.0595703
1470242527488786,-0.0610352
1470242527508302,-0.0541992
1470242527530814,-0.0522461
1470242527548831,-0.0493164
1470242527568348,-0.0522461
1470242527590868,-0.0527344
1470242527608416,-0.0532227
1470242527627901,-0.0532227
1470242527650422,-0.0566406
1470242527674443,-0.0576172
1470242527687987,-0.0634766
1470242527710475,-0.0615234
1470242527728492,-0.0600586
1470242527748011,-0.0566406
1470242527770530,-0.0576172
1470242527794551,-0.059082
1470242527808063,-0.0541992
1470242527838089,-0.0527344
1470242527848600,-0.0541992
1470242527869619,-0.0546875
1470242527890638,-0.0576172
1470242527908655,-0.0551758
1470242527928171,-0.0527344
1470242527950693,-0.0517578
1470242527968708,-0.0566406
1470242527989727,-0.0595703
1470242528010746,-0.0576172
1470242528033266,-0.0566406
1470242528049790,-0.0595703
1470242528070799,-0.0551758
1470242528088315,-0.0532227
1470242528116841,-0.0541992
1470242528130868,-0.0522461
1470242528148869,-0.059082
1470242528169388,-0.0644531
1470242528190907,-0.0620117
1470242528208423,-0.0625
1470242528229442,-0.0668945
1470242528250961,-0.0717773
1470242528268479,-0.065918
1470242528289496,-0.0673828
1470242528310515,-0.0693359
1470242528328533,-0.065918
1470242528351080,-0.0629883
1470242528370586,-0.0610352
1470242528388586,-0.0576172
1470242528411105,-0.0595703
1470242528430648,-0.0634766
1470242528448639,-0.0664063
1470242528471163,-0.0654297
1470242528490719,-0.0688477
1470242528508709,-0.0712891
1470242528531216,-0.0693359
1470242528550765,-0.0673828
1470242528568747,-0.0683594
1470242528591296,-0.0629883
1470242528610784,-0.0605469
1470242528628802,-0.0595703
1470242528651320,-0.0595703
1470242528670838,-0.0639648
1470242528688855,-0.0634766
1470242528710874,-0.0644531
1470242528730892,-0.0644531
1470242528755948,-0.0541992
1470242528770928,-0.0546875
1470242528791947,-0.0595703
1470242528808490,-0.0546875
1470242528830481,-0.0507813
1470242528851501,-0.0541992
1470242528867515,-0.0576172
1470242528890042,-0.050293
1470242528911556,-0.0532227
1470242528927569,-0.0488281
1470242528950589,-0.0507813
1470242528971608,-0.0610352
1470242528987625,-0.0546875
1470242529010144,-0.0541992
1470242529031162,-0.0541992
1470242529047677,-0.0605469
1470242529070197,-0.0517578
1470242529091230,-0.0571289
1470242529107748,-0.0537109
1470242529130251,-0.0532227
1470242529151270,-0.0581055
1470242529167806,-0.0561523
1470242529190326,-0.0551758
1470242529211346,-0.059082
1470242529227861,-0.0532227
1470242529257886,-0.0595703
1470242529272899,-0.0595703
1470242529287913,-0.0566406
1470242529310434,-0.0595703
1470242529332953,-0.0537109
1470242529347467,-0.0551758
1470242529369993,-0.0478516
1470242529392507,-0.0507813
1470242529407021,-0.0556641
1470242529430543,-0.0541992
1470242529452562,-0.0571289
1470242529467076,-0.0571289
1470242529490600,-0.0522461
1470242529512615,-0.0537109
1470242529527129,-0.0541992
1470242529550149,-0.0581055
1470242529572669,-0.0595703
1470242529587184,-0.059082
1470242529610203,-0.0585938
1470242529632723,-0.0620117
1470242529647238,-0.0585938
1470242529670257,-0.0507813
1470242529700284,-0.0527344
1470242529707290,-0.0512695
1470242529736318,-0.0517578
1470242529752831,-0.0537109
1470242529773850,-0.0576172
1470242529790365,-0.0537109
1470242529812885,-0.0551758
1470242529833905,-0.0581055
1470242529850418,-0.0512695
1470242529872940,-0.0512695
1470242529893958,-0.0541992
1470242529909972,-0.0595703
1470242529932993,-0.0625
1470242529954014,-0.0595703
1470242529977533,-0.0541992
1470242529993046,-0.059082
1470242530014065,-0.0571289
1470242530030580,-0.0615234
1470242530060607,-0.0620117
1470242530074119,-0.0576172
1470242530090134,-0.0600586
1470242530112657,-0.0581055
1470242530141212,-0.0625
1470242530150188,-0.0522461
1470242530172710,-0.0556641
1470242530193787,-0.0556641
1470242530210262,-0.0576172
1470242530232763,-0.0581055
1470242530255284,-0.0527344
1470242530270295,-0.0576172
1470242530292816,-0.0629883
1470242530315336,-0.0512695
1470242530329849,-0.050293
1470242530352912,-0.0546875
1470242530375390,-0.0615234
1470242530389443,-0.0595703
1470242530420430,-0.0615234
1470242530435445,-0.0566406
1470242530449457,-0.0581055
1470242530472986,-0.0537109
1470242530495498,-0.0541992
1470242530509511,-0.0532227
1470242530533057,-0.050293
1470242530555552,-0.0546875
1470242530569583,-0.0595703
1470242530592599,-0.0571289
1470242530615606,-0.0556641
1470242530629621,-0.0585938
1470242530653139,-0.0620117
1470242530675159,-0.0546875
1470242530689677,-0.0551758
1470242530712693,-0.0571289
1470242530735213,-0.0585938
1470242530756233,-0.0561523
1470242530772747,-0.0498047
1470242530795267,-0.0517578
1470242530816301,-0.0541992
1470242530832801,-0.0546875
1470242530855321,-0.0644531
1470242530876340,-0.0605469
1470242530892855,-0.0571289
1470242530915375,-0.0537109
1470242530936395,-0.0585938
1470242530952909,-0.0566406
1470242530975429,-0.0566406
1470242530996447,-0.059082
1470242531012962,-0.0581055
1470242531035483,-0.0585938
1470242531056502,-0.0571289
1470242531073017,-0.0532227
1470242531095536,-0.0585938
1470242531116056,-0.0620117
1470242531133071,-0.0556641
1470242531155591,-0.0541992
1470242531177611,-0.0517578
1470242531192624,-0.0615234
1470242531215645,-0.059082
1470242531237664,-0.0605469
1470242531252679,-0.0571289
1470242531275198,-0.0532227
1470242531297719,-0.0532227
1470242531312232,-0.0644531
1470242531335253,-0.0595703
1470242531357772,-0.0566406
1470242531372288,-0.0571289
1470242531395306,-0.0537109
1470242531417826,-0.0576172
1470242531432340,-0.0551758
1470242531455360,-0.0551758
1470242531477881,-0.0551758
1470242531492393,-0.0605469
1470242531515413,-0.0693359
1470242531537934,-0.0634766
1470242531552447,-0.0541992
1470242531575467,-0.059082
1470242531597988,-0.0566406
1470242531619006,-0.0551758
1470242531643029,-0.0473633
1470242531658041,-0.0512695
1470242531679060,-0.0571289
1470242531695575,-0.0532227
1470242531717595,-0.0551758
1470242531739117,-0.0571289
1470242531755133,-0.0522461
1470242531777649,-0.0585938
1470242531799168,-0.0541992
1470242531815184,-0.0556641
1470242531837703,-0.0561523
1470242531858722,-0.0581055
1470242531875237,-0.0546875
1470242531897757,-0.0561523
1470242531918776,-0.0615234
1470242531935290,-0.0527344
1470242531957811,-0.0566406
1470242531978830,-0.0571289
1470242531995345,-0.0629883
1470242532017865,-0.0600586
1470242532038884,-0.0629883
1470242532055400,-0.0610352
1470242532077919,-0.0537109
1470242532098939,-0.0585938
1470242532114452,-0.0532227
1470242532137973,-0.0556641
1470242532160493,-0.0610352
1470242532175507,-0.0576172
1470242532198028,-0.0512695
1470242532220547,-0.0561523
1470242532235560,-0.0600586
1470242532258080,-0.0629883
1470242532280100,-0.0605469
1470242532294613,-0.0571289
1470242532317634,-0.0507813
1470242532340154,-0.0537109
1470242532354667,-0.059082
1470242532377688,-0.0610352
1470242532400210,-0.0615234
1470242532414721,-0.0537109
1470242532437742,-0.0561523
1470242532460262,-0.0610352
1470242532474775,-0.0634766
1470242532497796,-0.0532227
1470242532520316,-0.0527344
1470242532534828,-0.0566406
1470242532557849,-0.0561523
1470242532580370,-0.0507813
1470242532594383,-0.0512695
1470242532617905,-0.0571289
1470242532640426,-0.0620117
1470242532661445,-0.0605469
1470242532677957,-0.0576172
1470242532707984,-0.0527344
1470242532721496,-0.0561523
1470242532738011,-0.0620117
1470242532760532,-0.0512695
1470242532781550,-0.0571289
1470242532798065,-0.0585938
1470242532820598,-0.0629883
1470242532841605,-0.0566406
1470242532857619,-0.0541992
1470242532880139,-0.0571289
1470242532901660,-0.0566406
1470242532917674,-0.0571289
1470242532940195,-0.0556641
1470242532961245,-0.0512695
1470242532977726,-0.0600586
1470242533000247,-0.0610352
1470242533028790,-0.0556641
1470242533037780,-0.0668945
1470242533060303,-0.0634766
1470242533082821,-0.0561523
1470242533097870,-0.0581055
1470242533120354,-0.0546875
1470242533142875,-0.0605469
1470242533157888,-0.0629883
1470242533180408,-0.0615234
1470242533202929,-0.0654297
1470242533223948,-0.0532227
1470242533240462,-0.0532227
1470242533262983,-0.0610352
1470242533276996,-0.0556641
1470242533300516,-0.0615234
1470242533323036,-0.0620117
1470242533337049,-0.0585938
1470242533360570,-0.0576172
1470242533383591,-0.0605469
1470242533397103,-0.0566406
1470242533420124,-0.0600586
1470242533442644,-0.0644531
1470242533457157,-0.0581055
1470242533480178,-0.0605469
1470242533502720,-0.0639648
1470242533523719,-0.0556641
1470242533540233,-0.0566406
1470242533562797,-0.0546875
1470242533583771,-0.0546875
1470242533600285,-0.0629883
1470242533622823,-0.0576172
1470242533643842,-0.0605469
1470242533666347,-0.0571289
1470242533682862,-0.0629883
1470242533703879,-0.0595703
1470242533720394,-0.0576172
1470242533742913,-0.0556641
1470242533763934,-0.0571289
1470242533770938,-0.059082
1470242533785952,-0.0600586
1470242533808472,-0.0556641
1470242533830992,-0.0561523
1470242533846012,-0.0585938
1470242533868527,-0.0566406
1470242533891106,-0.0541992
1470242533906062,-0.0541992
1470242533928659,-0.0585938
1470242533951101,-0.0541992
1470242533965614,-0.0600586
1470242533988148,-0.0561523
1470242534010672,-0.0576172
1470242534025687,-0.0537109
1470242534048202,-0.0512695
1470242534070732,-0.0566406
1470242534085827,-0.0556641
1470242534108250,-0.0551758
1470242534130775,-0.0522461
1470242534145793,-0.0571289
1470242534168311,-0.0546875
1470242534190834,-0.0522461
1470242534205844,-0.0507813
1470242534228349,-0.0571289
1470242534250885,-0.0512695
1470242534265883,-0.0522461
1470242534288408,-0.0546875
1470242534310924,-0.0585938
1470242534325937,-0.0541992
1470242534348457,-0.0537109
1470242534370977,-0.0522461
1470242534385991,-0.0537109
1470242534408511,-0.0566406
1470242534431032,-0.059082
1470242534448570,-0.0527344
1470242534468065,-0.0541992
1470242534491156,-0.0566406
1470242534505613,-0.0546875
1470242534528119,-0.0483398
1470242534550685,-0.0498047
1470242534565655,-0.0488281
1470242534588690,-0.0566406
1470242534610749,-0.0512695
1470242534627242,-0.043457
1470242534648252,-0.0419922
1470242534670751,-0.0419922
1470242534687262,-0.0439453
1470242534708329,-0.0483398
1470242534732303,-0.0537109
1470242534747360,-0.0473633
1470242534768336,-0.0478516
1470242534790888,-0.0532227
1470242534807401,-0.0581055
1470242534828423,-0.0458984
1470242534850944,-0.0429688
1470242534867423,-0.0507813
1470242534888442,-0.050293
1470242534910978,-0.0522461
1470242534928492,-0.0507813
1470242534948591,-0.0439453
1470242534971109,-0.0439453
1470242534989042,-0.0488281
1470242535008094,-0.046875
1470242535030569,-0.0488281
1470242535048619,-0.050293
1470242535068637,-0.0488281
1470242535090629,-0.0541992
1470242535108640,-0.0478516
1470242535128157,-0.0517578
1470242535151257,-0.0507813
1470242535168729,-0.0507813
1470242535188244,-0.0498047
1470242535210791,-0.0576172
1470242535228777,-0.0576172
1470242535248316,-0.0561523
1470242535270858,-0.0556641
1470242535288842,-0.0522461
1470242535308322,-0.0517578
1470242535330879,-0.0488281
1470242535348855,-0.0522461
1470242535368431,-0.0541992
1470242535390893,-0.0581055
1470242535408909,-0.0522461
1470242535428426,-0.0522461
1470242535450947,-0.0620117
1470242535468964,-0.0605469
1470242535488481,-0.0517578
1470242535511140,-0.059082
1470242535528517,-0.0600586
1470242535549536,-0.0561523
1470242535571098,-0.0605469
1470242535588586,-0.0585938
1470242535611123,-0.0576172
1470242535631120,-0.0571289
1470242535648722,-0.0551758
1470242535669645,-0.0522461
1470242535690718,-0.0556641
1470242535708736,-0.0576172
1470242535729697,-0.0585938
1470242535750750,-0.0507813
1470242535768732,-0.0517578
1470242535789753,-0.0527344
1470242535810786,-0.0581055
1470242535828805,-0.0566406
1470242535849805,-0.0576172
1470242535870839,-0.0546875
1470242535888874,-0.0581055
1470242535911431,-0.0581055
1470242535930877,-0.0600586
1470242535948897,-0.0527344
1470242535971415,-0.0498047
1470242535990934,-0.0537109
1470242536008948,-0.0576172
1470242536031468,-0.0566406
1470242536051026,-0.0556641
1470242536068504,-0.0541992
1470242536091540,-0.0527344
1470242536111124,-0.050293
1470242536128555,-0.0400391
1470242536151077,-0.0625
1470242536171594,-0.0498047
1470242536187610,-0.0576172
1470242536210137,-0.0605469
1470242536231658,-0.0512695
1470242536248162,-0.0576172
1470242536270683,-0.065918
1470242536291701,-0.0556641
1470242536307718,-0.0522461
1470242536330237,-0.0537109
1470242536359344,-0.0615234
1470242536367770,-0.0566406
1470242536390291,-0.0566406
1470242536411862,-0.0620117
1470242536427826,-0.0654297
1470242536450345,-0.0390625
1470242536471864,-0.0429688
1470242536487917,-0.0561523
1470242536510398,-0.0419922
1470242536531439,-0.0463867
1470242536547972,-0.0541992
1470242536570452,-0.0541992
1470242536591471,-0.0551758
1470242536607986,-0.0600586
1470242536636512,-0.046875
1470242536651525,-0.0410156
1470242536667539,-0.0546875
1470242536690560,-0.050293
1470242536711168,-0.0410156
1470242536728094,-0.0458984
1470242536750113,-0.0429688
1470242536771633,-0.0512695
1470242536787705,-0.0537109
1470242536810668,-0.0571289
1470242536832688,-0.0571289
1470242536847702,-0.0546875
1470242536870221,-0.0551758
1470242536892744,-0.0541992
1470242536907759,-0.0537109
1470242536930327,-0.0493164
1470242536952798,-0.0449219
1470242536967809,-0.0463867
1470242536996342,-0.046875
1470242537012871,-0.0488281
1470242537027387,-0.0488281
1470242537050383,-0.0512695
1470242537072929,-0.0439453
1470242537087416,-0.0419922
1470242537110440,-0.0390625
1470242537132958,-0.0449219
1470242537146993,-0.0415039
1470242537170493,-0.0302734
1470242537193014,-0.0405273
1470242537207024,-0.0361328
1470242537230545,-0.0258789
1470242537253107,-0.0253906
1470242537267078,-0.0366211
1470242537290640,-0.0419922
1470242537313137,-0.0395508
1470242537334155,-0.0302734
1470242537350663,-0.0117188
1470242537372676,-0.0200195
1470242537394191,-0.0439453
1470242537410207,-0.050293
1470242537432727,-0.0571289
1470242537454246,-0.0317383
1470242537470276,-0.00830078
1470242537492781,-0.0405273
1470242537513802,-0.0571289
1470242537530314,-0.0366211
1470242537552835,-0.0297852
1470242537573909,-0.0375977
1470242537590404,-0.0371094
1470242537612888,-0.0224609
1470242537633953,0.00634766
1470242537650452,-0.00732422
1470242537672944,-0.0566406
1470242537693994,-0.0620117
1470242537710478,-0.0214844
1470242537732997,0.00585938
1470242537754047,-0.0327148
1470242537770530,-0.0463867
1470242537793052,-0.0224609
1470242537815570,-0.0151367
1470242537830585,-0.0317383
1470242537853106,-0.0258789
1470242537875640,-0.0151367
1470242537890138,-0.0209961
1470242537913158,-0.0444336
1470242537935678,-0.081543
1470242537949691,-0.081543
1470242537973214,-0.000488281
1470242537995234,0.0800781
1470242538016752,0.0307617
1470242538032765,-0.0498047
1470242538055288,-0.0395508
1470242538069801,0.015625
1470242538092819,0.0209961
1470242538115340,-0.0200195
1470242538129852,-0.0488281
1470242538152883,-0.0688477
1470242538175393,-0.0332031
1470242538189907,0.0175781
1470242538212955,0.0112305
1470242538235450,-0.0263672
1470242538249460,-0.0439453
1470242538272980,-0.0141602
1470242538295503,0.0249023
1470242538316559,-0.00488281
1470242538339040,-0.034668
1470242538355555,-0.0410156
1470242538376619,-0.0551758
1470242538393089,-0.0463867
1470242538415609,-0.0239258
1470242538436681,-0.019043
1470242538452643,-0.0410156
1470242538475662,-0.0556641
1470242538496683,-0.0375977
1470242538512745,-0.00830078
1470242538535217,-0.0219727
1470242538556735,-0.0322266
1470242538572766,-0.0454102
1470242538595276,-0.0639648
1470242538616790,-0.0546875
1470242538632806,-0.0527344
1470242538655324,-0.0458984
1470242538676399,-0.0712891
1470242538692909,-0.0673828
1470242538715420,-0.0336914
1470242538737937,-0.0571289
1470242538752912,-0.0732422
1470242538775433,-0.0664063
1470242538797953,-0.0537109
1470242538812966,-0.0673828
1470242538835486,-0.0688477
1470242538858014,-0.0595703
1470242538873020,-0.0620117
1470242538895585,-0.0878906
1470242538918060,-0.0922852
1470242538932085,-0.0625
1470242538955594,-0.0581055
1470242538978119,-0.0859375
1470242538992126,-0.0800781
1470242539015648,-0.0737305
1470242539037667,-0.0727539
1470242539052206,-0.0805664
1470242539075702,-0.0942383
1470242539097726,-0.0791016
1470242539112234,-0.0771484
1470242539135255,-0.0844727
1470242539157775,-0.0834961
1470242539172292,-0.0493164
1470242539195309,-0.0629883
1470242539217830,-0.0825195
1470242539232342,-0.0727539
1470242539255363,-0.0908203
1470242539277883,-0.0859375
1470242539300404,-0.0805664
1470242539315417,-0.0844727
1470242539337975,-0.090332
1470242539358956,-0.0864258
1470242539383011,-0.078125
1470242539398029,-0.0849609
1470242539419029,-0.081543
1470242539435525,-0.0717773
1470242539458045,-0.081543
1470242539479081,-0.0854492
1470242539495581,-0.081543
1470242539518126,-0.074707
1470242539539180,-0.0732422
1470242539555632,-0.081543
1470242539578152,-0.0761719
1470242539606678,-0.0742188
1470242539615719,-0.0722656
1470242539637707,-0.0698242
1470242539660227,-0.0541992
1470242539675260,-0.0556641
1470242539697790,-0.0620117
1470242539727788,-0.0708008
1470242539735325,-0.0703125
1470242539758819,-0.0654297
1470242539780336,-0.0678711
1470242539795348,-0.0654297
1470242539817868,-0.0654297
1470242539840390,-0.0664063
1470242539854925,-0.0664063
1470242539877927,-0.0664063
1470242539900443,-0.0620117
1470242539914959,-0.0664063
1470242539937979,-0.0678711
1470242539960512,-0.0615234
1470242539974540,-0.0390625
1470242539998032,-0.0688477
1470242540020550,-0.0673828
1470242540035063,-0.0791016
1470242540058085,-0.0776367
1470242540080631,-0.0732422
1470242540094616,-0.0771484
1470242540118137,-0.0756836
1470242540140657,-0.0644531
1470242540163223,-0.065918
1470242540178191,-0.081543
1470242540200712,-0.0727539
1470242540221731,-0.0615234
1470242540237760,-0.0595703
1470242540260265,-0.100098
1470242540281787,-0.09375
1470242540297799,-0.0664063
1470242540320364,-0.0820313
1470242540341394,-0.0917969
1470242540357853,-0.0888672
1470242540380373,-0.0839844
1470242540401391,-0.0771484
1470242540417908,-0.0786133
1470242540440427,-0.0761719
1470242540461480,-0.081543
1470242540477961,-0.0830078
1470242540500481,-0.0844727
1470242540521528,-0.0834961
1470242540538015,-0.0800781
1470242540560535,-0.0737305
1470242540581584,-0.0805664
1470242540598105,-0.0820313
1470242540620589,-0.0854492
1470242540641656,-0.0810547
1470242540658139,-0.0727539
1470242540680643,-0.0742188
1470242540703164,-0.0722656
1470242540718199,-0.0708008
1470242540740696,-0.0649414
1470242540762762,-0.0639648
1470242540777730,-0.0537109
1470242540800250,-0.0615234
1470242540822806,-0.0629883
1470242540837283,-0.0634766
1470242540860304,-0.0581055
1470242540882824,-0.0546875
1470242540897381,-0.0551758
1470242540920358,-0.0532227
1470242540942879,-0.0556641
1470242540957391,-0.0537109
1470242540980413,-0.059082
1470242541002934,-0.0595703
1470242541017476,-0.0532227
1470242541040466,-0.0556641
1470242541063003,-0.0561523
1470242541077498,-0.059082
1470242541100522,-0.0546875
1470242541123050,-0.059082
1470242541128544,-0.0634766
1470242541145061,-0.0791016
1470242541166079,-0.074707
1470242541188598,-0.0698242
1470242541204613,-0.0395508
1470242541226135,-0.0644531
1470242541248205,-0.0952148
1470242541272175,-0.0776367
1470242541285719,-0.0683594
1470242541308262,-0.0703125
1470242541326283,-0.0756836
1470242541346273,-0.0830078
1470242541368282,-0.0805664
1470242541384776,-0.0883789
1470242541405824,-0.0820313
1470242541428331,-0.0849609
1470242541444862,-0.0825195
1470242541465847,-0.0791016
1470242541488410,-0.0888672
1470242541506427,-0.0805664
1470242541525942,-0.074707
1470242541548464,-0.078125
1470242541566471,-0.0810547
1470242541585955,-0.0898438
1470242541608486,-0.0834961
1470242541626600,-0.0849609
1470242541646049,-0.0810547
1470242541668533,-0.0712891
1470242541686046,-0.0551758
1470242541706064,-0.0668945
1470242541728583,-0.0678711
1470242541746600,-0.0732422
1470242541766118,-0.0693359
1470242541788137,-0.0551758
1470242541806154,-0.0546875
1470242541825670,-0.0585938
1470242541848191,-0.0595703
1470242541866208,-0.0541992
1470242541885772,-0.0532227
1470242541908264,-0.0595703
1470242541926313,-0.0551758
1470242541945805,-0.0615234
1470242541968362,-0.0571289
1470242541986367,-0.0551758
1470242542005833,-0.0620117
1470242542028354,-0.0595703
1470242542046383,-0.0541992
1470242542065887,-0.0595703
1470242542088455,-0.0581055
1470242542106478,-0.0517578
1470242542125942,-0.0556641
1470242542148518,-0.0581055
1470242542166477,-0.0629883
1470242542189091,-0.0595703
1470242542208556,-0.0634766
1470242542226539,-0.0629883
1470242542247549,-0.0615234
1470242542271571,-0.0595703
1470242542286086,-0.0688477
1470242542307105,-0.0668945
1470242542328726,-0.0541992
1470242542346767,-0.0703125
1470242542367157,-0.0786133
1470242542388231,-0.0732422
1470242542406197,-0.0810547
1470242542427213,-0.0908203
1470242542448730,-0.0917969
1470242542466246,-0.0830078
1470242542487265,-0.0800781
1470242542508296,-0.0791016
1470242542526301,-0.0776367
1470242542548820,-0.0961914
1470242542568375,-0.0932617
1470242542586353,-0.0908203
1470242542608874,-0.0859375
1470242542628393,-0.0888672
1470242542646409,-0.0859375
1470242542668928,-0.0849609
1470242542688445,-0.0839844
1470242542705961,-0.0854492
1470242542728981,-0.0854492
1470242542748499,-0.0883789
1470242542766515,-0.0791016
1470242542788535,-0.0825195
1470242542816060,-0.0844727
1470242542826070,-0.0825195
1470242542848589,-0.0625
1470242542868607,-0.0610352
1470242542886123,-0.0742188
1470242542908643,-0.0620117
1470242542928161,-0.0517578
1470242542946177,-0.0581055
1470242542968697,-0.0478516
1470242542988215,-0.0424805
1470242543006231,-0.0517578
1470242543028753,-0.0595703
1470242543048269,-0.0678711
1470242543066285,-0.0644531
1470242543088806,-0.0664063
1470242543108322,-0.0615234
1470242543126339,-0.0649414
1470242543148859,-0.0810547
1470242543169877,-0.0859375
1470242543186392,-0.0625
1470242543216419,-0.0488281
1470242543229431,-0.043457
1470242543246446,-0.0541992
1470242543268466,-0.0615234
1470242543289993,-0.065918
1470242543306500,-0.0625
1470242543329021,-0.0566406
1470242543350040,-0.0600586
1470242543366554,-0.0527344
1470242543388578,-0.0673828
1470242543409593,-0.0771484
1470242543430618,-0.0439453
1470242543448630,-0.0361328
1470242543469647,-0.0922852
1470242543490667,-0.141602
1470242543508682,-0.0610352
1470242543530201,-0.0473633
1470242543551721,-0.10498
1470242543568236,-0.0791016
1470242543590756,-0.0620117
1470242543611775,-0.0507813
1470242543628290,-0.0463867
1470242543650309,-0.0493164
1470242543664824,-0.0541992
1470242543687843,-0.0712891
1470242543710363,-0.0712891
1470242543724892,-0.0683594
1470242543747923,-0.0581055
1470242543770418,-0.0664063
1470242543784931,-0.0820313
1470242543807951,-0.0805664
1470242543830473,-0.0688477
1470242543852991,-0.0541992
1470242543868006,-0.0625
1470242543890570,-0.0634766
1470242543904538,-0.0541992
1470242543928058,-0.0527344
1470242543950579,-0.0537109
1470242543964630,-0.0541992
1470242543988113,-0.0644531
1470242544011135,-0.0698242
1470242544031696,-0.0712891
1470242544048201,-0.0878906
1470242544070705,-0.0600586
1470242544091797,-0.0522461
1470242544108266,-0.0629883
1470242544130240,-0.0600586
1470242544151779,-0.0615234
1470242544168274,-0.0439453
1470242544190794,-0.0454102
1470242544211813,-0.0532227
1470242544228329,-0.0620117
1470242544250348,-0.0664063
1470242544271867,-0.065918
1470242544287881,-0.0712891
1470242544310402,-0.0693359
1470242544331477,-0.065918
1470242544347935,-0.0605469
1470242544370456,-0.0673828
1470242544391521,-0.0673828
1470242544407990,-0.0678711
1470242544430510,-0.0722656
1470242544453030,-0.074707
1470242544468045,-0.0703125
1470242544490563,-0.0649414
1470242544519141,-0.0639648
1470242544528100,-0.0683594
1470242544550617,-0.0639648
1470242544573139,-0.0703125
1470242544588151,-0.074707
1470242544610673,-0.0649414
1470242544633191,-0.0625
1470242544647204,-0.0678711
1470242544670743,-0.0654297
1470242544693245,-0.059082
1470242544707258,-0.0561523
1470242544730779,-0.0727539
1470242544753328,-0.0668945
1470242544767312,-0.0742188
1470242544790337,-0.059082
1470242544812886,-0.0566406
1470242544827367,-0.0556641
1470242544850386,-0.0629883
1470242544872908,-0.0600586
1470242544887420,-0.0522461
1470242544910446,-0.0688477
1470242544932961,-0.0605469
1470242544954502,-0.0561523
1470242544970516,-0.0639648
1470242544999063,-0.0561523
1470242545014066,-0.0537109
1470242545030549,-0.0639648
1470242545053097,-0.0639648
1470242545074087,-0.0585938
1470242545090605,-0.065918
1470242545113122,-0.0742188
1470242545134145,-0.0737305
1470242545150656,-0.0727539
1470242545173178,-0.0585938
1470242545194236,-0.050293
1470242545210710,-0.0625
1470242545233230,-0.0708008
1470242545254278,-0.0649414
1470242545270266,-0.0581055
1470242545293284,-0.0634766
1470242545314310,-0.0727539
1470242545330317,-0.0668945
1470242545352838,-0.0615234
1470242545374371,-0.050293
1470242545390371,-0.0566406
1470242545412894,-0.0639648
1470242545435411,-0.0634766
1470242545450425,-0.0581055
1470242545472945,-0.0654297
1470242545495482,-0.0649414
1470242545510516,-0.065918
1470242545532999,-0.0620117
1470242545555520,-0.0639648
1470242545570032,-0.0595703
1470242545593055,-0.0620117
1470242545615621,-0.065918
1470242545630112,-0.0571289
1470242545653146,-0.0654297
1470242545683135,-0.0678711
1470242545690175,-0.0693359
1470242545713179,-0.0678711
1470242545735682,-0.0605469
1470242545749694,-0.0625
1470242545773215,-0.0634766
1470242545795735,-0.0561523
1470242545809748,-0.0585938
1470242545833269,-0.0576172
1470242545855790,-0.0664063
1470242545869837,-0.0683594
1470242545893323,-0.0629883
1470242545915345,-0.0649414
1470242545936361,-0.0600586
1470242545952876,-0.0620117
1470242545975402,-0.0634766
1470242545996416,-0.0615234
1470242546012998,-0.0585938
1470242546035516,-0.059082
1470242546056557,-0.0634766
1470242546073081,-0.0688477
1470242546095570,-0.0610352
1470242546116589,-0.0629883
1470242546133104,-0.0629883
1470242546155624,-0.0600586
1470242546176683,-0.0634766
1470242546193172,-0.0595703
1470242546215680,-0.0581055
1470242546236775,-0.0649414
1470242546253234,-0.0693359
1470242546275732,-0.0625
1470242546296772,-0.0620117
1470242546313265,-0.059082
1470242546335786,-0.0625
1470242546358328,-0.0629883
1470242546372819,-0.0615234
1470242546395339,-0.0595703
1470242546417861,-0.0634766
1470242546432874,-0.0571289
1470242546455393,-0.059082
1470242546477914,-0.0615234
1470242546492461,-0.0664063
1470242546515448,-0.059082
1470242546537979,-0.0610352
1470242546552481,-0.0585938
1470242546576010,-0.0595703
1470242546598022,-0.0620117
1470242546612535,-0.0668945
1470242546635559,-0.0668945
1470242546658075,-0.0644531
1470242546672087,-0.0585938
1470242546695609,-0.0620117
1470242546718156,-0.0644531
1470242546732642,-0.0615234
1470242546755665,-0.0605469
1470242546778183,-0.059082
1470242546792200,-0.0629883
1470242546815716,-0.0625
1470242546838237,-0.0571289
1470242546859259,-0.0576172
1470242546875274,-0.0634766
1470242546898291,-0.0595703
1470242546919310,-0.0615234
1470242546935326,-0.0600586
1470242546957852,-0.059082
1470242546979374,-0.0527344
1470242546995411,-0.0668945
1470242547017919,-0.0629883
1470242547039467,-0.0605469
1470242547055432,-0.0585938
1470242547077953,-0.059082
1470242547099017,-0.0581055
1470242547115486,-0.0629883
1470242547138026,-0.0571289
1470242547159059,-0.0585938
1470242547175540,-0.0668945
1470242547198062,-0.0585938
1470242547219128,-0.0595703
1470242547235598,-0.0571289
1470242547258114,-0.0610352
1470242547280635,-0.0629883
1470242547295682,-0.0615234
1470242547318168,-0.059082
1470242547340722,-0.059082
1470242547355731,-0.0585938
1470242547378221,-0.0654297
1470242547400742,-0.0615234
1470242547414787,-0.0629883
1470242547438275,-0.0605469
1470242547460803,-0.0595703
1470242547474809,-0.0620117
1470242547498330,-0.0610352
1470242547520397,-0.059082
1470242547534863,-0.0576172
1470242547557886,-0.059082
1470242547580408,-0.0644531
1470242547594921,-0.0615234
1470242547617938,-0.0566406
1470242547640459,-0.0585938
1470242547655004,-0.0610352
1470242547677994,-0.0620117
1470242547700512,-0.059082
1470242547715024,-0.0625
1470242547745552,-0.0634766
1470242547760593,-0.0610352
1470242547775089,-0.0546875
1470242547798099,-0.0620117
1470242547820660,-0.0703125
1470242547841681,-0.0644531
1470242547858156,-0.0629883
1470242547880673,-0.0546875
1470242547903224,-0.0600586
1470242547918207,-0.0595703
1470242547940726,-0.0600586
1470242547961758,-0.0561523
1470242547978260,-0.0605469
1470242548000780,-0.0581055
1470242548021800,-0.0576172
1470242548038314,-0.0585938
1470242548060333,-0.0585938
1470242548081931,-0.0595703
1470242548097870,-0.059082
1470242548120388,-0.0620117
1470242548141408,-0.0610352
1470242548157965,-0.0561523
1470242548180442,-0.0537109
1470242548209478,-0.0639648
1470242548217979,-0.0576172
1470242548246518,-0.0581055
1470242548263068,-0.0541992
1470242548278029,-0.0610352
1470242548300553,-0.0615234
1470242548323072,-0.0595703
1470242548338084,-0.0571289
1470242548360603,-0.0571289
1470242548383124,-0.0576172
1470242548397636,-0.0625
1470242548420658,-0.0581055
1470242548443235,-0.0541992
1470242548457193,-0.0546875
1470242548488719,-0.0644531
1470242548490837,-0.0571289
1470242548508285,-0.0595703
1470242548524751,-0.0585938
1470242548546270,-0.0639648
1470242548568290,-0.0634766
1470242548584806,-0.0654297
1470242548606328,-0.0571289
1470242548628388,-0.0551758
1470242548644860,-0.0595703
1470242548665880,-0.059082
1470242548688453,-0.0585938
1470242548704913,-0.0571289
1470242548725987,-0.0605469
1470242548748460,-0.0498047
1470242548764967,-0.0610352
1470242548785986,-0.0644531
1470242548808506,-0.0610352
1470242548825026,-0.0595703
1470242548846115,-0.0605469
1470242548868633,-0.0600586
1470242548885093,-0.0581055
1470242548906141,-0.0605469
1470242548928631,-0.0600586
1470242548945147,-0.0615234
1470242548966165,-0.0571289
1470242548988686,-0.0581055
1470242549004701,-0.0600586
1470242549026359,-0.0625
1470242549048746,-0.0561523
1470242549064755,-0.0600586
1470242549086274,-0.0581055
1470242549108349,-0.0551758
1470242549124808,-0.0595703
1470242549145855,-0.0581055
1470242549168851,-0.0571289
1470242549186396,-0.0585938
1470242549205881,-0.0610352
1470242549228419,-0.0615234
1470242549246462,-0.0600586
1470242549266435,-0.0561523
1470242549288503,-0.0595703
1470242549306567,-0.0668945
1470242549325989,-0.0581055
1470242549348550,-0.0561523
1470242549366525,-0.0595703
1470242549386067,-0.059082
1470242549411566,-0.0605469
1470242549426579,-0.0566406
1470242549446120,-0.0585938
1470242549468616,-0.0605469
1470242549486662,-0.0571289
1470242549506206,-0.0585938
1470242549528671,-0.0571289
1470242549546733,-0.0556641
1470242549566212,-0.0576172
1470242549588741,-0.0639648
1470242549606748,-0.0595703
1470242549626258,-0.059082
1470242549648278,-0.0581055
1470242549666295,-0.0585938
1470242549685811,-0.0634766
1470242549708376,-0.0615234
1470242549726384,-0.0551758
1470242549746391,-0.0581055
1470242549768388,-0.0600586
1470242549786462,-0.059082
1470242549807421,-0.0576172
1470242549828441,-0.0585938
1470242549846456,-0.0581055
1470242549867475,-0.0625
1470242549888494,-0.0600586
1470242549906510,-0.0571289
1470242549927529,-0.0634766
1470242549948553,-0.0556641
1470242549966565,-0.0625
1470242549987586,-0.0576172
1470242550008601,-0.0551758
1470242550026617,-0.0576172
1470242550047637,-0.0551758
1470242550068655,-0.0620117
1470242550086171,-0.0581055
1470242550107190,-0.0541992
1470242550128209,-0.0600586
1470242550146226,-0.0615234
1470242550168746,-0.0556641
1470242550188763,-0.0600586
1470242550206280,-0.059082
1470242550228802,-0.0629883
1470242550248318,-0.0620117
1470242550266333,-0.0581055
1470242550288853,-0.0561523
1470242550308372,-0.0634766
1470242550326389,-0.0668945
1470242550348935,-0.0541992
1470242550368426,-0.0576172
1470242550386467,-0.0551758
1470242550408963,-0.0654297
1470242550428507,-0.0600586
1470242550446593,-0.0595703
1470242550469069,-0.0615234
1470242550488533,-0.0581055
1470242550506549,-0.0541992
1470242550529110,-0.0595703
1470242550548615,-0.0600586
1470242550566602,-0.0615234
1470242550596632,-0.0581055
1470242550610164,-0.0571289
1470242550626696,-0.0585938
1470242550649176,-0.0615234
1470242550668706,-0.0620117
1470242550686847,-0.0546875
1470242550708731,-0.0571289
1470242550729749,-0.059082
1470242550746311,-0.0585938
1470242550774289,-0.0634766
1470242550789803,-0.059082
1470242550807319,-0.0566406
1470242550828839,-0.0634766
1470242550849857,-0.0620117
1470242550872879,-0.0581055
1470242550887892,-0.0561523
1470242550910413,-0.0610352
1470242550925425,-0.0571289
1470242550947945,-0.0527344
1470242550969465,-0.0576172
1470242550985479,-0.0664063
1470242551008000,-0.0629883
1470242551029605,-0.0571289
1470242551045536,-0.0551758
1470242551068054,-0.0600586
1470242551090594,-0.0566406
1470242551105611,-0.0605469
1470242551128107,-0.0551758
1470242551150628,-0.0571289
1470242551165641,-0.0571289
1470242551188161,-0.0571289
1470242551210686,-0.0620117
1470242551224712,-0.0585938
1470242551248214,-0.0610352
1470242551270736,-0.0551758
1470242551285276,-0.0625
1470242551308270,-0.0644531
1470242551330289,-0.0615234
1470242551344803,-0.0561523
1470242551368322,-0.0595703
1470242551390350,-0.0566406
1470242551404857,-0.0566406
1470242551428376,-0.0605469
1470242551450426,-0.0605469
1470242551464913,-0.0585938
1470242551487931,-0.0585938
1470242551510460,-0.0561523
1470242551525000,-0.0629883
1470242551547984,-0.0595703
1470242551570506,-0.0581055
1470242551592045,-0.0561523
1470242551608038,-0.0576172
1470242551630559,-0.0551758
1470242551651619,-0.059082
1470242551668096,-0.0561523
1470242551690616,-0.0537109
1470242551711664,-0.0527344
1470242551728174,-0.065918
1470242551750703,-0.0615234
1470242551771685,-0.0556641
1470242551788199,-0.0610352
1470242551818226,-0.0498047
1470242551831756,-0.0537109
1470242551848253,-0.0712891
1470242551870774,-0.0668945
1470242551899391,-0.0629883
1470242551908353,-0.0673828
1470242551930333,-0.0517578
1470242551951846,-0.0512695
1470242551967863,-0.0610352
1470242551990881,-0.0639648
1470242552012934,-0.0595703
1470242552027916,-0.0605469
1470242552050436,-0.0571289
1470242552072955,-0.0566406
1470242552087969,-0.0600586
1470242552110491,-0.0634766
1470242552133009,-0.0605469
1470242552147524,-0.0595703
1470242552170568,-0.0595703
1470242552193063,-0.0629883
1470242552207578,-0.0576172
1470242552230598,-0.0566406
1470242552260626,-0.0556641
1470242552267630,-0.0581055
1470242552290690,-0.0561523
1470242552313172,-0.0576172
1470242552327183,-0.0585938
1470242552350713,-0.050293
1470242552373228,-0.0551758
1470242552387270,-0.0556641
1470242552410759,-0.0600586
1470242552433279,-0.0620117
1470242552447293,-0.0576172
1470242552470813,-0.0546875
1470242552492835,-0.0566406
1470242552507358,-0.0605469
1470242552530866,-0.0644531
1470242552553422,-0.0625
1470242552574405,-0.065918
1470242552590438,-0.0634766
1470242552612984,-0.0605469
1470242552634478,-0.0625
1470242552650474,-0.059082
1470242552672994,-0.0639648
1470242552694013,-0.0576172
1470242552710527,-0.0551758
1470242552733047,-0.0556641
1470242552754121,-0.059082
1470242552770581,-0.0556641
1470242552793102,-0.0556641
1470242552815622,-0.0595703
1470242552830636,-0.059082
1470242552853156,-0.0576172
1470242552874210,-0.0585938
1470242552890690,-0.0585938
1470242552913212,-0.0576172
1470242552934233,-0.0600586
1470242552950790,-0.0537109
1470242552973266,-0.0585938
1470242552995818,-0.0615234
1470242553010798,-0.0561523
1470242553033318,-0.0585938
1470242553055841,-0.0571289
1470242553070852,-0.0595703
1470242553093871,-0.0571289
1470242553115891,-0.0546875
1470242553130405,-0.0551758
1470242553153426,-0.0615234
1470242553175485,-0.0585938
1470242553189958,-0.0585938
1470242553212979,-0.0585938
1470242553235501,-0.0561523
1470242553258022,-0.0595703
1470242553273037,-0.0639648
1470242553295554,-0.0605469
1470242553310066,-0.0576172
1470242553333087,-0.0571289
1470242553355612,-0.0571289
1470242553370124,-0.0610352
1470242553393143,-0.059082
1470242553415668,-0.0571289
1470242553436682,-0.0561523
1470242553453197,-0.0551758
1470242553475735,-0.0527344
1470242553496777,-0.0566406
1470242553513249,-0.0615234
1470242553535771,-0.0629883
1470242553556850,-0.0595703
1470242553573354,-0.0522461
1470242553595832,-0.0546875
1470242553616841,-0.0600586
1470242553633356,-0.0541992
1470242553655880,-0.0595703
1470242553676896,-0.0581055
1470242553692966,-0.0585938
1470242553715930,-0.0600586
1470242553736950,-0.0561523
1470242553752981,-0.0595703
1470242553775484,-0.0585938
1470242553796559,-0.0585938
1470242553813033,-0.0600586
1470242553843053,-0.0581055
1470242553857074,-0.0556641
1470242553873091,-0.0595703
1470242553895594,-0.0610352
1470242553916612,-0.0566406
1470242553932624,-0.0600586
1470242553955690,-0.0625
1470242553978167,-0.0566406
1470242553993180,-0.0532227
1470242554015699,-0.0581055
1470242554038274,-0.0615234
1470242554053233,-0.0625
1470242554075754,-0.0600586
1470242554098274,-0.0571289
1470242554119375,-0.050293
1470242554135807,-0.0551758
1470242554158333,-0.0600586
1470242554172340,-0.0581055
1470242554195861,-0.0600586
1470242554218381,-0.0610352
1470242554232432,-0.0473633
1470242554255935,-0.0512695
1470242554277936,-0.0600586
1470242554292452,-0.0678711
1470242554315469,-0.0625
1470242554337990,-0.0571289
1470242554352502,-0.0493164
1470242554375522,-0.0517578
1470242554398083,-0.0566406
1470242554419578,-0.0634766
1470242554435577,-0.0620117
1470242554458097,-0.0600586
1470242554479157,-0.0556641
1470242554495631,-0.0556641
1470242554518188,-0.0615234
1470242554539225,-0.0639648
1470242554555687,-0.059082
1470242554578204,-0.0512695
1470242554599276,-0.0454102
1470242554615738,-0.0517578
1470242554638286,-0.0571289
1470242554659338,-0.0600586
1470242554675798,-0.0625
1470242554698332,-0.0610352
1470242554726881,-0.0561523
1470242554735846,-0.0551758
1470242554758366,-0.0517578
1470242554779385,-0.0517578
1470242554795900,-0.0566406
1470242554817921,-0.0556641
1470242554840440,-0.0561523
1470242554855453,-0.0581055
1470242554877974,-0.0532227
1470242554900496,-0.0522461
1470242554915519,-0.0532227
1470242554938067,-0.059082
1470242554960548,-0.0541992
1470242554976079,-0.0561523
1470242554998081,-0.0605469
1470242555020603,-0.0527344
1470242555035116,-0.0507813
1470242555065651,-0.0522461
1470242555080658,-0.0571289
1470242555095169,-0.0546875
1470242555118189,-0.0541992
1470242555141209,-0.0605469
1470242555155222,-0.059082
1470242555184250,-0.0537109
1470242555200763,-0.050293
1470242555215280,-0.0532227
1470242555238297,-0.0541992
1470242555260818,-0.0546875
1470242555274830,-0.0571289
1470242555298363,-0.059082
1470242555320896,-0.0537109
1470242555334886,-0.0556641
1470242555358431,-0.0532227
1470242555380429,-0.0561523
1470242555401944,-0.0566406
1470242555417959,-0.0585938
1470242555440479,-0.0546875
1470242555461553,-0.0517578
1470242555478019,-0.0537109
1470242555500533,-0.0551758
1470242555521564,-0.0551758
1470242555544105,-0.0537109
1470242555560589,-0.0546875
1470242555582682,-0.0629883
1470242555598124,-0.0576172
1470242555620682,-0.0537109
1470242555641715,-0.0541992
1470242555658215,-0.0532227
1470242555680726,-0.0561523
1470242555701713,-0.0561523
1470242555718231,-0.0566406
1470242555740749,-0.0556641
1470242555761831,-0.0517578
1470242555777781,-0.0488281
1470242555800802,-0.0527344
1470242555823339,-0.0556641
1470242555838335,-0.0600586
1470242555843340,-0.0498047
1470242555865876,-0.0546875
1470242555888897,-0.0581055
1470242555903402,-0.0571289
1470242555926442,-0.0537109
1470242555948964,-0.0541992
1470242555963453,-0.0556641
1470242555986014,-0.0541992
1470242556008522,-0.0581055
1470242556023546,-0.0581055
1470242556046078,-0.0546875
1470242556068553,-0.0532227
1470242556083556,-0.0546875
1470242556106082,-0.0566406
1470242556128596,-0.0551758
1470242556143639,-0.0527344
1470242556166144,-0.0576172
1470242556188716,-0.0532227
1470242556203697,-0.0620117
1470242556226240,-0.0527344
1470242556248705,-0.059082
1470242556266720,-0.0551758
1470242556286239,-0.050293
1470242556308758,-0.0546875
1470242556323772,-0.0561523
1470242556348795,-0.0561523
1470242556368812,-0.0581055
1470242556383825,-0.0576172
1470242556406346,-0.0571289
1470242556428958,-0.0546875
1470242556444880,-0.0527344
1470242556465932,-0.0532227
1470242556488470,-0.0620117
1470242556506938,-0.0634766
1470242556525982,-0.0541992
1470242556548475,-0.0512695
1470242556564988,-0.0610352
1470242556586009,-0.0600586
1470242556608583,-0.0561523
1470242556626544,-0.0532227
1470242556646085,-0.0585938
1470242556668616,-0.059082
1470242556685116,-0.0581055
1470242556706122,-0.0507813
1470242556728697,-0.0566406
1470242556745242,-0.0576172
1470242556766170,-0.0571289
1470242556788689,-0.0551758
1470242556814212,-0.0527344
1470242556826233,-0.0620117
1470242556848743,-0.0576172
1470242556866761,-0.0551758
1470242556893784,-0.0483398
1470242556908797,-0.0541992
1470242556932320,-0.0551758
1470242556946336,-0.0585938
1470242556968851,-0.0571289
1470242556986401,-0.0571289
1470242557005885,-0.0517578
1470242557028449,-0.0551758
1470242557046450,-0.0610352
1470242557065973,-0.0566406
1470242557088501,-0.0551758
1470242557106517,-0.0556641
1470242557126025,-0.0615234
1470242557148539,-0.0517578
1470242557166561,-0.059082
1470242557186051,-0.0498047
1470242557210070,-0.0532227
1470242557226600,-0.0527344
1470242557246119,-0.0527344
1470242557268620,-0.050293
1470242557286736,-0.0571289
1470242557306223,-0.0576172
1470242557328715,-0.0561523
1470242557346699,-0.0546875
1470242557369227,-0.0556641
1470242557388728,-0.0556641
1470242557406744,-0.0615234
1470242557427263,-0.0629883
1470242557459292,-0.050293
1470242557466798,-0.0537109
1470242557487356,-0.0527344
1470242557508388,-0.0654297
1470242557526351,-0.0566406
1470242557547373,-0.0512695
1470242557568416,-0.0556641
1470242557586943,-0.0585938
1470242557607424,-0.0532227
1470242557628456,-0.0551758
1470242557646460,-0.0600586
1470242557667479,-0.0507813
1470242557688532,-0.059082
1470242557706554,-0.0654297
1470242557729089,-0.059082
1470242557748567,-0.0546875
1470242557767068,-0.0546875
1470242557789132,-0.0473633
1470242557808640,-0.0668945
1470242557826666,-0.0556641
1470242557849142,-0.0419922
1470242557868659,-0.0664063
1470242557886675,-0.0556641
1470242557909226,-0.0527344
1470242557928713,-0.0566406
1470242557946730,-0.059082
1470242557969249,-0.0532227
1470242557988767,-0.0693359
1470242558006783,-0.0576172
1470242558029303,-0.050293
1470242558048827,-0.0507813
1470242558066338,-0.0610352
1470242558088870,-0.0629883
1470242558108875,-0.0527344
1470242558126390,-0.0488281
1470242558148913,-0.0561523
1470242558168928,-0.0478516
1470242558186476,-0.0522461
1470242558208970,-0.0522461
1470242558228526,-0.059082
1470242558246593,-0.0551758
1470242558268023,-0.0541992
1470242558289537,-0.0517578
1470242558305552,-0.0537109
1470242558328071,-0.0571289
1470242558349664,-0.059082
1470242558365606,-0.0585938
1470242558388125,-0.0527344
1470242558409144,-0.0517578
1470242558425661,-0.0595703
1470242558448180,-0.0605469
1470242558469198,-0.0522461
1470242558485715,-0.0488281
1470242558508233,-0.050293
1470242558529265,-0.0595703
1470242558545770,-0.0541992
1470242558568287,-0.0556641
1470242558589347,-0.0546875
1470242558605820,-0.0566406
1470242558628341,-0.0522461
1470242558649415,-0.0566406
1470242558665875,-0.0571289
1470242558687901,-0.0581055
1470242558710915,-0.0571289
1470242558725928,-0.0537109
1470242558755955,-0.0595703
1470242558770969,-0.0493164
1470242558785483,-0.0512695
1470242558808010,-0.0556641
1470242558831023,-0.0571289
1470242558845536,-0.0556641
1470242558874690,-0.0541992
1470242558890578,-0.0551758
1470242558905092,-0.0546875
1470242558928111,-0.0566406
1470242558950631,-0.0551758
1470242558965146,-0.059082
1470242558988164,-0.0537109
1470242559010685,-0.0571289
1470242559025199,-0.0541992
1470242559048218,-0.0517578
1470242559070739,-0.0541992
1470242559085256,-0.0576172
1470242559108273,-0.0512695
1470242559130793,-0.0527344
1470242559151813,-0.0517578
1470242559168326,-0.0512695
1470242559196879,-0.0566406
1470242559211895,-0.0498047
1470242559227891,-0.0537109
1470242559250973,-0.0507813
1470242559271953,-0.0566406
1470242559288434,-0.0512695
1470242559310955,-0.0561523
1470242559331972,-0.0532227
1470242559348487,-0.0512695
1470242559370527,-0.0556641
1470242559392044,-0.0498047
1470242559408074,-0.0483398
1470242559430564,-0.050293
1470242559452080,-0.0581055
1470242559475602,-0.0576172
1470242559490633,-0.0522461
1470242559511693,-0.0537109
1470242559528150,-0.0488281
1470242559550673,-0.0444336
1470242559571688,-0.0493164
1470242559588203,-0.0478516
1470242559610744,-0.050293
1470242559633244,-0.0566406
1470242559648259,-0.0488281
1470242559670777,-0.050293
1470242559693297,-0.0493164
1470242559708313,-0.0512695
1470242559730830,-0.0546875
1470242559753392,-0.0522461
1470242559768367,-0.050293
1470242559790885,-0.0478516
1470242559812905,-0.0566406
1470242559827417,-0.0532227
1470242559850439,-0.0537109
1470242559873460,-0.0488281
1470242559887471,-0.050293
1470242559916998,-0.0527344
1470242559933512,-0.0556641
1470242559947527,-0.0512695
1470242559970570,-0.043457
1470242559993067,-0.0561523
1470242560007579,-0.050293
1470242560030600,-0.0571289
1470242560053121,-0.0517578
1470242560067634,-0.050293
1470242560090654,-0.0517578
1470242560113176,-0.0537109
1470242560134225,-0.0527344
1470242560150708,-0.0478516
1470242560173232,-0.0507813
1470242560194247,-0.0463867
1470242560210762,-0.050293
1470242560233282,-0.0541992
1470242560254343,-0.0576172
1470242560270855,-0.0551758
1470242560293336,-0.0532227
1470242560314380,-0.0488281
1470242560330870,-0.0507813
1470242560353390,-0.0493164
1470242560374440,-0.0517578
1470242560390950,-0.0483398
1470242560413443,-0.0585938
1470242560434462,-0.0493164
1470242560450978,-0.0415039
1470242560472999,-0.0537109
1470242560494069,-0.0556641
1470242560510565,-0.0532227
1470242560533101,-0.0493164
1470242560554657,-0.0517578
1470242560570604,-0.050293
1470242560593140,-0.0581055
1470242560615625,-0.0498047
1470242560630641,-0.0532227
1470242560653200,-0.0498047
1470242560675680,-0.0541992
1470242560690693,-0.0493164
1470242560713250,-0.0517578
1470242560735733,-0.0527344
1470242560750246,-0.0537109
1470242560773269,-0.0551758
1470242560795793,-0.0507813
1470242560816806,-0.0507813
1470242560833323,-0.0532227
1470242560855841,-0.0546875
1470242560869856,-0.0527344
1470242560893375,-0.0517578
1470242560923435,-0.0512695
1470242560929907,-0.0556641
1470242560953433,-0.0537109
1470242560975948,-0.0551758
1470242560989975,-0.0507813
1470242561013482,-0.0493164
1470242561035503,-0.0634766
1470242561050015,-0.0546875
1470242561073038,-0.0498047
1470242561095556,-0.0585938
1470242561116607,-0.0576172
1470242561133090,-0.0498047
1470242561155613,-0.0473633
1470242561176687,-0.0522461
1470242561193145,-0.0527344
1470242561215664,-0.0571289
1470242561236712,-0.050293
1470242561253221,-0.050293
1470242561275718,-0.0561523
1470242561297243,-0.0532227
1470242561313253,-0.0517578
1470242561335772,-0.0517578
1470242561356826,-0.0478516
1470242561373309,-0.0532227
1470242561395826,-0.0522461
1470242561416845,-0.0517578
1470242561433362,-0.0556641
1470242561455880,-0.0537109
1470242561476928,-0.0483398
1470242561493415,-0.0532227
1470242561515934,-0.0532227
1470242561538469,-0.0541992
1470242561553467,-0.0512695
1470242561583496,-0.0537109
1470242561598508,-0.0493164
1470242561613075,-0.0522461
1470242561635541,-0.0522461
1470242561658063,-0.0512695
1470242561673078,-0.0532227
1470242561695644,-0.0512695
1470242561724121,-0.0512695
1470242561732629,-0.0541992
1470242561755649,-0.0512695
1470242561778169,-0.0527344
1470242561792712,-0.0546875
1470242561815713,-0.0478516
1470242561838225,-0.0546875
1470242561852771,-0.0488281
1470242561875758,-0.0478516
1470242561898313,-0.0522461
1470242561912804,-0.0585938
1470242561935814,-0.0522461
1470242561958331,-0.0517578
1470242561972344,-0.0483398
1470242561995903,-0.0473633
1470242562018413,-0.0493164
1470242562039486,-0.0576172
1470242562055930,-0.0527344
1470242562078440,-0.0493164
1470242562099458,-0.0551758
1470242562115973,-0.050293
1470242562137998,-0.0488281
1470242562159011,-0.050293
1470242562175527,-0.0551758
1470242562198046,-0.0541992
1470242562219566,-0.0517578
1470242562235579,-0.0517578
1470242562258106,-0.0537109
1470242562280621,-0.0546875
1470242562303196,-0.0527344
1470242562318154,-0.0566406
1470242562339692,-0.0498047
1470242562363194,-0.0498047
1470242562378208,-0.0512695
1470242562399227,-0.0512695
1470242562415742,-0.050293
1470242562438295,-0.0566406
1470242562459328,-0.050293
1470242562475295,-0.0507813
1470242562498316,-0.0517578
1470242562520837,-0.0551758
1470242562535883,-0.0517578
1470242562558400,-0.0546875
1470242562580890,-0.0478516
1470242562595904,-0.0527344
1470242562618424,-0.0498047
1470242562640944,-0.0488281
1470242562655008,-0.0551758
1470242562678503,-0.0566406
1470242562700498,-0.0571289
1470242562715010,-0.0488281
1470242562738050,-0.0498047
1470242562760551,-0.0498047
1470242562775065,-0.0507813
1470242562798085,-0.0493164
1470242562820649,-0.0463867
1470242562835119,-0.0522461
1470242562858138,-0.0517578
1470242562880660,-0.0478516
1470242562895194,-0.0488281
1470242562918193,-0.0551758
1470242562940713,-0.0527344
1470242562955226,-0.050293
1470242562978254,-0.0522461
1470242563000768,-0.0566406
1470242563021818,-0.0507813
1470242563038301,-0.0507813
1470242563060821,-0.0478516
1470242563081872,-0.0493164
1470242563098356,-0.0488281
1470242563120875,-0.0512695
1470242563141945,-0.0532227
1470242563158409,-0.0483398
1470242563180928,-0.0493164
1470242563202019,-0.0537109
1470242563218463,-0.0532227
1470242563240503,-0.0546875
1470242563245987,-0.0478516
1470242563269008,-0.046875
1470242563283535,-0.0537109
1470242563306060,-0.0454102
1470242563328590,-0.0527344
1470242563343604,-0.0512695
1470242563366120,-0.0576172
1470242563388656,-0.0546875
1470242563403628,-0.046875
1470242563426195,-0.0454102
1470242563448714,-0.0537109
1470242563463689,-0.0541992
1470242563486203,-0.0512695
1470242563508750,-0.0498047
1470242563523778,-0.0498047
1470242563553856,-0.0522461
1470242563568820,-0.0537109
1470242563583791,-0.0488281
1470242563606311,-0.0458984
1470242563628833,-0.0541992
1470242563643844,-0.0522461
1470242563666367,-0.0483398
1470242563688982,-0.0551758
1470242563703898,-0.0532227
1470242563726418,-0.0517578
1470242563751441,-0.050293
1470242563763454,-0.0532227
1470242563786064,-0.0517578
1470242563809045,-0.0532227
1470242563823558,-0.0532227
1470242563846534,-0.0493164
1470242563870048,-0.0493164
1470242563883613,-0.0512695
1470242563906080,-0.0498047
1470242563928600,-0.0537109
1470242563943613,-0.0507813
1470242563966136,-0.050293
1470242563988656,-0.0454102
1470242564003685,-0.0493164
1470242564026240,-0.0488281
1470242564048747,-0.0507813
1470242564065258,-0.0507813
1470242564086286,-0.0493164
1470242564108762,-0.0498047
1470242564125277,-0.0507813
1470242564146294,-0.050293
1470242564168815,-0.046875
1470242564185330,-0.0512695
1470242564206349,-0.0463867
1470242564228870,-0.050293
1470242564244901,-0.0537109
1470242564265950,-0.0498047
1470242564288958,-0.050293
1470242564304938,-0.0488281
1470242564325957,-0.0473633
1470242564348476,-0.0458984
1470242564365007,-0.0463867
1470242564386110,-0.0527344
1470242564409064,-0.0541992
1470242564427065,-0.0551758
1470242564446107,-0.0478516
1470242564471643,-0.0527344
1470242564486644,-0.050293
1470242564507620,-0.0527344
1470242564528691,-0.0488281
1470242564546656,-0.0488281
1470242564566172,-0.0561523
1470242564588692,-0.0507813
1470242564606739,-0.050293
1470242564626267,-0.0483398
1470242564648788,-0.0493164
1470242564666795,-0.0483398
1470242564686311,-0.0566406
1470242564708818,-0.0498047
1470242564726840,-0.0498047
1470242564746334,-0.0498047
1470242564768854,-0.0517578
1470242564786870,-0.0517578
1470242564806388,-0.0507813
1470242564828919,-0.0473633
1470242564846935,-0.0493164
1470242564865965,-0.0507813
1470242564889031,-0.0498047
1470242564906520,-0.0556641
1470242564925997,-0.0463867
1470242564949056,-0.0517578
1470242564966532,-0.0493164
1470242564987551,-0.0488281
1470242565009072,-0.0517578
1470242565026628,-0.0522461
1470242565047607,-0.0517578
1470242565068642,-0.0507813
1470242565086690,-0.0498047
1470242565109203,-0.0429688
1470242565128695,-0.0498047
1470242565146736,-0.0527344
1470242565167714,-0.0507813
1470242565188731,-0.0507813
1470242565206748,-0.0532227
1470242565227771,-0.0463867
1470242565248826,-0.0498047
1470242565266801,-0.0532227
1470242565287821,-0.0488281
1470242565308839,-0.0507813
1470242565326861,-0.0517578
1470242565349376,-0.0473633
1470242565368893,-0.0507813
1470242565386926,-0.050293
1470242565414935,-0.050293
1470242565428947,-0.0517578
1470242565446463,-0.0478516
1470242565469523,-0.0478516
1470242565489002,-0.0576172
1470242565506647,-0.0678711
1470242565529546,-0.046875
1470242565549057,-0.0205078
1470242565566605,-0.0297852
1470242565589142,-0.0429688
1470242565608623,-0.0449219
1470242565625623,-0.0405273
1470242565648656,-0.0444336
1470242565669664,-0.0449219
1470242565685709,-0.0317383
1470242565708198,-0.027832
1470242565729731,-0.0146484
1470242565745243,-0.0131836
1470242565768252,0.00195313
1470242565789271,0.0161133
1470242565805792,-0.00488281
1470242565828309,-0.0498047
1470242565849325,-0.0668945
1470242565865840,-0.065918
1470242565888359,-0.0849609
1470242565909380,-0.0922852
1470242565925925,-0.0947266
1470242565948415,-0.11084
1470242565969461,-0.126953
1470242565985947,-0.135254
1470242566008476,-0.150879
1470242566029486,-0.178711
1470242566046002,-0.158203
1470242566068022,-0.182129
1470242566089540,-0.21582
1470242566105057,-0.259766
1470242566128575,-0.253418
1470242566149594,-0.29834
1470242566165108,-0.241211
1470242566188129,-0.141113
1470242566209691,-0.166016
1470242566225168,-0.208496
1470242566248182,-0.208496
1470242566269220,-0.190918
1470242566285216,-0.186035
1470242566308268,-0.152832
1470242566330769,-0.101563
1470242566345282,-0.0449219
1470242566368291,0.0107422
1470242566390813,0.0454102
1470242566411830,0.046875
1470242566428344,0.0356445
1470242566450864,0.00732422
1470242566471885,-0.0249023
1470242566488398,-0.0498047
1470242566510965,-0.0283203
1470242566531964,0.0620117
1470242566548454,0.100586
1470242566570974,0.0991211
1470242566592078,0.0615234
1470242566608508,0.0791016
1470242566637073,0.143555
1470242566652073,0.192383
1470242566668559,0.162598
1470242566691080,0.119629
1470242566712120,0.167969
1470242566728115,0.191895
1470242566751134,0.178223
1470242566772153,0.17041
1470242566788167,0.232422
1470242566810705,0.291504
1470242566832213,0.155762
1470242566848221,0.202637
1470242566870744,0.300781
1470242566892261,0.223145
1470242566915796,0.200195
1470242566930795,0.239746
1470242566951815,0.187012
1470242566968330,0.145508
1470242566990849,0.113281
1470242567019398,0.0830078
1470242567027387,0.0795898
1470242567050905,0.0927734
1470242567071940,0.0834961
1470242567087936,0.0517578
1470242567110957,0.0185547
1470242567131977,0.00390625
1470242567147490,0.0161133
1470242567171012,-0.0253906
1470242567192093,-0.0883789
1470242567207546,-0.108398
1470242567231065,-0.10791
1470242567253586,-0.145996
1470242567267598,-0.234375
1470242567290625,-0.293457
1470242567313187,-0.329102
1470242567327687,-0.333008
1470242567357285,-0.330078
1470242567373193,-0.364746
1470242567394788,-0.423828
1470242567410728,-0.424316
1470242567433246,-0.398926
1470242567454309,-0.400879
1470242567470781,-0.478027
1470242567493303,-0.514648
1470242567514322,-0.489258
1470242567530838,-0.47998
1470242567553388,-0.554688
1470242567574386,-0.60791
1470242567590888,-0.598633
1470242567613410,-0.556152
1470242567634428,-0.555664
1470242567650942,-0.57373
1470242567673511,-0.560547
1470242567694481,-0.561523
1470242567717054,-0.549805
1470242567733535,-0.553711
1470242567754573,-0.543457
1470242567771049,-0.518066
1470242567801077,-0.518555
1470242567814599,-0.523438
1470242567831104,-0.501953
1470242567853129,-0.495117
1470242567874643,-0.501465
1470242567890659,-0.509766
1470242567913177,-0.503418
1470242567934697,-0.514648
1470242567950711,-0.543945
1470242567973231,-0.552734
1470242567994770,-0.49707
1470242568010264,-0.466309
1470242568033286,-0.519531
1470242568054357,-0.545898
1470242568078327,-0.510254
1470242568093339,-0.479004
1470242568114394,-0.529297
1470242568130375,-0.54834
1470242568159443,-0.538086
1470242568175913,-0.539063
1470242568190426,-0.524414
1470242568213481,-0.565918
1470242568235969,-0.566406
1470242568249980,-0.563477
1470242568273512,-0.559082
1470242568296022,-0.581055
1470242568310038,-0.570313
1470242568333583,-0.568848
1470242568356075,-0.567871
1470242568377094,-0.592773
1470242568393609,-0.630371
1470242568416138,-0.600586
1470242568438149,-0.601074
1470242568453162,-0.625488
1470242568475684,-0.65625
1470242568496718,-0.611816
1470242568519278,-0.605469
1470242568535754,-0.643066
1470242568556755,-0.65918
1470242568573270,-0.659668
1470242568595794,-0.68457
1470242568616843,-0.691406
1470242568633324,-0.706055
1470242568655844,-0.692871
1470242568676890,-0.675781
1470242568693378,-0.703613
1470242568715923,-0.723633
1470242568744477,-0.703613
1470242568753472,-0.69043
1470242568775954,-0.706055
1470242568797027,-0.693359
1470242568813527,-0.725098
1470242568836012,-0.740234
1470242568857027,-0.720215
1470242568873540,-0.699707
1470242568896059,-0.759766
1470242568917078,-0.76123
1470242568932595,-0.740723
1470242568955650,-0.745605
1470242568984639,-0.76709
1470242568993652,-0.756836
1470242569015669,-0.767578
1470242569037291,-0.731934
1470242569076222,-0.733887
1470242569078730,-0.771973
1470242569098242,-0.776367
1470242569114756,-0.769043
1470242569135775,-0.738281
1470242569158297,-0.777344
1470242569173309,-0.838379
1470242569195833,-0.79834
1470242569218349,-0.785156
1470242569233365,-0.787109
1470242569255891,-0.79541
1470242569278442,-0.776855
1470242569292916,-0.73877
1470242569315937,-0.735352
1470242569339959,-0.780273
1470242569353973,-0.762207
1470242569376023,-0.739258
1470242569398013,-0.741699
1470242569412542,-0.623047
1470242569436547,-0.636719
1470242569458565,-1.0459
1470242569472578,-0.407227
1470242569495600,-1.12988
1470242569518119,-0.77832
1470242569532631,-0.73291
1470242569555654,-0.764648
1470242569578172,-0.798828
1470242569592686,-0.784668
1470242569622212,-0.739746
1470242569638228,-0.75
1470242569659245,-0.76709
1470242569676261,-0.767578
1470242569698282,-0.773438
1470242569719802,-0.745117
1470242569735814,-0.753418
1470242569758335,-0.745605
1470242569779854,-0.786133
1470242569795886,-0.751953
1470242569818389,-0.752441
1470242569839424,-0.754883
1470242569855970,-0.751465
1470242569878442,-0.766602
1470242569899461,-0.729004
1470242569915976,-0.736816
1470242569938496,-0.728516
1470242569959514,-0.763184
1470242569976030,-0.784668
1470242569998549,-0.749023
1470242570020580,-0.745117
1470242570036084,-0.775391
1470242570058260,-0.780273
1470242570080626,-0.783691
1470242570103145,-0.762207
1470242570118658,-0.75
1470242570140678,-0.76123
1470242570155691,-0.751953
1470242570185719,-0.750488
1470242570200731,-0.76123
1470242570215245,-0.763184
1470242570238265,-0.76123
1470242570260801,-0.766113
1470242570275332,-0.763184
1470242570298321,-0.770996
1470242570328368,-0.757813
1470242570335354,-0.770996
1470242570358373,-0.758789
1470242570380893,-0.771973
1470242570395406,-0.748535
1470242570418427,-0.748047
1470242570440947,-0.770508
1470242570462966,-0.770996
1470242570485988,-0.765137
1470242570501506,-0.779297
1470242570515013,-0.766602
1470242570538534,-0.783203
1470242570561055,-0.785645
1470242570582101,-0.773438
1470242570598589,-0.761719
1470242570621110,-0.770508
1470242570642128,-0.764648
1470242570648638,-0.762207
1470242570663648,-0.743164
1470242570686172,-0.762207
1470242570708722,-0.760742
1470242570723736,-0.754395
1470242570746249,-0.760742
1470242570764237,-0.753418
1470242570783756,-0.746582
1470242570807776,-0.76123
1470242570824308,-0.756348
1470242570851319,-0.742188
1470242570866330,-0.739258
1470242570884346,-0.735352
1470242570911378,-0.72998
1470242570926384,-0.70752
1470242570948947,-0.726563
1470242570963917,-0.733887
1470242570986437,-0.716309
1470242571008957,-0.712402
1470242571023987,-0.697266
1470242571047992,-0.713867
1470242571069017,-0.705566
1470242571084025,-0.715332
1470242571106545,-0.739746
1470242571128580,-0.744141
1470242571145079,-0.737793
1470242571166599,-0.750977
1470242571189157,-0.757324
1470242571203637,-0.743164
1470242571226196,-0.730469
1470242571248672,-0.726563
1470242571263709,-0.726563
1470242571286222,-0.70752
1470242571308726,-0.687012
1470242571323742,-0.669922
1470242571346303,-0.679688
1470242571368782,-0.696777
1470242571383822,-0.678711
1470242571406382,-0.700195
1470242571428863,-0.687988
1470242571443880,-0.679688
1470242571466425,-0.666992
1470242571488925,-0.634766
1470242571503901,-0.647461
1470242571526422,-0.660645
1470242571548943,-0.657715
1470242571571464,-0.638672
1470242571586481,-0.624023
1470242571609000,-0.657715
1470242571625010,-0.665039
1470242571654037,-0.65918
1470242571668550,-0.648926
1470242571685066,-0.644043
1470242571706583,-0.654297
1470242571728604,-0.647949
1470242571745119,-0.635254
1470242571769140,-0.619141
1470242571789162,-0.620605
1470242571805187,-0.631836
1470242571826210,-0.614746
1470242571848716,-0.600098
1470242571865234,-0.611328
1470242571886245,-0.60498
1470242571908767,-0.59375
1470242571931302,-0.580078
1470242571946328,-0.585449
1470242571964328,-0.57666
1470242571986835,-0.582031
1470242572006432,-0.569336
1470242572024427,-0.578125
1470242572046927,-0.605469
1470242572066407,-0.602051
1470242572084422,-0.567871
1470242572106949,-0.592285
1470242572128964,-0.591309
1470242572143977,-0.58252
1470242572166497,-0.572754
1470242572186514,-0.57373
1470242572204030,-0.586914
1470242572226563,-0.582031
1470242572246568,-0.58252
1470242572264181,-0.588379
1470242572286661,-0.585938
1470242572306628,-0.594238
1470242572324140,-0.600586
1470242572346753,-0.604492
1470242572366177,-0.603027
1470242572389197,-0.606934
1470242572406729,-0.620605
1470242572427733,-0.606934
1470242572448767,-0.61377
1470242572466781,-0.61084
1470242572486286,-0.60791
1470242572508806,-0.601074
1470242572526836,-0.60498
1470242572546366,-0.620605
1470242572568858,-0.615723
1470242572586875,-0.623047
1470242572607892,-0.609863
1470242572624409,-0.587402
1470242572646929,-0.600098
1470242572667465,-0.62793
1470242572683974,-0.62793
1470242572706987,-0.620605
1470242572727536,-0.613281
1470242572749019,-0.630371
1470242572766535,-0.631836
1470242572787554,-0.63623
1470242572804069,-0.616699
1470242572827128,-0.640625
1470242572847608,-0.608398
1470242572864636,-0.608887
1470242572886645,-0.643555
1470242572907667,-0.633789
1470242572924219,-0.617188
1470242572946755,-0.609863
1470242572969217,-0.610352
1470242572991755,-0.590332
1470242573006766,-0.628418
1470242573028771,-0.642578
1470242573049312,-0.625977
1470242573073321,-0.616211
1470242573088350,-0.609375
1470242573109844,-0.611328
1470242573125879,-0.616211
1470242573148378,-0.619141
1470242573169407,-0.615234
1470242573185912,-0.598633
1470242573208434,-0.61377
1470242573222467,-0.600586
1470242573245966,-0.61377
1470242573268486,-0.620605
1470242573282499,-0.617676
1470242573306040,-0.605957
1470242573328540,-0.599121
1470242573342552,-0.619141
1470242573366087,-0.622559
1470242573388610,-0.607422
1470242573402606,-0.620605
1470242573426129,-0.624512
1470242573448147,-0.619141
1470242573469666,-0.611328
1470242573486181,-0.616211
1470242573508201,-0.603516
1470242573529725,-0.600098
1470242573545736,-0.61377
1470242573568756,-0.617188
1470242573589868,-0.611328
1470242573605789,-0.609375
1470242573628311,-0.616699
1470242573649835,-0.608398
1470242573665843,-0.620605
1470242573688364,-0.619629
1470242573709382,-0.623047
1470242573725897,-0.615723
1470242573748417,-0.621094
1470242573769447,-0.625977
1470242573785951,-0.621582
1470242573808470,-0.619629
1470242573829489,-0.616211
1470242573846005,-0.613281
1470242573868525,-0.615234
1470242573891045,-0.611328
1470242573906059,-0.616699
1470242573928579,-0.612793
1470242573951600,-0.621094
1470242573965112,-0.622559
1470242573988633,-0.61084
1470242574011159,-0.606934
1470242574025167,-0.611816
1470242574048686,-0.617188
1470242574071223,-0.614746
1470242574085219,-0.602051
1470242574108276,-0.602539
1470242574131261,-0.600098
1470242574145273,-0.607422
1470242574168295,-0.611816
1470242574190831,-0.604492
1470242574205332,-0.597656
1470242574228352,-0.599121
1470242574250868,-0.615723
1470242574265381,-0.618164
1470242574288401,-0.602539
1470242574310924,-0.59668
1470242574325435,-0.611328
1470242574348456,-0.620605
1470242574376997,-0.60791
1470242574392010,-0.604492
1470242574408511,-0.606445
1470242574431030,-0.609375
1470242574452082,-0.621582
1470242574468565,-0.618164
1470242574491084,-0.601074
1470242574512173,-0.585938
1470242574528619,-0.595703
1470242574551137,-0.589844
1470242574572156,-0.583496
1470242574588671,-0.591309
1470242574611191,-0.590332
1470242574632211,-0.59668
1470242574648227,-0.576172
1470242574670745,-0.584473
1470242574692265,-0.58252
1470242574707778,-0.594727
1470242574730812,-0.59375
1470242574751838,-0.592773
1470242574769835,-0.597168
1470242574790865,-0.582031
1470242574819879,-0.578613
1470242574828387,-0.586426
1470242574850907,-0.598633
1470242574873429,-0.590332
1470242574888442,-0.598633
1470242574910963,-0.605469
1470242574933481,-0.621094
1470242574948495,-0.645508
1470242574971015,-0.662109
1470242574993537,-0.66748
1470242575014570,-0.666992
1470242575031069,-0.665039
1470242575053590,-0.659668
1470242575074635,-0.647949
1470242575091122,-0.624512
1470242575113644,-0.611816
1470242575135162,-0.612305
1470242575151176,-0.610352
1470242575173699,-0.59668
1470242575194716,-0.592773
1470242575210730,-0.591797
1470242575233250,-0.594238
1470242575254269,-0.604492
1470242575270785,-0.594238
1470242575293471,-0.577637
1470242575314823,-0.575195
1470242575330837,-0.572754
1470242575353366,-0.575684
1470242575374892,-0.585938
1470242575390892,-0.599609
1470242575413416,-0.598633
1470242575434431,-0.606445
1470242575450947,-0.597656
1470242575473467,-0.610352
1470242575494503,-0.621094
1470242575511006,-0.619141
1470242575540025,-0.638184
1470242575554541,-0.645996
1470242575571053,-0.650391
1470242575593616,-0.655273
1470242575614608,-0.661133
1470242575631107,-0.664551
1470242575653627,-0.656738
1470242575674646,-0.661621
1470242575691161,-0.650879
1470242575713684,-0.651855
1470242575734700,-0.64209
1470242575750215,-0.633301
1470242575773235,-0.620605
1470242575795763,-0.624512
1470242575810771,-0.633301
1470242575833291,-0.627441
1470242575855809,-0.625488
1470242575870822,-0.632324
1470242575893343,-0.645508
1470242575915889,-0.645996
1470242575930380,-0.655762
1470242575960904,-0.657715
1470242575975918,-0.665527
1470242575990432,-0.667969
1470242576013461,-0.672363
1470242576035972,-0.672363
1470242576050019,-0.66748
1470242576073007,-0.663086
1470242576096024,-0.669922
1470242576110537,-0.671875
1470242576133559,-0.674316
1470242576155578,-0.666504
1470242576170091,-0.657715
1470242576193612,-0.661133
1470242576216132,-0.670898
1470242576230145,-0.680176
1470242576253666,-0.676758
1470242576276187,-0.671875
1470242576297206,-0.666504
1470242576313720,-0.678223
1470242576336241,-0.682129
1470242576357260,-0.692871
1470242576373274,-0.706055
1470242576395806,-0.696777
1470242576416833,-0.696777
1470242576433329,-0.677734
1470242576455848,-0.714844
1470242576477372,-0.748535
1470242576492880,-0.726074
1470242576515901,-0.702637
1470242576536941,-0.683105
1470242576560946,-0.713867
1470242576575955,-0.713867
1470242576598476,-0.718262
1470242576613494,-0.728027
1470242576636011,-0.699219
1470242576657061,-0.710938
1470242576681069,-0.739258
1470242576696079,-0.741211
1470242576718584,-0.719238
1470242576733597,-0.746582
1470242576756117,-0.726563
1470242576778637,-0.750977
1470242576793651,-0.754883
1470242576815671,-0.734375
1470242576838691,-0.727539
1470242576853705,-0.741211
1470242576875725,-0.75
1470242576898245,-0.750977
1470242576912760,-0.73877
1470242576935781,-0.725586
1470242576958301,-0.740234
1470242576972812,-0.76123
1470242576995832,-0.775391
1470242577018853,-0.797852
1470242577032866,-0.766113
1470242577055886,-0.774414
1470242577078407,-0.791016
1470242577092920,-0.790527
1470242577123447,-0.780762
1470242577138460,-0.775879
1470242577153002,-0.771484
1470242577175994,-0.750977
1470242577198514,-0.75293
1470242577220535,-0.748535
1470242577236048,-0.752441
1470242577258568,-0.757813
1470242577279587,-0.755859
1470242577296102,-0.776367
1470242577318622,-0.784668
1470242577339642,-0.788574
1470242577356155,-0.780273
1470242577378198,-0.778809
1470242577399712,-0.787598
1470242577415710,-0.768555
1470242577438231,-0.762207
1470242577459750,-0.77002
1470242577475768,-0.78418
1470242577498284,-0.77002
1470242577519803,-0.762207
1470242577535817,-0.771973
1470242577558337,-0.764648
1470242577579868,-0.780273
1470242577595878,-0.778809
1470242577625924,-0.765625
1470242577639410,-0.765625
1470242577655925,-0.762207
1470242577678445,-0.77002
1470242577700966,-0.774902
1470242577715981,-0.770508
1470242577738500,-0.782227
1470242577767026,-0.790527
1470242577776037,-0.792969
1470242577798573,-0.797852
1470242577821074,-0.797852
1470242577835586,-0.798828
1470242577858607,-0.806641
1470242577881127,-0.802734
1470242577895142,-0.803711
1470242577918661,-0.811523
1470242577940681,-0.808594
1470242577955194,-0.796875
1470242577985722,-0.789063
1470242578000736,-0.783203
1470242578015252,-0.78125
1470242578039285,-0.79834
1470242578043800,-0.780273
1470242578066326,-0.769043
1470242578082810,-0.77002
1470242578103828,-0.790039
1470242578126347,-0.787109
1470242578148880,-0.786133
1470242578163883,-0.774414
1470242578186420,-0.790039
1470242578202918,-0.789551
1470242578223991,-0.803711
1470242578249522,-0.802734
1470242578262982,-0.783691
1470242578284025,-0.786621
1470242578315024,-0.806152
1470242578323024,-0.824707
1470242578344043,-0.806641
1470242578366564,-0.790039
1470242578383078,-0.804688
1470242578404157,-0.821289
1470242578426125,-0.823242
1470242578442633,-0.806641
1470242578464157,-0.782715
1470242578486229,-0.797363
1470242578502686,-0.792969
1470242578526749,-0.816406
1470242578546224,-0.823242
1470242578562740,-0.789551
1470242578584266,-0.784668
1470242578606278,-0.805664
1470242578624349,-0.819824
1470242578644351,-0.817383
1470242578666365,-0.805176
1470242578684351,-0.78418
1470242578711417,-0.839844
1470242578726388,-0.821777
1470242578744404,-0.811035
1470242578763922,-0.806641
1470242578786442,-0.806152
1470242578804548,-0.807617
1470242578824050,-0.827637
1470242578854044,-0.808105
1470242578872020,-0.803223
1470242578884046,-0.806152
1470242578906548,-0.819336
1470242578932071,-0.790039
1470242578944081,-0.794434
1470242578966602,-0.775879
1470242578984118,-0.8125
1470242579004195,-0.818359
1470242579026215,-0.772949
1470242579044207,-0.795898
1470242579064189,-0.782715
1470242579086242,-0.799316
1470242579104325,-0.750488
1470242579124243,-0.776367
1470242579146306,-0.782715
1470242579168800,-0.777832
1470242579183797,-0.792969
1470242579209320,-0.766113
1470242579228942,-0.762207
1470242579245385,-0.736816
1470242579266427,-0.765137
1470242579288940,-0.742188
1470242579305456,-0.68457
1470242579327976,-0.652344
1470242579349016,-0.64209
1470242579367013,-0.707031
1470242579386531,-0.700684
1470242579409050,-0.623535
1470242579425063,-0.59082
1470242579446668,-0.640137
1470242579469171,-0.625
1470242579485118,-0.576172
1470242579506684,-0.575684
1470242579529157,-0.580078
1470242579545176,-0.592285
1470242579566192,-0.602539
1470242579589210,-0.58252
1470242579606728,-0.570313
1470242579626744,-0.583008
1470242579649323,-0.597656
1470242579666815,-0.563477
1470242579687834,-0.565918
1470242579708819,-0.594727
1470242579734354,-0.644531
1470242579746370,-0.617676
1470242579764369,-0.59668
1470242579786951,-0.597656
1470242579813929,-0.603027
1470242579824423,-0.612305
1470242579846942,-0.587891
1470242579866460,-0.571777
1470242579884529,-0.580566
1470242579907022,-0.571777
1470242579929529,-0.570313
1470242579944540,-0.568359
1470242579967077,-0.558105
1470242579986597,-0.550781
1470242580004584,-0.547852
1470242580026603,-0.559082
1470242580046120,-0.559082
1470242580064138,-0.569336
1470242580086658,-0.564941
1470242580106675,-0.574707
1470242580129196,-0.586914
1470242580146726,-0.575195
1470242580167730,-0.572266
1470242580184258,-0.567383
1470242580206786,-0.562012
1470242580227784,-0.566895
1470242580244333,-0.569336
1470242580266819,-0.566406
1470242580287838,-0.574219
1470242580304367,-0.589355
1470242580326873,-0.594727
1470242580347892,-0.566406
1470242580364407,-0.582031
1470242580386928,-0.583496
1470242580407946,-0.57373
1470242580424460,-0.57959
1470242580446981,-0.576172
1470242580466999,-0.595215
1470242580483013,-0.594727
1470242580506035,-0.586914
1470242580528554,-0.580078
1470242580543072,-0.587402
1470242580566088,-0.594727
1470242580588608,-0.583496
1470242580603121,-0.578613
1470242580626141,-0.581055
1470242580648676,-0.571289
1470242580663175,-0.572754
1470242580686195,-0.584473
1470242580708216,-0.572754
1470242580722732,-0.575195
1470242580746250,-0.572754
1470242580768769,-0.577637
1470242580782783,-0.584961
1470242580805804,-0.584473
1470242580828323,-0.581055
1470242580842838,-0.572754
1470242580865858,-0.581055
1470242580888398,-0.586426
1470242580902892,-0.595215
1470242580925912,-0.601074
1470242580948431,-0.602539
1470242580962944,-0.598633
1470242580985965,-0.600586
1470242581008501,-0.593262
1470242581029504,-0.588379
1470242581046018,-0.578125
1470242581076053,-0.583984
1470242581091061,-0.57959
1470242581106072,-0.585449
1470242581128593,-0.588867
1470242581149611,-0.588867
1470242581166127,-0.579102
1470242581188648,-0.587402
1470242581209695,-0.561523
1470242581226197,-0.574219
1470242581248738,-0.564941
1470242581269719,-0.562988
1470242581286234,-0.56543
1470242581308258,-0.562988
1470242581329774,-0.563965
1470242581352293,-0.574707
1470242581368308,-0.58252
1470242581389827,-0.587891
1470242581406342,-0.576172
1470242581428362,-0.555664
1470242581449933,-0.561523
1470242581465895,-0.573242
1470242581488416,-0.564453
1470242581510936,-0.555664
1470242581525950,-0.5625
1470242581548470,-0.568848
1470242581570990,-0.57373
1470242581593568,-0.557129
1470242581608524,-0.550781
1470242581631048,-0.563965
1470242581652063,-0.561523
1470242581668578,-0.55957
1470242581691098,-0.552734
1470242581713622,-0.556641
1470242581728642,-0.562988
1470242581751152,-0.545898
1470242581772205,-0.541016
1470242581796194,-0.533203
1470242581811206,-0.540039
1470242581832224,-0.529785
1470242581848739,-0.550781
1470242581871259,-0.557617
1470242581899287,-0.55957
1470242581910295,-0.55957
1470242581931321,-0.558105
1470242581951832,-0.55127
1470242581968347,-0.555664
1470242581990868,-0.554688
1470242582011939,-0.543457
1470242582028401,-0.541504
1470242582050922,-0.549316
1470242582072441,-0.542969
1470242582088481,-0.537598
1470242582110975,-0.538574
1470242582131994,-0.540039
1470242582148516,-0.543457
1470242582171029,-0.54541
1470242582192092,-0.544922
1470242582208581,-0.541992
1470242582231127,-0.547363
1470242582252102,-0.544922
1470242582268617,-0.544922
1470242582291145,-0.543457
1470242582312173,-0.546875
1470242582328670,-0.545898
1470242582351190,-0.546387
1470242582372217,-0.551758
1470242582388732,-0.556152
1470242582411244,-0.565918
1470242582434265,-0.566895
1470242582447778,-0.575684
1470242582471299,-0.580566
1470242582493818,-0.593262
1470242582507831,-0.597656
1470242582538360,-0.589844
1470242582553372,-0.59082
1470242582574425,-0.591309
1470242582590906,-0.587891
1470242582629440,-0.585449
1470242582634447,-0.579102
1470242582650999,-0.57373
1470242582673482,-0.570801
1470242582695001,-0.575195
1470242582711015,-0.564453
1470242582733033,-0.570801
1470242582754587,-0.583984
1470242582771068,-0.58252
1470242582793588,-0.572266
1470242582814625,-0.572754
1470242582831124,-0.561035
1470242582853644,-0.561035
1470242582868155,-0.561035
1470242582891176,-0.5625
1470242582913698,-0.561523
1470242582942220,-0.553711
1470242582951229,-0.561523
1470242582973749,-0.557617
1470242582994768,-0.571289
1470242583018290,-0.562988
1470242583033303,-0.575195
1470242583054823,-0.580078
1470242583071336,-0.580078
1470242583093361,-0.561523
1470242583114378,-0.540527
1470242583130891,-0.563477
1470242583153411,-0.564453
1470242583174934,-0.541504
1470242583190463,-0.54541
1470242583213971,-0.565918
1470242583234984,-0.554688
1470242583258505,-0.564941
1470242583273518,-0.551758
1470242583294538,-0.550781
1470242583310554,-0.551758
1470242583333572,-0.531738
1470242583356093,-0.521484
1470242583370606,-0.519531
1470242583393628,-0.511719
1470242583416147,-0.513672
1470242583430159,-0.509766
1470242583453682,-0.496582
1470242583476215,-0.48877
1470242583497271,-0.467773
1470242583513735,-0.487793
1470242583536287,-0.478516
1470242583557273,-0.5
1470242583573806,-0.499512
1470242583595808,-0.492676
1470242583617328,-0.480957
1470242583633342,-0.483887
1470242583655897,-0.492188
1470242583677382,-0.490723
1470242583708409,-0.476074
1470242583715916,-0.469238
1470242583730929,-0.456543
1470242583753450,-0.466309
1470242583775994,-0.465332
1470242583790483,-0.466797
1470242583813503,-0.466309
1470242583836024,-0.472656
1470242583857065,-0.473633
1470242583873557,-0.473145
1470242583896582,-0.47998
1470242583917096,-0.477539
1470242583933611,-0.475098
1470242583956133,-0.464844
1470242583984713,-0.472168
1470242583993665,-0.467773
1470242584016185,-0.447266
1470242584037204,-0.466309
1470242584053719,-0.480469
1470242584076252,-0.477539
1470242584097258,-0.487305
1470242584112772,-0.491211
1470242584135794,-0.49707
1470242584157313,-0.501953
1470242584172826,-0.499023
1470242584195847,-0.494141
1470242584217455,-0.510254
1470242584232881,-0.51416
1470242584255901,-0.50293
1470242584276921,-0.507324
1470242584292934,-0.504395
1470242584315954,-0.503418
1470242584338475,-0.504883
1470242584352988,-0.52002
1470242584376009,-0.520996
1470242584398538,-0.522949
1470242584419547,-0.521973
1470242584436063,-0.526367
1470242584458583,-0.528809
1470242584479604,-0.516602
1470242584496118,-0.53125
1470242584518637,-0.536133
1470242584539677,-0.538574
1470242584563679,-0.532227
1470242584578691,-0.536133
1470242584593203,-0.538086
1470242584616231,-0.549316
1470242584638744,-0.530273
1470242584652757,-0.537109
1470242584676780,-0.535156
1470242584698798,-0.54248
1470242584712811,-0.539063
1470242584735832,-0.546387
1470242584758352,-0.547852
1470242584772866,-0.550781
1470242584795904,-0.560059
1470242584818406,-0.558105
1470242584839440,-0.555664
1470242584855953,-0.545898
1470242584878460,-0.545898
1470242584899479,-0.537109
1470242584915994,-0.532715
1470242584938513,-0.531738
1470242584959576,-0.527832
1470242584976049,-0.52832
1470242584998567,-0.527344
1470242585019586,-0.527832
1470242585036101,-0.536133
1470242585058625,-0.526367
1470242585080142,-0.525391
1470242585096156,-0.535156
1470242585118676,-0.532715
1470242585139694,-0.520508
1470242585156209,-0.520508
1470242585178729,-0.520508
1470242585199748,-0.527344
1470242585216265,-0.522949
1470242585238284,-0.51709
1470242585261303,-0.524902
1470242585276317,-0.521973
1470242585298339,-0.520996
1470242585320857,-0.508301
1470242585336371,-0.511719
1470242585358413,-0.510742
1470242585380911,-0.50293
1470242585395928,-0.496094
1470242585418445,-0.504395
1470242585440965,-0.509766
1470242585455478,-0.510254
1470242585487006,-0.509766
1470242585488576,-0.51123
1470242585506542,-0.514648
1470242585523054,-0.510254
1470242585544058,-0.512695
1470242585566577,-0.515137
1470242585583092,-0.516113
1470242585604111,-0.51709
1470242585626632,-0.513184
1470242585650153,-0.505371
1470242585671672,-0.499512
1470242585686686,-0.505371
1470242585702700,-0.507324
1470242585724220,-0.510254
1470242585746739,-0.501953
1470242585762754,-0.472168
1470242585784273,-0.481445
1470242585806797,-0.501465
1470242585824813,-0.483398
1470242585843846,-0.478516
1470242585869350,-0.472168
1470242585882864,-0.47168
1470242585903914,-0.471191
1470242585926403,-0.475098
1470242585942916,-0.463867
1470242585964033,-0.456543
1470242585986955,-0.45166
1470242586002970,-0.461426
1470242586024018,-0.460449
1470242586046535,-0.450684
1470242586069067,-0.442871
1470242586084151,-0.447266
1470242586106593,-0.451172
1470242586123077,-0.453125
1470242586144110,-0.448242
1470242586166616,-0.445313
1470242586183131,-0.442383
1470242586204149,-0.446777
1470242586226671,-0.438965
1470242586244691,-0.445801
1470242586264213,-0.43457
1470242586286726,-0.434082
1470242586311874,-0.439941
1470242586324257,-0.437988
1470242586346837,-0.435059
1470242586364859,-0.441406
1470242586383811,-0.4375
1470242586406831,-0.43457
1470242586424366,-0.427246
1470242586443882,-0.428223
1470242586466401,-0.417969
1470242586484427,-0.42041
1470242586503924,-0.419922
1470242586526487,-0.425293
1470242586544482,-0.42334
1470242586563990,-0.422852
1470242586586629,-0.421387
1470242586604511,-0.429199
1470242586624028,-0.433105
1470242586646565,-0.432617
1470242586664645,-0.428223
1470242586684123,-0.426758
1470242586706601,-0.426758
1470242586724617,-0.431152
1470242586744135,-0.420898
1470242586766655,-0.41748
1470242586784671,-0.423828
1470242586805212,-0.428223
1470242586826716,-0.420898
1470242586844225,-0.422363
1470242586865244,-0.424805
1470242586886264,-0.419434
1470242586904440,-0.418945
1470242586925297,-0.410156
1470242586946820,-0.411621
1470242586964337,-0.40625
1470242586985351,-0.408203
1470242587006412,-0.40918
1470242587031948,-0.407227
1470242587045406,-0.407715
1470242587066425,-0.404297
1470242587084455,-0.407227
1470242587105460,-0.40332
1470242587126479,-0.40332
1470242587144523,-0.401855
1470242587167016,-0.406738
1470242587186546,-0.403809
1470242587204606,-0.397461
1470242587227139,-0.395996
1470242587246586,-0.402832
1470242587264602,-0.40332
1470242587287123,-0.400879
1470242587309643,-0.40332
1470242587324171,-0.403809
1470242587347177,-0.410156
1470242587366694,-0.405762
1470242587384228,-0.39502
1470242587407281,-0.394531
1470242587426747,-0.394531
1470242587444848,-0.38916
1470242587466785,-0.393555
1470242587486302,-0.390625
1470242587504319,-0.38623
1470242587534345,-0.390625
1470242587546859,-0.39502
1470242587564376,-0.396484
1470242587586908,-0.391602
1470242587606956,-0.398926
1470242587624427,-0.403809
1470242587646948,-0.397461
1470242587666464,-0.394043
1470242587684482,-0.393555
1470242587707500,-0.390137
1470242587726543,-0.395508
1470242587744550,-0.395996
1470242587767054,-0.399902
1470242587788071,-0.398438
1470242587804613,-0.393066
1470242587827139,-0.402344
1470242587848126,-0.402344
1470242587864668,-0.404297
1470242587893667,-0.39502
1470242587907202,-0.400879
1470242587923694,-0.410156
1470242587946214,-0.405762
1470242587967235,-0.40332
1470242587983748,-0.408203
1470242588006268,-0.408203
1470242588027379,-0.415039
1470242588043802,-0.410645
1470242588066321,-0.417969
1470242588088842,-0.419434
1470242588103355,-0.422852
1470242588126376,-0.416504
1470242588148395,-0.412109
1470242588163410,-0.414551
1470242588186430,-0.419922
1470242588208452,-0.422852
1470242588223463,-0.426758
1470242588246033,-0.427734
1470242588269004,-0.425781
1470242588290023,-0.430176
1470242588306037,-0.433594
1470242588328578,-0.437988
1470242588349592,-0.445801
1470242588366091,-0.453613
1470242588388612,-0.455078
1470242588410164,-0.442871
1470242588426145,-0.450195
1470242588448716,-0.446289
1470242588469684,-0.431152
1470242588486205,-0.435547
1470242588508720,-0.448242
1470242588530253,-0.449219
1470242588546253,-0.450684
1470242588568773,-0.457031
1470242588589793,-0.456543
1470242588606308,-0.45166
1470242588628327,-0.453125
1470242588649845,-0.462402
1470242588666360,-0.466309
1470242588688882,-0.462402
1470242588709899,-0.469727
1470242588732420,-0.463867
1470242588748435,-0.473145
1470242588769954,-0.476074
1470242588785968,-0.489258
1470242588814493,-0.49707
1470242588829509,-0.507813
1470242588846022,-0.516602
1470242588868542,-0.513184
1470242588889562,-0.515625
1470242588906076,-0.513184
1470242588928596,-0.52002
1470242588949616,-0.51416
1470242588966155,-0.520996
1470242588988652,-0.525391
1470242589010670,-0.509766
1470242589026183,-0.514648
1470242589048704,-0.515137
1470242589071224,-0.522461
1470242589086240,-0.529785
1470242589108758,-0.532227
1470242589131279,-0.535645
1470242589146293,-0.535156
1470242589168811,-0.546875
1470242589198839,-0.543457
1470242589205370,-0.54248
1470242589228865,-0.548828
1470242589250887,-0.557129
1470242589265419,-0.561035
1470242589288419,-0.556152
1470242589310944,-0.562012
1470242589325452,-0.569824
1470242589348475,-0.568359
1470242589370999,-0.570313
1470242589385507,-0.580566
1470242589408527,-0.568848
1470242589431048,-0.574219
1470242589445561,-0.57959
1470242589469082,-0.570801
1470242589491122,-0.571777
1470242589505614,-0.578125
1470242589528635,-0.584961
1470242589551155,-0.569336
1470242589572237,-0.586914
1470242589589190,-0.599121
1470242589611209,-0.598145
1470242589639734,-0.597168
1470242589648743,-0.596191
1470242589671263,-0.611816
1470242589692297,-0.627441
1470242589708801,-0.638184
1470242589731317,-0.637207
1470242589752336,-0.63916
1470242589768850,-0.650879
1470242589791370,-0.638184
1470242589812389,-0.666504
1470242589827905,-0.693848
1470242589850926,-0.678711
1470242589872443,-0.678711
1470242589887957,-0.697754
1470242589910978,-0.696289
1470242589931998,-0.708008
1470242589948013,-0.744629
1470242589971033,-0.739746
1470242589992050,-0.740234
1470242590008065,-0.755371
1470242590031086,-0.737305
1470242590053606,-0.753906
1470242590068119,-0.755371
1470242590099148,-0.76123
1470242590114160,-0.766113
1470242590134679,-0.77832
1470242590151194,-0.748535
1470242590173714,-0.740723
1470242590203743,-0.769043
1470242590211248,-0.771484
1470242590233768,-0.766602
1470242590254787,-0.752441
1470242590270802,-0.749023
1470242590293822,-0.763184
1470242590307836,-0.799316
1470242590331356,-0.849609
1470242590360882,-0.806641
1470242590367889,-0.790039
1470242590390908,-0.842773
1470242590413429,-0.856445
1470242590427943,-0.835938
1470242590450963,-0.82959
1470242590473483,-0.827148
1470242590487998,-0.856445
1470242590511017,-0.852051
1470242590533538,-0.817871
1470242590554571,-0.806152
1470242590571072,-0.816895
1470242590593593,-0.834961
1470242590615114,-0.821777
1470242590631125,-0.79541
1470242590653659,-0.789063
1470242590674664,-0.793945
1470242590691179,-0.862305
1470242590713704,-0.815918
1470242590734733,-0.814453
1470242590751233,-0.830566
1470242590773754,-0.869629
1470242590803279,-0.894043
1470242590811287,-0.842285
1470242590833806,-0.846191
1470242590854830,-0.838867
1470242590871340,-0.866699
1470242590893360,-0.843262
1470242590916382,-0.821777
1470242590931395,-0.835938
1470242590953415,-0.856445
1470242590975935,-0.834473
1470242590998522,-0.797363
1470242591013970,-0.824707
1470242591035989,-0.822754
1470242591051004,-0.794922
1470242591073522,-0.779785
1470242591096042,-0.799805
1470242591110570,-0.789551
1470242591133576,-0.780273
1470242591156097,-0.789551
1470242591170609,-0.841309
1470242591193631,-0.8125
1470242591224159,-0.818848
1470242591230668,-0.810547
1470242591253711,-0.866699
1470242591276206,-0.85498
1470242591298724,-0.812012
1470242591313790,-0.824707
1470242591336274,-0.817383
1470242591357347,-0.814941
1470242591373795,-0.780273
1470242591396312,-0.748047
1470242591418832,-0.731934
1470242591433845,-0.740723
1470242591456365,-0.751953
1470242591477387,-0.755859
1470242591493434,-0.753418
1470242591515921,-0.758789
1470242591537438,-0.768066
1470242591553453,-0.730957
1470242591575976,-0.734375
1470242591597008,-0.715332
1470242591613507,-0.727539
1470242591636027,-0.743652
1470242591657046,-0.685059
1470242591673088,-0.692871
1470242591696082,-0.675781
1470242591717118,-0.686035
1470242591733115,-0.679688
1470242591756167,-0.682617
1470242591777158,-0.681641
1470242591793168,-0.687012
1470242591816188,-0.685547
1470242591837210,-0.670898
1470242591853221,-0.654785
1470242591876243,-0.649902
1470242591898764,-0.658203
1470242591912801,-0.651367
1470242591936297,-0.653809
1470242591958817,-0.640137
1470242591981336,-0.624512
1470242591996350,-0.609375
1470242592026379,-0.620117
1470242592033885,-0.601563
1470242592055904,-0.597168
1470242592078424,-0.593262
1470242592100944,-0.594727
1470242592115959,-0.58252
1470242592138499,-0.594238
1470242592152991,-0.604004
1470242592176012,-0.606445
1470242592198532,-0.602539
1470242592213045,-0.604492
1470242592236066,-0.60791
1470242592258586,-0.621582
1470242592273101,-0.609863
1470242592296161,-0.603516
1470242592318647,-0.610352
1470242592333154,-0.615723
1470242592356176,-0.621094
1470242592378696,-0.629883
1470242592399713,-0.630859
1470242592416262,-0.635742
1470242592438748,-0.638672
1470242592459787,-0.630859
1470242592476282,-0.648438
1470242592498801,-0.631348
1470242592519821,-0.624512
1470242592536335,-0.624023
1470242592558855,-0.625977
1470242592579929,-0.633789
1470242592596389,-0.637695
1470242592618409,-0.629395
1470242592639928,-0.630371
1470242592655443,-0.634277
1470242592678964,-0.652344
1470242592699982,-0.664551
1470242592715496,-0.677734
1470242592738528,-0.679199
1470242592760036,-0.680664
1470242592775550,-0.678223
1470242592798599,-0.686523
1470242592821091,-0.681641
1470242592835605,-0.671387
1470242592858625,-0.666504
1470242592881145,-0.651367
1470242592895660,-0.674316
1470242592903165,-0.690918
1470242592924183,-0.656738
1470242592946705,-0.66748
1470242592970725,-0.665039
1470242592984249,-0.681641
1470242593006758,-0.705566
1470242593023273,-0.687988
1470242593051865,-0.662598
1470242593066337,-0.693848
1470242593084969,-0.69873
1470242593104345,-0.699707
1470242593134873,-0.711914
1470242593142880,-0.743652
1470242593166903,-0.712402
1470242593186425,-0.697754
1470242593202936,-0.690918
1470242593223970,-0.692871
1470242593254980,-0.682129
1470242593262988,-0.681152
1470242593284032,-0.681152
1470242593306582,-0.665527
1470242593323542,-0.666504
1470242593344061,-0.666992
1470242593366597,-0.663574
1470242593381600,-0.667969
1470242593411621,-0.667969
1470242593426650,-0.655762
1470242593443152,-0.645508
1470242593464253,-0.654297
1470242593489722,-0.657227
1470242593503203,-0.664063
1470242593527268,-0.669434
1470242593546742,-0.682617
1470242593562758,-0.689453
1470242593584276,-0.695801
1470242593606796,-0.714844
1470242593622811,-0.724121
1470242593644330,-0.72168
1470242593666852,-0.705078
1470242593682867,-0.727051
1470242593711423,-0.728027
1470242593726908,-0.731445
1470242593742929,-0.733887
1470242593763939,-0.736328
1470242593786458,-0.714355
1470242593812007,-0.710938
1470242593831498,-0.716309
1470242593849529,-0.702148
1470242593864530,-0.708984
1470242593884045,-0.703125
1470242593906610,-0.704102
1470242593924582,-0.706543
1470242593944119,-0.711914
1470242593966654,-0.706543
1470242593984636,-0.712402
1470242594004154,-0.716309
1470242594026674,-0.70459
1470242594044738,-0.714844
1470242594064217,-0.709961
1470242594089730,-0.708496
1470242594104744,-0.720703
1470242594124261,-0.710449
1470242594146875,-0.708984
1470242594169301,-0.704102
1470242594184319,-0.697266
1470242594206835,-0.685547
1470242594224351,-0.677734
1470242594245370,-0.655273
1470242594266423,-0.65625
1470242594284422,-0.655273
1470242594304427,-0.675781
1470242594329482,-0.672363
1470242594344462,-0.65625
1470242594363978,-0.661133
1470242594386528,-0.661621
1470242594404513,-0.679199
1470242594425531,-0.671387
1470242594446552,-0.656738
1470242594464611,-0.657715
1470242594485585,-0.658203
1470242594506628,-0.648926
1470242594524664,-0.640625
1470242594545682,-0.630371
1470242594566699,-0.626465
1470242594584723,-0.634277
1470242594605693,-0.633789
1470242594626713,-0.640625
1470242594644729,-0.608887
1470242594665248,-0.620605
1470242594686766,-0.62793
1470242594709298,-0.628418
1470242594725802,-0.624512
1470242594755363,-0.610352
1470242594764337,-0.603516
1470242594786856,-0.631348
1470242594806429,-0.64209
1470242594824452,-0.633789
1470242594846910,-0.591797
1470242594866428,-0.574707
1470242594884469,-0.583984
1470242594906979,-0.578613
1470242594927052,-0.569824
1470242594950504,-0.571777
1470242594967020,-0.546387
1470242594986582,-0.554688
1470242595004595,-0.556641
1470242595027125,-0.55127
1470242595046590,-0.568848
1470242595064636,-0.570313
1470242595087126,-0.564941
1470242595106668,-0.5625
1470242595124669,-0.560059
1470242595147211,-0.557129
1470242595166700,-0.58252
1470242595184718,-0.576172
1470242595207262,-0.565918
1470242595226804,-0.556641
1470242595244767,-0.562012
1470242595267288,-0.574707
1470242595286804,-0.582031
1470242595304321,-0.570801
1470242595326358,-0.57373
1470242595347404,-0.581543
1470242595363874,-0.574219
1470242595386394,-0.581055
1470242595407474,-0.584961
1470242595423935,-0.560059
1470242595447449,-0.571289
1470242595467467,-0.573242
1470242595483981,-0.593262
1470242595506502,-0.605957
1470242595527521,-0.612305
1470242595544062,-0.56543
1470242595566055,-0.578125
1470242595587575,-0.57959
1470242595603629,-0.592285
1470242595626109,-0.597656
1470242595647184,-0.572266
1470242595670196,-0.599609
1470242595686164,-0.578613
1470242595708685,-0.576172
1470242595723698,-0.613281
1470242595746249,-0.58252
1470242595768737,-0.598633
1470242595783284,-0.584473
1470242595806271,-0.59668
1470242595828791,-0.592285
1470242595843313,-0.58252
1470242595866357,-0.589355
1470242595888845,-0.633301
1470242595903358,-0.616211
1470242595926393,-0.618652
1470242595948899,-0.641113
1470242595962930,-0.629883
1470242595986434,-0.636719
1470242596008953,-0.614746
1470242596023006,-0.610352
1470242596046487,-0.609863
1470242596068507,-0.647461
1470242596090026,-0.658203
1470242596106078,-0.595215
1470242596128604,-0.590332
1470242596150081,-0.594238
1470242596166094,-0.605957
1470242596188615,-0.657227
1470242596209633,-0.657227
1470242596226149,-0.650879
1470242596248668,-0.626465
1470242596269776,-0.632324
1470242596285701,-0.658203
1470242596308727,-0.680664
1470242596329797,-0.688965
1470242596346268,-0.686035
1470242596368777,-0.699707
1470242596389810,-0.718262
1470242596406312,-0.724609
1470242596428830,-0.718262
1470242596449892,-0.717773
1470242596465411,-0.674805
1470242596488918,-0.70459
1470242596509921,-0.686523
1470242596525417,-0.740234
1470242596548438,-0.726563
1470242596569956,-0.709961
1470242596585972,-0.757324
1470242596616000,-0.760742
1470242596631513,-0.768066
1470242596645525,-0.769043
1470242596668552,-0.763672
1470242596691086,-0.775391
1470242596705579,-0.762695
1470242596728599,-0.778809
1470242596751155,-0.812988
1470242596765635,-0.800781
1470242596788654,-0.738281
1470242596811180,-0.749023
1470242596832211,-0.763184
1470242596848713,-0.774414
1470242596878734,-0.76709
1470242596885268,-0.793945
1470242596908762,-0.790527
1470242596930815,-0.810547
1470242596945805,-0.815918
1470242596968817,-0.791016
1470242596991368,-0.787109
1470242597005350,-0.794434
1470242597028869,-0.806152
1470242597051423,-0.793945
1470242597072446,-0.807617
1470242597088939,-0.789063
1470242597111443,-0.785645
1470242597125459,-0.786133
1470242597148976,-0.776367
1470242597171497,-0.791992
1470242597192516,-0.779297
1470242597208530,-0.781738
1470242597231552,-0.751465
1470242597260076,-0.738281
1470242597268585,-0.785645
1470242597291105,-0.791992
1470242597312179,-0.775879
1470242597328640,-0.774902
1470242597351159,-0.76416
1470242597372685,-0.776855
1470242597388239,-0.75293
1470242597411215,-0.744629
1470242597432287,-0.777832
1470242597448246,-0.75293
1470242597471267,-0.744141
1470242597492285,-0.69873
1470242597508299,-0.655762
1470242597531347,-0.675781
1470242597552344,-0.705566
1470242597568354,-0.63916
1470242597591374,-0.637695
1470242597613926,-0.659668
1470242597628407,-0.644043
1470242597651427,-0.652344
1470242597673948,-0.625977
1470242597687961,-0.648438
1470242597711483,-0.637695
1470242597733502,-0.60791
1470242597755020,-0.636719
1470242597771035,-0.629883
1470242597801064,-0.63623
1470242597815076,-0.592285
1470242597831124,-0.568848
1470242597854109,-0.597168
1470242597875157,-0.595703
1470242597891144,-0.563477
1470242597913666,-0.545898
1470242597935276,-0.515625
1470242597951197,-0.523438
1470242597973719,-0.520996
1470242598003744,-0.518555
1470242598011251,-0.529785
1470242598033772,-0.490723
1470242598054833,-0.476563
1470242598077416,-0.472168
1470242598093825,-0.500488
1470242598114844,-0.509766
1470242598131360,-0.453125
1470242598153885,-0.455078
1470242598174938,-0.439453
1470242598191413,-0.450195
1470242598213932,-0.565918
1470242598234979,-0.542969
1470242598251467,-0.455566
1470242598274022,-0.462891
1470242598294596,-0.489258
1470242598310521,-0.508301
1470242598333543,-0.543457
1470242598355059,-0.466309
1470242598371118,-0.44043
1470242598393595,-0.43457
1470242598415115,-0.458496
1470242598431167,-0.449219
1470242598454149,-0.431641
1470242598475167,-0.415039
1470242598491217,-0.425781
1470242598521209,-0.414551
1470242598534728,-0.416992
1470242598551236,-0.432129
1470242598573765,-0.424316
1470242598596276,-0.410645
1470242598610794,-0.425293
1470242598633810,-0.437012
1470242598656330,-0.428223
1470242598670854,-0.437988
1470242598693864,-0.439453
1470242598716388,-0.44043
1470242598737407,-0.458984
1470242598753921,-0.46875
1470242598776457,-0.480469
1470242598796959,-0.487305
1470242598813972,-0.477539
1470242598835991,-0.495605
1470242598857511,-0.478516
1470242598881034,-0.457031
1470242598896082,-0.443848
1470242598917597,-0.423828
1470242598934079,-0.424805
1470242598962160,-0.414551
1470242598977125,-0.38623
1470242598993633,-0.381348
1470242599016157,-0.391602
1470242599037174,-0.398438
1470242599053689,-0.401855
1470242599076208,-0.406738
1470242599104788,-0.402832
1470242599113241,-0.428223
1470242599136261,-0.454102
1470242599157324,-0.474121
1470242599173838,-0.555176
1470242599196315,-0.57373
1470242599217383,-0.553223
1470242599233849,-0.571777
1470242599256401,-0.575195
1470242599277420,-0.625
1470242599293402,-0.748047
1470242599316424,-0.788574
1470242599337506,-0.726563
1470242599352958,-0.644531
1470242599375980,-0.687012
1470242599397588,-0.810547
1470242599413011,-0.838379
1470242599436031,-0.727539
1470242599457549,-0.62207
1470242599473064,-0.594727
1470242599496105,-0.612793
1470242599519105,-0.486816
1470242599533117,-0.317383
1470242599556138,-0.355957
1470242599578661,-0.437012
1470242599593203,-0.260742
1470242599616192,-0.0200195
1470242599638731,-0.046875
1470242599659731,-0.182617
1470242599676246,-0.0800781
1470242599698767,0.129883
1470242599719827,0.195801
1470242599736300,0.148438
1470242599758841,0.114258
1470242599779905,0.178223
1470242599796354,0.180664
1470242599818883,0.127441
1470242599839893,0.153809
1470242599856407,0.165039
1470242599878928,0.138184
1470242599899963,0.114258
1470242599916489,0.0810547
1470242599945012,0.0356445
1470242599960093,0.0576172
1470242599976065,0.0961914
1470242599999060,0.081543
1470242600020082,0.0693359
1470242600036071,0.0839844
1470242600059090,0.123535
1470242600080108,0.130859
1470242600096123,0.190918
1470242600118647,0.160156
1470242600141164,0.101563
1470242600156200,0.189941
1470242600178697,0.171875
1470242600200217,0.138672
1470242600215731,0.126953
1470242600238751,0.0898438
1470242600259769,0.0786133
1470242600276286,0.112305
1470242600298807,0.119629
1470242600319824,0.113281
1470242600336340,0.124023
1470242600341846,0.149902
1470242600364377,0.17627
1470242600386884,0.16748
1470242600402898,0.140137
1470242600424419,0.179688
1470242600446937,0.170898
1470242600464454,0.169434
1470242600483975,0.186523
1470242600506996,0.216797
1470242600521505,0.227051
1470242600544540,0.249023
1470242600566546,0.240234
1470242600583060,0.274902
1470242600604105,0.258301
1470242600626655,0.205566
1470242600643164,0.135254
1470242600664682,0.135742
1470242600686681,0.199219
1470242600703172,0.1875
1470242600724205,0.0791016
1470242600746734,-0.050293
1470242600770730,-0.106934
1470242600784301,-0.0854492
1470242600806810,-0.0825195
1470242600823279,-0.165039
1470242600844323,-0.317871
1470242600866815,-0.356445
1470242600883329,-0.3125
1470242600904349,-0.280273
1470242600926868,-0.325684
1470242600942884,-0.342285
1470242600964524,-0.288086
1470242600986924,-0.240723
1470242601002937,-0.166504
1470242601024518,-0.103027
1470242601046977,-0.0688477
1470242601062991,0.0625
1470242601084511,0.116211
1470242601107031,-0.12793
1470242601123102,-0.144531
1470242601144564,-0.0214844
1470242601167085,0.0737305
1470242601184600,0.0800781
1470242601204154,-0.0126953
1470242601226682,-0.0766602
1470242601243185,-0.0380859
1470242601264226,0.015625
1470242601286746,0.0131836
1470242601303207,-0.0253906
1470242601324308,-0.0356445
1470242601346745,-0.00585938
1470242601363288,-0.00439453
1470242601384279,-0.0458984
1470242601406799,-0.0644531
1470242601424829,-0.0332031
1470242601444334,-0.0078125
1470242601466854,-0.0483398
1470242601484871,-0.0961914
1470242601504388,-0.0932617
1470242601528408,-0.0668945
1470242601545005,-0.0585938
1470242601564448,-0.0864258
1470242601586961,-0.11084
1470242601604479,-0.0917969
1470242601624512,-0.0878906
1470242601646545,-0.0878906
1470242601664533,-0.0683594
1470242601684671,-0.0493164
1470242601707186,-0.0302734
1470242601724585,-0.0151367
1470242601744158,-0.0224609
1470242601768125,-0.0917969
1470242601784639,-0.124512
1470242601804191,-0.115723
1470242601826678,-0.0834961
1470242601844710,-0.0595703
1470242601864228,-0.0361328
1470242601886772,-0.0415039
1470242601904860,-0.0537109
1470242601924310,-0.0429688
1470242601946800,-0.034668
1470242601964818,-0.0375977
1470242601984336,-0.0493164
1470242602008844,-0.0703125
1470242602024855,-0.0688477
1470242602045373,-0.0424805
1470242602066892,-0.0297852
1470242602084991,-0.0244141
1470242602105443,-0.0229492
1470242602126957,-0.0224609
1470242602145016,-0.0634766
1470242602165480,-0.0654297
1470242602186501,-0.0400391
1470242602204530,-0.0336914
1470242602225562,-0.0400391
1470242602246581,-0.0395508
1470242602264572,-0.043457
1470242602285590,-0.0322266
1470242602306622,-0.0185547
1470242602324671,-0.0209961
1470242602347146,-0.034668
1470242602366676,-0.0429688
1470242602384727,-0.0571289
1470242602407246,-0.0478516
1470242602426771,-0.03125
1470242602444732,-0.0390625
1470242602467283,-0.0297852
1470242602486769,-0.0273438
1470242602504786,-0.0454102
1470242602527309,-0.043457
1470242602546840,-0.0405273
1470242602564839,-0.0371094
1470242602587362,-0.0385742
1470242602606878,-0.0527344
1470242602624919,-0.0351563
1470242602647539,-0.0375977
1470242602666931,-0.0292969
1470242602684447,-0.0415039
1470242602706967,-0.0410156
1470242602726986,-0.0419922
1470242602744517,-0.043457
1470242602766020,-0.0341797
1470242602787563,-0.0444336
1470242602804054,-0.034668
1470242602826574,-0.0297852
1470242602848596,-0.03125
1470242602870114,-0.0205078
1470242602886628,-0.0327148
1470242602907675,-0.0327148
1470242602923662,-0.0371094
1470242602946184,-0.0375977
1470242602967234,-0.0375977
1470242602983752,-0.0405273
1470242603006248,-0.0449219
1470242603027303,-0.0458984
1470242603043775,-0.0366211
1470242603066292,-0.0532227
1470242603087361,-0.0405273
1470242603103850,-0.0688477
1470242603126344,-0.0483398
1470242603147367,-0.0307617
1470242603163878,-0.0322266
1470242603186398,-0.0292969
1470242603208918,-0.0239258
1470242603223931,-0.0297852
1470242603246457,-0.0356445
1470242603267472,-0.0332031
1470242603283985,-0.0361328
1470242603306505,-0.0385742
1470242603329027,-0.03125
1470242603344039,-0.0366211
1470242603366559,-0.0297852
1470242603389079,-0.0405273
1470242603403595,-0.046875
1470242603426160,-0.0488281
1470242603448637,-0.0458984
1470242603463147,-0.0375977
1470242603486167,-0.0356445
1470242603508687,-0.050293
1470242603523200,-0.0341797
1470242603546221,-0.0302734
1470242603568743,-0.034668
1470242603583254,-0.043457
1470242603606274,-0.0527344
1470242603628795,-0.0517578
1470242603643308,-0.0439453
1470242603666328,-0.0439453
1470242603688849,-0.0429688
1470242603709874,-0.0361328
1470242603726415,-0.027832
1470242603748905,-0.0341797
1470242603763415,-0.0380859
1470242603786436,-0.0400391
1470242603808980,-0.0419922
1470242603829976,-0.0400391
1470242603846492,-0.0410156
1470242603869033,-0.0444336
1470242603890063,-0.043457
1470242603906544,-0.0405273
1470242603929066,-0.0356445
1470242603950083,-0.0322266
1470242603966615,-0.0385742
1470242603988620,-0.0454102
1470242604010209,-0.046875
1470242604026152,-0.0512695
1470242604048673,-0.0483398
1470242604070191,-0.0493164
1470242604086206,-0.0483398
1470242604108733,-0.046875
1470242604129760,-0.0361328
1470242604146261,-0.0400391
1470242604168780,-0.0419922
1470242604189841,-0.0424805
1470242604206314,-0.0380859
1470242604228833,-0.0454102
1470242604251354,-0.0439453
1470242604266368,-0.0458984
1470242604288891,-0.0439453
1470242604311408,-0.046875
1470242604326438,-0.0454102
1470242604348941,-0.0473633
1470242604371478,-0.0405273
1470242604386476,-0.0400391
1470242604408995,-0.0444336
