timestamp,emg1,emg2,emg3,emg4,emg5,emg6,emg7,emg8
1470344948177624,1,-4,9,7,-2,0,-1,-1
1470344948177624,-2,-2,-15,-8,0,-1,-1,0
1470344948179625,1,-1,6,6,-2,-3,0,-1
1470344948179625,-3,0,-2,5,1,1,0,-1
1470344948200646,-1,-10,-2,-10,-1,0,0,0
1470344948200646,2,7,21,7,-1,0,-1,0
1470344948202645,0,-7,6,-2,-1,-1,-2,0
1470344948202645,1,1,11,13,-1,-4,-3,-2
1470344948214655,-2,0,-20,-11,0,-2,-2,0
1470344948214655,-2,-1,-1,1,0,0,-1,-1
1470344948222663,-1,0,-4,-1,0,-1,-2,0
1470344948222663,-6,-11,8,-2,-2,0,0,0
1470344948238185,-1,10,-10,-5,-1,3,-1,-4
1470344948238185,0,1,-13,-8,-3,-2,-2,-2
1470344948239687,1,2,9,20,2,-1,-2,0
1470344948239687,-1,-11,-6,-22,-2,-4,-1,-2
1470344948260543,-2,2,6,4,-1,-2,0,-1
1470344948260543,-2,-2,-4,1,-2,-2,-1,-1
1470344948261543,-1,0,-6,-7,-1,-1,-1,-1
1470344948261543,1,0,0,4,-1,2,0,1
1470344948273553,1,10,10,-7,0,-2,0,-2
1470344948273553,-2,-11,0,2,-2,-3,-3,-2
1470344948283562,1,0,11,5,-3,0,0,-1
1470344948283562,-3,3,-20,-3,-1,-2,-2,-2
1470344948297575,-1,-3,7,-7,2,1,-2,1
1470344948297575,-3,-4,1,1,-3,-3,-2,0
1470344948299576,-2,-3,-21,-9,-1,-1,-2,0
1470344948299576,0,4,5,7,1,1,-1,1
1470344948320597,5,3,2,3,-1,-1,0,-2
1470344948320597,-1,-5,-1,0,0,-1,-1,-1
1470344948321597,2,-4,-9,-8,0,-2,-1,-1
1470344948321597,-1,-2,0,10,-4,0,0,-1
1470344948334616,-4,-7,3,-8,-3,-5,-3,-1
1470344948334616,1,4,8,0,0,1,0,0
1470344948343631,-1,-2,-12,-2,-1,-2,1,-4
1470344948343631,1,6,1,9,3,-1,0,1
1470344948357645,-4,-8,-25,-10,-3,-3,-1,-1
1470344948357645,0,2,7,13,2,1,-1,1
1470344948359645,0,2,-3,-27,-3,0,-1,-1
1470344948359645,-1,-8,1,9,1,-2,-2,-1
1470344948380665,0,-2,1,9,-2,-2,-1,-1
1470344948380665,0,0,6,-12,-3,-1,0,0
1470344948381665,-2,2,-1,7,-2,-1,0,-1
1470344948381665,-2,-6,-2,-11,-2,-1,-1,-2
1470344948394678,1,10,-4,-3,1,2,-1,0
1470344948394678,-1,-3,-5,5,1,-1,-1,-3
1470344948402685,1,-2,16,19,1,0,-1,1
1470344948402685,-3,-3,-3,-34,-5,-4,-1,-2
1470344948417700,0,3,-1,6,-2,-3,-2,0
1470344948417700,0,2,1,-2,0,0,-1,0
1470344948419700,-2,-4,-5,-4,0,-1,-1,-2
1470344948419700,2,0,10,5,3,0,-1,0
1470344948440724,-2,-2,-20,-7,-2,0,-1,-2
1470344948440724,-1,0,4,-13,-3,-1,0,0
1470344948441725,-5,-5,3,-4,-1,-1,-1,-1
1470344948441725,-1,5,-4,9,-2,-1,-2,-2
1470344948453742,0,-1,17,5,0,0,0,-1
1470344948453742,-1,-11,-14,-5,-3,-4,-2,-2
1470344948462751,-1,14,-6,4,-1,1,-1,0
1470344948462751,-1,-12,0,-13,0,0,-1,-2
1470344948477762,-4,-13,2,-3,0,-1,-2,-4
1470344948477762,-2,0,6,11,-3,-2,-2,-3
1470344948479766,-1,0,9,9,-1,-3,-1,0
1470344948479766,-2,0,-18,-12,-2,-1,-3,-1
1470344948500783,-2,-3,13,15,1,-1,0,-1
1470344948500783,2,0,2,1,1,-1,-2,-2
1470344948501784,-1,-1,-21,-13,-2,-1,-2,0
1470344948501784,-2,-4,11,-1,-2,-1,-1,0
1470344948513795,-1,-4,-6,1,-3,-1,-2,-1
1470344948513795,1,10,-1,-2,1,-1,0,0
1470344948522803,-2,7,14,11,0,0,-1,-1
1470344948522803,1,-9,-9,-12,-1,-2,0,-4
1470344948538325,-2,0,-1,-5,-3,-2,-1,-2
1470344948538325,-3,-1,-2,8,0,-2,-2,0
1470344948539827,-2,-16,-9,-9,-2,-2,-2,-1
1470344948539827,1,9,7,6,0,0,0,1
1470344948560848,-1,-5,1,-7,-1,-1,-1,-1
1470344948560848,-1,-8,-13,-7,-2,0,-1,-1
1470344948561850,0,2,5,1,-3,0,-1,0
1470344948561850,-2,-5,1,8,-3,-3,0,-2
1470344948582870,0,3,-6,1,0,-1,1,1
1470344948582870,-1,-2,-9,-5,0,0,-1,-1
1470344948584872,1,-3,-9,4,0,-1,0,-2
1470344948584872,-3,-3,13,-4,-1,-2,-1,1
1470344948597882,-1,9,1,-4,-1,-2,-1,1
1470344948597882,-2,1,5,0,-1,-2,-1,-1
1470344948599885,-3,-7,-10,-3,0,-1,1,-4
1470344948599885,-1,3,-2,4,0,1,-1,0
1470344948620903,0,-4,0,7,0,-2,-2,0
1470344948620903,0,2,-2,0,0,1,1,0
1470344948621904,1,0,-5,-9,-4,-3,-2,1
1470344948621904,-2,2,-9,-1,0,0,-2,-2
1470344948642848,-2,-1,2,-7,-4,0,1,-2
1470344948642848,-4,0,1,0,0,0,0,-2
1470344948644851,4,-5,8,2,0,-1,-1,-2
1470344948644851,-1,4,-14,-1,-3,-1,-1,0
1470344948657861,-1,-7,1,0,0,-1,-2,-1
1470344948657861,-3,0,13,8,0,-1,-2,-1
1470344948659864,-2,-3,-1,0,-2,0,-1,0
1470344948659864,-1,6,17,8,2,0,-3,-1
1470344948680882,0,-4,-37,-24,-3,-3,-1,0
1470344948680882,-1,-4,7,2,-2,-1,-2,0
1470344948681882,0,5,10,10,0,-1,-1,1
1470344948681882,0,-4,-8,3,0,0,0,1
1470344948702903,-2,0,11,6,0,1,-2,-2
1470344948702903,1,1,-7,-6,-3,-2,0,-1
1470344948704905,-2,0,-1,-9,-2,-1,-2,-1
1470344948704905,2,2,-1,0,-3,1,0,0
1470344948716915,-2,-3,-5,-4,3,1,1,-1
1470344948716915,-3,-5,-8,-3,-3,-3,-1,-2
1470344948723921,0,3,4,-4,-1,-1,-1,0
1470344948723921,-1,-1,2,-3,-4,-2,0,0
1470344948740445,-4,-12,-4,7,1,0,0,-2
1470344948740445,2,-1,-1,-9,-1,0,-1,-1
1470344948741949,-2,-2,-4,-5,-2,1,-1,-1
1470344948741949,-1,0,4,5,-2,-3,0,-1
1470344948762968,1,3,-12,-11,-5,-2,-1,-2
1470344948762968,-4,-8,2,12,3,0,0,-1
1470344948764971,-2,0,4,12,0,-1,0,-2
1470344948764971,-2,0,2,-15,-2,-2,1,0
1470344948777982,4,7,15,7,-1,0,-1,-2
1470344948777982,0,-7,-5,-6,-2,-1,-1,0
1470344948783987,0,6,9,-2,0,0,0,0
1470344948783987,-3,-7,-28,4,0,0,-2,-3
1470344948801002,1,-1,1,-7,-1,-1,0,-1
1470344948801002,0,-3,7,-6,-4,-1,-2,-2
1470344948802004,-2,1,-7,4,0,0,-1,0
1470344948802004,0,6,-1,4,-1,-1,-2,-1
1470344948823021,-2,-14,3,-10,-1,0,0,-2
1470344948823021,-1,3,4,2,0,-4,0,-1
1470344948825025,-3,-1,-9,-2,-2,0,1,-1
1470344948825025,0,-1,4,-5,-4,-1,0,1
1470344948837541,-1,0,4,12,-1,1,-1,1
1470344948837541,0,5,-2,-11,-1,-1,-3,-1
1470344948844052,-2,-2,-1,1,-2,-1,0,-2
1470344948844052,-1,1,-1,12,0,0,-1,-1
1470344948861067,-2,-5,13,-1,-2,-2,-4,-2
1470344948861067,3,6,-8,0,-1,-1,0,0
1470344948862069,-1,0,1,-11,-1,-1,-1,-1
1470344948862069,-1,-4,-12,-2,-1,0,-1,-2
1470344948883091,-2,1,3,0,-1,-1,0,-1
1470344948883091,-2,3,6,8,1,-1,-1,0
1470344948885089,0,-4,-15,-5,-1,0,0,0
1470344948885089,-2,-10,5,-4,0,1,0,-1
1470344948897100,-2,3,-4,3,-2,-1,-1,-1
1470344948897100,1,1,4,-3,-3,-1,0,-1
1470344948904108,0,-2,2,3,-1,0,-1,-4
1470344948904108,-1,1,-1,-2,-1,-1,-1,-1
1470344948920123,-2,1,-7,-8,-3,-3,0,1
1470344948920123,-2,0,4,-2,0,2,-1,-1
1470344948922125,1,10,0,10,-1,-1,-1,1
1470344948922125,-3,-17,-8,-9,-3,-2,-1,-2
1470344948943154,-1,8,18,5,0,1,-1,-1
1470344948943154,2,-11,-22,-2,-2,-1,-2,-2
1470344948944156,-3,0,8,-3,0,-3,-1,-3
1470344948944156,-1,6,-6,-9,0,-1,-2,1
1470344948957169,2,-2,-5,14,1,-3,-2,-2
1470344948957169,-5,-2,1,-21,-3,0,-1,-2
1470344948964174,3,8,-2,19,1,-2,-3,-2
1470344948964174,1,6,6,-14,1,2,2,-1
1470344948979187,-2,-2,4,3,1,-2,-1,-1
1470344948979187,0,3,-19,1,-3,-2,-3,1
1470344948988195,1,4,-5,-7,-5,-1,0,0
1470344948988195,-1,7,-17,3,-1,-5,-6,-3
1470344949010215,0,2,-1,-9,-1,3,4,1
1470344949010215,0,-1,17,7,2,-4,-1,-2
1470344949012217,-3,-12,-20,-12,-2,-2,-1,0
1470344949012217,2,3,4,10,-1,-1,-1,1
1470344949017222,-4,-4,-11,1,0,-4,-2,-5
1470344949017222,-5,-2,-3,-1,-3,-1,0,-1
1470344949024227,0,1,16,0,2,1,0,0
1470344949024227,-3,-8,-13,-2,-1,-3,-2,0
1470344949040749,1,10,3,9,1,-2,-2,2
1470344949040749,-3,-3,7,0,-1,0,0,-2
1470344949042250,-6,-11,-6,0,-2,-2,-3,0
1470344949042250,-1,1,17,0,-1,-1,1,-1
1470344949063275,-1,-1,-23,-10,-2,-3,-3,0
1470344949063275,-4,-13,-13,4,-4,-3,0,-1
1470344949064275,-5,-10,5,-12,-4,-5,-2,-1
1470344949064275,2,5,3,7,1,1,4,-1
1470344949076284,-3,-3,16,-3,0,5,1,0
1470344949076284,5,16,-21,-2,-3,-6,-1,-10
1470344949086296,-4,-11,12,-4,2,4,-1,3
1470344949086296,-5,-4,1,4,-3,-3,-2,0
1470344949100308,-1,3,3,-9,-3,-2,0,-6
1470344949100308,3,4,0,0,0,2,3,8
1470344949102311,-2,8,-2,7,0,-1,-2,0
1470344949102311,-3,-12,6,5,1,0,-4,1
1470344949123328,-7,-14,-3,-12,-1,-1,1,-6
1470344949123328,-2,0,-2,-2,0,-1,-3,0
1470344949124330,2,0,-9,-2,-2,-2,0,-3
1470344949124330,1,9,-1,-4,-4,-2,-3,1
1470344949136852,-2,-14,-18,9,1,0,-1,1
1470344949136852,-6,-17,15,0,-2,0,1,-3
1470344949145367,0,5,7,-3,0,1,-2,-2
1470344949145367,2,-2,-19,-10,0,-1,2,-2
1470344949160381,0,-6,21,1,-2,0,-2,0
1470344949160381,-4,5,9,3,-3,-3,-4,-2
1470344949162383,0,1,-1,3,-2,0,2,-1
1470344949162383,-3,-2,-5,-7,-2,-2,-4,-5
1470344949183400,1,-1,-4,1,0,-5,-2,0
1470344949183400,-4,-3,-7,-6,1,2,1,2
1470344949184402,1,-1,0,-4,-2,-4,-4,0
1470344949184402,2,-2,1,3,2,2,-3,-4
1470344949196414,-4,3,3,5,-4,-1,-3,-2
1470344949196414,0,0,4,-2,-3,-1,1,-2
1470344949206422,-2,-5,-14,-16,-3,0,0,-1
1470344949206422,0,21,3,0,-1,-1,-1,0
1470344949220436,3,2,-6,1,-1,0,-1,5
1470344949220436,-1,-6,6,-5,0,-3,-2,1
1470344949222436,1,-4,-17,-9,-1,-3,-1,-4
1470344949222436,-5,-14,25,5,-2,-1,-1,-6
1470344949243016,-3,1,-20,-11,-2,-3,1,-3
1470344949243016,2,8,-1,1,1,-1,-1,-1
1470344949245020,-1,-2,-1,4,-1,0,0,1
1470344949245020,-1,-8,15,-2,0,-1,-1,-2
1470344949257028,1,3,-5,3,-1,-2,-1,2
1470344949257028,0,-5,-15,-4,0,0,-3,-1
1470344949266036,0,6,28,8,0,-1,-3,-4
1470344949266036,-4,0,-8,-3,-1,0,1,1
1470344949281137,0,0,-2,-3,-2,1,0,-1
1470344949281137,2,2,0,4,-1,-2,-2,1
1470344949282051,0,-2,-4,3,0,0,-1,1
1470344949282051,-3,-5,25,0,-2,-3,-4,-2
1470344949303073,0,0,-15,-16,-2,-1,0,0
1470344949303073,-2,0,-1,3,0,-1,-2,-1
1470344949305072,-2,-5,-16,-12,-1,-1,0,-3
1470344949305072,1,0,4,2,3,1,1,2
1470344949317082,0,4,14,8,-4,-7,2,2
1470344949317082,1,-4,0,-10,3,5,0,-2
1470344949326090,-5,3,31,10,-3,-5,-5,-2
1470344949326090,1,-2,-38,0,1,5,3,3
1470344949341110,-1,-4,-8,-9,2,0,0,-2
1470344949341110,-1,4,-1,9,-3,-3,-3,-2
1470344949342612,1,-12,-13,-1,-3,-3,0,1
1470344949342612,-6,0,6,-5,-2,-3,-1,-5
1470344949362638,-2,0,15,9,0,-2,-3,-1
1470344949362638,3,13,3,-3,-1,0,-1,-2
1470344949364638,-3,-5,-13,-7,-2,-1,0,2
1470344949364638,0,0,10,-5,-1,-1,-2,1
1470344949376651,1,-4,-3,19,0,-1,0,-2
1470344949376651,0,-6,-20,-17,-1,-2,-2,-1
1470344949385712,-3,-6,-13,9,2,2,2,-3
1470344949385712,2,4,-41,-58,-2,-2,-2,-1
1470344949399671,-3,10,24,34,-4,-3,-3,-4
1470344949399671,-1,-9,14,18,1,-1,0,0
1470344949406676,-2,-7,-1,-10,-3,-1,-2,-4
1470344949406676,1,3,-3,8,-3,-3,-2,0
1470344949422698,-2,1,-6,-19,-1,2,-2,-1
1470344949422698,-1,12,-27,-10,-1,-1,0,-2
1470344949424691,-5,-35,10,6,-2,0,0,-2
1470344949424691,1,17,19,19,1,-2,-1,-1
1470344949436736,0,-10,3,-12,-1,-1,-1,1
1470344949436736,-3,4,17,2,-1,-1,1,0
1470344949445415,0,2,-22,-15,-2,0,-2,0
1470344949445415,-1,-9,-16,9,0,0,1,-1
1470344949459526,-1,1,-5,-15,3,-2,-2,-2
1470344949459526,-3,-10,-2,4,-5,-1,-2,-1
1470344949466448,1,7,10,-10,-4,-1,-2,-2
1470344949466448,-1,3,0,11,1,0,-2,1
1470344949483465,-2,-9,-3,-1,0,0,0,-2
1470344949483465,-1,-3,1,-2,-2,-2,-2,-1
1470344949484446,0,25,11,-4,-2,0,1,-1
1470344949484446,-2,-25,-34,-1,-4,-1,-2,0
1470344949504519,1,12,11,-1,-2,-1,-2,-2
1470344949504519,3,-7,7,6,2,-1,2,1
1470344949505498,-2,6,5,1,1,-1,0,-2
1470344949505498,0,2,-4,-6,-2,-2,0,-3
1470344949519522,-2,-6,-12,2,-2,0,-1,-1
1470344949519522,-2,-4,2,-6,-2,-1,0,-2
1470344949527547,2,-1,-13,-19,0,-2,-1,2
1470344949527547,-3,-7,10,7,-2,-1,-2,-2
1470344949542560,2,-2,10,4,1,1,-1,-1
1470344949542560,-3,5,-18,14,1,-1,-1,-2
1470344949542560,0,3,-8,-21,-2,-1,0,1
1470344949542560,-2,-5,26,16,-2,-3,-2,-1
1470344949564727,1,-3,-19,-15,-4,-2,1,-2
1470344949564727,-2,4,2,0,0,-1,-3,-2
1470344949565667,2,8,26,29,5,1,0,-1
1470344949565667,-2,-1,-28,-22,-3,-1,-1,1
1470344949579680,1,4,18,8,0,-1,-1,-1
1470344949579680,-2,-13,-21,-3,2,-1,1,1
1470344949587687,-2,-6,1,6,-5,-3,-2,-3
1470344949587687,-2,2,14,3,-1,-3,-1,-1
1470344949602701,-2,-11,11,1,0,1,0,0
1470344949602701,-5,-3,-30,-17,-7,-2,-3,-4
1470344949603703,0,-2,5,10,0,-2,-1,0
1470344949603703,0,1,3,2,2,1,1,-2
1470344949624721,-2,1,-5,-3,-3,0,0,0
1470344949624721,-1,-5,13,7,-1,0,-1,2
1470344949625723,5,-1,-16,-4,1,0,0,0
1470344949625723,-3,-2,16,3,-3,-3,-3,-2
1470344949639241,-2,-3,-12,2,-2,-2,-2,-2
1470344949639241,0,3,10,0,-1,-2,-2,-1
1470344949647842,-1,1,-14,0,0,0,0,0
1470344949647842,3,2,6,-16,0,0,-1,0
1470344949661876,-2,-3,16,5,0,-2,-2,-2
1470344949661876,-1,-3,6,2,-2,0,0,-2
1470344949662846,-3,-5,-1,6,1,-1,0,-1
1470344949662846,0,12,-9,-3,-1,-2,-2,-1
1470344949684898,1,3,-4,-5,-3,2,0,-2
1470344949684898,0,-2,-3,-12,0,1,0,-1
1470344949685866,0,0,5,15,-4,0,2,1
1470344949685866,0,-9,-10,-11,1,0,-1,-1
1470344949698879,-1,11,-4,10,-2,-4,-3,-1
1470344949698879,-2,-11,2,-6,1,-1,-3,-1
1470344949707886,-1,9,14,14,2,-1,0,-3
1470344949707886,-2,-6,-22,-15,-2,-3,-3,-2
1470344949721901,0,-1,3,1,-4,0,-1,-1
1470344949721901,0,-4,-5,-3,-1,-2,0,-3
1470344949722901,-2,-1,9,-6,-2,-1,-1,-2
1470344949722901,-2,-5,-1,18,-2,1,0,-2
1470344949744976,-1,-2,-8,-16,0,-1,-1,-3
1470344949744976,-2,-2,5,1,-1,-1,-1,-2
1470344949745965,-3,-4,-16,-14,-2,-2,-2,-1
1470344949745965,0,5,24,19,0,0,-1,3
1470344949759991,-3,-7,-16,1,-2,-2,-1,-1
1470344949759991,-1,3,8,-2,-1,-3,-1,2
1470344949760977,0,-1,-11,-8,1,-1,-1,-1
1470344949760977,-3,-3,4,2,-3,-1,-1,-3
1470344949781996,-1,-3,-7,-5,0,0,0,0
1470344949781996,-2,3,3,-4,-2,-1,-1,-2
1470344949782997,-4,-2,7,14,-1,-2,-1,-2
1470344949782997,-2,-2,-12,-5,0,1,-1,-4
1470344949805017,-1,-6,-9,0,-3,-3,-3,-3
1470344949805017,2,3,7,3,0,1,1,0
1470344949806020,-2,-10,-26,-8,-3,-2,-3,-3
1470344949806020,0,2,4,1,-3,-2,0,-2
1470344949820032,-2,-3,-16,-12,0,-1,-1,1
1470344949820032,-3,1,11,16,-3,-3,-3,-1
1470344949821032,-2,3,3,-2,1,1,-2,-1
1470344949821032,0,-4,-1,-10,-3,-1,-1,-1
1470344949842558,-1,-3,-8,8,2,0,-1,-1
1470344949842558,-3,-5,-14,-27,-2,-1,-1,-1
1470344949843058,2,2,8,-1,-1,-2,-1,1
1470344949843058,-3,-2,-14,-2,0,0,0,-1
1470344949865195,4,0,10,-7,-3,-3,0,-1
1470344949865195,-1,3,-5,4,1,1,-1,-1
1470344949865195,-2,-4,-22,-12,-2,-2,-2,-2
1470344949865195,-2,-13,7,8,-1,0,1,0
1470344949880209,-1,3,5,-2,-1,0,0,0
1470344949880209,1,1,2,-1,-2,-1,0,-2
1470344949880209,-1,-2,-6,-3,-2,1,0,-1
1470344949880209,0,7,9,4,-1,-2,-1,0
1470344949902259,-1,-3,-2,-17,-1,1,0,-1
1470344949902259,-2,-4,-5,8,1,-3,-2,0
1470344949903230,-2,-1,4,-1,-1,-2,-3,0
1470344949903230,-1,2,-6,-10,-1,0,-2,-1
1470344949925249,-1,-3,-5,1,-1,0,-1,-2
1470344949925249,0,7,-4,5,-5,0,-1,-1
1470344949925249,-4,-16,14,-4,-2,-2,-1,-1
1470344949925249,2,2,-9,8,-2,-1,0,0
1470344949940272,0,3,9,-5,-3,-1,-2,0
1470344949940272,3,-2,-16,-3,-2,-1,-2,-2
1470344949940773,1,3,12,2,2,-1,1,1
1470344949940773,-1,-2,-2,-3,-2,-1,-1,-1
1470344949962828,-2,-2,7,10,2,-2,-1,-2
1470344949962828,0,-3,2,8,0,-1,-1,-2
1470344949962828,1,5,13,-8,-2,-3,-1,-2
1470344949962828,-2,-6,-19,-24,-3,-3,-2,-3
1470344949984864,-1,4,5,19,1,0,0,1
1470344949984864,-2,-4,-9,-6,-1,-1,-3,-1
1470344949985819,2,2,-10,-6,-1,-1,-1,-2
1470344949985819,-2,-6,7,-1,-1,-1,1,0
1470344950007880,-1,3,-6,0,-2,-1,-1,-4
1470344950007880,-3,-2,19,-3,-1,1,0,0
1470344950008851,-2,16,3,6,0,-3,0,1
1470344950008851,-3,-13,1,10,-1,-2,-2,-1
1470344950021856,-2,-3,0,-7,-2,-3,-1,-2
1470344950021856,-1,1,-8,-9,0,0,-2,-2
1470344950022854,-1,-1,-3,0,-3,-1,0,-1
1470344950022854,1,8,10,17,0,-2,-1,-1
1470344950044844,1,-6,-4,-16,-1,-3,0,-2
1470344950044844,1,-1,0,-8,-2,-1,0,2
1470344950045837,0,2,25,16,-1,-1,-1,-2
1470344950045837,0,-1,-7,-12,0,0,-1,-2
1470344950059874,-1,-1,-3,15,2,3,-3,2
1470344950059874,-2,-1,-21,-13,-5,-3,-2,-2
1470344950060849,-1,-10,-1,1,0,0,-1,-1
1470344950060849,1,7,-5,6,-1,-1,-1,1
1470344950082869,-2,0,-2,-17,1,-2,-1,1
1470344950082869,3,-13,3,-9,-1,0,1,-3
1470344950082869,-1,0,-5,6,-2,-2,-2,-1
1470344950082869,-2,0,0,-9,1,-2,0,-2
1470344950104922,-2,2,-3,5,-5,-1,-2,-2
1470344950104922,-1,2,-12,-3,1,-2,-2,1
1470344950105892,-4,-7,7,-7,-4,0,0,-1
1470344950105892,0,8,10,14,1,0,-2,-2
1470344950118951,-3,-16,-6,-6,-2,-2,-3,0
1470344950118951,-3,6,2,4,-2,-2,-1,-1
1470344950127909,1,-3,-5,-5,1,0,-1,-2
1470344950127909,-1,1,-18,-6,-3,-1,0,1
1470344950142964,-2,-2,5,6,-3,-3,-1,-2
1470344950142964,-2,2,-3,-7,-1,0,-2,-2
1470344950143430,-5,-3,9,3,-1,-2,-3,-1
1470344950143430,-3,-14,-7,-5,-3,-2,-1,-1
1470344950164529,0,-10,-1,5,-1,-3,-1,-3
1470344950164529,0,22,-10,3,-1,-4,-1,2
1470344950165505,-6,-14,4,-6,-3,0,1,-3
1470344950165505,1,-2,-23,2,-1,-2,1,-2
1470344950179553,-1,-8,15,7,-3,-3,-2,-1
1470344950179553,-2,-18,2,-3,0,-2,0,-2
1470344950187573,1,-2,-34,-7,1,-1,0,1
1470344950187573,0,11,6,5,-4,-1,-1,1
1470344950202564,-3,-2,-1,-28,0,-1,0,1
1470344950202564,-1,-8,-16,8,-5,2,1,0
1470344950203532,-1,4,-3,6,-1,-1,-2,-1
1470344950203532,0,-8,13,-25,0,0,-1,-2
1470344950224593,2,8,-10,12,-1,1,-1,2
1470344950224593,-2,6,17,11,2,-3,-1,1
1470344950225616,0,-3,-9,-20,-6,-3,-1,-5
1470344950225616,0,5,11,11,2,1,0,0
1470344950239652,-2,5,0,-3,1,0,1,-2
1470344950239652,-1,3,13,-1,1,-1,-2,0
1470344950247493,1,-10,-27,8,4,2,0,0
1470344950247493,-3,2,2,-9,0,0,-2,-1
1470344950262480,0,4,5,-7,0,0,-1,0
1470344950262480,-7,-7,15,18,-1,-2,0,-1
1470344950263480,5,1,0,1,-1,-2,-2,-3
1470344950263480,-3,15,0,0,0,1,-1,-3
1470344950285554,-1,-6,-6,-32,-4,-3,-2,-1
1470344950285554,-2,-6,-38,6,-2,-1,0,-2
1470344950285554,-4,-6,17,-10,-2,-2,-2,2
1470344950285554,-1,4,-16,-5,-2,-2,-2,0
1470344950299600,-2,11,2,4,2,1,0,-1
1470344950299600,0,-10,13,-5,1,-1,-2,-4
1470344950307553,-1,3,-11,0,0,-1,1,2
1470344950307553,1,-24,-13,-9,-2,-1,0,-10
1470344950322574,-1,8,14,11,-4,-1,0,3
1470344950322574,1,6,18,10,-1,0,-1,0
1470344950323533,1,-2,-11,-6,3,-1,-1,5
1470344950323533,-1,0,11,7,1,-3,-1,-1
1470344950345261,0,9,-5,-16,-1,-2,-3,-4
1470344950345261,-4,-2,9,12,0,-1,-2,-1
1470344950345261,0,-17,10,-3,-3,-1,0,5
1470344950345261,0,1,0,-5,0,-2,-2,-3
1470344950359333,1,4,-15,-1,-1,-1,0,-1
1470344950359333,0,1,-3,2,-2,-1,0,-1
1470344950367326,2,14,3,3,-1,1,-1,1
1470344950367326,-4,-7,6,9,-1,0,-1,4
1470344950382297,-1,-11,-14,2,0,0,-1,-6
1470344950382297,1,0,4,-10,-1,-2,-1,1
1470344950383307,-1,-4,-7,4,0,0,-2,-4
1470344950383307,0,0,0,-4,-2,-1,1,1
1470344950405315,-1,1,6,20,-2,0,0,0
1470344950405315,-2,-6,-6,-12,0,-1,-1,0
1470344950406316,2,-18,-3,-2,-3,-3,-1,-7
1470344950406316,-2,26,0,0,0,-1,0,0
1470344950419370,1,-1,15,1,-4,-3,-2,1
1470344950419370,1,8,-3,-2,1,1,-3,0
1470344950427377,1,-10,-22,-25,-1,-1,-1,-4
1470344950427377,1,-13,11,21,-5,-3,-3,-1
1470344950442903,-19,-9,5,13,2,0,-1,-8
1470344950442903,5,6,-1,-7,-4,-2,0,3
1470344950443403,-8,12,6,3,1,-1,0,-5
1470344950443403,10,-6,-11,-12,1,-1,-2,2
1470344950464996,-3,-8,-5,5,-3,1,2,0
1470344950464996,-2,-4,-6,-4,-1,-2,-4,-6
1470344950465968,-6,2,5,3,-2,-1,0,2
1470344950465968,-1,6,-16,-12,-1,-1,0,-3
1470344950488033,2,-4,2,-1,-1,-1,-1,3
1470344950488033,-2,-2,-25,-7,-1,1,-1,0
1470344950488989,4,7,-3,6,-1,-1,-2,1
1470344950488989,-6,-8,8,-1,2,0,-3,-2
1470344950502000,6,12,-3,3,-1,-1,0,2
1470344950502000,-5,-11,1,-8,-1,-2,-1,0
1470344950503003,7,-3,11,18,-3,-1,-3,-3
1470344950503003,-27,2,3,-3,-2,-2,0,-3
1470344950525076,7,12,-5,-3,0,-2,-1,2
1470344950525076,11,-3,0,2,-1,-2,0,-1
1470344950526022,-1,3,-7,-15,-2,-1,1,-1
1470344950526022,8,-1,13,10,2,-1,0,1
1470344950548634,1,-3,-11,2,0,-2,0,0
1470344950548634,-7,-9,-1,-6,-3,-2,0,-3
1470344950548634,-2,17,12,1,-1,0,1,1
1470344950548634,2,-13,-10,-3,-2,1,-1,-2
1470344950562690,3,-2,-2,-4,-2,-3,-1,3
1470344950562690,3,-9,14,-2,-1,-2,-1,-4
1470344950562690,-4,10,15,9,3,1,0,-1
1470344950562690,-4,-7,-20,-12,-5,-2,-3,0
1470344950584708,9,-3,-2,-7,1,1,-1,1
1470344950584708,-3,6,3,4,-1,0,1,4
1470344950585664,1,-5,-9,3,-2,-3,-2,-3
1470344950585664,-6,10,30,1,-3,-2,0,-3
1470344950607756,1,-8,-23,-9,1,0,0,-1
1470344950607756,-1,2,9,0,-3,-1,-1,0
1470344950608733,3,10,-12,-1,1,-1,-1,1
1470344950608733,7,-17,5,8,2,0,-1,2
1470344950622696,-12,-8,-2,-7,-5,-3,-3,-3
1470344950622696,4,6,11,10,1,-1,-1,-2
1470344950622696,-6,8,5,-2,-3,-2,0,0
1470344950622696,-1,-9,-2,3,-1,-1,-2,-6
1470344950644725,-2,-2,-5,-21,-3,1,-1,0
1470344950644725,-2,2,7,5,-4,-3,0,-4
1470344950652231,4,-8,-8,-5,-2,-2,-1,3
1470344950652231,9,12,-2,-6,0,-3,0,1
1470344950668156,-3,-4,-5,11,2,0,-1,-3
1470344950668156,-5,5,-2,-3,-2,-1,-2,-2
1470344950669157,-2,-7,-1,-2,1,1,0,-2
1470344950669157,1,-5,-5,2,-1,0,0,0
1470344950683171,1,2,11,8,-3,-4,-1,-2
1470344950683171,-2,-6,-7,-31,0,0,2,0
1470344950684170,-3,-4,10,9,1,0,1,-4
1470344950684170,-2,-1,-14,3,-1,-1,-2,-1
1470344950705190,-2,0,2,-14,0,-1,-1,0
1470344950705190,-4,-11,-3,-5,-1,-1,-2,-2
1470344950705190,2,5,-5,-8,-2,0,0,0
1470344950705190,5,-7,13,8,-1,-1,1,0
1470344950728212,-4,-4,-6,-6,-3,-2,-1,-2
1470344950728212,4,-5,-11,3,-3,0,0,-1
1470344950729211,-20,5,9,3,-1,0,0,-2
1470344950729211,5,14,-2,-1,-1,-1,-2,2
1470344950742729,3,-4,3,8,-1,-2,-1,0
1470344950742729,-3,3,15,5,2,-2,-1,-2
1470344950743229,5,-14,-36,-7,-5,-1,1,-1
1470344950743229,-3,3,2,-2,-2,0,0,-2
1470344950765257,-6,-13,3,-8,-1,0,-1,-3
1470344950765257,-1,-6,2,3,0,-1,-1,-1
1470344950765257,1,0,8,6,-2,-2,-2,-2
1470344950765257,-4,-1,-3,-7,-2,-3,-2,-1
1470344950788276,2,-4,-6,-1,-1,-1,-1,-1
1470344950788276,0,-1,-9,1,-2,-1,-1,0
1470344950788276,-2,-4,7,-18,-2,-2,-2,-1
1470344950788276,-5,-7,-25,3,-2,-2,-1,0
1470344950802288,2,9,13,-2,-1,-1,-1,-1
1470344950802288,-3,1,-5,11,-2,-1,0,-2
1470344950803290,3,1,-4,-5,-2,-1,-1,1
1470344950803290,1,-5,10,-14,-3,-2,-2,-1
1470344950824307,-5,-1,-5,13,-1,0,0,-3
1470344950824307,6,-4,1,-4,-1,0,0,0
1470344950825308,-3,2,5,-1,1,-1,-1,-2
1470344950825308,-1,-4,6,3,1,0,-2,0
1470344950848438,0,7,-1,0,-1,1,0,0
1470344950848438,-7,-11,-19,-11,-3,-2,-3,-1
1470344950848438,3,2,8,2,1,-1,-1,-1
1470344950848438,7,-2,-5,6,-2,-1,0,-1
1470344950862428,-4,-8,4,-25,-1,-2,-3,-3
1470344950862428,-1,8,13,10,-2,-2,-1,0
1470344950863395,0,-5,-16,0,-2,-1,1,0
1470344950863395,-4,-4,0,-11,-2,-2,-2,-1
1470344950884413,4,13,-8,19,-1,1,1,1
1470344950884413,-2,3,10,-4,-1,-1,0,-5
1470344950885417,-2,-11,3,2,-2,-2,-4,0
1470344950885417,-3,5,3,3,1,1,1,-1
1470344950908461,0,-4,-6,-2,0,-1,0,0
1470344950908461,0,5,6,1,1,2,-1,1
1470344950908461,-2,-4,-13,14,0,-2,-1,-2
1470344950908461,-4,-5,-9,-11,0,1,0,-2
1470344950922519,-2,-1,12,2,0,-1,-3,-1
1470344950922519,0,-4,-18,5,-1,-2,0,0
1470344950923449,-1,7,4,-11,-3,-1,0,-1
1470344950923449,-1,3,5,4,-1,0,-1,0
1470344950945076,-1,-6,-12,-18,-5,-3,-3,-1
1470344950945076,-2,3,0,-7,0,-2,0,0
1470344950945076,-2,-1,5,11,0,0,-2,-1
1470344950945076,-1,0,1,-6,0,-2,0,-2
1470344950968215,1,4,-9,0,-1,0,0,0
1470344950968215,-3,-2,-3,5,0,-2,-2,-2
1470344950969172,-1,-3,7,-15,-4,-2,0,0
1470344950969172,-5,5,0,2,3,0,-1,-1
1470344950982210,0,-3,-8,11,-1,-1,0,0
1470344950982210,3,-3,3,-23,-5,0,0,0
1470344950983185,-2,-10,4,10,1,-1,-1,-3
1470344950983185,-2,2,-3,-12,-2,-1,-1,-3
1470344951005204,-1,-5,3,5,-2,0,-1,-1
1470344951005204,-2,-4,-11,3,0,-1,-1,-1
1470344951005204,2,9,3,-13,-2,0,0,-1
1470344951005204,-1,-4,3,6,0,-2,-2,-1
1470344951028249,-5,0,-3,3,-1,-2,-2,-1
1470344951028249,1,0,7,4,2,0,0,-1
1470344951028249,0,-9,-12,4,2,0,-2,0
1470344951028249,-2,-5,-4,-15,-7,-2,-2,-2
1470344951042244,-2,4,4,10,1,-1,1,-3
1470344951042244,-1,3,-3,-11,-3,1,-1,-2
1470344951049863,-2,0,2,10,2,0,-2,-2
1470344951049863,0,-6,-4,5,-4,-3,-1,-1
1470344951064838,-2,-4,11,-11,-1,0,1,0
1470344951064838,-1,4,-17,-2,-3,-3,-1,-2
1470344951065811,-1,2,11,6,-2,-1,0,0
1470344951065811,-1,-2,-15,-8,1,-1,-1,-1
1470344951087825,0,-11,-8,7,-2,-2,-1,-1
1470344951087825,-4,-3,-4,5,2,-1,-3,0
1470344951088821,-1,-3,-14,-12,-5,-1,-1,0
1470344951088821,0,7,18,29,0,2,1,2
1470344951101902,4,-13,-5,-21,-2,1,-3,1
1470344951101902,-4,1,-2,3,-1,-2,-1,-3
1470344951109874,-1,2,3,-7,-2,-4,-1,-2
1470344951109874,-2,4,-10,6,1,1,0,0
1470344951124856,-2,-14,20,-2,1,-3,0,1
1470344951124856,-1,13,-20,-18,-2,0,0,0
1470344951125855,-1,-2,20,12,0,1,0,-2
1470344951125855,1,8,9,-2,-2,-1,-1,-1
1470344951147922,1,12,-1,-1,1,2,-3,-3
1470344951147922,-2,-15,9,6,-3,-2,-3,-1
1470344951148889,-3,-1,-16,-2,0,0,-1,-1
1470344951148889,1,-6,2,-15,-3,-2,0,1
1470344951161922,-1,4,-5,7,0,-2,0,-1
1470344951161922,1,-8,-6,-5,-2,-2,-1,-3
1470344951169908,2,7,9,9,-1,-1,-2,0
1470344951169908,-1,-10,-11,-1,-1,-1,-1,-1
1470344951184921,-1,3,-6,-2,-3,0,-2,0
1470344951184921,0,0,12,2,1,-1,-1,0
1470344951185922,-1,-4,-12,7,0,-1,-2,-2
1470344951185922,-1,-7,-8,-16,-3,0,-2,0
1470344951207971,-1,4,-10,-11,0,0,0,-2
1470344951207971,5,4,22,21,0,-2,-1,0
1470344951208942,-5,-14,0,5,3,0,-2,-4
1470344951208942,4,26,-10,-10,-3,0,0,3
1470344951221984,-1,3,10,11,-4,-3,-1,-2
1470344951221984,-4,-17,-2,-6,-3,-1,-1,0
1470344951230564,1,5,0,2,-1,-1,-1,0
1470344951230564,-1,-4,2,-10,-1,0,-1,-3
1470344951245113,-2,-8,-10,-7,1,0,0,1
1470344951245113,-1,8,-19,11,2,-1,-1,0
1470344951245563,-2,-4,-5,-28,1,-1,-1,-2
1470344951245563,-1,-5,6,16,-2,-2,-2,-4
1470344951267717,1,-1,16,12,-5,-2,-2,0
1470344951267717,-1,-16,-14,5,3,0,0,0
1470344951268694,0,9,-16,-11,0,-2,-1,0
1470344951268694,-2,5,17,5,0,1,1,-1
1470344951281717,-4,-9,-29,-45,-4,-4,-2,-4
1470344951281717,1,-2,30,26,1,0,-1,0
1470344951289716,-3,12,-13,-27,-7,-2,-2,-3
1470344951289716,0,-8,11,-1,-1,-3,-2,-2
1470344951304724,-1,1,-5,14,1,0,0,1
1470344951304724,-1,3,10,-22,0,0,0,1
1470344951305710,-3,-11,-11,26,0,-1,-2,-1
1470344951305710,0,-4,-12,-5,2,-2,-2,-2
1470344951327785,-5,-7,6,3,-5,-4,-3,-2
1470344951327785,-1,3,-9,-16,-1,-1,-2,-2
1470344951328731,-2,2,14,0,-2,-1,-1,-1
1470344951328731,-1,-16,-7,14,0,0,-1,-4
1470344951341770,1,4,-11,-4,0,1,-1,-2
1470344951341770,-4,2,6,0,-2,0,-1,-2
1470344951350334,-2,-3,1,-7,-3,-1,-1,0
1470344951350334,-2,7,1,2,0,-1,-3,2
1470344951365323,-3,-10,-4,-5,-2,-1,-2,0
1470344951365323,-3,-11,-16,-10,-5,-2,-1,-1
1470344951365323,2,-1,2,6,2,0,0,1
1470344951365323,-1,1,-4,-12,-1,-1,0,0
1470344951388383,1,4,23,10,1,0,-1,0
1470344951388383,2,6,-8,-9,-1,-1,-1,-1
1470344951388383,-4,0,-14,-3,-2,0,-3,-1
1470344951388383,-2,2,18,9,-1,-1,-1,-3
1470344951410335,-1,-3,-5,-2,0,0,0,0
1470344951410335,-2,2,6,-3,-3,-2,-1,0
1470344951411336,-1,-3,2,5,0,-1,1,1
1470344951411336,-1,-9,-10,-14,-4,1,-2,0
1470344951425346,-2,-1,8,3,1,-3,-1,-1
1470344951425346,-4,11,7,5,-3,0,1,-1
1470344951425346,5,-9,0,13,-3,0,-1,-1
1470344951425346,-2,1,2,-23,1,-1,-1,0
1470344951448420,-2,-7,-10,7,0,-1,-2,-2
1470344951448420,2,4,8,12,2,1,1,0
1470344951448420,-2,6,3,-7,1,1,0,-3
1470344951448420,-2,-3,-10,0,-3,-2,-2,0
1470344951470441,1,6,2,10,3,2,0,2
1470344951470441,-2,-4,4,-13,-2,-2,-2,-1
1470344951471441,1,-1,-5,0,-2,-2,0,-2
1470344951471441,2,-2,-6,7,-5,-2,-1,-1
1470344951484498,-5,1,-18,-4,1,-2,-1,-2
1470344951484498,-2,-6,-14,-15,-8,-5,-2,0
1470344951485491,0,0,22,2,1,0,-1,-1
1470344951485491,-2,-4,6,3,0,-2,-1,0
1470344951508476,1,0,2,7,1,1,0,-3
1470344951508476,-1,-2,-6,-6,1,0,-2,-2
1470344951508476,0,-1,-5,-4,-3,-1,-2,0
1470344951508476,0,-2,-4,4,-1,-2,-1,0
1470344951531027,-1,1,9,4,-1,1,-2,0
1470344951531027,-2,-15,-15,-1,-1,-1,-2,-1
1470344951531530,0,6,-2,-17,-2,0,0,1
1470344951531530,-4,-1,12,23,0,-4,-1,-3
1470344951545043,0,1,-1,-1,-3,-1,0,-2
1470344951545043,-2,-2,-1,-26,-4,-1,-3,-4
1470344951546040,1,-8,-17,-4,-2,-2,-2,1
1470344951546040,-1,5,15,3,1,-1,-1,-3
1470344951568402,2,-3,-3,-10,-2,-3,-1,0
1470344951568402,0,8,-5,11,2,0,0,-1
1470344951568402,-2,-4,7,-4,0,-1,-1,-3
1470344951568402,2,15,-8,-1,0,2,1,1
1470344951590435,-1,-3,-4,-7,-2,-1,-1,0
1470344951590435,-1,-4,-1,-5,-3,-1,-2,-2
1470344951591382,1,5,6,7,1,1,-2,-1
1470344951591382,0,-11,9,2,0,1,-1,0
1470344951604487,-3,1,-39,-11,-3,0,-1,-4
1470344951604487,1,5,10,20,3,-2,0,1
1470344951605445,-2,-15,-15,-17,-2,-3,-2,-3
1470344951605445,0,1,0,-9,-1,-2,0,0
1470344951628425,0,-4,18,7,-2,0,-2,-2
1470344951628425,3,3,-1,9,1,-2,0,0
1470344951628425,-1,6,-9,-11,-2,-1,-1,-1
1470344951628425,-3,-14,-8,-5,-2,-1,-2,-1
1470344951650283,2,0,3,4,0,-2,-1,1
1470344951650283,-1,-2,2,1,-1,0,-2,-2
1470344951651298,0,0,17,17,2,-2,-1,-1
1470344951651298,-1,0,-11,-8,-4,-2,-2,-2
1470344951673271,-2,2,-1,12,-2,-2,0,-1
1470344951673271,-1,-1,8,-7,0,2,0,-1
1470344951674271,-1,-3,-8,-8,-3,-2,-1,-1
1470344951674271,0,-2,1,-7,-1,0,0,-2
1470344951688283,-3,0,-2,14,-2,-3,-2,-4
1470344951688283,-1,-1,-5,-4,2,0,-2,-1
1470344951689300,-4,-15,-2,-6,-3,-1,0,-2
1470344951689300,1,3,1,7,2,0,-1,0
1470344951710303,-2,-7,17,-17,-1,-1,-1,0
1470344951710303,-4,2,-12,2,-3,-3,-1,-1
1470344951711304,-2,-2,-4,14,0,-1,-3,0
1470344951711304,-1,3,-8,-19,-3,-2,-2,-2
1470344951725316,1,-2,6,-11,-1,-2,0,-1
1470344951725316,0,-6,5,4,1,0,-2,0
1470344951725316,-1,5,-10,-1,0,-1,-1,0
1470344951725316,0,-2,2,12,0,-1,-2,0
1470344951747997,0,4,-12,-8,-4,-1,-1,-1
1470344951747997,0,1,12,1,-1,-2,0,-2
1470344951748974,1,-2,-6,3,0,0,0,-1
1470344951748974,-2,0,-9,-10,-2,-2,-1,-1
1470344951770992,-2,0,-1,2,-4,-1,-1,0
1470344951770992,0,0,-5,-2,-1,0,-2,-2
1470344951770992,0,3,7,2,-2,-1,-1,0
1470344951770992,-1,-4,-11,1,0,0,1,-2
1470344951785030,-1,2,19,-3,0,-1,0,-2
1470344951785030,-1,0,4,24,-1,-3,0,0
1470344951786005,-3,-1,-4,-20,-3,-2,-2,-2
1470344951786005,-2,-10,-6,-1,1,-1,0,-1
1470344951808051,2,8,-18,-3,1,-1,-1,0
1470344951808051,0,-2,3,-9,-3,-1,0,-1
1470344951809026,-1,0,4,2,-1,0,-1,-3
1470344951809026,-2,-1,2,-5,-3,-1,0,-2
1470344951831046,0,0,14,16,0,-2,-1,-1
1470344951831046,-1,-7,-32,-17,-3,0,-2,-1
1470344951831551,1,2,5,4,-1,-2,0,3
1470344951831551,0,-3,-7,-10,-4,-2,-3,-2
1470344951845615,1,1,5,11,1,1,1,2
1470344951845615,0,0,-1,-3,0,0,-2,0
1470344951852314,-1,-5,4,-15,-1,-1,0,-1
1470344951852314,0,6,15,14,0,1,-1,1
1470344951868320,1,1,-8,-7,0,1,-2,1
1470344951868320,0,-4,3,8,0,-2,0,-2
1470344951868320,0,-5,2,-9,-3,-3,-1,0
1470344951868320,-2,2,6,7,-1,-2,0,0
1470344951890336,-3,-4,-2,-4,0,-1,0,-1
1470344951890336,-3,3,-3,-4,0,-1,-1,-1
1470344951891332,-1,-1,-11,-1,2,0,-1,-1
1470344951891332,-3,0,-8,5,-2,-2,-1,-2
1470344951905378,0,-10,10,9,-2,-2,-1,0
1470344951905378,-6,-1,-7,-16,-3,-1,-1,-1
1470344951905378,-1,3,2,12,0,1,0,-1
1470344951905378,0,-8,-4,1,-1,0,-1,-2
1470344951928368,3,19,-14,-34,-3,-1,-1,0
1470344951928368,-3,-12,20,12,0,1,0,-2
1470344951929328,0,7,-12,-4,-1,0,0,0
1470344951929328,-1,-8,-7,-4,1,2,-2,-1
1470344951950860,-1,-7,0,3,0,0,0,1
1470344951950860,1,4,0,-1,-3,-1,-2,-1
1470344951951862,-1,5,11,3,0,-3,-2,-3
1470344951951862,0,-1,-2,7,-1,0,0,2
1470344951963872,-2,-6,-13,-7,-1,-2,0,-4
1470344951963872,-1,2,-2,15,-1,-2,-1,-2
1470344951972880,-3,-3,-12,-21,-2,-2,-1,-4
1470344951972880,1,-1,2,-7,-1,-1,0,1
1470344951987944,-5,-11,3,-6,-3,1,-1,-3
1470344951987944,-2,13,5,-4,-1,-1,0,1
1470344951989941,2,-5,1,20,2,-1,-1,-3
1470344951989941,1,4,-2,-8,-4,-3,-2,0
1470344952010954,-3,2,-1,0,0,1,0,-1
1470344952010954,-1,-6,-14,-10,-2,-2,-2,0
1470344952011915,-1,4,19,13,-3,-1,-1,0
1470344952011915,-2,-3,-20,-20,0,-1,0,-3
1470344952023969,1,-7,7,14,-1,-1,-1,1
1470344952023969,2,-3,-6,-6,-1,-2,0,1
1470344952033484,-1,9,-3,1,-2,0,1,-1
1470344952033484,2,1,2,0,-2,-2,-1,-1
1470344952048589,-1,8,-2,0,-1,-1,-1,-1
1470344952048589,0,-16,2,-5,0,-1,-1,-1
1470344952049586,-2,6,-4,-1,-2,-2,-2,-1
1470344952049586,-3,-5,2,6,2,0,0,-2
1470344952070621,-1,1,-6,-7,2,1,1,0
1470344952070621,-1,13,21,15,-2,-1,-2,-1
1470344952072605,-6,-19,6,-14,-3,-2,0,-2
1470344952072605,1,7,-3,8,-1,-1,-3,0
1470344952084615,0,-4,-4,4,-2,-1,-1,1
1470344952084615,1,-3,-8,-10,-1,-1,-1,-1
1470344952092680,1,-2,-2,3,0,-1,-2,2
1470344952092680,-3,1,7,-2,-3,-2,-3,-2
1470344952107678,-5,-1,0,0,2,-1,-1,-2
1470344952107678,2,0,-8,3,-1,1,0,-1
1470344952109639,1,3,0,1,-2,-1,-2,-1
1470344952109639,2,-1,-6,-5,0,1,-1,-1
1470344952130698,-2,-1,9,2,-3,-3,-2,-2
1470344952130698,-2,-4,-24,-10,-2,-2,-1,-1
1470344952132165,-1,0,4,1,1,0,0,1
1470344952132165,-3,-10,-12,-8,-3,-3,0,-2
1470344952144675,-3,-1,11,4,2,-2,-1,-2
1470344952144675,-2,-7,-18,-10,-3,-4,-1,0
1470344952153269,-1,2,3,12,1,0,-2,-1
1470344952153269,-2,-6,4,-5,-4,1,-2,1
1470344952168268,1,-7,-12,-5,1,1,-1,-1
1470344952168268,1,3,8,-3,0,-1,0,-1
1470344952169243,0,-3,-4,6,-1,-1,-1,-2
1470344952169243,-4,1,3,-10,0,-4,-3,-1
1470344952190266,1,1,-18,-10,-2,-1,0,0
1470344952190266,-2,2,21,9,-1,-1,-2,-2
1470344952192264,0,-7,-9,0,-1,-1,-1,-1
1470344952192264,-2,0,7,5,-2,-1,0,0
1470344952204275,-1,-6,-30,-3,-5,-4,-1,-1
1470344952204275,2,2,-1,-3,1,-1,0,-1
1470344952213286,-2,-9,-2,-3,0,0,-1,-2
1470344952213286,2,5,8,2,1,-1,0,1
1470344952228325,-1,6,6,1,0,-1,-2,0
1470344952228325,-1,3,0,2,0,1,-1,0
1470344952229295,0,-2,-5,-2,-2,1,-1,-2
1470344952229295,0,-3,3,5,-1,-1,-1,-1
1470344952250468,0,-6,7,6,0,0,-1,0
1470344952250468,-1,-4,6,-7,-2,-2,-1,-2
1470344952252486,-2,13,-7,-7,-3,-3,0,-1
1470344952252486,-2,-3,-7,2,-1,0,-2,-2
1470344952264510,-1,-1,-1,4,-1,0,-3,-2
1470344952264510,-2,-5,-4,-1,-2,0,-2,-3
1470344952273468,-2,-5,-2,-5,-3,-2,-1,-1
1470344952273468,1,5,10,2,0,-1,-1,-1
1470344952288476,-2,3,0,-3,0,0,-2,0
1470344952288476,-2,-8,17,13,1,-1,-2,0
1470344952289478,-2,1,-11,-8,-3,-2,-1,-2
1470344952289478,-2,-18,-20,-13,-1,-2,-2,-1
1470344952311553,-4,3,-8,-10,-2,-2,-1,-3
1470344952311553,-2,3,14,15,-1,0,-1,0
1470344952316593,-2,-16,-4,1,1,-1,-1,-2
1470344952316593,-1,4,1,2,-1,-1,1,-1
1470344952324601,1,-4,-4,-6,-3,-2,0,0
1470344952324601,2,16,-12,-7,-2,-3,2,0
1470344952333548,-1,0,11,7,0,0,1,0
1470344952333548,-1,1,-9,-3,-1,-1,-1,-2
1470344952348606,1,-3,17,3,-1,-2,-1,-2
1470344952348606,0,-2,5,-8,-5,0,-2,-4
1470344952349590,-1,-6,-7,-2,0,-1,-2,0
1470344952349590,0,5,5,8,-1,0,-1,-2
1470344952370663,-2,-4,-6,-14,-1,0,-2,-3
1470344952370663,-2,-7,-8,0,0,-1,-3,0
1470344952372610,-1,3,-2,-7,-3,1,-1,1
1470344952372610,-2,-3,18,17,1,-1,0,-2
1470344952392630,-1,2,-1,9,0,-1,0,-1
1470344952392630,-2,-8,-27,-20,-4,-2,-1,-3
1470344952394631,1,3,7,-2,-5,-2,-1,0
1470344952394631,-2,-9,-16,-10,3,-1,-1,-2
1470344952407647,-1,-4,7,9,-3,-1,-1,0
1470344952407647,0,0,-5,-2,-1,1,-1,-1
1470344952409645,0,3,3,-7,0,-1,-1,-1
1470344952409645,1,1,-2,-4,0,-2,-1,1
1470344952430687,-1,1,9,9,0,-1,-1,0
1470344952430687,-1,-6,-9,-4,-2,-2,-2,-2
1470344952432172,-1,-3,-7,-5,-1,-1,-1,0
1470344952432172,-2,1,2,-2,-2,-2,-2,-2
1470344952452758,-1,-4,-1,-3,-2,-2,-1,-1
1470344952452758,0,1,6,6,0,-2,1,0
1470344952454725,-2,-2,-9,2,0,-1,-1,-2
1470344952454725,-1,-3,-4,2,-2,-1,0,0
1470344952467772,1,1,-1,-3,-1,-1,0,-1
1470344952467772,-2,-3,0,0,-1,-2,-2,-2
1470344952474761,1,-2,4,1,0,-2,-1,-1
1470344952474761,0,3,2,-2,-1,2,0,-1
1470344952490823,-1,2,-17,-13,-3,0,-2,-1
1470344952490823,-1,-1,-5,11,2,-1,-2,3
1470344952492776,-2,-7,5,4,0,-4,-2,-3
1470344952492776,-1,5,-1,3,-1,0,-2,-1
1470344952512818,-1,0,5,2,-2,-2,0,0
1470344952512818,-2,-2,0,-5,-2,0,-1,-1
1470344952514778,-3,2,0,-2,0,-1,0,0
1470344952514778,-2,-3,-3,-1,-1,-1,-2,-2
1470344952527853,1,-4,-4,0,2,0,0,0
1470344952527853,-2,-1,7,0,-1,-1,-2,-1
1470344952534344,-1,0,-6,-5,-1,1,-1,-1
1470344952534344,-1,-2,4,-1,-3,-3,0,0
1470344952550929,0,0,3,9,-2,-2,-1,-1
1470344952550929,-1,1,-1,-5,-1,-1,1,-2
1470344952551861,0,3,4,5,-1,-1,-1,-3
1470344952551861,-6,-15,-12,-8,-1,0,-1,0
1470344952572936,1,3,-4,-3,-3,-1,1,0
1470344952572936,0,-6,6,6,-1,-3,-2,-3
1470344952574883,0,-4,-4,-4,-3,0,2,1
1470344952574883,2,3,-2,1,1,-1,-1,-1
1470344952595901,-2,0,13,11,1,-2,-3,0
1470344952595901,0,-2,4,-9,-2,1,-2,-1
1470344952596904,-2,-3,-9,2,-1,-1,-1,-2
1470344952596904,-1,-3,-1,-1,-2,-1,0,0
1470344952610915,-2,-6,-18,-12,0,-1,-1,-2
1470344952610915,-1,-1,-13,5,1,1,1,0
1470344952611917,-2,2,14,-8,-1,0,-3,-2
1470344952611917,1,7,22,18,2,-1,-1,0
1470344952633442,-1,0,-3,-2,-4,0,-1,-2
1470344952633442,-3,-2,-10,-31,-5,-3,-1,0
1470344952635445,0,-1,-2,-10,3,1,0,1
1470344952635445,-2,-1,-10,24,0,-1,-2,-2
1470344952647457,-3,0,11,-23,-3,-1,-2,-6
1470344952647457,0,-3,5,16,1,0,0,4
1470344952653775,0,1,-2,-3,1,-4,0,-1
1470344952653775,0,-4,10,-10,-1,-2,-1,-1
1470344952670800,-3,-1,-10,13,0,0,-2,-1
1470344952670800,-2,6,-4,-7,-3,-2,-4,-8
1470344952671787,-2,-12,-5,7,-2,0,-3,2
1470344952671787,3,12,16,-5,0,2,4,5
1470344952692805,-1,-6,-20,-1,-2,-2,1,0
1470344952692805,-2,2,6,2,-1,0,-1,-1
1470344952694807,-1,-7,0,1,0,-1,-3,-2
1470344952694807,-1,7,-6,-6,-2,-1,-2,-1
1470344952707819,0,2,15,1,0,-1,-1,0
1470344952707819,0,-2,-13,-2,-2,0,-1,2
1470344952713826,-1,10,0,0,-2,0,-1,1
1470344952713826,-2,-7,-10,-11,-4,-3,-2,-4
1470344952730870,0,9,11,6,-2,-1,-1,0
1470344952730870,-2,-2,-7,9,-1,-1,-2,-5
1470344952732362,-2,-6,-1,1,-1,0,-1,-2
1470344952732362,0,-1,-5,-5,0,-2,0,-1
1470344952752874,-1,-13,-22,-6,1,-3,-6,-1
1470344952752874,3,9,0,-12,-3,0,-2,1
1470344952754895,-4,1,5,-13,-4,-3,5,-3
1470344952754895,-1,-3,-23,-9,0,1,0,0
1470344952767883,-3,-2,14,6,-1,-1,-1,-3
1470344952767883,0,-6,-1,11,1,-1,-2,0
1470344952773889,1,4,3,1,-2,1,-3,3
1470344952773889,-4,-1,-3,0,-1,-1,-2,-4
1470344952790907,0,-1,-13,-15,0,1,1,2
1470344952790907,-2,-12,10,12,-4,-4,0,-1
1470344952791905,1,3,-6,4,1,1,1,-1
1470344952791905,-2,-12,-3,-13,0,0,-1,0
1470344952820932,2,3,5,14,-3,-1,0,4
1470344952820932,-2,1,5,-15,-1,-1,0,-2
1470344952821932,-2,-3,-4,1,-3,-2,-2,-3
1470344952821932,0,2,-2,2,1,-1,-3,0
1470344952826938,-1,-2,-9,1,-1,0,0,-3
1470344952826938,-2,2,-7,4,-3,-2,-2,0
1470344952834494,-1,-5,5,3,1,-3,-3,-2
1470344952834494,-2,4,-10,-24,-6,-2,-3,-2
1470344952851038,-1,-1,7,-21,1,-1,-1,-1
1470344952851038,-1,-4,-3,4,2,2,2,1
1470344952852033,-1,1,-10,14,-3,-1,-1,-1
1470344952852033,-2,-7,12,2,-2,-1,0,-2
1470344952873066,0,3,-3,1,-1,0,-1,1
1470344952873066,1,-3,2,2,-1,0,-1,-1
1470344952875053,-4,1,10,3,2,0,0,-1
1470344952875053,2,6,1,4,-1,-1,0,-2
1470344952887064,-4,-6,-4,3,-2,-1,-1,1
1470344952887064,-2,-6,9,-5,1,-2,-2,-2
1470344952896072,0,4,1,0,-5,-2,-2,-2
1470344952896072,-2,-8,-18,-2,0,-1,0,-1
1470344952911089,-3,-5,8,2,-1,-1,0,-3
1470344952911089,-3,1,-1,1,0,-2,1,0
1470344952912086,1,-8,-14,-18,1,-1,0,0
1470344952912086,1,13,3,17,1,-1,-3,-2
1470344952933212,-1,-6,23,3,-2,-2,1,0
1470344952933212,-3,-1,-30,-23,-2,-2,0,-1
1470344952935177,-1,-5,17,9,-2,-1,-2,-2
1470344952935177,0,-1,-5,10,-2,1,0,1
1470344952947223,-1,1,-8,-24,1,-1,-2,-4
1470344952947223,-1,-2,-3,15,-1,1,-2,1
1470344952955251,-3,1,-6,-30,-4,-2,0,0
1470344952955251,-1,-5,-8,0,-3,-2,-2,-1
1470344952970254,-1,11,20,15,-3,-2,0,-2
1470344952970254,0,2,-1,-8,-2,-1,0,-1
1470344952972256,6,-8,-3,-1,1,-1,-1,-2
1470344952972256,-11,0,7,-4,-3,0,-1,-1
1470344952993320,-3,-1,-17,-4,-2,-2,0,0
1470344952993320,3,2,-1,-1,3,0,0,-2
1470344952994277,2,1,8,11,0,-1,-2,0
1470344952994277,2,-6,4,-4,-2,-2,0,1
1470344953006329,-3,-2,-7,4,0,-2,-3,0
1470344953006329,0,2,17,4,0,0,-1,0
1470344953015328,-3,-2,-7,4,-1,-3,-1,-2
1470344953015328,4,-2,6,9,0,-1,-1,0
1470344953030350,-1,-1,-6,-26,-2,-1,-1,-2
1470344953030350,3,0,2,3,0,0,1,0
1470344953032313,-3,0,-2,-4,-3,-2,-3,0
1470344953032313,-2,2,12,-3,0,0,-1,0
1470344953052937,-6,-4,-33,3,0,-1,0,-1
1470344953052937,3,-3,13,0,0,-1,0,-3
1470344953054939,-2,3,6,9,0,-1,-2,-1
1470344953054939,2,0,-10,-13,-2,-2,0,-2
1470344953067018,6,1,9,3,-1,1,-2,0
1470344953067018,-7,-9,-30,-3,-2,-1,-3,-3
1470344953075958,0,4,-7,2,0,-1,-2,0
1470344953075958,3,2,13,2,-1,-1,-2,-1
1470344953090972,4,0,-7,-5,0,0,1,-1
1470344953090972,0,3,3,20,0,-1,-1,-2
1470344953091973,-12,-13,4,-29,-4,-3,-1,-3
1470344953091973,-2,-4,-20,-3,-2,-2,-4,-2
1470344953113045,-1,-6,-3,-2,-3,-2,0,0
1470344953113045,0,7,18,5,-1,-1,0,3
1470344953115019,8,-2,-25,3,-1,-1,0,-1
1470344953115019,-6,-5,5,7,-1,1,0,-1
1470344953127032,0,0,7,-9,0,-2,-1,-2
1470344953127032,-2,-1,1,-5,-2,0,-1,-2
1470344953136060,1,-2,1,6,0,0,1,0
1470344953136060,-3,1,-2,-10,0,-1,0,-1
1470344953150658,6,-8,9,10,-1,0,-3,-1
1470344953150658,-19,-10,-16,-13,-1,0,-2,-3
1470344953152621,0,9,2,2,-2,1,0,0
1470344953152621,-2,-4,4,8,-2,-1,-3,-1
1470344953172687,2,-2,-8,-1,0,-2,-1,0
1470344953172687,-1,0,0,-5,-3,-1,0,-1
1470344953174636,2,-1,15,-2,1,1,-1,0
1470344953174636,0,-4,-23,-7,-3,-3,-2,-2
1470344953186693,-2,3,7,1,-2,-1,-2,-2
1470344953186693,2,-1,-2,-7,-1,-3,-1,-1
1470344953195662,-4,-2,7,12,0,-1,-1,0
1470344953195662,2,-2,8,-6,-2,0,-1,-1
1470344953210710,-3,1,0,5,0,-1,0,-2
1470344953210710,1,2,-14,-10,0,-2,-1,-2
1470344953211669,-1,-4,3,-9,-1,0,0,0
1470344953211669,-2,-6,4,12,0,0,-1,0
1470344953233295,-2,10,-1,-1,-1,0,-1,0
1470344953233295,2,1,3,-7,-4,-3,-1,0
1470344953234742,-2,-1,-4,-2,-2,-2,-2,-1
1470344953234742,-1,-2,-8,1,-3,-1,-1,-1
1470344953246752,-2,-3,4,-12,-1,0,-1,1
1470344953246752,2,-4,9,10,-1,-1,-1,-1
1470344953255766,-4,2,-7,-8,-2,-2,-1,-1
1470344953255766,4,3,3,4,1,0,0,0
1470344953270781,-10,-8,-21,-17,-1,-1,0,-1
1470344953270781,1,0,23,14,1,-1,-2,-2
1470344953271785,0,-2,-2,1,-2,-1,-1,-2
1470344953271785,-2,4,5,-2,0,0,0,-1
1470344953292859,-1,-3,-9,5,0,0,-1,-1
1470344953292859,-2,-6,-4,-7,-1,-1,-1,-1
1470344953294802,-2,-1,-7,1,-1,-1,-1,-1
1470344953294802,1,0,-1,-5,0,-1,0,1
1470344953315873,1,-1,12,7,-2,-3,-1,-1
1470344953315873,-1,-2,-7,-4,-3,-2,-1,-2
1470344953316821,-4,-3,1,6,-1,0,1,0
1470344953316821,2,-3,-3,-7,-1,-3,-2,-2
1470344953330835,-1,-6,-4,6,0,-1,-1,-2
1470344953330835,-1,0,-5,-7,-2,0,-2,-1
1470344953331836,1,-2,-4,-11,-1,-3,-1,-2
1470344953331836,-1,1,-1,-2,1,-1,1,-1
1470344953352582,-3,-2,10,6,-4,-1,0,-1
1470344953352582,0,1,-2,1,2,0,-3,-1
1470344953354569,0,1,8,5,-2,-3,-2,-3
1470344953354569,-4,-4,0,2,0,3,1,2
1470344953375639,2,-3,0,9,-1,-1,-4,-6
1470344953375639,0,1,-4,0,-2,-1,1,-1
1470344953377587,-3,-7,0,-7,0,-4,-2,-2
1470344953377587,-11,-3,-3,1,0,-1,-2,-4
1470344953390642,-6,-2,6,5,0,1,3,2
1470344953390642,-2,-3,-4,-3,-1,-4,-3,-1
1470344953392601,3,-1,-8,4,-1,-1,-1,1
1470344953392601,4,-2,-13,-7,-3,-2,-3,-2
1470344953412619,-1,2,-1,-7,-1,-1,-1,1
1470344953412619,-3,-2,10,4,-1,-1,-4,-1
1470344953414621,-2,-5,-9,-1,-2,-3,1,0
1470344953414621,1,-1,-1,-2,-3,1,2,-2
1470344953435737,1,2,-2,-4,0,-3,-1,-3
1470344953435737,0,-1,-6,-1,1,1,-1,2
1470344953437697,5,-1,0,-7,-4,-3,-11,1
1470344953437697,-7,-1,-5,-9,0,1,15,-6
1470344953450242,0,1,21,22,0,1,-13,0
1470344953450242,-6,-1,-8,-4,-2,-1,1,-3
1470344953456281,-1,-2,-10,1,1,-2,-4,3
1470344953456281,-2,-3,4,0,0,-3,-1,-2
1470344953473311,1,-3,-4,-4,-3,1,1,0
1470344953473311,3,-8,0,-7,-1,-2,-1,-1
1470344953474263,4,10,-3,0,0,1,3,1
1470344953474263,-1,-5,-11,-1,-1,-3,-5,0
1470344953495316,0,0,11,-2,-1,-1,1,-1
1470344953495316,-1,-8,-25,-8,-2,0,-4,0
1470344953497286,-2,-5,-12,-4,-1,0,1,-2
1470344953497286,3,6,14,9,-1,-3,-1,1
1470344953510297,2,-2,0,-6,-2,-2,-4,0
1470344953510297,2,3,-10,3,0,-2,2,0
1470344953517302,-19,-3,8,-1,-1,0,-1,-5
1470344953517302,2,3,16,18,0,-3,-4,0
1470344953540932,-2,2,-15,-18,-3,-5,-1,0
1470344953540932,4,-1,18,4,0,0,-1,0
1470344953542356,1,-2,-18,-11,-1,-2,0,-2
1470344953542356,-2,2,10,-2,0,-1,-5,1
1470344953555397,-3,-5,-17,1,-2,-3,2,0
1470344953555397,-1,-1,8,-2,0,0,1,2
1470344953557402,0,1,12,8,0,1,0,-2
1470344953557402,-3,-7,0,-4,-2,-1,-2,-4
1470344953569429,2,-2,-4,14,-1,0,-1,-1
1470344953569429,-5,-2,6,-8,1,0,-1,-1
1470344953576492,4,-1,-11,-6,-4,-1,0,-1
1470344953576492,-3,-2,-23,-12,-2,-1,-2,0
1470344953593456,-5,-4,10,8,-3,-3,-2,-3
1470344953593456,0,3,-1,-2,-3,-2,-2,0
1470344953594434,1,3,13,3,2,1,1,0
1470344953594434,3,-2,23,16,-3,-2,-4,0
1470344953615520,-3,-5,-34,-44,-5,-1,-1,0
1470344953615520,1,0,5,7,-1,0,1,0
1470344953617485,2,2,2,0,2,-2,-1,0
1470344953617485,1,-2,-1,6,-1,-1,-2,-1
1470344953629466,-1,-1,5,14,3,2,-1,-1
1470344953629466,7,0,-3,-12,-2,-2,-1,-1
1470344953636977,-23,-9,-3,4,-3,0,0,-6
1470344953636977,2,3,-2,-4,-1,0,-3,1
1470344953653559,4,1,-3,4,1,-1,1,0
1470344953653559,-7,-5,-13,-9,0,-2,0,0
1470344953654550,3,4,1,7,-1,-2,0,1
1470344953654550,-2,-4,-10,-9,-3,-1,-3,-1
1470344953675571,1,4,22,1,-2,-1,0,1
1470344953675571,-4,-2,-10,1,-2,-2,0,-4
1470344953677571,2,-4,-1,8,-2,-2,0,2
1470344953677571,-2,0,-8,-10,1,0,-1,-1
1470344953689613,4,-3,-4,-3,-1,0,0,0
1470344953689613,0,11,15,9,0,0,-1,1
1470344953696621,1,-7,7,-6,-1,-1,-2,0
1470344953696621,2,4,-10,-5,-2,-2,-2,0
1470344953712603,-4,-4,7,8,-2,0,1,-2
1470344953712603,3,-2,4,5,0,0,0,-2
1470344953714605,-3,-5,-9,-8,-4,0,-1,-1
1470344953714605,1,-2,0,-12,-1,-3,0,0
1470344953735633,-4,-1,4,11,-1,0,-2,-2
1470344953735633,-3,0,0,-8,-2,0,-2,-4
1470344953737632,2,0,8,10,0,-1,-1,2
1470344953737632,12,-3,-10,-5,1,0,3,-1
1470344953757715,-27,-1,-2,-7,-1,-1,-2,-3
1470344953757715,4,1,-4,5,-2,-1,-2,0
1470344953765709,-1,-1,-5,-17,-1,-1,-2,-3
1470344953765709,0,-4,1,9,1,-1,-2,-1
1470344953772723,4,4,8,3,3,1,-1,0
1470344953772723,-7,-8,-37,-9,-4,-1,1,-2
1470344953774697,1,-2,10,3,-3,-2,-2,-5
1470344953774697,-3,0,-5,-4,0,-4,-4,0
1470344953795734,3,-2,-2,-7,-3,0,1,0
1470344953795734,-2,-8,0,2,-1,1,0,0
1470344953796718,3,4,9,2,-1,-3,-8,0
1470344953796718,-7,0,-5,5,-1,2,8,-1
1470344953808783,7,-3,-8,5,0,2,-2,-2
1470344953808783,-11,-3,13,-12,-2,-5,-4,-5
1470344953817739,6,1,-7,11,0,6,16,5
1470344953817739,10,0,1,-13,-4,-4,-9,0
1470344953832805,-3,10,20,9,0,-1,0,-6
1470344953832805,1,-3,-24,-2,0,0,2,1
1470344953835265,-7,-6,0,0,1,-2,-6,-3
1470344953835265,-1,-5,-14,-15,-3,1,4,2
1470344953855877,10,0,16,10,-3,-3,-1,1
1470344953855877,8,5,4,2,-1,-3,-3,0
1470344953856826,-2,2,-7,-8,-1,-5,-3,0
1470344953856826,-5,-3,-9,-3,-1,1,-1,-3
1470344953869838,-7,-11,-23,-24,2,1,6,-5
1470344953869838,-1,1,40,26,-1,-2,-1,3
1470344953883906,-7,3,-11,0,0,0,-1,-1
1470344953883906,-3,5,13,2,-1,-2,1,0
1470344953892913,4,-7,-44,-13,-4,-5,-2,-2
1470344953892913,-19,-6,19,0,-1,2,-12,-1
1470344953894860,12,-3,-12,-5,-1,1,0,1
1470344953894860,-5,-5,-6,4,-1,-5,-13,-8
1470344953915967,5,18,21,4,0,4,9,7
1470344953915967,18,5,-19,-7,0,1,14,3
1470344953916880,-14,-7,-2,-4,-1,-2,-12,-7
1470344953916880,-10,-16,14,5,-1,1,7,-2
1470344953928935,2,-6,-17,-10,-3,-3,-8,0
1470344953928935,12,9,14,3,0,-2,-8,-2
1470344953938931,-4,12,13,2,-2,0,6,0
1470344953938931,4,4,-4,1,0,-1,1,2
1470344953952971,1,-8,4,1,-1,-1,3,-2
1470344953952971,-23,1,0,-4,-1,-1,-14,-3
1470344953954953,-1,0,12,2,-1,-2,2,-1
1470344953954953,-2,-1,-14,-3,-2,1,-2,-3
1470344953982979,1,-3,-3,-3,0,-1,-6,2
1470344953982979,-2,3,-2,-2,0,3,8,-4
1470344953985035,4,-4,-1,-2,-2,-2,-3,0
1470344953985035,-2,0,1,2,-1,-1,-2,0
1470344953989075,-4,-3,-10,-6,-2,-2,-2,1
1470344953989075,4,-4,4,4,0,-4,-7,-2
1470344953997990,-2,-9,-9,-5,-2,2,6,-5
1470344953997990,2,7,-6,-3,-2,2,6,1
1470344954013059,-9,-4,11,6,1,-3,-15,-5
1470344954013059,-1,-2,2,-1,-1,-2,4,1
1470344954015037,13,-2,-23,-1,-3,-2,-5,2
1470344954015037,-9,-2,7,1,0,-4,-4,-2
1470344954036149,-2,-4,1,3,-1,-2,0,1
1470344954036149,-5,-5,-3,1,-2,-1,2,-4
1470344954037566,-5,-2,-12,-25,-3,-4,-5,-2
1470344954037566,2,0,11,0,0,0,4,3
1470344954049623,1,2,-11,-1,-4,0,-2,-2
1470344954049623,6,0,5,0,-1,-2,2,0
1470344954057932,-6,-3,5,10,2,1,1,-2
1470344954057932,-5,3,3,0,0,1,-4,-4
1470344954073000,1,5,1,-2,-1,-1,-1,0
1470344954073000,2,-2,-16,-13,-3,-2,-2,0
1470344954074992,6,2,10,6,1,1,4,1
1470344954074992,-19,-1,0,-2,-3,-1,-2,-1
1470344954095966,1,-1,-4,-6,0,-2,-6,2
1470344954095966,-1,-6,-2,1,-3,2,6,-4
1470344954096968,-7,2,-2,3,1,-2,-11,0
1470344954096968,1,-2,6,6,-2,-1,5,-1
1470344954109033,3,-3,-3,-4,1,-4,0,-4
1470344954109033,-2,0,2,-1,-1,1,-1,1
1470344954118022,-4,-3,0,-9,-2,-1,1,0
1470344954118022,3,-5,-4,2,-1,-1,-4,-3
1470344954133054,-1,-1,-3,-4,-1,1,-1,-1
1470344954133054,1,-2,5,6,-2,-4,-4,-3
1470344954135009,3,2,-2,5,-1,0,0,0
1470344954135009,7,-2,2,-2,-3,-3,-3,0
1470344954155687,-24,-7,0,-3,-2,-3,-1,-4
1470344954155687,-1,-5,-8,-2,-1,-4,-1,0
1470344954157645,6,0,-4,-7,-2,-2,2,1
1470344954157645,5,2,12,10,-2,-3,-8,-5
1470344954169655,4,-2,-8,1,-1,-1,0,-2
1470344954169655,-5,-2,-9,-9,-2,-2,-1,1
1470344954178664,-5,0,0,8,-1,1,3,-4
1470344954178664,1,-6,-6,-10,0,-1,-7,1
1470344954192676,3,17,1,1,-1,0,5,0
1470344954192676,0,-2,-4,0,0,-1,-1,1
1470344954194678,0,-2,7,-2,0,-3,-4,-1
1470344954194678,-3,-6,-5,-2,-2,1,3,1
1470344954215751,0,-3,-3,2,-1,-2,-3,-5
1470344954215751,0,5,3,-1,-2,1,-2,1
1470344954216696,0,2,1,7,-1,-2,-5,-3
1470344954216696,-15,-3,-4,-20,-3,-2,2,-3
1470344954228762,2,-6,-2,-6,-1,-2,-1,2
1470344954228762,-2,-3,6,2,0,-1,-1,-1
1470344954238276,-1,-5,-8,-3,0,-1,-3,-3
1470344954238276,5,4,3,9,-1,0,0,-1
1470344954252943,-2,-4,1,1,0,-1,2,2
1470344954252943,1,-5,3,-4,-1,-1,5,3
1470344954254911,-6,0,-8,-7,-1,-1,-11,-7
1470344954254911,-2,-2,-2,0,0,-2,-1,-1
1470344954282980,4,-3,3,-3,-2,0,-1,-1
1470344954282980,-4,1,1,4,-1,-2,-1,-1
1470344954284938,-1,-9,-1,-3,0,0,1,1
1470344954284938,5,1,-4,-2,-1,1,0,-2
1470344954297990,-4,-4,8,5,0,1,-1,0
1470344954297990,0,8,-9,-4,-2,-2,-2,-3
1470344954299951,-2,0,-8,-7,-1,-3,1,2
1470344954299951,4,2,2,10,1,-4,-4,0
1470344954313016,-3,-3,12,3,1,2,4,2
1470344954313016,4,-3,-13,2,-2,-2,-4,-5
1470344954314964,4,1,-6,-9,-2,0,2,1
1470344954314964,-7,-3,2,2,-1,-1,-1,0
1470344954336043,-1,-6,-8,-2,-1,-2,-2,-6
1470344954336043,-2,-2,-3,4,1,0,1,2
1470344954337544,4,2,14,1,-3,0,0,-1
1470344954337544,7,5,-4,-4,0,2,-1,1
1470344954357664,-8,1,14,7,0,-1,0,3
1470344954357664,-1,-9,-35,-13,-1,-1,-1,-6
1470344954359611,-6,-1,5,7,-1,-2,0,-2
1470344954359611,-5,3,1,-5,0,-2,-1,1
1470344954372677,1,1,2,-2,-2,-2,-4,-3
1470344954372677,3,3,-5,-1,-1,3,0,2
1470344954374625,-5,-6,-1,-4,-1,0,1,-1
1470344954374625,-1,-3,8,3,-2,-3,-1,-3
1470344954395643,4,-1,-18,-2,-1,-3,0,1
1470344954395643,-2,-4,4,-8,-2,-3,-3,-4
1470344954397645,0,2,-7,-9,-2,0,-2,-1
1470344954397645,6,0,3,3,-1,-1,0,-1
1470344954417664,-4,-7,2,5,-2,1,-1,-3
1470344954417664,1,-6,-16,-15,-1,-1,-2,0
1470344954419665,-6,1,19,15,-2,-3,-3,-1
1470344954419665,-10,-1,-5,-2,0,1,6,-1
1470344954432678,5,4,-15,-6,-1,0,-4,1
1470344954432678,-4,0,15,1,1,1,1,0
1470344954446697,-6,-3,-1,5,0,-1,-1,-1
1470344954446697,4,-2,-21,-8,-1,-1,-1,-1
1470344954455290,1,2,17,6,0,0,1,-2
1470344954455290,-6,-5,-3,-1,-1,-2,-5,-3
1470344954457291,0,2,1,2,1,0,3,0
1470344954457291,5,-3,1,2,2,-2,-3,-1
1470344954478346,-1,6,-2,-14,-2,1,-1,-2
1470344954478346,5,-5,3,8,0,-1,-2,4
1470344954479308,-17,3,3,-20,0,0,0,-2
1470344954479308,3,1,-5,7,-2,-1,-3,0
1470344954492352,-8,-6,-2,-1,-1,-2,-2,0
1470344954492352,3,-2,3,-1,-1,-1,0,-1
1470344954499341,-3,-4,-3,0,0,0,1,0
1470344954499341,0,-2,10,-1,-3,-3,-4,-4
1470344954515377,0,1,-3,-1,-1,-2,-1,0
1470344954515377,-6,-2,1,2,-1,-1,-1,0
1470344954517343,6,-3,-21,-10,-2,-2,0,1
1470344954517343,-3,-1,32,11,1,0,-3,-5
1470344954538411,7,1,2,4,-2,-2,1,1
1470344954538411,-10,1,4,-6,-2,-2,-1,-5
1470344954539915,4,-4,1,3,-1,-2,-2,-1
1470344954539915,3,-5,-33,-12,-1,0,1,0
1470344954552955,-21,-6,2,-6,-1,-1,-2,-3
1470344954552955,7,3,1,1,-2,-2,-1,-1
1470344954558987,-5,1,6,1,-1,-1,0,0
1470344954558987,5,9,-15,1,-2,-4,-1,2
1470344954576033,3,-2,-1,0,-1,-2,-1,-3
1470344954576033,1,-1,-1,-3,-1,2,4,3
1470344954576977,6,-1,1,3,0,0,-2,-3
1470344954576977,-4,-3,-3,-3,0,0,-2,1
1470344954597997,-1,-4,-21,-13,-2,-1,-2,-1
1470344954597997,-2,-2,24,6,-1,-1,-2,-3
1470344954599999,3,-1,-12,3,-2,-3,-2,-2
1470344954599999,0,-3,-6,-7,-1,-2,-2,0
1470344954612077,5,-3,2,3,-2,-1,0,-3
1470344954612077,-12,-1,-1,-6,0,-1,-2,-1
1470344954619072,8,-1,-23,-9,-2,1,-2,-1
1470344954619072,-5,-3,9,4,-1,-2,0,0
1470344954636040,8,-1,-7,2,-1,-3,-3,-1
1470344954636040,1,-1,6,3,-1,-3,-1,-3
1470344954637540,-10,-3,-11,-4,1,0,-1,-1
1470344954637540,3,2,-1,-4,-2,1,-1,0
1470344954656930,2,2,5,-9,0,-2,0,-1
1470344954656930,-1,-1,-11,-1,-1,-2,-1,0
1470344954665883,-3,-1,19,8,-3,-3,-2,-4
1470344954665883,-2,-3,-7,-7,-1,0,-1,4
1470344954672932,5,2,21,13,-1,1,-2,1
1470344954672932,-1,3,-7,4,1,-1,0,-2
1470344954678947,10,-1,-15,-13,-2,-1,-1,1
1470344954678947,-16,-3,1,-4,-2,-1,-1,-3
1470344954695932,-3,-1,10,9,-2,-1,0,0
1470344954695932,5,1,-25,-5,-5,-2,-3,-3
1470344954696911,-3,-2,22,15,1,-1,0,0
1470344954696911,3,-5,-6,-7,-1,0,-1,-3
1470344954717930,-7,2,-14,-6,0,-1,1,1
1470344954717930,2,-1,9,-2,1,1,-1,1
1470344954719933,-5,-3,-10,0,-2,-2,-2,-2
1470344954719933,0,1,5,3,-1,1,0,-1
1470344954731945,-8,-2,11,3,-2,-1,-3,-5
1470344954731945,2,-7,-15,-9,0,-2,-2,-3
1470344954739498,-3,1,2,0,2,0,1,2
1470344954739498,-4,-5,-10,-5,-3,-3,-2,-3
1470344954755652,1,0,-1,0,-2,-2,0,-1
1470344954755652,-2,2,-7,1,-2,-3,-2,-2
1470344954757626,2,-2,3,-4,-2,-2,-2,-2
1470344954757626,0,-2,-5,-7,-1,-1,-1,-2
1470344954778662,-4,-5,-12,-5,-1,-1,0,-2
1470344954778662,-1,5,10,10,-1,0,-1,0
1470344954779648,2,3,-3,1,0,1,0,1
1470344954779648,-12,-3,0,-5,-1,0,-2,-3
1470344954791701,-2,-8,-15,-3,-2,-1,0,-2
1470344954791701,4,6,27,12,0,1,0,1
1470344954800681,5,3,5,3,-3,-2,1,0
1470344954800681,-2,-9,-23,-7,-3,-1,-2,1
1470344954815680,-1,0,-1,2,-2,-2,-2,-1
1470344954815680,-4,-13,-8,-11,-2,-1,1,-4
1470344954816680,-4,-1,6,5,0,-1,-1,1
1470344954816680,1,2,3,4,0,-1,-2,-3
1470344954838231,-1,-1,-7,-19,-3,-1,-1,-2
1470344954838231,2,-5,-7,0,-4,-1,-1,0
1470344954840218,-1,-2,6,3,-1,-2,0,-1
1470344954840218,3,-2,-4,-11,2,1,0,-1
1470344954852285,-1,4,17,15,-1,-2,-1,0
1470344954852285,-6,4,-1,-2,1,-1,0,0
1470344954860302,0,-1,-11,-11,-1,-1,-2,-2
1470344954860302,6,-1,3,12,-3,-1,-1,0
1470344954875313,-12,-4,3,-14,-1,0,-1,-2
1470344954875313,-1,0,1,-2,1,0,0,1
1470344954877273,-3,-5,-9,-9,-1,-1,-1,-3
1470344954877273,6,1,16,10,0,-1,-1,-1
1470344954898335,2,1,0,3,-1,0,-1,3
1470344954898335,5,-4,-5,-5,-2,-2,-2,0
1470344954900295,-2,-1,-7,-9,-2,-1,-1,-1
1470344954900295,-3,4,-1,-4,-2,-2,-1,-3
1470344954911333,-3,0,5,2,0,-1,0,-1
1470344954911333,1,2,7,11,-1,1,-1,0
1470344954921313,3,-5,-2,-4,0,0,0,0
1470344954921313,0,-1,2,-4,0,-2,0,0
1470344954935914,-16,1,-5,5,1,-2,-2,-4
1470344954935914,-1,-2,-10,-12,-1,-2,-1,-2
1470344954937375,-1,-2,-5,-2,-3,-2,-3,-3
1470344954937375,-4,-2,7,5,0,0,0,1
1470344954958453,8,3,1,3,1,0,-3,-1
1470344954958453,-3,-1,-6,-5,-3,0,-2,0
1470344954959454,-5,-4,18,3,-1,0,-1,-2
1470344954959454,1,4,-7,-3,-1,-1,0,-1
1470344954971486,5,-9,-8,-7,-1,0,0,0
1470344954971486,-3,2,-2,-7,0,-2,-1,-1
1470344954980516,-5,3,8,17,-1,0,-2,-2
1470344954980516,-2,-9,-9,-14,-2,-2,-1,-1
1470344954995489,4,0,-3,0,-1,-3,-1,-1
1470344954995489,-3,-1,-1,4,0,0,-2,-3
1470344954997489,1,3,-10,-8,-2,-1,0,1
1470344954997489,2,4,5,5,0,0,-1,-2
1470344955018508,-1,-3,-5,-11,-1,1,-1,-1
1470344955018508,0,2,17,10,-2,0,0,-3
1470344955019511,-5,-8,-18,6,-1,-3,0,-2
1470344955019511,-8,-3,-13,-13,1,-3,-2,0
1470344955031562,14,1,-7,-6,-3,0,0,1
1470344955031562,-9,-1,-1,-7,-2,-3,0,-1
1470344955041040,3,-1,18,7,-3,0,0,-1
1470344955041040,3,2,0,3,-1,-1,0,-2
1470344955055559,-4,2,-3,-7,1,1,0,1
1470344955055559,2,0,1,5,-2,-1,-2,-1
1470344955057561,2,2,3,-17,0,0,0,0
1470344955057561,-1,-2,-16,-8,-5,0,1,1
1470344955078611,-1,-2,29,16,-3,-3,-3,0
1470344955078611,-4,-2,-2,6,0,0,-1,-2
1470344955079581,12,1,-4,-1,-1,-1,0,2
1470344955079581,-26,-5,-10,-6,-2,-2,-3,-6
1470344955091642,2,-1,-11,-9,2,0,0,5
1470344955091642,4,-3,2,18,-1,-3,0,2
1470344955100620,-3,1,3,-7,-1,-2,-3,-7
1470344955100620,-2,-2,-3,0,0,-1,0,-1
1470344955115668,-1,-5,-9,2,-2,0,-2,-3
1470344955115668,-1,6,8,-5,-1,-2,-1,-2
1470344955117614,-4,1,8,8,-2,-2,-1,-1
1470344955117614,1,0,13,7,1,-2,0,-1
1470344955138696,-1,0,-13,-7,0,2,0,1
1470344955138696,5,-5,-8,-10,-2,-1,-1,2
1470344955140184,-11,3,13,5,0,2,0,-2
1470344955140184,2,1,7,0,0,-2,-2,-2
1470344955151725,-2,0,-2,11,-2,-2,1,-1
1470344955151725,-1,-4,-8,-14,-1,-1,-3,-4
1470344955160732,2,0,-3,-18,-3,-1,-1,0
1470344955160732,6,1,1,-2,-2,-1,-2,2
1470344955175752,-6,-1,7,14,2,0,0,-2
1470344955175752,-3,-3,-10,-2,1,0,0,-2
1470344955177788,-3,-9,-7,9,-1,0,0,-3
1470344955177788,6,5,12,-7,0,-1,0,5
1470344955197807,0,-8,3,-7,-3,-4,-2,-3
1470344955197807,-1,-2,3,4,1,1,-3,-3
1470344955199769,0,-1,-5,-7,0,-1,-1,2
1470344955199769,-3,3,8,6,-2,-1,-1,-1
1470344955220828,1,0,6,-4,-4,-1,0,-3
1470344955220828,-3,2,-17,-3,-2,-2,-1,-1
1470344955221786,-6,-4,-3,-4,-2,-3,-3,-2
1470344955221786,11,0,-6,10,-2,-1,-2,-1
1470344955235844,1,2,-1,-18,0,0,0,1
1470344955235844,-6,-6,27,15,-2,-4,-3,-1
1470344955237351,8,-1,-18,-3,0,0,-1,-2
1470344955237351,-5,0,9,11,-2,-1,-1,0
1470344955258496,2,-3,-12,-17,2,-1,-1,-4
1470344955258496,-10,-5,-7,-7,-1,0,-1,-3
1470344955259498,-5,1,6,-1,-6,-3,-2,0
1470344955259498,-2,-3,2,5,2,1,1,-1
1470344955281539,1,1,-6,10,-1,-3,-4,-2
1470344955281539,7,2,12,-13,-3,-1,1,1
1470344955282518,-19,-6,-18,2,0,-1,-2,-3
1470344955282518,-2,-11,-1,-12,-2,-1,-2,-2
1470344955294529,-2,0,5,7,-2,-1,1,-1
1470344955294529,0,-1,6,-1,-1,-2,0,2
1470344955301595,3,4,0,14,0,1,-1,0
1470344955301595,6,2,-8,-19,-2,-1,0,-6
1470344955318550,-11,-6,-15,-14,0,-1,-2,-2
1470344955318550,-6,-8,7,4,-1,0,-2,-1
1470344955319551,8,0,8,-4,-2,1,-2,-2
1470344955319551,-22,-3,-14,4,1,0,-1,-3
1470344955341074,3,2,6,6,-2,0,0,-1
1470344955341074,4,4,-2,-3,-5,0,1,3
1470344955342577,-1,-1,-15,-10,0,-2,0,2
1470344955342577,2,2,-1,-1,3,1,0,1
1470344955355031,-2,-1,24,20,-6,-4,-3,-5
1470344955355031,-4,-4,-17,-8,1,-1,-1,-1
1470344955362034,-2,-1,1,-4,-1,-1,-1,0
1470344955362034,8,0,-15,-4,-1,0,-1,-2
1470344955378041,-3,-2,-16,-1,-2,-1,-2,-2
1470344955378041,-2,-3,-1,1,-2,-1,0,-1
1470344955379996,6,-1,0,10,0,-1,-1,-1
1470344955379996,2,-3,-10,-12,-3,-4,-2,-2
1470344955401092,-15,-2,-2,-10,0,0,-1,2
1470344955401092,3,9,3,4,-1,0,-2,-1
1470344955402019,-7,0,-20,-15,-1,0,-1,-1
1470344955402019,0,-8,39,15,-1,-2,-1,-1
1470344955415028,-3,-1,-5,11,1,0,-2,-2
1470344955415028,-4,-1,-15,-4,1,-1,0,-2
1470344955422036,4,2,8,-3,0,-2,-1,-4
1470344955422036,0,-3,-7,-2,-2,-1,-1,0
1470344955438570,2,-1,-3,4,-1,0,0,-1
1470344955438570,2,-2,-7,-15,-2,-4,-2,-1
1470344955440054,-13,-3,10,11,1,-2,-1,-1
1470344955440054,-9,2,-1,1,-1,0,-1,-1
1470344955460962,5,-3,-11,-1,-1,1,2,0
1470344955460962,-3,1,5,-1,1,1,-1,-1
1470344955461962,11,-1,-10,1,-7,-1,1,0
1470344955461962,-9,-1,11,-6,-3,-3,-1,-3
1470344955474975,-4,7,2,1,-1,0,-1,1
1470344955474975,9,-1,-7,2,-2,-3,0,-3
1470344955481980,-6,-3,0,-12,1,-2,-1,0
1470344955481980,4,-1,-11,-3,0,-2,0,0
1470344955497998,9,2,2,-5,-1,-1,-2,-3
1470344955497998,-12,-2,10,5,0,-1,-1,0
1470344955500013,7,4,-5,3,-1,0,0,-1
1470344955500013,-21,-8,3,9,-3,-1,-1,-2
1470344955521015,2,-2,1,-3,-1,-2,-1,2
1470344955521015,12,-6,-6,-6,-2,-3,-2,-1
1470344955522016,-6,0,7,-9,-3,-1,0,1
1470344955522016,12,5,-11,5,-1,-1,-1,1
1470344955535042,-7,1,6,-3,-1,0,0,-2
1470344955535042,-9,-1,1,10,-1,-2,-1,0
1470344955542056,4,0,9,12,0,-1,-1,-3
1470344955542056,4,0,-2,-18,-2,0,-1,1
1470344955557873,-5,-17,-10,0,3,0,-1,0
1470344955557873,-1,0,-2,-5,3,1,0,-1
1470344955559845,-2,-4,13,-4,0,-2,0,0
1470344955559845,1,-3,1,11,-4,-1,-1,-1
1470344955580892,1,3,-2,-8,0,-4,-2,-2
1470344955580892,-3,-4,8,14,-3,-1,-4,-2
1470344955581863,-5,-1,-23,-4,2,-2,0,-1
1470344955581863,0,-4,13,-15,9,1,-1,0
1470344955594908,6,-12,-9,-9,-6,-2,-1,0
1470344955594908,-4,4,3,5,-3,1,0,-2
1470344955601978,3,8,19,15,4,-1,-2,0
1470344955601978,1,24,-37,-14,-5,-4,-2,0
1470344955617944,-7,-22,-28,7,0,-3,-2,-6
1470344955617944,1,-6,-12,-9,-3,-1,1,1
1470344955619897,2,-1,19,2,-2,-2,-2,-2
1470344955619897,-3,-13,-5,-9,-1,-1,-2,0
1470344955641012,-1,10,23,21,-2,1,-1,-3
1470344955641012,-1,1,5,-24,0,-1,-1,-1
1470344955642502,4,-5,-8,7,-8,-2,-1,-1
1470344955642502,3,-4,2,-2,3,-2,0,0
1470344955654899,-24,-2,2,-5,-3,0,2,-3
1470344955654899,3,0,4,-8,-3,-2,-1,-1
1470344955661946,6,3,-12,5,4,2,1,-1
1470344955661946,-8,-3,7,16,-9,-3,-1,-3
1470344955677920,12,5,2,0,8,-1,0,3
1470344955677920,-11,3,23,31,-12,-6,-3,-2
1470344955679922,-12,-13,-26,-36,15,1,0,-2
1470344955679922,5,-1,8,10,-10,-2,0,0
1470344955700942,6,10,11,-1,-1,-1,0,1
1470344955700942,-4,-9,-34,-23,-3,-1,0,-4
1470344955701943,-1,7,39,19,-4,-2,-2,-1
1470344955701943,-1,-5,-18,-3,5,0,0,0
1470344955713953,-2,-2,4,-23,-7,-2,-1,-1
1470344955713953,-2,3,22,3,2,-1,-2,-1
1470344955723962,3,-11,-50,-14,-6,0,-2,-1
1470344955723962,1,-2,39,0,1,-1,-4,-2
1470344955738481,-1,16,-15,14,-2,-1,0,1
1470344955738481,8,-6,-35,-11,3,0,1,1
1470344955739982,-8,-1,9,12,-1,1,0,-2
1470344955739982,2,-9,-6,-7,0,0,-3,-2
1470344955761051,-2,4,14,-9,-3,-3,-3,1
1470344955761051,-3,-4,-21,-14,1,0,-1,-3
1470344955762007,-4,-2,49,22,-1,0,1,2
1470344955762007,0,9,-32,-1,-3,-1,0,0
1470344955774094,3,-3,12,-7,-5,-3,-2,-2
1470344955774094,0,10,1,-4,5,0,-1,-1
1470344955783049,-1,-6,6,-15,-6,0,1,2
1470344955783049,8,1,-9,-2,3,-1,-1,-1
1470344955798069,-9,-2,-21,1,3,1,0,1
1470344955798069,7,-4,8,3,-2,-2,-2,-3
1470344955800042,-7,-2,-10,1,-2,-2,-4,-3
1470344955800042,-2,-2,1,2,-2,-1,1,1
1470344955821069,-1,-8,-7,-9,-7,-1,0,-1
1470344955821069,0,13,8,6,3,2,-1,0
1470344955822062,1,2,-6,-15,0,-2,0,1
1470344955822062,0,-13,5,17,1,-1,-2,0
1470344955834127,-6,-4,-4,-1,-2,-2,-1,-2
1470344955834127,-2,2,13,-4,-2,-2,0,0
1470344955843641,1,-1,-4,-3,1,-1,-1,-1
1470344955843641,-10,-2,3,5,-1,0,0,0
1470344955857843,11,17,18,-1,0,1,-2,-3
1470344955857843,-7,-15,-26,4,-5,-3,-3,-3
1470344955859829,3,5,5,-11,1,0,-1,1
1470344955859829,-3,-2,10,-6,-3,-2,0,-3
1470344955880902,-2,3,0,6,0,0,-1,1
1470344955880902,2,-7,8,4,-1,0,-1,1
1470344955881848,1,2,-16,-20,-6,-4,-1,-3
1470344955881848,-2,4,18,15,1,-1,-1,-1
1470344955893913,-1,-12,-3,-15,-1,-2,0,0
1470344955893913,4,1,-20,2,0,0,0,0
1470344955902907,-17,-8,24,8,-7,-2,-2,-2
1470344955902907,7,-2,-12,-1,-2,0,-1,0
1470344955917910,3,-1,13,0,1,-3,-3,-4
1470344955917910,-6,-6,-20,-6,-8,-3,-1,-3
1470344955919883,-2,-4,-6,-6,6,1,-2,-1
1470344955919883,-4,5,-2,12,2,1,1,-1
1470344955939909,3,-3,-1,5,-1,-1,0,-1
1470344955939909,-2,2,23,9,1,0,-2,0
1470344955948417,4,1,-22,-18,-3,-1,-1,-1
1470344955948417,-1,2,6,-2,-8,-2,-3,0
1470344955954431,-10,-11,-25,-13,2,-2,-2,-1
1470344955954431,-3,4,15,16,-1,-2,0,0
1470344955963437,0,-5,6,8,-5,-3,-1,0
1470344955963437,12,4,-6,1,4,-2,-1,-2
1470344955978450,-21,-3,0,-8,-3,-1,-3,-4
1470344955978450,-4,-9,2,-13,-2,-2,0,2
1470344955979452,4,3,-14,19,1,2,0,-2
1470344955979452,-5,-4,-3,-16,0,1,-1,-1
1470344956000472,10,4,1,-3,-1,-1,0,1
1470344956000472,-6,-7,-6,8,2,0,-3,-3
1470344956002472,-1,1,-5,-7,-5,-2,0,0
1470344956002472,-9,-12,27,1,-1,-1,0,1
1470344956014535,4,-4,-34,-8,-3,-1,0,-1
1470344956014535,0,-2,-5,4,5,1,1,-1
1470344956023491,1,-1,5,5,-2,-1,0,-2
1470344956023491,0,-2,9,9,5,0,0,-1
1470344956038531,1,-4,24,5,-3,-2,-1,2
1470344956038531,1,5,-2,-10,-5,-2,1,-2
1470344956040084,1,-5,1,0,-4,-3,-1,-2
1470344956040084,-6,-3,-26,-6,-2,0,-1,-4
1470344956060667,1,13,22,11,-1,-1,0,3
1470344956060667,13,-4,-15,-12,-2,-1,-1,1
1470344956062638,-20,-3,-4,7,0,-2,-3,-4
1470344956062638,-5,4,0,0,-3,-1,-2,-1
1470344956074656,9,1,4,-12,0,0,-1,1
1470344956074656,-1,-6,-3,4,-1,-2,-1,-3
1470344956083598,1,1,-7,-6,3,-2,-1,2
1470344956083598,0,1,-13,-8,-4,-1,-1,0
1470344956098611,-3,-3,8,6,-1,-1,-1,-1
1470344956098611,1,-6,2,-1,-1,-3,-2,-1
1470344956099613,6,3,5,3,-1,1,0,0
1470344956099613,-2,-2,-8,-9,-1,0,-1,-2
1470344956120658,3,7,-1,10,2,0,1,1
1470344956120658,-9,2,5,-12,-3,-1,-2,-3
1470344956122638,7,-4,-11,-6,-1,-2,-1,0
1470344956122638,-18,-6,8,8,-3,-4,-1,-2
1470344956143706,-2,-2,9,-2,-5,-3,-2,-3
1470344956143706,-5,0,1,19,2,1,0,1
1470344956145254,3,-3,-14,-18,-4,-1,0,-1
1470344956145254,2,3,6,1,-1,-1,0,-2
1470344956157769,1,-5,-11,-5,5,-1,-1,-2
1470344956157769,2,6,-2,-4,0,2,1,1
1470344956159771,1,3,29,8,6,2,1,0
1470344956159771,4,-3,-16,-14,-7,-2,-1,-1
1470344956180790,-5,-9,3,6,-1,0,-2,-3
1470344956180790,2,10,10,4,-4,-4,-2,1
1470344956181790,-4,-1,1,-6,-1,-2,-1,-3
1470344956181790,-3,3,10,-8,-2,1,1,0
1470344956202857,4,-3,-13,5,-2,-1,-3,0
1470344956202857,-6,-9,3,-2,-1,0,-1,-2
1470344956204811,5,2,12,4,-2,-2,2,-1
1470344956204811,1,5,-12,-2,3,-1,-1,-1
1470344956217877,-2,8,-12,1,-4,0,-2,-1
1470344956217877,-6,-4,15,-8,-2,-1,-1,-2
1470344956224832,9,0,-17,3,-1,-1,-4,2
1470344956224832,2,-2,4,-2,-2,-3,0,0
1470344956240901,-4,-4,-2,-3,-2,-1,0,0
1470344956240901,3,2,-4,2,1,0,-2,1
1470344956242349,-5,-2,-1,-4,-2,-2,0,-3
1470344956242349,3,1,-17,-8,0,0,0,0
1470344956263485,-6,-1,18,7,-3,-1,-1,-3
1470344956263485,-3,-5,-2,1,1,-3,-2,-2
1470344956264443,1,2,-9,2,-1,1,-2,0
1470344956264443,0,-2,-14,-3,-4,-3,-3,-4
1470344956278483,1,-5,-9,-9,-1,0,2,0
1470344956278483,2,7,-10,-5,-3,0,-1,-1
1470344956279459,-4,4,-13,-3,-1,0,-2,-1
1470344956279459,0,1,13,9,-1,-1,-3,0
1470344956300518,-3,-8,-16,-5,-1,0,-1,-4
1470344956300518,1,3,11,7,-2,-3,-1,-1
1470344956302479,-5,-2,-3,-8,-3,-1,-2,2
1470344956302479,2,1,-3,-5,0,0,0,-1
1470344956323495,-4,-3,5,3,0,0,-2,3
1470344956323495,-5,-14,-6,-5,-1,0,-2,-2
1470344956324497,-6,-3,-12,1,0,0,0,-2
1470344956324497,0,1,20,1,-3,-1,0,-1
1470344956337510,-1,-3,-1,1,0,-2,-2,1
1470344956337510,-1,-2,-8,-3,-1,1,-1,-1
1470344956344566,-1,-9,13,11,-1,-3,0,-1
1470344956344566,-4,-6,-2,-13,-1,-1,-1,-1
1470344956361044,3,4,-12,-1,-1,0,0,0
1470344956361044,5,0,8,-5,-3,-2,0,-1
1470344956362044,-23,-7,-9,-4,0,0,-2,-4
1470344956362044,7,-2,-1,5,-2,-4,-3,-5
1470344956383066,0,-1,5,8,1,-2,-1,-1
1470344956383066,2,-2,0,-8,-2,-2,-2,0
1470344956385065,4,0,-1,-6,-2,-1,-2,-1
1470344956385065,-4,-4,0,6,1,1,1,-2
1470344956397077,-5,0,-9,-5,2,1,-2,-4
1470344956397077,0,-4,2,-1,-1,0,-2,-1
1470344956404083,2,1,-2,-1,-2,-3,-3,-1
1470344956404083,-3,-2,-3,-3,-1,-2,-1,0
1470344956421097,6,-3,-1,2,-1,-2,0,-1
1470344956421097,-5,0,-5,-3,-1,-2,0,0
1470344956422098,3,2,-4,-10,-2,0,-1,0
1470344956422098,-2,-3,5,11,2,0,1,0
1470344956443623,-5,-5,-7,-8,-2,-2,0,0
1470344956443623,3,6,4,-8,-2,-2,-3,-3
1470344956445212,2,2,3,13,-2,-2,0,-1
1470344956445212,9,4,-3,-2,0,1,2,2
1470344956457109,-21,-2,5,-5,-2,-2,-1,-2
1470344956457109,-3,-1,-2,2,-1,0,0,-3
1470344956464146,2,-1,6,0,0,0,-1,-2
1470344956464146,1,-7,-8,-7,-1,0,-2,-1
1470344956481132,3,2,-1,-4,-1,-3,-1,1
1470344956481132,0,-4,-4,0,-2,-1,-2,-1
1470344956482129,-1,1,2,-6,-1,-2,0,0
1470344956482129,-9,-1,7,3,-1,0,-1,-5
1470344956503153,-9,-7,-16,-8,-2,0,-3,-4
1470344956503153,0,5,4,1,-1,0,0,4
1470344956505166,1,-3,-2,-1,-1,-2,-2,-2
1470344956505166,-2,0,-1,-7,-2,-2,-2,2
1470344956517239,5,9,10,7,-1,-1,0,0
1470344956517239,-2,0,-6,4,0,-1,-2,-3
1470344956524222,-3,0,-4,-11,-5,-2,0,1
1470344956524222,-5,0,-4,-4,-1,-1,-2,-3
1470344956541230,1,-16,2,-2,-3,0,0,-1
1470344956541230,0,7,-2,1,3,0,0,2
1470344956542725,5,1,-7,1,0,1,-1,0
1470344956542725,-10,1,5,2,-1,-2,-3,-4
1470344956563133,6,6,2,-4,-1,1,0,0
1470344956563133,-4,-12,-20,-5,-5,-1,0,-1
1470344956565135,6,3,-3,0,1,0,-1,0
1470344956565135,5,5,17,12,-1,-2,-1,-1
1470344956577146,-1,-12,-7,-1,-1,-2,-1,-2
1470344956577146,0,0,5,0,-1,-1,-1,-3
1470344956584154,-3,-6,-7,-2,0,0,2,-2
1470344956584154,2,22,-1,-3,-1,-1,0,2
1470344956601111,3,-4,0,1,-2,0,0,2
1470344956601111,-3,-2,6,2,-4,-1,0,-2
1470344956602113,-5,-8,3,2,-3,0,-1,-2
1470344956602113,1,-5,-8,-5,0,-1,1,-1
1470344956623189,-1,-1,-5,-2,0,-2,-2,3
1470344956623189,-1,7,2,-9,0,1,1,-1
1470344956625133,-1,-3,4,9,-3,-1,-3,1
1470344956625133,-1,-3,10,1,1,-2,0,-2
1470344956637690,2,2,-12,0,-1,0,0,-5
1470344956637690,0,-6,4,3,1,-1,0,0
1470344956644696,0,0,-1,-1,-1,-1,1,-1
1470344956644696,0,-1,-4,-1,-1,1,-1,1
1470344956661096,-3,6,4,-7,-1,-3,-1,1
1470344956661096,-1,-4,1,-4,-3,-2,-3,-7
1470344956662090,-2,1,0,0,-1,0,0,0
1470344956662090,3,-6,-21,-7,-2,-1,-2,-3
1470344956683118,-5,-6,13,4,-2,0,0,-1
1470344956683118,-3,-12,-12,-3,-1,-1,-1,4
1470344956685104,-3,9,10,0,0,-3,0,-7
1470344956685104,-1,-6,-12,-7,-1,1,1,2
1470344956713131,3,0,11,5,0,-1,-2,1
1470344956713131,-4,8,0,5,0,-2,-2,-3
1470344956715136,-1,-16,7,5,1,0,-1,-3
1470344956715136,0,-10,-8,-3,-1,-2,-3,-1
1470344956720136,-6,2,-6,0,1,0,0,-3
1470344956720136,-1,2,5,4,-2,0,-1,0
1470344956722137,2,6,-8,-8,0,0,0,3
1470344956722137,2,-3,7,2,-1,-2,1,0
1470344956743665,-1,-2,-6,-5,-3,-2,-1,1
1470344956743665,5,-1,1,0,0,-3,-1,-1
1470344956745164,-5,-3,0,1,-1,1,-2,-1
1470344956745164,-2,-2,0,-3,-1,-2,-1,-1
1470344956757204,6,6,-9,-3,-1,1,-2,-4
1470344956757204,-5,-15,2,-7,-1,-2,0,-2
1470344956766209,-1,8,-3,-3,-3,-3,-3,0
1470344956766209,5,17,9,15,0,0,-2,5
1470344956781288,-3,-6,-12,-5,0,-1,1,-3
1470344956781288,-1,-5,-6,0,-2,0,-1,3
1470344956782225,-5,-3,-9,-12,-2,-1,0,-3
1470344956782225,-13,-12,-4,-3,-3,0,-2,-3
1470344956803243,2,9,4,1,0,-1,-1,-1
1470344956803243,6,3,2,-4,-1,1,-1,4
1470344956817278,0,-4,-14,1,0,-1,-2,-4
1470344956817278,-1,2,22,5,-2,-2,-1,-1
1470344956818257,-4,4,-3,4,0,0,0,0
1470344956818257,-4,-3,-5,-19,-3,-1,0,-2
1470344956825262,9,0,-9,-1,-1,-2,-2,0
1470344956825262,-2,-2,-12,0,0,0,-1,-1
1470344956840787,2,3,6,2,1,-1,0,1
1470344956840787,-4,1,0,3,1,1,-1,0
1470344956842287,-3,-2,3,-5,0,-1,0,1
1470344956842287,2,0,-1,-4,-1,-1,0,-1
1470344956863163,-3,-10,-9,-7,-4,-2,-2,-1
1470344956863163,3,4,15,4,-2,-2,-1,1
1470344956865151,-16,-16,-5,4,0,-2,-2,1
1470344956865151,-2,1,-5,2,-2,-1,0,-4
1470344956877212,-3,5,12,-2,-1,0,-2,-2
1470344956877212,2,2,-10,1,-1,-1,-1,1
1470344956886128,2,-7,-1,-7,-2,0,-1,0
1470344956886128,-6,-5,1,-3,1,-1,-2,-7
1470344956901141,-3,-2,-7,-3,-1,0,-1,0
1470344956901141,-1,5,-3,1,0,0,-3,0
1470344956902143,7,1,23,15,-3,-2,0,-1
1470344956902143,-2,0,-14,-8,-1,-1,1,0
1470344956923203,4,3,2,-1,-1,0,1,3
1470344956923203,3,-5,-10,-7,-2,-1,-1,-2
1470344956925164,-7,5,-2,-3,-1,-1,0,0
1470344956925164,-1,-9,8,7,0,0,-3,-3
1470344956945733,0,-5,-4,-5,-3,-2,0,-2
1470344956945733,4,6,-5,-3,0,0,3,2
1470344956947234,5,-1,10,5,0,-1,-1,-1
1470344956947234,-19,-1,-14,-5,-1,0,-1,0
1470344956960822,5,-6,-4,-8,-3,0,-3,-1
1470344956960822,-9,11,13,16,0,-3,-2,-4
1470344956962943,9,3,-2,0,-1,0,0,-2
1470344956962943,0,-2,-3,-10,-2,-2,-2,0
1470344956982898,-4,-1,-6,0,-1,-1,0,4
1470344956982898,2,1,9,12,-1,-2,-3,-5
1470344956984845,-5,6,-2,-13,-1,1,-1,-3
1470344956984845,0,-10,-14,-1,-1,0,1,2
1470344956996890,-9,-14,-16,-10,-1,-2,-2,-4
1470344956996890,-4,-4,7,-2,-2,-2,-2,-7
1470344957005915,-3,10,6,6,-1,-1,0,5
1470344957005915,10,-1,-16,-15,-2,-1,-1,-6
1470344957020920,5,-11,26,14,-1,-4,-2,-4
1470344957020920,-23,-8,-21,-8,-1,1,-1,3
1470344957022880,4,-9,-9,-14,1,-2,-1,-9
1470344957022880,-3,9,19,26,-1,-1,-2,14
1470344957043476,2,-3,-4,-3,-1,0,-3,-21
1470344957043476,9,3,-1,2,-2,-2,1,1
1470344957044987,-7,0,-13,-12,0,-2,-9,-1
1470344957044987,5,-2,6,0,-3,-3,2,-3
1470344957057457,3,8,3,9,-1,1,3,2
1470344957057457,-9,-18,-9,-16,-3,-2,-2,-5
1470344957065463,-4,-4,1,1,0,3,2,-5
1470344957065463,3,-1,-11,-9,0,-2,-2,-2
1470344957080532,-1,10,24,10,0,-3,-6,20
1470344957080532,6,-2,-14,-2,0,0,2,-14
1470344957082482,-15,-7,6,4,-2,-3,-3,6
1470344957082482,0,-2,4,0,-1,-2,-2,-5
1470344957103497,6,5,-15,-18,0,0,2,3
1470344957103497,0,9,2,3,0,0,-3,2
1470344957104499,2,-5,19,10,-3,-3,-2,-2
1470344957104499,5,8,-7,-4,-2,0,0,2
1470344957125560,-4,-8,-5,-3,0,0,-1,-2
1470344957125560,-4,-12,-9,-9,-1,-2,-3,0
1470344957127519,2,2,-6,1,0,-1,0,-3
1470344957127519,-8,-8,6,5,-2,-3,-3,-1
1470344957141081,-9,-6,-4,-12,0,-2,-1,-7
1470344957141081,0,5,5,-1,-3,-3,-1,5
1470344957142584,9,1,-9,-3,-2,-1,1,0
1470344957142584,0,-8,-2,-3,-2,-2,-6,0
1470344957163196,5,13,-2,1,-2,2,8,0
1470344957163196,7,11,18,12,1,-1,0,2
1470344957165164,-26,-11,-19,-4,-2,-3,1,-9
1470344957165164,7,4,-2,-5,-2,-1,-3,17
1470344957186184,-5,-1,2,3,-2,-2,-6,-19
1470344957186184,-1,-1,-1,-5,1,0,0,-1
1470344957187184,11,1,3,-7,0,-3,-1,6
1470344957187184,-11,-6,-3,3,-1,1,2,-3
1470344957201195,4,3,0,8,0,-3,-3,6
1470344957201195,0,0,7,12,1,-1,0,14
1470344957202197,3,-1,1,-1,-2,1,-2,-13
1470344957202197,5,6,4,1,2,1,3,2
1470344957223271,-15,-12,-2,-3,-3,-1,-4,-3
1470344957223271,5,-9,-6,1,-3,-2,-2,-2
1470344957225217,5,4,14,12,1,1,1,4
1470344957225217,3,6,-5,-5,0,-1,0,-5
1470344957245842,1,-6,2,-1,-1,-1,-3,4
1470344957245842,-1,-5,-10,-2,0,-1,0,-1
1470344957247299,-1,3,-4,-9,-4,-2,-1,1
1470344957247299,2,-6,4,-2,0,0,0,-2
1470344957260375,-8,2,10,6,-2,-2,-2,-6
1470344957260375,-4,-4,-8,-9,-1,0,-2,-4
1470344957267382,15,7,5,1,1,1,0,6
1470344957267382,-17,-6,-6,-3,-2,-2,-2,-12
1470344957282396,1,0,-9,-5,-2,1,0,6
1470344957282396,1,5,4,3,-2,-1,2,-3
1470344957283397,-5,-11,7,1,-4,-2,-2,0
1470344957283397,1,-9,10,-5,-1,1,-1,-1
1470344957305468,2,17,-7,1,2,0,2,1
1470344957305468,-1,-13,-2,-5,-1,-2,-1,-2
1470344957305468,1,-1,-8,-6,-1,-1,-2,-4
1470344957305468,-1,1,-4,4,0,0,0,-2
1470344957319427,-1,-3,-13,-5,0,-2,-2,0
1470344957319427,-6,0,5,-9,-2,-1,-2,0
1470344957327469,-2,-2,-1,3,0,-1,0,-3
1470344957327469,1,6,6,10,-1,-1,-2,-1
1470344957342522,-1,-7,-3,-8,-1,0,-1,0
1470344957342522,-1,2,2,13,-2,-2,-1,-1
1470344957343488,-6,-5,-10,-8,-1,-1,0,1
1470344957343488,2,3,-7,-5,-1,0,-1,0
1470344957365107,0,-6,10,4,-3,-3,-2,-2
1470344957365107,-1,-1,-4,1,0,-2,0,-3
1470344957366060,-3,3,2,4,1,-1,-1,-2
1470344957366060,-3,-4,-5,1,2,0,1,-2
1470344957379127,0,-1,-8,-14,-3,-2,-2,-4
1470344957379127,-8,-2,8,-5,0,-3,0,-2
1470344957387120,1,-4,-4,2,-2,-2,-1,-2
1470344957387120,2,5,11,2,-1,0,-2,-1
1470344957402149,8,-5,-14,2,0,1,1,2
1470344957402149,-15,-3,-8,-7,-3,-3,-2,-6
1470344957403096,-7,4,10,1,-1,-1,-1,1
1470344957403096,-5,-10,-7,-19,-3,-2,-1,-2
1470344957425170,3,1,10,8,-2,2,0,5
1470344957425170,7,0,-10,-12,1,1,1,-2
1470344957426115,-1,0,2,15,-2,-2,-1,-1
1470344957426115,10,2,-4,2,-2,-4,-4,3
1470344957439651,-9,7,6,-1,-1,-1,-3,-7
1470344957439651,-3,-5,-5,-8,-1,0,0,4
1470344957447659,2,1,-1,-3,1,1,0,-1
1470344957447659,-4,3,2,-2,-3,-3,-1,-2
1470344957462881,-2,-5,-9,-15,-2,-2,-1,-3
1470344957462881,1,-1,3,-8,-1,-1,-4,-3
1470344957462881,9,-2,-4,8,1,2,-2,0
1470344957462881,-13,3,2,-27,0,0,0,1
1470344957484901,12,-1,-10,8,2,-1,1,2
1470344957484901,-7,-3,0,1,-6,-4,-1,1
1470344957485903,4,2,11,13,1,-1,1,4
1470344957485903,2,-5,-21,-28,-1,-2,-1,-4
1470344957498914,-2,7,10,6,0,-2,-1,2
1470344957498914,7,1,2,4,1,2,1,1
1470344957507923,-8,0,-13,-8,-3,-2,0,-4
1470344957507923,-5,-3,4,18,0,1,0,4
1470344957522936,-3,-2,1,7,-2,-1,-1,-6
1470344957522936,4,7,0,-6,-1,-3,-3,-1
1470344957522936,-6,-6,-1,-8,0,0,0,-2
1470344957522936,-2,-3,0,12,-1,0,-1,-5
1470344957544962,3,-1,2,-1,-2,-1,-1,0
1470344957544962,-2,0,-3,10,1,3,1,-2
1470344957545966,-6,0,0,-17,-4,-2,-2,-1
1470344957545966,13,-3,-7,3,1,0,-1,0
1470344957559478,-16,-22,0,6,-2,-2,-1,-2
1470344957559478,-4,5,6,-8,-1,-3,-1,-2
1470344957567485,5,-1,-7,-2,0,0,-2,-1
1470344957567485,-7,-5,2,-1,-2,-3,-1,-3
1470344957582499,-2,1,2,2,0,0,-2,0
1470344957582499,1,-5,3,7,0,1,1,0
1470344957583499,-6,-4,-6,-11,-2,-2,-2,-1
1470344957583499,8,1,5,16,-2,-1,-2,-3
1470344957604535,-1,-1,3,-11,0,-1,2,0
1470344957604535,-1,9,-1,-13,-2,-3,-2,1
1470344957605520,1,-2,-1,5,0,-1,-2,-1
1470344957605520,-2,2,1,-1,-1,1,1,1
1470344957619559,1,1,-13,-3,1,-1,-1,-4
1470344957619559,-4,-7,4,7,0,1,-1,-2
1470344957627566,-4,6,18,8,-1,-2,-1,1
1470344957627566,-5,3,-8,-5,-1,-1,0,-3
1470344957642622,3,3,2,-1,0,-2,-2,-1
1470344957642622,1,-2,-5,5,0,-2,-1,-4
1470344957643623,-5,-2,-10,-5,-1,-1,1,-2
1470344957643623,4,-4,1,6,0,-1,-2,-4
1470344957665277,5,3,-1,-11,-1,1,-2,1
1470344957665277,-5,-4,-14,0,-1,-2,-2,-1
1470344957665277,4,1,10,2,-4,-3,-1,-1
1470344957665277,-3,1,-1,-1,-2,-1,-1,-1
1470344957679284,-7,-8,5,-3,-1,1,0,2
1470344957679284,5,-1,-11,8,-2,-2,-2,0
1470344957687292,-6,-4,1,-17,-3,1,-2,-2
1470344957687292,2,6,2,0,1,-2,0,2
1470344957702306,-3,0,-9,-4,-2,-1,-2,-5
1470344957702306,-5,-3,5,-1,-3,-2,-1,-1
1470344957703307,-3,-21,-2,5,2,-2,0,1
1470344957703307,0,6,-3,-11,-4,-2,-2,0
1470344957725327,0,2,-2,-2,-1,-1,0,0
1470344957725327,4,-6,3,2,1,1,-2,-2
1470344957725327,-18,-5,-14,-4,-2,0,0,1
1470344957725327,1,-6,4,3,0,-1,-1,-2
1470344957739339,-1,8,8,5,-1,0,-1,1
1470344957739339,3,-8,-9,-3,0,-1,-2,-4
1470344957747854,11,8,-9,6,-2,-1,-2,-3
1470344957747854,-15,-11,-2,-19,-3,-3,-2,-2
1470344957762787,1,5,0,-2,-1,-1,0,-3
1470344957762787,-7,-1,-1,-3,0,1,0,-3
1470344957762787,2,4,11,8,0,0,0,0
1470344957762787,0,2,-3,5,1,1,1,-2
1470344957784807,-2,-6,-6,-3,-1,-1,-2,0
1470344957784807,7,3,11,1,-1,0,-1,0
1470344957785808,-2,2,1,-3,-2,-1,-1,0
1470344957785808,-1,-4,6,7,0,-1,-1,-1
1470344957799820,-5,0,-2,-3,-2,-4,-2,1
1470344957799820,1,4,-6,2,-1,0,0,0
1470344957807828,9,4,0,-6,0,-1,-2,-1
1470344957807828,9,3,-3,3,-1,0,0,2
1470344957822842,-12,-1,6,6,-1,-2,-1,-2
1470344957822842,3,0,-7,-7,-2,-2,-3,-4
1470344957822842,2,0,-13,-6,-1,-1,0,1
1470344957822842,-5,-9,1,-1,-1,0,-2,-2
1470344957845425,1,-10,7,1,0,-3,-3,-4
1470344957845425,-3,5,3,6,-1,0,0,4
1470344957845920,4,9,-5,-15,-1,0,0,-4
1470344957845920,3,5,7,9,0,-2,-2,1
1470344957858962,5,-4,6,9,1,-3,-2,0
1470344957858962,0,-6,2,3,0,-2,-2,0
1470344957867936,2,-5,-23,-10,0,-2,-1,0
1470344957867936,-4,-3,-4,-8,-1,-2,-1,-4
1470344957881987,-6,-1,-6,-5,-1,1,-1,-1
1470344957881987,-5,-2,2,2,-1,-1,-1,-4
1470344957882993,2,1,6,2,-1,0,-1,-1
1470344957882993,2,1,-14,-5,-1,-1,0,1
1470344957905051,-6,-3,-2,3,1,1,0,-3
1470344957905051,-3,-2,1,-1,-2,-2,-2,0
1470344957905962,-4,-1,-12,-7,-1,2,0,1
1470344957905962,3,8,11,5,-3,-3,-1,1
1470344957918974,-5,-15,-6,-3,-4,-1,-3,2
1470344957918974,0,1,-13,-5,-2,0,0,-1
1470344957927982,-2,-3,4,3,-1,-2,-5,-6
1470344957927982,-3,-4,5,1,-2,-1,-2,-3
1470344957942501,6,6,3,2,-1,-1,2,0
1470344957942501,7,4,0,-9,-3,-2,0,4
1470344957943503,-2,-7,-6,3,0,1,1,1
1470344957943503,-4,1,20,16,-1,-1,-1,-3
1470344957965081,9,0,-10,-5,-2,0,-2,0
1470344957965081,-13,-4,4,-3,-3,-1,-1,-4
1470344957966027,0,0,-7,-3,1,-2,-1,0
1470344957966027,-4,-11,-8,-8,-2,-1,-3,-4
1470344957979104,0,1,2,0,-2,-2,0,1
1470344957979104,-3,1,8,3,0,0,-1,-2
1470344957988050,0,5,10,2,-3,-3,-1,-3
1470344957988050,-3,-8,-8,-4,0,-1,-1,-2
1470344958002148,0,9,0,-2,-1,0,0,1
1470344958002148,5,-2,-5,-2,-1,1,0,-1
1470344958003060,-2,-6,-5,-10,-1,0,0,-2
1470344958003060,-8,4,18,20,-1,-2,-2,0
1470344958025083,2,-9,-10,-13,-2,-2,-3,-1
1470344958025083,2,-1,-5,-2,-2,0,-1,1
1470344958026081,-3,-2,4,4,-1,0,-2,-3
1470344958026081,-3,2,-16,-17,-1,1,1,2
1470344958048670,10,0,4,9,-3,-1,-1,3
1470344958048670,-10,-1,7,0,-1,-2,-1,-4
1470344958049202,-2,5,0,5,0,-1,-2,1
1470344958049202,3,-1,-21,-15,-2,-1,1,2
1470344958062285,-12,-3,19,13,-1,0,-3,-8
1470344958062285,2,7,4,-5,-1,-3,-2,0
1470344958063276,-7,-2,-2,1,-1,0,-1,-3
1470344958063276,1,2,-5,-4,-1,-1,-2,0
1470344958085294,0,2,-5,-2,0,-1,2,1
1470344958085294,1,-11,-11,-8,-2,0,1,1
1470344958085294,-2,5,4,8,-1,-3,-1,0
1470344958085294,-8,-2,17,8,-1,-3,-3,-1
1470344958108275,-2,1,-13,-10,-4,-1,0,-6
1470344958108275,1,-3,0,0,1,0,0,4
1470344958109273,1,-4,0,3,0,0,-2,-8
1470344958109273,-1,-7,-22,-16,-2,-2,0,-2
1470344958122284,-1,-1,17,12,-1,-4,-2,-1
1470344958122284,2,9,-5,-6,-2,-1,-2,2
1470344958123295,-2,-23,-1,-3,-3,0,0,0
1470344958123295,1,8,0,2,1,0,0,-3
1470344958145341,-3,-3,-7,-4,-2,0,-1,-1
1470344958145341,0,0,-9,-9,-2,-1,0,0
1470344958145845,-1,7,-1,2,-2,-2,0,-2
1470344958145845,4,-1,0,-4,-3,-2,-1,3
1470344958167909,-7,-11,2,6,-2,-3,-1,-2
1470344958167909,-5,-1,-5,-1,-1,0,-1,-2
1470344958168906,1,2,0,-4,-2,-3,-2,3
1470344958168906,-3,0,-5,-7,0,0,-1,-5
1470344958182937,1,2,8,-5,0,0,-1,3
1470344958182937,4,-2,-1,2,1,-1,-3,-4
1470344958182937,-15,-3,-2,5,-1,0,-3,-3
1470344958182937,8,-3,-1,3,-2,0,-2,-2
1470344958204944,-3,-3,-13,-7,-1,0,-1,5
1470344958204944,-4,-4,0,-5,0,0,-1,-4
1470344958205941,9,0,7,1,-3,-1,0,2
1470344958205941,-6,-3,9,8,2,0,0,-4
1470344958227957,-2,-1,-5,-1,-3,-1,-1,1
1470344958227957,-2,-2,1,3,-2,-3,-2,-3
1470344958228987,0,-1,-2,-6,-2,-1,1,2
1470344958228987,-6,-2,-16,-8,-2,-1,-2,-2
1470344958242587,4,-1,5,-6,0,-1,-2,-5
1470344958242587,-1,-2,-1,5,-1,-1,0,-1
1470344958243534,-4,-8,4,-4,0,-3,-3,-1
1470344958243534,-1,3,13,6,0,0,0,-1
1470344958264629,2,-7,-20,-9,-1,0,-1,-1
1470344958264629,-9,21,6,-2,0,0,0,-5
1470344958265562,4,-1,-5,11,-2,-2,-2,-1
1470344958265562,6,0,0,-14,-3,-1,-1,0
1470344958288583,-4,-2,-9,-3,-1,-1,-1,0
1470344958288583,-1,-8,-8,-2,-2,-1,-2,-1
1470344958288583,6,3,17,-2,-2,-1,0,3
1470344958288583,-2,3,1,16,1,-1,-2,0
1470344958302648,-1,-2,-4,0,-2,0,-2,-2
1470344958302648,2,-2,0,-5,-2,-2,-1,3
1470344958303594,0,3,-6,-3,-1,1,0,0
1470344958303594,0,-6,-10,-7,-1,-1,0,1
1470344958333620,-3,-1,15,5,1,-1,-1,-4
1470344958333620,-1,-4,-3,6,-1,-1,1,3
1470344958333620,-4,-3,-9,-8,-1,-1,-2,-4
1470344958333620,2,1,7,2,1,0,0,1
1470344958348685,-2,-1,-5,-5,0,0,-1,-2
1470344958348685,-2,-3,5,-2,-3,-3,-1,-1
1470344958349186,2,2,0,0,0,0,1,3
1470344958349186,-1,-2,-8,-5,-2,-1,-2,-8
1470344958370287,7,6,-5,-10,-2,0,-1,3
1470344958370287,-3,-2,18,7,0,-1,-1,-4
1470344958371288,3,-3,-4,7,1,-2,-1,-5
1470344958371288,-25,-5,0,-4,0,-2,-1,1
1470344958385301,3,6,-2,0,0,-3,0,1
1470344958385301,-4,-3,-1,-1,1,0,0,-1
1470344958385301,0,-3,0,-2,-4,-1,-2,-1
1470344958385301,5,11,-6,-6,0,-2,-1,3
1470344958408323,1,2,6,6,0,-1,0,-3
1470344958408323,-3,-12,-6,0,-2,-2,-1,0
1470344958409322,3,4,-4,-12,-1,-1,0,-2
1470344958409322,-3,-6,4,6,-1,0,-2,-2
1470344958422388,-4,-3,-3,-5,-2,0,-1,3
1470344958422388,1,1,-1,1,0,0,-1,-4
1470344958423339,-4,-2,-7,-3,1,0,1,-2
1470344958423339,3,-8,13,1,-2,-2,-2,-1
1470344958445414,-3,13,-9,-1,-1,-1,-1,-1
1470344958445414,8,0,-6,-9,-1,0,-2,2
1470344958445917,-6,-8,-5,4,-2,-1,0,0
1470344958445917,5,-1,7,3,-4,-2,-2,-4
1470344958467992,-7,-4,9,17,0,-2,1,-1
1470344958467992,1,-3,-13,-23,0,-3,-2,-3
1470344958468989,-1,-2,4,-5,-2,0,-1,0
1470344958468989,2,2,-6,7,-2,0,0,0
1470344958482057,4,-1,-2,-12,-1,-1,-2,0
1470344958482057,-1,2,-2,3,-1,0,-2,2
1470344958483060,-14,0,6,2,0,-2,-2,-6
1470344958483060,11,-16,-2,1,0,0,0,2
1470344958505077,-9,2,-10,-3,-1,-1,-1,-7
1470344958505077,-1,-4,-8,-1,0,0,-1,0
1470344958506025,-2,0,5,-7,-3,-2,-3,-2
1470344958506025,-1,-2,-3,3,-2,-1,-1,3
1470344958528095,0,-3,-8,-18,-1,-2,0,-1
1470344958528095,1,-2,-3,7,-4,-3,-3,0
1470344958529047,-5,-1,15,6,-2,-1,-2,-1
1470344958529047,-5,-4,-12,-5,-1,-2,-1,-5
1470344958542616,9,0,10,-2,0,0,-2,4
1470344958542616,-23,-1,2,1,0,1,1,-7
1470344958550168,6,13,-6,24,-1,-1,-1,3
1470344958550168,-2,-2,-6,-33,-3,-1,0,-1
1470344958565197,-3,-4,-1,-16,-3,-2,-4,-1
1470344958565197,7,-2,1,1,0,0,-1,0
1470344958566151,-8,-6,1,5,1,-1,-1,-2
1470344958566151,-3,5,-4,4,1,-1,3,-2
1470344958588171,0,0,-9,2,-2,-1,1,1
1470344958588171,1,2,7,-2,-1,-2,-13,-2
1470344958589173,-1,-1,-1,-2,-2,0,6,3
1470344958589173,2,5,1,7,0,0,-2,-2
1470344958611191,-4,-8,3,-3,0,1,0,-1
1470344958611191,-6,10,6,15,-1,0,2,-2
1470344958611191,7,-2,-12,-13,0,-2,-2,-1
1470344958611191,1,1,-3,-4,-2,-2,-2,2
1470344958625204,-3,-1,-4,7,-4,-2,-2,-3
1470344958625204,6,1,4,2,-3,-2,4,-5
1470344958626206,-4,-4,-8,-11,-2,1,-10,-2
1470344958626206,-5,-1,0,8,-2,0,1,0
1470344958648330,0,3,2,-2,-2,-1,-1,1
1470344958648330,11,-13,6,0,-5,-2,-1,4
1470344958649287,-6,-10,-1,-1,1,1,4,2
1470344958649287,1,1,-5,-13,-2,-2,-2,-5
1470344958662303,4,1,-1,8,0,-3,-4,-2
1470344958662303,-5,1,2,-2,0,-2,2,-2
1470344958670358,3,1,-8,-5,-3,-1,-1,0
1470344958670358,-7,-1,3,5,3,0,0,4
1470344958685323,-5,-4,5,0,0,-1,1,-1
1470344958685323,-1,7,0,-2,-1,-3,-1,-1
1470344958685323,-3,-8,-5,-3,-2,-1,-1,-2
1470344958685323,2,0,-7,-3,-1,0,-3,0
1470344958708346,-3,-2,-8,-12,-1,0,-1,-1
1470344958708346,4,-6,8,17,-2,-3,-1,3
1470344958708346,-4,9,-2,-5,0,0,-2,-3
1470344958708346,7,0,-1,9,-1,0,1,-2
1470344958721358,-4,-2,6,-12,-1,-1,-1,-2
1470344958721358,-4,-3,-9,-4,-2,0,0,1
1470344958730365,3,-3,-1,7,-2,-1,0,-1
1470344958730365,-6,0,10,4,-2,-1,-4,-2
1470344958745467,1,-9,-10,5,0,2,1,2
1470344958745467,2,-3,-6,-11,-1,-2,-1,0
1470344958745885,4,3,-5,-2,0,-1,0,2
1470344958745885,-8,-5,5,-3,-1,0,-1,-3
1470344958768453,-2,-6,3,7,-1,-1,-2,-1
1470344958768453,-3,5,-4,-6,-1,-1,-1,-2
1470344958768453,1,3,1,-2,-2,-2,-2,-1
1470344958768453,-1,-4,-6,-4,-2,-3,1,1
1470344958781436,-6,-3,-17,-9,-1,0,-1,-6
1470344958781436,-1,-1,14,18,-1,2,1,0
1470344958789445,1,-1,0,-18,-1,-3,-2,0
1470344958789445,1,8,2,3,-1,1,2,-4
1470344958805458,9,3,5,13,-2,-2,-1,-1
1470344958805458,-7,-6,-14,-17,-2,-2,-2,-3
1470344958805458,1,-4,3,7,-2,0,0,-3
1470344958805458,3,16,-7,-8,-1,0,-1,4
1470344958828512,-2,-10,1,3,-1,-4,0,-1
1470344958828512,1,-3,-9,-8,1,0,-1,-2
1470344958828512,-2,3,12,6,-2,-1,8,-1
1470344958828512,1,-6,-4,-8,-3,-2,-6,-2
1470344958842000,5,4,9,5,-1,0,-1,2
1470344958842000,-2,2,-3,-2,-2,0,-2,0
1470344958850508,-7,-5,-7,-6,-2,-2,1,-1
1470344958850508,-1,-4,-9,-1,-1,0,-1,-1
1470344958865480,-2,0,2,-5,-1,0,1,0
1470344958865480,-1,-3,8,8,-2,-1,1,-1
1470344958865480,-1,3,13,-1,-1,-2,-4,-3
1470344958865480,-3,0,-6,3,1,-2,-1,-2
1470344958888459,-4,-4,-5,-13,-2,-2,-3,-2
1470344958888459,-2,-10,-10,-12,0,-2,0,-2
1470344958888459,4,-1,-4,2,-1,0,-2,1
1470344958888459,5,3,4,5,-3,-1,-2,1
1470344958901468,-1,-11,-1,-1,1,0,2,4
1470344958901468,-11,5,-1,3,0,-1,0,-4
1470344958910437,8,-3,4,-4,-2,-1,-1,1
1470344958910437,-14,-3,-2,-3,-1,0,1,-3
1470344958925448,-5,-6,7,5,-4,-2,-4,-4
1470344958925448,5,2,-8,-3,-3,-2,-1,1
1470344958925448,-2,-2,-5,2,1,1,-4,-3
1470344958925448,0,1,-3,-5,0,-1,0,-1
1470344958948482,2,-9,2,3,0,-1,1,1
1470344958948482,1,-2,-2,6,-1,0,-2,-1
1470344958948982,-3,1,-2,-4,0,0,-1,-4
1470344958948982,3,-7,-3,-5,0,-3,-1,3
1470344958978557,-5,6,-7,0,-2,0,0,-1
1470344958978557,-3,13,4,2,0,-1,1,0
1470344958978557,0,3,-8,-12,-1,-3,-1,1
1470344958978557,-4,-14,2,3,1,0,-1,-4
1470344958985541,-2,7,1,1,-1,1,0,0
1470344958985541,4,-7,-11,-3,-2,-1,-2,0
1470344958985541,2,2,13,9,-2,-1,-3,-3
1470344958985541,-1,-1,-10,-2,-2,-3,-2,-2
1470344959008560,6,14,-9,-10,-1,0,0,0
1470344959008560,5,-7,11,0,-3,-2,-2,-3
1470344959008560,-24,-12,-14,-2,-1,0,-3,-1
1470344959008560,6,-1,8,2,0,-1,0,1
1470344959030636,-4,0,-2,-1,-3,-2,-2,-5
1470344959030636,2,3,-9,-9,0,-2,1,3
1470344959031582,4,3,9,7,-1,-1,0,-2
1470344959031582,-3,-8,-2,-3,-2,-2,-1,2
1470344959045102,-5,1,2,5,1,-1,0,-2
1470344959045102,-6,-4,2,-5,1,0,-1,-3
1470344959046104,4,-1,-7,-6,-2,-3,0,-4
1470344959046104,-3,3,1,-1,-1,-2,-1,0
1470344959068771,12,3,-6,0,-1,-2,0,-1
1470344959068771,-11,-14,-7,-1,-1,1,-2,-4
1470344959068771,-3,1,6,9,0,-1,-1,0
1470344959068771,-1,-10,-3,-17,-4,-3,-2,-4
1470344959090772,-1,16,4,-1,-2,-1,0,0
1470344959090772,2,-3,-1,-1,-1,-3,-1,1
1470344959091741,-4,-6,-8,-5,1,-1,-1,1
1470344959091741,4,0,-3,1,0,1,2,0
1470344959104799,-11,-5,8,2,-1,-1,-2,-1
1470344959104799,3,1,-4,-2,-1,0,-1,-4
1470344959105792,2,0,-2,-2,-1,-1,-2,-2
1470344959105792,-1,0,2,1,-4,-2,0,-1
1470344959127821,3,-4,-3,-2,0,-1,1,2
1470344959127821,-6,1,-9,-5,-1,0,-1,-2
1470344959128773,-2,-3,1,-1,-1,-1,1,-2
1470344959128773,5,3,18,13,-4,-3,-2,-5
1470344959150858,-1,-9,-4,-1,0,-2,-2,-2
1470344959150858,-3,-1,2,-1,0,-1,-3,-2
1470344959151371,0,-6,-8,-6,-2,-1,1,2
1470344959151371,-3,3,-1,3,-1,-1,-2,-1
1470344959165617,-7,-2,6,6,-2,-1,-1,1
1470344959165617,3,0,-5,-4,-2,-1,-2,-2
1470344959165617,3,-6,2,-2,-2,-1,0,-1
1470344959165617,-6,0,0,1,1,-2,0,-1
1470344959188559,8,-1,-4,0,-1,-1,-2,-2
1470344959188559,-15,-1,-2,-3,-2,-1,-1,-1
1470344959188559,-4,-1,-3,-2,-1,-2,0,-2
1470344959188559,-2,-1,-2,0,0,-1,0,-1
1470344959210634,0,6,-3,-4,0,-3,-1,-3
1470344959210634,5,-6,-11,-10,-1,-1,-1,-2
1470344959211581,-6,5,31,13,-1,0,-1,1
1470344959211581,3,2,-13,8,0,0,0,2
1470344959224592,-11,-5,3,2,-1,0,-1,-2
1470344959224592,1,1,-5,-1,-1,0,0,2
1470344959225592,-9,-2,-10,-5,0,-2,-2,-4
1470344959225592,0,-6,3,-18,-2,-1,-2,0
1470344959248621,4,6,7,11,0,0,0,-1
1470344959248621,6,-2,1,5,-3,-3,0,3
1470344959249123,-2,1,-13,-11,0,-1,-1,0
1470344959249123,1,1,2,1,1,-1,-1,-5
1470344959270148,2,0,5,-5,-2,-4,-1,1
1470344959270148,-5,-2,0,-2,0,1,0,1
1470344959277197,4,-4,6,10,-2,-3,-4,-1
1470344959277197,-1,3,-1,-2,-1,-2,-3,1
1470344959285214,0,-4,-5,-7,-1,1,0,4
1470344959285214,3,-5,2,8,-4,-2,-3,-7
1470344959286163,-5,7,-13,-21,-2,0,0,-2
1470344959286163,-2,2,2,-5,0,0,0,1
1470344959308235,13,-2,-3,-1,-2,-4,-3,1
1470344959308235,-13,1,9,-4,0,0,-1,-1
1470344959309180,4,-2,-8,21,0,1,1,0
1470344959309180,-3,-5,4,-21,0,-2,0,-5
1470344959330212,-5,-4,-14,6,-4,-2,0,-2
1470344959330212,7,6,1,-6,0,-2,-1,6
1470344959331199,-4,-5,4,3,0,-1,-1,-8
1470344959331199,-8,-5,-8,-6,-2,-3,0,3
1470344959345293,0,-3,-3,-14,0,1,-2,-10
1470344959345293,1,0,-4,14,-6,-1,0,2
1470344959345773,2,5,3,-4,0,-1,-1,4
1470344959345773,5,-4,-2,12,2,1,-1,-3
1470344959368326,-21,-5,-2,-3,0,0,-2,-2
1470344959368326,-4,-5,4,3,-2,-2,-2,-2
1470344959369314,-3,-2,-8,-14,-2,1,3,-4
1470344959369314,13,-4,9,8,-1,-2,-2,2
1470344959390331,-1,0,-1,7,2,2,3,1
1470344959390331,-2,-1,2,-2,2,-1,-1,-2
1470344959391331,6,4,-2,7,-6,-2,-3,3
1470344959391331,-7,-13,-8,-16,-2,-1,1,0
1470344959405383,4,10,10,4,-1,-1,-3,-4
1470344959405383,-1,-18,-6,-2,-2,-2,0,1
1470344959406346,1,1,4,-4,2,0,-2,0
1470344959406346,-5,-11,-13,3,-6,-4,-1,-3
1470344959428413,2,-2,0,-12,-2,0,-3,1
1470344959428413,5,4,4,2,1,-1,0,-2
1470344959429396,-2,-4,-4,-14,-1,0,-1,0
1470344959429396,-3,2,4,25,0,1,0,-2
1470344959450954,-2,4,-3,-1,-1,-2,0,2
1470344959450954,-3,5,9,-3,-1,-2,-2,-4
1470344959451891,4,-2,-9,-1,-2,-2,-1,7
1470344959451891,-9,5,-10,-8,2,1,-3,-8
1470344959465024,-3,-12,5,7,-5,-2,-2,-1
1470344959465024,-3,9,6,13,0,-2,-2,-3
1470344959466026,1,-1,2,2,-2,-2,-1,-1
1470344959466026,9,2,0,4,0,1,-1,1
1470344959488065,-13,-4,-19,-16,0,-2,2,2
1470344959488065,3,-2,4,-8,-2,0,-4,-3
1470344959489047,0,-2,5,5,-2,-2,-3,-3
1470344959489047,-10,10,-3,4,-2,-2,-1,-2
1470344959511065,5,5,-5,-4,0,-3,-4,1
1470344959511065,0,0,8,-3,1,1,3,1
1470344959511065,-1,-3,-14,8,0,1,0,-1
1470344959511065,12,-6,13,1,-3,-1,-5,4
1470344959525143,-10,-1,10,18,1,-1,-1,-2
1470344959525143,-3,0,-3,0,-1,-1,-1,0
1470344959526080,5,3,-6,-5,0,-2,-2,1
1470344959526080,-4,-9,1,-8,-1,-2,-1,-1
1470344959548637,7,4,-4,-9,-1,0,-2,0
1470344959548637,12,0,-3,-1,0,-2,-1,1
1470344959549140,-8,-5,-2,-1,1,0,0,-2
1470344959549140,2,3,-8,-4,0,0,2,3
1470344959570718,-1,-9,8,-1,-1,-2,-1,-1
1470344959570718,-2,21,-9,-6,-3,0,-1,-2
1470344959571719,-2,-3,2,-3,0,-1,0,1
1470344959571719,1,1,-2,-3,0,-2,-2,0
1470344959584823,-3,-7,-1,5,-2,0,-1,0
1470344959584823,5,-3,-5,-7,-2,0,1,3
1470344959592791,-8,-6,7,-2,-2,-3,-1,-4
1470344959592791,-4,9,-21,-10,0,0,-1,0
1470344959608769,12,-3,13,3,-1,-1,2,-1
1470344959608769,-5,-10,3,2,-1,-1,0,-3
1470344959608769,-6,-6,0,0,-3,-1,-2,-2
1470344959608769,-4,3,-1,-5,-2,-1,0,-4
1470344959646836,9,0,-4,-5,1,-1,0,0
1470344959646836,-16,-6,-1,4,0,-3,-1,-2
1470344959647337,2,2,-3,-17,-2,-1,0,2
1470344959647337,-5,2,2,19,0,0,0,-3
1470344959648838,-5,-3,-7,-10,-2,0,-1,1
1470344959648838,1,4,4,3,-2,0,-2,0
1470344959652385,1,-2,-5,-1,-2,-1,-1,0
1470344959652385,0,-3,-3,-5,-2,0,1,1
1470344959667861,-3,-2,14,5,-2,-2,-2,-6
1470344959667861,-2,-16,-6,0,0,-1,-1,3
1470344959668859,5,17,0,5,1,0,-1,0
1470344959668859,9,1,5,-10,-3,-1,0,-2
1470344959690895,-20,-6,-6,-3,-3,0,0,-2
1470344959690895,-1,-11,-9,-6,-3,-1,-3,1
1470344959691880,-4,-2,4,14,1,-1,-2,-3
1470344959691880,7,2,6,2,2,1,0,1
1470344959704893,3,0,3,-5,-2,-4,-1,-2
1470344959704893,2,4,-12,-9,-1,-1,0,2
1470344959719905,-5,-6,-7,-9,-1,-2,-2,-4
1470344959719905,-7,-1,14,12,-2,-2,-1,-2
1470344959727926,0,-1,-8,-4,0,1,-1,-2
1470344959727926,-3,1,1,0,-1,0,-1,-1
1470344959728913,9,0,-5,-3,0,-1,-1,1
1470344959728913,-8,3,8,0,-2,-1,-3,-5
1470344959750972,0,3,-16,-2,-1,1,1,5
1470344959750972,-1,0,7,-1,-2,-1,-2,-1
1470344959751453,-2,-14,-5,0,0,1,-1,-3
1470344959751453,-2,-5,-6,-18,-3,-5,-3,-4
1470344959764606,0,1,-4,3,2,-2,0,-3
1470344959764606,1,6,-8,-18,-4,-1,-1,-2
1470344959772675,3,-21,6,10,-2,-3,-1,1
1470344959772675,-1,1,0,-8,0,-1,0,2
1470344959788627,-12,-15,-12,-2,1,1,-1,-3
1470344959788627,1,1,15,10,-2,0,-1,-1
1470344959789629,-9,-2,-5,-8,-1,0,-1,-3
1470344959789629,1,0,-9,0,-2,0,2,2
1470344959810647,14,-1,2,-7,-5,-1,-3,1
1470344959810647,-2,-2,-1,12,1,0,1,2
1470344959812649,-9,-1,-2,-21,-5,-2,-3,-6
1470344959812649,1,1,-2,3,0,-3,2,5
1470344959824659,-8,5,-7,-1,0,0,-2,-8
1470344959824659,6,0,10,5,0,-2,4,2
1470344959833670,4,3,8,10,-2,-2,0,0
1470344959833670,-3,-3,-7,-3,1,-1,1,3
1470344959848693,5,-2,6,-3,0,-4,-1,-1
1470344959848693,-12,-9,-8,-6,-2,0,-2,-3
1470344959850190,-3,6,-1,2,-2,-1,-2,-3
1470344959850190,5,-4,0,-1,-2,-2,-2,-4
1470344959870213,-3,0,-1,-2,-1,0,1,1
1470344959870213,5,13,1,8,0,-1,-1,-3
1470344959872216,-3,-2,-4,-7,-2,0,2,6
1470344959872216,-4,-2,2,0,-2,1,-3,-7
1470344959884250,-2,3,-4,-2,-2,0,-1,-5
1470344959884250,1,-11,1,3,-3,-5,-1,2
1470344959893234,-3,1,-4,-2,1,0,1,-2
1470344959893234,-1,1,0,0,-1,0,-2,-1
1470344959908247,-1,-1,2,4,0,1,0,1
1470344959908247,-5,-5,-13,-7,1,-1,-4,-6
1470344959909249,-5,-1,-4,-6,-1,-2,-2,-3
1470344959909249,-3,-6,15,11,-1,-1,-2,-1
1470344959930295,3,1,5,6,0,-1,-1,-2
1470344959930295,2,-6,-11,5,0,0,1,3
1470344959932268,3,12,-8,-11,-2,0,1,4
1470344959932268,5,-7,7,-3,-3,-2,0,-6
1470344959953326,-11,-5,-1,11,0,-1,0,-1
1470344959953326,9,6,4,-18,1,-1,-1,2
1470344959954814,-3,-8,-11,13,-1,0,-3,-4
1470344959954814,-9,-5,-6,-3,0,-1,0,1
1470344959968368,7,5,4,3,-2,-3,-2,5
1470344959968368,-2,-13,1,-9,-1,-1,-2,-8
1470344959969361,4,18,7,18,0,-2,0,1
1470344959969361,1,-3,-7,-7,-2,-1,-1,1
1470344959990374,-2,-4,-2,-3,-2,0,-2,-3
1470344959990374,3,-6,-17,-6,-1,-2,0,0
1470344959997414,-2,-11,8,-3,-2,-1,-2,-8
1470344959997414,-13,2,-2,5,-1,1,0,1
1470344960013443,1,1,2,-3,-2,-2,-2,0
1470344960013443,-11,4,12,1,-2,-1,-1,-3
1470344960014395,17,3,-6,-4,-2,-2,1,4
1470344960014395,-3,-5,-1,-3,0,1,-2,-2
1470344960028425,-2,-7,-9,1,0,0,0,0
1470344960028425,0,11,-3,-10,-4,0,-3,-2
1470344960029409,-2,-8,1,0,0,-2,-1,0
1470344960029409,-4,-7,-1,3,2,0,0,0
1470344960050938,8,5,-3,1,-1,0,-2,-2
1470344960050938,3,0,-1,6,0,-1,0,-1
1470344960052435,0,-2,8,0,-2,-1,-2,-1
1470344960052435,-32,-3,-9,-19,-2,-3,-2,-4
1470344960073488,4,0,-2,0,1,0,-2,0
1470344960073488,-2,23,-1,4,-3,0,0,1
1470344960074459,2,-2,-1,-8,-1,0,-1,0
1470344960074459,14,-1,-1,3,-1,-3,-1,-3
1470344960087476,-4,-1,-8,-5,-2,-2,-3,0
1470344960087476,-5,-12,-3,-7,-2,-2,0,-3
1470344960094482,1,3,15,6,-2,-2,-2,4
1470344960094482,6,0,1,10,-1,1,0,-1
1470344960110521,1,0,-8,-12,-3,0,-1,1
1470344960110521,-5,-6,-3,2,0,-1,-1,-1
1470344960112494,7,-5,4,6,2,0,-1,4
1470344960112494,-27,-10,-11,-13,-3,-2,-2,-4
1470344960133585,5,-1,7,1,-1,-3,0,-1
1470344960133585,0,-2,-1,4,-2,-3,-2,-3
1470344960134513,-6,0,-9,-8,-2,0,-1,-2
1470344960134513,12,-13,-9,-2,0,0,-1,4
1470344960148074,-6,-5,5,-1,-1,-1,-2,-2
1470344960148074,2,2,8,4,2,0,1,0
1470344960154578,-3,-5,-13,-9,-3,-3,-2,-1
1470344960154578,7,5,1,3,-1,-1,-1,-1
1470344960170724,-2,2,4,0,-3,-2,-1,-5
1470344960170724,-5,-7,-13,-6,-2,-1,-2,0
1470344960172651,0,-3,16,7,-1,-1,-2,1
1470344960172651,3,6,-7,-17,-1,-1,-1,1
1470344960192710,0,-3,4,1,2,0,-1,-1
1470344960192710,-7,1,7,12,-2,-1,-1,-1
1470344960194672,-4,-6,-13,-8,1,-1,1,-4
1470344960194672,2,4,-6,3,1,-1,0,2
1470344960207738,-5,2,24,3,-3,-3,-1,-8
1470344960207738,7,-3,-13,-5,-2,-1,-3,-2
1470344960214689,-2,-3,-10,-1,-2,-1,-1,-1
1470344960214689,0,-6,14,7,-1,0,0,-2
1470344960230730,-3,-7,-10,-2,1,1,1,2
1470344960230730,0,-4,2,-3,-1,1,-1,-3
1470344960232750,3,5,-5,-12,-2,-3,-2,-1
1470344960232750,-13,0,5,5,-1,-1,-1,-5
1470344960253285,-6,-9,-17,-3,-3,-3,-2,0
1470344960253285,-8,10,9,-6,-1,-1,0,-5
1470344960254788,-1,-6,-10,5,-1,-1,-1,1
1470344960254788,8,6,7,-8,-2,-1,-2,-1
1470344960275868,2,7,1,10,-1,0,2,1
1470344960275868,-5,-12,-6,-12,-2,-3,-2,0
1470344960276812,-4,5,8,-3,-1,0,-2,-5
1470344960276812,6,0,-8,1,0,-2,-2,0
1470344960290827,1,-1,-6,-6,-1,0,-3,-2
1470344960290827,-1,-4,-1,6,0,-2,0,1
1470344960292826,-7,3,-2,-6,0,0,1,-3
1470344960292826,3,-2,2,2,-1,-1,-2,0
1470344960312848,-1,1,0,2,-1,0,-2,0
1470344960312848,4,0,3,2,1,-1,-1,1
1470344960314847,-4,-4,5,2,-2,-1,-2,0
1470344960314847,2,7,-6,3,-2,0,0,-2
1470344960327857,0,0,-4,-20,-1,-1,0,-1
1470344960327857,1,-1,1,5,-2,-1,-1,0
1470344960334865,-6,-5,-1,-1,-2,-2,-1,-5
1470344960334865,7,5,9,6,1,0,-1,2
1470344960350886,8,-1,-5,4,-2,0,0,-3
1470344960350886,-29,-4,-5,-16,0,-1,-2,0
1470344960352387,4,3,-1,-9,0,0,-1,2
1470344960352387,-2,-5,12,14,0,-1,1,-1
1470344960372914,1,0,-3,9,1,-1,-2,3
1470344960372914,5,-2,-1,-6,-1,0,-1,-1
1470344960374912,-3,-4,-7,0,-2,1,-1,-4
1470344960374912,-10,-4,-3,-11,-3,0,0,-3
1470344960387924,-1,-3,0,7,-2,-1,-1,-1
1470344960387924,7,1,4,3,1,-1,-1,1
1470344960393928,-7,-2,-1,2,0,-2,-3,-1
1470344960393928,7,2,-8,-5,0,0,0,1
1470344960410945,-4,0,3,9,-3,2,3,-2
1470344960410945,-5,-5,5,8,0,0,0,-3
1470344960411945,4,0,-2,9,-2,-2,-2,-3
1470344960411945,0,2,-1,-1,1,-6,-7,0
1470344960431963,-1,-7,-15,-12,0,5,-2,-2
1470344960431963,1,-14,11,2,-2,-1,8,2
1470344960440971,4,11,6,-3,-3,-1,-2,0
1470344960440971,-7,-13,-14,5,-2,-1,4,1
1470344960446981,0,-5,-5,-7,-1,-3,-9,-2
1470344960446981,4,5,-2,-11,-1,-1,-4,0
1470344960455990,1,-1,13,8,-1,0,-1,-1
1470344960455990,-2,-3,-9,-7,-4,-2,1,-3
1470344960471006,-6,4,3,-9,0,-2,0,-1
1470344960471006,2,1,-14,1,-2,-2,-2,-3
1470344960472006,0,-1,7,3,0,0,2,7
1470344960472006,3,3,-9,-5,1,-1,-2,-5
1470344960493026,0,-5,6,-3,-3,-1,-1,-6
1470344960493026,-24,2,-7,6,-1,-2,-2,-3
1470344960495029,3,1,4,0,0,-1,1,-6
1470344960495029,-8,-5,-2,-4,-2,-1,-4,-1
1470344960507071,-2,-3,-4,2,0,-1,1,2
1470344960507071,4,-4,5,-1,-2,-2,-2,-3
1470344960516047,1,14,-7,-7,-2,-3,0,3
1470344960516047,-3,2,2,-1,0,1,-2,-4
1470344960531089,-3,-6,-14,-6,-1,-3,0,1
1470344960531089,2,1,24,7,-2,-1,-4,-4
1470344960532063,-10,-9,0,4,1,0,-1,-1
1470344960532063,10,19,-8,-5,0,1,0,3
1470344960554091,0,5,2,0,1,-1,2,1
1470344960554091,3,-4,-10,-6,-2,0,-3,-3
1470344960555593,2,-7,-2,-4,0,-2,-2,-3
1470344960555593,-7,-9,11,2,-3,-3,-2,-1
1470344960567170,0,-1,0,-2,-1,-2,-3,-1
1470344960567170,-9,6,-4,2,-1,-1,-2,3
1470344960576179,5,-6,-5,-4,-1,1,1,-2
1470344960576179,10,2,-2,-1,-2,-2,-1,0
1470344960590192,-6,0,14,10,-1,-2,0,0
1470344960590192,6,0,-14,0,-1,0,0,1
1470344960592193,-4,-16,-7,-18,-1,-3,-2,0
1470344960592193,-5,-1,12,14,1,0,-1,-1
1470344960613245,2,0,-3,-17,-2,-3,0,-1
1470344960613245,4,0,-6,-4,-3,-3,0,0
1470344960614213,-5,-4,-9,-1,-2,0,-3,-1
1470344960614213,-2,-2,-1,-4,-1,1,2,-1
1470344960627223,2,-1,1,-1,-1,-1,-2,-2
1470344960627223,-2,-7,0,-2,0,-1,-2,-2
1470344960635245,-1,3,-6,-1,1,-2,-1,-1
1470344960635245,4,-1,0,-4,-3,-4,-1,-1
1470344960650792,2,-5,4,5,0,-2,0,2
1470344960650792,-18,-7,0,2,-1,1,-1,-3
1470344960652797,-4,1,-2,7,0,0,-1,-2
1470344960652797,1,1,-7,-7,0,-1,-1,1
1470344960673338,0,0,3,-4,-1,0,1,-1
1470344960673338,11,1,4,-1,-1,-1,-1,3
1470344960674305,-3,-3,2,3,-3,-2,-2,0
1470344960674305,-11,-2,-3,5,0,-1,0,-4
1470344960687315,-1,-1,-1,1,0,-2,-2,-6
1470344960687315,1,6,-9,-9,-1,-1,1,2
1470344960703332,-2,-5,-2,3,0,2,0,2
1470344960703332,6,-3,7,-3,-2,-1,-1,0
1470344960709336,-7,-1,-4,-3,-2,-2,-2,-4
1470344960709336,2,-2,5,4,1,0,-1,0
1470344960718343,3,-1,-8,-5,-2,0,-1,1
1470344960718343,-3,2,2,1,-2,-1,-1,-1
1470344960733445,-1,-2,-6,-5,-2,-1,-3,-1
1470344960733445,5,-1,5,3,0,0,-1,0
1470344960734359,-4,3,0,-3,-1,-1,0,-3
1470344960734359,-2,-5,-7,-1,0,0,-1,-3
1470344960746940,-6,3,9,1,-1,-1,-1,3
1470344960746940,6,3,-4,-3,0,-1,-3,-4
1470344960755917,7,2,5,-2,-1,-1,-1,1
1470344960755917,-9,-3,-6,-8,-3,-1,0,-4
1470344960770456,0,-10,-13,4,-1,-1,-1,-3
1470344960770456,-9,-5,13,1,0,0,0,-2
1470344960772459,-8,13,-4,1,0,0,0,-5
1470344960772459,10,2,0,-2,-1,1,-2,2
1470344960793563,7,0,-4,-5,-3,-3,-1,4
1470344960793563,0,-2,-12,-4,-1,-1,0,-2
1470344960794477,1,-2,1,-4,-2,-2,-1,0
1470344960794477,-3,-6,6,7,0,0,-2,-2
1470344960806536,-4,2,-2,-1,0,1,-1,-1
1470344960806536,12,2,-3,-2,-2,-3,-1,2
1470344960815501,-9,1,1,-8,0,0,1,4
1470344960815501,-5,-4,-11,4,-5,-4,-2,-3
1470344960830555,6,3,14,-4,0,-2,-1,0
1470344960830555,-5,-2,2,13,-2,-2,-1,0
1470344960832513,-7,-9,-5,-15,-1,-2,-1,-9
1470344960832513,-1,0,-8,-2,0,-1,-1,6
1470344960853579,-3,0,-1,-4,-2,-1,0,-3
1470344960853579,-2,-1,2,1,-1,-2,0,0
1470344960855088,-8,-8,-3,2,-2,-1,0,-2
1470344960855088,9,3,3,-1,-2,-2,-2,1
1470344960866663,-8,-1,-5,1,-1,-1,-1,-3
1470344960866663,2,2,-3,-7,0,1,1,1
1470344960875685,5,-3,-1,5,-2,-2,-2,0
1470344960875685,1,-1,10,-6,0,0,0,-1
1470344960890701,-4,-1,-3,4,0,-1,-1,3
1470344960890701,1,-1,-13,-9,-4,-1,-1,-4
1470344960892701,3,3,16,11,0,-1,-1,0
1470344960892701,-2,-5,1,0,-2,-2,-2,0
1470344960913681,-4,-5,-10,-7,-2,0,-3,-2
1470344960913681,4,0,-6,-2,-1,-1,0,0
1470344960914678,0,3,7,0,-1,-1,-2,0
1470344960914678,-2,-5,-6,-6,0,1,0,3
1470344960934697,-2,-3,3,4,-1,-1,0,-7
1470344960934697,-2,-3,-9,-3,0,-1,-1,-2
1470344960943706,-1,-3,-15,-12,-2,-1,0,0
1470344960943706,-7,1,7,2,-1,1,0,-4
1470344960950259,-3,-1,-2,0,0,-1,-3,1
1470344960950259,-2,-16,-4,-9,-2,-2,-2,-1
1470344960957223,-2,5,9,13,-1,-4,-3,0
1470344960957223,1,-2,-7,-4,0,0,-1,-2
1470344960973388,3,3,2,4,-1,-2,0,-1
1470344960973388,-3,-4,3,-11,-3,-2,-2,-2
1470344960974387,-1,-7,-7,6,1,1,-1,0
1470344960974387,4,-2,-6,-6,-1,0,-2,1
1470344960995420,-5,-2,0,0,-1,-1,-1,-3
1470344960995420,0,4,4,2,0,-3,-1,1
1470344960997407,4,9,-1,-1,1,0,1,0
1470344960997407,-1,11,11,7,-2,-3,-1,-4
1470344961010423,-21,-2,-2,-1,-3,-1,-2,-2
1470344961010423,-1,1,-3,2,0,-1,-2,0
1470344961012439,-5,-7,-2,-2,0,0,2,-7
1470344961012439,2,-3,-6,-5,-2,-1,1,2
1470344961033488,7,7,8,1,0,0,0,3
1470344961033488,0,0,-2,-8,-2,0,-2,0
1470344961034440,-16,-16,-2,4,-4,-1,-4,-4
1470344961034440,-2,10,-1,-13,0,-2,0,-2
1470344961056011,0,-3,2,2,1,-1,0,-4
1470344961056011,2,-1,-3,0,0,0,-1,3
1470344961057557,-2,-3,2,-2,-2,-2,-2,-4
1470344961057557,4,-8,-10,2,-1,-3,-2,1
1470344961069629,-2,-3,-7,-12,0,2,-1,-2
1470344961069629,-3,5,13,12,-3,-3,-1,-3
1470344961084630,5,5,-6,-1,-1,0,-1,5
1470344961084630,-11,-13,6,1,-1,0,0,1
1470344961093594,12,20,-11,-8,-1,-3,1,0
1470344961093594,-9,-3,-1,2,2,0,1,-2
1470344961094596,2,-1,3,-2,0,-1,-1,-1
1470344961094596,0,3,-4,6,-1,-1,-2,0
1470344961115643,5,-18,-3,-6,-2,-2,-4,-1
1470344961115643,7,0,1,-1,1,0,-1,0
1470344961117616,6,2,-6,-4,-1,-1,-2,-2
1470344961117616,-5,0,1,3,0,1,0,0
1470344961129670,0,-4,11,8,-1,-1,-3,0
1470344961129670,-5,-2,-3,2,0,-1,-1,2
1470344961136633,-5,-4,0,-1,-2,-1,-1,-4
1470344961136633,4,-3,-9,-7,-1,-1,-3,-2
1470344961153207,-1,4,-6,-5,-1,-1,0,3
1470344961153207,-2,3,6,2,-1,-1,-3,0
1470344961155197,2,0,-7,-5,-2,-2,-1,2
1470344961155197,-7,-3,2,4,1,0,2,-4
1470344961175778,-4,0,5,1,-4,-4,-1,1
1470344961175778,14,-9,-4,-3,0,0,2,-2
1470344961177775,-24,-5,-9,-7,-3,-1,-4,-3
1470344961177775,-5,3,2,3,1,-2,-1,-2
1470344961189846,-1,-2,-5,-4,-3,-1,-1,3
1470344961189846,-5,-6,4,2,0,0,0,-5
1470344961196793,12,1,-2,-5,0,-1,-1,3
1470344961196793,-4,-4,7,1,0,0,-1,-2
1470344961212830,4,1,-4,2,-1,-1,0,4
1470344961212830,-9,2,-5,-6,-4,-2,-3,-3
1470344961214809,8,-2,-4,-8,0,-1,-2,-4
1470344961214809,-9,8,-5,7,0,-3,-2,-2
1470344961235882,3,-3,8,9,0,0,1,1
1470344961235882,-4,1,-7,-11,-1,1,-3,-5
1470344961237829,-1,-4,0,-1,-1,-1,2,0
1470344961237829,5,-7,-5,-7,-2,0,-1,0
1470344961250442,-5,1,2,4,2,0,-2,-6
1470344961250442,-3,1,-5,3,1,-3,1,0
1470344961257449,0,0,8,2,0,-1,-2,-1
1470344961257449,2,4,0,-2,-2,-2,-1,3
1470344961273034,9,2,-11,-3,-1,0,0,0
1470344961273034,-7,-5,0,-5,-2,-2,-3,-2
1470344961275003,-18,8,-5,4,-1,0,0,-1
1470344961275003,9,-7,0,-5,0,-1,0,-2
1470344961296034,-7,-4,4,8,0,0,-1,-1
1470344961296034,1,2,-2,-3,0,-1,1,-2
1470344961297022,0,1,1,1,-1,-1,-1,2
1470344961297022,-4,4,0,-1,-2,-1,-1,-1
1470344961310033,-3,-1,-6,-4,-2,-2,-2,-2
1470344961310033,4,-8,0,2,-1,0,-3,-1
1470344961317095,0,-1,7,1,-1,-2,0,-3
1470344961317095,-1,-6,6,-2,0,-1,-1,-1
1470344961333059,5,-2,-2,-8,-1,-2,0,2
1470344961333059,-3,3,5,4,-1,1,0,-4
1470344961335057,5,-1,-6,10,-2,-1,-2,-1
1470344961335057,-5,2,-16,-25,-2,-2,-1,0
1470344961356151,-7,-9,4,-2,-3,-3,-3,-11
1470344961356151,5,-1,-5,1,-3,0,-1,3
1470344961357638,-8,2,5,2,2,0,0,0
1470344961357638,0,-1,-4,4,-2,-1,0,0
1470344961369916,-1,-4,0,2,0,1,0,0
1470344961369916,2,-2,-7,-11,0,-3,-1,-2
1470344961376883,-1,-4,-7,-3,-1,-1,0,-2
1470344961376883,-4,-8,13,3,-2,-2,-2,-2
1470344961392898,-8,11,-6,-4,1,-1,-1,1
1470344961392898,13,13,-1,2,-4,-2,0,4
1470344961394896,0,-4,-12,-8,-1,1,1,-2
1470344961394896,0,-5,10,6,-3,-1,-4,-1
1470344961415915,-1,-1,3,1,-2,-2,0,3
1470344961415915,-5,-4,-14,8,1,0,-2,-2
1470344961416915,3,11,-3,-19,-3,-1,1,1
1470344961416915,-2,-3,2,11,-1,0,1,-2
1470344961429955,1,-1,-12,-25,-2,-1,0,-3
1470344961429955,-4,3,9,8,1,-1,-1,-1
1470344961438934,0,-4,3,0,-2,-1,-2,4
1470344961438934,11,-1,-7,-2,0,-1,-1,0
1470344961453467,-12,-4,-4,2,-2,-1,-2,-4
1470344961453467,-7,-1,9,-2,-1,-1,-1,-2
1470344961454968,2,-10,0,-2,-3,-3,-3,-4
1470344961454968,-3,1,-1,-1,0,0,-2,0
1470344961475490,3,1,-9,-3,-1,-1,-2,-4
1470344961475490,-4,-3,4,0,0,-2,-1,0
1470344961477493,-1,-2,1,5,1,-1,-2,0
1470344961477493,1,-4,-6,1,-1,-1,0,1
1470344961489527,4,11,-2,-11,0,0,-2,1
1470344961489527,-23,-7,5,8,-1,0,-1,-5
1470344961498514,5,8,-3,-7,0,-2,2,-1
1470344961498514,-4,2,-2,10,2,0,-2,-3
1470344961513525,5,-6,-4,-2,-2,-2,-1,2
1470344961513525,1,-4,-1,-4,0,0,0,2
1470344961514525,-2,-7,-7,2,-3,-2,-4,-4
1470344961514525,-7,2,-3,-4,1,0,3,-8
1470344961535576,-6,-1,10,10,-1,1,1,2
1470344961535576,-1,-3,-5,12,-2,-1,-2,-3
1470344961537548,9,-6,2,-22,-3,-1,-3,0
1470344961537548,-2,4,-1,1,-2,-2,-3,1
1470344961549597,3,-4,2,2,-2,0,-2,-6
1470344961549597,1,-1,-10,2,-1,-1,0,1
1470344961558604,4,2,9,-4,0,0,-1,1
1470344961558604,-4,1,-5,-1,-2,-2,-1,0
1470344961573643,-3,-5,12,9,-1,-1,-1,-3
1470344961573643,2,0,-2,-12,-2,-2,-1,-1
1470344961574644,4,-6,7,16,3,0,2,3
1470344961574644,10,28,-17,-8,-3,-2,-1,0
1470344961595715,-13,-10,3,2,2,-1,-1,-2
1470344961595715,4,-6,0,-11,-2,-2,2,1
1470344961597680,2,3,-10,6,-1,-2,0,-1
1470344961597680,-17,-16,10,-14,0,-2,-3,-6
1470344961609677,4,2,-11,4,-1,-2,-1,-3
1470344961609677,-1,4,-3,-5,-1,-1,0,1
1470344961618683,-2,1,0,3,-2,-1,-2,0
1470344961618683,1,-8,-8,-11,-3,-2,-1,2
1470344961632698,-1,0,12,11,-3,-3,-1,-4
1470344961632698,4,-3,-6,-6,0,1,1,4
1470344961634700,-3,-2,3,11,-2,-2,-3,-5
1470344961634700,-14,-7,-7,-4,-1,0,-1,-2
1470344961663675,-3,1,5,-2,-3,-1,0,1
1470344961663675,7,6,3,-3,0,0,0,1
1470344961664681,3,-1,-2,1,-1,1,1,3
1470344961664681,4,4,6,2,1,-1,0,-2
1470344961669722,1,-12,-11,-8,1,-1,-1,4
1470344961669722,-4,-8,12,2,-1,-2,-2,-3
1470344961678689,-4,1,-3,2,-2,-1,-2,-2
1470344961678689,-1,-3,0,0,-1,-1,0,2
1470344961692701,-2,-5,-2,-6,-1,1,-2,0
1470344961692701,1,4,-2,1,-1,-2,-2,-2
1470344961694703,6,-1,3,3,2,2,-1,-1
1470344961694703,-21,-11,4,3,-2,-1,-3,-3
1470344961715771,4,1,-9,0,2,1,0,-1
1470344961715771,-1,1,-1,-3,-2,-2,-2,-1
1470344961717774,4,1,-7,-11,-3,-1,0,1
1470344961717774,-8,-2,4,10,-1,-2,-1,-3
1470344961729746,0,3,-2,0,0,-2,-1,-3
1470344961729746,-1,-4,2,-1,-2,0,-3,-3
1470344961738742,-11,-4,-7,-10,-1,0,1,-1
1470344961738742,12,-2,-3,-3,-1,-1,-2,1
1470344961753293,-5,1,9,2,-5,-3,-1,-4
1470344961753293,0,-3,-4,8,0,0,0,2
1470344961754797,-5,-10,5,-5,-2,-1,-3,-4
1470344961754797,7,17,-4,-6,-1,-2,0,0
1470344961775929,3,6,1,-4,-1,-2,1,1
1470344961775929,-1,-3,-6,-2,-1,-1,0,-2
1470344961776882,-5,-3,3,3,1,0,0,1
1470344961776882,-10,-9,6,6,-1,0,-2,-4
1470344961789921,8,5,-5,-15,-2,-3,-3,-1
1470344961789921,0,4,-4,-3,-2,-2,-1,1
1470344961797901,4,1,-23,-14,-1,0,-1,-2
1470344961797901,6,-3,33,20,-2,-1,-2,0
1470344961812917,-9,-5,-5,-2,-1,2,-2,-1
1470344961812917,1,-5,-10,-2,-3,-3,-4,-4
1470344961819921,-1,1,0,4,-3,-3,-2,-2
1470344961819921,5,-3,-10,-7,-1,1,-1,4
1470344961835988,0,3,3,7,-1,0,0,3
1470344961835988,-5,-10,1,1,0,-1,-1,-3
1470344961836937,-5,-4,-10,-12,-1,-2,-3,-1
1470344961836937,1,7,-7,-8,-3,-1,2,1
1470344961858510,-3,-6,6,14,-1,-1,0,-2
1470344961858510,0,-1,-1,1,2,0,0,-3
1470344961860013,-9,-2,9,4,-1,-1,-2,0
1470344961860013,18,-7,-8,-5,-1,-1,-2,2
1470344961873029,-8,0,-9,-8,-2,-1,-1,0
1470344961873029,-3,6,-18,-9,-1,-1,-1,0
1470344961875033,-2,3,29,13,1,1,-2,-4
1470344961875033,-2,1,-5,4,0,-2,-1,-4
1470344961896054,5,3,-7,-9,-1,1,0,1
1470344961896054,-8,-2,6,3,-1,0,-1,-1
1470344961897051,4,5,-4,-4,1,-1,0,1
1470344961897051,-3,-4,-13,-5,-2,-1,-1,-2
1470344961918125,2,-11,-3,4,0,-1,-1,5
1470344961918125,-5,1,9,5,-2,-1,-1,-5
1470344961920072,-3,0,5,4,-3,-2,-1,-1
1470344961920072,5,13,3,-2,-2,-1,1,1
1470344961933118,-6,-4,-13,-7,-1,-1,-1,-5
1470344961933118,6,2,13,2,0,0,-2,3
1470344961939090,-1,-2,-6,-3,-1,-2,-1,-1
1470344961939090,-3,-6,-2,-1,0,-1,-1,-2
1470344961956113,0,4,5,-4,1,-1,0,3
1470344961956113,0,1,2,4,-3,-4,-3,-7
1470344961957663,-25,-4,-11,0,-2,0,0,-5
1470344961957663,-3,-5,0,4,-2,0,-1,0
1470344961978231,3,2,-4,-1,-1,-1,0,0
1470344961978231,4,-2,8,4,0,0,-1,-1
1470344961980186,1,-3,-8,-8,-3,-3,-1,-1
1470344961980186,-8,-7,-5,-4,-1,-1,0,0
1470344961992249,5,4,5,7,-1,0,-2,0
1470344961992249,-10,-4,-6,-9,-1,-1,-2,-8
1470344961999199,5,2,2,-2,0,1,-1,2
1470344961999199,-1,-3,-2,-6,-3,-3,-2,-1
1470344962015272,0,-3,14,17,-1,-2,-2,-4
1470344962015272,2,0,-10,-5,-2,-1,0,6
1470344962017216,3,2,-3,0,-3,0,1,4
1470344962017216,4,-6,-11,-10,-1,1,2,1
1470344962038252,-6,-9,7,-3,-2,-2,-3,-2
1470344962038252,2,-1,-12,-2,-1,1,0,4
1470344962040311,-1,16,-2,3,-1,0,-3,-7
1470344962040311,-8,1,6,4,-2,-1,-2,-1
1470344962052753,-3,-4,-4,-6,-3,-3,-2,-4
1470344962052753,1,-1,-1,-9,-1,0,0,2
1470344962059773,5,-4,4,8,1,-1,1,1
1470344962059773,-6,-4,-7,-2,1,0,-1,-5
1470344962075332,6,2,-8,-5,-1,0,-3,0
1470344962075332,4,-5,15,2,-3,-3,-2,2
1470344962077299,-3,5,8,5,0,-2,-1,1
1470344962077299,-3,-4,-8,-5,-2,-3,-6,-4
1470344962098318,-6,-5,-10,-3,-2,-2,2,3
1470344962098318,7,4,-4,1,2,2,-1,1
1470344962099319,3,-5,3,2,-2,-1,0,4
1470344962099319,-2,-1,4,8,0,-1,-1,-4
1470344962112382,-3,0,-12,-6,-2,-1,-2,-1
1470344962112382,-4,0,0,-4,-1,-1,-2,-6
1470344962119392,-3,-4,-3,0,-2,0,-2,0
1470344962119392,3,0,5,-3,0,1,1,-2
1470344962143360,0,-1,-3,-6,-2,-1,-2,0
1470344962143360,-5,0,19,15,-2,-3,-1,0
1470344962144360,-3,-7,-4,-7,-2,-3,-3,-5
1470344962144360,8,-3,-13,-6,-2,1,0,1
1470344962158380,-2,-1,13,6,0,-2,0,-3
1470344962158380,-5,0,-6,0,-1,1,-1,0
1470344962159882,2,-3,-4,-11,-1,-2,-2,-2
1470344962159882,-3,-2,3,2,-2,-2,-3,-2
1470344962172404,-4,1,2,3,0,0,-2,-3
1470344962172404,3,-5,-8,-5,-2,-1,-3,0
1470344962179458,0,-4,-12,-3,0,-1,0,-3
1470344962179458,-4,3,0,-1,-1,-1,-2,0
1470344962195461,-6,-9,-1,-5,-2,0,-2,-5
1470344962195461,3,-4,-8,-14,-2,0,1,3
1470344962197421,-1,-4,14,26,-1,-2,-1,-2
1470344962197421,-3,5,1,-10,2,3,0,-1
1470344962218484,2,-7,0,3,-1,-2,0,-2
1470344962218484,-4,-3,-15,-6,-3,-2,-1,-5
1470344962219442,0,-2,6,-3,0,0,0,7
1470344962219442,1,-2,0,5,0,0,0,-3
1470344962231493,2,0,4,2,-1,-3,-2,-1
1470344962231493,2,0,-2,-5,0,-1,-2,0
1470344962240459,-20,-5,-7,-19,-2,0,-1,-4
1470344962240459,2,-3,1,6,0,-2,0,-2
1470344962256013,2,-2,-13,-10,1,0,-1,1
1470344962256013,4,8,19,5,-2,-3,-1,-2
1470344962257515,-1,4,-2,2,0,-2,-2,-1
1470344962257515,0,8,-13,-10,-1,-1,0,4
1470344962278558,-7,-5,5,-2,-3,-4,-1,-3
1470344962278558,-4,0,1,4,-1,-2,-2,0
1470344962279516,5,0,0,-4,-2,-1,-2,-4
1470344962279516,0,0,-4,-4,-3,0,-1,1
1470344962292572,6,16,6,8,1,2,-1,0
1470344962292572,-6,-7,-5,-3,-1,-2,-2,-2
1470344962299581,5,-2,-5,-7,-2,-2,-3,3
1470344962299581,-4,3,10,5,0,-1,-1,-4
1470344962315583,6,-6,-16,-6,-3,-4,-1,-1
1470344962315583,-22,2,-3,-3,1,1,0,-1
1470344962317550,3,-4,3,2,-1,-2,-2,-2
1470344962317550,2,-5,9,8,-3,-2,0,-1
1470344962338570,-3,1,-5,-11,-1,-1,-2,-1
1470344962338570,5,-2,-9,-12,-1,0,-2,-1
1470344962339574,-5,-9,8,6,-2,-1,0,-1
1470344962339574,1,-2,-2,3,2,1,-2,-2
1470344962352150,-1,4,2,1,-1,-1,0,-1
1470344962352150,-1,-1,-15,-7,-1,-2,-1,2
1470344962361149,5,3,5,3,-1,0,-1,-2
1470344962361149,0,-6,-2,-9,-3,0,-3,-3
1470344962376398,-1,2,4,8,1,0,1,0
1470344962376398,4,5,-6,-8,-1,-1,0,-2
1470344962377386,-2,-16,-12,0,-1,-1,-2,-2
1470344962377386,-2,2,0,-1,-3,-2,0,1
1470344962398455,-2,0,8,4,1,3,-2,-1
1470344962398455,-9,-5,5,10,-1,0,-2,0
1470344962399406,3,-1,2,-6,0,-1,-1,0
1470344962399406,0,0,-7,-1,-3,-3,0,0
1470344962411445,-4,-7,-8,-9,-1,1,0,2
1470344962411445,14,-3,6,12,-2,-3,-2,-3
1470344962420422,-11,4,3,-12,-1,-2,-1,-1
1470344962420422,-1,-4,-1,-1,0,0,-1,-2
1470344962435491,-2,0,-4,-4,-1,-2,-2,0
1470344962435491,3,0,-5,-4,-1,-3,0,0
1470344962437440,2,1,1,0,-1,1,2,0
1470344962437440,-3,-1,9,2,2,-2,0,2
1470344962458523,2,-6,-3,12,-4,-2,-3,-1
1470344962458523,-11,0,9,-6,-2,0,-2,-3
1470344962460023,3,3,-16,1,-1,0,0,0
1470344962460023,0,-4,-9,-14,-2,-2,-3,-3
1470344962471589,1,0,6,8,-2,-2,0,0
1470344962471589,-8,-2,9,6,0,-1,-1,-4
1470344962480580,0,4,-2,-1,-1,1,0,1
1470344962480580,-5,-6,-13,0,-4,-1,-2,-2
1470344962495627,5,-2,-5,-10,0,-2,0,-1
1470344962495627,-4,-1,4,-14,-3,-3,0,-2
1470344962497596,6,-1,-3,12,1,-1,-2,-1
1470344962497596,-5,16,11,1,2,1,0,-2
1470344962518672,3,-4,-6,-1,0,0,0,-2
1470344962518672,1,-10,-6,0,-1,1,-1,1
1470344962519615,-2,-4,-1,-1,-2,-2,-2,-4
1470344962519615,-3,-2,1,4,0,0,-1,0
1470344962531670,0,0,-4,-3,-2,-3,-3,-5
1470344962531670,4,-2,-7,-8,0,-2,1,5
1470344962540642,-2,1,12,4,-3,-3,-3,-5
1470344962540642,5,-4,1,4,0,-2,1,2
1470344962556197,-13,-2,3,-1,0,2,-1,-2
1470344962556197,8,1,0,4,-2,0,-1,0
1470344962557702,-6,0,-8,-10,0,-1,0,3
1470344962557702,-3,-6,-5,-1,0,-1,0,-5
1470344962577818,-3,6,12,7,0,-2,0,1
1470344962577818,-4,-6,-1,-1,-2,-2,-2,1
1470344962579776,7,12,-4,2,0,-1,1,-1
1470344962579776,-1,-9,-6,-7,-2,0,-2,-1
1470344962591827,5,0,7,-1,-3,0,0,6
1470344962591827,-6,2,5,9,-2,-1,-1,-6
1470344962600801,-2,-12,-5,-6,0,1,-1,0
1470344962600801,8,2,4,3,-2,-3,-1,3
1470344962615866,-15,1,-10,-7,-3,-2,-2,-3
1470344962615866,0,-1,-4,-1,0,1,0,2
1470344962617843,-5,-5,7,-1,-2,-2,0,-1
1470344962617843,-6,-2,-1,0,-1,0,-1,-5
1470344962637866,6,-4,5,1,0,-1,-2,3
1470344962637866,-4,-2,-7,1,0,0,-1,2
1470344962639830,0,4,-1,-5,-1,-1,-1,-1
1470344962639830,-2,-1,-7,-6,-1,-3,-1,-1
1470344962652401,1,-3,2,-6,-1,-2,-2,-3
1470344962652401,-2,2,5,7,-1,-2,-2,-3
1470344962660953,4,-1,-9,-8,-2,-1,-2,-1
1470344962660953,-3,-7,2,8,-2,-2,-2,-3
1470344962675498,-2,14,-1,1,0,-2,-1,-3
1470344962675498,1,-4,-15,-11,0,-2,2,1
1470344962677501,4,14,4,2,-1,-1,0,0
1470344962677501,-5,-12,-3,-2,-1,1,-2,-3
1470344962698520,-1,-6,-1,-1,0,2,0,1
1470344962698520,1,1,-3,-1,-2,-1,-1,-2
1470344962699521,-2,0,-6,-6,0,-2,-2,-2
1470344962699521,-2,6,13,2,-1,-1,-1,1
1470344962711535,8,-6,-9,1,-1,0,-1,0
1470344962711535,-13,-1,-7,-9,0,-1,0,-3
1470344962722540,0,-4,14,6,0,0,0,-3
1470344962722540,-4,4,0,8,-3,-1,-2,-3
1470344962734581,-3,-7,-10,-6,-2,-1,1,3
1470344962734581,4,-2,-1,3,-1,-2,-1,-3
1470344962741556,-3,-5,-10,-9,0,-1,1,1
1470344962741556,1,-2,1,-2,-1,0,0,1
1470344962758592,-2,1,0,-3,0,-1,0,-3
1470344962758592,0,-1,7,4,0,-1,-1,-2
1470344962760106,-4,-11,-4,0,-2,-2,-1,-2
1470344962760106,7,5,-17,-13,-1,-1,0,1
1470344962781159,-7,-8,0,3,-2,-3,-3,-4
1470344962781159,0,12,5,10,0,0,-1,-1
1470344962782104,-1,-16,-7,-12,1,-1,-3,-2
1470344962782104,-2,0,4,9,-2,-1,-1,-1
1470344962796121,1,3,3,-1,0,0,1,0
1470344962796121,0,-7,-6,-5,-1,-1,-2,-4
1470344962797118,-4,8,23,19,-4,-1,-3,1
1470344962797118,2,-2,-17,-20,-2,0,-1,0
1470344962818202,-1,-2,-9,-7,-1,-2,-1,-2
1470344962818202,3,-4,6,6,-2,-1,-2,-3
1470344962820139,-2,-1,-7,-2,0,-2,-1,1
1470344962820139,-6,-7,10,0,0,0,-2,-3
1470344962841158,0,-3,-5,2,-2,0,-2,-1
1470344962841158,5,0,-7,-9,-2,-2,-1,1
1470344962842159,3,4,-6,-1,-2,-1,0,-3
1470344962842159,1,2,2,0,-1,-1,0,1
1470344962855778,2,-5,-2,1,-1,-2,-1,-3
1470344962855778,-1,-2,-2,-7,-2,0,1,3
1470344962857734,-8,12,6,9,1,3,-2,-3
1470344962857734,-3,-4,-7,-3,-2,-2,-2,0
1470344962878305,2,-8,6,-1,-3,-2,-2,-4
1470344962878305,0,0,0,2,0,-3,-2,1
1470344962880283,11,7,-7,-4,0,0,1,0
1470344962880283,-24,-6,-2,-3,-2,-3,-1,-4
1470344962900309,2,3,-7,-7,-1,-1,-1,-2
1470344962900309,-1,-2,3,2,0,-1,-1,-2
1470344962902304,-1,-7,-3,-8,-1,0,0,0
1470344962902304,10,1,1,9,-1,0,-1,0
1470344962915322,-2,2,12,3,-1,-1,-1,-2
1470344962915322,1,0,4,1,-1,0,-1,0
1470344962917318,-3,-5,-1,3,0,-3,-1,-2
1470344962917318,0,2,-3,0,0,-2,-1,-1
1470344962938362,-13,-5,-2,-2,0,1,-1,-5
1470344962938362,0,-10,-5,-4,-1,0,0,-1
1470344962940337,1,7,0,-6,-3,-2,-1,0
1470344962940337,3,6,12,9,1,0,1,-1
1470344962960944,0,-2,-2,1,-1,-1,-2,0
1470344962960944,-3,6,-6,-9,-2,-1,0,-2
1470344962962387,-9,-10,-7,-5,-1,0,-1,-2
1470344962962387,5,-11,-6,-5,0,-2,-1,-1
1470344962975403,1,2,-2,0,0,-1,-1,-2
1470344962975403,-4,-3,-4,-7,0,-1,1,0
1470344962982409,-1,-2,14,12,-2,-3,-3,-1
1470344962982409,5,-1,-13,-6,-2,-1,-1,1
1470344962998481,-2,0,-1,-3,-2,-3,-1,-4
1470344962998481,8,-2,0,1,-1,-2,-1,2
1470344962999424,-17,-6,-12,-8,-2,-2,0,-1
1470344962999424,1,2,9,-3,-3,-2,-1,-2
1470344963020487,-2,5,-3,-2,-2,-1,-1,-2
1470344963020487,-2,-1,-3,-1,-2,-2,-1,-2
1470344963022446,0,-5,3,-2,-1,-1,-1,-2
1470344963022446,-5,13,1,6,1,0,-1,-2
1470344963035456,0,-7,-7,-9,0,0,1,2
1470344963035456,-4,-6,6,6,-1,-2,-2,-1
1470344963041517,1,-2,-8,-3,-2,-2,-1,-2
1470344963041517,0,-3,-3,-4,1,0,0,1
1470344963058538,3,6,5,-2,0,-2,-1,0
1470344963058538,-5,2,13,6,-1,-1,-1,-2
1470344963060041,0,-7,-8,1,-2,0,-1,-4
1470344963060041,6,-3,-1,2,-1,-1,-1,-1
1470344963080528,-2,-1,-3,-1,-3,1,0,-1
1470344963080528,-5,-1,-10,-2,-1,0,0,1
1470344963082484,-4,1,-1,-8,0,0,1,0
1470344963082484,-3,-2,9,4,-2,-2,-3,-4
1470344963095495,-5,-2,0,1,1,-1,0,3
1470344963095495,1,-2,-1,-2,-1,0,-2,-5
1470344963101542,6,0,-4,5,-1,-1,-2,0
1470344963101542,0,-3,-3,-5,1,-1,0,0
1470344963118516,1,-4,5,7,-2,-1,-1,0
1470344963118516,3,5,-5,-7,-1,0,-1,-1
1470344963119518,-2,-1,-3,-4,0,1,0,1
1470344963119518,-1,-1,-5,-5,-1,-1,-1,0
1470344963140575,-6,-10,4,4,-2,-2,-1,-2
1470344963140575,0,3,0,3,-1,-2,1,-2
1470344963142538,-3,-7,6,-5,-2,-2,-2,-2
1470344963142538,4,-1,-7,-1,-2,-1,-1,1
1470344963155557,2,1,-1,-5,-3,1,-3,-2
1470344963155557,-7,-9,-6,-3,-3,0,-1,-4
1470344963162062,9,2,0,0,-1,-1,-1,-1
1470344963162062,4,0,-3,-6,-2,-1,0,2
1470344963178300,-7,2,6,2,0,0,-2,1
1470344963178300,6,-2,-2,-6,-1,1,0,3
1470344963180302,-11,-2,8,11,-2,-2,-3,-5
1470344963180302,1,-1,-4,1,-3,1,0,0
1470344963200375,0,2,-9,-4,0,0,0,-3
1470344963200375,0,4,0,-2,-2,-1,-2,1
1470344963202323,3,-2,-1,-3,-2,-1,0,-1
1470344963202323,-6,-4,-10,-10,0,0,-1,-2
1470344963215388,-1,0,18,13,-1,-3,0,-2
1470344963215388,-4,0,3,2,0,-1,-1,1
1470344963222339,4,-15,-10,-5,-2,-2,-2,-2
1470344963222339,-6,5,0,1,0,-2,0,-4
1470344963238404,0,-4,-3,-4,-1,-4,-2,0
1470344963238404,5,0,-2,-1,0,0,-1,0
1470344963240357,-4,-1,-11,-5,-1,-1,-1,-1
1470344963240357,1,8,11,-4,0,1,0,1
1470344963260985,0,1,-11,4,0,0,-1,-1
1470344963260985,1,-5,9,3,-3,-3,-1,2
1470344963262432,-11,-2,-3,-3,2,0,-1,-1
1470344963262432,2,-1,-4,-1,-2,-2,-1,-1
1470344963275447,-7,-3,-5,-5,-4,-1,-1,-2
1470344963275447,0,2,1,0,-2,0,0,-1
1470344963281509,4,8,0,-3,-2,-1,0,1
1470344963281509,-6,-4,7,3,-3,-1,-3,-2
1470344963298469,7,4,1,1,1,0,1,0
1470344963298469,-3,-6,-2,-1,-1,-3,0,-3
1470344963299470,5,3,-12,-11,-2,1,1,4
1470344963299470,-1,1,10,4,-1,-3,-1,-5
1470344963320531,-6,-2,1,8,0,-2,-2,-3
1470344963320531,-3,-9,2,-3,-1,0,-1,-4
1470344963322491,4,1,0,6,-3,-2,-2,-1
1470344963322491,-7,2,-8,-2,-1,0,1,0
1470344963334502,5,0,-8,-9,0,0,0,-1
1470344963334502,-4,2,-7,-7,2,-1,-3,-1
1470344963343510,0,0,-2,-2,-3,-1,0,-2
1470344963343510,-3,-5,5,-1,-2,-1,-1,-2
1470344963358556,3,1,-8,-6,-3,-2,1,0
1470344963358556,-12,0,-4,2,0,0,0,-1
1470344963360057,1,-8,4,2,-1,0,1,-4
1470344963360057,-1,15,9,6,0,-1,-2,-1
1470344963380627,1,1,-6,-4,-1,0,-1,1
1470344963380627,1,-6,2,1,-1,-2,-2,-1
1470344963382620,5,-5,-5,-3,1,-1,1,1
1470344963382620,-11,-6,3,4,-1,-1,0,-1
1470344963394596,2,-5,-1,-1,-1,1,-1,-1
1470344963394596,3,8,-2,2,0,0,0,0
1470344963403603,0,1,17,6,-3,-3,-1,-2
1470344963403603,8,-5,-18,-3,0,0,1,3
1470344963418623,-9,-3,-7,-10,-1,-2,-1,-5
1470344963418623,-3,-6,6,3,1,0,0,-6
1470344963419617,-2,3,1,-1,-1,-1,0,1
1470344963419617,-5,-13,-3,-5,-3,-2,-1,-3
1470344963441637,0,-3,2,1,-2,0,-2,0
1470344963441637,-2,0,-9,-5,-1,-3,-1,0
1470344963442637,-4,5,-2,-1,0,1,-1,-2
1470344963442637,1,-3,-2,-1,-2,-2,1,0
1470344963454715,3,2,2,-3,-1,-2,-1,1
1470344963454715,1,-8,-10,-9,-1,-1,-2,-1
1470344963469285,0,11,24,19,-1,-1,-1,0
1470344963469285,-2,-5,-11,-6,-1,-1,-1,-1
1470344963478299,-1,-9,2,-3,-3,-2,0,0
1470344963478299,6,0,-11,-1,-1,-1,0,-1
1470344963480269,-17,-7,-5,-10,-2,-2,-2,-3
1470344963480269,2,0,-2,-2,-1,1,-2,0
1470344963501343,-2,3,2,0,-2,0,0,-1
1470344963501343,-1,1,3,-2,-3,-1,0,-1
1470344963502288,6,-7,-9,-2,-1,0,0,3
1470344963502288,-12,1,3,0,1,0,0,-5
1470344963514328,5,-1,-7,-3,-2,-2,-2,-1
1470344963514328,-3,0,3,5,1,-1,-1,0
1470344963523307,-7,-2,-1,-4,0,-3,-2,-1
1470344963523307,1,-4,-6,-5,-1,-1,-2,1
1470344963538375,0,3,-3,0,1,0,0,-1
1470344963538375,-6,-4,11,3,-3,0,-1,-1
1470344963540322,0,-5,-1,4,-1,-2,0,-2
1470344963540322,4,-1,-5,-5,-2,-2,-1,0
1470344963560847,-7,-4,4,1,0,0,-3,-3
1470344963560847,-2,0,-12,-5,0,-1,-1,2
1470344963562347,1,-2,0,-4,-1,0,0,0
1470344963562347,0,4,1,1,-3,-2,0,-2
1470344963574863,-3,-4,-4,-2,0,-2,-1,0
1470344963574863,-2,9,7,-1,-1,-2,0,0
1470344963582900,10,1,-14,-8,0,0,0,2
1470344963582900,-8,-4,5,2,1,-2,-1,-4
1470344963597887,-1,1,14,11,1,1,-2,-2
1470344963597887,11,2,-9,-4,-1,-1,-2,-1
1470344963599888,-11,-6,-3,-4,-2,-2,-2,-2
1470344963599888,9,10,0,-2,-1,-1,0,1
1470344963620953,-2,-1,-7,-8,-2,-2,-2,-1
1470344963620953,-3,-5,6,1,-2,-1,-1,-2
1470344963622906,2,1,-8,0,0,2,-1,-1
1470344963622906,3,-8,1,-1,-2,-1,-1,-1
1470344963634919,-3,3,4,3,-1,-2,-1,0
1470344963634919,-1,2,-8,-4,0,-2,0,0
1470344963642952,-2,-4,-5,-4,0,-1,0,0
1470344963642952,-3,3,14,9,0,-1,-3,-1
1470344963658544,-3,-6,-18,-7,-4,-3,-1,-1
1470344963658544,-1,-5,6,4,-1,-1,0,-1
1470344963660057,-2,3,0,-3,-1,0,0,-1
1470344963660057,-2,-7,2,-2,-3,-3,0,-2
1470344963680948,10,5,5,2,0,0,0,2
1470344963680948,-9,5,-8,-3,-1,0,-2,0
1470344963681895,3,0,-1,-2,-2,0,-1,-3
1470344963681895,0,-1,-1,-4,0,1,-1,1
1470344963694907,-7,0,-1,1,-2,-1,-2,-1
1470344963694907,11,-5,0,-3,-2,1,-1,-4
1470344963702917,4,-1,-1,-2,-1,-3,0,0
1470344963702917,-1,-2,-4,1,-1,0,-1,-1
1470344963717928,-5,-1,3,-3,-1,-2,0,0
1470344963717928,-1,-3,-1,-4,-1,0,1,-1
1470344963719930,-4,6,11,11,0,-1,-2,-3
1470344963719930,5,-9,-13,-9,-2,-1,-1,-1
1470344963740965,-2,-3,-2,-1,0,-1,0,-1
1470344963740965,-1,2,-11,-4,-2,-1,0,1
1470344963741950,-3,-4,2,-2,-2,0,-1,-2
1470344963741950,-4,4,8,7,-1,-1,-1,2
1470344963763639,3,-3,5,0,0,-1,0,-3
1470344963763639,-3,1,3,5,-1,-3,-2,0
1470344963764641,-2,0,-12,-13,-2,-1,0,0
1470344963764641,-1,-1,-2,3,-2,-2,-1,-1
1470344963778690,-1,-7,-1,-2,0,0,-1,-4
1470344963778690,-2,-6,-7,3,-2,-2,-3,1
1470344963779654,-1,6,13,6,1,-1,-2,-2
1470344963779654,-3,3,-3,-6,0,-2,-1,-1
1470344963800685,1,2,2,0,1,1,0,0
1470344963800685,5,-8,0,-3,-1,-1,-1,-1
1470344963802751,6,0,1,-3,-3,-2,-2,0
1470344963802751,-8,-7,-4,-6,0,-1,0,-2
1470344963823693,1,5,-1,6,-2,-2,-1,0
1470344963823693,-6,-4,-4,-9,-3,0,-2,-3
1470344963824694,2,0,9,-10,-2,-2,-2,0
1470344963824694,-2,-11,-20,-8,-3,-1,-3,-1
1470344963838707,-4,-2,-4,1,-4,-2,-1,-2
1470344963838707,0,-1,2,-2,-1,-1,0,-1
1470344963839708,-3,-4,-17,-3,-1,0,-1,1
1470344963839708,-6,-2,22,3,-2,0,-2,-1
