timestamp,emg1,emg2,emg3,emg4,emg5,emg6,emg7,emg8
1470345171734324,-1,-5,-3,8,2,0,-1,-1
1470345171734324,-2,0,-13,-12,0,-1,-2,-2
1470345171735824,2,-3,-7,6,1,0,-2,0
1470345171735824,1,6,1,-2,0,0,-1,-1
1470345171748337,-3,-6,2,0,0,-2,-1,-1
1470345171748337,-2,-3,6,3,-1,-1,0,0
1470345171755348,-2,-5,-14,-2,-2,-3,0,-1
1470345171755348,5,-1,-2,-3,-2,0,-1,0
1470345171771362,-4,-1,-12,-6,-3,0,-1,0
1470345171771362,-5,-11,-6,-6,-2,1,-1,-1
1470345171772363,0,-6,25,2,-2,-1,-1,-1
1470345171772363,-4,-5,-5,2,-2,-1,1,0
1470345171793382,-2,-2,-22,-1,-1,-2,0,-1
1470345171793382,7,6,22,6,1,1,-1,0
1470345171795383,-11,-6,-2,-3,-1,-2,-1,-2
1470345171795383,-3,-2,5,5,-1,0,-1,-3
1470345171808395,-1,5,-5,-5,-1,-2,-1,-3
1470345171808395,0,-14,-4,-5,-1,-1,0,-2
1470345171814401,5,5,-9,-2,5,1,1,0
1470345171814401,-2,1,14,7,0,-1,-3,-1
1470345171831416,-1,1,-24,-16,-5,-2,-2,-1
1470345171831416,-2,0,12,13,-1,-1,0,-2
1470345171832418,1,1,-6,-13,-3,1,-1,0
1470345171832418,-6,1,-1,-6,0,-1,0,0
1470345171853456,7,-7,-4,8,3,0,-1,-2
1470345171853456,-22,1,1,-9,-4,-1,-2,-3
1470345171855459,0,-2,9,-1,-1,-2,-2,-1
1470345171855459,6,-2,-11,1,-3,-2,-3,-3
1470345171868469,-6,3,11,5,-1,-1,-1,0
1470345171868469,5,0,-12,-14,-1,-2,-2,-1
1470345171874474,0,-5,-3,-2,-3,0,-1,-2
1470345171874474,1,10,1,-2,-1,-2,0,0
1470345171891490,-2,3,-9,-6,1,0,0,-1
1470345171891490,5,-1,11,10,-2,-1,-2,0
1470345171892491,-13,-2,1,6,1,-2,-1,-3
1470345171892491,-2,-4,-1,-6,-2,1,0,0
1470345171913511,-1,-2,-12,5,2,1,0,-2
1470345171913511,-1,2,2,2,0,-2,-1,0
1470345171915511,1,1,-9,-3,-3,-3,-2,0
1470345171915511,-2,-2,-13,-3,0,-1,-1,-2
1470345171927523,0,-4,9,-3,-2,-2,0,0
1470345171927523,-2,3,8,2,-1,-2,-1,0
1470345171935035,4,-3,-12,1,1,1,0,-1
1470345171935035,-5,0,-3,-5,-2,0,1,-1
1470345171951075,-1,-3,4,3,-3,0,0,-2
1470345171951075,3,-8,-16,-5,-4,-1,-1,-1
1470345171953076,-4,3,9,-1,0,-2,-2,-1
1470345171953076,4,-2,2,7,0,-2,-2,0
1470345171974094,-4,-3,-6,-3,-4,-2,-2,-2
1470345171974094,-3,1,3,-2,-1,0,0,0
1470345171975096,4,2,-6,-5,-2,0,-1,0
1470345171975096,0,-4,5,-7,0,-1,-1,0
1470345171988109,-5,-7,-5,-5,-1,-1,-2,0
1470345171988109,8,3,-3,3,-2,-2,-2,-2
1470345171995115,-1,-1,-2,-9,-3,-2,0,-2
1470345171995115,-1,1,14,13,2,0,1,0
1470345172011127,-2,3,9,-1,2,-1,-2,-2
1470345172011127,-4,-4,-10,-5,0,-2,0,0
1470345172013129,-3,-5,5,-6,0,-1,-1,-2
1470345172013129,-4,-4,-13,7,-4,-2,0,-2
1470345172034148,2,3,2,1,-1,1,-1,0
1470345172034148,-1,-4,-7,-5,0,-1,-2,-2
1470345172035659,1,4,3,2,-2,-2,-2,0
1470345172035659,-2,-3,-2,-2,1,0,-1,0
1470345172047670,2,-3,3,-4,-1,-3,-1,-2
1470345172047670,-1,12,19,6,0,0,-1,0
1470345172056684,-5,-6,-24,-2,-4,0,-1,-1
1470345172056684,0,0,5,1,-1,-1,-1,-1
1470345172071696,1,1,6,2,-1,0,0,-1
1470345172071696,-5,-4,-20,-13,-3,-3,0,0
1470345172072698,3,3,16,-5,1,1,0,-1
1470345172072698,2,0,-12,-7,-2,-1,0,1
1470345172093719,-7,-4,-5,-7,-1,-2,-1,-2
1470345172093719,-3,-2,9,6,-1,-2,0,-2
1470345172095719,-4,0,-1,7,0,-2,-3,-1
1470345172095719,-2,-9,-5,-19,-3,-1,-2,0
1470345172107731,3,5,7,2,0,-1,0,-1
1470345172107731,-2,-4,-7,-1,-1,1,-3,-2
1470345172116737,-2,-3,-1,1,-1,0,1,0
1470345172116737,-2,2,6,1,-1,-1,-1,-1
1470345172130750,-1,-1,-5,0,-1,-2,-2,-1
1470345172130750,4,-2,0,-1,0,1,-1,-1
1470345172132752,-16,-2,-2,6,-3,-2,0,-1
1470345172132752,0,-2,-13,-6,-1,-1,-1,-2
1470345172153784,-2,-2,-1,0,-2,-1,0,0
1470345172153784,2,0,-1,3,2,0,0,-1
1470345172155785,9,0,2,-3,-6,-1,2,2
1470345172155785,-5,1,6,8,6,3,1,-2
1470345172167796,-1,-2,0,1,-1,0,-1,-2
1470345172167796,-2,2,-6,-6,-1,-3,-2,-3
1470345172176805,4,-2,0,-5,2,1,-2,0
1470345172176805,-12,-21,20,13,-6,-4,-1,-3
1470345172190819,1,0,-10,0,1,1,-1,-1
1470345172190819,-3,0,-3,-6,-2,1,1,-1
1470345172192820,0,-13,-8,-2,-1,-7,2,-1
1470345172192820,-1,15,-7,-7,-1,4,0,-2
1470345172213840,-2,-3,2,-11,-3,-1,-2,-1
1470345172213840,-2,7,2,5,-3,-2,-1,0
1470345172215840,-3,-15,19,4,0,-1,-1,-1
1470345172215840,6,0,-24,2,1,-4,-3,0
1470345172227851,0,-3,4,6,-2,-2,1,0
1470345172227851,-2,1,-12,-8,2,1,0,-1
1470345172236367,-1,-2,4,2,-1,-1,-2,-2
1470345172236367,-1,2,1,-5,-1,-2,-1,1
1470345172250886,1,9,8,-4,1,0,-2,-1
1470345172250886,-5,-25,-7,6,0,-3,-2,-2
1470345172252888,0,14,-4,2,-1,1,-2,-1
1470345172252888,0,-3,7,-6,1,-1,0,-3
1470345172273908,2,-2,-19,-14,-5,-2,-1,0
1470345172273908,-1,3,3,7,-1,-1,1,1
1470345172275910,-2,0,6,-8,-2,-2,-4,-3
1470345172275910,0,-4,-13,-4,-2,-1,0,-1
1470345172286918,2,-2,16,6,-4,0,-2,-1
1470345172286918,-2,4,-5,-2,1,0,-1,-2
1470345172295927,-2,-8,-30,-9,-2,-1,-1,-3
1470345172295927,0,-11,16,4,-3,-1,-2,-2
1470345172310940,-1,2,0,0,2,-3,-1,0
1470345172310940,1,-10,5,2,-2,-1,-2,-2
1470345172312942,0,24,-6,-5,2,1,0,1
1470345172312942,-6,-9,4,1,-2,0,-3,-2
1470345172333964,2,-9,-19,3,0,1,1,1
1470345172333964,4,14,8,-6,2,2,1,-1
1470345172335472,-13,-5,-9,3,-2,-2,0,-2
1470345172335472,2,6,1,-9,-2,-1,-2,-1
1470345172347482,-3,9,8,-2,-3,0,-2,-1
1470345172347482,-2,-23,-17,-2,-2,-3,-1,0
1470345172356568,7,23,14,3,-1,-1,-1,0
1470345172356568,-2,-2,-9,-4,1,-1,-1,-2
1470345172371578,-6,-4,-3,3,0,-1,-2,1
1470345172371578,0,-1,-4,-2,-4,0,-1,0
1470345172372580,1,-9,-19,-15,-3,0,-1,-2
1470345172372580,0,0,10,17,-3,-4,-2,-1
1470345172393600,1,-2,-8,1,1,0,0,-3
1470345172393600,-5,-6,4,-8,1,1,0,-2
1470345172395601,2,0,-4,6,-1,-1,0,-2
1470345172395601,-1,-6,-12,-12,-5,-3,0,-2
1470345172407618,-3,-2,-5,-2,-1,-2,1,-3
1470345172407618,1,10,17,1,-2,-1,-3,2
1470345172416620,0,-19,3,3,0,0,-1,-1
1470345172416620,-6,-12,-22,-11,-5,-2,-1,1
1470345172431632,-2,10,12,8,1,-2,1,-1
1470345172431632,4,2,8,2,0,-1,1,2
1470345172432633,3,-1,-14,-9,-2,-3,-3,-7
1470345172432633,-9,7,25,10,0,-1,-1,-5
1470345172454081,4,-9,-25,0,-2,0,-2,0
1470345172454081,-2,8,6,-1,-2,-2,0,6
1470345172455082,3,4,12,7,1,2,1,-4
1470345172455082,-3,-6,0,10,-1,-1,-1,-3
1470345172467093,-3,-3,10,-12,-1,-1,-2,-2
1470345172467093,-1,-4,4,-7,-1,-1,0,-1
1470345172476100,-1,7,-29,-3,-2,-2,-1,2
1470345172476100,5,12,-5,-3,2,1,1,3
1470345172491114,0,9,17,0,-1,0,-1,-4
1470345172491114,-5,-7,-17,-2,-2,-4,-1,-5
1470345172493116,-3,-8,13,7,0,-2,0,1
1470345172493116,2,5,10,8,-2,-1,-2,-3
1470345172514135,0,-4,-15,-5,0,1,2,3
1470345172514135,-1,-4,-10,-19,-5,-4,-2,-1
1470345172515137,-1,-4,16,21,-1,-1,-1,0
1470345172515137,4,20,-2,-15,1,1,0,2
1470345172536661,-1,-16,-3,1,-2,-3,0,2
1470345172536661,-2,2,-7,-9,-1,-2,-3,-6
1470345172538162,-3,-8,-9,3,0,0,-1,-3
1470345172538162,2,-3,14,3,0,0,-1,5
1470345172550750,-3,5,-2,1,1,-1,-3,-5
1470345172550750,-1,5,17,10,-2,0,-1,-1
1470345172552752,3,-2,2,-2,-1,-1,-2,4
1470345172552752,1,-8,-23,-10,1,0,-1,-4
1470345172573771,-3,3,21,21,-4,-3,-1,-1
1470345172573771,1,-4,-9,-11,-1,-1,1,1
1470345172575773,3,0,6,-5,1,0,0,0
1470345172575773,-2,-3,-12,-6,0,0,1,1
1470345172595790,-5,-14,-4,-2,-3,-2,0,-1
1470345172595790,3,3,2,19,-1,0,-3,-4
1470345172597792,-18,-13,-10,-19,-1,-2,-1,-4
1470345172597792,11,12,2,-10,-4,0,-2,-1
1470345172610804,-2,-12,-3,-6,1,-2,-2,1
1470345172610804,0,-2,17,13,-1,-2,-3,-4
1470345172612806,-3,-12,-14,-5,-4,-1,2,5
1470345172612806,1,-6,15,13,0,0,-1,-2
1470345172633827,-10,-8,-20,-16,-2,-3,-2,-5
1470345172633827,2,-8,3,4,1,0,2,1
1470345172635333,1,-5,-6,-10,-4,-2,-1,2
1470345172635333,-6,0,-7,0,-4,-3,-1,1
1470345172656358,6,-14,14,0,0,1,0,1
1470345172656358,-4,11,-6,-7,0,-2,-1,-1
1470345172657358,-2,-1,31,26,0,-2,-3,2
1470345172657358,-3,-13,-14,-14,-3,-2,-1,-4
1470345172670372,1,12,0,-2,1,0,-1,0
1470345172670372,2,-11,-17,1,0,1,0,9
1470345172677379,-10,21,11,-15,-3,0,-1,-8
1470345172677379,-1,-2,-11,8,1,-1,-2,-11
1470345172693391,-4,2,10,6,0,0,0,3
1470345172693391,-1,-4,-9,-7,-2,-1,-2,-5
1470345172695393,5,-3,-18,-10,-1,-1,-1,4
1470345172695393,-2,2,15,13,0,-1,-1,0
1470345172717413,-1,5,10,-3,-2,-2,-1,-3
1470345172717413,-3,2,-12,0,-1,0,0,2
1470345172720415,1,4,10,6,-2,0,-2,-3
1470345172720415,-4,-3,9,-12,1,-3,-1,1
1470345172730427,2,-4,-11,0,-3,0,-1,0
1470345172730427,2,7,7,3,-1,0,-1,-2
1470345172737440,5,9,9,0,1,1,0,-2
1470345172737440,-7,-19,-18,-2,-2,-2,-2,0
1470345172753954,0,1,-12,-4,-2,-1,-2,0
1470345172753954,-2,3,25,0,0,-2,-3,-4
1470345172755455,1,-6,8,10,-1,0,0,1
1470345172755455,-1,29,21,11,1,0,-1,0
1470345172776474,-2,-4,-18,-2,-1,0,-1,0
1470345172776474,5,-1,-10,-10,-2,0,0,-2
1470345172777975,-15,-15,1,2,1,1,-1,-2
1470345172777975,14,-2,1,1,0,-1,1,2
1470345172790988,-20,-3,-19,-20,-6,-4,-1,-7
1470345172790988,-4,0,3,8,1,0,-1,-1
1470345172797493,12,3,-3,11,-2,-2,0,0
1470345172797493,-1,-2,0,-10,-2,0,-2,1
1470345172814007,8,-1,-1,-1,1,0,-2,-3
1470345172814007,-12,-16,-19,-6,-5,-2,-2,-3
1470345172815508,-5,23,18,1,0,-3,-2,-1
1470345172815508,-4,-7,-14,5,0,-1,-1,-4
1470345172836603,14,12,9,4,3,0,0,2
1470345172836603,-8,6,0,1,-1,-1,0,0
1470345172838606,3,2,-4,-13,0,-1,-1,-3
1470345172838606,-6,-5,-9,3,0,-1,1,-3
1470345172850615,0,3,9,-1,0,-2,-3,-2
1470345172850615,-3,1,10,4,0,0,-1,-2
1470345172857620,-3,-8,-16,-8,0,-1,0,-1
1470345172857620,0,-1,-8,-5,-2,-2,-1,1
1470345172873635,-5,-3,8,-2,-2,-3,-1,-1
1470345172873635,2,-7,-8,-3,0,-1,0,-2
1470345172875637,3,-2,4,5,-2,-4,-3,-2
1470345172875637,-4,-2,0,-8,0,-1,-1,-1
1470345172896657,-2,-2,-15,-8,-3,-1,0,0
1470345172896657,-1,-3,16,16,2,-2,-2,-3
1470345172897656,0,-20,-2,-5,-2,-1,-1,-1
1470345172897656,-2,6,2,12,-1,-1,0,1
1470345172910668,5,-7,0,-5,-4,-1,-1,1
1470345172910668,-15,0,-10,-6,0,0,0,0
1470345172917682,-4,-7,-4,-5,4,-1,1,-2
1470345172917682,6,-8,-7,-8,-2,-1,-3,-1
1470345172934201,5,-7,-1,-3,2,-1,0,3
1470345172934201,11,19,13,1,-2,0,-1,2
1470345172935204,-11,-3,-8,-5,-4,-4,-1,-4
1470345172935204,1,-7,-11,-4,-3,-1,-1,1
1470345172956220,1,6,-6,3,2,0,1,-3
1470345172956220,-13,-6,-10,-6,-1,-2,-2,1
1470345172958223,3,4,12,8,-3,0,-3,1
1470345172958223,0,5,8,-4,-1,-3,-2,-6
1470345172970234,-4,-13,11,-2,-1,-2,-1,-3
1470345172970234,5,-19,-17,-1,-1,-2,-1,-2
1470345172977242,-3,1,7,-1,0,-1,0,2
1470345172977242,-5,-1,-23,-4,1,0,1,-4
1470345172994259,-2,-1,-5,4,-1,-2,-1,-1
1470345172994259,3,-1,0,-11,-1,1,0,0
1470345172995257,-7,-5,-5,1,-2,-1,-3,-7
1470345172995257,0,-3,11,1,0,0,-1,7
1470345173016307,-1,12,1,4,1,0,-1,-5
1470345173016307,2,-3,-4,-5,-4,-3,-2,-4
1470345173018307,1,0,9,5,-2,-3,-2,1
1470345173018307,-4,1,-18,-3,-1,-1,0,-2
1470345173030318,-5,-4,4,-4,-3,1,-3,-2
1470345173030318,-3,1,0,-2,-3,-3,-1,1
1470345173039096,5,-12,-16,-1,1,1,-1,-2
1470345173039096,-3,-1,24,-6,0,-1,0,0
1470345173054127,-7,-8,22,21,-2,-2,-1,-2
1470345173054127,1,10,2,1,1,-1,-1,-3
1470345173056071,-1,-13,-13,-17,-2,-1,-1,2
1470345173056071,1,2,-13,-2,-1,0,-1,0
1470345173076135,-2,4,5,1,0,0,-2,1
1470345173076135,-3,-24,-8,-3,-2,-1,-1,-2
1470345173078082,2,5,11,7,-1,1,0,-2
1470345173078082,-2,-2,-10,-10,-2,0,0,0
1470345173090148,1,1,-1,-2,-1,-2,-1,-3
1470345173090148,0,2,-6,-6,-3,-4,-1,0
1470345173099102,4,9,0,-2,-2,-1,0,-2
1470345173099102,0,-12,6,1,-1,-1,-1,0
1470345173114132,-1,12,-8,-6,0,-1,-1,1
1470345173114132,1,2,5,7,0,-2,-2,-3
1470345173115623,-1,-2,-5,-3,-1,0,0,5
1470345173115623,0,6,10,4,-2,1,0,-2
1470345173136173,-4,-7,-10,-3,0,-1,-2,-2
1470345173136173,-6,1,-3,-4,-1,3,0,0
1470345173138203,10,8,3,-1,-3,-2,-2,-1
1470345173138203,-6,-6,-12,-1,-2,-4,-3,-2
1470345173159191,-3,0,-2,-2,-1,-1,-2,0
1470345173159191,-2,-8,0,0,-2,-1,0,-4
1470345173160192,-3,6,1,7,0,0,-2,-1
1470345173160192,2,2,2,-2,1,0,-2,2
1470345173174205,2,-3,-33,-1,0,0,1,-2
1470345173174205,0,-1,3,-1,-2,0,0,1
1470345173175206,-1,-5,12,-1,-1,-2,-1,-2
1470345173175206,-1,2,-12,-4,-3,-1,-2,-1
1470345173196279,-3,-4,8,1,0,0,-1,-2
1470345173196279,3,3,0,-7,-2,-1,0,-1
1470345173198227,-3,-1,-18,4,0,0,-1,-1
1470345173198227,-1,-3,17,5,-1,-2,-1,0
1470345173210253,-5,2,-13,-10,-1,0,0,1
1470345173210253,6,2,3,4,0,-1,-2,-2
1470345173219249,-2,8,5,-6,-2,-1,-2,0
1470345173219249,2,3,-9,3,1,-1,-1,0
1470345173234268,-2,-3,3,-9,-2,-2,-1,-2
1470345173234268,-1,1,27,7,1,-1,-1,0
1470345173235271,7,-10,-20,-1,-5,-2,-4,-4
1470345173235271,-16,-4,1,-2,-1,-2,-1,-2
1470345173256321,5,-1,-3,-3,-2,-1,0,2
1470345173256321,0,1,-16,-5,-3,-1,-3,-1
1470345173258289,0,-6,9,-5,-1,0,1,1
1470345173258289,0,6,-12,0,-2,-1,-1,-5
1470345173270299,0,-4,18,3,-1,1,-2,-2
1470345173270299,-5,-1,-23,-4,1,0,0,-1
1470345173279308,-4,-1,12,3,-2,-1,-2,-1
1470345173279308,2,-4,-5,-3,-2,-1,0,0
1470345173293336,-2,3,10,3,-3,-3,0,-1
1470345173293336,0,-8,-13,-4,0,-1,0,-1
1470345173295323,-6,-2,-10,-9,-1,1,1,0
1470345173295323,0,-2,37,11,-1,-1,-1,-1
1470345173316350,-1,-4,8,6,1,-1,1,-2
1470345173316350,-2,-1,-13,-6,-3,-2,-3,0
1470345173318350,-7,-6,-17,-11,1,1,-1,-4
1470345173318350,2,3,-9,-2,-1,-1,0,0
1470345173330360,0,-1,3,-5,0,-2,-3,0
1470345173330360,-3,3,6,6,-1,-2,0,-2
1470345173339375,-5,-1,0,2,1,-2,1,-1
1470345173339375,3,0,0,-4,0,-1,-1,1
1470345173353445,2,6,2,4,2,0,1,1
1470345173353445,2,4,14,-3,-1,-1,2,-5
1470345173355389,2,-6,-11,0,-1,-1,0,3
1470345173355389,-4,9,14,2,-1,-3,-2,-7
1470345173376421,-2,0,-16,-2,-3,-2,-2,1
1470345173376421,0,-4,0,-3,-1,-2,-2,-1
1470345173377410,-1,-1,2,-2,-2,0,-3,0
1470345173377410,0,-6,-10,-6,-1,0,0,-1
1470345173389454,-3,-3,-3,-9,2,0,0,0
1470345173389454,0,3,31,13,-6,-4,-4,-4
1470345173398486,-11,1,2,6,0,-1,-2,0
1470345173398486,2,-4,-10,-3,0,-2,-1,1
1470345173413473,-6,2,-7,-2,-2,-1,0,-2
1470345173413473,1,-10,-10,-8,-1,0,1,1
1470345173415483,3,3,4,-3,-1,0,0,-3
1470345173415483,-1,-1,-2,0,-1,-1,-1,-1
1470345173436616,3,-5,3,-1,-1,-2,-1,0
1470345173436616,-4,-9,-5,-1,1,0,-1,2
1470345173437569,-2,-2,-2,1,0,-2,0,-2
1470345173437569,-2,-4,-3,-1,-2,1,0,2
1470345173458602,4,-1,-1,2,-2,-1,-2,-4
1470345173458602,-5,-3,-29,-17,-1,-2,-1,-2
1470345173460605,-4,2,56,18,-2,-2,0,1
1470345173460605,3,14,-27,4,-2,-2,-1,0
1470345173473601,-9,-4,-22,-12,-3,-1,-2,-3
1470345173473601,-2,1,6,3,0,-1,-1,1
1470345173479625,2,-2,-20,-14,0,-1,-2,0
1470345173479625,-1,-6,16,0,-1,-1,0,0
1470345173496675,-2,-1,2,5,-1,0,-1,0
1470345173496675,4,7,-7,-2,-1,0,0,-2
1470345173497624,3,6,-5,-3,-2,-1,0,0
1470345173497624,-6,-13,5,1,0,-1,-1,-1
1470345173519149,0,3,-3,1,1,-1,0,-1
1470345173519149,-2,-2,5,2,-1,0,-2,-1
1470345173520703,-1,-2,-5,-1,-1,-1,-2,-2
1470345173520703,-2,-2,-5,-5,-3,0,-2,-1
1470345173533486,-2,-3,3,0,-1,0,-1,-2
1470345173533486,0,3,4,3,1,0,1,2
1470345173535484,-1,12,-14,2,-1,-1,-1,3
1470345173535484,7,-9,1,-5,3,0,-1,-3
1470345173556506,-2,-7,-2,-5,1,-1,-1,0
1470345173556506,-1,-3,7,8,-2,-2,-2,-2
1470345173557504,-11,2,1,1,-1,0,-2,-4
1470345173557504,-2,-4,3,2,0,-1,0,0
1470345173578564,3,6,9,5,-2,-2,1,0
1470345173578564,2,-2,-11,-7,0,-1,0,1
1470345173580562,0,-7,-8,-6,-3,-1,-2,-2
1470345173580562,-2,0,7,1,-4,-2,-2,-1
1470345173592575,-1,-4,-1,0,-3,-1,-3,-1
1470345173592575,-4,-3,-4,-2,-3,-2,0,0
1470345173601543,5,-2,-3,-2,-2,-1,0,0
1470345173601543,-7,-9,-6,0,-2,-2,-2,-3
1470345173616620,2,3,-7,-10,0,-2,1,-1
1470345173616620,-3,3,16,6,-1,0,-1,0
1470345173618623,1,-4,-3,1,0,-2,-3,-6
1470345173618623,5,-2,-17,-9,-2,0,0,-1
1470345173638716,-11,-22,-3,9,-1,-3,-3,-1
1470345173638716,5,8,-13,-7,-3,-2,-2,-1
1470345173640689,-19,13,-4,-3,-1,-1,-1,-1
1470345173640689,-3,0,2,-5,-1,-1,-1,-1
1470345173652715,0,-3,8,-2,0,-2,0,-3
1470345173652715,1,-2,-2,2,0,0,0,0
1470345173659663,3,-11,-12,-10,-1,-3,0,-1
1470345173659663,-4,1,-7,-4,-2,-1,-1,-1
1470345173676681,3,9,9,4,0,1,-1,0
1470345173676681,-4,-4,12,5,-2,-2,-1,-2
1470345173677679,9,4,11,5,0,-2,2,2
1470345173677679,-2,-3,-4,2,0,-1,-1,-2
1470345173698729,2,1,0,-2,-1,-2,-2,-2
1470345173698729,-4,-2,-17,-11,-2,-1,0,1
1470345173700702,-1,-10,-5,-4,-1,1,-1,-1
1470345173700702,3,3,5,2,0,-2,-2,-1
1470345173712766,-1,-2,2,1,-3,-1,-1,-2
1470345173712766,-7,1,1,-4,2,-2,-1,-2
1470345173720222,2,-4,-2,0,-3,-1,-1,0
1470345173720222,-2,-8,-14,-8,-1,1,0,-1
1470345173736844,-3,2,11,1,-1,1,-3,-4
1470345173736844,-1,7,7,13,0,0,1,-1
1470345173737823,11,-19,0,-7,0,-1,-1,0
1470345173737823,-29,-5,-9,-7,0,-1,-1,-4
1470345173765849,9,10,13,9,-1,-2,-1,-1
1470345173765849,-3,-4,-8,-4,-1,-1,0,1
1470345173767852,1,0,-3,-2,-2,-3,-2,-2
1470345173767852,5,3,7,2,0,0,0,0
1470345173772855,-5,0,-13,-7,-2,0,1,-2
1470345173772855,2,-5,15,7,2,-1,-1,-5
1470345173779890,-4,9,8,3,0,0,-1,0
1470345173779890,2,0,3,0,-2,-2,-2,0
1470345173796884,-3,4,-5,-1,-2,1,1,0
1470345173796884,1,-11,5,-7,-3,-2,-1,-1
1470345173797877,-4,-4,-20,-7,-2,-2,0,-3
1470345173797877,3,6,16,10,-1,0,-2,1
1470345173818995,1,-2,0,-1,0,-2,-2,1
1470345173818995,4,-1,-9,-2,1,0,-2,-3
1470345173820438,-7,1,-13,-5,-1,-2,-1,-2
1470345173820438,2,1,21,3,1,-2,0,0
1470345173833006,-3,3,-4,-3,-1,-1,-1,-1
1470345173833006,-3,-7,-7,-3,-2,1,-3,0
1470345173840057,0,-2,0,4,-1,-1,-1,1
1470345173840057,6,10,-9,0,-1,1,-1,0
1470345173856056,1,-6,4,-4,-3,-1,-2,-1
1470345173856056,-3,1,-9,-9,-1,-2,-1,0
1470345173858064,0,5,10,2,-1,2,-1,-3
1470345173858064,-1,-10,-4,0,-1,-2,-2,-1
1470345173879075,3,14,-9,-3,0,1,1,0
1470345173879075,-3,5,3,0,0,0,-1,1
1470345173880048,-5,-13,-3,-3,-3,-2,-1,0
1470345173880048,0,5,2,-1,-2,-2,-1,-3
1470345173893116,-6,-2,4,0,-1,-1,0,0
1470345173893116,0,-2,1,1,-2,-1,0,-1
1470345173900125,0,5,7,8,0,-1,0,1
1470345173900125,0,-7,-14,-5,-1,-1,-1,-1
1470345173916679,-1,-5,-3,-2,-1,-1,-1,-1
1470345173916679,0,3,-12,-11,-3,0,-2,1
1470345173918087,2,-4,16,9,0,0,0,0
1470345173918087,-5,0,-3,0,-1,0,-1,-2
1470345173939155,-4,-5,-1,2,-1,0,-1,1
1470345173939155,-1,-2,-5,1,-2,-1,-1,-1
1470345173940165,1,5,1,-10,0,-1,1,1
1470345173940165,-1,-6,-15,-5,-3,-3,-2,1
1470345173952170,5,-4,11,6,-1,-1,-1,-2
1470345173952170,-5,-2,7,2,-1,-1,-1,0
1470345173961176,-3,7,1,-4,0,0,0,-2
1470345173961176,-1,-13,4,2,-2,0,0,0
1470345173976201,-5,-6,-7,-4,-1,-2,0,-1
1470345173976201,-1,-14,7,-3,-1,-1,-2,-1
1470345173978208,8,2,-6,-1,-1,-2,-1,-1
1470345173978208,-21,2,-18,-12,-2,-1,-1,-3
1470345173999210,3,-2,12,8,-1,-1,-3,-1
1470345173999210,-1,3,5,2,0,-1,1,-2
1470345174000211,-3,-3,-21,-3,0,1,-2,1
1470345174000211,6,1,-2,-5,-2,-1,-1,2
1470345174012286,-3,-1,-15,-9,-2,-3,1,-4
1470345174012286,-3,4,4,3,-2,-1,-1,-1
1470345174021733,-3,-7,6,-1,-1,-3,-3,-1
1470345174021733,3,2,-1,1,0,0,0,-2
1470345174044386,-6,0,-2,5,-1,0,0,-1
1470345174044386,3,1,-25,-9,0,-1,0,1
1470345174045314,-1,-2,11,4,-3,-2,-2,-2
1470345174045314,1,-6,15,3,-1,0,-3,-1
1470345174059360,-7,5,1,-4,-1,1,-1,1
1470345174059360,1,-2,-22,-6,-3,-2,-1,-1
1470345174060327,-6,-7,-1,-11,-2,1,0,-2
1470345174060327,4,8,15,17,-2,-3,-3,-2
1470345174072393,-3,-6,-19,-1,-2,0,-2,-1
1470345174072393,0,1,1,-1,-1,0,-2,-1
1470345174081345,-4,2,2,1,-1,-1,0,-1
1470345174081345,1,-3,2,-4,0,-1,0,1
1470345174096415,-1,-9,-17,-5,-1,-1,-1,-2
1470345174096415,-5,4,3,0,-2,-2,1,-3
1470345174098437,6,-6,3,1,-1,0,-2,-1
1470345174098437,-2,4,4,2,1,0,0,-1
1470345174118907,3,-2,13,1,0,0,0,1
1470345174118907,0,0,4,3,1,0,1,0
1470345174120389,-1,-4,-29,-12,-4,-1,-3,-5
1470345174120389,3,0,6,-4,-3,-2,2,1
1470345174131943,1,3,8,3,-2,-3,-3,-1
1470345174131943,-5,-2,-9,-6,-2,-1,-1,-2
1470345174141333,1,2,-3,4,0,-1,1,1
1470345174141333,-3,0,0,-1,0,-1,-2,-2
1470345174156367,0,-1,7,-2,-1,-1,-1,0
1470345174156367,1,-5,-1,0,-1,-1,-1,0
1470345174158343,-1,2,1,0,1,0,-2,-1
1470345174158343,-2,-5,-11,-6,-2,0,-1,0
1470345174178382,-2,-5,-1,5,0,-1,0,0
1470345174178382,-3,0,18,1,-1,-1,-2,-1
1470345174180363,-3,0,1,1,-1,-1,0,-2
1470345174180363,1,11,2,-3,-1,-1,1,-1
1470345174192380,2,2,-10,-4,0,-1,-1,-1
1470345174192380,-2,-8,12,0,-1,-1,-1,-2
1470345174201384,-1,-2,-9,-5,0,0,-1,0
1470345174201384,-1,3,-15,-6,-2,-1,-2,-1
1470345174216399,0,-7,-15,-12,-2,0,-1,1
1470345174216399,3,8,34,22,0,-3,-3,-3
1470345174217907,-7,-9,-11,-2,-1,-1,0,-1
1470345174217907,0,-4,-6,1,-1,0,-2,-2
1470345174238465,2,5,-14,-11,1,-2,1,1
1470345174238465,-1,-1,12,3,-1,0,-3,-1
1470345174240432,-1,-1,-5,-2,0,-2,1,-1
1470345174240432,1,-4,8,5,1,-2,-1,1
1470345174252441,-7,-5,0,-5,-4,-2,-1,0
1470345174252441,2,1,-46,-15,-2,-1,1,2
1470345174261482,-3,16,24,4,-2,-2,-1,-10
1470345174261482,-4,-17,8,0,-1,0,-3,-4
1470345174276553,-1,1,-20,-3,-1,0,-1,-3
1470345174276553,-3,-12,2,-2,0,-2,1,3
1470345174277481,2,-5,-4,0,-1,1,1,8
1470345174277481,0,0,7,-6,-3,-4,-2,-7
1470345174298510,0,0,14,6,-1,-1,-4,-6
1470345174298510,-2,-3,-9,-3,-2,0,-2,-5
1470345174300485,0,-3,-10,-6,-2,-2,-1,6
1470345174300485,-5,6,7,11,3,1,3,0
1470345174321599,4,-6,8,1,-2,-1,-1,-1
1470345174321599,-5,0,-5,-4,1,0,-1,-3
1470345174323045,-1,3,-2,-6,-1,0,-2,0
1470345174323045,1,3,-5,-5,-2,0,1,2
1470345174336395,-3,10,1,4,1,-2,-1,1
1470345174336395,0,-6,-9,-6,-1,-1,-1,-3
1470345174337344,2,-3,15,12,1,-2,-3,-4
1470345174337344,-3,1,-10,-2,-3,-1,-2,-1
1470345174358371,-1,-5,0,-1,2,1,0,1
1470345174358371,1,2,-2,-5,0,-1,0,0
1470345174360361,-4,-2,-1,7,-3,-3,-2,-3
1470345174360361,0,-4,-16,-16,-6,-2,-2,-3
1470345174372427,-2,-3,5,-3,0,-1,-1,-2
1470345174372427,1,-1,-3,-8,-1,-3,-4,-2
1470345174381380,-2,0,6,10,0,0,0,0
1470345174381380,9,-4,-1,1,-1,-2,1,1
1470345174396436,-1,-3,-1,-19,-4,-1,1,2
1470345174396436,-21,-1,12,5,-1,-1,-2,-5
1470345174398505,0,-3,-2,-6,0,1,0,1
1470345174398505,-3,-1,2,7,2,1,-1,0
1470345174420925,9,-5,-3,-2,-2,-2,-1,1
1470345174420925,-8,0,4,4,-2,-3,0,0
1470345174420925,1,-1,-10,-10,-1,-1,-1,0
1470345174420925,-3,1,6,-2,1,-1,-1,-1
1470345174440951,-4,0,-16,1,-1,2,0,-1
1470345174440951,9,-9,5,-1,-2,-1,-1,-1
1470345174442952,-2,2,10,16,-1,-3,-1,-2
1470345174442952,5,1,-12,-9,-2,-1,-2,1
1470345174455964,-25,-2,-3,-7,-1,-3,-1,-3
1470345174455964,4,2,-11,2,1,0,0,3
1470345174457965,3,-4,-2,2,-4,-2,-2,-2
1470345174457965,-3,-1,0,-14,-2,0,-1,-2
1470345174478999,13,3,-6,0,4,3,0,1
1470345174478999,-3,1,18,4,-1,0,-1,0
1470345174479983,-10,-6,-12,-9,0,0,1,-1
1470345174479983,2,1,5,21,2,0,-1,0
1470345174501005,-6,-15,6,-1,-4,-4,-4,-5
1470345174501005,9,1,-15,12,-3,-2,0,0
1470345174503005,1,2,11,-28,-1,-2,-2,1
1470345174503005,5,3,-11,-5,0,-1,1,1
1470345174516018,-17,-4,-2,0,0,-1,0,-3
1470345174516018,10,-3,11,10,0,2,-1,0
1470345174518026,10,-2,-1,-1,-6,-4,-1,0
1470345174518026,8,6,-7,-5,1,-1,-1,0
1470345174539065,-17,-3,4,8,-3,-2,-2,-2
1470345174539065,12,-10,18,9,3,1,1,1
1470345174540049,-10,6,-18,-10,-1,2,0,-3
1470345174540049,6,7,14,5,-1,-1,-1,1
1470345174561136,5,-2,-1,2,1,1,0,2
1470345174561136,-5,-12,-35,-17,-3,-2,-3,-3
1470345174563122,11,-7,-2,-7,-1,-1,-1,-4
1470345174563122,-8,-6,-1,15,0,1,-1,-1
1470345174576082,-17,1,16,-11,-5,-5,-5,-5
1470345174576082,-8,1,-2,-15,-2,-3,-3,-1
1470345174582089,-3,6,-12,2,0,0,0,1
1470345174582089,-5,-3,3,5,-3,-3,-2,-3
1470345174599102,20,4,-2,12,0,-1,-1,1
1470345174599102,-1,3,2,-9,-2,-1,-1,-1
1470345174600105,-26,-15,3,5,-1,-1,-3,-4
1470345174600105,-5,-3,10,-5,1,-1,0,1
1470345174621630,12,-4,-23,-18,-2,-2,-1,1
1470345174621630,-2,13,2,23,0,-1,-1,-3
1470345174623132,0,2,-3,-2,1,1,-1,2
1470345174623132,-10,-7,23,4,-2,-3,-3,-5
1470345174635147,5,-1,-2,8,1,2,1,-1
1470345174635147,-5,5,-5,-16,-3,-2,0,0
1470345174642154,-13,-7,4,2,-2,-3,-4,0
1470345174642154,25,1,2,1,0,-1,0,0
1470345174659173,-22,-4,-8,-8,-4,-1,-2,-6
1470345174659173,-4,-3,-5,-5,1,2,0,0
1470345174660170,9,9,8,5,-1,0,0,0
1470345174660170,-8,-12,-15,-6,0,-1,0,-1
1470345174681189,7,5,6,-4,-3,-4,-1,3
1470345174681189,14,2,-4,-6,1,-2,-2,-5
1470345174683192,-40,-8,25,17,-3,-1,-1,-7
1470345174683192,-7,3,-4,9,0,-1,0,1
1470345174696214,14,-9,6,-5,1,3,3,3
1470345174696214,-14,-3,-20,-12,-2,1,-1,1
1470345174702208,40,3,-1,2,1,-1,1,4
1470345174702208,-36,1,0,-10,-1,-2,-3,-11
1470345174719228,-1,-4,3,7,-1,1,2,2
1470345174719228,4,-10,8,-2,-2,-2,0,1
1470345174720767,-4,7,-14,-6,0,-2,-1,-3
1470345174720767,17,0,-1,1,-1,-2,-1,2
1470345174740945,-7,-10,0,-4,-2,-2,-3,-6
1470345174740945,0,14,-25,-10,-1,-3,0,-1
1470345174742922,6,-2,24,7,-4,-3,-3,-3
1470345174742922,3,4,-7,-1,-1,1,1,1
1470345174755961,5,0,-6,5,0,-2,-2,-1
1470345174755961,3,1,2,-3,0,-2,0,4
1470345174761940,1,-1,-25,-12,0,0,-1,-4
1470345174761940,-5,-1,-2,-6,-3,0,0,2
1470345174778987,-3,2,-4,2,-1,-1,-1,0
1470345174778987,-8,-4,20,1,0,0,-1,-4
1470345174779955,3,4,-8,1,-1,1,-1,1
1470345174779955,-1,-13,-7,-5,-1,-2,-2,1
1470345174800974,1,5,1,4,-1,0,-2,-2
1470345174800974,-3,-2,-4,2,-1,0,0,0
1470345174802976,0,-7,7,0,-1,-1,0,1
1470345174802976,-3,0,-2,-4,-1,-2,-2,-2
1470345174824018,7,0,-1,-3,-2,-2,-2,0
1470345174824018,-1,-2,3,6,-1,0,0,-3
1470345174825502,1,-3,-7,-4,0,1,1,0
1470345174825502,-13,-5,0,2,-3,0,-2,-3
1470345174838524,9,8,8,6,-1,-2,-3,1
1470345174838524,-4,-15,-10,-20,-3,-4,-5,-4
1470345174840524,4,2,5,-4,-2,1,0,-1
1470345174840524,4,1,-9,-2,2,2,2,4
1470345174861591,0,3,15,3,2,1,0,-3
1470345174861591,-6,1,4,11,2,1,1,0
1470345174862546,-2,-5,-14,-1,-6,-4,-5,-2
1470345174862546,-2,4,9,-5,-1,-2,-2,1
1470345174875586,-1,-4,-20,5,-2,-2,-1,-2
1470345174875586,1,7,7,5,0,1,2,-2
1470345174882559,-2,-10,-12,-7,2,-1,0,3
1470345174882559,0,-5,2,5,-1,0,-1,-7
1470345174898573,0,5,1,-4,-2,0,-2,1
1470345174898573,2,-2,0,2,-3,-1,-1,0
1470345174901577,-3,-2,-5,-8,0,1,0,-4
1470345174901577,-3,-1,-6,-2,1,-2,-1,1
1470345174921605,0,-1,14,13,0,-1,-1,-2
1470345174921605,-8,-6,-10,6,-2,-2,-3,-3
1470345174923607,2,5,-3,-8,0,-2,-2,3
1470345174923607,2,3,-6,-14,-2,1,1,4
1470345174934625,-2,-4,-10,10,-2,-1,-1,-6
1470345174934625,-16,-4,18,10,-1,-5,-4,-5
1470345174944632,7,-1,9,9,1,1,1,3
1470345174944632,-1,-3,-10,4,0,-1,-2,-8
1470345174958646,-2,-1,-15,-2,-2,0,0,3
1470345174958646,7,-2,5,-18,-1,0,0,-1
1470345174960647,-6,0,17,26,-3,-4,-1,-4
1470345174960647,4,7,-6,-3,-2,0,-1,2
1470345174981666,-1,-6,-8,-21,-3,0,1,5
1470345174981666,2,7,-1,2,1,0,-4,-14
1470345174982673,1,-3,-2,-8,-2,-1,-1,6
1470345174982673,2,-9,0,0,0,-1,-1,-5
1470345174994711,-13,-2,4,8,-3,-3,0,-1
1470345174994711,6,-6,-24,1,-3,1,-1,1
1470345175003685,-10,4,9,-29,-1,-1,-2,-1
1470345175003685,0,-2,7,1,-3,-3,-3,-7
1470345175019237,6,4,6,-9,0,1,-1,-1
1470345175019237,-3,0,1,1,-3,0,1,8
1470345175020743,-7,-2,-14,-3,0,0,1,13
1470345175020743,6,-1,0,10,-4,-1,-2,-5
1470345175041762,-6,1,6,-5,1,-3,0,-1
1470345175041762,1,4,2,0,-2,-2,-1,-1
1470345175042763,5,0,2,0,-5,-2,-3,-3
1470345175042763,-23,-2,-6,-4,0,0,0,1
1470345175054776,-1,-5,10,2,-2,-3,-1,-2
1470345175054776,0,2,0,1,0,0,-1,0
1470345175063810,5,-2,7,-5,0,-2,1,-4
1470345175063810,-2,1,-2,3,-2,-2,-2,5
1470345175078814,-4,-8,-1,-1,-2,1,-2,-9
1470345175078814,2,26,-6,-7,0,-1,0,2
1470345175080797,1,1,12,3,0,1,-2,-6
1470345175080797,0,-3,3,-1,1,0,-1,0
1470345175100818,3,3,-31,-16,0,-1,-1,-1
1470345175100818,-12,-10,28,11,-1,-2,-1,-3
1470345175102817,9,8,-11,6,-1,-1,0,-3
1470345175102817,-21,1,-13,-8,0,-2,-3,-7
1470345175114855,2,1,18,-3,-1,-1,-1,2
1470345175114855,-1,-6,-18,-6,-2,1,-1,-3
1470345175124343,-1,-3,20,8,-1,-3,0,-1
1470345175124343,6,1,7,4,-2,-2,-2,-7
1470345175138559,0,10,-12,2,-2,0,-1,-1
1470345175138559,1,-10,-1,-7,-2,-1,1,1
1470345175140483,-5,0,8,4,1,-1,-1,-7
1470345175140483,4,-3,-9,-5,-3,-1,0,4
1470345175161517,-6,-7,16,4,1,0,-2,2
1470345175161517,9,8,0,2,-2,-2,1,1
1470345175162500,-6,-9,-2,-2,0,1,0,2
1470345175162500,1,10,1,-5,-1,-1,0,-3
1470345175175531,1,-3,3,9,1,-1,-1,-2
1470345175175531,-6,-13,-15,-14,-4,-1,-1,-1
1470345175183519,9,7,1,14,1,0,0,-2
1470345175183519,-1,-1,-7,-12,0,1,1,4
1470345175198574,0,-1,7,11,-2,-2,-2,-3
1470345175198574,-3,-1,0,-8,0,-1,-2,-1
1470345175200536,-2,-3,2,1,-1,2,-1,-1
1470345175200536,3,-4,-7,-1,-2,-2,-3,-2
1470345175221557,-6,-13,-4,-2,-2,0,-2,2
1470345175221557,3,0,-2,3,-1,-2,-1,1
1470345175223093,0,-1,-19,-8,-2,-1,0,-3
1470345175223093,2,-3,9,8,-1,-1,0,4
1470345175235076,6,5,-1,-8,-1,-2,-1,-4
1470345175235076,-11,1,0,6,-1,-3,-1,1
1470345175244081,-6,-11,-3,5,0,-2,-3,-3
1470345175244081,1,2,11,9,2,3,1,1
1470345175259096,4,-2,-7,-12,-3,-2,-2,-2
1470345175259096,5,0,-7,-6,1,0,-2,4
1470345175260097,-3,11,-6,13,1,0,2,0
1470345175260097,-2,-12,11,-6,-1,-1,-4,1
1470345175281114,-5,-1,-7,-2,-1,-1,1,-1
1470345175281114,-1,-1,-1,-6,0,1,1,-2
1470345175283117,-8,-5,-15,-12,-3,-1,-1,-1
1470345175283117,3,-2,-2,1,0,-1,-1,-4
1470345175295140,-10,3,2,1,-2,0,-2,0
1470345175295140,3,-2,2,2,-1,-2,-1,-2
1470345175304136,1,-2,-4,-4,-1,0,-2,0
1470345175304136,1,-1,0,0,-1,0,-1,-5
1470345175319211,-2,-3,-13,-8,-1,-4,-1,-2
1470345175319211,2,-2,4,19,-2,1,1,2
1470345175321178,-6,-7,-3,-1,-1,-1,0,-1
1470345175321178,6,5,-6,0,-3,-2,-2,-3
1470345175341203,-14,-1,10,7,0,-1,1,2
1470345175341203,2,-1,7,7,1,1,0,-6
1470345175343219,4,-1,-18,-30,0,-1,-2,1
1470345175343219,-1,-6,-15,-21,-1,-3,0,3
1470345175364225,3,-1,-3,4,-3,-2,-3,-2
1470345175364225,1,-1,12,6,1,-4,-1,-3
1470345175365223,-7,-4,-4,7,-3,-2,-1,-5
1470345175365223,-2,3,-1,-15,-1,0,-1,18
1470345175379306,4,14,-6,-2,1,1,-2,-12
1470345175379306,-4,-2,-2,-10,-1,-1,-2,1
1470345175380237,4,2,2,1,-3,0,-1,-4
1470345175380237,9,-2,0,10,0,0,0,-2
1470345175401258,-23,-8,-17,-8,-1,-2,0,7
1470345175401258,1,-12,11,4,-1,-1,1,3
1470345175403257,4,15,-3,7,0,-3,-1,-6
1470345175403257,-5,-13,9,-2,-4,0,-4,11
1470345175423889,3,-1,1,-2,-1,-2,-2,-5
1470345175423889,7,0,-32,-20,0,0,0,1
1470345175431792,-4,-3,29,9,-2,-2,-2,-1
1470345175431792,2,0,-8,0,-1,-2,0,-3
1470345175438359,-3,0,2,7,1,0,1,-1
1470345175438359,-5,-11,-16,-8,-2,-1,-3,-1
1470345175440322,3,-11,-4,-2,0,1,0,3
1470345175440322,-11,12,6,3,-1,-2,0,-9
1470345175461379,18,-7,0,-6,-2,-1,-1,0
1470345175461379,-2,5,15,11,1,-2,-1,-4
1470345175463418,-2,-7,4,1,-1,0,0,1
1470345175463418,3,-8,-50,-24,-5,-1,-1,-8
1470345175483345,3,9,40,9,-2,-2,-1,5
1470345175483345,-1,6,-21,-5,-1,-2,-1,2
1470345175485347,-3,1,-6,-4,0,-1,-2,-2
1470345175485347,-10,-13,-3,0,0,0,-1,-4
1470345175498385,0,-1,6,3,-4,-3,-5,-3
1470345175498385,-1,-2,1,-5,0,0,0,-1
1470345175500360,-6,2,-3,7,0,-1,-2,3
1470345175500360,-2,6,-1,3,0,-1,0,-6
1470345175521516,1,-7,-18,-18,-1,0,-1,-1
1470345175521516,-9,-8,7,-1,-2,-2,-2,-4
1470345175523468,3,-4,-1,-11,-1,-1,2,-1
1470345175523468,-2,0,10,15,1,-3,-3,-3
1470345175544159,3,0,5,-3,1,0,2,2
1470345175544159,-2,3,-9,12,-2,-1,0,1
1470345175545161,-4,-15,7,-10,-2,-2,-3,-3
1470345175545161,-1,1,3,1,-1,0,-1,-1
1470345175558238,1,4,-7,3,-1,-1,0,2
1470345175558238,-2,0,4,-5,-2,-1,-2,-1
1470345175565236,3,-7,-20,-10,-1,-1,0,-3
1470345175565236,-1,-2,15,-7,-2,-2,-1,0
1470345175581235,6,1,-3,1,1,1,-1,2
1470345175581235,-16,-1,2,0,-1,-1,-1,-1
1470345175583197,-7,2,-6,-1,-1,-2,-3,-6
1470345175583197,4,-3,-2,4,-1,0,0,3
1470345175604252,-3,-1,-7,-6,-1,-2,0,-1
1470345175604252,7,2,9,-2,1,1,0,2
1470345175605221,-1,-4,-6,11,-2,-1,-2,1
1470345175605221,-4,8,9,-10,-1,0,-1,-3
1470345175618323,3,-23,-18,-4,-2,-2,-1,1
1470345175618323,-4,-3,8,7,-1,-2,-1,-4
1470345175625335,5,2,-6,-14,-1,0,-1,2
1470345175625335,-4,-1,-5,15,0,-1,-2,0
1470345175640886,-2,-1,2,-25,-4,-2,-3,-3
1470345175640886,3,-1,-4,-10,-1,-1,0,-1
1470345175642857,-1,4,8,15,-1,-3,-2,0
1470345175642857,-5,1,-1,3,2,0,-1,-2
1470345175662907,-4,4,-3,3,1,0,-1,1
1470345175662907,2,0,-10,-9,-1,-2,-1,0
1470345175663877,-4,-2,10,-1,-5,-3,-3,-2
1470345175663877,3,-2,3,-1,-2,1,0,-1
1470345175677886,-5,1,-5,11,2,0,0,1
1470345175677886,0,-2,-4,-1,-2,-1,0,-2
1470345175685904,10,-2,-10,-16,-2,0,0,3
1470345175685904,-8,-5,-1,0,-1,-1,-3,-7
1470345175700910,-1,2,-6,-4,-2,-3,-2,-3
1470345175700910,2,0,10,10,0,0,-1,-2
1470345175701912,-2,15,4,7,0,-1,1,2
1470345175701912,5,-4,-14,-8,-3,-3,0,2
1470345175723434,-9,-1,4,-5,-4,-1,-2,-4
1470345175723434,0,10,7,11,0,-2,-1,-1
1470345175724435,-2,-8,-28,-13,0,2,0,2
1470345175724435,-1,-10,28,12,2,-1,-3,-4
1470345175737960,-3,-1,1,6,-3,-3,-1,-2
1470345175737960,4,4,-10,-8,-1,0,-2,1
1470345175745977,-9,1,-1,1,-3,-1,1,-2
1470345175745977,5,-3,-10,-7,0,-1,0,1
1470345175760986,1,-5,-3,-1,1,1,-1,3
1470345175760986,-2,-2,12,3,-2,0,-1,-2
1470345175760986,1,-13,-5,-3,-1,-2,-2,-5
1470345175760986,-2,0,-1,7,-2,-2,-1,-1
1470345175783022,1,-1,7,6,0,0,-2,2
1470345175783022,10,5,-8,-7,-3,-2,1,3
1470345175784003,5,1,-16,-17,-3,-2,-1,0
1470345175784003,-6,-3,19,10,0,-2,0,-13
1470345175798104,-13,-4,-21,-16,-3,0,2,0
1470345175798104,8,0,-1,6,-2,-1,-1,-2
1470345175806020,-22,-11,7,-2,0,-1,-1,-5
1470345175806020,12,18,-5,-9,0,1,0,6
1470345175821106,7,-2,-1,0,-2,0,1,2
1470345175821106,-17,-12,-4,-5,-3,-1,-2,-4
1470345175821606,9,0,-1,1,1,-1,1,2
1470345175821606,-5,16,0,-5,0,-1,-1,1
1470345175843186,7,9,24,13,1,-1,0,-3
1470345175843186,1,-10,-29,-10,1,-1,0,-1
1470345175844162,-5,1,17,10,-1,1,0,-1
1470345175844162,-8,-11,-2,-1,-3,-4,-3,-6
1470345175857213,-6,-9,11,6,-2,0,-1,-6
1470345175857213,-6,1,-8,-11,-2,-2,-2,18
1470345175865220,23,-1,-9,-3,0,0,-2,-14
1470345175865220,-7,-3,2,-7,-3,-2,-2,3
1470345175881198,2,3,2,4,-2,-2,-4,-4
1470345175881198,-7,-5,14,-1,-1,-1,-1,-3
1470345175881198,2,7,-7,-5,-1,-1,0,5
1470345175881198,1,1,1,3,-1,0,-1,0
1470345175903255,-6,-2,-9,-1,0,-2,0,-2
1470345175903255,2,-7,-13,-7,-2,-1,-1,-1
1470345175904200,-5,6,5,0,-3,-3,-3,-2
1470345175904200,5,-6,2,7,0,-2,1,3
1470345175917214,5,-6,-14,-3,-2,0,-2,-2
1470345175917214,-1,3,1,-3,0,-1,0,-3
1470345175925757,-8,-5,17,6,0,0,0,-1
1470345175925757,-6,-6,-19,0,-2,-1,-2,1
1470345175940293,5,3,2,0,1,-1,-2,3
1470345175940293,0,-1,-12,-8,-2,1,-1,-3
1470345175941314,-5,-3,-2,-6,-2,-1,-2,-3
1470345175941314,0,0,15,6,-1,0,0,-1
1470345175963298,-3,1,-6,7,-1,-3,1,2
1470345175963298,-2,-3,14,0,0,-3,-2,-7
1470345175963298,1,2,-4,3,1,0,-1,6
1470345175963298,-1,-1,-15,-11,-2,0,-1,0
1470345175993379,-5,-3,1,-8,-3,-2,-1,-5
1470345175993379,-1,1,5,6,-1,0,-1,1
1470345175994331,0,2,1,7,2,0,-2,0
1470345175994331,-8,-4,1,4,-2,-2,-3,-5
1470345176000330,-9,5,-5,-9,0,-1,1,0
1470345176000330,3,-5,14,13,-2,-2,-2,-2
1470345176001332,3,3,-1,-6,-1,0,0,-2
1470345176001332,-9,-6,-9,-10,-1,-1,-1,-1
1470345176023466,6,0,-9,-7,-1,-1,-2,0
1470345176023466,-4,-2,17,5,-2,-2,-3,-4
1470345176023940,-2,-1,-7,6,-2,-1,1,1
1470345176023940,1,-7,0,-14,0,-2,0,-3
1470345176037542,0,1,-10,6,0,0,-2,-2
1470345176037542,2,0,-2,0,0,-1,2,-2
1470345176045515,-2,20,4,0,-2,-1,-2,-3
1470345176045515,1,-10,1,3,-2,1,0,2
1470345176061520,-1,0,-1,-3,0,0,0,3
1470345176061520,2,1,5,-1,-3,-2,-3,-2
1470345176061520,-6,-10,4,6,0,-3,-3,0
1470345176061520,0,1,-11,-9,1,-2,-2,0
1470345176083541,3,2,1,0,1,1,2,-1
1470345176083541,-2,-1,-12,0,1,0,1,2
1470345176084544,6,-6,1,-1,0,-1,0,1
1470345176084544,1,5,0,-1,0,-1,0,-2
1470345176097597,-1,-7,6,-5,-3,-2,-2,-2
1470345176097597,-6,2,-5,6,2,0,-1,-4
1470345176105563,2,-1,1,3,1,-2,-2,-1
1470345176105563,4,-3,-2,-9,-1,1,-2,-1
1470345176121107,-6,-7,-5,-6,-6,-2,-3,-3
1470345176121107,-3,-9,-14,-14,-4,-2,-2,2
1470345176121582,3,9,12,8,-2,0,-1,2
1470345176121582,1,-2,3,1,-3,-1,0,-2
1470345176143608,-5,-3,-2,7,-1,-1,-1,7
1470345176143608,-3,-2,0,-2,0,1,-2,-20
1470345176143608,1,-8,0,-4,0,-1,-2,-1
1470345176143608,6,-1,-15,-6,-4,-2,-1,0
1470345176157672,-22,19,6,12,0,0,1,-6
1470345176157672,-4,-1,-2,-2,0,-1,1,11
1470345176165629,0,-3,-2,-11,-1,-1,-1,-9
1470345176165629,0,5,-3,7,-1,-1,-1,0
1470345176180695,4,-10,-2,1,0,-2,-2,-1
1470345176180695,-7,-4,7,-3,-4,-1,-3,-3
1470345176181643,-5,7,0,9,0,2,2,2
1470345176181643,-5,-15,-11,1,-1,-1,-2,-4
1470345176203663,-8,-5,4,-11,-1,0,-2,12
1470345176203663,4,1,1,4,-1,0,2,-2
1470345176203663,5,-3,-8,-11,-3,-1,-1,-2
1470345176203663,-1,8,5,-1,-2,-1,0,3
1470345176217705,9,-7,2,0,1,0,-2,-12
1470345176217705,-3,2,-9,-9,-2,-1,-2,-5
1470345176225729,-15,-12,-13,-5,-2,0,-2,-2
1470345176225729,13,12,23,1,0,0,-1,-1
1470345176240518,-2,-4,1,16,-3,0,-2,-2
1470345176240518,-1,-3,-7,-2,-1,-2,-1,9
1470345176241521,-3,-13,-14,-20,-3,-2,-3,-12
1470345176241521,-18,-2,-15,-9,-2,0,-2,3
1470345176263595,4,0,9,-4,0,-2,-3,-4
1470345176263595,0,-12,8,8,-1,0,0,-1
1470345176264540,8,8,-6,-9,0,0,-1,8
1470345176264540,-7,-4,-11,0,0,-1,0,-3
1470345176277596,3,-3,14,10,-4,-2,-2,-3
1470345176277596,-1,-9,-18,-12,0,-1,0,2
1470345176285615,1,8,17,10,1,-1,1,-1
1470345176285615,3,-2,13,2,-1,-2,-1,11
1470345176300628,-7,-3,-25,-10,0,-1,-2,-21
1470345176300628,4,5,-10,-5,-2,-1,-3,-1
1470345176301581,-3,-10,-9,-5,-2,-1,-1,1
1470345176301581,5,7,21,5,-2,-1,-1,-3
1470345176323188,3,-3,-2,-7,-1,0,1,8
1470345176323188,3,7,-2,-2,1,0,-2,1
1470345176324148,-11,-8,0,-1,-4,-3,-2,-4
1470345176324148,1,2,-9,0,-1,-1,0,-4
1470345176346673,1,0,4,2,-2,0,0,1
1470345176346673,-1,2,-8,-1,0,-1,0,-3
1470345176346673,0,4,17,11,-2,-2,-1,7
1470345176346673,-4,0,-12,-17,-2,-1,-2,-3
1470345176360691,6,2,-10,-9,-2,-2,1,5
1470345176360691,-4,4,8,-10,-2,0,0,-1
1470345176361688,-3,-12,4,11,-3,-2,-3,-2
1470345176361688,0,1,2,9,1,1,-1,2
1470345176382707,-8,1,-6,-7,0,0,-1,-1
1470345176382707,7,1,4,2,0,-2,0,3
1470345176383708,5,-9,-1,-5,-3,-2,0,2
1470345176383708,-21,-6,-6,0,0,0,-3,-18
1470345176405727,2,1,3,2,-2,-1,-2,-1
1470345176405727,2,-4,0,-1,0,-2,-3,1
1470345176406727,1,3,-6,-1,0,-3,0,-4
1470345176406727,6,-3,4,2,1,1,1,4
1470345176420868,5,1,3,3,2,-1,0,0
1470345176420868,-3,-2,4,-3,-3,-2,-2,-8
1470345176421817,-2,8,-2,15,-2,-2,-1,0
1470345176421817,-5,-4,-2,-7,-2,-1,0,3
1470345176443508,-1,-8,3,10,1,0,0,-6
1470345176443508,2,4,-13,-27,-6,-1,0,2
1470345176443508,-6,-4,4,3,-1,-1,-2,-1
1470345176443508,4,1,-3,3,-1,0,-1,-2
1470345176466492,-1,-1,-11,-15,-2,-1,-2,1
1470345176466492,-5,-1,14,22,2,-1,-2,-4
1470345176467490,-6,17,-8,-8,0,-3,0,-1
1470345176467490,7,-8,1,1,-2,-2,-2,2
1470345176480502,-5,-2,-1,-5,0,0,0,1
1470345176480502,0,0,-9,10,-2,1,2,1
1470345176481503,-2,-9,1,-11,-1,-1,-2,-2
1470345176481503,0,2,-1,7,-2,-2,-2,-2
1470345176503522,-3,-2,-6,-2,-2,-3,-1,0
1470345176503522,-1,-5,13,11,-1,-3,0,-1
1470345176503522,-4,-2,-3,-7,-2,0,-1,-1
1470345176503522,1,0,-10,-13,-1,-1,0,-1
1470345176526553,4,1,9,4,1,-1,-2,-3
1470345176526553,-2,-2,4,8,0,-3,-1,-2
1470345176527552,5,-4,-10,-6,-1,0,-1,2
1470345176527552,-21,-2,4,-1,0,-1,-1,-5
1470345176541069,-2,0,2,2,-1,0,0,0
1470345176541069,0,2,-1,-11,-2,-2,-4,2
1470345176541069,3,1,-1,13,2,0,0,-2
1470345176541069,1,-6,-8,-22,-5,-3,0,-1
1470345176563092,-3,-4,5,2,-1,0,-1,1
1470345176563092,-1,-1,-3,0,-3,0,-2,13
1470345176564091,-6,0,-1,2,0,1,-1,-8
1470345176564091,5,1,-3,4,-1,-1,-1,1
1470345176586111,-3,-1,-4,3,-3,-3,-2,-5
1470345176586111,3,2,5,2,2,-1,2,2
1470345176587112,5,-2,-13,-15,-3,-1,-2,-3
1470345176587112,-2,-1,6,-1,0,0,-2,-3
1470345176600124,-8,-7,7,10,-5,-4,-4,-4
1470345176600124,-2,-1,-1,5,-1,1,-1,0
1470345176608149,3,1,-7,-16,0,-2,0,1
1470345176608149,8,-2,-10,1,0,-1,1,0
1470345176623212,-7,-4,-3,-7,-2,-1,0,1
1470345176623212,-5,3,4,5,-1,-2,-1,-6
1470345176624211,-5,-8,-11,-3,0,-1,0,-1
1470345176624211,5,5,20,10,-1,-1,-1,0
1470345176646237,4,-7,-3,-13,-2,-1,0,-1
1470345176646237,-4,0,-8,14,-1,0,-3,7
1470345176647236,-3,1,2,-11,-2,0,0,0
1470345176647236,-1,-7,-13,3,0,-2,0,3
1470345176660303,1,-9,11,-3,1,0,2,-4
1470345176660303,1,0,-10,-2,-1,-2,0,-6
1470345176661248,0,-1,15,11,0,-2,-2,-2
1470345176661248,-15,-4,-6,-1,-1,1,-1,0
1470345176683330,9,9,6,7,0,-1,1,6
1470345176683330,-2,-10,-6,-12,-1,-1,-2,-2
1470345176684269,7,1,2,-1,-2,-2,0,4
1470345176684269,-15,-11,4,5,-3,-2,-1,-11
1470345176706290,7,4,-9,-4,-1,0,0,4
1470345176706290,1,-2,-1,-6,0,-2,1,-5
1470345176707291,-1,5,-5,1,-2,1,-1,-2
1470345176707291,10,8,10,9,0,-3,0,1
1470345176720906,-3,2,-17,-7,-1,-1,0,-2
1470345176720906,-2,-8,15,-2,-2,0,-1,-4
1470345176721364,1,-10,-14,-4,-1,-1,1,2
1470345176721364,-9,1,-6,-2,-2,-2,-2,13
1470345176743482,-1,-1,21,3,-1,-1,-2,-7
1470345176743482,-12,-5,-7,-1,0,-1,-2,-2
1470345176743482,9,12,-1,-4,0,-1,-1,-5
1470345176743482,7,-13,-19,-13,-3,1,0,4
1470345176766504,-1,-3,-8,-3,-1,-3,-2,3
1470345176766504,5,11,20,8,-2,-1,-1,-4
1470345176767459,-12,-7,-2,0,0,1,-2,0
1470345176767459,11,1,-7,-3,-1,-2,-2,0
1470345176780473,-13,-2,-10,-9,-1,-2,-2,-4
1470345176780473,1,-1,2,-9,-3,-2,-1,-6
1470345176781472,-3,-1,2,11,1,-1,0,0
1470345176781472,3,5,4,6,-1,-1,-2,-6
1470345176803495,2,-5,-14,-14,0,1,-1,1
1470345176803495,-7,-1,4,1,-2,-2,-2,16
1470345176803495,1,-5,4,-1,-2,-1,0,-8
1470345176803495,0,2,2,7,-1,-2,-1,-2
1470345176826636,0,0,-17,-9,-1,0,1,0
1470345176826636,7,0,-2,-4,-1,0,2,-2
1470345176827090,-22,0,12,2,-2,-3,-2,1
1470345176827090,-2,0,6,4,-1,-1,-3,-5
1470345176840690,-1,-2,-7,-2,-2,-2,0,-2
1470345176840690,6,3,-7,-6,0,-2,0,-2
1470345176841650,6,0,-3,-3,-2,-3,2,2
1470345176841650,-9,-11,-3,-3,-2,-1,-2,-6
1470345176863708,-12,0,7,6,0,-2,-2,0
1470345176863708,-2,-1,-7,-5,-2,-1,-2,-4
1470345176863708,3,2,-1,-1,0,0,-1,-3
1470345176863708,-2,-4,6,-7,-1,0,0,0
1470345176886778,2,3,1,9,0,-1,0,1
1470345176886778,-1,-4,-6,-15,-2,-2,-2,-6
1470345176886778,-6,-2,8,10,-2,-1,-2,1
1470345176886778,2,3,-4,0,-1,-1,1,-4
1470345176899758,8,1,-6,-7,-1,-2,-2,2
1470345176899758,-2,-6,-11,-2,-1,0,0,-4
1470345176907709,-5,3,5,-3,-1,-1,-1,0
1470345176907709,1,-2,-10,-8,-2,-1,-2,-1
1470345176923325,3,6,15,6,-2,-1,-1,-1
1470345176923325,-1,-5,-9,-4,-1,-1,0,-5
1470345176924271,3,-2,-4,3,-2,-1,1,3
1470345176924271,-10,-3,1,-1,0,-2,-1,1
1470345176945886,-1,0,-16,-20,-2,0,-4,-17
1470345176945886,-3,5,25,20,1,-2,0,2
1470345176946853,-1,-10,-8,-5,-1,-2,-2,-2
1470345176946853,4,8,-7,-5,-1,0,0,-2
1470345176959858,8,-5,5,5,-1,0,-1,6
1470345176959858,-18,-3,-8,-9,0,1,0,-3
1470345176967959,7,-2,11,2,1,1,0,-1
1470345176967959,-2,3,2,8,-2,-2,-2,-1
1470345176982877,-2,-2,-5,-8,-2,-2,-1,1
1470345176982877,2,-1,0,1,0,0,-2,-1
1470345176983878,2,1,-11,-6,0,-2,-2,3
1470345176983878,3,1,-1,-5,-1,-3,0,-1
1470345177006898,-7,-7,5,6,0,-1,0,0
1470345177006898,2,1,-1,1,1,-1,0,-3
1470345177006898,-7,-1,-1,-5,-3,0,-2,-3
1470345177006898,2,3,-2,0,1,0,-2,-2
1470345177019912,-9,-18,3,2,-1,-1,-2,-3
1470345177019912,1,1,-10,1,0,-1,0,-1
1470345177028427,2,0,-13,-17,-1,-1,-2,-2
1470345177028427,-4,-2,18,6,-2,-1,0,1
1470345177043011,5,2,4,7,0,-1,0,3
1470345177043011,-3,-5,-10,-4,-3,-3,-1,-3
1470345177043968,-13,-4,4,-1,-3,-2,-1,-2
1470345177043968,4,-2,4,2,-1,-2,-1,0
1470345177065991,-4,5,-7,-2,0,0,0,0
1470345177065991,2,-9,1,-1,0,1,-2,1
1470345177066993,-3,0,-2,2,0,0,0,-2
1470345177066993,-1,0,-1,-3,0,0,1,0
1470345177080055,3,2,3,5,-3,-3,-2,1
1470345177080055,3,3,-1,-2,-2,-2,1,1
1470345177088049,-1,-10,-10,-2,-1,-2,-1,-1
1470345177088049,-5,-12,-6,-8,0,1,-1,-7
1470345177103063,0,5,-5,-5,1,0,-1,-2
1470345177103063,-5,0,16,11,-2,-2,-2,17
1470345177104026,0,1,-7,4,-1,-1,-1,-8
1470345177104026,-1,1,9,1,-1,-1,-2,-1
1470345177126646,5,0,-12,0,0,-2,-1,-2
1470345177126646,-6,-2,-2,-9,-3,-2,-2,-6
1470345177127146,-1,-4,3,1,0,-1,0,3
1470345177127146,-1,-4,-6,-3,-2,-3,-1,3
1470345177140220,12,-15,1,-1,-2,1,-2,1
1470345177140220,4,10,4,0,1,-1,-1,0
1470345177148225,0,1,-1,1,-1,-2,0,-1
1470345177148225,-6,0,-6,-5,0,0,1,-5
1470345177163188,-2,3,5,-5,-2,0,-1,1
1470345177163188,-1,-13,9,7,-1,-1,0,-4
1470345177164184,0,-5,-8,-2,-2,0,-2,-4
1470345177164184,5,7,-1,-3,-1,0,0,4
1470345177186204,-10,1,0,0,-2,-2,-1,-4
1470345177186204,1,1,-10,-6,-1,-1,0,-4
1470345177187247,-2,0,5,6,-1,-2,-2,3
1470345177187247,-2,-4,4,6,-3,-3,-3,0
1470345177200260,1,4,4,-8,-1,-1,-1,-2
1470345177200260,-2,-4,-12,-13,-3,0,-1,-4
1470345177208224,1,-3,-1,-2,-1,-1,-1,7
1470345177208224,0,3,-4,3,-2,-1,-3,-19
1470345177223252,-2,0,0,-1,1,-1,-1,3
1470345177223252,-1,2,-5,-2,-1,-2,1,-4
1470345177224250,1,2,7,0,-2,-2,-3,-1
1470345177224250,4,-5,-6,-6,1,1,2,7
1470345177246278,1,5,2,5,0,-2,-1,-3
1470345177246278,0,-4,-2,3,-4,-1,-4,-5
1470345177247280,-6,-2,-2,-1,-1,-1,-2,-3
1470345177247280,-6,-4,-12,-10,-2,-1,-1,2
1470345177269311,3,-2,2,-3,0,-1,0,1
1470345177269311,4,4,12,15,3,-1,0,4
1470345177269311,0,3,-8,1,0,-2,0,-3
1470345177269311,2,0,-3,-4,1,0,0,-1
1470345177283312,-3,-1,-3,-3,-3,-1,-1,-3
1470345177283312,-3,2,-6,-6,-2,-2,-2,-2
1470345177284313,0,0,6,1,-3,0,-1,0
1470345177284313,-1,-1,-5,1,-1,-2,-1,-1
1470345177306360,-2,-10,-4,0,0,1,1,0
1470345177306360,-15,-7,-1,5,-1,0,-1,-2
1470345177307334,2,-6,0,-14,-2,0,-1,-6
1470345177307334,3,3,-6,4,0,-1,-1,-1
1470345177328917,-6,0,-1,-3,-1,-1,-3,-2
1470345177328917,5,3,10,-1,0,-1,-2,3
1470345177329891,1,1,-9,-4,-1,0,0,-1
1470345177329891,-3,-8,-8,-5,-2,-1,-1,-1
1470345177343174,-5,4,7,9,-1,-1,0,0
1470345177343174,4,-1,-7,-8,2,-1,0,13
1470345177344118,0,-1,4,-3,-2,-1,1,-5
1470345177344118,3,3,0,10,-2,-2,-2,-2
1470345177366193,-5,0,1,-8,-2,-1,-1,-3
1470345177366193,-1,1,-5,-6,-1,-1,1,0
1470345177367168,0,1,1,-1,0,-1,-1,2
1470345177367168,9,1,-1,-8,-1,-1,-1,2
1470345177389222,-6,-6,-7,-1,-2,-1,-1,-7
1470345177389222,1,1,9,8,-1,1,-1,-5
1470345177389222,2,0,-1,0,0,-3,0,0
1470345177389222,-1,-3,-1,1,-1,-1,-2,-1
1470345177403218,-6,-13,-1,2,-1,-1,-2,3
1470345177403218,5,-4,-16,-12,-3,-1,-3,-4
1470345177404171,2,-2,12,9,-1,0,-1,0
1470345177404171,-13,2,-2,-5,-1,-1,0,-1
1470345177426763,0,-2,-1,-4,-1,-4,-1,1
1470345177426763,-5,-4,6,8,-2,-1,-1,-3
1470345177427256,-3,-1,-2,5,-1,-1,0,2
1470345177427256,1,-6,-2,-14,-3,-2,-2,0
1470345177449372,1,6,-5,-4,-1,0,-1,0
1470345177449372,-3,2,-3,-1,0,0,0,-5
1470345177449372,2,-1,-7,-8,0,1,-1,-3
1470345177449372,-4,-3,12,10,-3,-4,-4,-2
1470345177463387,4,0,-8,-4,-1,-1,0,2
1470345177463387,-2,-2,9,-4,-1,-2,-1,-2
1470345177464387,-7,-3,-6,4,-3,-1,0,-4
1470345177464387,4,-4,-8,-11,0,-1,0,1
1470345177486407,1,1,-10,-8,0,0,-3,1
1470345177486407,0,-2,30,25,-1,-3,-3,-2
1470345177487408,11,-2,-10,-5,-3,0,-3,2
1470345177487408,-17,1,2,7,0,0,1,-6
1470345177508425,0,0,-3,-3,-3,-1,0,1
1470345177508425,11,4,-15,-14,1,1,-1,0
1470345177509427,-5,1,3,2,0,0,-1,-1
1470345177509427,8,-1,-10,-7,-3,0,0,7
1470345177523447,-6,0,34,21,-1,-4,-1,-1
1470345177523447,-9,-2,-16,-2,-1,-1,-2,-4
1470345177523945,-1,2,1,0,-1,0,0,1
1470345177523945,2,-1,-1,-5,2,1,2,0
1470345177546528,-2,1,1,0,-1,-2,-2,-3
1470345177546528,4,1,-5,-3,-3,-2,0,-2
1470345177547511,-7,1,-2,1,2,-1,-1,0
1470345177547511,-7,-5,-11,-11,-2,1,-1,-4
1470345177568596,0,-4,-2,-1,-2,0,-2,-6
1470345177568596,-4,-2,-2,-3,-1,-2,-1,-1
1470345177569548,-2,-7,-7,-5,-2,-1,-1,-1
1470345177569548,2,1,11,9,0,-2,-1,-2
1470345177583542,-2,-3,-4,1,-3,-1,1,1
1470345177583542,0,-1,-9,-8,2,1,-1,-1
1470345177584544,-3,-4,-1,-5,-2,-1,-1,0
1470345177584544,-3,1,12,8,0,-1,-2,0
1470345177606629,-1,0,-5,-4,0,0,-2,-6
1470345177606629,0,-3,-8,-2,-4,-1,0,5
1470345177606629,-4,-2,6,-5,-3,-1,-3,-4
1470345177606629,-2,-8,5,24,0,-1,-1,0
1470345177629112,2,7,-14,-27,-3,0,-2,-1
1470345177629112,-6,-5,-1,-1,-1,0,0,1
1470345177629614,6,0,0,10,-2,-1,-2,-1
1470345177629614,-3,-2,-14,-11,-1,-1,-1,0
1470345177643132,1,-3,8,3,2,0,-1,2
1470345177643132,-3,6,20,19,-1,-2,-2,-4
1470345177644133,3,0,-9,8,-1,-1,1,1
1470345177644133,10,-2,1,1,0,0,-2,-4
1470345177666150,-13,-4,-15,-5,-1,0,0,1
1470345177666150,-2,0,-8,-21,-2,-2,-1,-1
1470345177667156,-2,1,10,7,0,0,-1,-3
1470345177667156,5,12,1,-4,-1,1,-2,0
1470345177689260,-4,-6,-4,22,-2,-1,-1,-1
1470345177689260,5,4,-7,-11,-1,-2,0,-1
1470345177689260,-7,-1,6,2,0,0,-1,0
1470345177689260,7,-1,2,-16,-3,-1,-1,2
1470345177703227,-11,-3,5,10,1,-1,-1,-5
1470345177703227,-4,0,-9,2,-2,-1,0,-3
1470345177704186,4,1,-1,-13,1,-1,-1,13
1470345177704186,3,4,4,3,-2,-2,-4,-8
1470345177726712,-6,-3,2,7,-1,0,2,1
1470345177726712,-4,-7,-7,-3,-2,0,0,-3
1470345177727213,-8,-5,-11,-8,0,-3,-1,-1
1470345177727213,5,13,9,-5,0,-1,1,4
1470345177749269,5,2,6,11,-1,-2,-2,-2
1470345177749269,-2,-7,1,2,-1,-1,-1,0
1470345177749269,3,11,8,2,-2,-2,-2,-2
1470345177749269,0,-3,-8,-5,0,0,0,-2
1470345177763309,6,-3,-12,-12,-1,-2,-1,3
1470345177763309,5,-2,-1,1,-1,1,-1,-2
1470345177764283,-9,-3,-6,-7,-3,0,-3,-7
1470345177764283,-7,-4,2,1,-1,-1,0,-2
1470345177786335,10,2,5,0,-1,-3,-2,1
1470345177786335,-12,-1,4,10,-2,-2,-1,-3
1470345177787303,-2,-2,0,-5,0,0,1,-2
1470345177787303,-2,-11,-20,-28,-5,-1,-1,-3
1470345177809323,-4,-1,12,6,-3,-2,-2,12
1470345177809323,2,12,5,-2,-1,-2,-4,-16
1470345177809323,-4,-8,-5,0,-1,-1,-1,-3
1470345177809323,-7,-4,-8,3,-2,-1,1,2
1470345177823438,-6,-2,-5,-8,-1,0,0,-3
1470345177823438,8,-2,6,1,0,0,-1,4
1470345177823932,8,3,-6,-3,0,-1,-1,0
1470345177823932,-6,-4,-1,2,0,-1,-1,-4
1470345177846140,2,-4,-5,-8,-2,1,1,-1
1470345177846140,-5,5,2,-3,0,0,-1,-1
1470345177847140,2,-6,-3,-1,-1,-2,-1,-4
1470345177847140,-1,-3,1,5,-1,-2,-2,-1
1470345177869156,3,-4,-1,-9,-1,-2,-1,-1
1470345177869156,-1,5,-6,0,-1,-2,-1,2
1470345177869156,5,-1,6,2,-1,-1,-1,0
1470345177869156,-3,-3,4,2,-2,-2,-2,-3
1470345177882181,2,2,-2,-2,1,-2,-1,-1
1470345177882181,-2,-5,-1,-2,-1,1,0,-1
1470345177890152,-3,-3,-2,-2,-1,-1,-1,-1
1470345177890152,2,-1,5,7,-2,-2,0,2
1470345177906149,-11,4,-1,-5,0,1,-2,-7
1470345177906149,-6,-13,-7,-1,0,-1,0,3
1470345177907154,-1,3,-4,-6,-2,-2,-3,-2
1470345177907154,-5,1,12,11,0,-1,-1,1
1470345177929273,10,-1,-9,-4,-2,0,-1,1
1470345177929273,-7,-8,7,-1,-1,0,0,-3
1470345177929732,-5,-4,-9,-1,-1,1,-1,-2
1470345177929732,3,-1,2,3,2,1,0,-2
1470345177942346,0,0,-2,-2,-3,-3,-1,0
1470345177942346,0,-2,-1,1,-2,-1,0,3
1470345177950328,1,1,2,-1,-2,-2,0,-5
1470345177950328,0,-12,-7,-4,-1,-1,-1,4
1470345177966387,-3,-2,-1,-2,-1,0,-3,-7
1470345177966387,2,-4,-13,-8,0,-1,-1,2
1470345177967346,-1,1,2,-7,-2,-2,0,-2
1470345177967346,-3,5,-5,-2,0,0,0,-1
1470345177989397,-1,-2,8,2,0,0,-1,-2
1470345177989397,3,2,2,1,0,-1,-2,-2
1470345177989397,0,-2,2,5,0,-2,-1,-1
1470345177989397,-3,-1,-14,-5,-3,0,-1,-3
1470345178002418,-1,-3,7,-4,0,0,1,0
1470345178002418,2,8,6,3,-2,-2,-1,0
1470345178010423,-2,-2,1,1,-1,-1,1,0
1470345178010423,-5,-2,3,5,0,-2,-2,-3
1470345178026502,-1,-2,-11,-12,1,-2,-1,0
1470345178026502,0,-7,-3,3,-4,-2,-1,-5
1470345178027461,-7,-4,6,2,-2,0,-2,-1
1470345178027461,-3,3,-4,-4,-1,0,-1,-3
1470345178047656,8,4,-1,0,-1,-2,0,2
1470345178047656,-12,-2,-5,-8,0,0,-1,-4
1470345178055717,3,2,-4,-4,0,-1,-2,-1
1470345178055717,0,0,7,0,-1,1,0,1
1470345178062668,-2,-2,5,7,-4,-1,-2,1
1470345178062668,4,-2,-5,-6,1,-1,0,2
1470345178070680,2,1,-3,-1,0,-2,0,1
1470345178070680,-6,4,4,0,-1,-1,-2,-1
1470345178086694,1,-2,-5,5,-1,-2,-1,-2
1470345178086694,2,1,-4,-14,-2,0,-1,0
1470345178086694,-4,-2,-5,-3,2,0,0,1
1470345178086694,3,0,5,6,-2,-2,-2,-4
1470345178108711,-2,3,7,14,-1,-2,0,1
1470345178108711,0,-4,-9,-19,-3,-1,-1,3
1470345178109712,0,-3,-1,5,-3,0,-2,-2
1470345178109712,0,-1,-5,-7,2,-1,-1,0
1470345178122722,1,2,2,2,-1,0,-1,1
1470345178122722,-1,-2,-5,-9,0,-3,-2,-1
1470345178131236,3,-10,1,-1,-2,-2,-2,0
1470345178131236,-3,0,2,2,-2,0,-1,-3
1470345178145873,-1,2,0,-3,1,-1,-1,0
1470345178145873,1,-8,-7,22,-4,-1,-2,0
1470345178152848,-3,4,3,-1,2,0,0,0
1470345178152848,-1,-4,-6,1,-3,-1,-2,0
1470345178168863,-4,-5,0,-7,-1,1,0,-4
1470345178168863,2,-4,0,9,1,0,0,0
1470345178170864,-2,0,0,-1,-2,-1,0,0
1470345178170864,-6,0,5,4,-1,0,0,0
1470345178182875,2,-6,-13,2,-4,-2,-2,-1
1470345178182875,-3,4,6,-6,-2,-2,-2,-2
1470345178191883,-6,1,2,9,-1,-1,1,-2
1470345178191883,6,0,-2,-8,-1,-2,-2,0
1470345178205897,0,4,-4,0,1,1,0,0
1470345178205897,5,-1,11,-19,-2,-2,-1,-3
1470345178212902,-4,-10,-7,-7,-1,-1,-3,-3
1470345178212902,-1,13,-2,-4,1,1,1,1
1470345178228987,3,-5,-3,-5,-3,-1,-3,1
1470345178228987,-9,-1,-1,0,-1,1,0,-5
1470345178230455,5,7,12,13,-1,-1,0,-1
1470345178230455,-10,-9,-7,-3,-1,-2,0,-3
1470345178251542,6,1,-7,-3,0,1,0,1
1470345178251542,4,1,2,-2,1,0,-1,3
1470345178252510,-8,-3,0,-3,-2,0,-2,-2
1470345178252510,-4,-6,-3,-8,-3,-3,-2,-3
1470345178265544,-6,-1,-4,-8,0,-3,-2,-3
1470345178265544,-1,-5,4,4,-1,-2,-2,0
1470345178272584,13,0,-8,6,-3,-1,0,2
1470345178272584,-7,1,5,4,0,-1,-2,-1
1470345178288598,-9,4,1,-2,-1,0,0,-3
1470345178288598,-2,-7,-6,-2,1,0,-2,0
1470345178290576,-2,6,0,-1,-3,0,-2,-3
1470345178290576,10,-2,-6,-7,-1,-3,1,17
1470345178311597,-8,-5,5,1,-2,-1,-1,-16
1470345178311597,3,1,0,9,1,0,0,4
1470345178312567,4,6,6,-4,0,-1,-2,-4
1470345178312567,-17,-7,-12,-4,-1,0,-1,-2
1470345178325126,3,0,7,1,-3,-2,-1,3
1470345178325126,-2,3,-2,1,-2,0,-1,-1
1470345178334116,2,-3,2,2,0,-3,-1,1
1470345178334116,7,-3,-4,-7,-3,0,-2,-5
1470345178349246,-1,5,1,2,-2,-1,0,1
1470345178349246,-6,-3,-14,-6,-2,-1,0,-5
1470345178350216,-9,-5,7,2,-1,-1,-1,2
1470345178350216,7,1,0,8,1,0,-1,-2
1470345178371290,-10,-7,4,-4,-1,0,-2,-5
1470345178371290,-1,2,-7,6,-1,0,0,1
1470345178373239,-2,-2,-9,-9,-1,0,-1,-1
1470345178373239,-3,-5,-8,-6,-2,-4,-1,-3
1470345178394271,11,13,18,11,1,0,0,0
1470345178394271,-2,1,-7,-8,-1,0,0,0
1470345178395256,-6,-6,-7,-1,-1,0,-1,0
1470345178395256,0,-2,9,-3,-3,-2,-1,-4
1470345178409268,0,-4,-17,-4,-1,-1,-1,1
1470345178409268,0,2,5,4,-3,-5,-2,-1
1470345178410270,-3,-3,-4,-10,-1,0,-2,-2
1470345178410270,3,-1,-4,2,-1,-1,0,0
1470345178431849,-3,-3,-5,-7,0,-2,-2,-1
1470345178431849,-1,-2,14,7,-3,0,-1,-3
1470345178433407,7,0,-3,-1,0,-2,-1,3
1470345178433407,-19,-3,3,5,0,-2,-2,-9
1470345178446002,-3,-10,-9,-12,-3,-2,-1,-1
1470345178446002,-3,-1,-4,-7,0,-1,-1,1
1470345178452918,5,3,-8,-4,-1,0,0,-2
1470345178452918,3,0,5,3,-2,-1,-1,-1
1470345178468983,-6,2,6,6,-1,-3,-2,-3
1470345178468983,0,-4,-12,-2,1,0,0,2
1470345178470930,-3,-1,15,-1,-3,-1,-1,0
1470345178470930,1,0,6,12,-1,-1,-1,-2
1470345178491003,-1,-1,-14,-7,-2,0,1,1
1470345178491003,5,0,0,-5,-3,-2,-2,-2
1470345178492950,-11,-4,-11,-2,0,0,-2,-3
1470345178492950,10,1,-1,-4,0,0,1,4
1470345178506010,-19,-7,-1,-2,-1,-1,-1,-4
1470345178506010,6,1,1,1,0,0,0,0
1470345178513021,4,2,-3,2,-1,-2,-1,4
1470345178513021,0,-1,10,-2,0,0,-1,-2
1470345178529021,6,2,1,6,-1,0,-1,1
1470345178529021,-3,-2,-6,-7,-1,-3,-2,-1
1470345178530520,-8,-2,-4,-6,0,-1,-1,-5
1470345178530520,0,-1,-4,4,-1,0,0,2
1470345178551047,4,-4,-4,-19,1,-1,0,3
1470345178551047,-10,-3,5,13,-1,0,0,-1
1470345178553047,-1,0,0,-2,-1,0,-2,-1
1470345178553047,0,1,-2,-2,0,1,0,-1
1470345178567059,1,-3,-3,-4,0,-2,-1,-1
1470345178567059,2,1,1,10,-1,-1,-1,1
1470345178572063,-2,-3,-9,-31,-3,-2,-1,-4
1470345178572063,-1,0,12,14,-1,-1,-1,-4
1470345178589110,1,1,-7,1,-3,0,-1,0
1470345178589110,-2,-2,7,-7,-1,-1,-1,1
1470345178591093,-1,1,-5,10,1,1,0,-1
1470345178591093,4,-1,-7,-8,-1,-1,-1,-1
1470345178611099,-4,-6,4,5,-1,0,-2,1
1470345178611099,-7,-2,-7,-7,-1,0,1,-6
1470345178613099,0,-3,7,7,-1,-2,0,-1
1470345178613099,-1,0,-1,-9,0,-2,-1,-1
1470345178626116,3,4,-2,13,-1,0,1,1
1470345178626116,-1,-1,-10,-10,-3,0,-2,-3
1470345178632623,-4,-2,10,4,1,-1,0,1
1470345178632623,0,-2,-7,-5,-2,-2,-2,-2
1470345178648778,3,-2,-3,-7,-2,-1,0,-1
1470345178648778,-1,-6,7,8,-2,0,-2,-1
1470345178650761,-15,5,-2,7,-1,0,-1,-6
1470345178650761,2,0,-3,-15,-1,0,0,1
1470345178671784,3,-1,0,2,-1,-3,-2,-4
1470345178671784,5,-4,-17,-18,-2,-1,0,0
1470345178672794,0,-1,12,7,-2,-2,-1,0
1470345178672794,-3,-2,1,11,-2,-1,-2,4
1470345178685821,-6,2,7,-1,0,-1,-3,-10
1470345178685821,-3,-2,1,7,-2,-1,-1,-3
1470345178692887,3,-3,-17,-5,-1,-1,-3,-3
1470345178692887,0,1,-8,-7,-2,1,1,4
1470345178709932,4,-3,12,-1,-2,-1,-1,-1
1470345178709932,1,3,-2,-3,0,0,-1,0
1470345178710874,0,-3,-4,-5,-2,-1,-2,-4
1470345178710874,2,-1,-4,3,-2,-2,-2,0
1470345178731941,-5,-2,-9,-10,0,0,1,-1
1470345178731941,-4,-2,10,6,-1,-3,-4,-2
1470345178733360,7,-5,-17,-9,0,-1,-1,1
1470345178733360,-4,-4,11,0,-1,-2,-2,-4
1470345178745414,-2,3,1,9,-1,-4,-2,2
1470345178745414,-1,0,-7,-4,-2,-1,-2,0
1470345178760426,2,-2,6,0,-1,-2,-2,-6
1470345178760426,3,-7,-5,-4,0,-2,-1,-2
1470345178768436,2,-2,-6,-7,-1,0,-2,1
1470345178768436,-7,2,3,-2,0,-1,0,1
1470345178770436,4,-1,6,5,-2,0,1,2
1470345178770436,-5,23,-3,5,0,1,1,-5
1470345178791504,1,-4,-3,0,-1,0,0,2
1470345178791504,6,-7,1,-4,-1,-1,-2,-7
1470345178793477,-5,-1,2,0,-3,-1,-1,0
1470345178793477,-3,-10,3,8,0,-2,-1,-1
1470345178805564,-1,2,-13,0,0,0,-1,1
1470345178805564,-3,2,-2,-6,-1,0,-1,-2
1470345178813534,-1,-5,0,-3,-2,-2,-2,-1
1470345178813534,-4,-6,-2,11,-3,-2,-1,0
1470345178829062,0,0,-2,-11,-2,-1,-1,-3
1470345178829062,-1,-3,-4,4,0,-1,0,3
1470345178830511,2,1,-1,-3,1,-1,0,-1
1470345178830511,-4,-5,-8,-11,2,0,-1,0
1470345178851629,-6,-2,8,9,-4,-2,-2,-1
1470345178851629,-2,-1,-4,-3,-1,0,1,-2
1470345178852579,-1,-1,0,4,-2,-1,-2,0
1470345178852579,-2,3,6,0,0,1,1,-2
1470345178864637,-1,-5,2,-6,-1,1,0,-3
1470345178864637,1,-3,0,-3,-1,-3,-2,0
1470345178873644,-7,-11,-9,-1,0,-1,0,2
1470345178873644,2,-8,-9,-12,-2,0,-1,-1
1470345178888652,0,-2,16,15,2,-1,-2,2
1470345178888652,0,5,5,10,1,1,0,1
1470345178890614,11,-3,-12,-6,-2,-2,-1,0
1470345178890614,-1,1,7,-2,-1,-1,0,-1
1470345178911675,1,1,-6,-4,0,1,0,2
1470345178911675,-4,-9,-5,-3,-1,-1,-2,1
1470345178912638,-6,8,6,6,1,-1,-1,-1
1470345178912638,-2,-4,-11,-9,-2,-1,-3,-4
1470345178925766,-1,3,1,-2,0,-1,-1,-2
1470345178925766,-1,-1,-4,8,-1,-1,-1,-2
1470345178934177,9,1,3,-12,-1,-1,0,2
1470345178934177,-20,-6,4,-1,-3,-2,-1,-4
1470345178948788,-1,0,-11,-7,-1,0,-1,0
1470345178948788,2,3,5,4,0,1,0,3
1470345178950749,-1,-1,5,17,-2,-2,0,-1
1470345178950749,1,-1,-2,-16,-2,-1,-3,-4
1470345178971793,-3,-3,-5,-3,-1,0,0,-1
1470345178971793,-2,4,-2,-6,-3,-1,1,-1
1470345178972769,-3,0,0,-6,-1,0,-1,0
1470345178972769,18,-3,0,6,-1,-3,-1,1
1470345178984782,-19,-5,-3,-6,-1,-2,-2,-3
1470345178984782,8,-1,1,-1,1,-2,-1,-3
1470345178993788,-10,5,0,-3,-1,-1,-2,-2
1470345178993788,-4,-6,-3,6,-3,1,-1,0
1470345179008828,2,11,-5,-1,0,0,-2,2
1470345179008828,-5,-2,13,3,0,-2,-1,-3
1470345179010835,-3,-4,-6,0,0,-1,-2,-1
1470345179010835,0,2,-2,-1,0,-1,0,1
1470345179031840,5,-5,-5,-1,-1,0,-1,0
1470345179031840,-5,-2,-6,-3,-2,0,-2,-1
1470345179033345,-1,-1,14,9,-2,-2,-1,-1
1470345179033345,1,2,-6,-1,0,0,-2,0
1470345179044885,0,-6,0,0,-1,-2,-1,-3
1470345179044885,-3,0,-6,-6,0,-1,0,-1
1470345179053929,1,-4,-6,-7,2,-1,-1,2
1470345179053929,0,3,3,7,-2,-2,0,1
1470345179068945,-7,-6,3,1,-2,-1,-1,-7
1470345179068945,-1,-6,-12,-13,-2,0,0,-1
1470345179070892,1,2,8,11,-2,-1,-1,-1
1470345179070892,-6,-5,-5,-11,-1,-3,-1,0
1470345179091923,5,4,0,-2,-3,-3,0,0
1470345179091923,2,2,4,5,-1,-3,-3,-1
1470345179092912,9,0,-9,-8,-1,0,-1,-3
1470345179092912,-18,-3,-2,1,1,-1,0,-4
1470345179104923,0,-4,0,2,0,-2,-2,-1
1470345179104923,2,1,-6,-6,-1,-1,-1,1
1470345179113943,2,2,8,4,-1,-2,-1,0
1470345179113943,4,-3,4,7,-2,1,-3,-4
1470345179129055,5,5,-6,-4,2,1,-2,1
1470345179129055,-4,1,5,4,-1,0,-1,-2
1470345179130504,-9,-6,-11,-7,-2,-1,-1,-4
1470345179130504,0,-2,-4,-5,0,-3,0,2
1470345179151885,-3,-4,-9,-4,-1,-1,-1,1
1470345179151885,-4,-5,24,10,0,-1,-2,-6
1470345179152877,-2,9,-7,1,-2,1,-1,1
1470345179152877,3,2,-5,-4,0,1,0,-1
1470345179173940,0,-4,-4,-4,-3,-1,-2,0
1470345179173940,0,9,-4,-2,0,0,0,2
1470345179175898,-7,-6,0,-4,-2,-2,-1,-2
1470345179175898,-1,-1,3,2,-1,-1,-2,-3
1470345179188926,-2,3,-6,-1,-2,0,0,0
1470345179188926,6,-5,-11,-6,-1,-1,0,1
1470345179190911,-12,-6,33,12,-1,-2,-2,-4
1470345179190911,4,3,-13,3,-3,-1,0,2
1470345179211934,-1,-6,9,-7,-2,-2,-2,-4
1470345179211934,0,-2,-10,-1,0,0,-1,0
1470345179212932,0,-1,-14,-10,-1,3,-1,-1
1470345179212932,2,1,5,1,-1,-2,0,0
1470345179233957,-2,-4,5,5,1,0,1,2
1470345179233957,-6,-2,-5,-4,0,0,-2,-5
1470345179235458,4,2,-5,-5,0,0,-1,1
1470345179235458,0,2,4,1,1,0,-1,2
1470345179248976,11,0,11,29,1,0,-1,2
1470345179248976,-8,-3,0,-34,-6,-4,-4,-6
1470345179249975,1,-8,-10,1,0,-2,-1,-2
1470345179249975,-20,-6,-7,-8,-3,-1,-2,-4
1470345179271000,3,3,-5,-11,0,-1,0,1
1470345179271000,0,-2,2,11,1,1,1,1
1470345179272995,2,-2,-3,-3,-1,-1,-1,0
1470345179272995,3,-1,-4,-6,0,0,-1,-1
1470345179294036,-4,1,0,2,-1,-2,-1,-2
1470345179294036,-1,-3,-4,4,-1,0,0,0
1470345179296042,-6,-2,4,-3,-1,-2,-2,1
1470345179296042,7,-1,1,3,0,0,-2,-1
1470345179308093,-2,6,6,3,-2,-2,-3,-4
1470345179308093,0,2,-4,2,-2,-2,-2,0
1470345179315093,-3,-3,-15,-11,-1,0,-1,-1
1470345179315093,0,0,7,2,-1,-2,-2,-1
1470345179331729,-3,-1,0,2,1,-2,0,0
1470345179331729,3,-8,-9,-4,0,-2,-2,-1
1470345179333142,-5,4,7,8,-1,-1,-1,-2
1470345179333142,1,-1,-2,-7,-1,0,-1,-2
1470345179354293,-4,-3,1,-6,-3,-2,-1,0
1470345179354293,5,1,2,10,-1,-1,0,2
1470345179355221,0,-4,-7,-8,1,-1,1,0
1470345179355221,0,-4,-7,-3,0,-1,-2,-3
1470345179368265,-3,-1,-4,7,0,0,0,0
1470345179368265,-6,0,15,-4,-3,-2,-2,-4
1470345179375272,1,0,-9,0,-2,1,-2,-3
1470345179375272,1,0,1,0,-3,-2,0,2
1470345179391304,-1,-3,-6,-5,-2,-3,-2,-1
1470345179391304,-5,0,0,4,-1,-2,-2,0
1470345179393253,1,-4,-1,0,-2,-2,-2,-2
1470345179393253,4,8,2,2,1,0,0,0
1470345179414277,-1,-5,-3,-8,-1,0,-2,-1
1470345179414277,-4,-2,1,4,0,-2,0,-3
1470345179415275,0,-3,-3,-6,-2,-1,0,4
1470345179415275,-4,-15,-2,1,-2,-1,-2,-6
1470345179428797,-3,-2,2,-3,-2,-1,0,-1
1470345179428797,8,5,-2,-11,-2,-1,-2,0
1470345179435339,-8,0,0,5,0,-1,-1,-1
1470345179435339,2,-4,1,1,-2,0,-1,-2
1470345179451322,-4,1,3,0,0,-2,-2,-3
1470345179451322,1,-2,-3,4,-1,-1,-2,0
1470345179453326,0,-2,-7,-5,-1,-1,0,-1
1470345179453326,0,4,2,8,0,-1,0,0
1470345179474346,0,-5,2,-6,-1,-2,-2,0
1470345179474346,-1,0,-6,3,0,2,0,1
1470345179475343,1,0,0,-5,1,-1,-1,-1
1470345179475343,-1,-2,3,2,1,-2,-2,1
1470345179488370,0,4,-1,8,0,0,0,-1
1470345179488370,-2,-3,-5,0,-2,-2,0,1
1470345179495391,-1,3,-1,3,-3,-2,0,-1
1470345179495391,-1,-2,-8,-19,-1,-1,-2,-1
1470345179511384,0,6,-2,-3,-1,0,-1,-1
1470345179511384,-3,-2,8,8,0,-2,-2,0
1470345179513385,6,-3,-2,-8,0,-1,-2,-1
1470345179513385,-6,2,3,8,-3,-2,-1,3
1470345179541519,-3,-6,-8,-7,0,-1,-2,-3
1470345179541519,-2,-5,-10,-8,-1,-2,-1,-1
1470345179542518,-3,18,22,10,-1,-1,-1,0
1470345179542518,-1,9,-3,-2,0,-1,-1,-1
1470345179548580,8,-2,-5,0,-2,-1,-1,1
1470345179548580,-2,-4,-2,1,-1,0,-2,-1
1470345179554555,-2,-6,-15,-8,-1,-2,0,1
1470345179554555,-1,-2,-2,-9,-1,-1,0,-2
1470345179571588,0,1,5,16,0,1,1,1
1470345179571588,-1,1,-1,-9,-1,-2,1,-1
1470345179572548,-1,-3,-2,0,-1,0,0,-2
1470345179572548,-1,-1,-1,0,-1,-1,-2,0
1470345179592564,-4,-5,-10,-9,-1,1,-2,-1
1470345179592564,-2,0,2,1,-3,0,0,-2
1470345179601615,-4,-4,1,-2,-1,1,-1,0
1470345179601615,4,-1,-13,-9,-1,0,-1,-3
1470345179608663,-3,-2,13,11,-2,-2,-2,-1
1470345179608663,-7,0,-2,3,-2,-1,-1,0
1470345179622636,0,-2,9,-1,-4,-1,-1,-3
1470345179622636,-3,-7,-4,5,-3,0,0,2
1470345179631651,2,-1,-2,-7,-2,-1,0,0
1470345179631651,1,-2,-6,-4,-1,-1,-1,-3
1470345179633112,-2,-6,-6,-1,-1,0,-1,-1
1470345179633112,-3,-3,2,0,-1,-2,-1,-2
1470345179654333,-3,1,2,-6,0,-1,-1,-1
1470345179654333,-1,-1,-3,0,-1,-1,0,-1
1470345179655334,3,6,0,2,1,0,-1,-1
1470345179655334,-1,16,4,3,-2,-1,-1,-3
1470345179667345,0,-2,-4,-3,-2,-2,-1,0
1470345179667345,3,-1,-2,-4,-1,0,-1,1
1470345179676351,-1,-3,-24,-15,-1,-2,0,-1
1470345179676351,-4,-2,21,7,1,1,-2,0
1470345179691420,-3,1,25,22,0,-1,-2,-4
1470345179691420,-2,0,-7,4,0,1,-2,0
1470345179693380,-4,-5,-2,0,0,-2,-1,-2
1470345179693380,3,-4,-20,-15,-1,-1,-1,0
1470345179713385,-4,-6,-10,-8,-1,-2,-1,3
1470345179713385,-2,-3,5,-6,-1,-3,-1,-3
1470345179721417,2,1,2,4,-2,-1,-1,-1
1470345179721417,6,-6,-13,-3,-2,-2,0,-1
1470345179727960,-3,-2,9,-3,0,1,-2,-1
1470345179727960,3,3,4,8,0,0,-2,0
1470345179736968,0,-3,-5,-7,-1,0,-1,-1
1470345179736968,-1,1,7,6,-2,-2,-1,-3
1470345179751542,-1,-2,-15,-15,-2,0,-1,2
1470345179751542,-2,1,10,14,2,-2,-1,-2
1470345179752529,0,-8,3,-1,-1,-1,0,-1
1470345179752529,0,-1,7,4,0,-2,-3,0
1470345179773602,0,-1,-17,-17,-1,0,0,0
1470345179773602,0,-4,-6,0,0,0,0,1
1470345179775550,-1,2,17,9,-4,-4,-1,-2
1470345179775550,-2,-2,-1,3,0,0,0,0
1470345179787614,-2,-4,-8,-4,-1,0,0,-2
1470345179787614,0,-1,-9,-12,-1,0,-2,0
1470345179796617,1,-4,-4,2,-1,-2,-3,-2
1470345179796617,-4,11,10,-4,0,-2,0,0
1470345179810626,2,1,1,8,-2,-2,-1,-1
1470345179810626,0,-4,2,-4,-2,-2,-1,-2
1470345179824637,-1,1,-5,8,0,2,0,0
1470345179824637,-3,-3,9,1,-2,-2,-2,-2
1470345179834172,1,-3,-6,-7,-2,0,-1,-1
1470345179834172,-5,1,-1,-3,0,0,1,-1
1470345179835629,1,0,-7,2,0,-1,0,-1
1470345179835629,-1,-9,-10,-19,-1,-1,-3,-2
1470345179847739,0,0,4,-8,-1,-3,-2,-3
1470345179847739,-2,-5,-7,-6,-3,-2,-1,-1
1470345179856720,-4,1,5,3,-2,-1,-2,-1
1470345179856720,-3,-3,-2,5,-3,0,0,-3
1470345179871730,0,1,0,1,-1,-1,-1,-1
1470345179871730,1,5,4,0,0,1,-1,0
1470345179872706,-2,-3,1,-5,0,-1,-1,-1
1470345179872706,-2,-2,-9,-2,-1,0,0,0
1470345179893767,-5,1,-4,-2,2,0,0,0
1470345179893767,6,-2,10,4,-2,-2,-1,-1
1470345179895782,-6,-3,5,-1,0,-1,-1,-1
1470345179895782,0,-2,-5,1,-1,0,1,0
1470345179907780,-2,-3,-5,7,0,1,0,-2
1470345179907780,0,-2,-7,-22,-1,-3,-1,0
1470345179916746,2,1,1,0,-2,0,0,-1
1470345179916746,-2,-2,-12,-1,-2,-2,-1,-3
1470345179931903,0,-1,9,-2,-1,-2,0,1
1470345179931903,-4,-1,6,17,-2,-2,0,-3
1470345179933348,2,0,-5,-15,-2,-1,-2,-1
1470345179933348,-2,-6,-5,-1,-2,-2,-2,-1
1470345179953969,-1,0,-5,-5,-1,-3,-1,-1
1470345179953969,-3,-2,-5,0,-1,-2,-2,-1
1470345179955913,-3,2,11,6,-1,-2,-2,-1
1470345179955913,4,0,-3,2,-1,-1,-1,0
1470345179967924,-1,-2,-1,-3,-2,-2,-2,-2
1470345179967924,-5,-5,-4,-6,-1,-1,0,-2
1470345179975931,-2,-3,-2,2,0,0,-2,-2
1470345179975931,-3,-1,4,-1,0,-2,-3,-1
1470345179990999,0,1,-7,-4,0,1,-1,0
1470345179990999,0,0,6,11,-3,1,0,-2
1470345179992946,-2,-4,-13,-17,-3,-1,-1,-1
1470345179992946,-2,-1,15,5,-1,-1,0,0
1470345180013966,3,-2,-3,2,0,-2,-1,-2
1470345180013966,-1,0,-3,2,-1,-1,-2,2
1470345180014967,-1,0,-3,3,-1,-1,0,-1
1470345180014967,-1,-2,-1,-3,-1,-1,0,-1
1470345180028003,-2,-3,-5,2,-1,-2,-1,1
1470345180028003,-4,-2,-7,-9,-2,0,-2,-2
1470345180036989,0,-1,2,1,0,-2,-2,-1
1470345180036989,-1,3,10,6,1,0,-1,-1
1470345180051032,-4,0,4,0,-3,0,0,-4
1470345180051032,3,-1,-3,-4,-1,-1,0,-2
1470345180053023,0,-1,-8,-4,-2,-1,0,0
1470345180053023,-2,-2,1,6,0,-1,-1,1
1470345180074041,-2,0,-1,0,1,0,0,-2
1470345180074041,-2,-2,-4,-3,-2,1,-2,2
1470345180076045,2,0,5,2,-2,-1,1,-2
1470345180076045,1,-2,-8,1,-2,-2,-1,1
1470345180088052,-2,-3,6,-7,-1,0,-1,0
1470345180088052,-1,0,-4,-4,-1,-2,0,-2
1470345180097062,-1,-1,-4,0,0,-1,-2,-2
1470345180097062,0,-3,-6,0,-1,1,-1,-2
1470345180111076,0,-1,-4,-1,0,0,-1,-2
1470345180111076,-1,-1,-10,-5,-1,-1,-1,-2
1470345180113077,-2,1,26,15,-3,-2,-3,-1
1470345180113077,3,2,-10,-6,0,0,-3,-1
1470345180134101,-6,-2,-2,-2,-2,0,-1,-1
1470345180134101,5,-2,-4,-1,-1,-1,-1,1
1470345180135601,-1,0,-6,-3,0,0,0,1
1470345180135601,-3,-1,-6,-3,-1,-2,0,0
1470345180156125,-3,-3,10,1,-2,-3,-2,-1
1470345180156125,-1,2,2,4,-1,-1,-2,0
1470345180158125,0,-3,-5,-1,-1,0,1,-1
1470345180158125,2,-3,4,-1,-1,1,1,-1
1470345180171137,0,1,-11,-2,1,1,1,-1
1470345180171137,-3,-3,10,1,-1,-2,-1,-3
1470345180173142,1,-2,-8,-6,-1,-2,-1,-1
1470345180173142,-3,1,1,-2,-1,-1,0,0
1470345180194184,3,-3,-3,-3,-2,-1,-3,-1
1470345180194184,-3,-2,5,3,0,0,-2,0
1470345180195157,-2,1,-3,-1,0,0,-2,-1
1470345180195157,-2,-4,-2,-2,-2,0,0,-1
1470345180216177,4,1,0,0,0,-2,-2,0
1470345180216177,-1,0,-2,6,0,-2,-1,0
1470345180218180,-3,1,18,-3,-1,-2,-2,-1
1470345180218180,-1,1,-6,-2,-2,-1,-1,-3
1470345180231696,-1,-1,-1,2,-2,0,0,0
1470345180231696,-2,-2,-3,0,0,-2,-1,-1
1470345180233197,1,-3,-5,0,-2,-1,0,-2
1470345180233197,-1,-2,-2,-4,0,-1,-1,-1
1470345180253766,-3,-1,5,9,-1,-1,0,0
1470345180253766,0,1,-4,-6,-1,0,1,-1
1470345180255771,-3,-2,-7,-3,-1,-1,-1,-1
1470345180255771,-1,-1,-3,-4,-3,-2,-2,-2
1470345180276787,-1,1,-5,1,0,-2,0,1
1470345180276787,0,-1,1,1,-1,0,-1,-1
1470345180277788,0,0,-5,-7,-2,0,-2,0
1470345180277788,0,-2,-12,-7,0,0,-1,-2
1470345180290842,-5,-5,21,17,-4,-3,-3,-3
1470345180290842,4,0,-4,-7,-2,-1,0,0
1470345180297839,-2,-3,-2,10,-1,1,1,-2
1470345180297839,1,-1,-4,-12,-2,0,-2,0
1470345180313874,0,0,2,-3,0,0,1,-4
1470345180313874,-2,-2,-3,-3,-3,-1,-1,-1
1470345180315823,-3,-1,-6,3,0,-2,-1,-1
1470345180315823,0,1,6,4,1,1,-1,0
1470345180336887,-3,-2,-4,-7,-2,-3,-1,-2
1470345180336887,-2,-2,-3,0,-1,0,-1,-2
1470345180338359,2,1,-6,-4,-1,-1,0,0
1470345180338359,-2,-2,2,4,-3,-2,-1,0
1470345180351009,-1,1,-1,-3,-1,-2,-1,0
1470345180351009,-1,-3,0,-2,-1,-2,-1,-1
1470345180358025,-1,-4,-16,-18,-2,1,0,1
1470345180358025,-3,-2,15,8,-1,-3,0,-1
1470345180374050,3,1,-4,6,0,-1,-1,-1
1470345180374050,-4,-1,-8,-5,-1,-3,-1,-1
1470345180375006,-2,-1,-4,-8,-1,-1,-1,-1
1470345180375006,0,1,14,13,-1,-2,0,-3
1470345180396067,-1,-5,-14,-13,-1,-1,-2,-1
1470345180396067,-1,-3,8,-4,-4,-2,0,-2
1470345180398027,-1,0,-10,-1,-2,0,0,1
1470345180398027,1,-2,-9,-4,-1,-3,-1,0
1470345180410041,2,0,4,6,-1,0,-2,-1
1470345180410041,-4,-1,-1,-4,0,0,-1,-1
1470345180419045,1,-1,1,7,-2,0,-2,-2
1470345180419045,-2,0,3,-3,-2,0,-2,-3
1470345180434160,6,-2,-4,-3,-1,-2,0,-2
1470345180434160,-2,0,0,1,0,-1,-1,0
1470345180435620,-1,-1,4,1,0,-2,-2,-1
1470345180435620,0,-1,-6,-5,-1,0,-1,1
1470345180456771,-2,-1,-9,-10,-1,1,1,0
1470345180456771,-4,0,7,6,-2,0,-1,-1
1470345180457696,-2,0,8,8,-1,-3,-3,-2
1470345180457696,-2,-2,-13,-9,0,-1,-1,-2
1470345180470708,-1,-1,-4,-6,-2,0,0,-1
1470345180470708,1,-2,-3,-5,-2,-1,0,-2
1470345180477756,-3,-2,2,1,-1,-2,-1,-1
1470345180477756,2,0,-4,-3,-1,-1,-1,2
1470345180493805,-1,0,0,5,0,-2,-1,-2
1470345180493805,-11,-4,-3,-7,-2,-1,-2,-3
1470345180495733,-1,-3,5,9,0,-1,0,-1
1470345180495733,0,1,-1,-4,-2,0,-1,-1
1470345180516748,-4,1,2,1,0,-1,0,0
1470345180516748,2,0,-7,0,-1,-2,-2,1
1470345180517751,-3,-2,2,-5,-1,0,-1,-1
1470345180517751,-3,-3,-3,-2,1,0,-2,-2
1470345180530808,-1,-1,0,-1,-2,-1,-2,0
1470345180530808,-1,1,1,9,0,-2,0,-1
1470345180537839,1,-2,2,-8,-2,-1,0,1
1470345180537839,-2,-1,6,8,-1,-3,0,-2
1470345180553831,-1,-4,-6,-5,-1,-1,-2,0
1470345180553831,2,-2,-3,-3,1,-2,-1,-1
1470345180555833,0,-1,-15,-8,-1,0,1,-1
1470345180555833,-3,0,11,3,-2,0,-1,0
1470345180576862,-3,0,11,5,-1,0,-1,0
1470345180576862,0,0,-5,1,-1,-1,-1,-2
1470345180577852,-1,-1,0,-1,-1,-1,-1,2
1470345180577852,-2,0,-7,0,0,-1,0,-1
1470345180589862,-3,-1,-6,-6,0,-1,-1,-1
1470345180589862,0,-1,4,2,-1,0,-1,-2
1470345180598898,-1,-2,3,-2,-2,-2,0,-2
1470345180598898,-1,0,1,-1,-2,-1,0,0
1470345180613888,-1,-2,-3,7,-3,-2,-1,0
1470345180613888,1,-1,-1,-13,-3,-2,-2,0
1470345180615887,-2,-1,-9,-2,0,0,0,-2
1470345180615887,0,-3,-1,-1,-1,-1,0,0
1470345180636412,-1,1,6,6,0,0,-1,0
1470345180636412,-3,-1,-7,-5,0,1,-1,0
1470345180638414,-1,-1,-1,-4,-2,-3,-3,-2
1470345180638414,-1,-4,14,6,-1,-2,-3,-2
1470345180650028,0,0,-12,-10,-2,-2,-1,-1
1470345180650028,0,0,8,5,-2,-1,-2,-1
1470345180659021,2,0,-4,-5,-2,-1,-2,-1
1470345180659021,-2,-3,-9,-7,-2,0,-1,0
1470345180674022,0,-2,-1,-4,-1,0,-2,-1
1470345180674022,3,2,-6,-2,-3,-1,0,2
1470345180676034,-10,-2,1,-4,-1,-2,-1,-2
1470345180676034,0,2,8,2,-1,0,-1,-1
1470345180696079,-7,-5,-7,-1,-1,-2,-1,-2
1470345180696079,-1,1,1,5,0,-1,0,0
1470345180698026,1,1,-2,4,0,-2,0,2
1470345180698026,-3,-4,-11,-8,1,-1,-1,-1
1470345180710038,0,-2,-2,-4,-1,0,0,-1
1470345180710038,-1,-2,8,9,-1,-2,-1,0
1470345180719047,0,-3,-6,-4,-2,-2,-2,-2
1470345180719047,0,1,1,1,-3,0,1,0
1470345180734087,2,-1,0,-4,-1,-1,-1,1
1470345180734087,0,-2,-7,2,-2,-1,-1,-1
1470345180736091,1,-2,1,1,-1,0,-1,-2
1470345180736091,-2,-1,-5,-2,0,-2,-1,-1
1470345180756069,-2,1,-4,-8,-2,0,-2,-1
1470345180756069,-4,-3,3,-3,-2,-2,-2,-2
1470345180758033,1,2,7,12,1,-1,0,0
1470345180758033,0,-2,-12,-7,-1,-1,0,1
1470345180770047,-2,0,8,5,1,-3,0,1
1470345180770047,-1,0,0,4,0,-2,-1,1
1470345180779051,2,-3,-8,-15,-2,-1,-1,1
1470345180779051,-10,-1,-2,0,0,1,-2,-5
1470345180794090,2,-1,0,-1,-3,-2,-3,-2
1470345180794090,0,1,4,-1,-3,0,0,-2
1470345180795066,-3,0,4,3,0,0,-1,0
1470345180795066,2,-2,-5,-2,-3,-2,-1,0
1470345180816085,-1,1,3,-1,0,1,-1,-1
1470345180816085,0,-3,-7,-2,-1,-1,0,-2
1470345180818089,-6,0,-1,0,-2,-1,-2,-2
1470345180818089,-1,0,1,-1,-1,-2,0,-1
1470345180830663,-4,-5,2,0,-2,0,-2,-1
1470345180830663,0,0,-2,-4,-1,0,-1,0
1470345180839144,-1,-1,0,3,-1,0,-1,-2
1470345180839144,0,-1,-7,-1,-1,0,0,-1
1470345180853794,-3,-4,-3,-7,-2,0,-1,-1
1470345180853794,0,1,4,-2,-2,-2,0,0
1470345180855792,0,0,3,4,-2,-1,0,-3
1470345180855792,-1,0,4,6,-2,-1,0,0
1470345180876772,1,-2,-13,-6,-2,-1,0,-1
1470345180876772,1,-1,1,-6,2,-1,0,-1
1470345180877773,-4,-3,6,0,0,-3,-3,-2
1470345180877773,0,-1,-11,-2,-3,-2,-1,-1
1470345180889839,-4,0,13,3,1,-1,-1,-1
1470345180889839,-4,-1,-13,-7,-1,0,-1,1
1470345180898840,1,-2,3,3,1,0,0,-3
1470345180898840,0,-1,2,-1,1,-1,-2,-1
1470345180913861,0,0,-3,2,-2,-1,-2,0
1470345180913861,-3,-2,-3,-5,-4,-1,-1,-1
1470345180915863,1,-3,0,-1,-1,2,-1,-1
1470345180915863,-1,-1,-3,-7,-2,1,-1,-2
1470345180936888,2,-1,4,3,-1,1,0,-2
1470345180936888,-2,-2,2,4,-1,0,-2,-1
1470345180938389,-1,-2,-7,-3,-2,0,-1,0
1470345180938389,0,-4,-4,-7,0,-1,-1,-1
1470345180949491,-2,-1,-1,-1,1,-1,-1,2
1470345180949491,-1,0,0,-1,0,-2,0,0
1470345180959501,-4,-2,7,5,-1,-2,-1,-2
1470345180959501,5,0,-3,-2,-1,0,-1,0
1470345180972513,-1,-2,-3,-1,-2,-1,-1,-3
1470345180972513,2,0,-3,-3,0,-1,0,-1
1470345180981520,-1,-1,-14,-9,-1,0,0,1
1470345180981520,1,-1,4,-4,-2,-2,-2,2
1470345180996576,-2,2,19,12,-2,-3,-1,0
1470345180996576,-11,-4,-1,-2,-2,-1,-3,-6
1470345180997534,1,-2,-6,-7,-1,-1,-1,0
1470345180997534,-3,-2,-5,0,0,0,-2,-3
1470345181010546,1,1,-10,-7,0,1,-1,0
1470345181010546,-1,-2,0,-4,-1,-2,-1,-1
1470345181018603,0,0,5,7,-2,-1,-1,0
1470345181018603,-1,0,1,-2,0,-1,1,-1
1470345181033641,-2,-3,-4,-2,-1,-2,0,-1
1470345181033641,1,1,4,4,-1,0,-1,-1
1470345181040177,0,-1,-8,-11,-2,-2,-2,0
1470345181040177,-2,1,2,6,-3,-3,0,0
1470345181056762,2,-1,-1,-2,-2,-1,-2,-1
1470345181056762,-1,-1,-3,-1,0,-3,-1,1
1470345181057720,-4,-1,11,8,0,-1,-1,1
1470345181057720,-2,-2,1,-2,-2,-1,-1,-1
1470345181078816,-1,-2,-6,1,0,-1,-1,-1
1470345181078816,1,1,-9,-4,0,1,1,0
1470345181080782,-1,0,-5,-9,0,0,0,-1
1470345181080782,-1,-1,6,9,-2,0,0,0
1470345181093819,-1,0,-16,-14,0,0,0,0
1470345181093819,2,-3,17,5,-4,-2,-1,-1
1470345181095796,1,-1,-5,-1,-1,0,-2,-3
1470345181095796,-1,-1,2,4,0,-1,-1,-3
1470345181116773,-3,-1,-7,-4,-1,0,0,-3
1470345181116773,1,-1,-3,-4,0,-2,0,1
1470345181117774,0,1,-1,-2,0,-1,-1,1
1470345181117774,-2,-1,-2,-4,-1,-1,-3,-1
1470345181139353,1,-1,0,0,-1,0,-2,-1
1470345181139353,-2,-2,-8,-9,-1,-1,-1,0
1470345181140855,-2,-1,1,10,0,-2,0,-1
1470345181140855,-2,-2,4,-3,-1,-1,-1,-1
1470345181153926,-1,-1,2,3,1,-2,0,-2
1470345181153926,-2,-1,-5,1,-3,-1,0,-1
1470345181155888,-2,0,-3,-4,0,-2,-1,0
1470345181155888,-1,-2,-1,-1,-1,-1,-1,-1
1470345181176907,-2,1,2,0,-3,-2,-3,-2
1470345181176907,-3,-1,-7,-3,0,0,0,-1
1470345181177910,0,0,-2,-4,0,-1,-1,0
1470345181177910,0,-2,-2,0,-1,-1,-1,0
1470345181199019,-1,-3,6,4,-2,-3,-1,-2
1470345181199019,-2,-3,-6,-1,0,1,-3,-1
1470345181200929,0,0,4,2,-1,0,-2,0
1470345181200929,1,-2,-9,-8,0,-1,-1,0
1470345181212940,1,-1,-2,-7,0,-2,-1,0
1470345181212940,-3,-2,17,5,-3,-3,-2,-4
1470345181219946,-1,-1,-3,-3,-2,-2,0,-3
1470345181219946,-3,-1,0,5,-2,-1,-1,-2
1470345181236963,-1,0,-7,0,-1,1,1,1
1470345181236963,0,-1,0,-2,-1,0,0,-2
1470345181237966,0,-1,0,-3,-2,-1,-1,0
1470345181237966,-3,0,-1,-2,-1,0,0,-1
1470345181259014,-2,-2,1,0,-3,-1,-1,-1
1470345181259014,-2,-4,-9,-3,-1,-2,-1,-1
1470345181261002,-4,-4,6,1,-1,-2,-1,-1
1470345181261002,-1,2,1,4,0,-1,0,-1
1470345181273029,-2,-4,-8,-8,-4,-4,-2,-1
1470345181273029,2,1,3,6,-1,-1,-1,0
1470345181280035,0,-1,-4,-5,-1,1,-1,1
1470345181280035,-1,-2,-3,-8,-2,1,-1,0
1470345181296061,-3,-1,8,0,1,-1,0,-2
1470345181296061,-1,0,-4,5,-1,-1,-1,-2
1470345181298035,-2,-3,-5,-3,-3,-2,1,-2
1470345181298035,1,-2,-3,1,-1,0,-1,-2
1470345181319085,0,-1,1,-1,0,-1,-1,0
1470345181319085,3,0,-1,0,0,1,1,-1
1470345181320094,1,1,-2,-13,-1,-1,0,-1
1470345181320094,-8,-3,6,3,-1,-1,-3,-3
1470345181333660,-1,-2,-6,-3,-1,-1,-1,-2
1470345181333660,0,-1,-3,-3,0,-1,-1,0
1470345181340172,-1,-1,0,4,-1,0,-1,-1
1470345181340172,0,0,-3,-4,-2,-1,-2,-2
1470345181356783,2,-1,0,2,1,0,0,-1
1470345181356783,-3,0,4,2,-2,-1,-2,-1
1470345181357785,-2,-3,-15,-12,-2,-1,-2,-3
1470345181357785,-2,-1,14,0,-1,-2,-1,-1
1470345181378845,-4,-2,-3,5,0,0,-2,-1
1470345181378845,1,-1,-2,-5,0,0,0,-1
1470345181380846,-2,-1,-1,2,-3,-1,1,1
1470345181380846,6,0,-3,2,0,-1,-2,-1
1470345181392817,-2,1,5,-1,-2,-2,-1,-3
1470345181392817,-2,-2,-1,5,-2,-2,-1,-1
1470345181399827,-1,0,-2,-3,-1,0,-1,-1
1470345181399827,-3,-2,-4,-4,1,-1,1,1
1470345181416871,-2,-2,-8,-4,-3,0,1,-1
1470345181416871,-1,-3,-1,-2,0,-2,-1,-1
1470345181417839,0,-1,4,10,0,-2,-1,-1
1470345181417839,-1,-2,1,-1,-2,-1,-1,-2
1470345181439366,0,-2,-7,-6,-2,-1,-1,0
1470345181439366,-1,0,-2,-4,-2,-2,-1,-1
1470345181440867,-1,-1,5,3,2,0,0,-3
1470345181440867,0,-1,-13,-2,-2,-1,1,0
1470345181452964,0,1,4,2,0,-1,-1,-2
1470345181452964,-5,-3,0,0,-3,0,0,1
1470345181459992,0,-2,-3,-2,-3,-3,-2,-2
1470345181459992,-1,-1,0,0,-2,-1,0,-1
1470345181476996,0,0,-2,0,-1,-2,-1,0
1470345181476996,-2,0,-6,-8,0,1,-1,-3
1470345181482956,1,-2,6,4,-2,0,-1,-2
1470345181482956,-3,-3,-3,-5,-1,-1,-3,0
1470345181499015,-5,-2,8,4,-1,-2,-2,-2
1470345181499015,0,-2,-4,0,1,-1,-2,1
1470345181500974,-1,0,1,-2,0,-1,-2,0
1470345181500974,1,-1,-6,-7,-1,-1,-2,-2
1470345181513040,0,0,-4,-3,0,-1,-1,0
1470345181513040,-1,0,-7,-7,-2,-1,-1,0
1470345181520033,-4,-3,6,4,-1,-1,-1,-1
1470345181520033,-3,0,8,2,-2,-1,-3,0
1470345181536571,-2,-2,2,-3,-1,-2,-1,0
1470345181536571,1,0,-2,2,-3,-1,-1,-2
1470345181538530,0,-2,-11,-6,-1,0,-1,-2
1470345181538530,-2,-3,-5,-1,0,-3,-2,1
1470345181559216,-2,-1,-1,-1,-2,-1,0,-1
1470345181559216,1,-2,-1,-2,-2,-1,-2,-5
1470345181560173,-2,2,-4,-6,0,0,-2,0
1470345181560173,0,-1,8,1,-2,1,-1,-2
1470345181573195,0,-1,-6,4,-1,0,-1,-1
1470345181573195,-2,-2,2,-3,0,-1,-1,0
1470345181589199,0,-1,-3,0,-2,-2,0,0
1470345181589199,-1,-1,-3,-5,-1,-1,-1,-2
1470345181596206,3,1,-3,0,0,0,0,-1
1470345181596206,-2,-1,13,9,-1,-1,0,-2
1470345181598213,-2,1,-2,3,-1,0,-1,-1
1470345181598213,0,0,-3,1,-1,-1,-2,0
1470345181619236,0,-2,-5,-3,-1,0,-1,-1
1470345181619236,-2,-3,-13,-9,0,0,0,-2
1470345181620229,-1,0,5,-1,-2,-2,0,0
1470345181620229,-3,-2,3,5,-3,-2,-2,-2
1470345181632747,-1,-1,1,3,0,-1,-2,-1
1470345181632747,-1,-1,-1,-1,0,-1,-1,0
1470345181641754,-1,0,-8,-11,0,1,-2,0
1470345181641754,-2,-1,5,4,-2,-1,-1,-2
1470345181656505,-1,-2,-3,-8,-3,-1,-2,-2
1470345181656505,-1,0,-7,-4,-2,-3,-1,0
1470345181657504,0,1,10,6,1,-2,-1,-1
1470345181657504,-1,-1,-6,0,-1,-2,-2,0
1470345181678613,-2,1,-2,3,-2,-1,0,-1
1470345181678613,0,-5,3,2,-1,-1,-1,0
1470345181680525,1,-1,-10,-6,-1,-1,-3,-2
1470345181680525,2,3,0,0,-2,0,1,0
1470345181692577,-1,-1,0,-1,-2,-1,-1,0
1470345181692577,-6,-1,-5,-4,-1,-1,-1,-1
1470345181701544,-1,-4,3,5,0,-1,-2,-6
1470345181701544,-1,-3,-11,-8,-2,1,0,-1
1470345181716558,-1,0,6,-2,0,-2,-2,-2
1470345181716558,0,0,4,2,0,-1,-1,-1
1470345181717559,-2,-1,-7,-3,-2,-1,0,0
1470345181717559,-1,-1,-5,-2,0,-1,-1,-1
1470345181739193,0,0,8,7,-2,-1,-2,-2
1470345181739193,1,-2,-5,-7,-2,0,-1,-2
1470345181740636,-1,1,3,-2,-2,0,0,-1
1470345181740636,0,1,-5,0,-2,0,-1,-1
1470345181752752,0,-4,-11,-2,0,-2,0,1
1470345181752752,0,0,1,1,-1,-2,0,0
1470345181767760,-2,-2,-1,-1,-4,-2,-1,-2
1470345181767760,0,1,-2,-5,0,-1,1,-1
1470345181776767,0,-1,-2,-2,-1,1,-1,-2
1470345181776767,0,2,4,3,-2,0,-1,-1
1470345181777726,-1,-3,-2,-7,-1,-1,0,2
1470345181777726,-2,-1,3,0,0,-1,1,-1
1470345181798802,-1,-2,0,2,-1,-1,-1,1
1470345181798802,-2,-2,-2,0,-3,0,-2,0
1470345181800797,-1,2,-5,-2,-1,-2,-2,0
1470345181800797,-1,-4,-3,-10,-1,-2,-1,-2
1470345181812813,-2,-4,0,-2,0,0,-2,-3
1470345181812813,0,1,6,4,-2,-1,-3,-1
1470345181821784,-1,-2,1,3,2,-1,-1,1
1470345181821784,0,-1,-3,-2,-1,-2,0,1
1470345181836841,-2,-2,-14,-14,-1,-1,0,0
1470345181836841,3,-1,6,4,1,0,-1,-5
1470345181838343,-2,-2,-2,-3,-1,-1,-2,-2
1470345181838343,0,0,1,-2,-3,-2,-1,-3
1470345181858755,-2,-1,2,-1,-2,-2,-1,-2
1470345181858755,-3,1,-4,-1,-1,-1,0,0
1470345181860717,-1,0,-7,-2,-1,0,-1,-2
1470345181860717,0,-2,1,0,1,0,1,0
1470345181872726,-1,-2,6,2,-1,-2,-2,-1
1470345181872726,-2,-1,-6,-3,-1,-1,-1,-1
1470345181881734,0,-1,2,2,-1,-1,-1,-1
1470345181881734,-2,0,-7,0,-2,0,-2,0
1470345181896746,-2,-1,5,-1,-2,-1,0,-3
1470345181896746,-1,0,2,9,-1,-2,-2,0
1470345181897747,-2,-2,-6,-6,-2,0,1,0
1470345181897747,-2,1,3,-1,1,-1,-2,1
1470345181918856,0,-2,-6,-6,-1,0,-1,0
1470345181918856,-2,-2,1,-2,0,-2,-1,0
1470345181920772,0,-1,1,1,-2,-2,-2,-1
1470345181920772,-3,-1,0,-4,-4,-1,-2,-2
1470345181932858,0,-1,-1,3,-3,-1,-2,-2
1470345181932858,-2,-1,-3,-1,0,-1,-1,-1
1470345181941848,2,-2,1,-1,-1,0,0,0
1470345181941848,-1,-2,-10,-5,0,-2,0,0
1470345181956866,-2,-2,3,0,-1,-1,0,0
1470345181956866,-2,0,7,-2,-2,-1,-1,-1
1470345181957868,-1,-1,3,8,0,-3,-3,-1
1470345181957868,-1,-2,9,4,-1,0,-2,-2
1470345181978941,0,1,-9,-5,-1,-1,0,0
1470345181978941,-1,-4,-8,-7,-1,-1,-1,-2
1470345181980888,-1,-2,-2,-5,-2,0,0,-1
1470345181980888,0,-3,-3,0,1,0,-2,-1
1470345182000906,0,0,0,0,0,0,-2,-1
1470345182000906,0,-4,-6,-11,-3,-2,-2,-1
1470345182002907,-2,0,-1,0,0,-1,-1,-3
1470345182002907,-1,-1,-2,-4,0,0,0,-1
1470345182015974,-1,-2,8,6,1,0,-1,-2
1470345182015974,1,-2,-5,1,0,1,-1,-1
1470345182017922,-1,-4,-8,-10,-1,-1,-1,0
1470345182017922,-3,-2,17,10,-2,-2,-1,-2
1470345182039043,-1,1,-5,-3,-1,0,-1,0
1470345182039043,0,0,-1,-2,-1,0,1,2
1470345182041004,0,-1,-5,2,-2,-1,1,1
1470345182041004,-2,-1,-6,-10,-1,-1,0,-1
1470345182061082,0,-1,1,3,-1,-2,-1,-1
1470345182061082,-2,-2,-4,-2,0,0,-1,-1
1470345182063067,0,0,0,4,-1,0,-1,0
1470345182063067,-1,1,0,-2,-1,-1,-1,0
1470345182076125,-2,-4,-6,-3,0,-1,0,-3
1470345182076125,-1,-1,5,-1,-1,-1,-1,-3
1470345182078080,-2,-2,5,8,-1,-1,-1,-2
1470345182078080,0,-2,-9,-2,-1,0,-2,1
1470345182099155,-2,0,7,3,-2,-2,-2,-2
1470345182099155,-1,-1,0,0,-2,0,-1,-1
1470345182100099,-3,-1,-4,-11,-2,0,-1,1
1470345182100099,1,1,-12,-5,-1,-3,-2,-1
1470345182121135,-2,-3,-1,-11,-1,-2,-1,-1
1470345182121135,-1,1,13,16,-1,-2,0,-1
1470345182123135,-1,-2,-1,-13,0,-3,-1,-2
1470345182123135,0,-2,-7,-3,0,0,-1,1
1470345182135667,1,-1,-11,-7,-2,1,-2,0
1470345182135667,0,2,16,11,0,-1,0,-2
1470345182144170,-3,-3,-7,0,1,1,1,-3
1470345182144170,-2,-2,4,8,-2,-2,-2,-2
1470345182158879,-1,-2,-3,-6,0,-1,-1,-1
1470345182158879,-1,-1,-8,-13,-2,-2,-1,0
1470345182160870,-1,-1,-2,9,-2,-1,-2,-1
1470345182160870,-1,0,-1,-7,0,0,1,-2
1470345182181881,-2,-1,-5,0,-2,-2,-1,-1
1470345182181881,-3,-3,0,-3,-1,-1,-2,0
1470345182182873,-1,-2,3,1,1,0,0,-2
1470345182182873,-2,-2,6,0,-1,0,-1,-3
1470345182203946,0,-2,0,4,-2,-2,-1,-2
1470345182203946,0,-2,-17,-15,-2,-1,-1,0
1470345182205893,-1,1,2,-7,-2,-2,-3,1
1470345182205893,-1,-1,2,10,1,-2,-2,0
1470345182218905,-1,-3,6,4,1,-2,-1,-2
1470345182218905,1,-2,-5,-10,-1,-2,-1,0
1470345182220907,-1,0,-1,1,-2,-1,-1,-1
1470345182220907,-2,-1,0,-3,-2,-2,0,0
1470345182241547,-2,0,-4,1,-2,1,-2,-1
1470345182241547,-1,-1,-10,-2,-1,0,0,-1
1470345182243491,0,-2,10,7,-1,-1,0,-2
1470345182243491,-1,-1,-1,-6,0,0,-2,0
1470345182256042,-1,0,-10,-19,1,1,1,0
1470345182256042,0,0,10,30,-1,1,-1,0
1470345182263015,-1,-2,-4,-6,-2,-2,-3,-1
1470345182263015,0,-1,-8,-20,-3,0,-2,-1
1470345182279060,-1,2,5,6,0,-1,0,-2
1470345182279060,-2,-1,-12,-22,-2,-1,-1,0
1470345182281032,-1,-3,9,12,2,0,-1,-1
1470345182281032,-1,-2,-6,-1,-2,0,0,-1
1470345182302080,-1,-3,-3,-11,-2,-1,-3,1
1470345182302080,-1,0,6,10,0,-2,-1,-3
1470345182303051,-1,1,-7,-1,-2,-1,-2,-1
1470345182303051,0,0,0,-3,0,-1,-1,-2
1470345182316098,-1,-4,0,6,-1,-1,-2,-1
1470345182316098,0,-3,-2,0,-1,-1,-2,-2
1470345182323069,0,1,1,-9,-1,0,0,0
1470345182323069,-3,-3,-14,2,-1,-1,-1,-1
1470345182339128,1,6,21,8,-2,0,-1,-1
1470345182339128,-3,-11,2,5,-1,-2,-1,0
1470345182341173,-1,0,-13,-16,-1,-2,-1,-2
1470345182341173,-2,-1,-8,-5,-1,1,-1,-1
1470345182361255,2,2,12,15,-3,-1,1,0
1470345182361255,-4,2,2,-9,-1,-1,-1,0
1470345182363226,-2,-4,-6,-1,-2,-1,-1,-1
1470345182363226,1,3,16,21,0,-2,-1,-1
1470345182376203,-2,-6,-28,-22,-3,-2,0,1
1470345182376203,0,4,19,8,0,-2,-1,-1
1470345182382276,-4,-2,-4,6,-1,0,-1,-2
1470345182382276,-2,-1,-10,-14,-3,-2,-1,0
1470345182399246,8,1,10,4,1,-1,-3,-2
1470345182399246,-15,-5,-13,-11,-2,1,0,-1
1470345182400225,-6,-3,3,0,1,-2,-1,-5
1470345182400225,5,1,2,8,-1,-1,-3,1
1470345182421244,-2,1,2,3,-2,0,-1,-1
1470345182421244,1,-4,-5,-5,1,0,0,-2
1470345182423250,2,-2,2,0,-3,0,-1,4
1470345182423250,-2,-3,6,0,-1,-1,-1,-5
1470345182435901,-5,0,-5,-4,0,0,-1,-2
1470345182435901,5,6,-14,-6,0,0,0,1
1470345182442853,-3,-3,11,4,-2,-1,-3,1
1470345182442853,3,-2,2,-2,-1,-1,-2,-4
1470345182458357,3,-3,3,7,0,-3,-2,-2
1470345182458357,-2,-1,-9,-3,-2,-1,-2,14
1470345182460359,2,3,-3,-12,-3,-1,-1,-8
1470345182460359,0,1,3,1,0,0,0,2
1470345182481433,-11,-6,-6,-3,0,-2,0,-4
1470345182481433,1,-2,-3,-1,-2,0,-1,-3
1470345182483427,2,0,-6,-5,-2,0,-1,6
1470345182483427,6,2,15,9,-1,-1,-2,-2
1470345182495389,-16,-9,-9,-4,-2,-1,-1,-2
1470345182495389,3,3,-15,-14,1,-2,-2,-3
1470345182504399,-1,-1,24,15,0,-2,-2,-1
1470345182504399,-8,-4,0,-4,-1,-1,-1,-1
1470345182519413,5,1,-5,-4,-2,-2,-1,5
1470345182519413,0,-4,-8,-4,-4,0,-1,-5
1470345182520414,0,1,-8,-5,0,-2,0,0
1470345182520414,-2,-1,6,5,-1,-3,-2,1
1470345182541993,-2,-3,-5,-11,-1,0,0,-1
1470345182541993,-1,-2,6,4,0,-1,-2,-5
1470345182543494,-2,2,-13,-5,-1,-1,-1,-1
1470345182543494,-5,-4,3,3,-2,-2,0,-1
1470345182555513,1,0,-4,-1,1,0,-1,-2
1470345182555513,3,1,6,1,-1,-1,1,-4
1470345182564520,-2,-4,-7,-4,-2,0,-1,13
1470345182564520,-2,-2,-4,-2,0,0,-3,-18
1470345182578587,1,3,-7,-4,-1,1,0,0
1470345182578587,-2,-4,4,1,-2,-1,-1,-2
1470345182580534,-4,0,5,1,-2,-3,-1,-4
1470345182580534,0,0,-6,-5,0,-2,-1,5
1470345182601608,0,-1,3,4,-1,0,-1,2
1470345182601608,-2,-2,-7,-4,-3,-1,0,-2
1470345182602557,-2,-2,-5,-1,-1,0,0,-4
1470345182602557,0,-1,1,1,0,-1,0,2
1470345182615565,3,0,5,0,-2,0,-2,-4
1470345182615565,-4,-2,3,4,0,0,0,1
1470345182623603,-2,-5,-8,-13,-2,0,0,-3
1470345182623603,0,-1,-2,1,-1,-2,-1,1
1470345182639189,-3,-6,1,7,0,-2,0,0
1470345182639189,-1,5,8,-2,0,-1,-2,-3
1470345182640635,-1,-7,-5,1,-3,-1,-1,-4
1470345182640635,-3,-2,-7,-7,-1,1,0,2
1470345182661739,-1,-1,-1,-4,-2,-2,-2,-2
1470345182661739,-2,-2,-2,0,-1,-1,0,0
1470345182662715,5,0,4,7,0,0,-2,-4
1470345182662715,-1,1,-7,-7,-4,0,0,4
1470345182674764,-3,-2,4,4,-2,0,-2,-2
1470345182674764,0,-6,-8,-8,-2,0,-1,-2
1470345182683730,3,4,2,6,-1,-1,-2,0
1470345182683730,1,-1,-1,-2,-1,-2,-1,0
1470345182698744,-3,1,2,3,-1,0,-1,4
1470345182698744,-2,-2,0,1,-1,-1,-2,-15
1470345182700747,0,-1,0,2,0,0,-2,0
1470345182700747,-2,-3,-10,-2,0,0,0,1
1470345182721765,-1,-2,5,-5,-2,-1,0,-4
1470345182721765,-1,-1,10,5,-2,-3,-2,4
1470345182722767,-6,0,-1,0,-1,-1,0,-2
1470345182722767,1,-2,-3,3,-1,-2,-4,-6
1470345182735297,0,-3,-8,-13,-1,-1,-1,2
1470345182735297,0,-1,-5,-3,-1,-1,1,2
1470345182744298,-1,-1,3,-3,-2,-1,-2,-3
1470345182744298,-5,0,3,2,-1,0,1,2
1470345182758375,-1,0,-7,0,-2,-2,-1,0
1470345182758375,0,0,2,6,-2,-1,-2,0
1470345182760382,-2,-3,-7,-10,-2,-2,0,-3
1470345182760382,2,0,-7,-7,-1,-1,0,0
1470345182781401,-1,0,6,5,-1,-1,-1,-2
1470345182781401,-2,-5,5,5,1,-1,-2,-2
1470345182783397,-6,-2,3,-1,-2,-2,-1,1
1470345182783397,-2,-5,-2,0,0,0,-2,-4
1470345182795432,2,2,-6,-2,-3,-3,-1,-3
1470345182795432,1,2,-7,-6,-1,-3,-2,1
1470345182804416,-1,-1,1,0,-2,0,-1,1
1470345182804416,-4,-2,0,-1,-1,-3,0,0
1470345182819468,-2,0,-2,4,1,-1,-1,-2
1470345182819468,-1,-1,3,-3,-1,-2,-1,1
1470345182820432,3,0,-2,-4,-1,-1,-1,-1
1470345182820432,0,-1,-6,-4,-1,-1,0,0
1470345182841558,1,1,8,3,-1,-1,-3,1
1470345182841558,-1,-1,-5,0,-1,-1,-1,-2
1470345182843032,-3,-2,-8,-3,0,-2,0,-1
1470345182843032,-1,-2,-4,-5,-2,1,-3,1
1470345182854768,-5,-6,-4,4,-1,-2,1,-1
1470345182854768,0,1,9,0,0,-1,-1,-1
1470345182863759,0,-1,4,10,-1,-1,-1,-2
1470345182863759,-1,0,-5,-1,0,0,-1,0
1470345182878749,1,0,-2,-6,-1,0,-2,-1
1470345182878749,-2,-1,-3,-7,-2,-2,-2,1
1470345182880791,0,0,-7,-4,-1,0,3,-1
1470345182880791,-1,0,8,7,-1,-3,-2,-2
1470345182901765,-1,-3,-7,-8,0,0,0,-1
1470345182901765,0,-1,1,2,0,0,-1,-1
1470345182902767,0,2,4,-1,2,-2,0,-1
1470345182902767,-1,-2,-7,-7,-2,-3,0,-1
1470345182914777,-5,-3,6,2,-3,-2,-1,-4
1470345182914777,0,-1,-10,-4,-1,-1,0,-1
1470345182923829,1,0,0,-1,-1,1,-1,1
1470345182923829,-1,-1,1,-3,-3,-2,-1,-4
1470345182939379,2,1,-12,3,-1,-1,0,-1
1470345182939379,-1,0,11,4,-1,-1,1,-1
1470345182940862,-5,-5,-9,-16,0,-2,-4,-1
1470345182940862,0,-1,9,8,-2,-1,-2,2
1470345182961564,-1,0,-3,-5,-1,-2,0,0
1470345182961564,2,-2,-21,-15,-2,-1,0,0
1470345182963564,-1,-1,19,20,0,-1,-1,-2
1470345182963564,-2,1,2,7,1,-1,0,-2
1470345182983583,-1,-1,-4,-13,-1,0,-2,-1
1470345182983583,-2,0,-4,0,-1,-1,-2,-2
1470345182985585,1,-1,-3,-4,-2,-2,-2,0
1470345182985585,-2,-2,0,-1,1,0,-1,-1
1470345182999596,-4,0,4,6,-1,-1,0,-2
1470345182999596,5,-1,-2,-5,-1,0,0,2
1470345183000598,-1,-3,-12,-7,-1,0,-1,-4
1470345183000598,-2,-2,15,4,-1,-2,-1,-2
1470345183021649,-2,-5,-5,-2,0,-1,0,-2
1470345183021649,-1,-3,4,7,-2,-1,-1,0
1470345183022615,1,-1,-2,1,0,-2,-1,2
1470345183022615,-1,0,-7,-2,-1,-1,-1,-2
1470345183043182,0,4,-2,-12,-1,-1,-2,-2
1470345183043182,-4,-8,-6,0,0,-1,-1,-1
1470345183051275,1,0,3,-1,-2,-1,-2,0
1470345183051275,0,2,1,2,0,-1,-1,2
1470345183059248,5,-1,5,10,0,-1,-1,0
1470345183059248,-3,0,3,2,-3,-1,-4,-1
1470345183060275,-1,-4,-14,-12,-1,-1,-2,0
1470345183060275,6,-3,1,0,-2,-1,-1,-2
1470345183081273,-1,-2,-5,-1,-1,-1,-4,0
1470345183081273,0,-1,2,-2,-2,0,-1,-1
1470345183083220,-1,-2,0,0,0,-1,-1,-3
1470345183083220,-3,-1,-9,-5,-1,-1,-2,-1
1470345183104239,1,-4,5,2,1,-1,-2,0
1470345183104239,-1,0,3,4,1,-1,-1,-2
1470345183105240,-1,3,-2,7,-1,0,-1,-4
1470345183105240,-7,-5,-6,-14,-2,-2,-2,2
1470345183118306,4,0,-3,-1,-2,-1,-2,-4
1470345183118306,-7,0,7,2,0,0,-1,-3
1470345183125299,-1,-2,-3,2,-1,0,0,-1
1470345183125299,-1,0,-10,-6,0,-2,0,-1
1470345183141879,-2,-2,5,2,-1,0,0,2
1470345183141879,2,2,0,-2,-2,-3,-1,1
1470345183143372,-2,-1,-5,-3,-3,0,-1,-5
1470345183143372,0,-3,-2,-1,-1,-1,-1,-1
1470345183163467,-4,3,-1,-2,0,-3,1,-2
1470345183163467,-2,-2,1,3,-1,-2,-1,-1
1470345183165435,1,-2,2,7,0,-1,-2,1
1470345183165435,1,2,-1,-5,0,1,-1,-1
1470345183178504,-7,-3,2,1,-2,-3,0,-3
1470345183178504,0,-1,-11,-5,-2,-1,-1,-1
1470345183185452,-1,-1,3,-2,-1,1,-1,0
1470345183185452,-2,-2,9,1,0,-1,-2,-2
1470345183201472,1,0,-2,2,0,1,0,1
1470345183201472,0,-1,-1,-2,-3,0,-1,-2
1470345183203469,-1,-2,-1,-1,-3,-1,-1,-1
1470345183203469,-2,-1,-5,1,-3,-1,-2,0
1470345183224488,4,-2,1,-3,-1,-1,-2,0
1470345183224488,-1,-1,-3,-1,1,-1,0,0
1470345183225489,-2,1,-1,-8,0,0,-1,0
1470345183225489,-3,-8,4,1,-4,-3,-1,-2
1470345183238514,-3,-2,-5,-2,0,0,0,-2
1470345183238514,1,-1,2,6,-2,-1,-2,-1
1470345183245515,0,-1,-4,-10,-1,-1,-1,-1
1470345183245515,-2,0,-4,-2,0,-1,0,0
1470345183261578,2,-1,-5,-5,0,0,-1,1
1470345183261578,-4,0,5,2,-1,-1,0,0
1470345183262536,2,-1,3,4,-2,-3,-2,-4
1470345183262536,-2,1,-7,-5,-2,0,-1,-2
1470345183283587,3,0,7,7,-1,-1,-1,2
1470345183283587,-11,-7,-11,-11,-2,-1,-3,-6
1470345183285558,-1,-1,3,6,-2,-2,-1,2
1470345183285558,0,0,3,0,-1,0,-2,-2
1470345183298672,-4,-2,-14,-4,-2,-2,0,-3
1470345183298672,3,1,3,-4,0,-1,0,2
1470345183305574,-3,-3,4,5,-2,0,-2,-1
1470345183305574,0,-1,-5,-2,-1,1,-1,0
1470345183321603,-4,1,9,7,-2,-1,-1,-2
1470345183321603,3,-4,-9,-4,-1,-1,-1,0
1470345183323590,-3,-2,-3,-2,-1,-1,-1,-2
1470345183323590,2,-1,-1,-5,-2,-2,-1,0
1470345183344232,-1,-1,-4,-6,-2,-1,-2,-1
1470345183344232,-3,-3,-7,-6,-2,-1,-3,-1
1470345183345675,3,-1,9,4,0,-3,-3,-1
1470345183345675,-8,-1,1,1,1,1,-2,-2
1470345183358694,-1,0,-5,1,-1,0,-2,0
1470345183358694,1,0,0,2,-1,-1,0,-2
1470345183364700,-2,0,-5,-7,0,-1,0,1
1470345183364700,5,-1,0,0,-2,-2,0,1
1470345183381773,-10,-2,-3,-3,-2,-1,-1,-3
1470345183381773,-2,-1,6,-4,-2,0,0,-1
1470345183382716,-2,1,-11,1,0,1,-2,-1
1470345183382716,0,0,15,14,1,-3,0,-3
1470345183403734,0,-3,-8,-6,-1,-2,0,0
1470345183403734,-1,-2,-4,-4,-1,-2,0,-3
1470345183406739,-2,-1,-4,1,-1,-1,-1,0
1470345183406739,-3,0,-3,3,-1,0,0,0
1470345183417749,-2,-2,-1,-16,-2,-1,-3,0
1470345183417749,2,3,-1,0,1,-2,-2,-1
1470345183424755,1,-1,-1,-3,-3,-3,0,-1
1470345183424755,-1,-3,2,3,-1,-1,-1,-1
1470345183441807,-3,-2,5,6,-1,-1,-1,-1
1470345183441807,0,1,0,0,-1,1,-1,-2
1470345183443353,-2,-1,-4,0,0,0,0,0
1470345183443353,-5,-4,3,-6,-2,-2,-1,-2
1470345183471878,-4,-1,-4,-3,-1,0,-1,-2
1470345183471878,4,-2,-1,-8,0,-1,1,1
1470345183473869,-7,0,3,9,-1,-1,0,-1
1470345183473869,-2,1,1,10,-2,-1,2,-3
1470345183486919,2,-4,14,7,-2,-3,-2,0
1470345183486919,0,0,-4,-1,-1,-2,-1,0
1470345183486919,4,0,-10,-10,1,-2,1,0
1470345183486919,1,-3,-7,-6,0,0,-2,1
1470345183500948,1,-1,-3,-3,-1,-2,0,1
1470345183500948,-2,-3,0,5,-2,-4,-1,-1
1470345183501894,1,0,3,-3,-3,-1,0,2
1470345183501894,-2,1,-1,3,-1,-2,-1,-2
1470345183522968,2,-2,-5,-1,0,0,-1,-2
1470345183522968,-4,-4,-3,-7,-3,-1,-1,-1
1470345183523914,-1,-1,5,4,0,-1,-3,-3
1470345183523914,-3,-1,0,-2,-1,-1,0,-1
1470345183546487,3,1,7,7,-1,-2,0,-2
1470345183546487,-2,1,-6,-1,0,-2,0,-2
1470345183546487,-2,-2,5,-2,-1,0,-3,-3
1470345183546487,0,-1,-14,-10,0,0,0,1
1470345183560818,-3,-2,0,-6,-1,0,-1,1
1470345183560818,-1,-1,-1,3,0,-2,-2,-3
1470345183561751,-2,-3,12,3,-3,-1,-1,-1
1470345183561751,0,-1,-4,-4,-1,-1,-2,-2
1470345183583773,-2,-2,-5,-1,-1,0,-1,-1
1470345183583773,0,-1,2,5,0,-1,-2,0
1470345183583773,-1,-2,-8,-9,-2,0,1,0
1470345183583773,1,-2,-1,-2,-1,-2,0,1
1470345183606881,-7,-1,6,6,-1,-2,-3,-7
1470345183606881,-2,2,6,-1,-1,0,-1,2
1470345183606881,-2,-5,-8,-6,-1,-3,-1,-1
1470345183606881,0,1,-3,0,-2,-1,-2,-2
1470345183620803,0,2,-2,-1,-2,-1,-2,1
1470345183620803,-2,-2,3,-3,0,1,0,-1
1470345183621805,-1,-1,9,6,0,1,-3,-4
1470345183621805,-1,-1,-11,-13,-3,-2,1,1
1470345183643417,-2,-3,8,1,-2,1,-3,0
1470345183643417,-2,-1,-2,6,-2,-2,-4,-4
1470345183644891,0,-1,-2,-5,-2,-2,0,1
1470345183644891,1,-2,-27,-16,1,2,-1,-2
1470345183665963,0,1,24,12,-1,-1,2,-1
1470345183665963,-2,1,2,4,-2,-2,0,1
1470345183666919,1,-2,-10,-6,-1,1,-3,1
1470345183666919,2,-3,-1,-5,-2,-2,-2,-3
1470345183680931,-2,-3,-14,-6,-1,-3,-1,-1
1470345183680931,0,-3,6,10,0,1,-1,0
1470345183681934,0,0,-2,-5,-2,-3,0,0
1470345183681934,1,1,7,4,0,-1,0,-1
1470345183702951,-1,-7,-9,-6,-3,-1,-2,-1
1470345183702951,1,0,1,-4,0,-2,0,-2
1470345183703952,2,1,-1,0,0,-1,0,0
1470345183703952,-5,-1,10,7,-3,-2,-3,-3
1470345183727064,-1,-1,-8,-2,1,0,0,-1
1470345183727064,-2,-5,-7,-16,-2,-1,-2,0
1470345183727064,-3,-2,-5,4,-1,0,0,-3
1470345183727064,2,1,5,-1,-1,-1,-2,1
1470345183741113,1,2,-9,0,-3,-3,0,-2
1470345183741113,-4,-1,-4,-9,-2,0,-1,-1
1470345183741563,0,-3,10,-5,-3,-1,-2,-2
1470345183741563,1,1,6,16,0,-1,-1,-1
1470345183763142,-1,-3,-15,-14,0,0,0,-4
1470345183763142,0,-4,-1,2,-1,0,-1,0
1470345183764127,-1,1,0,7,-1,1,-1,-2
1470345183764127,-4,-1,5,-1,-2,0,-1,-2
1470345183786151,0,-1,-3,-2,0,0,0,3
1470345183786151,5,0,-5,-5,-1,-1,-1,-3
1470345183787151,-2,-3,-2,-3,0,0,-1,-1
1470345183787151,-2,-2,0,2,-1,-1,-3,0
1470345183801164,-3,-2,-2,-2,1,-1,-3,-3
1470345183801164,-5,-6,0,2,0,-1,0,-3
1470345183802162,-2,0,0,-2,-2,-1,-2,-1
1470345183802162,1,0,-3,4,-3,-1,-1,1
1470345183823269,-2,1,2,-3,-1,-1,0,-3
1470345183823269,-3,1,2,6,0,-1,-1,4
1470345183824208,0,-3,-7,2,-1,-2,-1,-4
1470345183824208,-2,-1,0,-14,-2,-1,-2,-3
1470345183846709,4,4,3,4,0,0,-1,1
1470345183846709,0,1,-1,3,-1,0,0,-3
1470345183846709,-1,-3,-4,0,0,-1,0,1
1470345183846709,-1,-3,0,-3,-1,-1,-1,-2
1470345183860989,-2,-3,-4,9,-3,-1,-2,-2
1470345183860989,-1,1,-3,-8,-2,-1,-1,-1
1470345183861991,-2,1,3,6,-2,-2,0,-2
1470345183861991,-1,2,0,-9,2,1,0,-1
1470345183883009,-2,-1,3,8,-2,0,-2,-2
1470345183883009,-1,-2,-5,-2,-1,0,-1,3
1470345183884018,-2,1,-1,-1,-1,0,-2,-7
1470345183884018,-1,-2,-5,0,-1,0,0,1
1470345183906029,0,-1,5,-4,0,-3,-1,2
1470345183906029,-5,0,0,10,-3,-2,-1,-4
1470345183907029,-2,-4,-6,-4,-1,0,0,1
1470345183907029,-2,-2,-2,1,-1,-1,-1,-2
1470345183921045,1,-2,-2,-3,-2,-1,0,0
1470345183921045,2,-2,-9,-9,-1,-1,-2,1
1470345183921045,1,0,14,18,1,-1,-1,1
1470345183921045,-7,-3,0,-8,-3,-3,-1,-4
1470345183943568,0,-1,3,3,1,0,-1,-1
1470345183943568,-1,1,-3,2,1,-1,1,0
1470345183944070,3,-2,-16,-14,-3,-1,-2,-1
1470345183944070,-4,-3,2,4,1,0,0,0
1470345183966790,-1,0,5,-2,1,1,-1,0
1470345183966790,-1,-2,-8,-12,-7,-4,-3,-3
1470345183966790,2,1,-7,-25,-2,1,-2,-3
1470345183966790,2,2,9,9,0,-2,0,-2
1470345183980800,1,-2,-8,-10,0,-2,-3,-1
1470345183980800,0,0,7,0,0,-1,1,-1
1470345183981798,-3,-1,-5,6,-2,-2,0,2
1470345183981798,1,-1,1,8,0,0,-1,3
1470345184002819,-10,-2,-8,-6,-1,-2,-2,-10
1470345184002819,1,-3,5,1,-1,-1,-1,0
1470345184003819,-2,-1,-4,-4,2,0,-1,0
1470345184003819,-4,-2,-13,-8,-1,-1,0,-2
1470345184026868,2,-4,17,11,-4,-1,0,5
1470345184026868,-4,-4,-4,2,0,-1,-3,-1
1470345184026868,2,1,4,-6,0,-1,0,-1
1470345184026868,11,1,-4,6,-2,-1,-2,-1
1470345184040898,-5,-1,1,-3,0,2,3,-3
1470345184040898,0,0,-3,-4,-1,-1,-1,-4
1470345184041885,-3,-3,-7,0,-2,-2,-4,1
1470345184041885,2,0,1,-4,-3,0,-4,-5
1470345184062955,2,2,-6,1,1,0,1,7
1470345184062955,5,3,6,-1,0,0,2,28
1470345184063960,10,-1,0,-2,-1,-1,2,-13
1470345184063960,-17,-2,-8,-3,-1,0,-6,-3
1470345184086954,-5,-3,12,2,-1,-1,-3,-29
1470345184086954,-4,-9,-12,3,-2,-1,0,7
1470345184086954,1,0,-3,-1,-1,-1,1,-2
1470345184086954,7,-3,2,-6,-3,0,0,13
1470345184100967,-3,2,7,3,0,-2,0,6
1470345184100967,-1,2,4,3,0,0,-2,-11
1470345184101967,-10,-1,-4,3,1,1,-1,3
1470345184101967,5,-2,7,-4,-1,-2,-2,-4
1470345184123038,-4,-11,-17,-11,-1,-2,-1,4
1470345184123038,0,2,19,20,1,0,0,-6
1470345184124036,-5,-2,-5,-2,-1,-2,-1,4
1470345184124036,-2,-1,-12,-6,0,0,1,0
1470345184146557,5,-1,-15,-16,-1,-1,-1,3
1470345184146557,-3,-2,1,-7,-2,-3,-3,-10
1470345184146557,-2,2,14,9,0,0,-1,3
1470345184146557,1,-2,-1,3,1,-1,0,-4
1470345184160947,1,0,-5,5,-1,0,-2,-4
1470345184160947,0,0,-13,-26,-1,-1,1,-2
1470345184161893,-8,2,15,16,1,-2,-3,0
1470345184161893,3,-1,3,0,-1,-2,1,0
1470345184182928,-10,-4,-5,-3,0,-2,-3,-3
1470345184182928,-1,-2,-9,-1,-3,0,-1,-3
1470345184183926,3,-1,2,-1,-3,-1,0,2
1470345184183926,-4,0,6,3,-1,0,1,-3
1470345184205937,1,3,2,-2,-4,0,0,2
1470345184205937,1,-1,-3,-1,0,-1,-2,9
1470345184206934,-5,-2,-1,-8,-1,0,0,-5
1470345184206934,-3,-3,-4,4,0,-2,-1,0
1470345184220946,4,1,2,-3,0,0,-1,0
1470345184220946,-3,0,-3,8,-1,-1,0,-1
1470345184221948,11,-1,-7,-9,-1,-1,-1,1
1470345184221948,-7,0,6,-3,1,0,-1,-2
1470345184243479,3,2,5,13,-1,-1,-3,3
1470345184243479,-1,-2,4,0,0,0,-1,-5
1470345184244474,-2,-1,-5,5,0,-2,-1,0
1470345184244474,-1,0,-9,-16,-2,-1,-1,-5
1470345184266104,4,0,-3,-2,0,-1,0,1
1470345184266104,-9,-4,-4,-10,-2,0,-3,-5
1470345184267056,3,1,12,5,0,-1,0,0
1470345184267056,-1,3,2,7,-1,-2,-1,-1
1470345184281069,-4,-6,-4,-5,-1,-2,0,5
1470345184281069,1,5,4,4,0,0,-2,-19
1470345184281069,-2,-3,-11,-10,-2,0,-2,3
1470345184281069,-3,-4,-7,-8,-2,1,0,-3
1470345184303090,1,4,13,16,-2,-2,-1,-2
1470345184303090,-2,-2,7,3,-3,0,0,2
1470345184311095,-3,-3,-6,-2,-2,-1,-4,-4
1470345184311095,2,2,1,6,1,-1,1,-2
1470345184326168,3,-2,-16,-16,-2,-1,-2,17
1470345184326168,-7,0,-1,-4,-1,-1,-2,-8
1470345184327111,-3,2,21,14,-3,-1,0,-1
1470345184327111,1,-3,-12,-8,0,-1,-3,13
1470345184341146,1,0,10,4,-2,-2,1,-4
1470345184341146,1,-1,-3,0,-1,-3,-3,-1
1470345184341693,-4,-5,-13,-14,-1,-2,-2,-5
1470345184341693,-3,-4,-5,1,-2,-1,0,3
1470345184371260,-4,1,5,-1,-1,-1,-1,-7
1470345184371260,5,-4,11,6,-1,-1,2,0
1470345184372217,5,1,-4,-1,0,-1,-1,13
1470345184372217,-22,-2,3,4,-1,-1,-3,-26
1470345184386267,4,-5,-12,-10,1,0,-2,-1
1470345184386267,0,0,-2,-3,-1,-1,0,-1
1470345184387246,-1,1,0,-4,1,1,-2,1
1470345184387246,6,0,3,8,-2,-2,-1,1
1470345184401221,-2,7,-3,-4,-3,-2,-2,12
1470345184401221,0,1,-14,-8,0,-1,-1,-8
1470345184401221,-1,-6,11,1,-4,-1,-2,-5
1470345184401221,-1,3,10,10,-2,0,-2,0
1470345184423242,-2,-1,-7,-6,-1,-1,2,-6
1470345184423242,0,-1,-4,-5,1,0,0,7
1470345184424243,0,1,-9,0,-1,-1,-2,1
1470345184424243,2,-2,1,-2,0,-1,-2,-2
1470345184447271,-11,-4,-1,-1,-3,1,-1,-4
1470345184447271,1,0,1,13,-1,-3,0,4
1470345184447271,-8,-2,-7,-16,0,-3,1,-13
1470345184447271,4,0,1,-5,-1,-1,-1,2
1470345184461289,3,1,5,23,1,-1,-1,-3
1470345184461289,-4,-2,-11,-40,-5,-3,-3,0
1470345184461289,-3,9,0,-4,0,1,-3,0
1470345184461289,1,-2,0,7,-2,-1,2,5
1470345184483308,1,-4,-3,0,-2,-1,-2,8
1470345184483308,3,0,1,-1,0,0,-1,-8
1470345184484309,-2,-6,3,8,-2,-1,-1,0
1470345184484309,-2,-5,-1,-12,-3,-3,-2,-1
1470345184505329,1,3,-8,-7,0,1,2,1
1470345184505329,0,-1,6,9,-1,1,-1,0
1470345184506330,-1,0,2,-3,1,0,-1,-3
1470345184506330,0,2,4,22,0,0,0,0
1470345184520399,-2,-3,-5,-22,-3,-1,-1,-6
1470345184520399,-1,0,-3,7,-1,-1,-2,1
1470345184528354,-3,-3,-10,-8,0,-1,-1,-2
1470345184528354,0,-1,2,-4,1,0,-2,0
1470345184543444,1,1,2,5,1,-2,-1,-4
1470345184543444,-3,-1,0,-2,-1,1,0,-1
1470345184544431,0,-2,2,1,-4,-2,0,-1
1470345184544431,0,-3,-9,-7,-2,-1,-1,-2
1470345184566472,0,0,2,-10,0,-2,-2,-8
1470345184566472,-3,2,9,14,-1,-2,-2,5
1470345184567473,-1,-4,-8,1,-1,-2,-1,-14
1470345184567473,-2,1,1,-4,-1,-1,-2,1
1470345184589491,-3,-3,-5,-2,-2,-3,-1,0
1470345184589491,4,-3,-3,0,1,-1,-1,-1
1470345184589491,2,-1,0,-3,-1,0,-1,4
1470345184589491,5,1,-6,1,0,0,0,-2
1470345184603579,-2,-1,6,4,1,0,-1,-5
1470345184603579,-2,-2,1,3,-2,-2,-1,2
1470345184603579,2,0,6,12,-1,0,1,1
1470345184603579,-3,-4,-15,-30,-3,-3,-1,0
1470345184626529,0,-2,-4,-6,-3,-2,0,2
1470345184626529,-3,7,2,3,0,-2,-2,8
1470345184627527,-4,-3,-1,-7,0,-1,-3,-12
1470345184627527,-2,-3,0,0,1,-1,1,-2
1470345184640636,-1,0,1,6,0,-2,-1,-5
1470345184640636,-2,-5,-7,-9,-2,0,0,0
1470345184648724,1,2,0,20,2,2,0,15
1470345184648724,1,-2,9,-3,-2,0,0,-2
1470345184663690,0,-4,1,-2,0,-1,0,-3
1470345184663690,0,1,0,9,-1,-1,-3,-1
1470345184663690,-3,-4,-14,-7,-3,-2,1,4
1470345184663690,-4,-1,0,7,-1,-1,-2,-3
1470345184686753,1,-3,-8,-9,-2,-1,0,-2
1470345184686753,-4,0,8,0,1,-1,2,2
1470345184686753,-2,-2,-2,0,-1,-2,-2,0
1470345184686753,-7,-2,-1,-9,-4,-3,-2,-1
1470345184699723,0,0,8,11,0,0,-1,0
1470345184699723,-3,-4,-11,3,-1,-2,0,-6
1470345184708731,-2,-1,-7,-11,-2,0,0,-5
1470345184708731,-1,-1,2,-1,-1,-2,1,1
1470345184723744,1,1,1,1,-2,-2,-2,2
1470345184723744,-2,0,13,11,-2,-2,-1,-7
1470345184723744,-1,-2,-3,-13,-4,-2,0,0
1470345184723744,0,0,-6,-1,0,-1,-3,-7
1470345184746861,-2,0,-8,-5,0,0,-1,-3
1470345184746861,-1,-1,-6,-9,-4,-1,-1,11
1470345184747304,1,-1,15,6,-1,-3,-2,-18
1470345184747304,2,1,-2,13,-1,0,0,3
1470345184760649,0,-1,-3,2,-1,-1,-1,0
1470345184760649,0,-2,-15,-11,1,0,1,-6
1470345184768655,-3,0,13,1,-1,0,-1,8
1470345184768655,6,1,5,1,-1,-1,0,0
1470345184783666,-8,-5,-7,0,-1,-2,-2,-8
1470345184783666,-1,-4,2,3,-2,0,0,-1
1470345184783666,0,-2,-17,-11,1,-2,-2,2
1470345184783666,0,2,9,7,-3,-2,-4,-4
1470345184806738,0,-2,-4,-13,-1,1,-1,3
1470345184806738,-1,-6,6,20,0,-1,0,-2
1470345184806738,-5,-1,-20,-31,-3,-1,1,-1
1470345184806738,1,8,9,0,0,0,1,2
1470345184819741,0,2,-1,11,-1,0,-2,-2
1470345184819741,-3,-4,6,-6,2,-1,-1,10
1470345184828846,1,2,1,8,1,-1,-1,-4
1470345184828846,-3,-5,-8,-5,0,0,-3,-2
1470345184843357,0,-3,-8,-14,-2,-2,0,-1
1470345184843357,3,1,0,-3,-2,0,-1,1
1470345184844304,-1,-2,9,11,0,-3,-1,-1
1470345184844304,-2,-4,-5,-8,-2,-1,-1,2
1470345184866875,-4,-1,1,10,0,0,1,2
1470345184866875,7,1,3,-2,-3,-1,-4,-8
1470345184866875,-10,0,0,-11,-3,-1,-1,-2
1470345184866875,-1,-2,-8,14,0,1,0,-1
1470345184888934,-3,-2,8,-9,2,-2,-4,6
1470345184888934,-2,-2,-13,-2,-1,-1,0,-14
1470345184889880,3,0,-3,-2,-2,-2,2,4
1470345184889880,1,-1,14,4,-2,-3,-3,14
1470345184902950,-7,-1,-1,-3,-2,-1,-1,-12
1470345184902950,0,0,-2,-5,-1,-1,-2,1
1470345184903900,1,-2,-4,1,2,1,-1,0
1470345184903900,-4,-4,-9,-10,-2,-3,0,0
1470345184926953,2,3,5,9,0,0,0,1
1470345184926953,-3,-1,-1,-11,-3,0,-1,-4
1470345184926953,1,-2,-1,6,-1,-2,-1,-1
1470345184926953,2,2,-6,-6,0,-1,-2,-4
1470345184949000,-1,-2,0,-1,-1,-2,-1,-1
1470345184949000,-1,-3,-7,-4,-1,-2,-1,-7
1470345184949974,5,2,13,1,4,1,-1,3
1470345184949974,-7,2,7,12,0,-1,-3,-7
1470345184962987,-4,-6,-14,-20,-4,-2,-3,9
1470345184962987,-1,0,-5,11,-1,-2,-2,-14
1470345184964988,-2,-1,-5,-18,0,-1,-1,15
1470345184964988,2,-2,-10,-1,-2,1,-1,-16
1470345184987098,2,0,8,4,-2,1,1,-2
1470345184987098,-6,1,1,3,3,1,1,6
1470345184987098,0,-3,-4,11,-4,-1,-1,0
1470345184987098,-3,-3,0,-6,-2,0,0,-4
1470345185009081,1,-6,-15,-9,0,-2,1,0
1470345185009081,-1,4,11,-5,-3,1,-1,1
1470345185010062,2,4,17,30,-1,-1,-4,-9
1470345185010062,-11,-9,-12,-21,-1,-1,-1,5
1470345185023038,4,0,6,20,-3,-2,-1,-4
1470345185023038,3,-5,-17,-36,-3,-1,-1,2
1470345185024090,-13,-3,-7,-4,-2,-1,0,-3
1470345185024090,1,1,16,5,-1,-2,1,0
1470345185046579,1,0,-11,-3,0,-2,-2,1
1470345185046579,-1,-1,16,7,0,0,-2,-11
1470345185047565,4,5,-4,-3,-1,0,-1,0
1470345185047565,-4,-11,2,-5,-6,-5,-1,-2
1470345185069126,8,-1,5,-1,-2,-1,-1,-7
1470345185069126,-20,-5,-11,3,-2,-2,-1,5
1470345185070090,3,-1,3,0,0,-1,-2,-2
1470345185070090,6,5,0,-12,1,0,-1,2
1470345185083103,-3,4,18,32,-4,-2,-1,2
1470345185083103,8,-2,-12,-19,-1,-2,-1,-1
1470345185084152,-10,-7,-9,5,0,1,0,-4
1470345185084152,-3,-2,-8,-14,-1,-1,-1,2
1470345185106124,5,0,6,5,-2,-1,-1,-2
1470345185106124,2,0,-5,1,-2,0,1,0
1470345185107124,-11,-8,-2,-6,-6,-3,-1,-6
1470345185107124,7,1,0,6,3,1,1,-1
1470345185129143,-6,0,-3,-2,1,-2,-1,7
1470345185129143,-3,2,2,2,-1,-1,-3,-17
1470345185130145,4,-3,-14,-9,-1,-1,1,2
1470345185130145,0,-5,4,6,-3,0,0,4
1470345185143721,-6,-1,-10,-5,-3,0,-4,-19
1470345185143721,1,1,8,3,-1,-1,2,7
1470345185144165,1,1,5,-6,0,0,-3,-1
1470345185144165,0,2,-4,2,2,0,-1,-6
1470345185166267,-4,-8,-4,9,-2,-1,-1,-1
1470345185166267,2,1,-9,12,0,-1,-1,5
1470345185167219,-1,1,10,-9,-3,-4,-2,-5
1470345185167219,-1,0,9,18,-1,0,0,4
1470345185195276,-5,-12,-10,-14,3,0,-2,0
1470345185195276,-1,3,7,-5,-4,-1,0,2
1470345185204265,2,-2,-9,0,-3,-1,0,3
1470345185204265,0,0,-20,-8,-3,-2,-2,-2
1470345185206253,2,7,32,4,3,0,-1,8
1470345185206253,-3,-5,-16,4,-3,-1,-4,-18
1470345185207261,6,-15,6,-10,-1,0,0,-2
1470345185207261,-20,0,-16,-22,-5,-4,-1,-2
1470345185226283,1,-5,-3,17,7,3,2,-3
1470345185226283,3,-3,1,-6,0,-3,0,16
1470345185227272,3,0,-10,-11,-3,0,-4,-21
1470345185227272,3,-2,-6,2,-1,-1,-1,-4
1470345185249336,-1,0,0,-10,-6,-1,-1,1
1470345185249336,-2,-5,-3,-3,3,1,-1,3
1470345185249336,-3,9,6,14,0,-2,-2,3
1470345185249336,4,-14,-29,-10,0,-1,-1,2
1470345185263382,-9,8,3,-9,-2,-3,-1,-4
1470345185263382,6,3,6,8,0,1,-1,2
1470345185270357,-2,-5,-8,-8,-4,-3,0,2
1470345185270357,0,7,4,10,2,0,-1,-1
1470345185286460,-2,-6,5,-6,0,-3,-1,1
1470345185286460,-2,-2,0,1,0,0,0,-1
1470345185287373,1,2,4,22,5,1,1,4
1470345185287373,-10,-1,9,-13,-2,-1,-2,-1
1470345185309391,13,-1,-13,7,-6,-2,-1,-2
1470345185309391,-4,-6,6,-24,6,0,0,0
1470345185309391,-5,2,-3,20,1,1,0,1
1470345185309391,5,-2,-16,-12,-1,-3,-1,-2
1470345185323432,-6,0,-1,-11,-4,-1,1,-3
1470345185323432,4,1,4,12,-6,-3,-2,-1
1470345185324404,0,-2,-1,-10,0,-2,-2,3
1470345185324404,0,10,13,18,4,1,1,-2
1470345185346521,-3,-2,-9,-9,1,0,0,-2
1470345185346521,0,-1,0,-7,-3,0,-1,1
1470345185347522,-3,-1,1,1,-4,-1,-1,-1
1470345185347522,-2,-1,13,13,2,2,0,0
1470345185368603,3,3,-6,-7,-3,-2,-2,-1
1470345185368603,-8,-4,-13,8,4,-2,-1,-1
1470345185369560,-6,-3,11,-2,-4,-1,0,-1
1470345185369560,3,-2,-2,-7,-4,-3,-1,0
1470345185383570,-4,0,-12,1,4,1,1,2
1470345185383570,-1,1,-6,-8,-2,0,0,0
1470345185384574,2,-3,-10,-6,2,-1,-1,0
1470345185384574,6,-2,11,0,-2,-1,-1,-3
1470345185406593,1,3,9,9,-2,-1,0,14
1470345185406593,-6,-4,-4,-8,-7,-1,-2,-13
1470345185407593,1,-7,-8,-4,-1,0,-1,0
1470345185407593,2,1,38,16,-3,-1,0,0
1470345185428616,-5,-4,-22,-19,3,1,1,-2
1470345185428616,4,-3,-1,-9,-6,-4,0,5
1470345185429612,4,6,-5,11,0,0,0,1
1470345185429612,-6,-1,3,-8,1,0,0,-2
1470345185442631,0,-2,3,-2,-5,-2,-2,-5
1470345185442631,1,0,1,13,1,0,0,2
1470345185451195,-2,-7,-9,-19,-2,-2,-1,-4
1470345185451195,1,9,2,9,-1,-1,-1,0
1470345185481223,-2,1,1,3,0,-2,-2,0
1470345185481223,-3,-4,-9,-5,-1,-1,-3,-17
1470345185482222,-11,-5,8,1,-2,-3,-2,1
1470345185482222,1,-1,-2,0,-2,-2,-1,-1
1470345185489228,4,-1,-11,-1,-2,-1,-1,-4
1470345185489228,0,3,2,-5,0,-1,-2,5
1470345185490229,10,3,7,2,-1,-1,0,1
1470345185490229,-5,-8,-5,-13,-5,-1,-3,-5
1470345185502240,3,-4,-7,0,-1,-1,-2,-4
1470345185502240,-5,-1,5,9,-1,-2,1,2
1470345185511248,0,0,-12,-16,-2,-1,0,-3
1470345185511248,-4,-6,-9,-3,-2,-2,-2,1
1470345185526264,-2,2,21,5,0,-1,-2,-3
1470345185526264,1,4,2,7,0,2,0,1
1470345185527262,-6,-1,5,5,3,1,0,-1
1470345185527262,1,-1,-7,5,1,-1,-3,0
1470345185548791,-3,-3,8,-2,-3,-3,0,0
1470345185548791,0,-2,-5,-5,0,-3,-2,0
1470345185549791,-1,1,3,-2,-2,-1,1,1
1470345185549791,-2,-5,-10,-24,-3,0,0,1
1470345185562818,-1,-5,-3,17,-3,-1,-2,-4
1470345185562818,4,1,2,-1,1,-1,-1,3
1470345185570857,-9,-2,0,-3,-2,0,-1,-1
1470345185570857,-3,-1,4,4,-2,-1,-1,-3
1470345185586824,-4,0,-18,-5,0,-1,1,-2
1470345185586824,4,-3,4,-16,-1,-3,0,1
1470345185586824,3,3,-3,8,-1,-2,-2,0
1470345185586824,-3,-5,-1,1,-2,0,0,-1
1470345185608873,-1,5,-1,-14,-1,0,0,0
1470345185608873,-3,-3,9,17,0,2,-1,0
1470345185609846,-4,-6,4,1,-3,-2,-3,-2
1470345185609846,10,4,-15,1,4,0,1,3
1470345185622874,-6,-6,15,-6,-4,-3,-3,-2
1470345185622874,-3,0,6,-1,-1,-2,-3,-2
1470345185630880,-4,4,1,0,-1,-1,-2,-1
1470345185630880,1,-3,-7,12,0,-1,0,1
1470345185646910,1,1,-5,-19,-2,1,0,-2
1470345185646910,-3,-2,3,1,-3,-1,1,-1
1470345185647413,2,0,-4,-1,5,2,-1,0
1470345185647413,-4,-4,3,-2,1,-1,-2,0
1470345185668713,-7,-4,8,6,-3,-1,-4,-3
1470345185668713,-2,4,9,2,0,-1,-1,1
1470345185669697,2,-9,-8,2,-4,-2,-1,-1
1470345185669697,3,7,12,10,-1,-1,0,-1
1470345185682753,-4,-13,-30,-17,2,-4,-3,-2
1470345185682753,1,3,14,-5,-1,-1,0,0
1470345185690734,0,1,2,12,0,-1,-1,-2
1470345185690734,-4,-1,-6,-8,0,-2,0,-2
1470345185706731,-4,-15,-5,7,0,0,1,-1
1470345185706731,2,10,-18,-3,-2,-1,1,1
1470345185706731,2,14,-10,-10,0,-1,0,0
1470345185706731,-6,-10,17,-5,-4,-2,-2,-3
1470345185728796,-1,0,6,5,0,-1,-1,-1
1470345185728796,-1,-7,-7,-6,-1,-3,-1,1
1470345185729802,4,-1,-7,-5,-5,-1,1,-1
1470345185729802,-18,-3,-14,3,-1,1,-1,-3
1470345185742858,3,6,13,-10,0,1,1,1
1470345185742858,-3,-7,-9,3,1,-1,-1,-3
1470345185750964,-1,1,-15,-12,-2,-2,-1,-1
1470345185750964,7,1,3,2,1,-2,1,-1
1470345185767032,-3,-4,0,-4,-2,-2,-2,-1
1470345185767032,5,1,0,7,-3,-1,-2,-1
1470345185767032,-20,-1,-6,5,-5,-3,-2,-3
1470345185767032,5,-2,-4,-34,-4,0,-2,0
1470345185788942,-1,5,11,4,-4,-1,0,2
1470345185788942,-3,-1,11,19,1,0,0,-2
1470345185789944,5,-4,-1,-6,1,-1,-1,-4
1470345185789944,-10,-6,-13,-6,-2,0,-2,-1
1470345185811966,1,5,-6,8,2,1,2,1
1470345185811966,-2,0,-2,-11,-4,-1,-2,-2
1470345185811966,3,-9,3,-1,3,0,-1,-3
1470345185811966,0,10,4,8,1,-2,1,15
1470345185826046,6,-2,2,-1,2,0,-3,-16
1470345185826046,-7,-7,-9,-8,-3,0,-1,1
1470345185826978,4,-2,16,0,-3,-1,-1,-1
1470345185826978,7,2,-1,7,1,-2,-2,-3
1470345185849088,-25,-4,-7,7,-1,1,-2,1
1470345185849088,2,-3,-11,-12,2,-2,-3,-1
1470345185850067,3,-3,1,-13,-1,0,-1,0
1470345185850067,12,-1,20,12,-2,0,-2,-2
1470345185872097,5,3,-13,7,-3,0,-1,1
1470345185872097,-5,-6,-5,0,1,-1,-2,-6
1470345185872097,-9,6,-1,-8,-4,-2,0,0
1470345185872097,-1,-4,-9,-12,4,1,-1,-3
1470345185886141,13,7,10,16,1,-1,1,1
1470345185886141,-2,-2,-2,-6,-1,0,0,1
1470345185886141,2,4,6,12,2,0,0,0
1470345185886141,-2,1,13,-8,-5,-3,0,-4
1470345185908209,1,-14,0,-2,-4,-3,-1,-4
1470345185908209,-14,2,-11,-3,-3,-2,-2,-2
1470345185916184,7,1,9,-4,-1,-3,-3,1
1470345185916184,1,-5,-23,-3,-2,0,-2,-1
1470345185931194,9,4,10,3,2,-1,-2,4
1470345185931194,-10,0,14,-1,3,0,0,-3
1470345185932168,-7,-7,-2,10,1,-3,-2,-2
1470345185932168,0,1,-7,2,-3,1,-1,-1
1470345185946179,2,1,-8,-14,-7,-3,-2,-1
1470345185946179,-2,0,8,-9,0,-2,0,6
1470345185946661,13,-1,-11,3,-1,0,-1,2
1470345185946661,-11,-2,18,11,2,-2,-1,-3
1470345185969143,-6,-3,-2,-12,-6,0,0,-2
1470345185969143,14,3,9,12,-4,0,1,-2
1470345185970144,-7,-4,-26,-15,2,1,0,2
1470345185970144,-5,-8,11,-3,-2,-3,0,-3
1470345185991262,5,9,6,-2,1,0,-1,0
1470345185991262,-2,-5,-4,-4,-2,0,-2,0
1470345185992193,1,-3,-3,7,-6,-2,-2,-2
1470345185992193,-2,-2,-13,-8,-3,-4,-4,-1
1470345186005281,-8,-1,1,0,5,-1,-1,1
1470345186005281,8,0,-12,3,2,1,1,0
1470345186014183,-5,-10,7,-5,1,-1,0,-5
1470345186014183,-2,-1,4,14,-2,-2,-3,13
1470345186029196,3,3,-4,-8,-1,-1,-2,-6
1470345186029196,-3,1,-4,-7,-4,-2,-3,-1
1470345186030198,-12,0,-2,-7,-3,1,-1,-3
1470345186030198,-3,4,0,-2,-3,-1,0,-3
1470345186051141,7,-12,1,10,1,1,0,4
1470345186051141,-3,-2,-15,13,0,-1,-1,0
1470345186053141,-1,4,19,-16,1,0,1,-1
1470345186053141,8,-1,-19,2,-2,1,1,-3
1470345186065151,-6,-2,-12,-6,-2,-2,0,1
1470345186065151,-7,1,14,-4,-1,0,0,-3
1470345186074159,9,-7,-15,6,-3,-1,-1,1
1470345186074159,-1,2,1,-3,4,1,-1,-9
1470345186089294,-6,1,-3,-12,-4,-1,0,1
1470345186089294,5,-6,-5,9,0,0,-2,3
1470345186090174,-4,1,8,13,1,-1,0,-1
1470345186090174,0,-4,-6,-11,-4,-2,1,-1
1470345186111258,0,5,8,-7,-1,-1,0,0
1470345186111258,3,5,13,-11,-3,-1,1,-1
1470345186113195,7,-2,-17,31,5,-1,-1,-1
1470345186113195,-19,-1,-13,-22,-2,-1,0,-4
1470345186125213,-7,-3,17,7,1,-2,-2,-1
1470345186125213,9,4,1,-9,0,-1,0,-3
1470345186134225,-8,-2,4,-8,-5,-1,-1,-3
1470345186134225,2,4,31,24,-1,0,-1,-1
1470345186148809,-2,0,-27,-13,-3,0,0,-1
1470345186148809,-3,-7,6,8,-1,-2,-1,-3
1470345186150156,4,3,0,-6,-2,1,-3,1
1470345186150156,-1,-2,-19,-7,0,0,-2,-1
1470345186171262,-5,-4,14,0,-4,-3,-2,-4
1470345186171262,3,-1,-15,-5,-3,-2,-1,13
1470345186173176,-2,0,14,2,-6,-5,-4,-18
1470345186173176,1,-4,-5,-9,5,1,-1,0
1470345186185202,4,-2,-4,22,0,0,-1,-1
1470345186185202,-8,-5,-1,-14,-6,-3,-1,-3
1470345186194195,-4,0,-7,-5,-3,-1,1,4
1470345186194195,2,1,12,-11,-1,0,-3,1
1470345186209209,3,0,-14,-2,-4,0,1,-2
1470345186209209,-5,-4,-3,3,2,0,0,-6
1470345186210209,-7,-6,21,2,-5,-5,-3,-1
1470345186210209,12,0,-21,3,0,-1,1,-2
1470345186231243,-16,-2,-4,-4,0,-1,0,1
1470345186231243,-1,-4,-3,-2,-1,1,-4,-1
1470345186233231,-1,0,-9,-7,3,0,0,1
1470345186233231,3,-1,3,6,-1,-1,0,1
1470345186245247,1,0,-2,-3,-2,-2,-2,0
1470345186245247,-2,-1,-1,4,1,-2,0,-3
1470345186254089,-1,5,2,-5,3,-1,-1,0
1470345186254089,-6,-11,-11,1,-1,-2,-2,-2
1470345186269101,0,-2,-2,-10,-1,0,0,0
1470345186269101,2,-1,9,9,0,-1,-2,-5
1470345186270103,9,3,7,16,1,0,-1,3
1470345186270103,-8,5,-4,-14,-5,-3,-2,-3
1470345186291156,-3,-7,-9,-7,4,0,-1,-1
1470345186291156,0,-5,-6,-10,0,-3,-2,-1
1470345186293124,-2,-3,0,-10,0,-2,-2,-1
1470345186293124,0,0,2,14,-3,-4,-2,-1
1470345186305134,3,8,8,3,-1,-2,-1,-2
1470345186305134,-1,-2,1,10,0,1,0,0
1470345186314141,-4,15,14,-2,1,0,-1,1
1470345186314141,1,-3,-7,2,-1,0,0,-2
1470345186329156,-3,-2,0,-7,1,2,-2,-1
1470345186329156,0,-1,-17,0,0,-1,-1,0
1470345186331192,0,-7,15,5,-2,0,-1,1
1470345186331192,-10,0,13,-10,-2,0,-1,-2
1470345186351223,7,2,4,11,0,-1,0,2
1470345186351223,1,-1,-12,-9,-3,-2,0,-2
1470345186353171,-13,-7,-6,-9,0,-2,-1,-5
1470345186353171,5,-1,-9,-13,-3,0,0,2
1470345186365216,8,-3,6,11,-3,-2,-1,1
1470345186365216,-7,-1,4,-10,-2,-1,-2,-3
1470345186374185,3,2,-19,3,-1,0,-1,1
1470345186374185,1,0,20,4,-2,-1,0,-2
1470345186389263,-2,4,-6,-17,0,1,0,-1
1470345186389263,1,-9,4,10,-1,-3,-1,-1
1470345186390199,1,-2,-1,-8,-2,-3,0,2
1470345186390199,0,-1,-3,1,0,-1,-1,-2
1470345186411234,-5,-4,-8,13,0,0,0,1
1470345186411234,-4,-2,-2,-15,3,1,-1,-2
1470345186413220,5,0,0,-6,-3,1,-1,0
1470345186413220,0,3,2,12,0,-3,0,0
1470345186425288,-4,-7,3,-2,-1,-1,-1,-2
1470345186425288,-1,1,-3,3,-2,0,-1,-1
1470345186434243,-2,0,-9,-2,-1,1,1,0
1470345186434243,1,-4,-5,-1,0,2,1,-2
1470345186448781,-1,-2,3,2,-2,-3,-2,-2
1470345186448781,-3,3,7,-8,4,-1,-2,-1
1470345186450132,3,-3,-20,-4,-1,0,0,0
1470345186450132,6,-3,-1,-1,-3,0,-2,-1
1470345186471153,-22,-3,23,0,-4,-3,-2,-3
1470345186471153,1,0,-2,-4,-1,-1,0,0
1470345186473155,1,-2,1,12,-2,-2,-1,0
1470345186473155,-2,-4,-23,-15,-3,-3,-2,-1
1470345186485164,10,0,-10,-7,-1,1,1,-1
1470345186485164,0,3,24,9,-2,-1,0,-1
1470345186494193,-6,-4,-5,-3,-3,-2,-2,-2
1470345186494193,4,-1,-2,5,2,0,1,0
1470345186509240,8,2,-8,-5,-2,-4,-3,0
1470345186509240,-5,-5,-5,-5,2,-2,-1,-2
1470345186510186,5,1,3,5,0,-1,0,1
1470345186510186,-29,-7,1,1,0,-2,-4,-4
1470345186531282,3,-9,-5,-5,0,0,-1,-3
1470345186531282,5,3,-3,11,-4,-2,-1,0
1470345186533207,-9,-12,-2,4,4,0,0,-2
1470345186533207,-10,1,11,-16,-4,-2,-2,-1
1470345186545264,0,6,8,1,4,0,-2,1
1470345186545264,3,4,-16,5,0,1,1,0
1470345186553881,0,-11,-37,-20,-2,-2,-1,0
1470345186553881,13,6,17,16,-3,-2,-1,1
1470345186568905,-22,-6,-1,-8,-6,-3,-1,-4
1470345186568905,9,0,-1,-3,-2,1,-1,1
1470345186570887,-9,-1,8,-3,-2,-1,-1,-1
1470345186570887,-4,-4,-17,2,1,-4,-1,-1
1470345186591906,5,3,3,-12,-3,-3,-1,-1
1470345186591906,-3,-4,3,8,-1,0,0,0
1470345186592907,-2,-2,-9,-8,-1,1,-2,-1
1470345186592907,6,-1,5,-3,5,2,1,-2
1470345186604946,-6,3,7,31,0,0,0,-2
1470345186604946,7,-5,-12,-32,-1,-3,-2,-1
1470345186613929,-4,2,21,10,-4,-3,-2,1
1470345186613929,4,0,1,-3,2,0,0,1
1470345186628985,2,-4,-8,3,0,-1,0,0
1470345186628985,-4,-2,-8,-4,-6,-1,-2,-3
1470345186630958,6,2,9,3,0,-3,-2,-3
1470345186630958,-4,4,-7,4,1,0,-2,0
1470345186652056,5,0,6,7,1,0,-1,2
1470345186652056,-7,-1,5,4,-1,-1,0,-1
1470345186653054,2,-1,-16,-27,-1,0,-1,-3
1470345186653054,3,1,9,-3,-5,-3,-1,-2
1470345186665150,-1,3,-10,-7,-1,0,-2,2
1470345186665150,0,-1,12,12,-4,-1,-1,-2
1470345186674074,-1,-7,-7,5,2,-1,-1,-4
1470345186674074,13,3,10,1,-2,-2,0,2
1470345186689086,-3,-17,-15,-20,-3,-2,-1,0
1470345186689086,1,5,-2,-4,0,-3,-1,0
1470345186690088,0,3,7,4,-2,0,0,-1
1470345186690088,-3,0,9,15,-4,-3,-1,-2
1470345186711106,-4,3,6,-6,1,-1,-2,-3
1470345186711106,-1,-6,-7,5,-1,-1,-1,-1
1470345186715110,0,-4,-5,-10,-3,-1,-2,-1
1470345186715110,-3,-2,1,3,0,-1,0,1
1470345186725118,4,10,2,-10,-6,-2,-2,-2
1470345186725118,-7,-14,-13,-9,2,-2,-1,-4
1470345186734173,0,6,17,-1,-2,-1,-1,0
1470345186734173,-1,1,-6,15,-2,1,0,-3
1470345186748705,4,1,6,-2,-1,-1,1,-1
1470345186748705,-6,1,-3,-11,-4,-2,-2,1
1470345186750765,-3,-2,2,5,4,1,0,1
1470345186750765,-3,0,-10,-6,-1,-4,-3,-1
1470345186771851,7,-7,6,4,1,0,1,1
1470345186771851,3,-2,15,-3,-2,1,-1,1
1470345186772784,-4,5,-7,2,-1,-2,-1,-3
1470345186772784,-6,-3,-21,-5,3,-1,0,-1
1470345186793851,-4,0,3,0,-2,-4,-1,-3
1470345186793851,0,0,11,3,-3,0,-1,-1
1470345186795807,2,-2,2,3,-2,-2,-1,1
1470345186795807,0,-5,-9,-6,2,1,0,-2
1470345186808861,3,-1,-8,-3,-1,-1,-2,-1
1470345186808861,-5,7,2,18,-2,-1,1,-1
1470345186810818,-2,-10,4,-19,-4,-1,-2,-2
1470345186810818,3,-2,0,9,0,-1,-2,0
1470345186831837,3,1,-21,-15,-2,0,0,1
1470345186831837,1,2,-3,-6,0,-2,0,-1
1470345186832838,-20,-6,-7,21,1,-3,-2,-1
1470345186832838,4,-1,-7,-29,-3,-1,-1,0
1470345186854387,-10,-4,5,11,2,-1,-1,-2
1470345186854387,5,-4,-9,-10,-3,-1,-1,-1
1470345186855385,12,11,2,3,1,-1,0,1
1470345186855385,-15,-14,-10,-3,-3,-3,-1,-3
1470345186869403,0,3,7,3,-3,-1,0,-2
1470345186869403,-8,-4,-5,-1,-1,-1,-1,-1
1470345186870400,7,1,1,0,-1,1,0,0
1470345186870400,-5,-4,11,-9,-4,0,-1,-2
1470345186891418,7,3,8,11,2,0,0,3
1470345186891418,2,-2,-8,1,-2,-1,-1,-2
1470345186893422,-1,-5,-5,-8,-1,0,-2,0
1470345186893422,-3,6,21,-6,-5,-1,0,-3
1470345186914441,-2,-4,-21,-8,-4,-2,-1,-1
1470345186914441,-3,-3,12,18,5,-2,-1,-1
1470345186915441,0,3,-5,0,-2,-3,-1,1
1470345186915441,11,-1,-7,-3,4,1,-1,0
1470345186928494,-10,0,6,2,-4,-2,-2,-2
1470345186928494,3,-6,-10,-14,-1,0,-1,0
1470345186935501,0,-6,-1,6,-2,-2,-3,-2
1470345186935501,1,-6,1,2,-2,-1,0,0
1470345186951605,0,3,-1,5,1,-2,-1,0
1470345186951605,-9,-2,1,2,-1,-1,-4,-3
1470345186953576,0,-3,-15,-21,-4,-4,1,-2
1470345186953576,-8,0,16,9,1,-1,-1,-2
1470345186973651,10,0,-10,-3,0,-2,-1,0
1470345186973651,6,-3,1,-1,-2,-1,0,1
1470345186975596,-2,4,6,5,2,0,0,-2
1470345186975596,-7,-9,-22,-5,-2,-2,-1,-2
1470345186988634,-3,3,11,-5,-3,-1,0,-2
1470345186988634,2,-6,6,12,-3,-4,-1,-2
1470345186995713,-11,-3,-3,-8,-1,-1,-1,-2
1470345186995713,-5,0,-16,-6,1,0,-1,-2
1470345187011682,-2,-13,0,-7,-2,-1,-2,-1
1470345187011682,2,27,10,7,1,0,2,1
1470345187012627,-6,-1,16,-6,2,0,1,1
1470345187012627,4,3,-28,1,0,-1,-2,1
1470345187034252,8,-4,-15,-13,-4,-1,1,1
1470345187034252,-11,-9,10,19,-1,-2,-3,-6
1470345187035710,12,11,-20,-7,1,0,-1,3
1470345187035710,-15,3,19,3,0,0,-1,-2
1470345187048223,-4,-3,-15,-3,-1,0,-1,-3
1470345187048223,-1,0,-30,-15,-5,-4,-1,-2
1470345187056713,-8,-9,34,6,-4,-2,-3,-2
1470345187056713,11,-3,1,8,0,-3,0,1
1470345187071758,-3,4,-3,-2,-2,-1,-1,-2
1470345187071758,-2,-4,8,-4,2,-1,0,1
1470345187072728,2,0,-18,2,0,1,1,-3
1470345187072728,-1,4,15,2,1,0,0,1
1470345187093748,-4,-13,-17,-1,-1,0,-2,-1
1470345187093748,0,2,-3,-12,-1,0,-2,-3
1470345187095750,-15,-6,4,6,0,0,-2,-5
1470345187095750,-4,5,-2,6,1,-1,-1,2
1470345187107810,11,4,2,-13,1,0,-1,-1
1470345187107810,-4,-7,8,5,-3,-2,-3,-1
1470345187116769,5,-2,-14,7,0,-4,-2,-1
1470345187116769,-5,-2,10,-8,-3,0,0,-3
1470345187131798,2,0,7,6,1,0,1,-1
1470345187131798,-2,1,-1,-17,-3,-3,-2,1
1470345187132783,5,7,2,4,-1,-2,-1,0
1470345187132783,8,6,10,11,-3,-2,-2,-2
1470345187154431,-6,2,2,-1,0,-1,-2,0
1470345187154431,1,-6,-10,2,2,3,2,-1
1470345187155412,-2,-3,-9,0,-2,1,-1,0
1470345187155412,1,-4,-9,-17,-2,-1,0,1
1470345187168443,-5,1,12,2,-3,0,0,-2
1470345187168443,-4,7,-4,-9,1,0,-1,-3
1470345187175505,3,-1,16,18,0,-1,-1,2
1470345187175505,4,-9,-6,-17,-5,-3,-3,-4
1470345187191520,-25,4,-11,-5,-2,1,-3,-5
1470345187191520,0,-4,4,7,-1,-2,-1,1
1470345187193461,9,-2,-12,-28,-5,-1,-1,-2
1470345187193461,6,1,9,11,0,-1,0,3
1470345187214511,-3,-2,-1,-4,-2,-1,-2,0
1470345187214511,2,-12,-21,8,0,-1,0,0
1470345187215465,-4,23,24,1,-2,-1,-2,-3
1470345187215465,-3,-6,-12,10,-2,-1,0,-1
1470345187228478,3,-8,-5,-26,-3,-2,-2,-1
1470345187228478,-4,-1,0,6,1,0,-1,-1
1470345187235490,0,-8,2,-4,-2,0,0,-2
1470345187235490,-1,-3,-24,-10,0,-1,-2,-1
1470345187251687,3,3,8,18,0,-2,-1,1
1470345187251687,0,3,13,-1,-2,-2,-2,0
1470345187252665,-1,-11,-13,-4,-1,-2,-1,0
1470345187252665,-1,4,7,-7,1,1,0,0
1470345187273684,-1,-1,6,11,2,-1,-1,-3
1470345187273684,2,1,-9,-1,-2,-1,-1,0
1470345187275686,-4,-5,-2,-3,2,0,-1,-1
1470345187275686,-6,-2,14,5,-2,0,-2,-1
1470345187287740,2,0,-1,1,-2,-2,0,-1
1470345187287740,0,0,17,6,0,-1,0,-2
1470345187296707,-4,1,2,0,-2,-2,-1,-1
1470345187296707,0,-4,-20,-10,-1,-3,-1,-2
1470345187311789,-1,-3,16,3,0,0,0,1
1470345187311789,-1,15,-24,-13,-1,-1,0,-1
1470345187312719,3,-4,-1,0,-4,-3,-1,0
1470345187312719,-1,1,3,3,0,0,0,0
1470345187334251,-2,-4,9,3,0,-3,-1,-1
1470345187334251,-2,-9,0,1,0,-2,-3,-3
1470345187335752,0,-2,-13,-7,0,0,0,-2
1470345187335752,0,5,3,2,-1,-2,-3,-1
1470345187347818,-1,2,-2,6,-1,-1,-1,-2
1470345187347818,-7,-5,-1,-10,-3,0,1,-1
1470345187363036,-3,-3,-2,5,-2,-1,-3,-2
1470345187363036,-1,0,2,-3,-1,-2,-1,-3
1470345187371994,4,-5,-19,-9,0,-1,1,0
1470345187371994,0,-1,6,3,-2,-3,-2,-2
1470345187372991,-2,-6,-1,2,0,-2,1,-1
1470345187372991,-2,-3,1,-1,-2,1,-1,-1
1470345187394012,-1,-1,-13,-3,-1,-1,-1,-1
1470345187394012,0,1,18,3,0,-1,-1,1
1470345187395011,-3,-6,-9,-6,-2,0,-2,-1
