timestamp,emg1,emg2,emg3,emg4,emg5,emg6,emg7,emg8
1470243806810250,3,6,11,4,-1,-2,-1,-1
1470243806810250,-3,-2,-4,0,-1,1,0,-2
1470243806817257,0,0,-17,-6,-3,-1,-1,0
1470243806817257,-2,0,-10,0,0,-2,-1,-5
1470243806833271,-2,-4,-9,-6,-1,-3,-2,-1
1470243806833271,-1,1,22,3,-1,0,1,0
1470243806834773,-1,2,11,2,0,-1,0,1
1470243806834773,1,-2,-17,-7,-1,-2,-1,1
1470243806863299,-1,-1,10,2,-2,-1,-1,0
1470243806863299,0,-1,-10,0,-2,-2,1,2
1470243806864800,0,-2,2,-2,0,-2,-2,-2
1470243806864800,-2,1,9,5,-1,0,-2,0
1470243806869304,-4,-3,1,-3,-1,2,1,-1
1470243806869304,0,-2,-10,-5,-1,-1,-2,0
1470243806878312,-2,-4,5,3,-1,0,-3,-1
1470243806878312,3,4,-2,-2,0,-1,-1,-1
1470243806893325,-1,-6,5,1,1,-1,-1,0
1470243806893325,-2,1,12,3,-1,-1,-3,-2
1470243806894827,1,8,-26,-5,-1,-2,-1,-2
1470243806894827,-3,-5,10,0,-1,-1,1,-1
1470243806915846,3,1,-11,-4,-1,-2,-1,1
1470243806915846,-2,-5,-10,-4,1,-2,0,-1
1470243806917347,-3,-5,-7,-5,-3,-2,-1,-1
1470243806917347,2,3,15,2,-1,-1,-3,-1
1470243806929359,-2,0,-5,3,0,0,1,1
1470243806929359,0,-2,-3,1,-1,-2,-2,-4
1470243806938366,1,-2,-1,-4,-1,-2,0,0
1470243806938366,-1,-3,0,0,-1,-1,-1,-2
1470243806953379,-2,-3,-2,-1,-2,-2,-2,-2
1470243806953379,-4,-4,-6,0,-2,0,-1,1
1470243806954881,0,1,6,0,1,0,-2,-3
1470243806954881,-1,-4,-11,-3,-2,-1,-1,1
1470243806975900,-1,1,-1,-3,-1,-1,-3,-3
1470243806975900,1,3,0,-1,-1,-1,-1,0
1470243806977402,-1,0,-8,4,-2,-1,-1,0
1470243806977402,-3,-6,13,0,2,0,-1,-1
1470243806989415,-3,-3,-4,-5,-3,-2,-3,-2
1470243806989415,0,0,8,0,-1,-2,-2,-1
1470243806998420,0,-3,5,-3,-2,1,0,3
1470243806998420,-2,0,8,5,-3,-1,0,-1
1470243807013433,1,-1,-7,0,1,-2,-2,-2
1470243807013433,-2,-1,2,-1,-1,-1,-2,-1
1470243807014935,-1,-4,-5,-1,-4,-1,-2,-1
1470243807014935,0,1,-3,1,0,-2,0,2
1470243807035953,-2,-2,11,-6,-2,-1,0,0
1470243807035953,-3,-2,-9,1,-1,-2,-1,-3
1470243807037456,-2,0,4,0,-1,-2,-1,-1
1470243807037456,1,1,-17,-1,1,1,-1,-2
1470243807049466,-2,-3,5,6,-3,-1,-1,-2
1470243807049466,-2,0,-9,-12,-1,-1,0,0
1470243807058475,3,1,11,0,0,0,-2,-2
1470243807058475,-4,-4,1,-3,-2,-2,-2,-1
1470243807088326,-2,-4,-15,-2,0,-2,-2,-1
1470243807088326,-1,0,4,6,-1,1,-1,3
1470243807089828,-3,-1,-6,-3,-1,0,0,-6
1470243807089828,0,-1,-17,-4,-2,-2,0,1
1470243807095831,-3,-1,15,0,-2,0,0,2
1470243807095831,1,-2,-19,-4,-3,-2,-2,-4
1470243807097332,-4,-2,13,2,0,-2,1,1
1470243807097332,0,-1,-4,-1,-2,-2,0,-1
1470243807109344,4,3,-5,-1,1,-3,-1,-3
1470243807109344,-2,-3,-13,-7,-2,-1,-1,2
1470243807118351,-2,-1,12,2,-1,-1,-1,0
1470243807118351,1,1,3,0,0,0,-3,-6
1470243807133364,-2,-1,-11,-1,-1,-1,0,2
1470243807133364,1,2,18,2,0,0,0,0
1470243807134867,-4,-5,-26,-3,-2,-1,-2,-2
1470243807134867,0,3,6,-4,-1,-1,-1,1
1470243807154884,0,-3,-6,-3,-1,0,-1,-4
1470243807154884,-1,5,17,5,-2,-2,-1,-2
1470243807155885,1,-1,4,-2,1,-3,-2,0
1470243807155885,-5,-5,-12,-3,-1,0,-2,-1
1470243807177404,-2,0,11,1,-1,0,-1,-1
1470243807177404,0,-2,-14,-4,0,-2,-1,-2
1470243807178406,0,-2,7,0,0,-2,-1,0
1470243807178406,-1,-1,1,0,0,-1,-1,1
1470243807192418,-2,-2,-13,-5,-1,0,-1,-2
1470243807192418,-2,2,2,0,1,-1,-1,1
1470243807193419,0,2,-2,0,-2,0,-2,1
1470243807193419,-4,4,14,2,-1,-1,0,-3
1470243807214939,3,5,0,-2,0,0,-1,0
1470243807214939,-1,-4,-7,0,-1,-1,-2,-1
1470243807215939,-2,-4,-4,-5,-1,-2,0,0
1470243807215939,3,0,-5,-2,-1,-2,0,-1
1470243807237460,-4,0,7,4,-1,0,-1,0
1470243807237460,0,-1,-5,-7,-1,-1,1,-1
1470243807238460,3,0,-5,-1,0,1,-1,-3
1470243807238460,-1,-2,1,2,0,-1,-1,-3
1470243807252473,-1,-3,-11,-6,-1,-1,-1,-1
1470243807252473,-1,0,15,0,-1,-1,-1,-2
1470243807253472,-1,-2,-6,1,-1,-3,-1,-2
1470243807253472,-2,0,6,0,-2,-2,-1,-1
1470243807274994,-2,-2,7,5,-2,-1,-2,-2
1470243807274994,2,-1,3,-1,-2,-1,-1,-3
1470243807275993,-1,-3,-4,-7,0,-1,-1,-1
1470243807275993,-3,-3,1,-1,-1,-1,-2,-1
1470243807297513,0,3,-1,-3,-1,-1,0,0
1470243807297513,-2,-2,-23,3,-2,-1,-1,-1
1470243807298513,0,-1,-1,-6,-3,0,-2,-1
1470243807298513,-3,-5,6,4,-2,-1,-1,0
1470243807312526,1,-2,-3,2,-1,-1,0,0
1470243807312526,-4,-6,-9,-2,-2,-1,0,-1
1470243807313026,-3,-2,8,3,-1,0,-1,-1
1470243807313026,3,4,-5,-5,-2,-1,-1,0
1470243807335046,0,-2,3,1,-1,-1,-2,-1
1470243807335046,-2,-1,-1,1,0,-1,-1,0
1470243807336047,1,-1,3,3,1,-2,0,1
1470243807336047,1,-2,-4,-5,0,-2,-1,-1
1470243807357570,-3,-4,-6,0,0,0,-1,-2
1470243807357570,-2,-1,-1,-2,-1,-2,-1,-1
1470243807358568,-1,-1,13,2,0,0,-1,-2
1470243807358568,-2,-3,-8,-1,-3,-2,-2,-2
1470243807372580,-1,-2,-8,-3,-3,-2,-2,0
1470243807372580,0,0,7,2,0,-2,-2,-1
1470243807373582,-3,-1,6,6,-1,-1,-2,2
1470243807373582,0,-4,-27,-7,-1,-1,0,0
1470243807395100,-1,-1,7,-2,-1,-2,0,-2
1470243807395100,-2,-2,-1,-2,-2,-1,-2,-3
1470243807395601,1,-1,5,0,-2,-1,1,-1
1470243807395601,0,0,-4,-1,-1,1,-1,-1
1470243807417620,0,2,17,0,-1,-1,0,-3
1470243807417620,-1,-4,-20,-4,-2,-1,0,0
1470243807418121,-1,-2,-7,-3,-1,-2,-1,-1
1470243807418121,0,-1,-5,0,3,-2,0,-4
1470243807432634,-1,-4,5,0,0,0,-2,-2
1470243807432634,-2,0,0,0,-3,-3,-3,-1
1470243807433134,-1,-1,13,2,-1,-1,-1,0
1470243807433134,-3,-4,-5,-5,-2,0,-1,2
1470243807455154,-5,-3,-20,-5,-1,0,-1,-7
1470243807455154,3,1,15,6,0,1,0,3
1470243807455654,-2,-3,-20,-5,-2,-1,0,-4
1470243807455654,-2,-1,-3,0,-2,-1,0,0
1470243807477674,-4,-6,-3,-3,-1,-1,-1,0
1470243807477674,5,9,4,-3,2,0,-2,-2
1470243807478676,-3,-2,-11,-4,-4,-1,0,-2
1470243807478676,-3,-2,15,2,-1,-2,-2,-2
1470243807492688,0,1,-5,0,-2,-2,1,0
1470243807492688,-3,-3,-11,0,-1,-1,-2,-2
1470243807493688,0,-1,10,-1,-1,-3,-2,-2
1470243807493688,-1,-3,-30,-4,-2,-2,-1,1
1470243807515208,2,0,16,4,-1,-2,-1,0
1470243807515208,-2,-3,3,-1,0,0,-1,-2
1470243807515708,-2,-2,-16,-2,-2,-1,1,-2
1470243807515708,3,1,3,-2,0,-1,0,-2
1470243807537727,-2,-2,-7,0,-1,-1,-1,-1
1470243807537727,-3,-6,10,3,-1,-1,-2,-1
1470243807538229,-1,-2,-11,-7,-1,-1,-1,2
1470243807538229,0,2,7,-2,-2,-2,-2,-6
1470243807552741,0,3,-4,1,0,-3,-1,1
1470243807552741,-4,-1,8,-3,-1,-1,-1,-2
1470243807553242,0,1,3,2,0,-1,0,-1
1470243807553242,-5,-5,3,-1,-3,1,1,1
1470243807575261,-2,0,1,-2,1,1,-1,-1
1470243807575261,2,0,-20,-7,-2,-2,-2,0
1470243807575762,0,0,3,5,1,-2,-1,-2
1470243807575762,-2,6,23,1,-1,1,-2,-1
1470243807597782,1,-2,-19,-2,-1,-2,-1,-1
1470243807597782,-2,-3,-8,-3,-2,-1,0,-1
1470243807598282,-2,1,10,2,-2,0,-4,-4
1470243807598282,-2,1,1,4,1,-2,0,2
1470243807612796,1,3,9,4,-1,-2,-2,0
1470243807612796,0,1,-14,-6,-1,-2,1,0
1470243807613297,-3,-3,10,-2,-1,-2,-1,-2
1470243807613297,-1,0,-6,1,-2,-1,-2,0
1470243807635315,-1,-3,-7,-4,-2,0,-2,-1
1470243807635315,-3,-2,-2,-3,0,1,-2,-2
1470243807635816,3,-1,14,4,1,-1,-1,1
1470243807635816,0,-1,-7,0,0,-1,-1,-2
1470243807657836,-1,1,1,-2,-1,-1,-1,-1
1470243807657836,-1,-3,-4,1,-1,1,0,3
1470243807658337,-3,-2,-3,-2,0,-1,0,-8
1470243807658337,0,-1,-3,-1,1,1,-1,0
1470243807672850,-2,-4,-5,-8,-3,-2,-1,-1
1470243807672850,0,-3,32,8,-1,-3,-3,-2
1470243807673353,-1,2,-14,-2,-2,-1,0,4
1470243807673353,0,-2,5,2,-2,-1,0,-1
1470243807695369,1,1,-1,-6,0,-1,-1,-2
1470243807695369,-1,-6,-6,-6,-1,0,-2,-3
1470243807695869,-1,-3,4,-8,-3,-1,-2,-1
1470243807695869,-4,-1,0,1,-1,-2,-1,-3
1470243807717390,2,1,0,1,0,-1,-2,-2
1470243807717390,-1,0,3,0,0,-1,-1,0
1470243807718391,0,0,2,-2,1,-1,-1,-2
1470243807718391,2,-4,-23,-5,-1,-1,-1,-1
1470243807732404,-2,-6,0,-3,-2,-2,-1,2
1470243807732404,-1,0,-25,-1,-2,0,-1,-5
1470243807733404,1,0,-18,-5,-3,-1,-3,0
1470243807733404,-3,-1,22,2,-1,-1,-2,1
1470243807754924,-1,-1,-2,1,-1,0,0,-1
1470243807754924,2,-2,-15,-5,-2,-1,0,-1
1470243807756426,-2,0,15,8,1,-1,0,-1
1470243807756426,1,2,3,0,-1,-3,-2,-2
1470243807777946,-4,-3,-12,-4,-3,-3,0,0
1470243807777946,2,4,5,-1,1,0,-2,-1
1470243807778444,-2,-8,-41,-8,-3,-1,-1,-2
1470243807778444,-3,-3,12,-4,-3,0,0,1
1470243807800965,4,4,-3,5,0,-1,0,-3
1470243807800965,-3,-5,3,-6,-2,-1,-1,-2
1470243807801465,0,4,16,2,2,2,1,1
1470243807801465,0,0,-6,2,0,0,-1,-4
1470243807814977,-1,0,9,-1,-3,-1,-2,2
1470243807814977,-2,1,2,3,-1,-2,-1,-2
1470243807815978,-4,-3,-9,-5,-1,0,-1,-2
1470243807815978,1,-1,-8,-3,-3,0,-2,1
1470243807837497,-1,4,31,11,-1,-1,0,-2
1470243807837497,-4,-8,-27,-6,-2,-1,-2,1
1470243807838499,0,2,0,-1,-2,-2,-2,-3
1470243807838499,-2,-3,3,-6,-2,0,-1,1
1470243807853012,0,-1,1,-1,1,0,-2,1
1470243807853012,2,2,27,9,-1,-2,-1,-2
1470243807853511,0,-2,-3,-4,-1,0,-1,1
1470243807853511,-4,-3,-13,0,-1,-1,-1,-3
1470243807875032,-3,1,19,2,-1,0,-1,-1
1470243807875032,1,-2,-40,-5,-1,-2,1,2
1470243807876033,-1,0,6,0,-1,-2,0,-1
1470243807876033,-3,-1,12,2,-2,-1,-1,-2
1470243807897551,1,-1,-24,-5,-1,-2,-1,-3
1470243807897551,-2,0,22,0,-1,1,0,-1
1470243807898554,0,-2,-7,-1,-2,-1,-3,0
1470243807898554,0,1,4,1,0,-2,-2,-2
1470243807912065,1,-2,-5,2,-1,-3,-2,0
1470243807912065,-3,-3,-5,-7,-2,-1,-1,-2
1470243807920072,-1,-1,0,-5,-3,-2,0,-1
1470243807920072,4,2,7,-2,1,0,-1,-1
1470243807935086,-3,-4,19,2,-3,-3,0,-3
1470243807935086,-3,-3,1,3,-1,-2,-3,0
1470243807935586,0,2,-12,-2,0,-3,-3,-5
1470243807935586,-2,1,-2,-6,0,-1,1,0
1470243807957610,-1,2,1,1,-1,-1,-2,0
1470243807957610,0,-4,-24,-10,-3,-1,-1,-2
1470243807958606,0,0,2,-1,0,0,-2,-2
1470243807958606,-1,-4,2,5,-2,-1,-1,0
1470243807972117,-5,-1,10,-1,0,0,0,-1
1470243807972117,3,3,12,1,2,0,0,1
1470243807980125,-3,-3,2,-1,-2,-1,0,0
1470243807980125,-2,-3,-13,-3,-3,-1,-2,-4
1470243807995139,-1,-4,-16,-5,-1,0,0,0
1470243807995139,-1,0,5,1,0,-1,0,-3
1470243807995639,-2,-2,13,-1,-2,-1,-1,-1
1470243807995639,1,2,3,-6,0,-1,0,-1
1470243808017663,-1,-4,-4,-1,-3,-2,-2,-2
1470243808017663,-3,-2,-17,0,-2,-1,-3,-1
1470243808018160,-1,-1,-4,4,0,-1,0,1
1470243808018160,0,-1,-9,-10,-2,-4,0,-1
1470243808032173,-2,2,13,3,0,0,-2,0
1470243808032173,-1,0,6,2,-1,-1,0,0
1470243808040184,3,1,-3,1,-1,-2,-3,0
1470243808040184,-5,-7,-17,-4,-3,1,-2,0
1470243808055193,-2,1,0,0,0,-2,-1,-1
1470243808055193,3,4,28,4,0,-1,0,-1
1470243808056198,-4,-8,-4,-4,-3,-1,-1,0
1470243808056198,0,-1,4,3,1,-2,-1,0
1470243808077712,-2,-1,-7,-1,0,0,0,0
1470243808077712,2,3,2,0,0,-2,-3,1
1470243808078215,-3,1,7,-2,0,1,0,-2
1470243808078215,0,-3,4,6,-2,0,0,0
1470243808092227,1,-2,-17,-7,-3,-2,-1,-3
1470243808092227,-3,4,12,4,-1,-1,0,-2
1470243808100233,0,-1,-3,-3,0,-1,-1,-1
1470243808100233,0,1,-1,3,0,-1,0,0
1470243808115247,0,-9,-16,-19,-1,0,0,-1
1470243808115247,-2,-2,5,2,-3,-1,-2,-1
1470243808115747,-2,2,6,7,-1,-2,0,-1
1470243808115747,1,3,5,0,0,0,-2,-2
1470243808137766,0,2,-20,0,-1,-3,-1,-2
1470243808137766,1,-3,-10,-8,-1,0,-1,-2
1470243808138268,-2,18,13,2,1,-1,-1,0
1470243808138268,-2,-14,1,-1,-1,-2,-1,-1
1470243808151779,-4,13,21,5,-1,0,0,2
1470243808151779,1,0,-27,-5,-3,-2,-1,0
1470243808160287,-3,-20,0,-5,-2,0,-2,1
1470243808160287,1,8,6,0,-1,0,-1,-1
1470243808175301,-5,4,2,6,0,-1,-1,-3
1470243808175301,-1,-17,3,0,-1,0,-1,0
1470243808175801,0,17,10,-5,-1,-2,0,-2
1470243808175801,-3,2,14,-2,-1,0,-1,0
1470243808197821,2,-8,-33,-9,-1,-2,-2,-2
1470243808197821,-3,-3,6,10,2,0,-1,0
1470243808198321,3,-9,-16,-4,-4,-1,-2,0
1470243808198321,-2,-3,-5,0,1,-1,0,-3
1470243808211835,2,1,9,6,-1,-2,-1,-1
1470243808211835,-2,3,-11,-9,1,-1,0,-2
1470243808219841,0,-5,7,6,-3,-2,-1,-1
1470243808219841,-1,-6,0,-1,0,-2,0,-1
1470243808234854,0,-2,9,3,-2,-2,0,1
1470243808234854,-3,0,0,-8,-1,-1,0,-2
1470243808235855,2,-6,-10,-3,1,-1,-1,0
1470243808235855,-8,-6,6,3,-6,-4,-4,-1
1470243808257874,-1,-4,-6,-6,-3,-1,0,0
1470243808257874,0,12,12,0,-1,-3,0,-1
1470243808258380,-2,-11,-8,3,2,1,-1,-1
1470243808258380,4,-4,-16,-8,-2,-2,-2,-1
1470243808280895,-4,-15,-10,-9,-1,-1,-1,-2
1470243808280895,2,2,16,-2,-1,-3,-1,-3
1470243808281396,2,28,-5,2,-1,-3,0,0
1470243808281396,1,3,2,-1,0,1,1,0
1470243808295408,0,12,12,4,2,-1,-3,-2
1470243808295408,-5,-25,-21,-7,-3,1,-1,-3
1470243808295912,-1,-4,-2,-2,0,1,1,-2
1470243808295912,2,9,5,4,-1,-2,-1,0
1470243808317428,0,-5,19,5,0,0,-1,2
1470243808317428,-5,4,7,1,0,-1,-1,0
1470243808318429,-3,-12,-19,-3,-1,-2,-3,-1
1470243808318429,-1,3,0,-5,1,1,1,-1
1470243808340949,0,-1,-7,7,-1,0,0,0
1470243808340949,-2,1,-6,-6,-4,-1,-2,-2
1470243808341951,1,0,7,4,-1,0,0,-2
1470243808341951,-2,-19,-23,-5,1,-1,0,-2
1470243808355463,1,37,3,-1,-1,-2,-1,-1
1470243808355463,5,-1,-20,-5,-4,-2,-2,0
1470243808362469,-6,2,29,8,2,1,-1,-2
1470243808362469,-5,-14,-8,-6,-4,-1,-2,-3
1470243808377481,2,10,0,-9,-2,1,-1,-3
1470243808377481,0,-1,10,5,0,0,-1,1
1470243808378484,-4,-7,-7,-7,-5,-2,-2,-2
1470243808378484,-1,-5,-34,-4,-2,-1,-3,0
1470243808401003,-1,-21,-4,-6,-2,-2,-1,-3
1470243808401003,0,15,0,3,-1,-2,-1,-1
1470243808401504,-4,-17,-6,-3,-4,-3,-1,-2
1470243808401504,1,7,2,-4,-1,-2,-2,-1
1470243808415016,-1,-11,29,11,0,-2,-1,-1
1470243808415016,-2,-2,-45,-18,-3,-2,-2,0
1470243808416017,5,21,38,11,0,-1,-1,0
1470243808416017,-1,11,-28,1,-2,-1,0,0
1470243808437536,-3,-17,-23,-13,0,1,1,0
1470243808437536,-1,-9,28,6,0,-2,-3,0
1470243808438537,4,14,-3,-1,1,-2,-1,-1
1470243808438537,-9,-7,5,1,0,-1,-2,0
1470243808461060,-4,-9,31,5,-3,-2,-2,2
1470243808461060,-8,-5,-1,5,-3,-1,-3,-9
1470243808461558,1,18,-11,-7,-2,2,1,3
1470243808461558,1,-8,-1,-1,2,0,0,0
1470243808475071,-5,17,20,3,-1,-1,-1,2
1470243808475071,-1,-10,-18,-10,-1,0,-1,-1
1470243808476071,-5,-19,-21,-9,-1,-1,0,-3
1470243808476071,7,35,4,4,-2,1,1,0
1470243808497590,-7,-40,-53,-15,-3,-2,-4,-3
1470243808497590,6,13,-22,-3,-2,0,1,1
1470243808498091,-7,-17,11,10,-6,-4,-4,-3
1470243808498091,0,-2,5,-4,-1,-1,-2,-1
1470243808521111,10,1,-3,-5,-1,1,-1,-1
1470243808521111,-5,-7,20,3,2,1,1,-1
1470243808521611,1,4,-31,-5,1,-1,0,0
1470243808521611,3,0,40,1,-1,-2,0,1
1470243808535123,-2,-17,-76,-8,1,-1,-1,-2
1470243808535123,-8,25,27,11,-4,-3,-3,-5
1470243808535626,-1,17,13,9,2,1,3,2
1470243808535626,-2,1,12,-5,-2,-1,-1,-1
1470243808557644,7,41,-2,-10,2,2,2,1
1470243808557644,1,-9,8,11,1,-2,-2,1
1470243808558146,-4,-16,14,-1,-2,-2,0,-1
1470243808558146,2,0,-34,-6,0,0,1,-1
1470243808580664,-1,38,39,9,-2,-2,-2,-2
1470243808580664,4,13,-4,-2,0,-1,-1,1
1470243808581665,3,-22,-36,-27,1,-2,0,1
1470243808581665,-9,-20,65,30,-4,-2,-2,-3
1470243808595178,7,34,-30,-6,1,1,-1,1
1470243808595178,-10,-34,-21,-4,-8,-3,-1,-4
1470243808596178,1,12,-16,-5,0,0,-1,-1
1470243808596178,3,-21,-27,-17,-1,-3,-1,1
1470243808617698,1,10,26,8,1,0,1,-3
1470243808617698,-4,-3,-2,5,2,0,0,0
1470243808618198,2,29,4,1,-2,-4,-1,0
1470243808618198,-6,-26,1,5,0,0,0,-1
1470243808641221,-1,-13,13,12,-1,-1,0,0
1470243808641221,11,4,24,-7,5,1,4,4
1470243808641721,-10,-25,-8,-13,-9,-6,-5,-6
1470243808641721,-2,28,18,12,0,-1,-2,1
1470243808655231,-7,-25,-17,1,-3,0,1,-2
1470243808655231,4,31,29,0,1,1,-1,0
1470243808657734,2,-8,-28,-9,1,0,0,0
1470243808657734,0,35,-9,3,-1,0,0,0
1470243808677752,1,-9,5,-4,0,-2,-2,-1
1470243808677752,-19,-68,-1,-4,-4,-4,-5,-3
1470243808678253,6,25,46,14,2,-1,0,0
1470243808678253,0,-4,-68,-16,-3,-1,-1,-1
1470243808700774,-5,-5,59,12,-2,-3,-3,-5
1470243808700774,2,-26,-38,2,1,0,0,1
1470243808701273,-5,-18,-16,-13,-4,-1,-1,-2
1470243808701273,-4,54,31,-3,-5,-3,-3,-5
1470243808715285,0,-23,-28,-17,1,-1,-1,1
1470243808715285,1,25,-11,17,-1,-4,0,-2
1470243808715786,-3,3,31,8,0,0,-1,-1
1470243808715786,8,-26,-24,4,2,2,2,4
1470243808737805,-6,-1,-29,-13,-4,-4,-2,-2
1470243808737805,-6,13,24,-11,-1,0,-3,-3
1470243808738306,4,-3,-18,2,0,1,-2,-1
1470243808738306,-9,-12,9,-2,0,-2,-1,-4
1470243808760828,0,-23,13,1,0,-1,-1,1
1470243808760828,-6,-15,-26,3,-2,0,0,-3
1470243808761827,-1,1,-22,-10,-3,-2,-3,-1
1470243808761827,-6,-21,36,11,2,1,-3,-3
1470243808774840,3,9,22,0,-2,-2,0,-1
1470243808774840,6,28,0,-10,-2,-1,-1,0
1470243808775840,-3,-13,12,4,-1,1,0,0
1470243808775840,-5,-24,-2,3,-1,0,-1,-2
1470243808797359,3,37,36,7,-1,0,-1,0
1470243808797359,4,-9,4,-3,-2,0,0,1
1470243808805366,-4,27,-19,8,0,-1,-2,-3
1470243808805366,5,0,7,-6,-1,-1,-2,0
1470243808822381,2,-4,-4,7,2,2,3,2
1470243808822381,-9,-10,0,-11,-1,-1,-3,-5
1470243808823384,2,-8,23,4,0,-1,1,1
1470243808823384,-2,44,-36,-9,-4,-2,-2,-2
1470243808834893,-3,-3,4,4,-3,-1,1,-2
1470243808834893,4,15,16,12,2,0,-1,0
1470243808842400,-1,-12,11,-10,-1,0,0,-1
1470243808842400,-1,9,0,9,2,1,-1,-1
1470243808857916,-6,-9,4,-3,0,0,-2,-3
1470243808857916,4,3,3,-9,0,-2,-1,-2
1470243808858414,4,-24,1,0,-3,1,-1,0
1470243808858414,8,51,20,5,-2,0,2,6
1470243808880939,-9,-19,-13,-7,-5,-1,-5,-5
1470243808880939,-2,20,8,1,-1,1,0,3
1470243808881434,-6,-46,-11,6,1,-2,-1,0
1470243808881434,2,-48,3,-17,-2,-1,0,-2
1470243808894446,-1,-4,-29,-5,-2,-2,-4,-2
1470243808894446,3,7,5,4,1,-3,-1,-1
1470243808902453,-6,3,-16,3,-2,-1,-1,-1
1470243808902453,1,5,-15,-3,-2,-2,-3,-2
1470243808917468,-1,-25,-12,3,-1,0,0,2
1470243808917468,2,-8,4,-8,-2,-1,1,1
1470243808918468,4,29,21,6,-2,-3,-2,0
1470243808918468,-6,-54,-36,-6,-2,-2,-1,-1
1470243808940987,-1,28,-8,-5,0,-2,0,-4
1470243808940987,5,25,8,2,1,0,1,1
1470243808941490,0,-3,8,2,0,-2,-2,-1
1470243808941490,-5,16,2,-10,-4,-3,-3,-2
1470243808954501,-7,-7,5,7,0,-1,-3,-1
1470243808954501,0,-16,-11,-7,-2,-2,-3,-3
1470243808962507,-8,-20,-33,-17,-5,-2,-1,-2
1470243808962507,-1,-22,-30,-7,-2,-2,-2,0
1470243808977522,3,18,43,15,0,-1,1,0
1470243808977522,-13,-40,-17,-6,-3,-1,0,-2
1470243808978522,-2,21,9,-1,-3,-3,-3,-4
1470243808978522,3,0,12,-9,0,-1,0,0
1470243809001041,7,9,-56,-8,-2,-2,-1,2
1470243809001041,-4,-8,13,6,-3,-2,-3,-2
1470243809001542,-1,6,6,2,0,0,1,1
1470243809001542,3,-11,8,1,2,-2,0,-1
1470243809014554,-9,4,-13,-3,-3,-3,-2,-2
1470243809014554,-2,21,9,-3,-2,0,0,0
1470243809022060,1,-4,-31,0,1,1,-2,-1
1470243809022060,-3,-38,14,2,0,0,-1,-1
1470243809037575,-1,-1,5,-10,-2,0,0,-1
1470243809037575,3,-4,-9,1,-2,-3,-1,0
1470243809038575,-3,-12,19,2,-2,0,0,-1
1470243809038575,-2,-13,-22,-2,2,1,1,2
1470243809061097,-3,10,13,-3,-1,-2,-4,-3
1470243809061097,6,15,-6,-4,0,-2,-1,0
1470243809061598,-5,5,6,6,-6,-2,-1,-1
1470243809061598,2,7,18,2,-1,-1,-1,-2
1470243809083115,1,-21,-27,-12,-1,-3,-3,-2
1470243809083115,-3,-5,11,7,-1,-1,-1,-1
1470243809084117,3,-1,-4,-6,0,-1,0,0
1470243809084117,-3,3,-42,-5,-2,-2,-1,-2
1470243809097629,-1,7,86,22,-2,-1,0,-1
1470243809097629,-3,15,-40,-11,-2,-3,-3,-1
1470243809098129,-3,-19,12,2,0,0,0,0
1470243809098129,-3,11,36,6,-2,0,-3,-5
1470243809120650,0,-31,-11,-7,1,2,2,-1
1470243809120650,-1,-18,-31,-4,-1,1,1,2
1470243809121650,4,29,24,1,0,0,-2,-3
1470243809121650,-6,24,23,7,-3,-2,-2,-1
1470243809134663,-4,-9,-26,-5,-1,-1,-2,0
1470243809134663,-3,-15,-1,5,0,-1,-3,-5
1470243809142669,0,13,4,-7,-5,-2,-3,0
1470243809142669,-5,-37,-17,-7,-1,-2,1,-2
1470243809157684,-2,19,-16,3,-1,-1,-1,-2
1470243809157684,2,-12,0,1,-2,-1,1,-2
1470243809158183,-5,6,14,1,0,-2,-1,-2
1470243809158183,-1,0,-10,1,-3,-2,-2,-1
1470243809188210,4,1,0,-10,0,-2,-2,-2
1470243809188210,-3,10,20,3,0,-1,0,-2
1470243809189210,-3,-38,-14,-5,-2,-1,-1,-2
1470243809189210,1,21,14,-1,-2,-1,-1,-1
1470243809203225,1,-10,-15,-6,1,-1,-1,2
1470243809203225,-1,13,12,-2,-1,-2,-2,0
1470243809204224,0,14,-22,8,-1,0,0,-1
1470243809204224,-5,1,-10,-7,-3,-2,-3,-2
1470243809217736,0,-10,-12,-1,-3,0,0,-2
1470243809217736,2,1,14,0,-1,0,0,1
1470243809218237,3,6,-4,4,1,-1,0,1
1470243809218237,2,26,19,-6,-3,0,-1,1
1470243809241260,-3,-4,-17,-3,-1,-3,-2,-1
1470243809241260,1,-8,-17,2,-1,-1,0,-1
1470243809241757,-2,-11,-1,-11,-2,-1,0,0
1470243809241757,2,-4,15,15,1,-1,0,-1
1470243809263278,-8,-24,-37,-14,-3,1,0,-1
1470243809263278,-1,-10,-1,1,0,-2,-4,-2
1470243809264278,-2,-7,2,-2,1,-1,0,-2
1470243809264278,-6,-7,8,4,0,0,-2,-2
1470243809277790,-1,-3,16,5,-2,0,0,-2
1470243809277790,-1,3,-10,-8,-2,0,0,0
1470243809278292,-4,-13,-17,-6,0,-2,0,-3
1470243809278292,5,14,-24,7,0,-1,-2,0
1470243809300812,0,-2,0,-10,-3,-1,-2,0
1470243809300812,0,-6,33,1,0,1,1,0
1470243809301311,-6,-16,9,7,1,0,-3,-3
1470243809301311,1,6,7,-3,0,0,0,-2
1470243809323332,-3,-13,-2,3,-3,-4,-2,-2
1470243809323332,-2,12,-21,-2,-1,-1,-2,0
1470243809323832,7,16,-21,-13,2,1,0,0
1470243809323832,-4,-7,37,11,-2,-1,-1,-1
1470243809337345,2,17,-20,0,1,2,-1,1
1470243809337345,2,9,-1,-7,-3,-1,0,1
1470243809338345,-2,-12,6,2,-2,1,0,-1
1470243809338345,-5,-8,-23,-11,0,-4,0,-1
1470243809360865,6,25,6,2,1,-1,0,3
1470243809360865,-8,-39,9,3,1,-3,-3,-4
1470243809361366,-1,16,-10,7,-3,0,-1,0
1470243809361366,2,7,19,-1,0,1,2,1
1470243809383386,4,27,12,8,2,-1,-1,-2
1470243809383386,-5,-19,-26,-13,-2,0,-3,-2
1470243809383886,0,25,-3,-11,-2,-2,-2,-1
1470243809383886,-2,1,33,17,1,-1,-1,-2
1470243809397398,-2,10,19,2,-5,-1,0,-1
1470243809397398,-2,-9,-27,2,-1,-1,-3,0
1470243809398399,-4,11,4,-5,-2,-3,-2,-1
1470243809398399,4,9,-7,-5,-3,-1,-1,0
1470243809420919,-6,-39,-19,2,1,-1,0,-2
1470243809420919,-1,9,38,0,2,-1,-1,-1
1470243809421419,2,-4,-24,-5,-4,-1,-1,-2
1470243809421419,-12,-35,-3,-2,-3,-1,-2,-1
1470243809443439,-6,-30,-4,-3,-2,-1,-2,-2
1470243809443439,0,11,9,3,2,-1,1,0
1470243809443940,-1,-16,-5,-1,1,2,1,1
1470243809443940,-9,-4,20,-1,-3,-2,-3,-5
1470243809457454,-4,0,13,6,-2,0,0,-4
1470243809457454,-2,-3,-41,-14,-3,-3,-1,-2
1470243809458452,1,-2,23,0,0,-1,-3,-1
1470243809458452,0,5,-6,-3,1,1,1,2
1470243809480972,1,-2,-26,2,-1,0,-2,-2
1470243809480972,0,-21,3,3,-1,-2,0,-1
1470243809481473,-6,7,12,8,-1,-1,0,-4
1470243809481473,7,-9,-8,-3,1,1,0,2
1470243809503492,2,27,-17,-1,-2,-1,-2,0
1470243809503492,3,4,7,0,-1,2,1,0
1470243809503994,-3,-9,8,3,-3,-4,-2,-1
1470243809503994,3,8,-6,6,-1,-1,-1,-2
1470243809526013,-1,4,-5,-10,1,-1,-2,0
1470243809526013,-2,11,7,2,-1,0,-1,-1
1470243809526514,6,9,19,3,0,0,-2,0
1470243809526514,-2,4,-54,-21,-1,-1,-1,-1
1470243809541027,-1,3,46,4,-5,-1,-2,1
1470243809541027,1,6,13,11,-4,-3,-2,-2
1470243809541528,-2,11,-6,-6,1,-2,-2,-3
1470243809541528,-2,-10,-17,-5,-1,-2,-2,-3
1470243809563547,0,-3,-31,-3,0,-3,-1,0
1470243809563547,3,65,37,5,-1,-2,-4,-3
1470243809564047,-1,-6,-12,-1,-3,-1,1,1
1470243809564047,2,15,1,-4,-1,0,-1,-2
1470243809577559,2,-24,2,-7,0,-1,0,-2
1470243809577559,-6,-10,33,17,-3,-3,-1,-2
1470243809578561,-2,-8,-28,-10,-3,-2,-1,-1
1470243809578561,1,-5,-7,-3,-1,-1,-2,-2
1470243809600580,-3,-43,2,0,-1,-1,0,1
1470243809600580,0,-14,-24,-9,0,0,1,0
1470243809601582,3,2,43,15,0,-1,-1,1
1470243809601582,-3,20,-1,-8,-2,-2,-1,0
1470243809623602,-4,-2,4,6,-1,0,0,-1
1470243809623602,-5,-7,0,2,1,-2,0,0
1470243809624102,1,-11,-32,-6,0,-1,-1,-3
1470243809624102,0,9,9,-3,-1,-1,-1,0
1470243809637113,-6,-8,-11,-12,-1,-1,0,-3
1470243809637113,5,13,35,8,0,1,-2,-2
1470243809646121,-3,-8,-6,3,1,1,-1,1
1470243809646121,0,11,-28,4,-1,0,-1,-2
1470243809660634,-1,-4,0,0,-1,-1,0,1
1470243809660634,4,-18,-8,-12,2,0,-1,1
1470243809667140,-8,-18,-9,2,-4,-4,-2,-4
1470243809667140,-1,-12,7,-7,-5,-1,-1,0
1470243809683155,-1,8,2,3,-1,-1,-1,-2
1470243809683155,-6,-3,-29,-7,-1,0,-1,0
1470243809684659,-1,-2,2,-3,-2,-2,0,0
1470243809684659,1,-12,-4,4,2,-2,-2,-2
1470243809697166,0,23,13,-2,-2,-2,0,0
1470243809697166,-1,-12,-7,-4,1,0,-1,-1
1470243809706175,-4,11,1,-2,-1,0,-2,-2
1470243809706175,-6,-2,13,9,-2,-1,-2,-2
1470243809720688,0,11,16,-3,-2,0,0,-1
1470243809720688,-4,-2,7,-6,-3,-2,-1,-2
1470243809722189,8,9,14,7,-1,-2,1,0
1470243809722189,-2,-10,-56,-9,-1,-1,-2,1
1470243809743709,-1,-2,25,9,-1,-2,-1,-1
1470243809743709,3,3,-22,-3,-3,0,-2,-1
1470243809744710,-3,-3,-8,-5,-1,0,-1,-1
1470243809744710,-2,-5,30,2,-3,1,0,-1
1470243809757222,2,7,1,-1,-3,-3,-2,-3
1470243809757222,-2,15,6,-3,-2,-2,-3,-3
1470243809765732,-3,-5,8,-3,-1,-1,0,0
1470243809765732,-1,-8,-6,-3,-1,0,-1,0
1470243809780742,-4,-12,-4,-1,0,-1,-2,-3
1470243809780742,-2,-6,-29,-2,-4,-2,-1,-2
1470243809782243,-2,8,-2,-5,-1,0,0,0
1470243809782243,1,3,-9,-4,1,-3,-1,1
1470243809803263,-1,-16,19,6,-1,1,-1,1
1470243809803263,-1,4,-11,-2,1,0,-1,0
1470243809804764,-1,-12,-16,-2,0,1,0,-1
1470243809804764,-1,-1,9,-5,-3,-2,-2,-1
1470243809817275,1,6,-14,7,2,0,1,1
1470243809817275,-1,-17,10,0,-1,-2,-1,-1
1470243809825782,3,-16,-18,-5,-1,-1,-2,-1
1470243809825782,-6,-9,19,3,-1,-2,-2,-2
1470243809840800,-3,2,5,-5,-3,-1,-1,0
1470243809840800,5,8,13,3,1,0,0,0
1470243809842297,-3,-12,-2,-5,-1,-1,-1,0
1470243809842297,-3,5,2,2,-1,-1,-1,-2
1470243809863316,1,2,-8,-4,0,-1,-3,-1
1470243809863316,0,-6,-26,2,-1,2,1,0
1470243809864817,-1,17,17,4,-1,1,0,-3
1470243809864817,2,-10,9,0,0,-1,-1,-1
1470243809876829,-1,-2,0,-7,-1,-1,-2,-4
1470243809876829,-3,-1,0,-3,-2,0,-1,0
1470243809885837,-3,-9,-16,1,-2,0,-1,0
1470243809885837,6,24,17,3,5,3,0,-1
1470243809908358,-3,-8,0,1,1,-1,1,1
1470243809908358,2,17,9,-8,-3,-2,-1,0
1470243809909858,-4,-15,-13,-3,0,-2,-2,-2
1470243809909858,1,13,13,11,-1,-3,0,2
1470243809923372,0,-19,-63,-16,-1,-2,1,0
1470243809923372,-3,10,44,24,0,0,1,0
1470243809924873,2,16,-23,-11,-3,-2,-2,-1
1470243809924873,-1,-10,6,0,-1,0,0,-1
1470243809936882,-3,1,10,-2,-2,-1,-2,-1
1470243809936882,6,22,-15,-1,2,-2,-1,1
1470243809945890,-5,-35,27,6,-3,-1,-2,-3
1470243809945890,-1,-14,-20,-10,-1,2,0,0
1470243809960904,-3,-14,3,2,-6,-2,-4,-3
1470243809960904,-1,-20,-11,-4,-1,-1,-1,0
1470243809962405,5,-1,49,9,3,0,0,2
1470243809962405,-8,1,-15,-8,-4,-3,-4,-5
1470243809983423,4,-1,10,1,0,0,0,0
1470243809983423,-10,-15,-29,-6,-2,0,-1,-3
1470243809984925,-2,6,-3,1,-2,0,0,-1
1470243809984925,4,39,29,4,-1,-4,0,1
1470243809996936,1,-3,-29,1,1,0,-1,-1
1470243809996936,-2,6,7,-4,-1,-3,-2,-2
1470243810005944,4,40,16,12,0,-2,0,0
1470243810005944,0,-14,-44,-6,0,1,1,1
1470243810020957,-1,35,49,7,4,-1,-2,-1
1470243810020957,-9,-30,7,-24,-10,-5,-4,-4
1470243810022964,0,-2,-8,-5,-2,-4,-1,0
1470243810022964,2,13,-10,9,-1,-1,-2,1
1470243810043477,-1,8,30,10,3,2,1,0
1470243810043477,1,-1,6,7,1,0,-1,-1
1470243810044979,-1,5,-80,-15,-2,-2,-2,-2
1470243810044979,0,-3,29,-11,-7,-3,-2,-2
1470243810056992,1,-1,-9,9,-1,-1,-1,-3
1470243810056992,-10,-29,-19,4,5,-1,-1,-1
1470243810065998,5,15,11,-11,-4,-1,-1,0
1470243810065998,0,-8,-19,-4,4,2,1,1
1470243810081011,-4,4,-8,-7,-5,-4,-4,-3
1470243810081011,2,2,-9,0,-3,-2,1,1
1470243810082513,-3,-12,25,11,1,0,-1,0
1470243810082513,3,-4,-2,-2,1,-1,-2,-2
1470243810103533,0,16,53,-1,1,1,0,0
1470243810103533,-2,3,-39,-22,-9,-3,-2,-2
1470243810105033,3,15,-1,11,1,-3,-2,-1
1470243810105033,-5,-16,-14,0,4,0,0,-2
1470243810127055,2,19,44,-3,-4,-2,0,0
1470243810127055,-1,17,10,4,-1,-2,-3,-1
1470243810127553,-9,-91,-13,4,-2,0,0,0
1470243810127553,-11,-30,-18,-11,-2,-2,-2,-4
1470243810140566,0,0,-39,-1,-3,0,-1,-1
1470243810140566,5,20,7,5,4,1,-1,-1
1470243810147070,-5,15,23,-3,-3,-1,-1,-2
1470243810147070,2,0,25,3,-2,-1,-1,0
1470243810163586,1,-10,-8,-4,-2,-2,-2,0
1470243810163586,-3,3,14,-8,-4,-2,-2,-1
1470243810165087,-6,-13,7,2,-1,-2,-1,-2
1470243810165087,1,-29,33,14,4,2,-1,1
1470243810185605,0,8,-58,-12,-4,-2,-3,-3
1470243810185605,-4,-32,31,-3,-3,-2,-2,0
1470243810187607,3,47,-7,5,-2,-2,0,0
1470243810187607,-2,-5,-38,-19,-2,-4,-1,-3
1470243810200118,-8,-24,-8,6,-3,-3,-3,0
1470243810200118,8,29,17,4,4,3,1,0
1470243810207126,-3,-1,-6,-24,-6,-2,-3,-2
1470243810207126,0,4,-5,3,-5,-2,-1,1
1470243810223642,8,7,33,8,3,0,1,1
1470243810223642,-14,-27,-60,-1,-2,-1,1,-2
1470243810225140,1,0,16,5,1,0,-2,-2
1470243810225140,2,4,-3,1,-2,-1,0,1
1470243810245661,-2,14,58,0,0,-1,0,0
1470243810245661,-2,-52,-45,-1,-5,-3,-2,-4
1470243810247661,-1,15,23,-6,-2,-3,-1,0
1470243810247661,-1,26,69,17,3,0,-1,0
1470243810259673,-2,-40,-54,-21,-6,-2,-2,-4
1470243810259673,1,5,-11,1,2,0,-2,-1
1470243810268180,-22,-88,-88,-14,-5,-5,-4,-7
1470243810268180,2,17,-2,0,-5,-2,-1,-2
1470243810283193,0,12,-21,22,9,2,0,-2
1470243810283193,5,29,23,-8,1,-1,1,1
1470243810285197,4,32,0,-2,1,1,0,2
1470243810285197,-4,-24,-15,8,-2,-4,-2,-4
1470243810306216,-6,-22,-1,-12,-8,-4,-1,-3
1470243810306216,-1,13,-62,4,1,-1,1,0
1470243810307716,-6,-48,89,16,10,4,-3,-2
1470243810307716,1,53,-20,-6,-7,-5,0,1
1470243810319226,-16,7,-4,-22,-9,0,-2,-6
1470243810319226,6,18,56,3,-4,-5,0,2
1470243810328733,13,53,33,-12,2,0,0,-1
1470243810328733,6,-20,-26,11,2,-1,6,7
1470243810343328,-19,-72,14,-11,-6,0,-4,-9
1470243810343328,1,5,-5,-12,-1,5,1,-2
1470243810344830,4,16,-79,2,-1,2,0,1
1470243810344830,-8,-43,-39,-17,1,4,-1,-1
1470243810365850,7,55,14,25,9,-1,1,5
1470243810365850,-14,-43,-1,-17,-4,-2,-3,-2
1470243810367350,1,32,-18,3,-1,0,2,-1
1470243810367350,2,9,0,-7,-2,-1,-4,-3
1470243810379366,-2,-12,-36,-12,-4,-5,-3,-4
1470243810379366,1,-5,-13,12,-3,-3,-2,0
1470243810388369,-4,-14,15,2,-2,-4,-2,-1
1470243810388369,-5,11,21,-4,-3,-3,-3,-5
1470243810402381,-1,-17,-53,-5,0,0,0,1
1470243810402381,7,24,35,9,5,1,2,5
1470243810410891,-1,-17,-80,-5,-3,-3,-3,-3
1470243810410891,-5,-12,-37,-14,-3,-3,-3,-4
1470243810425904,2,-11,74,2,1,1,0,0
1470243810425904,-4,-13,-24,0,-5,-3,-1,-4
1470243810427407,6,22,22,-5,-2,1,1,3
1470243810427407,-1,5,10,8,0,-2,-2,-2
1470243810439414,9,39,68,8,0,0,2,3
1470243810439414,-7,23,11,-4,-6,-11,-6,-7
1470243810448423,-1,-28,29,-5,1,5,0,0
1470243810448423,-1,12,49,0,0,2,1,2
1470243810463437,12,41,-18,-1,-1,-1,1,2
1470243810463437,2,13,19,5,1,-1,0,0
1470243810464938,-10,-24,-57,-9,-6,-6,-1,-2
1470243810464938,-1,-1,18,2,7,1,-4,-2
1470243810486457,2,2,-34,-7,0,-1,-1,2
1470243810486457,-2,-21,33,15,4,0,-2,-1
1470243810487959,-3,32,10,3,0,0,0,-1
1470243810487959,9,3,4,-8,-5,-3,-2,1
1470243810499468,-9,-14,-66,-6,-4,-3,-3,-5
1470243810499468,2,5,32,8,1,3,0,0
1470243810508478,2,6,-34,-10,-1,-3,-1,-2
1470243810508478,-10,-1,8,4,-4,0,-2,-4
1470243810523491,1,-4,16,19,4,-1,-2,1
1470243810523491,5,28,46,-13,-4,-5,-4,-3
1470243810524994,-1,-21,-5,5,-2,0,-1,0
1470243810524994,2,-6,-12,-11,1,-1,1,1
1470243810546011,-6,4,16,8,-6,-5,-4,-5
1470243810546011,6,-9,-30,0,0,1,0,1
1470243810547513,1,11,21,-3,4,-1,0,0
1470243810547513,-5,-14,-24,-10,-5,-1,-1,-1
1470243810559523,6,15,-1,-5,3,-2,0,1
1470243810559523,-2,0,38,17,-3,-2,-3,-2
1470243810569532,-5,-41,52,-2,2,0,1,-2
1470243810569532,-1,-24,-28,4,-3,0,0,-2
1470243810583544,-3,23,13,-9,-5,-2,-2,0
1470243810583544,3,-2,-15,-10,-2,-1,0,1
1470243810585045,0,3,34,11,-3,-3,-3,0
1470243810585045,5,26,3,11,2,-3,-1,-1
1470243810606064,5,-9,43,-4,2,2,2,3
1470243810606064,-17,-14,-20,-15,-8,-4,-4,-7
1470243810607567,7,14,8,-1,-4,-4,-1,0
1470243810607567,-2,-12,11,-7,-1,0,0,0
1470243810619576,1,14,-10,10,3,4,0,2
1470243810619576,11,4,-11,0,4,1,2,1
1470243810628586,-6,-2,34,5,-2,-2,-3,-4
1470243810628586,-3,16,58,-1,-8,-2,-2,-2
1470243810643098,-4,-45,-66,-16,-5,-3,-2,-1
1470243810643098,5,48,-12,6,12,6,4,1
1470243810645100,-6,-8,-6,-4,-7,-4,-3,-2
1470243810645100,1,17,-4,3,3,1,0,0
1470243810665619,3,-3,13,-3,-2,-4,-1,-1
1470243810665619,-3,-22,-2,-3,-2,1,-1,1
1470243810667621,6,34,20,6,7,2,3,4
1470243810667621,-4,37,18,2,-1,-2,-3,-5
1470243810680633,1,-31,-24,-3,-2,0,-1,1
1470243810680633,-2,50,40,2,3,-1,-1,0
1470243810688138,-1,-28,-43,3,6,6,-1,0
1470243810688138,-8,-27,-25,-14,-5,-3,-3,-4
1470243810703153,-2,6,11,11,-1,-2,0,0
1470243810703153,-2,-17,8,-7,-3,0,-2,-1
1470243810705153,-1,-16,-9,3,1,-1,-1,-4
1470243810705153,2,9,1,10,2,-1,-1,0
1470243810725674,-2,7,-3,-2,1,3,-2,-2
1470243810725674,-1,-34,-39,0,-3,-3,0,1
1470243810727174,1,19,-10,3,-2,0,-1,1
1470243810727174,-1,-12,-7,2,0,-2,-3,-3
1470243810739684,-1,0,-15,-15,-4,-3,-1,-2
1470243810739684,5,-5,4,19,-1,-2,-3,-1
1470243810748193,1,14,7,-4,1,-1,-1,1
1470243810748193,-9,-44,-10,-22,-3,-2,-1,-4
1470243810763206,-4,-4,-39,7,-1,0,0,-2
1470243810763206,-4,22,-1,-16,-5,-2,-2,-3
1470243810764707,3,-10,11,0,-6,-2,0,0
1470243810764707,8,18,-6,-9,-2,-4,0,2
1470243810785725,-2,33,33,-3,-2,-3,-1,-1
1470243810785725,-3,-27,-16,-5,-4,-1,-3,-1
1470243810787227,-7,-11,19,6,-1,-3,-1,-3
1470243810787227,9,18,-5,4,4,0,1,1
1470243810799738,-7,40,50,-8,-4,-3,-6,-8
1470243810799738,-3,-35,-14,10,2,0,0,0
1470243810808746,3,26,-20,-12,-4,-4,-2,-3
1470243810808746,-1,-29,-7,6,-2,-2,0,1
1470243810823762,-1,-26,-60,2,-1,-3,-5,-2
1470243810823762,-5,-48,3,-20,-4,-2,-3,-5
1470243810824760,-10,7,51,7,-5,0,-1,-1
1470243810824760,-6,-37,-34,-9,0,2,-2,0
1470243810845779,4,15,16,5,-2,-2,0,0
1470243810845779,2,15,13,5,-1,-1,0,0
1470243810847281,5,-3,-3,3,-1,0,0,1
1470243810847281,-2,-6,27,1,2,-2,-1,-1
1470243810859793,2,-6,16,2,2,0,2,1
1470243810859793,0,3,53,-4,-1,-6,-1,-2
1470243810868300,-8,-14,-16,3,-6,-2,-1,-4
1470243810868300,3,10,15,-2,-3,6,-1,1
1470243810883313,-4,-9,-5,-3,0,0,-8,-5
1470243810883313,1,4,3,4,2,1,1,1
1470243810884814,3,8,23,3,3,-4,-4,-1
1470243810884814,-2,5,11,4,-1,1,-2,-3
1470243810905835,2,-1,28,-2,0,-3,0,1
1470243810905835,-8,-31,-28,-7,-6,1,0,-1
1470243810907836,3,8,-15,-6,-3,-1,-3,0
1470243810907836,-3,-9,-8,5,-2,-2,-2,-3
1470243810919346,2,23,3,0,-1,1,3,0
1470243810919346,0,-15,-5,-2,-1,0,-1,-2
1470243810928355,-6,-26,-41,-19,-1,0,1,0
1470243810928355,-1,3,17,14,3,0,2,2
1470243810943367,1,-2,-21,-6,-2,0,0,-1
1470243810943367,2,3,4,6,0,1,-3,0
1470243810944868,-5,28,8,-5,-2,-8,-6,-2
1470243810944868,-6,-13,-19,-3,-9,-2,2,-2
1470243810965889,-2,-25,10,1,8,6,3,0
1470243810965889,0,-3,-45,-8,-2,-2,-1,1
1470243810967389,-3,-1,29,6,3,4,0,1
1470243810967389,-3,-28,-10,4,-3,-8,-4,-4
1470243810979901,1,25,21,-2,-2,-2,0,0
1470243810979901,-3,5,-39,-8,-6,-5,-7,-4
1470243810990912,8,6,-7,2,-1,0,-2,-2
1470243810990912,0,-1,8,-4,3,-3,1,0
1470243811003421,-7,-19,-11,-2,-9,-5,-4,-4
1470243811003421,-1,14,11,-4,6,1,2,2
1470243811004923,1,-1,-11,0,-4,-3,-3,-2
1470243811004923,2,5,-28,-1,7,3,5,0
1470243811025941,-5,-12,-1,8,-5,-3,-12,-6
1470243811025941,8,21,8,-5,5,-1,8,3
1470243811027443,-14,-21,-43,-22,-9,-1,-2,-3
1470243811027443,1,19,30,7,-2,-1,-1,-2
1470243811039454,5,-10,9,8,3,2,4,1
1470243811039454,-3,6,-21,-4,-4,-2,-4,-3
1470243811048461,1,2,13,2,9,3,1,-1
1470243811048461,-7,-3,-29,-8,0,0,-2,0
1470243811063476,-5,-24,-14,-18,-4,-5,0,-2
1470243811063476,-1,23,2,11,-3,-1,-2,-1
1470243811064977,-1,-29,-7,0,-2,1,4,1
1470243811064977,1,29,3,-7,-6,-4,-4,-3
1470243811085995,-1,-16,-31,3,2,1,2,3
1470243811085995,-2,-8,57,3,2,0,-1,-2
1470243811087496,-4,-15,-11,-7,-4,-1,-2,-3
1470243811087496,13,56,20,12,-1,-1,1,5
1470243811108516,-9,-43,2,7,5,2,1,-3
1470243811108516,1,18,20,-4,-3,1,2,1
1470243811110017,13,27,21,7,6,-3,-1,0
1470243811110017,-16,-75,-4,-5,2,2,0,-3
1470243811122528,3,55,-2,2,-4,-2,0,1
1470243811122528,-1,-8,-23,-10,-8,-7,-6,-5
1470243811129536,2,7,2,18,-12,0,-2,-1
1470243811129536,-4,-14,-28,-22,15,3,0,1
1470243811146048,-2,-17,23,5,4,0,1,0
1470243811146048,-7,-16,-20,-14,-4,0,-1,-1
1470243811147551,-1,10,21,10,-2,-4,-1,-1
1470243811147551,-2,5,-32,3,-15,-9,-7,-6
1470243811168069,4,-14,-3,-17,1,3,0,-1
1470243811168069,-2,22,1,47,19,5,0,1
1470243811170070,-5,-3,-5,-39,-3,-1,-2,-3
1470243811170070,7,42,5,17,0,-1,-2,-3
1470243811182582,0,-9,-13,-20,-8,-3,-2,0
1470243811182582,-3,-3,-7,8,-7,-1,-1,-1
1470243811189588,-3,6,6,-6,-2,-5,-2,-3
1470243811189588,0,-31,-39,-2,0,2,-1,0
1470243811205602,-8,1,16,-10,-7,-5,-4,-4
1470243811205602,0,11,59,12,-1,-2,-2,-2
1470243811207607,5,9,-45,-8,0,-2,1,3
1470243811207607,-9,-14,-10,-15,-14,-4,-3,-5
1470243811228625,3,11,-7,-4,10,3,-4,0
1470243811228625,17,-28,-46,-33,-2,-1,2,2
1470243811230126,-22,-26,58,13,-12,-4,-5,-7
1470243811230126,16,24,-16,18,15,2,4,7
1470243811242138,-6,14,-8,19,2,4,2,-5
1470243811242138,-19,-11,11,-21,-1,1,-4,-4
1470243811250646,-10,4,-11,7,0,-2,-1,-2
1470243811250646,11,-2,15,-18,-11,-7,-2,-3
1470243811266156,5,-12,-1,5,-5,2,0,4
1470243811266156,9,9,-30,-6,-1,-2,1,5
1470243811267658,1,-1,6,8,3,1,-1,-8
1470243811267658,-12,-3,37,12,-3,1,1,1
1470243811288177,2,-2,10,4,7,-5,1,3
1470243811288177,10,-13,4,7,-13,-3,-3,-6
1470243811291183,4,3,-1,-4,16,4,4,7
1470243811291183,22,11,19,-9,-5,3,3,3
1470243811302190,-24,11,43,20,-7,-10,-7,-6
1470243811302190,29,-11,-26,-33,-10,2,3,1
1470243811311198,4,-5,-26,-7,6,0,1,6
1470243811311198,-47,0,3,30,13,-2,-4,-9
1470243811325713,1,-7,-30,-35,-13,-2,-1,1
1470243811325713,-30,-12,-1,28,5,-4,-7,-15
1470243811327712,28,-13,18,4,-9,-1,2,-1
1470243811327712,-7,3,-8,-15,1,4,7,10
1470243811348731,-13,7,-21,-4,0,-3,3,-15
1470243811348731,12,-3,7,2,1,-5,-16,1
1470243811349732,17,21,-14,-5,-3,0,-7,12
1470243811349732,-21,-22,-4,-3,-7,-1,3,-4
1470243811361744,2,-12,12,2,-2,-6,0,-12
1470243811361744,-2,20,0,4,-1,4,7,-1
1470243811370751,-9,-31,-9,-2,11,0,-2,1
1470243811370751,36,4,0,-10,-14,-9,-5,2
1470243811385765,-24,-6,2,12,13,6,0,1
1470243811385765,8,6,4,8,-4,-1,-4,0
1470243811387266,-26,3,-11,-7,0,1,0,-7
1470243811387266,-28,-17,11,-3,-8,-3,-6,-12
1470243811408287,7,0,-17,-13,-6,2,7,12
1470243811408287,6,-11,-9,2,3,-5,-7,-6
1470243811409787,38,16,14,1,3,-1,3,5
1470243811409787,24,38,9,-4,-6,0,2,10
1470243811421798,-19,-35,-18,14,13,1,-5,-8
1470243811421798,-39,-15,9,-4,3,-2,0,7
1470243811430805,-16,0,-4,3,-1,-3,-10,-32
1470243811430805,7,-12,3,-13,0,4,-3,2
1470243811445818,49,30,-18,-7,-6,2,1,11
1470243811445818,-35,-5,-4,0,-6,1,12,-6
1470243811447321,-29,-18,-14,-7,-1,1,5,16
1470243811447321,-20,6,-5,-1,-7,-18,-18,-21
1470243811468339,27,-4,12,13,1,6,8,6
1470243811468339,-12,11,2,-6,4,3,3,1
1470243811469840,-6,-4,-4,-4,-15,-1,-3,-3
1470243811469840,11,-1,7,6,5,-6,9,9
1470243811481854,-6,-13,-4,-6,-4,-7,-19,1
1470243811481854,12,-4,-7,-11,-8,-2,-5,-5
1470243811490860,15,16,4,6,2,0,10,0
1470243811490860,-16,-4,6,1,-5,9,2,1
1470243811505872,-15,-20,-3,-3,13,20,6,-10
1470243811505872,0,6,-1,2,0,-8,-22,5
1470243811507877,-1,-2,2,1,0,-7,14,-5
1470243811507877,-2,-4,2,3,4,7,18,6
1470243811528392,7,9,-1,-9,-19,-16,-11,9
1470243811528392,7,0,-2,-1,0,-12,-22,-10
1470243811529894,6,-3,-4,-6,-11,12,3,-4
1470243811529894,-12,-18,-4,-6,1,-8,18,-5
1470243811541913,12,12,5,8,14,8,-18,-4
1470243811541913,-19,-16,-3,-1,3,-4,7,2
1470243811550914,-4,-6,2,2,2,-17,7,3
1470243811550914,15,4,-1,0,-3,6,17,1
1470243811565926,-7,10,2,-8,-8,-1,12,-3
1470243811565926,5,0,-1,0,-1,-3,-3,-4
1470243811567427,-5,3,-2,-1,-3,4,-6,-2
1470243811567427,7,8,1,5,11,-3,-26,-1
1470243811588446,1,-9,3,0,-2,15,38,10
1470243811588446,3,2,-1,3,4,4,7,2
1470243811589952,-6,-3,-7,-8,-14,-30,-47,-9
1470243811589952,0,-3,4,2,6,12,-1,1
1470243811601958,-8,1,-3,-7,-29,-23,-17,-5
1470243811601958,16,1,-1,2,28,12,13,4
1470243811610967,11,0,-2,4,5,23,15,5
1470243811610967,-20,-5,-4,-10,-38,-21,-11,-10
1470243811625980,3,6,2,3,34,-37,-25,6
1470243811625980,-1,-1,-4,-6,-15,30,17,-3
1470243811627983,1,-7,-4,-3,13,5,11,-7
1470243811627983,4,4,6,10,26,-15,-16,-7
1470243811649000,10,1,-1,-7,-35,29,61,16
1470243811649000,-9,4,0,-3,-9,-31,-32,-5
1470243811650502,-8,-8,-2,-1,8,8,1,2
1470243811650502,14,2,-4,-4,-11,4,-31,0
1470243811662012,-20,-6,-5,-9,-12,-26,-80,-33
1470243811662012,15,4,6,8,6,5,32,20
1470243811671021,-9,2,0,-3,-14,-16,-31,-12
1470243811671021,-5,-6,-3,-3,7,13,52,6
1470243811686034,0,3,-3,-3,-3,17,6,-1
1470243811686034,-15,-2,0,0,3,28,7,20
1470243811687535,7,0,-5,-1,-4,-17,-68,-11
1470243811687535,-5,-2,1,-4,0,-4,-23,7
1470243811708554,-4,-3,-6,-2,1,-8,7,-5
1470243811708554,-2,-4,-6,-4,-7,-14,-13,-15
1470243811710056,6,3,4,5,10,36,27,28
1470243811710056,1,1,-1,-4,-10,-29,-43,-6
1470243811722066,-4,1,1,0,-1,7,13,7
1470243811722066,0,-5,-12,-10,-6,-44,35,-22
1470243811731074,-6,-1,6,0,3,11,-31,-4
1470243811731074,-5,-6,-6,-7,-10,-4,-9,-2
1470243811746091,14,10,3,8,3,-21,7,4
1470243811746091,-8,-9,-2,-3,3,-5,13,-4
1470243811747589,-5,-1,-1,-3,-7,-13,-21,-3
1470243811747589,4,-6,-2,5,6,32,-28,9
1470243811768608,0,2,-2,-2,-1,-11,0,-18
1470243811768608,3,1,4,0,-18,4,-10,-6
1470243811770109,-15,1,-6,-5,22,23,2,-1
1470243811770109,1,-8,1,5,-3,-45,-19,-12
1470243811782120,-3,0,-1,2,2,-16,7,18
1470243811782120,21,6,7,6,6,32,-38,-2
1470243811791128,6,7,3,3,-4,-35,78,2
1470243811791128,1,1,5,5,10,24,22,8
1470243811805641,-1,-2,-3,1,6,38,-38,8
1470243811805641,-6,-2,-1,-4,-13,-21,28,-8
1470243811807643,2,1,5,4,3,17,57,9
1470243811807643,2,1,-6,-6,-2,-22,-21,-10
1470243811828162,1,-5,3,1,0,16,17,0
1470243811828162,-6,-3,-3,-1,0,-5,-50,1
1470243811829663,-11,-10,-10,-10,-15,-27,-9,-10
1470243811829663,2,1,0,-2,-2,16,28,0
1470243811850682,-1,3,0,0,2,-5,-26,-3
1470243811850682,-4,-5,-2,0,-4,-4,48,-1
1470243811852683,8,3,1,4,5,30,-18,4
1470243811852683,0,-1,-3,0,-4,-10,26,-6
1470243811865195,3,2,3,2,13,16,20,1
1470243811865195,8,-1,2,-3,-2,5,30,3
1470243811872202,-14,0,-4,-4,-11,-2,-68,-1
1470243811872202,-5,-4,0,2,2,0,19,0
1470243811888216,-5,-3,-4,-3,-5,-7,6,-19
1470243811888216,6,-4,0,1,1,-22,-8,16
1470243811889722,9,0,-2,-2,-6,6,43,-7
1470243811889722,-3,0,-6,-6,-6,-6,12,-2
1470243811910737,-6,-3,-3,-4,-7,-12,-18,-8
1470243811910737,1,5,1,4,8,19,8,4
1470243811912738,1,-4,-2,-3,-7,-13,30,-4
1470243811912738,-9,-2,0,-3,-4,-27,-58,-7
1470243811926750,-2,-2,-4,-1,2,16,-4,7
1470243811926750,3,7,-3,-6,-4,-6,-23,1
1470243811932255,-12,-9,2,3,-2,-4,35,-5
1470243811932255,1,-1,-2,-1,0,18,1,-7
1470243811948770,2,5,2,0,0,7,-29,-6
1470243811948770,-10,-4,-1,-3,0,1,16,-7
1470243811950271,3,2,-1,-1,0,-29,-20,-2
1470243811950271,3,4,-3,-4,-5,-25,-2,-1
1470243811962283,-3,-5,1,1,4,42,25,10
1470243811962283,-6,-4,3,1,-2,-1,-14,-2
1470243811970789,-1,-5,-5,-8,-10,-16,11,-3
1470243811970789,4,-1,0,4,4,20,21,6
1470243811985302,-6,-2,-1,-5,-5,-28,13,-2
1470243811985302,1,-1,1,0,2,1,-15,8
1470243811991813,1,2,0,-2,-2,7,-22,2
1470243811991813,-6,-1,0,0,0,3,-10,-11
1470243812008325,9,-3,0,3,3,6,29,11
1470243812008325,-3,0,-5,-3,-3,-21,-11,-6
1470243812009826,-4,2,4,4,7,26,6,9
1470243812009826,3,-9,-3,-3,-2,16,53,5
1470243812021836,-20,13,0,-1,-4,-17,-34,-13
1470243812021836,4,2,-2,0,0,-19,11,-3
1470243812030844,9,3,3,5,6,29,-19,0
1470243812030844,-2,3,0,-1,-1,1,17,4
1470243812045857,2,-9,-5,-5,-4,-14,-33,-6
1470243812045857,-2,-3,-1,-2,0,1,-38,-3
1470243812047358,-5,-4,-4,-4,-9,-40,17,-16
1470243812047358,8,4,1,5,9,32,-5,4
1470243812068379,-5,-7,-1,-2,-7,-6,16,-5
1470243812068379,-4,-3,-3,-1,1,0,-8,-1
1470243812069879,4,0,-2,-1,-1,-8,-63,3
1470243812069879,-1,-1,1,0,1,9,19,3
1470243812090899,1,1,-2,-1,-2,-19,5,1
1470243812090899,-3,-1,0,0,0,17,-10,-8
1470243812092400,1,2,0,1,3,7,8,2
1470243812092400,-2,0,-2,-3,-4,-24,-20,-2
1470243812105912,2,0,1,2,10,34,15,8
1470243812105912,1,-1,-4,-3,-2,5,6,-5
1470243812107417,-4,-4,-3,-5,-5,-19,-20,-3
1470243812107417,-4,0,-1,-2,-1,36,-67,-5
1470243812128431,-1,1,2,0,-5,-21,21,-6
1470243812128431,-7,-4,-4,-5,-5,7,41,0
1470243812129933,-1,-1,2,3,3,9,-30,4
1470243812129933,-1,-2,-1,-2,-5,-13,-20,4
1470243812158458,-3,-2,-3,-1,-3,1,-8,-16
1470243812158458,1,0,1,1,0,1,-2,3
1470243812159961,-8,-4,-5,-5,-8,-23,16,-5
1470243812159961,4,0,0,-1,2,3,51,-4
1470243812165965,-2,-4,-1,-3,-3,-20,-18,-3
1470243812165965,1,-1,0,1,0,1,14,0
1470243812167466,4,-6,-2,-1,0,6,38,12
1470243812167466,-6,15,1,-1,-2,-13,-16,-14
1470243812188485,0,-7,-1,0,0,-3,8,3
1470243812188485,-7,0,-4,-2,-1,-15,8,-2
1470243812189991,4,0,4,3,2,36,-30,-3
1470243812189991,-2,-6,-3,-3,0,-18,-27,1
1470243812218512,2,-2,2,2,1,-15,-14,5
1470243812218512,2,5,0,-2,0,32,-43,-5
1470243812220014,-3,-4,-2,-2,-5,-24,3,0
1470243812220014,-6,-6,-3,-4,-4,2,7,-5
1470243812225019,4,2,-3,-4,-5,-1,-31,5
1470243812225019,-2,-3,2,5,5,24,36,4
1470243812232026,-1,1,-2,0,3,7,39,3
1470243812232026,1,-4,-3,-1,-2,-9,2,0
1470243812248539,-2,0,-3,-3,-7,-38,19,-9
1470243812248539,-1,-1,1,-1,1,18,-39,4
1470243812250041,-6,-1,-1,-4,-4,2,-31,-9
1470243812250041,3,-2,-4,-1,0,4,4,2
1470243812271059,-2,-1,0,0,2,8,-12,9
1470243812271059,-1,-1,-1,-1,-3,-11,-28,-6
1470243812272561,0,11,-2,0,3,18,35,-3
1470243812272561,-2,-7,0,-1,-4,-9,5,3
1470243812285072,0,-4,-3,0,3,27,7,4
1470243812285072,-9,-2,2,-1,-4,-10,-16,-4
1470243812292078,7,21,-1,-1,-3,-20,-18,-4
1470243812292078,-3,-13,2,3,2,20,-5,0
1470243812308093,1,9,-3,-5,-3,1,54,0
1470243812308093,2,3,0,4,4,-13,-11,3
1470243812310094,-1,-12,-3,-1,0,16,19,1
1470243812310094,-2,9,0,0,-2,-3,20,2
1470243812330613,-4,-6,-3,2,2,6,4,-5
1470243812330613,-1,-9,-3,-4,-4,-14,11,1
1470243812337119,0,-4,-2,-3,-4,-10,-30,-3
1470243812337119,2,4,-2,2,4,3,21,2
1470243812345627,-9,-4,1,-2,-2,7,-14,-5
1470243812345627,0,9,-1,-4,-4,-11,13,-4
1470243812352133,-4,2,-1,-3,-3,-7,4,5
1470243812352133,2,-1,-2,-1,-4,-2,41,-5
1470243812368147,-3,-1,1,3,5,17,-16,4
1470243812368147,-2,-4,-3,-2,-2,-13,17,-5
1470243812369648,1,-4,1,3,6,18,15,-1
1470243812369648,-2,-1,0,-1,-2,-36,-22,1
1470243812391167,1,-2,-3,-6,-4,17,14,-3
1470243812391167,2,-4,-2,-1,2,-7,17,5
1470243812392674,-3,-6,-1,-1,-3,-24,-4,-6
1470243812392674,-1,-2,-6,-3,-2,10,-30,2
1470243812405180,-3,-8,9,1,-3,-8,-8,-4
1470243812405180,4,0,5,1,-2,-24,23,2
1470243812412186,-3,-5,-15,1,7,36,27,7
1470243812412186,-1,1,-3,-4,-7,-29,-2,-9
1470243812428200,0,6,11,2,4,11,9,-6
1470243812428200,-1,-7,-7,-2,1,9,8,1
1470243812429702,-2,-5,-4,-4,-3,-8,-20,-5
1470243812429702,-1,-3,-1,-2,0,0,29,3
1470243812450723,2,0,-7,-2,-1,-8,-8,3
1470243812450723,-5,2,1,1,-1,3,-16,-9
1470243812452722,-1,-3,-2,-1,-6,-20,8,-2
1470243812452722,3,2,5,4,5,21,-23,5
1470243812465234,-1,-3,-6,-4,-4,-24,3,-2
1470243812465234,-2,2,-3,-1,0,27,-19,1
1470243812472240,0,0,-7,-4,-5,-18,-44,-3
1470243812472240,-1,1,5,-1,-1,2,-19,2
1470243812488254,2,2,-5,0,-3,0,-9,0
1470243812488254,0,-5,-1,0,1,-13,1,-1
1470243812490258,-1,-3,3,1,0,-4,13,1
1470243812490258,-1,1,0,4,8,35,0,3
1470243812510775,-2,-3,-3,-2,-3,1,-16,-1
1470243812510775,6,-1,-4,-2,-2,-7,-13,-1
1470243812512278,3,-1,5,-4,-11,-5,11,-2
1470243812512278,-8,1,1,3,13,14,13,0
1470243812524787,-1,-3,-6,-1,1,-21,-43,-13
1470243812524787,-2,-2,-1,-1,-3,18,-3,5
1470243812533294,8,-3,1,-1,2,2,2,0
1470243812533294,5,4,-4,-3,-9,-10,-17,1
1470243812548308,5,0,-2,1,-3,-3,84,1
1470243812548308,-11,-1,3,4,8,20,-42,-6
1470243812549810,-7,-6,2,4,12,22,12,10
1470243812549810,-2,-3,-5,-5,-8,-18,-11,-4
1470243812570830,0,-5,-1,-4,-6,-3,0,-3
1470243812570830,4,2,-4,-5,-16,-16,-6,-5
1470243812572330,-7,0,-2,0,3,-2,-18,-20
1470243812572330,1,-1,1,0,5,2,32,7
1470243812584841,0,1,0,0,2,4,-15,7
1470243812584841,1,-3,-3,-4,-12,-8,6,2
1470243812593850,1,-1,3,3,-1,3,-11,2
1470243812593850,-14,-7,-8,-18,-1,-7,4,-11
1470243812608366,-7,-3,1,-2,-1,0,-15,9
1470243812608366,-6,-1,1,10,9,3,10,-8
1470243812609864,0,1,4,4,1,-3,21,10
1470243812609864,3,1,0,9,18,-4,-27,-21
1470243812630883,-1,2,-6,0,8,5,-2,0
1470243812630883,-10,-8,-3,-13,-15,-11,1,-5
1470243812632384,-3,-3,-6,-12,-19,-23,-15,-2
1470243812632384,9,3,0,0,-10,6,46,23
1470243812644394,1,5,10,2,3,43,-33,-10
1470243812644394,-1,-3,-2,0,2,-14,-4,-18
1470243812653403,-6,-3,-4,-3,-4,-1,-26,-8
1470243812653403,-1,-3,-2,-8,-2,-5,4,14
1470243812667915,0,-3,-7,-4,-3,-17,19,0
1470243812667915,7,4,7,4,1,7,1,17
1470243812674923,2,7,4,-5,1,6,18,12
1470243812674923,-6,-12,-8,1,-4,-3,-36,-32
1470243812690936,0,1,3,15,1,-7,22,12
1470243812690936,3,5,-3,-4,0,4,-5,0
1470243812692439,-4,-7,-1,-10,-10,-6,8,-4
1470243812692439,1,0,2,2,1,2,-2,9
1470243812704448,-4,-3,-4,14,-2,-3,-6,-8
1470243812704448,2,1,-1,-10,3,-4,5,-3
1470243812720964,-2,1,-4,-4,11,6,10,7
1470243812720964,0,2,0,-2,-9,-1,-16,-2
1470243812728470,-4,-3,0,-4,-11,-11,-16,-9
1470243812728470,2,0,-3,-3,5,4,8,9
1470243812729971,-3,-3,4,8,2,0,-2,1
1470243812729971,-2,2,-1,-9,-12,-3,-7,-6
1470243812750990,-1,-3,-2,5,-4,-7,-2,-5
1470243812750990,-1,-4,1,7,-2,-1,2,5
1470243812752493,-1,1,-3,-10,-3,-1,-3,-7
1470243812752493,1,0,-2,7,4,-1,-1,-5
1470243812764502,-2,-2,0,-15,-3,-4,-2,4
1470243812764502,-3,-7,-1,3,1,5,1,0
1470243812773514,6,4,2,10,4,-2,-6,-6
1470243812773514,-2,-3,-4,-10,-5,-1,1,0
1470243812787523,-1,3,-1,-2,3,1,-1,1
1470243812787523,2,2,-2,-10,3,-2,-2,-4
1470243812794530,-4,-3,0,7,-1,-1,-2,-5
1470243812794530,2,0,4,16,-3,-2,1,5
1470243812811044,4,-2,-5,-20,-1,-5,-7,-2
1470243812811044,-3,0,-4,2,4,0,6,-3
1470243812812546,-6,-3,2,5,-6,-6,-4,-1
1470243812812546,-1,-6,1,9,9,2,-8,-1
1470243812824558,0,4,-1,4,-1,-3,-2,-4
1470243812824558,-1,-5,-1,3,-1,1,1,1
1470243812833564,0,-2,-3,-9,0,2,1,0
1470243812833564,-2,1,1,0,-3,-1,3,2
1470243812847577,5,-2,0,7,2,1,-6,-5
1470243812847577,-3,-2,-4,-2,-3,-4,4,1
1470243812854583,3,1,-2,-6,-5,-3,1,2
1470243812854583,-1,3,-2,-3,-11,-4,-6,-6
1470243812870598,0,-3,-4,-2,10,2,8,7
1470243812870598,-3,1,8,9,-3,-1,-5,-3
1470243812872600,1,-2,-6,-12,2,0,2,0
1470243812872600,1,-1,1,7,-3,-1,0,-1
1470243812884609,-8,-6,-3,-15,-5,-6,-13,-11
1470243812884609,2,2,0,-1,0,0,-2,2
1470243812893618,-1,1,1,10,4,0,5,2
1470243812893618,-3,-4,1,-4,-6,-2,-6,-2
1470243812908132,-1,-3,-1,7,-2,-1,5,6
1470243812908132,0,-2,-7,-6,-2,-1,-3,-2
1470243812916139,-3,-5,-1,-4,-4,-4,3,-3
1470243812916139,-4,-3,1,-5,-6,0,9,6
1470243812930653,2,1,-1,3,6,2,-2,-3
1470243812930653,1,-3,-2,0,-1,-3,-2,0
1470243812932653,-1,0,-2,3,-2,-2,-2,-1
1470243812932653,-1,1,-3,-4,1,0,-3,-5
1470243812944664,-3,-2,2,0,-3,-3,1,-3
1470243812944664,-1,0,-4,-7,-5,2,-1,1
1470243812953672,1,0,-1,0,2,1,-4,-2
1470243812953672,0,-1,2,-4,3,-3,-1,-3
1470243812967684,-3,-3,-2,-1,-4,-1,-1,0
1470243812967684,-3,-5,0,4,-2,0,-1,0
1470243812974692,4,3,4,10,5,0,-3,-2
1470243812974692,-2,-5,-2,-7,3,-1,-1,-1
1470243812991208,-1,0,5,8,-6,-1,2,2
1470243812991208,0,2,-5,-13,-1,-1,-2,-3
1470243812992707,-4,-4,0,0,-2,-2,-5,-3
1470243812992707,0,-5,-5,-3,1,0,0,-1
1470243813013226,-2,1,-8,-9,1,-1,0,1
1470243813013226,1,2,3,9,0,-1,-3,-1
1470243813015228,-3,-2,-1,-7,-6,-2,-4,-2
1470243813015228,-3,-1,-4,2,2,1,-2,-1
1470243813027740,2,-3,-1,4,0,-3,-3,-3
1470243813027740,-2,3,3,9,-3,1,0,-1
1470243813034744,0,-1,-3,-12,0,1,-1,0
1470243813034744,7,3,3,3,-5,-2,-1,-2
1470243813050759,-8,-4,-4,-7,2,0,1,0
1470243813050759,-3,-4,0,-1,-2,-2,-1,0
1470243813052260,2,1,3,4,0,2,-2,-1
1470243813052260,-1,-2,0,3,2,-1,0,-1
1470243813073281,1,-1,-2,-3,2,0,-1,-1
1470243813073281,1,-2,2,1,-6,-2,0,0
1470243813079787,-1,-1,-3,-6,-1,-2,-3,-3
1470243813079787,-3,-2,-2,-6,-1,-1,-3,1
1470243813087792,-2,5,-1,-4,-7,-3,-3,0
1470243813087792,1,-4,-3,-2,2,0,-1,-1
1470243813094298,-2,-2,-2,7,0,-3,0,-2
1470243813094298,0,-6,-2,7,-6,-1,-1,0
1470243813111314,-1,2,0,-9,-4,-1,-3,-1
1470243813111314,-2,-3,-3,4,1,2,1,0
1470243813112316,-4,0,-4,-10,-2,1,-1,-3
1470243813112316,-1,-2,1,2,0,0,-3,0
1470243813134834,1,-1,-1,0,-4,-2,-1,-2
1470243813134834,1,-1,-1,0,-2,-2,-3,0
1470243813136336,-4,-2,-2,-2,-2,-1,-1,-1
1470243813136336,-1,2,3,4,0,-2,-1,-3
1470243813146846,-2,-6,-2,-10,-2,1,-2,0
1470243813146846,-1,-1,-3,-5,3,-1,1,-2
1470243813156356,0,0,-2,8,0,-1,0,-1
1470243813156356,-3,1,-1,-7,-1,-2,0,-2
1470243813170867,0,-1,-1,4,-2,-3,0,-1
1470243813170867,-1,0,-1,-3,-1,-2,-3,-2
1470243813172369,2,4,0,6,1,-1,-3,-2
1470243813172369,-3,-4,-7,-15,-3,-1,-1,-2
1470243813193388,-1,-2,-2,0,1,-1,-1,2
1470243813193388,-1,-7,-5,-7,-2,-3,-2,-4
1470243813194890,-1,-2,-3,-6,-3,-1,-1,-1
1470243813194890,1,3,-1,5,0,-3,-2,-1
1470243813206901,0,0,-1,3,-1,-2,-2,-1
1470243813206901,-2,-3,-6,-5,3,0,-1,2
1470243813215909,-1,-2,-1,1,-2,0,-1,0
1470243813215909,-2,-1,-2,-9,-2,-2,-2,-2
1470243813230921,5,3,-2,0,-4,-2,-1,-3
1470243813230921,-9,-1,0,1,5,0,-1,-2
1470243813232423,-2,-1,-4,-2,-5,-3,-2,-2
1470243813232423,2,-1,-9,-11,-2,0,-1,-2
1470243813253441,-3,-3,4,1,-2,-2,-2,-1
1470243813253441,1,2,-1,0,-3,-3,-1,0
1470243813254943,0,-1,-3,-5,1,-1,0,-3
1470243813254943,0,0,-1,5,0,0,1,-3
1470243813266954,-2,0,-3,-4,-2,-2,-3,-1
1470243813266954,1,0,0,-3,-3,0,-1,-3
1470243813275962,0,-2,-1,-1,-2,-3,0,0
1470243813275962,-2,-3,-2,1,-1,-1,0,-1
1470243813290978,-2,-1,-1,-2,1,-1,-3,-2
1470243813290978,4,2,-2,0,-2,-1,-1,-1
1470243813292477,-1,-2,0,0,-1,-1,-4,0
1470243813292477,0,0,0,-2,0,-1,-1,0
1470243813313496,1,0,-2,2,0,-3,0,-2
1470243813313496,-1,-2,0,-3,-3,0,-1,-2
1470243813314996,-1,-3,-2,-1,0,0,-1,-1
1470243813314996,-1,-1,0,-3,0,0,-2,1
1470243813327008,-1,1,0,4,-1,1,-1,0
1470243813327008,-1,-1,-5,-10,-2,-4,-2,1
1470243813336016,-2,-3,-2,-2,0,0,0,-2
1470243813336016,2,2,-1,2,1,-4,-1,0
1470243813351032,-5,-4,1,2,-1,3,-2,-1
1470243813351032,0,-2,2,2,1,2,4,1
1470243813352530,0,0,-2,-3,-4,-5,-4,-1
1470243813352530,-3,-3,0,-2,-2,1,-6,-2
1470243813373550,0,0,-1,-1,-3,-5,9,-1
1470243813373550,-1,0,0,2,0,-1,-12,-1
1470243813375054,1,-2,-2,-2,1,2,3,1
1470243813375054,-4,-2,0,0,-3,-2,4,-3
1470243813387062,0,0,-1,-3,1,6,1,0
1470243813387062,0,-2,-2,0,-2,-5,-4,-1
1470243813396070,-2,-3,0,0,-3,-1,-1,-1
1470243813396070,-1,-1,-2,0,0,-5,-5,-2
1470243813411083,2,0,-3,-3,-2,1,-1,-1
1470243813411083,-2,-2,-1,-1,-2,-1,0,0
1470243813412585,1,3,2,6,1,0,1,-2
1470243813412585,0,-2,-2,-6,0,-1,1,0
1470243813433606,-3,-5,0,-2,-1,-4,-5,-2
1470243813433606,-1,-3,-1,0,-2,0,3,-1
1470243813435104,-3,-3,-2,5,-3,-3,-2,1
1470243813435104,1,1,2,1,2,1,-2,-3
1470243813447115,-1,-3,-1,-4,-1,-1,0,0
1470243813447115,-1,-1,-1,-2,0,-1,0,-2
1470243813458126,1,0,-1,0,-2,-1,-2,0
1470243813458126,-3,-3,2,4,-1,1,-1,1
1470243813472140,-1,1,-3,-3,0,0,-2,-2
1470243813472140,-1,1,-3,-5,-1,1,0,-1
1470243813473639,0,0,0,-2,-2,-2,-1,-2
1470243813473639,-3,0,-1,-1,-2,0,-1,-1
1470243813493657,10,-2,0,-2,-3,-2,-1,0
1470243813493657,-3,1,2,3,-1,-1,2,0
1470243813495159,-6,-3,-2,-3,0,-1,-1,1
1470243813495159,-2,-3,-2,2,-2,-1,-2,0
1470243813507171,-2,0,-1,0,-1,-2,-1,-1
1470243813507171,1,-3,-2,-2,-6,-3,-1,-2
1470243813516179,-4,0,-2,-3,0,3,1,-2
1470243813516179,4,-1,-2,-2,-2,-2,0,-1
1470243813530190,-4,-2,-1,4,1,1,-1,-1
1470243813530190,-2,-1,-2,-3,-4,-4,-2,0
1470243813537196,-3,-1,0,0,-3,-2,-3,-1
1470243813537196,2,3,1,0,-1,0,-2,0
1470243813553210,-1,-3,-5,-7,-3,-2,-1,-1
1470243813553210,-2,-3,0,3,0,0,0,-3
1470243813555212,1,-1,-2,-2,1,1,0,-2
1470243813555212,-4,-2,-2,-3,-2,-2,-2,-1
1470243813566722,-2,1,0,3,0,-1,-2,1
1470243813566722,-1,0,-1,-1,-1,-1,-2,-1
1470243813576231,3,1,-3,-3,-2,-1,-1,0
1470243813576231,0,-3,0,-3,-2,0,1,-1
1470243813591246,-2,-1,1,6,-1,-2,0,-1
1470243813591246,1,-1,-5,-8,0,-3,1,-2
1470243813592747,0,-1,1,-1,-1,-1,-1,-1
1470243813592747,-2,0,-2,-2,-1,-1,0,-1
1470243813613765,-6,-1,0,2,1,-1,1,-1
1470243813613765,-2,-1,3,3,-2,0,-1,1
1470243813614766,-2,-1,-1,-2,-2,-1,-1,-2
1470243813614766,1,-2,-8,-10,-2,0,2,-1
1470243813627279,2,-2,-1,1,-2,-2,-3,-3
1470243813627279,-2,-1,0,-2,-2,2,3,-2
1470243813635784,-4,-3,-2,1,-1,-4,-15,-2
1470243813635784,7,3,-2,-1,-1,0,-1,-1
1470243813650798,-3,-2,0,-5,-1,-3,-2,0
1470243813650798,-2,-2,-1,7,0,2,3,-2
1470243813652801,0,-1,-1,-8,0,0,2,-1
1470243813652801,-4,-3,2,3,-1,-3,-1,1
1470243813673820,-1,1,-2,-1,-2,0,-2,-1
1470243813673820,1,1,-1,-2,-1,-3,-1,-2
1470243813675324,1,-5,0,1,-1,0,1,-1
1470243813675324,-4,-4,-2,-5,-2,0,-1,-3
1470243813686831,-2,-2,-1,-2,-2,-4,-1,-2
1470243813686831,1,-1,-2,1,0,0,-3,-1
1470243813695839,0,-1,-3,-3,-2,-3,1,-3
1470243813695839,-2,0,-1,2,2,0,-3,-1
1470243813710351,3,0,-5,-5,-3,1,-1,1
1470243813710351,-8,-1,-2,-4,-1,0,-2,1
1470243813716858,5,-3,1,0,0,-1,1,-1
1470243813716858,-3,1,-2,-1,0,-2,-1,-3
1470243813733372,0,-2,1,-1,-1,2,1,-1
1470243813733372,0,-2,1,-1,-1,-1,-4,-1
1470243813734875,-2,1,-3,-1,0,-1,1,1
1470243813734875,-2,-3,-2,1,-1,-2,-3,-1
1470243813746885,1,-3,0,-3,1,1,1,0
1470243813746885,0,-4,-2,-3,-3,-3,-3,-1
1470243813756393,-2,1,-2,0,-1,1,0,-1
1470243813756393,-2,-2,1,-1,-3,0,-1,0
1470243813770405,-3,1,0,-2,-1,-1,1,-1
1470243813770405,1,-1,0,-1,0,-1,1,-1
1470243813776913,-2,-3,0,-4,-7,-6,-6,-3
1470243813776913,-3,-1,0,-1,-3,1,-12,-2
1470243813793426,-2,-1,0,3,2,2,3,1
1470243813793426,1,1,0,-1,0,-2,-3,-3
1470243813794928,-3,-1,0,1,-2,-2,0,0
1470243813794928,-1,0,-1,-1,-2,-3,-1,0
1470243813807440,-1,-2,-4,-4,-3,2,-2,-3
1470243813807440,1,-2,-1,-2,-1,-5,-1,0
1470243813823455,-1,-1,-1,0,0,1,-1,-1
1470243813823455,-1,1,-1,-1,0,-2,1,-2
1470243813830960,-2,-1,0,-2,-1,0,-3,-1
1470243813830960,-2,-1,-2,0,0,-1,2,0
1470243813832461,-4,-2,0,-3,-2,-1,-2,-2
1470243813832461,1,0,0,0,0,2,4,-2
1470243813853480,-2,-4,1,-1,-2,-3,-2,-1
1470243813853480,-4,-1,-2,0,-2,-1,-2,-2
1470243813854982,-1,1,-2,0,0,0,0,1
1470243813854982,-3,-5,0,1,0,-1,-5,-2
1470243813866992,-2,1,-1,-1,-2,0,1,-1
1470243813866992,1,0,0,1,-1,0,-2,0
1470243813876001,-2,-1,3,1,-1,1,0,-2
1470243813876001,-1,-1,-4,-2,-1,-1,6,3
1470243813891013,-1,-3,-5,-5,-3,-1,-7,-4
1470243813891013,1,0,-5,-4,0,1,0,0
1470243813892517,0,-2,-2,0,0,0,2,5
1470243813892517,-5,-3,9,-1,-2,-3,-3,-7
1470243813913534,-1,2,-1,1,-1,-4,-1,0
1470243813913534,0,0,-3,-2,0,3,0,-2
1470243813915035,-1,-2,-2,2,-1,2,-1,0
1470243813915035,2,0,-8,-3,0,-5,6,3
1470243813935554,0,0,0,1,0,1,-1,-2
1470243813935554,-1,-3,-3,-9,-3,-2,-3,-1
1470243813937557,0,0,1,-1,0,-1,1,3
1470243813937557,-2,0,-3,-1,0,2,0,-8
1470243813950067,-4,-4,1,0,-2,-2,-2,0
1470243813950067,-2,-1,9,3,-2,1,-2,-2
1470243813957087,0,0,-5,-6,-3,-3,-1,-2
1470243813957087,2,-1,-4,3,-1,-1,-3,-1
1470243813973588,-3,0,-12,-1,-2,-2,2,-1
1470243813973588,-4,0,6,-2,-3,-1,-1,-3
1470243813975090,7,-4,0,-1,1,-1,5,-1
1470243813975090,-1,-1,-4,2,-3,-2,-3,4
1470243813995609,0,-1,5,-1,-1,1,3,-2
1470243813995609,-2,-2,-9,0,-2,-3,-5,-2
1470243814003618,-1,0,9,-1,0,-1,1,-1
1470243814003618,-1,-1,2,-1,-2,-1,-1,0
1470243814011123,0,-6,-7,-4,-1,1,-1,-1
1470243814011123,-2,0,1,1,-2,-3,1,0
1470243814012624,-2,-1,1,1,-1,1,-1,-2
1470243814012624,2,0,-1,-2,1,1,0,0
1470243814033642,0,0,-1,-6,-2,-1,-3,-2
1470243814033642,0,-2,-3,0,-1,-1,-1,2
1470243814035144,-2,-1,-6,-1,-1,0,-3,-3
1470243814035144,1,2,2,2,0,1,0,-1
1470243814055661,-1,2,2,0,-1,-1,0,-1
1470243814055661,2,1,-5,-2,-2,0,0,0
1470243814057665,-2,0,5,0,-2,-2,-3,-1
1470243814057665,-4,-1,-1,0,-3,0,1,1
1470243814070675,3,-2,4,1,-1,-4,-4,0
1470243814070675,-2,1,2,0,0,0,-1,0
1470243814072677,-4,-2,-8,-3,-2,-1,5,-2
1470243814072677,-3,-4,3,0,0,-3,-8,0
1470243814093696,-1,0,-1,1,-2,-3,2,0
1470243814093696,2,-1,0,4,2,1,0,-1
1470243814095196,-2,-4,-17,0,-1,-1,0,2
1470243814095196,-4,-2,9,-2,-4,1,2,-3
1470243814115717,-2,1,-6,-1,-1,-4,-2,-2
1470243814115717,2,-1,4,-2,-2,-2,-4,-1
1470243814117718,-5,1,12,3,1,-1,-2,-3
1470243814117718,-3,-10,-47,-8,-1,-2,2,-1
1470243814130230,-1,0,6,-3,-1,0,-3,-4
1470243814130230,-1,-1,10,0,-1,-1,1,-1
1470243814136736,0,1,3,-4,-3,-1,-3,-1
1470243814136736,0,4,16,4,0,-5,-1,1
1470243814160757,-1,-1,1,-1,-2,-3,6,1
1470243814160757,-7,-4,-1,0,2,4,4,3
1470243814162759,1,0,-27,-3,-1,-4,-5,-4
1470243814162759,-1,1,3,-1,-2,3,2,1
1470243814175770,-4,-3,-8,-3,-1,-2,2,-2
1470243814175770,2,0,6,0,-1,-5,-3,0
1470243814177771,0,-2,-1,-3,-2,-2,-5,0
1470243814177771,0,0,1,-1,1,-2,-1,2
1470243814190786,-1,1,10,2,0,1,-1,-4
1470243814190786,-1,-2,-21,-2,-1,0,-1,-4
1470243814197289,-2,-3,12,0,-1,0,-4,0
1470243814197289,-1,0,4,2,0,0,1,-2
1470243814213803,-1,0,13,1,0,0,-2,0
1470243814213803,-6,-1,-17,-1,-4,-3,-2,-1
1470243814214805,-1,0,1,1,0,0,1,-5
1470243814214805,0,-2,1,-5,-1,-1,-1,0
1470243814235823,0,1,6,-3,0,-1,-4,-1
1470243814235823,0,-1,-2,-2,-3,-2,-1,-3
1470243814237325,0,-3,-16,-1,0,3,-6,0
1470243814237325,-5,-9,-32,-8,-6,-8,7,-4
1470243814250336,-3,1,8,-3,-2,-8,-25,2
1470243814250336,-3,-2,14,0,-2,7,15,-4
1470243814257345,1,3,-1,0,-1,-7,1,0
1470243814257345,3,7,30,8,5,13,4,4
1470243814273859,-2,-9,-7,1,-4,-5,2,-3
1470243814273859,1,-3,-40,-11,-2,-2,-1,0
1470243814275860,-3,-3,-1,1,-3,-4,-2,-2
1470243814275860,0,-1,-40,-8,0,-7,-8,-3
1470243814295877,-6,-2,10,1,-4,2,8,-2
1470243814295877,-3,-6,57,-2,-3,-6,-8,-1
1470243814297379,0,0,-6,-1,0,6,-6,0
1470243814297379,-1,3,11,-1,-2,-2,17,0
1470243814310390,2,0,-12,8,6,10,-8,-2
1470243814310390,0,-4,-16,-3,0,1,2,1
1470243814316895,-3,-1,1,-3,-3,-3,-1,-1
1470243814316895,1,3,42,6,0,-1,-13,-1
1470243814333913,-3,-3,-45,-4,-1,-7,5,-2
1470243814333913,-2,-6,-1,-4,-2,5,0,-3
1470243814334914,0,-1,24,2,-2,-9,-1,3
1470243814334914,-1,1,3,2,-1,3,4,-2
1470243814355931,-2,-5,-23,-7,-5,-2,-10,0
1470243814355931,-2,5,-17,3,3,-1,-4,0
1470243814357437,1,0,-15,-2,0,1,3,-4
1470243814357437,-3,-5,19,2,-2,-3,-6,-2
1470243814369944,0,5,19,4,5,4,6,0
1470243814369944,2,1,7,2,-1,-6,-6,1
1470243814377955,-6,-3,-4,-8,-5,-1,-6,-2
1470243814377955,0,-2,-14,-2,0,-1,-2,-2
1470243814393465,3,2,16,1,1,-1,1,1
1470243814393465,1,4,11,6,2,2,13,-4
1470243814394968,1,-3,-2,0,0,8,0,0
1470243814394968,-3,-4,-10,-6,-3,2,6,0
1470243814415987,-1,1,-2,0,0,-3,-17,-2
1470243814415987,-1,-4,3,0,-2,-7,-2,1
1470243814417487,-5,1,7,1,1,1,3,2
1470243814417487,-1,0,-15,-5,-1,-3,-3,-4
1470243814438505,2,1,2,2,0,2,9,3
1470243814438505,-2,-2,-25,-4,-3,-2,-6,-2
1470243814440508,0,-1,36,2,0,-1,-2,-2
1470243814440508,0,-2,-22,-3,-3,-1,-7,0
1470243814453520,-2,2,7,-2,-2,-1,7,-1
1470243814453520,-3,-1,1,-4,-1,-3,-6,-1
1470243814455021,1,-2,-2,-1,-3,-2,4,1
1470243814455021,-3,-8,-28,-3,-1,-2,-2,-2
1470243814476040,0,1,8,-1,0,1,1,1
1470243814476040,-3,0,-12,-5,0,0,-2,1
1470243814477541,6,4,12,6,1,-1,-2,-2
1470243814477541,-6,-2,9,1,-2,-3,-2,-2
1470243814489551,-6,-6,-8,-3,-3,2,3,-2
1470243814489551,1,-2,1,0,1,-1,-3,1
1470243814498559,-2,-3,-12,-4,-1,-1,2,-2
1470243814498559,2,1,17,3,-1,0,-3,0
1470243814513572,4,-1,-6,-4,-1,-2,-1,-1
1470243814513572,0,0,9,2,-1,-4,-4,0
1470243814515074,-4,-3,-19,-2,-2,1,4,-3
1470243814515074,-2,1,3,-1,-2,-3,-4,-5
1470243814535592,-2,-3,-5,-3,-2,-2,3,1
1470243814535592,4,-1,-7,-2,-1,1,-6,0
1470243814537594,6,2,-2,-2,1,-1,-2,0
1470243814537594,-2,0,7,2,0,-1,-1,0
1470243814549606,-19,-4,-3,0,-2,-4,-2,-3
1470243814549606,-3,0,-18,0,-2,2,1,-5
1470243814558616,3,1,0,0,0,-3,5,2
1470243814558616,-2,1,11,1,1,-1,-14,-1
1470243814574129,-2,0,3,-3,-2,2,4,-4
1470243814574129,11,3,-5,0,2,-2,2,0
1470243814575128,-2,-8,-15,-5,-2,-1,2,-2
1470243814575128,2,-3,23,-1,-3,-3,-16,2
1470243814596147,3,-3,0,2,-2,-3,3,-2
1470243814596147,1,1,-23,0,-1,0,2,0
1470243814597649,-12,-3,-1,-3,-1,0,1,-1
1470243814597649,-3,2,4,0,1,-3,5,-4
1470243814609661,9,1,-1,-2,0,5,-2,4
1470243814609661,-11,-3,20,0,0,5,4,0
1470243814618666,3,-3,5,0,-1,-9,-1,-5
1470243814618666,-1,0,-13,2,-1,1,3,-2
1470243814633180,-2,2,29,-3,-1,-6,-1,1
1470243814633180,3,1,23,0,-2,-1,-5,-1
1470243814635182,3,2,-10,2,0,2,-3,0
1470243814635182,0,-2,9,-3,-1,-1,2,3
1470243814654700,6,1,-20,0,0,0,-2,-4
1470243814654700,-8,-4,12,-2,-1,-1,-4,1
1470243814663707,8,1,9,2,-1,-4,-7,2
1470243814663707,3,-3,-10,-1,-2,1,5,0
1470243814669712,-3,-2,-5,-2,0,0,-1,-1
1470243814669712,5,-3,-6,-2,-1,-2,-1,-1
1470243814678721,-12,0,-6,0,1,-3,-14,-4
1470243814678721,2,1,-13,-3,0,1,1,-1
1470243814693234,3,-1,8,-2,-1,-11,-10,0
1470243814693234,-15,-6,-2,2,1,4,7,-2
1470243814694736,3,2,-3,-4,-4,1,2,-2
1470243814694736,-9,-4,6,-1,-3,-3,-6,-1
1470243814715755,6,3,1,0,-1,7,4,-1
1470243814715755,5,-1,6,-1,-2,-5,-12,-2
1470243814717256,-2,-1,13,1,-3,-2,2,1
1470243814717256,0,-4,-17,-4,0,1,0,-5
1470243814738275,-8,-1,-3,0,0,-3,4,-2
1470243814738275,0,-1,1,-1,-2,-4,-3,-1
1470243814740277,0,-1,-4,-1,0,4,0,-3
1470243814740277,-13,-3,3,0,0,-4,-1,-4
1470243814753287,8,0,-12,-4,-1,0,-2,2
1470243814753287,-5,-4,-5,-1,1,-3,0,-2
1470243814759794,-5,-6,-13,-4,-3,-1,-3,-1
1470243814759794,7,-1,5,2,-1,0,5,-1
1470243814775809,-8,-4,-14,-3,-2,-1,0,-1
1470243814775809,2,5,10,2,0,2,4,1
1470243814777811,2,-1,0,1,0,-3,-8,-4
1470243814777811,3,-1,-25,-4,-2,-2,0,0
1470243814789821,4,4,10,0,0,-1,0,1
1470243814789821,-7,-2,-10,-2,-4,-4,-3,-4
1470243814798328,-2,-1,18,1,0,0,1,-1
1470243814798328,5,-3,0,0,-1,-1,0,2
1470243814812341,-5,-4,-6,1,-2,-3,-7,-2
1470243814812341,-2,-3,12,0,-1,-2,5,-7
1470243814820849,-6,-3,-26,-3,-1,-8,5,1
1470243814820849,-2,-1,9,-2,-1,4,-1,2
1470243814835864,6,-1,-10,-1,-1,1,6,1
1470243814835864,0,3,5,0,0,1,-3,2
1470243814837364,-1,-3,-1,-1,-1,1,-1,-2
1470243814837364,0,3,11,0,1,-3,0,-1
1470243814850374,-5,-1,-17,-1,-2,-2,-3,0
1470243814850374,5,0,0,-6,0,1,-1,0
1470243814858383,-7,0,11,0,2,0,3,1
1470243814858383,-4,-2,-30,-8,-3,-3,-1,1
1470243814873896,9,-6,21,1,-2,1,-4,-5
1470243814873896,10,3,-22,-2,0,-1,-1,3
1470243814874897,-13,-2,22,-3,-2,-1,0,-2
1470243814874897,-4,-1,8,3,-2,-1,-3,-2
1470243814895917,-3,-2,-3,-1,-2,1,-1,1
1470243814895917,11,-1,0,0,-1,-2,-4,1
1470243814897418,0,3,-12,2,1,1,-1,-2
1470243814897418,6,2,-10,-3,1,1,4,1
1470243814917436,-3,2,23,1,-1,-3,3,-4
1470243814917436,-10,-9,-23,-8,-6,-9,-4,-3
1470243814918436,-1,-4,-5,1,-2,2,1,2
1470243814918436,1,2,1,2,1,-3,-6,-7
1470243814932448,4,1,-4,1,0,4,8,5
1470243814932448,-5,0,5,0,0,0,2,-2
1470243814940457,0,1,-3,-1,1,2,3,0
1470243814940457,-9,-2,1,-1,-3,-1,-2,-2
1470243814954969,1,-9,-7,-6,-3,-3,-6,-2
1470243814954969,-7,2,11,2,-1,-1,-1,-2
1470243814955970,-14,-2,-8,-5,-3,-2,-1,0
1470243814955970,4,-6,1,0,-1,0,-1,-2
1470243814977991,-7,-2,0,-1,-2,-1,-4,-3
1470243814977991,-2,-2,-1,-1,-3,0,-1,1
1470243814978490,-6,1,-2,-3,1,-1,-1,-1
1470243814978490,3,2,6,3,1,0,0,-1
1470243814993006,-9,-1,-2,0,0,-2,-2,-4
1470243814993006,-4,-2,-12,-3,-1,-1,0,1
1470243814993505,13,0,6,1,-3,1,-7,0
1470243814993505,2,1,-4,-3,-2,1,4,1
1470243815015023,-11,-9,-16,-5,0,-9,-8,-4
1470243815015023,5,3,13,4,2,10,5,1
1470243815022530,-17,-3,-6,0,-2,-3,1,-4
1470243815022530,15,-4,7,-3,-1,-4,-5,-3
1470243815037545,-1,1,6,-7,-1,-1,3,0
1470243815037545,-2,0,-13,-2,-3,-2,-3,1
1470243815038544,-2,1,5,-11,0,2,-4,1
1470243815038544,2,0,2,1,-1,4,3,-4
1470243815052556,-8,1,1,6,1,-1,1,0
1470243815052556,4,-5,7,0,1,-4,-4,-4
1470243815053557,10,1,-10,0,-4,-1,-3,0
1470243815053557,-10,-1,1,7,-2,-2,1,-2
1470243815083584,-2,0,-1,-14,-3,1,-1,-1
1470243815083584,-3,-2,-12,-5,-2,-1,-3,-3
1470243815084085,14,0,-10,2,-2,1,4,2
1470243815084085,-24,-3,10,-6,-2,-5,-11,2
1470243815097597,6,3,-5,8,3,2,0,-3
1470243815097597,-13,-10,-26,-4,-4,-2,-2,-5
1470243815098599,0,-4,5,0,-1,-4,-1,-2
1470243815098599,6,2,-5,-2,0,1,1,0
1470243815112611,3,-2,13,2,-4,-2,-3,1
1470243815112611,-7,5,1,0,0,0,-1,-1
1470243815113612,9,0,0,-1,-1,-2,1,-2
1470243815113612,1,1,-7,-2,-2,2,-2,0
1470243815135131,-13,-7,-6,1,0,0,3,-2
1470243815135131,-2,-4,5,-3,3,-3,-1,0
1470243815136131,1,-1,0,1,1,-1,0,2
1470243815136131,-11,-2,-2,-2,0,-4,-2,-5
1470243815158152,12,1,-7,-1,-3,0,-4,1
1470243815158152,-12,0,7,3,0,1,0,-4
1470243815158654,-2,1,4,2,0,-3,-4,-1
1470243815158654,2,0,-8,-6,-4,2,2,-1
1470243815172666,-9,-5,2,-4,-2,0,-1,-2
1470243815172666,5,-1,-16,-3,-2,-3,-4,0
1470243815173666,1,-2,4,-1,-1,-1,0,-1
1470243815173666,3,-1,2,3,-3,-5,-1,-1
1470243815195184,8,1,-3,-5,-3,-1,-2,-3
1470243815195184,6,0,12,12,5,0,-1,4
1470243815195685,-6,-9,-10,-16,-5,0,-2,2
1470243815195685,-10,-2,-12,-8,-1,-1,0,-2
1470243815217705,1,3,0,5,2,-1,-3,-2
1470243815217705,4,5,4,0,-3,-1,1,-3
1470243815218706,-6,-2,4,5,0,0,-3,-5
1470243815218706,8,-5,3,-1,0,-1,0,5
1470243815232218,1,0,-4,2,-2,-1,1,3
1470243815232218,-7,-2,3,-8,-4,-2,-3,-2
1470243815240727,16,1,-2,4,1,-1,-2,0
1470243815240727,-9,-4,0,1,0,1,1,0
1470243815255240,0,-3,-1,7,-1,0,-3,-2
1470243815255240,4,-4,2,-13,-1,-1,0,0
1470243815255739,1,2,-1,-3,-1,-1,0,2
1470243815255739,-12,-2,1,8,-2,0,-1,-5
1470243815277760,2,2,0,-1,-2,-1,-2,-2
1470243815277760,-5,2,1,-2,0,0,0,2
1470243815278761,4,-5,-4,-2,-5,-3,-6,-5
1470243815278761,-1,5,5,-1,2,2,-1,4
1470243815300779,-2,-7,-1,1,-5,-3,1,0
1470243815300779,-2,-2,-1,6,-1,-1,0,0
1470243815301781,0,-2,0,-1,2,1,1,-2
1470243815301781,6,1,-1,-5,-2,0,-5,-2
1470243815315293,-10,-2,-1,0,3,0,3,0
1470243815315293,1,0,-2,-11,0,-1,-2,0
1470243815315794,-6,0,-1,1,0,0,-2,-1
1470243815315794,1,-3,0,-1,-4,-4,-3,-3
1470243815337813,1,0,-1,1,2,-2,-7,-2
1470243815337813,2,-2,3,2,-3,0,2,4
1470243815338313,-6,2,-6,0,-1,-3,-1,-7
1470243815338313,3,-1,0,0,0,2,1,-1
1470243815352826,0,5,0,0,-2,2,4,5
1470243815352826,-1,-2,-3,-6,2,-2,2,-1
1470243815353327,-5,-2,0,0,-1,-2,-6,-4
1470243815353327,-4,-3,-2,-2,-4,-6,-7,-2
1470243815375347,-5,-3,-3,3,0,1,-2,-2
1470243815375347,10,2,-1,-5,1,1,6,1
1470243815375848,-3,-6,-2,-5,-2,1,2,3
1470243815375848,5,-4,-2,7,0,1,5,1
1470243815397866,0,6,-2,-1,-3,-1,2,4
1470243815397866,-3,1,0,-17,-4,-5,-7,-10
1470243815398368,-8,-10,-2,-2,1,0,1,2
1470243815398368,0,0,-8,-7,-2,-4,-3,-4
1470243815412880,-1,-2,0,-2,1,-1,-1,1
1470243815412880,-3,-1,2,10,-5,0,3,1
1470243815413381,1,4,1,8,-5,-3,-1,-3
1470243815413381,1,1,-5,-10,0,-3,-6,-4
1470243815435403,-5,0,1,0,1,-1,-6,-4
1470243815435403,2,-7,-2,13,5,1,2,4
1470243815435901,-18,0,-6,-18,0,1,1,-3
1470243815435901,1,0,2,2,-4,-4,-2,0
1470243815457920,-1,0,-1,-4,-4,-5,0,-5
1470243815457920,2,-3,1,3,-1,-1,-5,-2
1470243815458423,0,6,-1,-6,1,2,3,3
1470243815458423,4,-3,1,3,1,3,7,3
1470243815473939,-9,1,-2,-2,-2,-5,-8,-6
1470243815473939,1,1,-3,-5,-4,2,3,2
1470243815487448,2,2,2,5,4,-3,-6,-3
1470243815487448,-3,0,2,-1,0,-1,0,0
1470243815495454,6,-3,-5,-7,-1,0,2,-1
1470243815495454,-5,-3,0,6,0,-2,-7,-4
1470243815495956,3,-2,-1,3,-5,1,6,3
1470243815495956,-1,0,-2,6,1,-5,-11,-5
1470243815517473,-1,-2,-2,-10,0,-2,2,3
1470243815517473,8,0,2,16,0,0,-3,-1
1470243815518476,-18,-5,-7,-11,0,-2,-10,-10
1470243815518476,1,-6,-2,-11,0,2,1,3
1470243815541000,-2,-1,4,10,-1,0,0,-3
1470243815541000,-6,0,-2,-10,-5,-3,-2,-3
1470243815541997,5,1,0,-1,-2,-1,4,4
1470243815541997,5,-1,-2,12,1,2,0,-2
1470243815555007,-6,-3,-4,-7,-3,0,-1,-1
1470243815555007,0,2,2,8,2,-4,-9,-9
1470243815556008,3,-1,4,-6,0,-1,2,2
1470243815556008,-5,-5,0,-4,-6,-3,-1,-4
1470243815577528,9,1,-2,2,2,3,5,4
1470243815577528,-3,-3,-4,-13,-2,-1,-4,-1
1470243815578529,2,1,1,6,-5,-2,1,0
1470243815578529,-9,-2,3,6,0,-2,-1,-4
1470243815592043,7,1,-3,-14,-4,-2,-1,2
1470243815592043,4,-5,-4,-5,0,-1,2,1
1470243815600048,-8,0,0,5,-2,-2,-4,-5
1470243815600048,9,1,-1,-9,-2,0,6,2
1470243815615062,0,-4,-1,12,0,-5,-11,-6
1470243815615062,-1,-4,0,-4,-4,-2,3,1
1470243815616063,9,3,5,16,0,-2,-5,3
1470243815616063,-6,-1,-8,-27,0,1,5,1
1470243815637581,-9,-5,-2,-9,-1,-5,-3,-3
1470243815637581,-1,3,2,0,-2,2,3,3
1470243815639583,2,-4,-3,6,2,-3,-2,-4
1470243815639583,-3,1,0,2,-2,-1,1,2
1470243815652095,0,-1,-3,-7,-4,3,4,3
1470243815652095,-4,0,1,3,6,-2,-6,0
1470243815660103,4,-4,-1,12,2,1,5,3
1470243815660103,0,0,-2,-3,0,-2,-8,0
1470243815675117,-4,-1,1,7,-2,-1,-2,-3
1470243815675117,9,1,-7,-12,-3,0,3,1
1470243815676118,-9,-2,1,-3,-3,2,0,0
1470243815676118,-1,-1,1,12,5,0,0,-1
1470243815697636,-3,-3,-4,-7,-3,-3,-2,-2
1470243815697636,-5,-2,0,0,-3,-2,-1,-1
1470243815698637,2,-2,-4,-9,-2,-1,-2,-1
1470243815698637,1,1,0,1,-3,0,-2,-2
1470243815712149,-2,0,-1,-3,1,0,-2,-1
1470243815712149,-2,-1,2,4,-1,-2,-3,-4
1470243815720157,3,0,-3,-9,-2,-1,-2,0
1470243815720157,-6,-1,2,11,-4,-1,3,-4
1470243815735170,3,-1,-3,1,4,2,3,6
1470243815735170,-5,0,-5,-10,-3,0,-4,-2
1470243815736170,0,3,2,2,0,1,6,-3
1470243815736170,-2,-1,0,0,-3,-5,-6,0
1470243815766698,-1,-4,-1,-1,0,-1,-4,-3
1470243815766698,-1,0,2,1,-6,-3,3,-2
1470243815767198,-4,-5,-4,-8,-1,0,-4,-1
1470243815767198,15,3,0,4,1,1,-2,-3
1470243815772202,-5,-3,-1,2,-2,-2,-1,-1
1470243815772202,1,-2,1,4,1,1,2,1
1470243815780210,-14,-2,-1,4,-4,-5,-6,-5
1470243815780210,-4,-1,-6,-25,-1,0,-1,-3
1470243815795724,2,2,2,7,0,0,-1,-1
1470243815795724,-5,-3,-3,0,-2,-2,-1,-2
1470243815796725,3,-2,-1,-4,0,-1,0,1
1470243815796725,-2,0,1,8,1,0,4,0
1470243815825753,-3,3,0,-24,-11,-3,-3,1
1470243815825753,-5,-5,-3,7,19,5,4,1
1470243815826753,9,1,-3,-7,-3,-2,-2,0
1470243815826753,-5,-3,0,6,-2,0,-2,-2
1470243815840767,0,1,1,1,-3,-4,-3,-5
1470243815840767,3,-1,2,1,-5,-2,-2,-3
1470243815841774,0,1,-3,-2,0,-2,-1,0
1470243815841774,-4,-7,0,0,-2,0,1,2
1470243815855778,-2,0,1,4,1,2,3,0
1470243815855778,3,1,-4,-5,-3,-4,-4,-5
1470243815856780,-1,-2,0,1,0,1,0,-1
1470243815856780,-1,-2,-1,-5,-3,1,-3,0
1470243815877798,-1,-6,-2,8,3,0,1,-2
1470243815877798,-2,-1,-6,-10,-2,1,-1,-2
1470243815878801,4,1,1,-1,-3,-1,-2,-2
1470243815878801,-4,0,3,-3,-4,-3,1,1
1470243815900819,0,-2,-6,3,12,2,1,1
1470243815900819,13,-2,0,1,-6,-1,2,-1
1470243815901819,-20,-2,-3,-6,-2,-4,-10,-6
1470243815901819,-4,-3,-2,0,-1,-2,0,-1
1470243815915331,7,-1,0,3,-4,-2,-6,-1
1470243815915331,0,-2,-2,-1,-2,-1,4,3
1470243815916332,-1,-4,-1,-3,0,0,2,-2
1470243815916332,2,-1,0,0,-3,-2,-1,-1
1470243815937852,2,0,2,1,-2,0,-1,-2
1470243815937852,-10,1,-2,-7,1,2,2,2
1470243815938352,6,-1,0,0,-2,-3,-4,-3
1470243815938352,-3,1,-2,4,1,0,-4,-1
1470243815960872,-1,-3,0,-1,-2,-2,3,0
1470243815960872,-11,2,-1,4,-2,-3,-7,-4
1470243815961375,3,-7,1,8,-1,0,1,-1
1470243815961375,3,0,-6,-12,1,1,0,-1
1470243815975386,-1,1,-3,-3,-2,-2,-2,-1
1470243815975386,-1,0,1,0,-3,-2,-2,0
1470243815975886,-3,1,-3,1,1,1,-1,-1
1470243815975886,-5,-2,0,2,-3,-1,-1,-2
1470243815997906,0,0,0,-4,-2,1,3,0
1470243815997906,-3,-1,-2,-4,-1,-2,-8,-4
1470243815998406,4,2,-1,-1,-5,-2,-1,1
1470243815998406,0,4,-2,-5,2,1,2,-2
1470243816020926,-1,-1,0,-2,-2,-4,3,0
1470243816020926,-5,-1,4,8,-1,-4,-7,-4
1470243816021426,3,0,-5,-7,-1,0,-2,-1
1470243816021426,-4,-5,-1,2,-2,-4,-9,-6
1470243816035439,2,-2,-1,0,-4,1,2,3
1470243816035439,-2,1,-5,-3,-2,0,-1,-1
1470243816042445,2,-2,-2,0,-2,-1,-2,0
1470243816042445,0,1,-1,-5,3,0,1,1
1470243816057960,-5,0,0,6,-2,0,-3,-3
1470243816057960,3,-2,-2,-8,0,0,2,-1
1470243816058460,-3,-2,1,2,1,1,3,1
1470243816058460,5,1,1,10,-5,-5,-11,-7
1470243816080981,-5,-2,-7,-14,2,1,1,-1
1470243816080981,-8,-4,0,2,1,-1,-1,-4
1470243816081481,4,-3,2,8,3,0,2,2
1470243816081481,-3,-3,-5,-2,-1,0,1,-1
1470243816095494,-5,-1,-1,-3,-1,-3,-4,-4
1470243816095494,1,0,-1,4,3,2,1,3
1470243816095995,-8,0,-1,-3,0,-1,0,-1
1470243816095995,12,3,-2,0,0,-2,-1,-1
1470243816117513,-9,-1,0,2,1,0,-4,-3
1470243816117513,2,-4,-2,-4,-6,-3,-2,-1
1470243816118513,0,3,-2,-4,-3,-3,-1,-1
1470243816118513,-2,-4,4,12,4,0,1,2
1470243816141035,1,2,-7,-10,2,1,4,2
1470243816141035,-6,-1,1,1,-3,-6,-9,-5
1470243816142037,8,1,-2,-3,-1,-2,-2,1
1470243816142037,-8,-3,0,-6,-5,-3,0,-1
1470243816155046,-1,-5,1,5,-2,-1,-1,-2
1470243816155046,6,-2,-3,3,1,2,2,3
1470243816156047,-12,-1,-4,-9,-2,-1,-3,-1
1470243816156047,2,-4,-2,-5,-5,-1,3,0
1470243816177567,2,2,0,0,0,-3,-1,0
1470243816177567,1,1,0,3,-2,0,0,-4
1470243816178569,2,0,-2,-2,-2,0,1,-1
1470243816178569,-15,-2,-3,-3,-1,-2,-3,-2
1470243816208596,8,-4,-1,0,-3,-4,-7,-5
1470243816208596,0,-4,-1,8,0,0,3,2
1470243816209095,-4,-3,-5,-15,-2,1,-3,-2
1470243816209095,2,2,-1,-2,0,1,-1,-1
1470243816215101,0,-1,0,7,-3,-2,0,-1
1470243816215101,-1,-3,-1,0,-1,-2,1,0
1470243816216102,5,2,-1,0,0,1,1,1
1470243816216102,2,-3,-4,-9,0,-2,-1,-1
1470243816237620,-4,0,-2,-3,-2,1,-1,-1
1470243816237620,-1,-1,-1,-1,-3,-3,-3,-2
1470243816238622,-2,-1,0,4,-2,-2,-1,-1
1470243816238622,2,1,0,-3,-1,2,0,3
1470243816261142,-2,0,-2,3,0,-1,-1,-1
1470243816261142,-2,1,-1,-9,0,2,1,2
1470243816261643,0,0,0,-4,0,-1,1,1
1470243816261643,-3,2,3,5,1,-2,-5,-3
1470243816275155,5,-3,-4,-1,-2,-1,-1,-2
1470243816275155,2,-3,-4,-3,-1,-1,-1,0
1470243816276155,-4,0,0,0,-1,-2,2,-1
1470243816276155,-3,-3,0,3,-1,-1,1,1
1470243816297674,-8,0,-1,-7,-3,-4,-4,-1
1470243816297674,14,3,1,-3,-3,1,3,1
1470243816298675,-5,-1,-1,8,6,1,3,0
1470243816298675,-1,-3,-3,-3,-5,-3,-2,-3
1470243816320695,-1,-3,0,6,0,-2,-4,0
1470243816320695,-7,-1,0,-8,-5,-3,-1,-1
1470243816321696,3,0,0,0,-4,-3,-3,-4
1470243816321696,-2,-1,-1,-12,-1,1,3,-4
1470243816335209,1,-3,-1,8,4,5,3,2
1470243816335209,-5,1,-2,1,2,0,-3,-5
1470243816336210,-1,1,1,0,-4,-3,-1,0
1470243816336210,-9,-3,-1,1,-1,-1,-2,-1
1470243816357730,5,-4,-2,-4,-4,-2,-1,-2
1470243816357730,-1,3,1,7,1,-1,-1,-1
1470243816358730,-9,-4,-2,-9,-2,-2,-3,-5
1470243816358730,5,0,0,1,-4,-2,2,2
1470243816380751,-4,4,2,-3,0,-1,-3,-1
1470243816380751,-14,-7,-3,-4,-3,0,1,2
1470243816381750,-1,-1,-2,2,0,0,-1,-2
1470243816381750,-2,-1,-2,-2,-3,-4,-6,-2
1470243816395262,-2,0,-2,2,0,-1,-2,-2
1470243816395262,6,2,2,12,-4,-1,0,1
1470243816402770,-1,-2,-7,-15,-2,-1,0,1
1470243816402770,1,3,-1,-4,0,2,2,0
1470243816417783,-3,1,3,7,0,0,-1,-1
1470243816417783,-4,-4,-1,-3,-2,-1,-3,-3
1470243816418283,0,-1,-2,4,1,0,-3,-2
1470243816418283,-1,-1,-2,-1,-3,-1,1,-2
1470243816441305,-4,-10,-5,-8,-3,-1,0,0
1470243816441305,1,2,0,-4,-2,-2,0,-1
1470243816441804,-1,-4,-2,5,-1,-3,-2,0
1470243816441804,2,-1,-1,-3,1,1,2,2
1470243816454315,-5,1,-1,-3,-1,0,3,-3
1470243816454315,-1,2,0,2,-2,-2,-1,-2
1470243816462822,4,-8,-5,-5,-3,-2,-6,-3
1470243816462822,-25,-2,-1,1,-2,0,0,-4
1470243816477838,6,3,2,1,-3,-1,3,0
1470243816477838,-6,1,-2,-5,0,1,0,-3
1470243816478337,1,2,2,-6,-2,-3,-4,0
1470243816478337,5,-1,-3,9,2,-1,0,-1
1470243816500858,-4,-4,-3,-4,-3,-3,-5,-2
1470243816500858,-7,-1,-2,-5,-2,-3,-1,-1
1470243816501358,6,0,1,1,-1,0,3,0
1470243816501358,2,0,-2,-6,-1,0,-2,-2
1470243816514370,1,3,1,3,-5,-1,-3,-1
1470243816514370,-1,-5,-4,-4,2,-1,1,0
1470243816522876,-4,0,2,4,-2,0,-2,-1
1470243816522876,1,-3,-3,-3,2,0,-1,0
1470243816537890,-1,-4,-4,-4,-3,-3,-1,0
1470243816537890,5,-1,-2,-4,-2,0,-2,-2
1470243816538392,-21,-3,3,6,2,2,0,-2
1470243816538392,5,-1,0,-4,-2,1,1,2
1470243816560912,-2,2,0,-3,0,2,0,0
1470243816560912,2,-2,-2,-3,1,0,0,0
1470243816561411,1,-2,-1,0,-4,-2,-1,-3
1470243816561411,1,-3,0,2,-4,0,1,0
1470243816574925,-2,2,-2,-7,0,-4,0,-4
1470243816574925,-4,1,0,8,-2,-3,-3,0
1470243816582930,4,2,-1,-3,0,-1,2,-1
1470243816582930,-1,-1,0,-1,-2,-1,-3,-2
1470243816597444,3,-1,2,5,0,-3,-4,-2
1470243816597444,-2,0,-4,-18,0,0,0,-1
1470243816598444,0,-3,0,3,-2,-2,0,1
1470243816598444,1,1,-1,-4,-2,-1,0,0
1470243816620965,-2,-1,0,0,-1,0,0,0
1470243816620965,8,0,3,8,0,-2,-3,-2
1470243816621465,8,2,-4,-9,1,0,0,-2
1470243816621465,-4,-5,0,5,-1,-2,-1,-1
1470243816634479,0,-4,-1,-10,-1,-1,-3,-1
1470243816634479,1,-1,-1,3,-1,1,0,-1
1470243816650491,-3,-1,-2,1,-5,-2,-2,0
1470243816650491,0,1,1,0,-2,0,-3,-2
1470243816658002,-1,-1,-2,2,0,1,2,0
1470243816658002,1,-2,-2,-12,-2,-2,-2,-1
1470243816658499,-2,1,-1,6,1,-1,-2,-4
1470243816658499,-6,-6,-2,-4,-2,-5,-5,-4
1470243816689025,1,-2,-3,1,-4,-1,0,-1
1470243816689025,-4,-2,-2,2,1,1,2,1
1470243816690529,-1,0,-3,9,-1,1,1,2
1470243816690529,7,3,-3,-12,0,-1,-1,-1
1470243816694532,-2,-1,-1,-4,-4,0,-1,2
1470243816694532,-4,-3,1,14,3,-2,-2,0
1470243816702543,5,2,-1,-8,0,-2,-1,1
1470243816702543,-17,0,2,-1,-1,-2,-1,-2
1470243816717551,-4,1,-2,5,3,1,-2,0
1470243816717551,2,-3,-2,-18,-10,-5,-5,-3
1470243816718554,-1,-2,1,11,5,1,-1,1
1470243816718554,2,-1,-1,3,0,-1,5,5
1470243816741074,-4,-2,-2,-4,-1,-1,-4,-1
1470243816741074,-4,1,-2,-1,-5,-1,-1,-2
1470243816742075,1,-5,1,-2,-2,0,-2,-2
1470243816742075,4,-1,-3,1,0,0,0,-1
1470243816763593,0,-3,-3,-10,4,-2,0,-3
1470243816763593,-4,-3,-1,2,-1,1,1,-1
1470243816764094,-1,-3,-1,-3,-4,-2,1,1
1470243816764094,4,3,-1,2,0,1,-1,-1
1470243816777606,-2,2,0,0,-5,-5,-7,-6
1470243816777606,-5,-1,0,2,4,0,0,-3
1470243816778607,-1,-1,-1,-3,-1,0,1,0
1470243816778607,-3,-3,-1,-12,-3,-2,-4,-5
1470243816801127,1,0,-3,6,-1,0,1,-2
1470243816801127,-4,-8,-1,0,-1,-1,0,0
1470243816801627,-2,4,-2,-9,-4,-1,-1,-1
1470243816801627,8,-2,0,15,2,1,3,1
1470243816823647,8,0,-1,-2,1,0,-4,-2
1470243816823647,-9,-3,-4,-6,-1,-3,1,-1
1470243816824152,2,-1,0,-9,-3,-2,-1,2
1470243816824152,-3,0,-3,1,-5,-5,-8,-4
1470243816837659,-2,-7,2,5,3,1,4,2
1470243816837659,2,3,-4,-10,0,1,-1,-1
1470243816838660,-3,-4,-3,-2,-1,-1,1,0
1470243816838660,-2,0,0,-2,1,-1,0,-1
1470243816861180,-6,1,0,-2,-3,-2,0,1
1470243816861180,4,-1,0,3,-1,-2,1,-1
1470243816861682,-5,-2,-3,-2,-2,1,-4,-4
1470243816861682,6,1,0,1,-3,0,-1,1
1470243816883700,-14,-3,2,-1,-2,-1,-1,-4
1470243816883700,-2,0,-5,-7,-4,-1,2,1
1470243816884201,-5,-1,-1,-1,-1,-6,-4,-6
1470243816884201,3,-1,1,2,-1,-1,-1,1
1470243816897717,2,0,-2,-6,0,1,1,-1
1470243816897717,-2,2,3,6,3,2,2,0
1470243816898714,-4,-1,0,5,0,-3,-4,-4
1470243816898714,6,1,-1,-5,-1,-2,-1,0
1470243816920735,-24,-2,-5,-7,-5,-2,0,-2
1470243816920735,1,-2,2,12,-5,-3,0,1
1470243816921735,4,0,-2,5,4,1,0,-2
1470243816921735,-3,-2,-5,-16,0,-1,-1,0
1470243816943256,6,0,1,2,0,0,0,0
1470243816943256,-2,-1,-1,-4,-4,-1,-3,-1
1470243816944255,-3,-2,0,-8,-1,1,1,-2
1470243816944255,-4,-2,0,7,2,0,-1,-1
1470243816958270,19,0,0,-3,0,-1,-4,-1
1470243816958270,-14,0,-3,-7,1,0,-1,-3
1470243816958769,2,-5,0,3,-2,-2,2,1
1470243816958769,-4,-1,-3,-3,0,1,0,0
1470243816980787,4,5,-1,-4,-3,0,2,2
1470243816980787,-3,-7,1,11,-3,-3,-4,-3
1470243816981790,-4,-1,-3,-12,-7,-4,-4,1
1470243816981790,0,-4,1,5,6,4,1,-2
1470243817003308,4,-3,2,1,-1,-3,-1,1
1470243817003308,-16,-4,-2,-5,-4,-1,0,-4
1470243817004309,-1,4,-1,5,-1,0,-4,-1
1470243817004309,-4,-3,-2,-5,-12,-6,2,-1
1470243817017820,-1,0,1,4,18,7,-3,-1
1470243817017820,6,1,0,-5,1,-1,0,0
1470243817018322,1,0,0,-1,-5,-4,0,-1
1470243817018322,-5,-2,-4,-7,0,0,-2,-1
1470243817040842,-4,-3,-1,4,-2,-1,3,0
1470243817040842,12,5,-2,-1,-1,-2,-3,0
1470243817041844,1,-2,1,1,5,1,0,-1
1470243817041844,-3,-2,-1,2,-1,-1,-2,-3
1470243817063863,-6,-1,-2,-1,-3,-4,1,-1
1470243817063863,5,1,0,-1,0,-2,-2,2
1470243817064364,3,0,2,2,-3,1,0,2
1470243817064364,-3,0,-3,1,-2,0,-2,0
1470243817077874,1,-3,-7,-12,-4,-2,-1,-4
1470243817077874,5,-2,-1,-2,-1,0,-4,-1
1470243817078375,2,-1,0,0,0,-1,0,0
1470243817078375,4,0,3,0,3,-1,-3,0
1470243817100896,-26,-2,-1,2,0,0,1,-1
1470243817100896,-2,-6,-3,-4,-4,-2,2,0
1470243817101897,-3,0,-2,-3,0,-2,-6,-5
1470243817101897,2,-4,-1,-4,-3,-3,-1,-1
1470243817124418,5,0,1,9,-6,-1,3,1
1470243817124418,-4,1,-1,-9,3,-2,-7,-2
1470243817124418,-7,-2,0,3,0,0,-1,1
1470243817124418,6,-1,-3,-10,-3,-3,-1,0
1470243817137928,8,2,-3,4,-1,-1,-2,-2
1470243817137928,-7,0,1,5,0,1,0,0
1470243817139435,3,-3,-3,-3,0,1,0,0
1470243817139435,-3,0,-2,0,1,-1,0,0
1470243817160950,3,3,-1,-3,-3,-3,-4,1
1470243817160950,4,-5,-1,3,-1,-1,-3,0
1470243817161950,-6,-1,-1,1,-1,-1,0,-2
1470243817161950,-2,2,0,3,-1,0,0,-1
1470243817183470,1,-3,0,1,-7,-2,-4,-4
1470243817183470,-6,-4,-3,-6,4,3,0,-1
1470243817183971,-3,-1,-1,-4,-4,-2,-2,-1
1470243817183971,3,0,-1,8,-1,-2,-3,-4
1470243817197982,-3,-5,-1,-3,-1,0,0,1
1470243817197982,7,0,0,1,-5,0,0,-1
1470243817198484,-28,-7,-5,-2,2,-2,-5,-6
1470243817198484,-2,-3,-2,-6,-5,-3,0,-1
1470243817221004,12,3,-3,-2,1,-3,-3,-2
1470243817221004,1,0,-1,-1,-2,-1,1,-1
1470243817221504,1,-3,-1,-4,-2,0,5,1
1470243817221504,-6,-2,0,4,-2,-2,-4,-2
1470243817244025,-1,-2,2,-5,-4,-3,0,1
1470243817244025,3,2,-4,-3,-1,-1,-2,-3
1470243817244025,6,5,1,-1,-3,0,0,2
1470243817244025,-5,-2,-2,0,1,-2,0,-1
1470243817257539,-1,1,-1,1,2,-1,-3,1
1470243817257539,5,4,3,7,-2,-2,3,1
1470243817258540,-2,-6,-5,-13,-1,-2,-4,-5
1470243817258540,-2,0,1,2,0,1,-1,-1
1470243817280057,-3,-2,-1,-7,-4,-1,-1,1
1470243817280057,-2,-1,0,11,4,-2,1,-3
1470243817281058,2,-1,-1,4,-3,-4,-2,-1
1470243817281058,1,2,-1,-4,0,0,-1,-1
1470243817303577,-2,-1,-3,-3,-4,-1,1,-1
1470243817303577,-3,2,0,7,4,2,0,2
1470243817304078,17,4,-6,-12,-2,0,2,3
1470243817304078,-5,-5,-1,8,-1,-2,-3,-3
1470243817318092,-3,-4,-2,1,1,2,-2,-3
1470243817318092,-1,-1,3,-3,-3,-2,-1,0
1470243817318592,1,2,-8,-4,1,0,-1,0
1470243817318592,-1,-3,1,-3,1,1,-3,-1
1470243817340612,-2,1,-1,-4,-1,0,1,-1
1470243817340612,-3,-5,-2,-1,-4,-4,-1,-3
1470243817341613,3,-4,1,4,-4,-1,-3,-1
1470243817341613,-2,-3,-3,-14,-3,-2,-1,-1
1470243817363631,-2,-1,-2,14,1,0,-1,-1
1470243817363631,-4,0,-3,-6,0,0,-1,-2
1470243817364132,-2,4,3,4,0,0,0,0
1470243817364132,-1,-3,-2,-7,-4,0,0,2
1470243817377144,0,-1,1,4,4,-1,3,-2
1470243817377144,4,-1,4,10,3,0,-2,0
1470243817385152,-16,-7,-6,-5,-2,0,-3,-5
1470243817385152,7,2,2,3,0,0,2,1
1470243817400664,-3,-1,-3,-10,-4,-1,-1,0
1470243817400664,5,-1,-1,-1,-1,-4,-7,-5
1470243817401666,-3,-1,3,4,-3,-2,1,1
1470243817401666,-1,-1,1,-1,0,1,2,-2
1470243817423685,-1,2,1,-6,-1,2,-3,-1
1470243817423685,-2,-2,-5,-2,0,-3,-3,-1
1470243817425691,0,0,2,10,1,-3,-3,-3
1470243817425691,0,1,-3,1,0,-2,0,0
1470243817437197,2,-2,-1,-5,-3,-1,0,2
1470243817437197,-7,1,1,-3,-2,-2,-3,-1
1470243817446206,1,-2,-5,-12,-3,0,-1,1
1470243817446206,-5,1,2,8,-2,2,2,1
1470243817459718,7,1,1,3,0,-4,-3,-2
1470243817459718,-3,-7,-1,-7,-3,-1,-6,-3
1470243817468726,-6,-1,-3,-3,0,1,1,-1
1470243817468726,-4,-2,-3,-4,-1,0,-2,-3
1470243817483240,3,-4,-1,5,-1,0,3,2
1470243817483240,-4,-3,-2,-6,0,1,4,1
1470243817485242,4,2,1,-4,-2,-2,-4,-5
1470243817485242,-3,-1,-1,14,-4,-4,-4,-1
1470243817497251,-8,-2,-6,-16,0,-1,-2,-3
1470243817497251,8,-3,-1,1,-1,-2,2,1
1470243817505759,-26,-4,1,-1,1,1,0,-3
1470243817505759,5,-1,0,-3,-2,-4,-2,-3
1470243817520772,-9,-5,0,3,-1,1,3,3
1470243817520772,-1,2,-5,-6,-5,-5,-4,-2
1470243817522274,7,0,2,7,1,3,2,2
1470243817522274,-4,1,-3,-10,-2,-2,-1,0
1470243817543293,-3,-7,-1,-2,0,0,-3,0
1470243817543293,-1,2,0,5,0,1,1,0
1470243817544795,2,2,3,-2,-1,-2,-2,0
1470243817544795,-1,-3,0,-1,-2,-2,0,0
1470243817565813,-1,4,2,8,0,0,-4,-3
1470243817565813,-1,-6,-6,-12,-2,1,1,-1
1470243817568316,6,-1,-1,1,-1,-2,-4,-3
1470243817568316,-2,-1,-2,0,-1,0,1,-1
1470243817580826,1,-1,0,-4,-2,-3,-3,0
1470243817580826,-2,0,1,3,-2,-2,-1,-1
1470243817582328,-15,-1,-5,-10,1,1,0,-4
1470243817582328,1,-5,-1,-1,3,0,-4,-1
1470243817602347,-5,-3,0,2,-4,-1,-2,-1
1470243817602347,1,-2,-1,-4,-1,1,0,0
1470243817610854,8,-2,0,1,0,-4,-4,-2
1470243817610854,-2,0,2,3,-5,-1,-4,-2
1470243817616859,-4,-1,-8,-27,-5,0,-3,-1
1470243817616859,-9,-2,1,16,4,0,2,-2
1470243817632374,13,-2,3,6,2,0,1,0
1470243817632374,-4,0,-1,-4,0,1,2,0
1470243817640885,1,-4,2,3,-2,-5,-5,-3
1470243817640885,-1,3,-1,-8,-2,-2,-2,1
1470243817642382,3,0,0,-1,-2,2,0,3
1470243817642382,3,-3,-1,2,-1,1,1,1
1470243817663401,3,3,-3,2,3,1,1,-1
1470243817663401,0,0,0,-5,-3,-4,1,-1
1470243817664902,-4,-1,0,10,1,0,1,0
1470243817664902,6,0,1,7,0,-1,-4,-2
1470243817676914,-4,-3,-8,-15,0,1,-3,-4
1470243817676914,-3,-5,-3,-3,-2,-1,1,-2
1470243817685921,1,1,-1,5,-3,-3,-1,0
1470243817685921,-6,-1,-2,0,-2,-1,-1,-1
1470243817700935,1,-1,4,4,-2,0,-2,-1
1470243817700935,0,-2,-5,-3,0,0,-1,1
1470243817702436,2,-1,-3,-9,-2,0,1,0
1470243817702436,-1,-1,-3,-2,-2,-5,-3,-4
1470243817723957,-5,-2,1,5,-2,-2,0,2
1470243817723957,13,2,-3,-6,-3,-3,-3,-2
1470243817724957,-5,-5,1,4,2,0,0,2
1470243817724957,0,-3,-2,-8,2,0,-1,-3
1470243817745975,-1,2,2,3,3,0,2,1
1470243817745975,-2,-3,0,5,-3,-2,0,-2
1470243817747476,10,0,-1,-1,-2,0,1,3
1470243817747476,-3,-1,0,-6,-3,-1,0,-1
1470243817760989,1,-1,-2,5,1,-2,-1,-2
1470243817760989,-5,-3,4,-2,-4,-1,-3,-1
1470243817762490,-3,-2,-6,1,-1,-3,-4,0
1470243817762490,-2,1,-2,-2,-4,-2,-1,1
1470243817798522,0,-2,0,3,-1,1,2,-3
1470243817798522,-3,-2,0,-4,-1,0,0,1
1470243817800024,-4,0,-1,-5,1,0,1,-3
1470243817800024,0,-1,1,6,-2,-2,-5,0
1470243817806029,1,-7,-1,-3,3,3,-1,0
1470243817806029,-4,-2,-5,-9,6,4,1,0
1470243817807533,0,0,-3,-8,-2,-3,-2,-5
1470243817807533,1,-4,-1,4,0,-1,0,0
1470243817821042,-4,1,-5,3,-3,-1,1,1
1470243817821042,0,0,1,3,-2,-1,-2,0
1470243817822544,-5,-3,-1,0,-1,0,-1,-2
1470243817822544,0,4,-2,-8,-1,-1,-3,0
1470243817843562,4,-4,1,3,-2,-3,-1,-4
1470243817843562,-7,2,-1,1,-4,0,-2,-3
1470243817845065,-1,-5,-5,-4,3,-4,-6,-3
1470243817845065,0,-4,0,-9,0,-1,0,-2
1470243817866082,-21,-1,-3,2,6,-2,-2,-3
1470243817866082,1,2,2,5,-3,-1,-1,0
1470243817867584,0,-1,1,-1,-2,0,1,2
1470243817867584,2,0,-2,0,-1,0,1,0
1470243817879596,0,2,-1,-6,-5,0,-7,-3
1470243817879596,-2,-2,-3,-6,2,0,-1,0
1470243817888603,-5,2,0,4,-4,-1,-4,-2
1470243817888603,5,2,0,7,-1,-2,2,-1
1470243817902615,5,-4,-5,-8,3,-2,0,-1
1470243817902615,-9,1,-1,-1,-3,0,0,0
1470243817911124,7,-1,-1,-5,-1,2,1,0
1470243817911124,-2,1,-2,3,1,0,-1,0
1470243817933643,-3,0,0,-2,-3,-1,-1,-2
1470243817933643,-2,0,-1,2,-2,-4,-4,-3
1470243817935145,8,-3,-2,0,-1,-1,0,-2
1470243817935145,-6,-5,-2,-3,4,0,-1,0
1470243817939649,-4,-11,0,-2,-7,-4,2,-1
1470243817939649,0,0,-2,-2,1,0,2,0
1470243817948656,-2,2,1,0,-7,-1,0,-2
1470243817948656,0,-2,0,3,1,0,-5,0
1470243817963671,15,1,-3,-6,-3,-3,0,-2
1470243817963671,-13,-1,-1,5,-1,-2,-2,-3
1470243817965172,-1,-3,0,2,-1,-2,3,-1
1470243817965172,-4,-2,-5,-4,-3,-1,0,-1
1470243817985690,4,3,1,-1,-2,2,1,3
1470243817985690,1,-3,0,0,0,-2,-3,0
1470243817987691,-2,0,-3,-5,-1,-3,-3,-2
1470243817987691,-2,0,2,2,1,1,1,-1
1470243817999702,0,6,-2,1,-2,-1,0,0
1470243817999702,0,-6,-2,-3,-2,-1,-1,-2
1470243818008712,-6,-9,-2,4,0,-2,-1,0
1470243818008712,1,4,0,-6,0,0,-2,-1
1470243818024728,0,-4,0,0,-4,-1,-4,0
1470243818024728,-6,-1,-2,-4,0,-1,-3,-3
1470243818025226,-2,-1,0,4,0,0,0,-1
1470243818025226,-2,-6,-7,-7,-4,-2,-4,-3
1470243818046246,-3,4,0,3,2,0,0,-1
1470243818046246,7,-1,3,1,-1,1,2,1
1470243818047746,-2,0,-5,-8,-3,-1,0,-2
1470243818047746,-8,0,2,2,2,1,2,-2
1470243818059756,4,3,0,2,1,-3,-1,1
1470243818059756,3,0,0,-5,-6,1,0,-1
1470243818074772,-5,-5,-1,6,4,0,-4,-4
1470243818074772,2,0,-2,-1,-2,0,-1,-1
1470243818083277,-2,-1,-2,-1,-4,-1,-2,-2
1470243818083277,8,2,-2,3,4,1,2,2
1470243818084779,-5,3,1,-2,-3,-2,0,-2
1470243818084779,2,-3,-2,-8,0,-2,-4,-2
1470243818106298,-3,-1,2,5,-2,0,0,2
1470243818106298,-5,-4,-3,-2,-1,0,-1,-2
1470243818107802,3,4,-3,-8,0,-1,-2,-1
1470243818107802,-1,0,0,5,-2,-2,0,2
1470243818119811,-2,-2,0,-4,-1,0,-1,-1
1470243818119811,5,-3,-2,-5,-2,-4,-3,0
1470243818128321,2,-2,1,7,-1,0,1,1
1470243818128321,-4,-1,-1,-4,-2,0,2,0
1470243818143834,-4,-4,-1,5,-2,-4,-1,-4
1470243818143834,0,0,1,1,-3,2,-2,0
1470243818144833,-2,-1,0,-6,-1,-1,1,0
1470243818144833,-4,-1,1,4,-2,-1,0,-2
1470243818165852,-4,-3,-2,-7,-4,-1,-2,-1
1470243818165852,-5,-2,-4,-4,1,-4,-2,-1
1470243818167353,-3,-1,0,1,1,3,-4,-1
1470243818167353,10,2,-1,1,-2,-2,1,-1
1470243818179364,-1,0,-1,-2,1,0,0,-1
1470243818179364,-1,-3,-2,-2,-1,-1,0,0
1470243818188872,2,-3,-1,-6,-2,0,4,1
1470243818188872,-5,0,-3,0,-4,-6,-8,-5
1470243818203386,0,-2,2,2,0,-1,-1,0
1470243818203386,-7,-1,-1,4,-1,-1,-1,-2
1470243818204887,0,2,0,-5,-1,0,-1,0
1470243818204887,0,1,-4,-3,1,-2,1,1
1470243818225907,-3,-6,-1,-2,-4,-2,0,-1
1470243818225907,5,3,0,-4,-4,-3,-2,-2
1470243818227408,-2,-6,-1,1,1,0,-8,-1
1470243818227408,-3,-3,1,0,-2,1,3,1
1470243818239919,-5,0,-2,-8,2,2,0,-3
1470243818239919,-1,-5,2,8,-1,-1,-1,0
1470243818248426,-3,-1,-1,3,-3,-2,0,1
1470243818248426,-2,-2,-1,-10,0,4,1,0
1470243818263440,11,0,0,7,5,2,2,1
1470243818263440,-5,1,2,-7,1,-1,-3,-2
1470243818264941,-1,0,0,2,-1,1,-1,-1
1470243818264941,1,-2,-3,9,1,-4,-3,0
1470243818285960,-2,-4,-4,-1,-5,1,3,2
1470243818285960,0,-1,-4,-4,-1,-2,-2,-3
1470243818287461,2,3,-3,-6,-3,-4,-1,-1
1470243818287461,4,-1,-1,-1,2,2,0,-3
1470243818299472,0,3,2,8,-2,1,0,-2
1470243818299472,-3,-2,-2,-9,-3,-1,-9,-1
1470243818308480,1,4,-2,0,0,-2,3,2
1470243818308480,-4,2,0,0,0,0,1,-3
1470243818322993,-5,0,1,1,-4,-2,0,2
1470243818322993,1,2,0,4,-4,-1,2,-1
1470243818329499,1,-4,-7,-8,6,3,4,-3
1470243818329499,-4,-2,-1,1,-2,2,-6,0
1470243818346014,0,-1,-3,-9,0,-3,-3,-1
1470243818346014,1,-3,-2,2,2,-3,-2,3
1470243818347515,-3,-1,3,-4,-3,0,-2,-1
1470243818347515,-3,-2,-5,1,-1,-1,5,1
1470243818359526,2,2,1,8,2,-2,-6,-6
1470243818359526,-1,-3,-6,-8,-1,-1,0,-1
1470243818368535,-8,-5,-1,-3,-4,-4,0,-1
1470243818368535,-1,-1,0,-3,-2,-2,-4,-3
1470243818383547,-2,-3,-2,-3,0,1,7,3
1470243818383547,2,-1,-1,1,-12,-7,-7,2
1470243818385052,-5,0,1,2,25,1,-6,-4
1470243818385052,0,2,-1,3,-9,1,3,1
1470243818406067,-3,0,0,-5,6,-2,5,-1
1470243818406067,2,0,-1,-1,1,4,-11,-2
1470243818407570,6,-2,1,-4,-14,-4,-8,-2
1470243818407570,-26,-13,-5,2,-4,-6,-5,-5
1470243818419582,-7,-3,1,-3,4,0,-3,-3
1470243818419582,-2,1,-4,1,4,-1,8,-1
1470243818428588,2,1,1,-4,-15,-1,2,3
1470243818428588,4,-3,1,-2,5,-1,0,-1
1470243818442603,0,0,-4,-5,-7,-2,-6,-3
1470243818442603,-3,-2,2,1,2,2,0,-1
1470243818449609,2,1,0,5,1,-1,4,-2
1470243818449609,0,-3,0,-4,-1,1,-4,-1
1470243818466122,-1,-1,0,6,2,-2,-5,-3
1470243818466122,1,4,2,-15,-7,-2,2,0
1470243818467624,-4,-3,1,6,4,-1,1,-1
1470243818467624,4,4,2,11,1,0,-1,-2
1470243818479634,3,2,-2,-4,-7,2,1,4
1470243818479634,-7,-7,-4,-5,1,-2,-1,-3
1470243818488642,-2,0,-3,2,-6,-3,-10,-8
1470243818488642,-2,-3,-3,-15,2,2,3,1
1470243818502655,0,-1,2,2,-4,-5,-4,-2
1470243818502655,-1,-1,0,6,-2,-3,3,-1
1470243818510163,-3,3,-3,-3,2,5,1,1
1470243818510163,0,-4,-1,0,5,1,1,-3
1470243818526176,-2,-2,-1,-4,-6,-4,-3,-1
1470243818526176,5,1,-1,3,-2,3,7,2
1470243818527677,-6,-4,-2,-2,-5,-7,-7,-3
1470243818527677,1,-1,2,-6,-5,0,2,-2
1470243818539686,0,-1,1,7,2,-1,-8,-1
1470243818539686,0,-3,-6,-9,0,2,7,0
1470243818548695,2,2,-3,-1,-2,1,0,2
1470243818548695,-2,-1,-3,-9,0,-4,2,0
1470243818563209,-3,-6,-2,2,1,1,-6,-1
1470243818563209,5,0,1,7,-3,-2,-3,-1
1470243818565210,-4,0,-1,-3,2,0,1,-3
1470243818565210,2,2,-2,4,-2,-4,-4,0
1470243818585730,-1,1,-4,-19,-5,0,0,0
1470243818585730,7,-1,0,9,3,1,7,1
1470243818587731,3,-1,2,16,0,-1,-9,-2
1470243818587731,-1,-3,-6,-12,-3,-1,4,-1
1470243818599741,-2,-1,2,3,0,2,1,-1
1470243818599741,0,0,-1,-4,2,-1,2,-2
1470243818608751,0,-2,-1,-7,-7,-4,-2,-4
1470243818608751,-3,-1,2,10,-5,-6,6,5
1470243818622762,-4,1,-7,-11,3,5,2,0
1470243818622762,-7,0,2,1,-2,-1,-9,-3
1470243818629768,-4,-1,-2,-2,-3,-4,2,0
1470243818629768,0,-6,-2,-3,-12,-3,-10,-2
1470243818646283,1,0,-1,-4,-1,-4,5,-3
1470243818646283,-2,-2,0,2,16,2,-1,-4
1470243818647285,-2,-1,0,-1,1,2,2,2
1470243818647285,2,2,-3,-13,-6,0,1,2
1470243818659795,0,-1,3,21,6,-1,1,-1
1470243818659795,-8,-2,-6,-13,-5,-1,-5,-2
1470243818668808,4,-3,2,0,-3,-2,-1,-1
1470243818668808,4,3,-1,4,8,0,-6,-1
1470243818683817,3,2,-2,-3,-5,-1,-2,1
1470243818683817,-6,-5,0,0,-2,-2,0,-2
1470243818684818,3,1,-1,0,-1,-2,0,-2
1470243818684818,-4,-1,-3,-2,-2,0,-4,-4
1470243818705836,-6,-3,-4,-5,2,-1,-1,2
1470243818705836,6,2,-1,2,-4,-3,-1,-2
1470243818707339,-23,-3,-2,-5,-1,0,0,-3
1470243818707339,4,0,-2,-5,0,-2,-7,-1
1470243818735865,-1,1,4,7,-8,-5,-11,-9
1470243818735865,-6,-4,-3,0,2,2,0,0
1470243818737365,5,-3,0,4,0,1,1,-1
1470243818737365,-6,-1,-1,-7,1,1,0,-1
1470243818743871,-4,-2,1,-5,-3,-5,1,3
1470243818743871,1,-7,1,1,-6,-3,-2,1
1470243818744872,-2,0,-2,-7,2,1,3,-1
1470243818744872,0,0,0,10,6,1,-10,-3
1470243818765891,2,-1,-2,-5,-4,-5,4,1
1470243818765891,-9,-2,0,4,-2,-2,-7,-4
1470243818767392,0,1,0,2,-2,-3,3,2
1470243818767392,-3,-2,4,-6,-5,-3,0,-5
1470243818788411,-3,-4,-7,4,8,1,0,-1
1470243818788411,-3,0,2,1,0,-2,3,1
1470243818789912,6,2,-1,-3,0,0,1,0
1470243818789912,2,5,2,1,-1,-2,-5,-1
1470243818803424,-7,-4,-3,-3,-1,0,-8,-7
1470243818803424,1,1,-1,-5,-1,-2,1,-1
1470243818804927,-2,-4,0,-2,-3,-4,-4,0
1470243818804927,-1,-1,1,5,-1,-1,2,-1
1470243818825946,2,1,0,-4,-1,-3,-1,0
1470243818825946,2,0,-4,-7,-1,0,2,0
1470243818827447,6,-2,1,-2,-1,-1,-5,0
1470243818827447,-16,0,-2,-3,-1,2,5,1
1470243818848468,7,1,-2,-5,-1,1,2,1
1470243818848468,-1,1,-1,2,-2,-2,-1,-1
1470243818850968,0,-5,-3,1,-1,-2,-2,0
1470243818850968,3,-1,0,1,-2,-2,-1,-3
1470243818862978,-1,-2,0,2,-1,3,2,0
1470243818862978,1,0,-4,-7,-3,-1,-2,-3
1470243818869483,1,-5,0,4,1,-2,-1,-1
1470243818869483,-1,2,0,-2,-3,-6,-1,1
1470243818885998,0,-5,0,-5,2,5,-1,-1
1470243818885998,2,3,0,-4,-7,-2,-2,2
1470243818887500,-2,5,-3,3,2,-2,-1,-2
1470243818887500,-6,-4,2,7,-2,-1,2,0
1470243818908519,1,2,-5,-11,-2,-4,-1,-2
1470243818908519,-3,0,1,1,1,-2,-9,-4
1470243818910020,-1,0,1,-1,-3,-1,2,-1
1470243818910020,4,-1,-6,-9,-1,-1,-2,2
1470243818922532,-2,-1,0,5,-4,-3,-2,-2
1470243818922532,-4,-2,-1,7,1,-1,1,0
1470243818929538,-5,-2,-4,-3,-1,0,4,-4
1470243818929538,1,-3,-1,-2,-1,-1,-10,-7
1470243818946051,5,3,-1,0,-1,-2,3,0
1470243818946051,-8,-5,1,2,-3,3,1,0
1470243818947554,1,-3,-3,-8,-1,-1,-2,-2
1470243818947554,-10,1,0,-1,-2,3,1,-4
1470243818968574,-2,-3,0,-3,1,0,-4,-2
1470243818968574,0,-6,2,7,-3,-2,5,4
1470243818970074,1,2,0,-5,-3,-1,-1,0
1470243818970074,7,-2,-1,-1,1,-1,-2,1
1470243818982585,-2,-1,-1,4,-3,-2,-3,1
1470243818982585,2,0,-1,1,-1,-3,1,-4
1470243818989592,-3,0,-2,7,2,1,-3,1
1470243818989592,3,0,-3,-8,4,4,3,2
1470243819006106,-3,-1,1,-1,-2,-3,-2,-2
1470243819006106,3,3,-3,-11,-1,-2,-2,-1
1470243819007611,-5,-2,-2,2,-1,0,-2,-1
1470243819007611,3,-1,0,-1,-2,-4,-1,-4
1470243819028626,-6,-3,-2,0,-2,1,4,3
1470243819028626,1,-3,-2,1,0,-1,-8,-4
1470243819030128,-2,0,-2,-5,-2,2,0,-1
1470243819030128,-3,2,0,3,0,-3,0,3
1470243819042639,1,0,-1,-4,-2,-1,-5,-3
1470243819042639,-2,0,-1,-4,-3,-2,0,-2
1470243819049646,5,0,1,-1,-1,-2,3,2
1470243819049646,-9,-4,-1,0,-1,-2,-6,-6
1470243819065661,2,-4,-2,0,-1,-2,3,0
1470243819065661,-5,-1,0,0,-1,2,2,-1
1470243819067661,0,-3,-1,-8,-2,-2,-1,-1
1470243819067661,7,3,-2,0,-2,0,5,4
1470243819088680,-8,-1,0,-1,-2,-3,-13,-10
1470243819088680,-5,-3,0,-1,1,0,0,1
1470243819090182,5,-2,-3,-4,-1,-2,1,1
1470243819090182,0,-3,-2,1,-2,0,0,2
1470243819102694,-5,-1,0,2,0,-1,6,0
1470243819102694,2,2,-2,-1,0,2,0,-1
1470243819109699,-5,-3,-1,1,-3,-4,-9,-3
1470243819109699,-4,-2,-1,1,0,-2,-10,-5
1470243819125715,9,3,1,-2,-1,3,0,0
1470243819125715,2,-2,1,-2,1,-1,3,0
1470243819127717,-4,-2,-2,-1,-2,-2,-10,0
1470243819127717,-2,-1,-1,0,-3,-3,-2,-8
1470243819148235,1,0,0,0,0,-1,-3,0
1470243819148235,-3,-2,-1,-2,-3,-1,3,-1
1470243819150236,-1,-2,1,1,-3,-1,-3,-3
1470243819150236,1,1,-1,0,1,0,3,3
1470243819162248,-5,-6,0,2,-1,-7,-5,-1
1470243819162248,5,0,-2,-6,0,2,-2,0
1470243819170754,9,3,-1,-2,0,-1,5,0
1470243819170754,-22,-4,-1,-3,-2,-2,7,0
1470243819185768,0,-1,-2,-2,-1,8,3,-1
1470243819185768,-6,-3,0,-1,1,-2,-2,1
1470243819187269,4,0,-1,-2,-2,-3,-5,-2
1470243819187269,8,3,-2,0,-3,-2,3,1
1470243819208788,-6,-3,-1,-2,-1,-4,-4,-1
1470243819208788,9,1,-1,2,1,1,-2,-1
1470243819209789,-6,-1,2,7,0,0,1,-2
1470243819209789,2,-1,1,-6,-1,0,-3,0
1470243819222300,-5,1,-3,-8,-1,-2,2,-2
1470243819222300,-4,1,0,-3,-2,2,0,1
1470243819230808,-2,-2,0,-3,0,-2,5,3
1470243819230808,1,-5,0,7,-3,-2,-6,-1
1470243819245823,7,2,-1,0,-3,0,0,1
1470243819245823,-6,-7,-4,-7,-1,-1,1,-2
1470243819247324,-4,-1,0,1,-2,0,-5,-6
1470243819247324,0,2,-2,0,1,0,-2,-1
1470243819268342,-1,-2,4,5,-1,-1,7,4
1470243819268342,-5,0,-2,-3,-2,-5,-4,-4
1470243819270344,2,0,-1,-1,-6,-1,2,2
1470243819270344,10,-1,-5,-8,7,1,0,-2
1470243819281855,-10,-3,-2,2,0,0,-1,-1
1470243819281855,-4,-5,2,3,-8,-5,0,-1
1470243819292366,2,1,-4,-5,1,1,1,0
1470243819292366,6,2,2,1,1,5,0,4
1470243819305876,-1,-1,2,-1,-4,-4,1,1
1470243819305876,-1,5,1,4,9,0,-6,-1
1470243819307380,0,-3,-2,-3,-6,3,2,-1
1470243819307380,-6,-4,-1,-2,-2,-2,1,-3
1470243819328396,3,1,-2,-3,1,1,-2,-1
1470243819328396,-1,-2,0,0,-6,-1,-1,-1
1470243819329898,-5,-2,-1,-3,2,-5,-6,-2
1470243819329898,-2,-1,-1,-1,-3,1,2,2
1470243819342410,1,1,-3,-2,0,-3,-4,-2
1470243819342410,0,0,-1,1,1,-2,1,0
1470243819351917,-6,-5,0,-2,-1,0,-3,-1
1470243819351917,5,3,-1,1,-3,-3,8,5
1470243819365929,-7,-1,-2,-2,-1,0,-13,-6
1470243819365929,5,-1,-1,-1,-2,-2,2,-2
1470243819367432,-11,-1,-1,-1,2,1,0,1
1470243819367432,1,-2,-1,0,-4,-2,1,2
1470243819388449,4,1,-4,-1,-2,-1,0,-1
1470243819388449,5,0,-1,0,-2,0,2,2
1470243819390453,0,0,2,-1,-1,-3,-2,-2
1470243819390453,-6,-6,-3,-8,-3,-4,-6,-5
1470243819401962,-2,-2,0,-3,0,2,3,1
1470243819401962,-2,-1,-2,0,1,-2,-5,-3
1470243819410970,-1,-2,-1,0,-3,-3,2,-1
1470243819410970,-3,-2,1,-1,-5,-1,0,1
1470243819425984,-1,-2,-2,-3,5,0,3,0
1470243819425984,-4,-3,1,2,-8,-3,-4,-2
1470243819427485,3,0,-1,1,4,2,-1,0
1470243819427485,-4,-3,-1,-6,0,-1,-2,0
1470243819448504,2,-5,0,2,-1,1,0,-1
1470243819448504,-5,-2,-3,0,1,0,-2,-3
1470243819451007,-1,-2,-1,-7,-4,-1,-1,0
1470243819451007,-2,4,-2,3,0,-1,-3,-3
1470243819462016,-6,-1,1,-1,-4,-3,2,0
1470243819462016,3,1,-3,-2,1,3,-2,1
1470243819471024,3,-3,-1,1,-3,-3,-1,-3
1470243819471024,1,-3,-2,-4,-4,-2,-3,1
1470243819486038,1,1,-1,-5,7,3,1,-2
1470243819486038,-5,-5,-4,-6,-12,-3,3,-2
1470243819487539,5,4,2,5,6,-4,-2,2
1470243819487539,1,-2,-3,-4,-7,0,-2,-3
1470243819509062,-4,1,-1,6,0,-2,0,2
1470243819509062,3,2,1,-6,8,-1,-1,-1
1470243819510059,-3,-4,-2,0,-39,-1,2,-1
1470243819510059,-3,0,1,2,29,4,-2,-2
1470243819522070,9,-3,-3,-3,-4,-2,-3,-1
1470243819522070,-4,1,2,8,-6,-5,-3,1
1470243819538603,-4,0,-6,-12,-2,1,2,-1
1470243819538603,-1,-2,1,5,-4,-2,3,-1
1470243819545110,0,-2,-7,-7,-8,-3,-5,-4
1470243819545110,0,2,0,1,-1,-4,-10,-1
1470243819552114,-5,-3,-2,5,4,-1,1,-4
1470243819552114,-2,-1,-5,-10,-3,0,-1,2
1470243819568630,-5,-5,-1,-3,4,1,3,0
1470243819568630,-1,-2,0,-4,-4,-4,5,-1
1470243819570131,1,1,-1,0,13,5,-8,-1
1470243819570131,-1,-1,-1,8,-2,-1,0,-2
1470243819582141,-4,-1,1,-4,-11,-6,-3,-2
1470243819582141,-1,-2,-1,-1,1,3,1,0
1470243819591651,3,0,-1,1,3,1,2,-2
1470243819591651,0,-2,2,3,-2,-1,-2,-1
1470243819605162,-2,-3,-3,-3,-1,-3,-3,0
1470243819605162,4,1,-2,0,0,0,0,0
1470243819612168,-1,-1,-2,2,3,-2,-1,1
1470243819612168,3,-4,-2,-13,0,1,-6,-1
1470243819628684,0,3,1,6,0,-1,3,0
1470243819628684,-5,-1,-1,-4,1,1,-1,-1
1470243819630185,3,1,-1,-10,-5,-3,-2,-2
1470243819630185,-1,0,-1,3,-5,-6,-1,-2
1470243819650702,0,-3,-1,0,-7,3,0,-2
1470243819650702,2,-5,0,-3,12,0,3,1
1470243819652705,1,4,2,6,-4,-2,-6,0
1470243819652705,-4,-2,-3,0,-1,-3,5,-1
1470243819665216,-4,-3,0,-2,-2,-3,-5,-3
1470243819665216,-6,0,-2,-2,-5,1,-1,1
1470243819672224,0,-2,0,-3,3,-1,-1,0
1470243819672224,-4,-2,-1,-1,-9,-3,-3,-3
1470243819688737,4,3,3,12,22,4,1,-1
1470243819688737,-2,-4,-5,-12,-7,-3,-6,-3
1470243819690239,-6,-2,0,1,11,3,2,-1
1470243819690239,-2,-2,3,10,-4,-4,-1,0
1470243819711258,4,-3,-2,-7,-12,-4,-1,-3
1470243819711258,0,2,0,-3,-7,-6,-3,-3
1470243819712759,-2,-2,-1,-4,-1,6,4,2
1470243819712759,-3,-1,-1,0,7,0,-2,1
1470243819725271,2,0,0,2,-4,-2,-1,-1
1470243819725271,9,2,-2,2,4,-1,5,0
1470243819733277,-6,-2,-1,-6,-10,-6,-10,-2
1470243819733277,-1,-4,0,2,-1,1,-3,-1
1470243819748291,1,-2,-1,-3,-2,0,2,2
1470243819748291,-4,-4,0,-2,-3,1,0,0
1470243819750292,-7,-8,-1,1,3,-4,5,-2
1470243819750292,4,1,-3,7,0,-2,-13,-2
1470243819770810,0,-1,-5,-14,4,4,1,0
1470243819770810,-4,2,0,3,-7,7,5,-2
1470243819772812,3,3,0,6,1,-6,-13,-2
1470243819772812,-1,1,-2,-11,-2,-1,2,2
1470243819785324,-4,-3,-1,-2,-9,-9,0,-1
1470243819785324,-3,4,-3,0,5,3,-5,0
1470243819791830,-4,-2,-2,-2,-2,-3,-2,-5
1470243819791830,-2,-2,0,1,0,3,2,-2
1470243819808347,-1,3,0,1,-6,3,8,1
1470243819808347,-5,-4,0,-1,8,-3,-6,-3
1470243819809846,1,-3,-1,0,-17,-7,-1,-2
1470243819809846,2,-1,-1,-4,-7,1,-1,0
1470243819830865,4,-1,-4,-2,21,1,-1,-5
1470243819830865,-10,-1,2,15,-9,3,4,2
1470243819832375,6,3,-2,-15,6,1,1,1
1470243819832375,-8,-5,0,-1,-9,-2,2,-2
1470243819845378,-6,-10,1,4,-9,-7,-7,-2
1470243819845378,8,1,-2,-6,-3,-2,-4,0
1470243819852384,-2,0,0,2,6,3,6,0
1470243819852384,2,2,-1,-5,-1,-5,4,-1
1470243819868489,2,2,-1,1,1,-2,-5,-1
1470243819868489,-11,-3,-1,-2,1,-5,-3,-2
1470243819869989,4,3,0,0,-6,4,3,1
1470243819869989,1,3,0,-1,5,1,4,0
1470243819891009,-8,-5,-3,-3,-6,-1,0,0
1470243819891009,3,1,-2,-2,-2,-2,-3,-1
1470243819892510,1,-2,-1,-4,3,-3,5,-1
1470243819892510,-2,-2,-3,-4,-1,0,-4,-2
1470243819905020,-2,-1,2,0,-2,1,-7,1
1470243819905020,2,2,0,-4,1,-2,-1,1
1470243819913528,-5,-3,-2,5,2,-6,-4,-1
1470243819913528,0,0,-1,1,-8,6,4,-2
1470243819928542,-2,2,0,-2,-2,-8,-3,0
1470243819928542,3,-3,-3,6,-8,1,4,-1
1470243819930045,-5,-4,-1,5,13,4,-3,0
1470243819930045,8,3,-4,-8,-1,-5,-7,-2
1470243819951061,-21,-2,-2,-2,-6,2,4,-4
1470243819951061,-1,-1,-3,-7,-5,-3,2,-2
1470243819952564,0,-2,-2,2,-4,-7,-17,0
1470243819952564,-3,1,-2,-3,-1,5,-3,-2
1470243819964574,7,-3,0,1,0,1,-1,0
1470243819964574,-2,-3,-3,-6,2,-2,-2,-1
1470243819974585,-4,1,1,-4,-2,2,6,0
1470243819974585,1,-5,-2,-1,3,1,-2,0
1470243819988596,1,-1,-1,1,-5,-1,-4,-1
1470243819988596,-6,-1,-1,-2,0,1,-4,-4
1470243819991100,1,-3,-2,0,-3,-3,1,3
1470243819991100,-4,-1,0,1,-2,-3,-1,0
1470243820011117,0,2,-1,0,2,1,4,-1
1470243820011117,0,0,0,-2,0,-2,-3,-2
1470243820012618,3,1,-1,-4,0,-1,1,-3
1470243820012618,-9,-1,1,3,2,1,1,0
1470243820024629,10,2,0,4,-2,1,2,-1
1470243820024629,-4,-2,-2,-9,1,1,2,3
1470243820033637,-9,-5,0,-2,-5,-1,-3,-2
1470243820033637,3,3,-1,6,0,-3,-3,-1
1470243820048649,8,2,-1,-7,-1,0,0,4
1470243820048649,-23,-5,-2,1,-2,-5,-3,-6
1470243820050150,0,3,1,6,-3,4,2,-2
1470243820050150,0,-2,-4,-8,0,-5,0,-1
1470243820071170,-2,1,1,4,2,0,-3,0
1470243820071170,5,-5,-3,-5,-1,1,0,0
1470243820072671,-1,0,-1,2,1,1,4,0
1470243820072671,-1,-2,3,-1,0,-3,-2,-5
1470243820085684,-7,-7,-2,-3,-5,1,-2,0
1470243820085684,8,3,-1,1,1,-4,-3,-1
1470243820093689,-7,-2,-1,-3,-4,-1,-1,-2
1470243820093689,3,1,-2,0,-1,-2,-3,0
1470243820108703,-3,4,0,4,0,-2,0,-2
1470243820108703,-1,1,-4,-8,1,1,-5,0
1470243820110205,17,3,-2,-3,-2,0,2,1
1470243820110205,-7,0,3,1,-1,-3,-2,-2
1470243820130724,-2,1,-3,-4,0,-1,0,-3
1470243820130724,-1,-1,2,5,0,4,6,0
1470243820132725,-5,-7,1,-4,-2,-4,-12,-3
1470243820132725,3,1,-1,-3,-1,0,3,-1
1470243820144739,6,-3,-1,-3,-1,1,0,2
1470243820144739,-7,0,5,5,0,-3,-1,0
1470243820153745,-2,-2,-1,-5,1,1,3,-1
1470243820153745,-1,-4,1,1,-1,1,2,0
1470243820167757,-2,-6,-2,-4,1,-2,-1,-2
1470243820167757,7,2,0,0,-2,2,0,1
1470243820176765,-3,-2,-1,-2,-2,-1,0,0
1470243820176765,-3,-1,1,0,0,0,-1,-2
1470243820191278,-4,-7,0,-2,-2,-3,0,-2
1470243820191278,-2,2,1,-1,2,-1,-4,0
1470243820192281,-3,-4,1,-2,-1,0,1,-1
1470243820192281,-1,-3,1,-3,0,2,-1,0
1470243820204789,-1,-1,0,-1,0,0,-3,0
1470243820204789,-2,-11,0,1,-2,-1,-6,-4
1470243820213798,-1,0,-1,0,0,-2,0,-1
1470243820213798,-1,-2,0,-4,-4,-1,1,0
1470243820228312,-11,1,-2,0,-2,-1,-3,-3
1470243820228312,0,-8,0,-1,-1,-2,-3,-2
1470243820229812,-3,3,-1,-2,-2,-1,0,-1
1470243820229812,-1,-8,-3,-2,-2,-2,-2,-2
1470243820250831,-3,0,0,-1,-1,-1,1,0
1470243820250831,3,-3,-5,1,0,-2,-2,0
1470243820252833,2,-3,-2,-2,0,-1,0,-3
1470243820252833,-2,4,-1,-2,0,-1,0,0
1470243820264844,3,0,1,-1,-3,-5,-4,-1
1470243820264844,6,1,-2,-4,0,5,2,1
1470243820274356,-26,0,-1,0,-9,-4,-3,-5
1470243820274356,0,-4,-1,1,9,-2,0,2
1470243820288365,-1,0,-1,-3,-4,-4,-1,0
1470243820288365,-1,3,-1,0,-9,0,1,-1
1470243820291369,9,-4,-3,0,28,2,-4,0
1470243820291369,5,-1,-2,0,-12,-2,-1,-1
1470243820310885,-4,-1,-3,-4,-4,-3,-1,-1
1470243820310885,-3,-2,3,5,1,-3,-1,-1
1470243820312386,0,-1,-1,-7,-10,-2,-5,0
1470243820312386,-3,0,1,6,5,-1,3,0
1470243820325398,6,-1,-6,-10,0,4,-3,-2
1470243820325398,-4,-2,0,1,-7,-7,-1,1
1470243820333906,-3,-3,1,-1,20,6,3,0
1470243820333906,1,1,1,10,3,9,-3,-3
1470243820348419,-1,-4,-1,-7,-5,-3,0,0
1470243820348419,1,3,1,-5,-4,-7,1,1
1470243820350421,3,2,0,5,-11,-1,1,-2
1470243820350421,-5,-5,-3,-6,-1,-7,-18,-1
1470243820370939,-1,-2,0,8,2,5,2,-1
1470243820370939,0,-5,-1,-9,1,0,-3,-2
1470243820372441,2,-1,-1,-1,-4,-4,0,-1
1470243820372441,-2,1,0,-3,-4,-2,3,0
1470243820384455,-4,-1,-2,0,-2,0,-1,0
1470243820384455,-1,1,0,0,-1,3,0,-1
1470243820393960,0,1,-1,0,4,-3,6,-3
1470243820393960,-7,0,0,-3,-6,-6,-2,-2
1470243820408473,6,-3,0,1,0,0,1,1
1470243820408473,-1,-2,-2,2,1,0,0,-1
1470243820409975,-1,-3,-2,-6,-8,3,1,-1
1470243820409975,-1,-4,0,-2,-4,-4,-1,-1
1470243820430993,-1,1,-1,-3,1,0,-1,1
1470243820430993,-2,-3,1,7,4,3,2,0
1470243820432495,-2,-3,-4,-13,-22,-5,-4,1
1470243820432495,0,-1,-2,15,8,-9,-3,-4
1470243820453513,-3,-1,-1,-8,11,7,-3,0
1470243820453513,-2,-3,-2,0,-5,-3,1,-5
1470243820455015,0,2,0,-1,3,0,2,1
1470243820455015,5,0,-3,-9,-13,0,2,0
1470243820468027,-6,-1,-1,6,-6,-9,-3,-3
1470243820468027,-1,-1,-2,0,10,3,-1,0
1470243820482039,-2,-3,-3,-4,3,0,-5,-2
1470243820482039,2,-1,-1,-3,-3,5,5,1
1470243820491049,-1,-1,-1,1,-5,-7,-1,-2
1470243820491049,1,4,1,-2,0,5,-1,0
1470243820492549,1,-4,1,1,-3,-3,1,-1
1470243820492549,-2,-3,-1,8,4,2,4,0
1470243820504561,2,0,-1,-9,-3,-2,-3,0
1470243820504561,-2,-1,-1,4,-13,-5,-2,-2
1470243820513567,1,1,-3,-5,13,1,-2,-2
1470243820513567,1,-3,-3,-5,-18,-1,1,-1
1470243820536087,-2,0,-3,3,0,-9,-3,-2
1470243820536087,0,1,1,3,1,4,-1,-3
1470243820537589,-2,1,3,8,3,4,3,1
1470243820537589,-4,-1,-5,-12,-3,-7,-8,-4
1470243820551101,-3,-3,-1,-3,6,5,-1,-1
1470243820551101,-3,-4,-2,-9,-6,-9,-3,1
1470243820552602,2,1,1,21,-6,3,0,0
1470243820552602,-1,-1,-1,-20,5,3,2,-1
1470243820564614,0,2,2,5,-4,1,-1,-1
1470243820564614,2,-2,-1,-3,3,-1,1,0
1470243820573625,-1,-4,-1,1,-9,-7,-6,-2
1470243820573625,-3,-3,-3,3,3,-1,-1,-1
1470243820587633,1,-1,-2,-3,-13,-2,0,-3
1470243820587633,2,-1,-2,-4,9,3,1,0
1470243820595141,-3,-1,0,-1,-4,4,-3,-1
1470243820595141,-1,0,0,-3,-2,-7,-1,-1
1470243820611155,-1,-2,-1,11,6,3,3,-1
1470243820611155,-3,-4,-3,3,-3,-4,-4,1
1470243820613156,1,-1,1,-9,-5,-4,0,1
1470243820613156,-5,1,0,-1,1,3,1,-1
1470243820633675,-3,-2,0,-1,-4,-2,-1,-1
1470243820633675,-1,-3,-1,0,-1,-2,-1,-2
1470243820635176,-1,-2,-2,-2,-2,0,4,-1
1470243820635176,3,5,2,4,2,-2,-16,-2
1470243820647689,-2,-3,-2,-10,0,0,-1,-1
1470243820647689,1,-1,-1,1,2,-2,1,-1
1470243820654695,-1,-1,-1,-5,-6,-4,-1,-2
1470243820654695,-1,-3,-1,-7,-1,-1,1,-1
1470243820670708,-1,-1,-1,9,3,2,1,-3
1470243820670708,-1,4,-2,-6,-1,1,1,4
1470243820672711,3,-2,-3,0,1,-2,-2,-1
1470243820672711,-1,0,-1,5,1,-2,2,2
1470243820693728,-4,-1,-2,-3,2,1,-3,-1
1470243820693728,0,2,-2,-7,-3,2,3,-1
1470243820695230,-4,0,-2,-2,-4,-8,-3,-2
1470243820695230,-5,-2,-3,-2,-21,7,2,-3
1470243820707743,4,4,1,-1,24,-3,-1,0
1470243820707743,-3,-3,1,7,-9,-1,-3,1
1470243820714748,-1,-2,-1,-3,1,1,-1,0
1470243820714748,1,-3,-4,-2,-5,-7,-2,-3
1470243820730764,2,2,-2,-1,-10,0,2,1
1470243820730764,0,0,2,1,7,0,-2,-2
1470243820732764,-6,-6,-2,-7,-2,1,-4,-2
1470243820732764,2,1,-3,-5,2,-1,6,0
1470243820753282,-4,-2,0,2,-6,-3,-11,0
1470243820753282,-1,-6,0,4,1,-1,-1,-4
1470243820755284,1,1,-2,-2,-6,-6,0,0
1470243820755284,-2,1,2,6,11,1,2,-2
1470243820767796,-2,-3,-2,-4,-5,3,4,-2
1470243820767796,-2,-1,-1,-6,-6,-4,-4,0
1470243820774804,3,2,2,-1,-2,1,-2,-1
1470243820774804,-2,-3,-3,-2,1,-2,2,2
1470243820791319,-6,-5,-1,0,6,3,-2,-4
1470243820791319,-2,0,0,3,-3,-3,-2,-4
1470243820792818,-3,-3,-1,4,1,-4,-2,0
1470243820792818,-1,-1,0,-3,7,1,2,0
1470243820813337,1,0,-2,-4,-18,-6,-1,0
1470243820813337,-3,-2,-2,-2,10,7,2,-3
1470243820815338,1,-3,-1,0,-5,0,0,0
1470243820815338,0,1,1,9,1,-1,0,-2
1470243820827351,-2,-4,-3,-5,-1,-2,-5,-1
1470243820827351,-1,-1,-4,-6,-3,0,3,0
1470243820836357,-5,-1,1,1,-3,-2,-2,-2
1470243820836357,-1,-2,-3,-5,2,-1,-3,-2
1470243820850871,-1,-3,0,2,0,-1,4,-1
1470243820850871,-2,0,-3,8,-1,-3,-5,-3
1470243820852372,0,2,-5,-12,-1,4,-1,1
1470243820852372,-2,-2,3,2,17,0,0,0
1470243820873891,-1,-1,0,3,-7,3,2,1
1470243820873891,1,0,-3,0,-6,-7,1,0
1470243820874893,-2,-2,-3,-2,-3,0,-2,-1
1470243820874893,0,-1,0,3,-4,1,-4,-4
1470243820887403,-1,1,-2,-12,-3,-6,1,-1
1470243820887403,3,-3,-2,2,-4,-1,-7,-1
1470243820895911,-3,-3,1,-2,0,0,1,-2
1470243820895911,-1,-2,0,-2,-2,-1,-1,0
1470243820910925,-1,2,3,1,7,7,-1,0
1470243820910925,2,-4,-3,-10,-5,-6,-1,-2
1470243820912428,-5,-2,-2,2,1,-5,-1,0
1470243820912428,-2,0,-3,1,-5,-2,-5,-3
1470243820933443,-1,0,-1,4,-3,-3,1,-1
1470243820933443,-3,-1,-1,-8,-16,-6,-2,-2
1470243820934946,0,-1,0,3,12,7,0,-1
1470243820934946,2,-1,-1,-2,-3,0,0,-1
1470243820946956,-6,-2,0,2,-4,-4,-2,-2
1470243820946956,-4,0,2,7,3,-3,1,0
1470243820955965,-2,-2,-10,-17,-4,-1,-4,-3
1470243820955965,-1,0,1,1,-8,1,0,2
1470243820970978,4,1,-4,0,4,-1,1,-1
1470243820970978,-1,-1,1,1,1,1,-13,0
1470243820972479,1,-1,1,5,-3,-6,0,-1
1470243820972479,-2,-1,0,-1,2,3,-1,-2
1470243820993498,-4,-1,-2,-3,-3,-2,0,1
1470243820993498,1,-1,-1,0,5,0,1,-3
1470243820995000,-2,-1,1,-1,-1,-3,-1,-1
1470243820995000,-3,-2,-2,-2,-7,-1,-2,2
1470243821007010,3,4,2,10,-1,-2,-2,-2
1470243821007010,-2,-2,-5,-10,7,-1,2,-2
1470243821016018,-1,-2,1,6,5,0,-3,0
1470243821016018,-2,1,-2,-8,-4,-3,3,0
1470243821031032,-1,-2,-1,0,-16,-2,-1,0
1470243821031032,-4,-1,0,-3,6,3,-1,1
1470243821032534,8,1,0,2,-6,-6,-2,-2
1470243821032534,-1,-1,-4,-2,2,0,-3,-2
1470243821061058,0,-1,-1,-6,-13,-5,-2,-1
1470243821061058,-3,-2,-1,-2,8,-2,-5,-2
1470243821062562,0,3,0,1,1,3,5,0
1470243821062562,3,-1,0,2,-2,2,1,2
1470243821067064,-2,-2,-2,-5,6,3,-2,-2
1470243821067064,1,1,-3,1,-5,-1,1,-1
1470243821076074,-5,-2,-4,-2,-1,-4,-1,-2
1470243821076074,-3,1,0,-1,-2,-4,-4,-1
1470243821091090,-1,-1,-4,-2,4,-1,3,-1
1470243821091090,0,-4,-1,-1,-1,3,3,0
1470243821092590,-2,0,-1,2,-2,-4,-2,-2
1470243821092590,-3,-3,0,-5,-11,0,1,-1
1470243821113606,3,-1,-2,-1,2,-4,-5,-3
1470243821113606,1,0,-1,1,7,8,3,0
1470243821115108,-3,-1,0,0,-2,-1,-3,-1
1470243821115108,0,0,-1,-1,-2,-5,-2,-1
1470243821127118,-3,-5,-2,4,-1,-5,0,-1
1470243821127118,0,0,2,4,-8,-3,-1,-1
1470243821136127,-4,-6,-3,-13,-4,0,-1,-3
1470243821136127,3,3,-1,-3,9,-4,-5,-1
1470243821151139,-7,-3,-1,-3,-1,1,-3,-1
1470243821151139,-3,-5,-3,-1,-2,-2,0,-1
1470243821152642,1,0,0,4,7,4,-1,0
1470243821152642,-2,-2,-1,2,-9,-4,-1,-1
1470243821173659,-2,-1,-2,-2,7,2,1,-1
1470243821173659,11,4,-1,2,-5,-1,-2,2
1470243821175161,-4,-4,-1,-6,4,1,1,0
1470243821175161,-1,-2,-1,-6,4,-3,-14,-2
1470243821187173,0,2,2,19,2,2,4,1
1470243821187173,-3,-5,3,-4,-4,-1,-1,-3
1470243821203687,0,1,3,-7,-4,-1,1,1
1470243821203687,-2,-3,-3,7,2,4,3,0
1470243821211193,0,0,-2,-7,1,-9,-9,-4
1470243821211193,-3,0,-2,2,-2,-4,-1,-4
1470243821212695,1,-1,1,7,-4,-4,-1,1
1470243821212695,-3,-2,-5,-10,-5,3,4,-2
1470243821241221,0,-1,0,-4,3,-1,0,-1
1470243821241221,-3,-3,2,0,-2,-1,3,1
1470243821242722,0,3,-3,0,-3,-1,-3,-1
1470243821242722,0,0,-1,2,-2,-3,-2,-2
1470243821247226,-1,-1,1,-3,-2,1,0,0
1470243821247226,-1,0,-3,-5,-1,-3,-2,-1
1470243821256234,0,0,-2,-4,-3,-1,-1,-2
1470243821256234,-3,-1,0,9,0,0,0,-2
1470243821271248,0,-5,-7,-14,-7,1,-1,-1
1470243821271248,-3,0,-1,9,9,-1,-2,0
1470243821272749,-5,-4,-3,-6,-4,-4,0,-2
1470243821272749,1,3,3,0,-4,1,1,2
1470243821293769,-4,3,2,2,3,0,1,-1
1470243821293769,7,1,-3,-4,-6,-3,-2,-3
1470243821294769,-1,-3,-3,4,-10,-4,-1,0
1470243821294769,1,-5,-2,-8,9,7,0,-3
1470243821309782,-6,-1,1,2,-7,-2,-1,-1
1470243821309782,-4,-1,0,-3,-6,-6,-2,0
1470243821316288,0,-1,1,1,3,1,0,-3
1470243821316288,1,2,0,-2,0,2,3,1
1470243821330801,1,0,2,-3,0,0,-2,2
1470243821330801,-2,2,0,-5,-3,-3,1,-2
1470243821332803,1,0,-1,7,3,0,-1,-1
1470243821332803,-1,-1,0,-4,-7,-7,0,0
1470243821353322,2,-2,-4,1,11,3,-1,-2
1470243821353322,-4,-1,-2,-4,-5,-2,-1,-1
1470243821355322,1,1,1,-3,2,1,-1,1
1470243821355322,-2,0,-1,1,-3,-2,-2,-1
1470243821367333,-1,0,1,-2,-17,-6,0,-2
1470243821367333,-2,1,2,5,10,0,-4,-3
1470243821376342,0,-2,-10,-10,0,2,0,-1
1470243821376342,-2,-4,2,10,0,-1,2,-3
1470243821390858,-2,-3,-6,-17,3,0,-2,-1
1470243821390858,0,-2,-1,-1,-8,-5,1,-1
1470243821392857,-2,0,2,1,-3,-1,-1,-1
1470243821392857,-2,-2,0,0,3,-6,-2,2
1470243821413375,1,-2,0,5,-1,1,-1,-3
1470243821413375,-2,-6,-4,-7,-7,3,0,2
1470243821414877,2,0,2,5,6,-1,3,-2
1470243821414877,-2,2,-3,-6,3,0,-15,-4
1470243821435895,-2,-4,0,-2,-4,-4,0,2
1470243821435895,-1,-4,-3,-1,2,0,-1,-1
1470243821437898,0,-1,1,-3,-8,-3,-1,-1
1470243821437898,-3,-2,-3,4,-4,-4,-1,-1
1470243821450908,1,-1,0,-1,11,5,0,-1
1470243821450908,0,0,-1,-1,9,0,0,-1
1470243821452410,-2,1,2,4,-1,0,-2,-2
1470243821452410,-2,-2,-4,-13,-1,-3,1,-2
1470243821473429,-1,0,-4,-1,-4,-3,-4,-2
1470243821473429,1,2,0,-2,-4,-2,0,0
1470243821475432,-3,-2,0,2,1,-2,-1,-2
1470243821475432,-1,-4,-3,3,-1,0,1,-2
1470243821487442,1,0,0,-2,-3,-1,-1,-3
1470243821487442,-1,0,-2,-5,-1,0,-2,-1
1470243821495949,-1,0,1,0,-2,-3,-2,-2
1470243821495949,-3,-2,0,-2,-6,0,0,1
1470243821511464,1,2,1,2,-1,-2,-1,-1
1470243821511464,-2,-2,-2,-1,-9,-5,-3,-2
1470243821512464,-3,-5,-4,-3,6,-2,-1,2
1470243821512464,1,3,0,-2,-1,3,4,-2
1470243821533483,-3,-2,-2,4,-4,-1,2,-2
1470243821533483,-4,-1,-4,-14,10,1,-1,1
1470243821534984,-1,-4,0,-4,-4,-4,2,2
1470243821534984,0,-5,0,1,-7,-2,1,-3
1470243821556003,0,0,2,0,13,-2,-1,0
1470243821556003,0,-1,-3,4,-8,1,2,-2
1470243821557506,1,1,-2,-1,-2,0,-4,-4
1470243821557506,-2,0,-1,-5,1,-3,-1,0
1470243821571016,0,-4,-1,-1,-8,0,1,2
1470243821571016,-3,-2,-2,0,-1,-4,-1,-4
1470243821572517,-1,-3,-1,1,0,0,-3,-1
1470243821572517,1,-1,-1,-5,-2,4,0,-2
1470243821593537,-2,-3,3,0,-3,-1,-3,-2
1470243821593537,-1,-3,-4,-5,-2,-2,-4,0
1470243821595038,-3,0,-6,-7,0,-4,0,-2
1470243821595038,-1,3,-1,10,9,8,-1,0
1470243821616056,-1,-5,-7,-4,-22,-10,-2,2
1470243821616056,3,6,4,1,14,2,0,0
1470243821617558,-2,-2,-3,-1,-3,8,-2,1
1470243821617558,3,0,4,8,9,-2,-2,-1
1470243821631071,-3,-3,-1,-9,-4,-3,-4,-4
1470243821631071,0,-3,4,10,-1,0,0,1
1470243821632573,0,1,0,5,-5,-3,0,-2
1470243821632573,-2,-4,-5,-12,1,-3,-1,-1
1470243821653592,-6,0,1,1,-1,-2,-3,-1
1470243821653592,-4,-3,-1,0,-7,-5,-1,-3
1470243821655092,1,-2,-4,-3,7,1,0,-1
1470243821655092,-4,-3,-2,-2,-4,-5,-4,-2
1470243821676112,0,-1,-1,2,0,1,-2,-1
1470243821676112,2,1,-3,-6,-3,0,2,-1
1470243821677614,-3,-5,2,2,1,2,-3,0
1470243821677614,0,1,3,1,-15,-5,3,-1
1470243821690125,2,-2,-6,-9,8,1,-1,-3
1470243821690125,0,-4,-7,-3,5,3,-1,1
1470243821697131,-4,-4,5,13,-12,-5,-1,-2
1470243821697131,-1,-3,-6,-16,0,-3,-1,1
1470243821713644,8,5,4,22,0,3,1,2
1470243821713644,-7,-11,-13,-28,-8,-2,-1,-4
1470243821715146,-2,-4,-2,-2,-8,-3,-1,-1
1470243821715146,2,6,3,4,8,-2,-2,-3
1470243821736167,-4,-6,-2,-3,-2,1,1,0
1470243821736167,-2,-3,6,6,-6,-2,-3,-2
1470243821737667,-2,-2,-5,-7,-2,-1,-1,-2
1470243821737667,-1,-2,-2,4,-5,-4,-2,-3
1470243821749678,0,3,1,-8,-6,3,0,-2
1470243821749678,-2,4,1,11,15,-4,-2,1
1470243821758687,-2,-3,-6,-10,-8,2,-1,-2
1470243821758687,-1,0,-1,3,5,2,3,-1
1470243821773699,-2,1,3,-6,-8,-4,-2,1
1470243821773699,-3,-6,-2,9,-13,0,-1,-2
1470243821775199,-2,-3,-4,-8,15,-2,1,0
1470243821775199,-2,2,4,1,-8,-3,-3,0
1470243821796219,0,4,6,0,-4,-1,0,0
1470243821796219,-1,-1,3,7,-4,1,2,-2
1470243821797720,-2,-6,-6,-2,-1,-3,-2,-2
1470243821797720,-2,-4,-4,-8,-5,-1,-1,-2
1470243821809735,-3,-8,-4,1,8,0,0,-1
1470243821809735,3,4,3,-1,-3,-1,0,0
1470243821818740,1,2,-1,-1,-8,-3,-2,-2
1470243821818740,-1,-8,-5,2,12,0,-2,-3
1470243821833752,-3,-4,-4,-3,2,1,-1,-1
1470243821833752,2,4,-1,-1,-1,-2,0,0
1470243821835254,0,11,3,6,-1,-2,-1,1
1470243821835254,3,6,0,-9,11,3,-1,3
1470243821855772,4,2,-7,-2,-11,-3,0,-1
1470243821855772,-1,-3,-3,-3,19,-2,-2,-3
1470243821858776,0,9,3,-3,-4,4,0,-1
1470243821858776,-4,-2,0,5,-5,-1,-1,1
1470243821869785,-5,-4,-4,-1,7,-2,-1,-1
1470243821869785,2,2,-2,-8,-5,3,-3,-1
1470243821878792,-3,1,6,5,-7,-9,-3,-3
1470243821878792,-2,-15,-9,-6,10,6,0,0
1470243821893807,2,1,2,-3,0,-2,0,-2
1470243821893807,-3,0,5,7,-9,-5,-4,-1
1470243821895308,3,1,0,-5,4,4,2,3
1470243821895308,-1,-1,3,13,-6,-4,-4,-3
1470243821915829,-2,-2,-3,-7,1,-5,-3,-3
1470243821915829,-2,-2,-7,-12,-10,-1,0,-2
1470243821917827,0,-2,4,6,6,2,-1,-1
1470243821917827,1,7,-3,-3,-9,-4,-2,-2
1470243821929838,-1,-5,-5,4,-2,-3,-3,-1
1470243821929838,0,2,3,8,13,3,0,1
1470243821938847,1,1,-3,-8,0,-2,-1,-2
1470243821938847,-4,-6,-7,-9,-5,3,1,-2
1470243821953360,-2,-2,-2,5,4,-1,-1,-3
1470243821953360,-1,6,0,-4,-11,-2,0,-1
1470243821954862,-2,-2,-1,-2,2,-2,-1,0
1470243821954862,-2,-6,3,8,0,-5,-1,-2
1470243821975881,-3,-4,-8,-19,-12,0,-2,2
1470243821975881,-1,-5,-7,0,7,0,-1,1
1470243821977882,-1,-2,-3,2,-2,-1,1,-1
1470243821977882,-5,-9,-2,-5,-6,-2,-3,-1
1470243821989892,-1,-3,0,0,5,0,-3,-4
1470243821989892,-2,-5,-4,-8,-9,-3,1,-1
1470243821998402,-2,-9,-2,6,-3,-2,-2,-3
1470243821998402,-2,1,-7,-10,-4,-1,-1,0
1470243822013417,0,5,7,19,6,0,-2,-3
1470243822013417,0,2,-6,-11,-7,-2,-1,0
1470243822014915,-6,-14,-2,-8,-2,1,-1,-1
1470243822014915,3,2,-1,1,-8,-1,-2,-3
1470243822035933,-1,4,2,0,22,-1,3,4
1470243822035933,-4,-3,5,0,3,6,-3,-2
1470243822037436,3,5,-4,0,-9,-6,-2,0
1470243822037436,-2,3,-3,-3,-2,-2,-1,-2
1470243822049947,-1,-5,-5,-8,-8,-2,-1,0
1470243822049947,0,0,-3,-3,-6,-3,-2,-1
1470243822058457,4,9,0,4,14,3,1,-1
1470243822058457,4,5,8,9,0,0,-3,0
1470243822073970,0,1,-7,-5,-1,3,0,0
1470243822073970,1,3,1,3,2,0,-1,0
1470243822075471,-2,5,6,4,-2,1,0,0
1470243822075471,0,7,5,-1,0,-2,1,1
1470243822095988,1,-2,0,-2,-12,-3,-2,-2
1470243822095988,-3,-4,3,4,-14,-3,-1,0
1470243822097489,-3,0,0,-1,13,1,-2,-4
1470243822097489,1,-1,3,7,-3,-1,0,0
1470243822109502,1,3,0,-4,-1,-1,2,0
1470243822109502,-5,-6,-8,-10,-1,1,-4,-4
1470243822125018,-3,-6,-3,4,-9,-9,0,-2
1470243822125018,0,1,3,-5,-5,-3,0,-1
1470243822134022,-4,-3,-2,-2,8,1,-2,-2
1470243822134022,-3,-4,2,11,1,-1,0,0
1470243822135023,0,8,1,-8,-3,0,-2,-2
1470243822135023,-2,2,-1,-7,6,1,-2,0
1470243822156042,3,-3,2,3,-7,-3,-2,1
1470243822156042,1,1,6,-1,5,1,-1,-2
1470243822158046,3,2,-3,-4,-6,1,-1,0
1470243822158046,-5,-4,-4,0,-11,-3,2,1
1470243822169556,-5,-2,1,2,28,-1,-5,-5
1470243822169556,1,0,-7,-3,-5,2,1,-2
1470243822178562,-1,-4,-1,-3,-10,-5,-4,-2
1470243822178562,1,1,6,4,-1,-2,0,0
1470243822193577,1,5,-11,-2,3,5,1,-1
1470243822193577,-1,0,1,1,1,-2,0,0
1470243822195079,-2,-1,0,-2,4,-1,0,-3
1470243822195079,-1,-2,-3,-2,-1,-4,-2,-2
1470243822216096,-1,4,3,-2,-6,0,1,-1
1470243822216096,3,4,0,0,0,1,-1,1
1470243822217597,2,0,1,-3,-13,-1,3,0
1470243822217597,0,4,-3,0,21,0,-4,-3
1470243822229608,0,-1,1,1,-6,2,0,2
1470243822229608,-6,-10,-1,4,-1,-2,-1,-2
1470243822238616,-8,-14,-15,-18,-3,-2,-5,-2
1470243822238616,-2,-7,-4,1,-6,-3,1,0
1470243822254130,-1,-3,-2,0,-8,-3,-2,-1
1470243822254130,1,2,1,-3,13,-4,0,-2
1470243822256632,2,2,4,4,1,9,0,3
1470243822256632,-3,-3,-2,-1,1,0,-2,-1
1470243822276152,-4,0,2,0,-9,-5,2,-2
1470243822276152,0,-3,-6,-11,-21,-8,-4,-2
1470243822277651,1,1,1,0,20,0,1,-3
1470243822277651,-5,-5,3,2,-5,3,-1,-1
1470243822289662,3,-1,-5,-4,2,-2,-2,-2
1470243822289662,-3,0,2,1,-8,-1,-1,-1
1470243822298670,0,-3,-3,-5,6,2,1,1
1470243822298670,1,1,-1,3,4,1,-3,-2
1470243822321189,-5,-9,-1,1,-8,-1,0,-3
1470243822321189,0,4,1,3,2,0,-2,0
1470243822322692,-1,-10,-6,-4,-9,-1,-3,-1
1470243822322692,-5,-1,4,3,-3,-4,-2,-4
1470243822336203,2,0,-2,-11,3,4,-2,3
1470243822336203,-1,-2,3,0,2,0,0,0
1470243822337706,2,7,5,12,4,-2,-1,-2
1470243822337706,4,7,-1,-1,-2,1,1,4
1470243822349716,-3,2,3,1,0,-3,-3,-1
1470243822349716,1,4,0,-1,1,1,0,-2
1470243822374240,-2,0,3,-5,-1,-3,0,-2
1470243822374240,-3,-6,-5,-5,12,1,-1,-2
1470243822374742,-1,-1,-1,3,-8,-1,-2,-2
1470243822374742,2,-6,-7,1,0,2,0,-1
1470243822376741,-4,-4,-3,3,-2,-4,-2,-2
1470243822376741,1,0,-1,-3,-8,0,-1,0
1470243822396257,3,5,-1,-2,3,-1,-3,-1
1470243822396257,-2,-8,-2,3,14,2,3,-1
1470243822397759,2,5,6,-1,-9,1,2,3
1470243822397759,0,-6,-4,-9,-6,-2,-1,-1
1470243822409769,-4,-5,2,7,-3,-3,-3,-2
1470243822409769,-4,-4,-1,-3,-11,-5,-4,-3
1470243822418778,1,-1,-3,-1,8,4,3,2
1470243822418778,-4,1,0,2,-4,-2,-3,-3
1470243822433793,2,0,3,-1,20,0,1,-2
1470243822433793,-8,-9,4,6,-6,4,0,2
1470243822435296,-3,1,1,-1,-2,-6,-1,-3
1470243822435296,-1,-5,-1,-4,-3,0,-1,1
1470243822455811,-4,-6,-3,-1,-15,-3,-1,-4
1470243822455811,4,7,-5,-17,8,-3,-2,-1
1470243822458316,0,2,0,9,2,0,-5,-2
1470243822458316,-3,-7,-3,0,-6,1,1,-2
1470243822469824,-2,4,0,-7,-6,-1,-2,-3
1470243822469824,-1,-2,1,0,-5,-3,-1,-1
1470243822478831,-1,-5,-2,-6,-10,-3,-2,-1
1470243822478831,-3,-6,-8,-5,-1,-3,-3,-1
1470243822493345,0,5,-3,9,1,-3,-2,-2
1470243822493345,-1,1,1,4,2,-1,-5,-4
1470243822494847,-2,-3,-3,-8,3,-2,-2,0
1470243822494847,0,-1,1,4,-1,-1,-2,-4
1470243822515865,-3,-7,-3,-5,-4,-2,1,0
