timestamp,emg1,emg2,emg3,emg4,emg5,emg6,emg7,emg8
1472135357623653,-1,-1,0,0,-1,-1,-2,2
1472135357623653,-2,-7,-2,-4,5,2,0,3
1472135357624654,0,2,2,0,-4,-2,-1,-4
1472135357624654,-2,-4,-6,-3,-4,0,-2,-2
1472135357629158,0,0,2,-2,-2,-1,0,3
1472135357629158,-3,2,-3,0,-3,-1,1,1
1472135357630659,0,-3,1,3,-6,-1,-2,0
1472135357630659,-1,-3,-6,-4,3,-2,-1,-1
1472135357634663,3,-2,4,8,2,1,0,-2
1472135357634663,0,0,-9,-4,-5,-2,-3,-4
1472135357643171,0,-3,-8,-1,2,0,-1,0
1472135357643171,-2,1,7,3,1,2,1,1
1472135357658184,-4,0,-4,-2,0,-3,-2,-2
1472135357658184,0,-2,0,1,-2,-2,-1,0
1472135357665191,-1,2,-6,-3,3,0,2,0
1472135357665191,0,4,4,-3,-4,-1,1,-4
1472135357673197,-1,-2,-3,3,0,0,-2,-2
1472135357673197,-1,2,1,1,1,-1,0,1
1472135357696218,-2,-4,3,-7,2,1,-2,0
1472135357696218,-3,0,-6,7,-3,-2,-4,1
1472135357697720,-2,-1,3,-2,-1,-1,0,-3
1472135357697720,0,0,3,3,3,0,-2,-2
1472135357742761,-1,-4,-15,-14,-2,2,-1,1
1472135357742761,2,-3,-3,-3,3,0,1,1
1472135357743761,-2,1,7,9,-7,-5,-1,-2
1472135357743761,-1,0,4,4,-1,-2,-1,1
1472135357744762,-1,-1,0,3,2,0,1,1
1472135357744762,-1,1,1,1,-8,0,-3,-5
1472135357747765,0,-1,-3,-8,2,-1,-3,1
1472135357747765,1,-2,-2,2,3,-1,3,1
1472135357754271,1,-2,5,0,-2,-5,1,1
1472135357754271,-5,-3,-8,-3,-3,-4,-3,-4
1472135357761777,0,-3,-2,-1,1,0,-2,0
1472135357761777,1,1,1,-3,0,1,-3,-3
1472135357770787,-1,0,2,9,-3,-1,-6,-1
1472135357770787,-2,-1,2,-5,-1,-4,3,1
1472135357785299,-2,-1,3,-6,1,0,2,0
1472135357785299,2,0,-5,-1,-2,-2,-2,0
1472135357791805,-1,-1,5,4,-3,0,1,1
1472135357791805,-1,0,1,-2,0,0,-2,0
1472135357815827,-4,-5,-3,-1,-1,1,-1,0
1472135357815827,-4,1,-4,2,-1,-1,-1,-3
1472135357817329,-3,-2,5,-2,0,0,-1,1
1472135357817329,1,-2,2,2,0,-1,1,2
1472135357829839,-1,0,-2,-3,-1,-4,-1,-3
1472135357829839,-1,-3,-5,0,-1,-3,0,-2
1472135357836847,1,-1,-9,-8,-1,1,0,-1
1472135357836847,0,-1,5,5,0,-2,-1,-1
1472135357853360,0,0,1,-4,-2,1,-1,-3
1472135357853360,-4,-4,7,2,-3,-1,-2,1
1472135357854862,1,2,3,0,-1,-1,-2,-2
1472135357854862,0,-1,-2,-1,0,0,1,0
1472135357875881,0,2,-2,2,-1,-3,-1,-4
1472135357875881,-1,0,-4,-7,-3,-1,0,-1
1472135357877383,0,0,-1,1,-2,-2,-2,-2
1472135357877383,-2,-3,-3,-2,0,3,0,1
1472135357890393,1,-1,4,-4,2,1,0,-3
1472135357890393,-2,-1,-2,0,0,-1,-1,-2
1472135357896900,-2,1,2,2,0,-1,1,-1
1472135357896900,0,2,-14,-10,-3,-2,-2,0
1472135357913415,0,2,-4,6,0,-1,0,1
1472135357913415,1,-4,-1,-4,-2,-4,-3,-1
1472135357914916,0,1,7,6,0,-3,0,-3
1472135357914916,-4,-4,8,-4,0,-1,-5,0
1472135357935934,-4,3,-6,-3,0,0,-1,-1
1472135357935934,-2,1,5,-2,-2,0,0,1
1472135357937437,-1,0,-8,-2,-4,1,-1,-1
1472135357937437,1,0,1,-1,-2,-3,-2,0
1472135357949948,0,-7,-2,4,-2,0,-3,1
1472135357949948,-1,0,5,-1,1,0,1,0
1472135357956955,-4,-2,-2,-2,0,-2,-3,0
1472135357956955,-1,2,-1,2,-1,-1,-1,-1
1472135357973469,-2,-1,-1,1,-2,0,-2,-1
1472135357973469,1,1,-2,2,0,-1,-1,-3
1472135357974970,-1,1,-1,-3,-4,-1,1,0
1472135357974970,-4,-1,-10,3,0,-1,-1,-5
1472135357995989,2,-1,-1,-1,-2,-2,0,0
1472135357995989,-5,-1,-2,-6,-2,-2,-3,-4
1472135357997491,-1,0,3,3,0,-2,-1,1
1472135357997491,1,-3,-5,-1,3,-1,0,-1
1472135358010002,-5,-1,-1,-2,-1,-2,-1,-2
1472135358010002,-1,-3,-1,0,0,2,0,-5
1472135358017009,-2,-3,-3,-3,1,-1,-1,-3
1472135358017009,-1,1,8,4,-3,-3,0,0
1472135358033523,0,-2,-1,0,-4,-1,-1,-2
1472135358033523,-2,0,-15,-3,-2,1,0,3
1472135358035024,-1,-2,5,6,0,0,1,0
1472135358035024,0,0,2,0,-1,0,-1,-1
1472135358056043,-2,-3,-2,-3,1,-2,-1,-1
1472135358056043,-2,0,-1,-2,-2,-2,-1,1
1472135358057544,0,-2,6,-1,-3,0,-2,-6
1472135358057544,-1,0,-17,-1,1,-1,4,-1
1472135358070056,-2,0,-3,-2,-1,-3,-1,1
1472135358070056,1,0,-2,-3,-3,0,-2,-2
1472135358077124,-1,-1,-2,9,3,-1,-1,2
1472135358077124,1,2,3,-12,-1,1,-1,0
1472135358093139,1,0,0,3,2,2,1,1
1472135358093139,-2,-1,0,-2,1,-3,-2,0
1472135358095141,-2,-4,-9,-6,0,-2,-2,-2
1472135358095141,2,-2,4,3,-4,-1,-3,-1
1472135358115160,0,-2,-1,-1,-1,-2,0,-3
1472135358115160,1,3,-1,-3,-2,-1,-1,0
1472135358117161,-3,-4,2,-7,-1,1,1,-2
1472135358117161,-3,-3,-2,10,-1,-1,0,1
1472135358129172,-2,-2,-20,-9,-1,2,-1,0
1472135358129172,-1,-1,1,-4,-2,0,2,-2
1472135358138182,-2,-3,-1,5,1,-3,-4,1
1472135358138182,-3,0,2,0,0,-1,3,0
1472135358153193,1,2,6,5,1,-3,-2,1
1472135358153193,1,-3,-5,-2,-1,-2,-2,0
1472135358155196,-1,1,-6,-10,-1,-1,0,0
1472135358155196,-2,-5,5,3,-2,-2,-2,-1
1472135358175732,0,2,-5,-3,1,1,-1,1
1472135358175732,0,-2,2,4,0,-2,-1,0
1472135358176733,1,-3,1,-6,-2,-1,-4,-2
1472135358176733,-1,0,-3,0,2,-1,-1,-1
1472135358189743,-3,-1,3,4,-3,-3,-1,-2
1472135358189743,-1,-5,-6,-7,0,-1,1,-3
1472135358198751,1,3,-5,2,1,1,0,2
1472135358198751,2,1,-2,-6,-1,-1,-2,0
1472135358212764,0,-3,8,0,-3,-1,0,-2
1472135358212764,0,0,-5,1,0,0,-3,-1
1472135358214766,0,-1,4,-1,-1,2,-1,-1
1472135358214766,-2,3,0,-8,-3,-2,-3,-2
1472135358235785,0,1,2,1,-1,-2,0,-3
1472135358235785,-2,-3,6,4,-1,-2,0,-1
1472135358236786,-3,4,0,-5,-6,-1,1,-2
1472135358236786,1,2,-3,3,-1,2,-1,-3
1472135358258312,0,-3,2,1,-1,0,-1,0
1472135358258312,0,1,1,-1,1,0,-1,1
1472135358259813,0,-2,-9,5,3,-1,-2,-3
1472135358259813,-3,-4,2,-3,0,-3,0,-3
1472135358273325,3,-2,-1,-1,-2,1,-3,-1
1472135358273325,0,2,5,3,-2,0,-1,-1
1472135358274827,-4,-1,1,-3,0,-4,-2,1
1472135358274827,0,-4,-2,-2,-1,-3,-1,-2
1472135358295846,0,3,1,3,1,-3,0,-2
1472135358295846,-3,1,-4,-2,0,-1,-2,-1
1472135358297347,1,3,1,0,-3,1,-1,-1
1472135358297347,-3,-1,2,-1,-4,1,-1,-1
1472135358309358,-1,4,-4,-2,-3,-1,1,-1
1472135358309358,-2,3,-2,1,-2,0,-3,-1
1472135358318366,0,3,-5,-1,-4,-2,-1,-1
1472135358318366,0,0,-3,2,0,-2,-2,-1
1472135358333380,-1,-1,10,-2,-4,-1,2,-1
1472135358333380,0,1,2,3,-4,-3,0,0
1472135358334880,2,0,-6,-6,-2,-1,-1,-2
1472135358334880,1,-3,0,3,0,1,0,-2
1472135358355901,-5,-6,4,0,0,-1,-4,0
1472135358355901,-2,1,-1,2,2,1,1,-3
1472135358357401,0,-2,5,0,-5,-2,-1,0
1472135358357401,-2,0,-14,-4,-1,0,-1,0
1472135358369411,1,3,-9,-7,-1,0,-1,0
1472135358369411,-3,2,5,5,-1,-1,-2,-2
1472135358377924,1,-1,1,-1,1,-2,2,0
1472135358377924,0,1,3,6,2,2,1,0
1472135358392940,2,1,-7,-1,0,0,-1,1
1472135358392940,-2,2,-4,-2,1,0,-3,-3
1472135358394941,-2,-2,-2,-3,-2,0,-1,-1
1472135358394941,0,3,3,-5,0,-2,-3,-2
1472135358415959,-1,-3,-3,11,1,-1,-2,-1
1472135358415959,-1,-3,-2,-5,-1,-2,0,2
1472135358416961,-4,-1,6,-3,-1,-3,-1,-1
1472135358416961,0,0,6,4,-4,-3,-1,-3
1472135358428970,-6,-6,-11,-7,0,-2,-1,-2
1472135358428970,0,-4,0,-5,-7,1,-3,-1
1472135358437980,-3,1,2,7,1,-2,2,2
1472135358437980,-2,0,0,-1,-1,0,-1,2
1472135358452993,1,-2,2,-1,-3,-1,2,-1
1472135358452993,0,2,3,4,1,-1,-1,-3
1472135358454995,-2,-3,-7,3,1,1,-2,-1
1472135358454995,-1,-6,-8,-11,-1,-3,-2,-2
1472135358476020,-3,-1,-2,-6,1,0,0,-1
1472135358476020,-1,-1,4,-1,-1,-2,-3,-2
1472135358477023,0,-2,-14,-3,0,0,0,-2
1472135358477023,-2,-3,2,3,1,0,0,1
1472135358489032,-2,-1,3,0,-1,1,0,-1
1472135358489032,1,-4,-3,-1,-2,-2,-2,2
1472135358498040,-1,-1,1,-5,1,-2,-4,0
1472135358498040,0,2,-5,-1,-3,0,-3,-3
1472135358513054,2,2,0,-2,-2,1,0,0
1472135358513054,-2,0,1,2,1,-2,3,0
1472135358515055,0,-5,-2,-1,-2,-1,0,0
1472135358515055,-2,-1,2,-2,1,-2,-1,-2
1472135358535074,-1,-2,2,-1,-1,1,0,-2
1472135358535074,1,2,-3,0,-1,-1,0,0
1472135358537077,1,1,4,-9,0,-2,-1,0
1472135358537077,0,-3,-5,-2,-3,-1,-1,0
1472135358558603,-1,1,0,3,-1,-1,-4,-2
1472135358558603,-2,2,5,-2,2,0,-1,0
1472135358560103,0,-1,-5,6,0,1,-2,-4
1472135358560103,2,0,0,-5,-1,1,1,0
1472135358573121,-5,1,0,1,-1,1,1,0
1472135358573121,-1,-4,2,7,-1,0,-1,-3
1472135358574121,-1,-2,-2,4,-1,-1,0,0
1472135358574121,-1,-3,-3,2,-2,-3,0,-3
1472135358595140,-2,-2,-9,-4,0,0,-1,-1
1472135358595140,-3,-5,-8,-8,-3,-3,-2,0
1472135358597142,-1,0,2,4,1,-1,-2,2
1472135358597142,-1,1,4,5,-1,-1,-1,1
1472135358618161,0,1,5,-3,-2,0,1,-2
1472135358618161,-1,-2,-3,1,-1,0,1,3
1472135358619162,-2,3,-7,-8,-2,1,0,-1
1472135358619162,-1,-2,0,0,-2,0,-1,0
1472135358633174,1,-2,3,8,3,-1,-1,2
1472135358633174,-2,-2,3,-3,-1,2,-1,-4
1472135358634175,2,3,-1,0,-1,-2,1,-3
1472135358634175,-2,-4,1,3,-2,2,-1,-2
1472135358655194,0,-1,0,-6,-4,-5,-3,0
1472135358655194,0,2,-4,1,2,-2,0,-1
1472135358657197,-3,1,-2,0,-2,-2,1,0
1472135358657197,-2,-1,-5,-1,4,-2,0,-2
1472135358677754,2,1,2,-4,0,-2,-4,0
1472135358677754,-2,0,-5,0,-5,-1,-2,-2
1472135358679758,0,-2,0,-11,-2,0,-1,0
1472135358679758,-3,2,-6,-1,0,-2,-2,0
1472135358692768,3,0,2,6,-4,-3,0,0
1472135358692768,-1,0,-4,-2,2,2,-2,-3
1472135358698775,-1,-1,9,8,-1,3,-2,1
1472135358698775,0,-3,-2,2,2,-1,1,1
1472135358713799,-1,-1,-12,-5,-1,-1,-2,-2
1472135358713799,-1,-1,0,-2,-4,-2,-1,0
1472135358722809,-1,1,0,3,0,-1,-1,-3
1472135358722809,-1,0,5,-4,-3,-1,2,0
1472135358737808,0,-5,-3,-1,2,-2,1,-2
1472135358737808,3,-4,2,-1,-3,-3,0,0
1472135358739811,-4,-3,-5,2,-5,-4,0,-1
1472135358739811,1,1,-3,-1,2,-1,-4,-1
1472135358760835,-3,2,1,-5,-1,2,-2,-3
1472135358760835,-5,-1,5,-1,1,-1,0,-1
1472135358762337,1,-3,-6,-4,-3,-1,0,1
1472135358762337,-3,-1,3,-7,-3,1,-1,-1
1472135358774364,-1,-3,-1,3,1,-1,-1,3
1472135358774364,-2,-1,0,-2,-2,-1,-2,-2
1472135358783372,-2,-3,-5,0,1,-1,-2,0
1472135358783372,-3,-1,2,3,0,-1,-1,-1
1472135358798386,-1,-7,-7,-11,-2,-1,0,-2
1472135358798386,-2,-2,-2,-8,-4,1,1,1
1472135358799386,1,-2,1,2,-2,-1,-3,-2
1472135358799386,1,0,-5,-2,0,0,-2,-1
1472135358820406,-1,0,-4,3,-2,-2,0,-4
1472135358820406,-1,-2,-1,3,3,-3,-2,-1
1472135358822407,-2,-1,-5,-6,1,2,-2,-4
1472135358822407,-1,0,0,0,-4,-2,-1,1
1472135358834417,2,1,1,-2,0,0,-1,2
1472135358834417,0,-1,-6,-5,-2,-1,-1,-1
1472135358843427,-3,-1,1,4,-1,0,1,-2
1472135358843427,0,-3,0,-1,-3,-2,-1,1
1472135358858444,-2,0,-7,-11,1,0,-2,-1
1472135358858444,0,-2,-2,10,1,-2,-2,-1
1472135358859947,0,-7,0,-6,0,-1,-2,-2
1472135358859947,-1,0,-3,-4,0,-2,0,-3
1472135358881032,-2,-3,6,4,-2,0,-3,1
1472135358881032,0,-6,-9,-13,-2,-2,-2,1
1472135358882033,-2,3,-4,1,0,-1,0,0
1472135358882033,0,-1,-4,2,2,0,2,0
1472135358894060,0,0,0,-2,0,-1,0,-5
1472135358894060,-2,2,2,-1,-1,-1,-1,-2
1472135358903074,1,2,4,-7,-1,1,-2,0
1472135358903074,-1,-6,-11,0,0,-2,0,1
1472135358918081,1,1,0,1,-4,0,2,-4
1472135358918081,-3,-3,-2,2,1,0,-1,-1
1472135358920068,0,0,-1,-2,0,-2,1,-3
1472135358920068,0,2,-3,-3,-2,0,-2,-2
1472135358941087,-3,-4,-1,-4,1,-2,0,0
1472135358941087,0,-1,-4,2,-1,3,-1,-2
1472135358942090,-1,-3,-2,-2,-2,-4,-2,0
1472135358942090,0,-3,1,-1,2,-1,-1,-1
1472135358954100,0,0,0,1,-2,-2,-1,1
1472135358954100,-1,-1,2,-2,0,0,-1,0
1472135358963628,-2,0,0,3,1,-3,-3,-2
1472135358963628,1,0,3,-4,-3,0,1,-2
1472135358978486,-3,-3,1,4,-1,-2,-3,-1
1472135358978486,0,-1,-7,-2,-1,-2,2,-1
1472135358979488,2,-1,1,-3,-1,-2,0,2
1472135358979488,-4,-2,3,6,0,-1,-4,0
1472135359008512,-3,3,-1,-8,-2,1,0,0
1472135359008512,-2,0,-6,-8,-2,-1,0,-3
1472135359009516,0,-7,1,8,-1,-1,0,-2
1472135359009516,1,2,5,-7,-2,-2,0,-3
1472135359023526,0,-1,6,4,-1,0,-3,-2
1472135359023526,-1,-3,1,-3,1,-1,-1,1
1472135359024529,0,0,0,-1,0,-3,-1,0
1472135359024529,-2,0,-4,-3,0,1,-1,0
1472135359038539,0,0,-2,2,-2,1,-2,-2
1472135359038539,-1,-2,-15,-1,1,-4,0,-2
1472135359039542,0,-2,-2,-2,-2,0,-1,-2
1472135359039542,0,-1,2,0,0,-1,-2,-1
1472135359060577,-2,1,0,-1,-3,-2,-1,1
1472135359060577,-2,-2,4,3,-1,0,-1,-2
1472135359062577,-1,-3,-4,-4,1,1,-1,-1
1472135359062577,-2,-2,3,5,-3,-1,2,-2
1472135359082614,-1,0,4,-4,2,-2,0,-2
1472135359082614,1,3,-4,-3,-3,-3,1,1
1472135359084616,1,1,6,8,0,1,2,-2
1472135359084616,-1,0,-2,-4,-1,0,0,-2
1472135359097626,-1,3,1,7,-4,0,1,0
1472135359097626,-1,1,2,-1,-3,-1,-2,0
1472135359104632,-2,-3,-6,-6,-2,0,-3,-2
1472135359104632,1,-2,2,1,0,-3,-1,2
1472135359120648,2,-1,-2,-2,-3,1,1,-3
1472135359120648,-2,-5,0,2,1,1,-3,-4
1472135359122651,1,-1,-3,-2,-1,0,-2,0
1472135359122651,-4,-2,-1,1,-1,0,-3,-1
1472135359142680,1,-2,-4,-2,2,-3,-2,0
1472135359142680,-3,1,7,1,-2,-2,1,-1
1472135359144671,-4,2,11,2,-3,-3,1,-2
1472135359144671,1,0,-2,5,1,-3,-2,-2
1472135359157712,-1,-4,-1,-4,0,-3,1,-1
1472135359157712,0,-3,1,-7,1,1,-1,0
1472135359164223,1,0,4,3,-2,0,0,-1
1472135359164223,-1,0,-2,-7,-2,1,-2,-3
1472135359180746,-2,0,-7,1,-1,0,1,-2
1472135359180746,-1,-1,6,3,-3,-2,-1,-3
1472135359181745,-1,-1,-8,-5,-2,1,-2,0
1472135359181745,0,-1,-1,-4,1,2,0,-2
1472135359202763,-2,-4,-3,-2,0,-1,-2,0
1472135359202763,1,0,5,1,-1,-3,-2,-1
1472135359204767,-4,-4,-5,-2,-1,-2,0,-2
1472135359204767,0,0,3,3,-1,-2,-1,-2
1472135359217778,1,1,2,3,1,0,-3,-1
1472135359217778,0,-5,2,2,-2,1,-1,-1
1472135359223795,0,2,3,-3,-1,-1,0,-2
1472135359223795,-1,-7,-7,-4,-2,-2,0,2
1472135359240812,-3,-2,-9,4,0,1,-2,-2
1472135359240812,-2,-3,0,-8,-2,1,-1,0
1472135359241799,1,-2,-2,1,-1,-3,-1,1
1472135359241799,-2,-1,-6,-8,-1,0,-2,-2
1472135359263354,-1,-2,7,7,-1,0,0,-1
1472135359263354,-2,-1,-9,-2,0,0,-1,0
1472135359264839,2,-2,-1,-3,0,1,-1,0
1472135359264839,1,-3,-6,-4,0,-3,-3,-3
1472135359277865,-1,0,1,2,-2,1,-1,-2
1472135359277865,-3,1,-2,-2,-3,0,0,0
1472135359283873,-3,2,10,1,-1,-1,-1,0
1472135359283873,0,-1,-5,-3,-2,-3,1,1
1472135359300890,-1,0,-1,-1,-2,-3,-1,-1
1472135359300890,1,3,0,3,1,-1,2,1
1472135359301890,-4,1,-1,-7,2,0,0,-2
1472135359301890,0,0,2,6,-4,0,-2,-3
1472135359322920,-2,-2,5,-9,2,-2,-1,0
1472135359322920,2,-2,2,8,-2,0,-1,1
1472135359324922,-3,-2,-10,-7,-1,-2,1,-2
1472135359324922,-2,1,9,4,-2,-4,0,-4
1472135359337920,0,0,-2,-5,-2,0,-2,0
1472135359337920,0,0,-4,-1,2,-1,-1,0
1472135359343940,-1,-3,6,4,-1,2,0,2
1472135359343940,-1,-2,-10,1,0,0,2,2
1472135359360942,-3,-2,-6,-8,-1,-2,-3,-3
1472135359360942,-1,1,1,1,1,-1,-3,-1
1472135359362445,-3,2,-10,4,0,-2,-2,-4
1472135359362445,-2,2,-2,1,-1,-2,0,1
1472135359382969,1,-4,0,-1,1,0,1,-2
1472135359382969,-2,-3,-2,-6,-1,1,-1,0
1472135359384971,-1,-1,1,1,0,-1,0,-1
1472135359384971,2,0,-5,0,-1,1,-2,-1
1472135359396981,-1,-2,4,1,-2,0,-2,-2
1472135359396981,1,0,1,0,-2,-2,-2,-1
1472135359403989,0,-2,-6,-3,-3,-2,-1,0
1472135359403989,-1,-3,1,-5,-1,-1,0,-1
1472135359421002,-1,5,1,6,0,-2,4,1
1472135359421002,-4,1,-10,-1,0,0,-1,-1
1472135359422004,-1,-3,1,-1,-4,-1,-1,0
1472135359422004,0,2,0,-2,2,1,-3,0
1472135359443022,0,-3,-2,-3,-2,-2,-1,-2
1472135359443022,-2,3,2,6,-1,-1,-1,-2
1472135359445024,0,1,-5,-3,-1,-1,0,-1
1472135359445024,1,-1,0,1,0,1,1,-3
1472135359457034,-2,0,-3,-8,0,0,-2,-1
1472135359457034,0,-3,1,5,-2,-3,-2,-2
1472135359464545,0,0,-1,4,-2,-2,-2,0
1472135359464545,-4,-1,2,0,-1,-2,0,3
1472135359480064,-1,0,1,-3,-4,-3,-3,-1
1472135359480064,-4,-3,-4,-3,-1,0,-1,-3
1472135359482065,-2,1,-10,1,2,-1,-1,-4
1472135359482065,-1,1,2,-4,1,2,-2,-3
1472135359503084,0,-3,-10,5,-4,-1,-1,2
1472135359503084,-2,1,-4,-7,1,1,0,1
1472135359505086,-1,-3,-6,-1,-1,0,-1,0
1472135359505086,-4,-2,0,-1,-1,-1,0,0
1472135359517096,-1,-4,0,-2,0,-3,-3,0
1472135359517096,3,1,3,-1,-3,-2,1,-1
1472135359526105,0,-5,1,-3,-1,1,-1,3
1472135359526105,1,-1,-3,1,-4,0,-2,-2
1472135359540119,-1,-2,-9,-7,0,1,1,-2
1472135359540119,-1,-1,8,1,0,-1,-1,-2
1472135359542121,0,2,15,6,-3,-1,-2,0
1472135359542121,0,1,-4,-1,0,0,-1,0
1472135359563144,4,0,-1,1,0,-3,1,-2
1472135359563144,2,1,-2,-4,-2,-3,-1,-1
1472135359564645,-4,-1,-1,-3,2,-1,-3,-2
1472135359564645,-4,0,-4,3,-2,-1,-1,-2
1472135359577159,-3,-2,1,0,0,0,-2,1
1472135359577159,0,-2,-3,4,0,-3,0,-1
1472135359585169,2,-1,5,1,-2,0,1,0
1472135359585169,0,-5,7,-3,-3,-2,1,-2
1472135359600189,-2,2,-9,1,0,1,-2,2
1472135359600189,1,-1,1,-3,-3,0,-3,-1
1472135359602183,0,-4,2,-4,1,-1,0,-1
1472135359602183,-1,0,-3,-1,-1,-1,-1,0
1472135359623203,-2,3,5,2,-2,-1,1,1
1472135359623203,1,-3,3,-3,-1,0,-1,-2
1472135359624202,-2,-1,-6,0,1,-2,-2,0
1472135359624202,-2,-2,-3,-5,2,-2,2,0
1472135359636225,-2,-3,2,1,-3,-1,-2,-3
1472135359636225,-5,-1,-5,-7,2,0,0,-2
1472135359645223,2,2,1,1,-1,0,-1,-4
1472135359645223,-3,-5,3,2,0,-1,0,1
1472135359668250,0,-1,1,0,-1,-2,-1,0
1472135359668250,-1,-1,1,1,-2,-1,-1,-1
1472135359669752,2,-1,-6,-4,-1,1,3,-1
1472135359669752,-1,-2,-2,-4,-1,-1,-4,2
1472135359683295,-2,2,-2,5,-1,-1,-1,-4
1472135359683295,-3,0,-1,3,0,-1,0,-1
1472135359684286,-1,0,-2,-8,2,0,1,-4
1472135359684286,-2,-2,-2,-3,-1,0,0,-1
1472135359696293,-2,-3,-6,-4,-1,-1,-1,-1
1472135359696293,-1,-3,-1,0,-1,0,0,1
1472135359705300,0,-4,-1,0,-1,-2,-2,-1
1472135359705300,1,0,1,1,-2,-1,0,-2
1472135359720314,0,0,-5,-4,-1,-1,0,1
1472135359720314,-3,2,-11,1,1,0,-2,1
1472135359722317,-1,-2,-6,2,-2,-2,-1,-1
1472135359722317,0,1,4,1,0,-1,-2,2
1472135359743333,-4,-2,0,-3,-4,0,0,-2
1472135359743333,0,0,0,1,0,0,2,-1
1472135359744335,0,-1,3,2,2,-1,-2,-1
1472135359744335,-4,0,-7,2,-1,-1,0,-2
1472135359756348,-1,2,5,3,-1,1,1,0
1472135359756348,0,-2,8,-3,-1,-3,1,-5
1472135359773369,-3,-1,-8,0,5,0,-2,1
1472135359773369,0,0,1,-6,-1,-3,0,-2
1472135359780379,-3,0,-1,2,-1,2,-2,0
1472135359780379,-2,0,5,-1,0,0,-3,-1
1472135359782381,-5,2,-3,-3,-2,-1,1,-1
1472135359782381,-1,-3,-5,1,0,1,-3,0
1472135359803399,-1,-3,0,-3,-2,-3,0,0
1472135359803399,-1,-4,-9,-4,0,0,-1,0
1472135359804400,0,-5,0,-1,0,-3,-1,-3
1472135359804400,-2,0,-4,1,-2,-3,-2,-3
1472135359816413,0,1,6,-1,1,1,-1,-1
1472135359816413,-4,-1,-7,0,-3,-2,-1,-1
1472135359825419,1,1,0,-5,-5,1,-3,0
1472135359825419,-2,-2,1,6,-2,-1,-1,-2
1472135359840433,0,0,-1,1,2,-1,-4,1
1472135359840433,0,-2,-6,-3,-2,0,1,1
1472135359842436,1,3,-6,-2,-4,-1,0,1
1472135359842436,0,2,7,-3,0,-1,1,-2
1472135359863457,-3,1,-8,1,-2,0,0,-1
1472135359863457,3,0,0,2,0,0,-1,-1
1472135359864959,-1,-3,-5,1,-2,1,1,0
1472135359864959,0,-3,-4,-6,-2,-1,-1,-1
1472135359885480,-2,-1,-2,-4,-3,-1,1,-3
1472135359885480,-3,-3,6,2,-3,-1,-6,1
1472135359887485,1,-2,2,-4,0,-1,0,-2
1472135359887485,-2,-1,-7,-2,-3,1,-1,-1
1472135359900495,1,-4,2,-4,1,-1,1,0
1472135359900495,-2,-2,-1,-2,-1,-2,0,-1
1472135359902498,-1,0,4,-2,-1,-1,-2,-3
1472135359902498,-1,2,-2,-2,-2,1,-1,-2
1472135359923515,1,-3,-1,3,-1,-3,-3,-1
1472135359923515,-3,-3,0,-7,-3,-2,0,-1
1472135359924520,-3,-4,-1,2,-2,-4,-4,0
1472135359924520,2,-2,-6,4,1,-2,-1,-2
1472135359945535,1,-3,6,-2,-4,-1,0,-1
1472135359945535,0,-2,-2,-4,-1,-3,-3,-1
1472135359947539,-4,2,-6,5,1,-2,1,1
1472135359947539,2,-3,0,-6,-1,1,-2,0
1472135359960557,-1,0,-3,-3,0,-2,-3,-1
1472135359960557,0,-4,5,-2,-2,-1,0,-3
1472135359962558,0,2,0,-4,-1,-1,0,-1
1472135359962558,-4,-6,-5,-3,0,0,-1,-1
1472135359983580,-2,1,1,9,2,-2,-1,-2
1472135359983580,-3,1,0,-2,-1,3,-1,-2
1472135359984583,1,-1,5,1,2,-3,-3,-1
1472135359984583,1,-2,-4,3,-2,-1,1,-1
1472135360005617,0,2,0,-5,-1,0,-1,-1
1472135360005617,0,2,0,10,-2,-1,0,-2
1472135360007603,0,-1,-3,-6,-2,1,-3,0
1472135360007603,-3,1,2,-5,-3,-3,0,0
1472135360020613,-3,-6,-4,-7,0,0,-1,0
1472135360020613,2,0,-1,1,2,1,-1,-1
1472135360021617,2,-3,0,-3,-2,1,1,-1
1472135360021617,-1,1,0,-1,-2,-1,0,2
1472135360042634,-1,2,-8,2,0,-3,-1,0
1472135360042634,-3,0,8,1,-3,-1,0,2
1472135360044636,-3,0,-7,-5,0,-3,0,-3
1472135360044636,-2,0,-3,-5,1,0,-4,1
1472135360065663,-2,-4,5,0,-2,0,0,-4
1472135360065663,0,-3,-9,-5,-2,0,-1,-2
1472135360067664,-4,-4,4,3,0,-1,-1,0
1472135360067664,-1,2,-1,-2,2,-1,-1,-3
1472135360087688,0,0,-3,1,-2,-1,0,-1
1472135360087688,-4,1,-14,-6,4,0,-3,-3
1472135360089690,-2,0,7,7,0,0,0,-2
1472135360089690,0,1,-3,2,1,0,2,2
1472135360102702,0,-5,-7,1,-4,-1,0,0
1472135360102702,0,-2,1,-2,0,-3,-2,0
1472135360104704,-3,0,-1,0,-1,-3,-1,0
1472135360104704,-1,-3,2,1,-1,1,-1,-2
1472135360125727,-3,4,11,-5,-1,-1,-2,-1
1472135360125727,2,0,-4,-4,2,-1,-2,-3
1472135360127723,-2,2,0,2,-2,-1,-3,-1
1472135360127723,-1,-3,1,-2,-3,-2,-1,0
1472135360139736,-2,2,-5,5,3,1,0,-2
1472135360139736,-2,-3,1,-6,0,-2,2,-2
1472135360146753,-1,-3,-14,1,-2,1,-3,-1
1472135360146753,-4,-4,4,0,1,-1,-2,-3
1472135360163274,1,5,6,1,0,-1,-1,-2
1472135360163274,-2,-1,-6,6,-5,-1,-1,0
1472135360164777,0,0,2,-5,0,-1,0,0
1472135360164777,-3,-1,0,0,-1,-1,0,-2
1472135360185321,2,-1,-5,0,-1,-3,-1,-1
1472135360185321,-2,0,3,2,-1,0,-2,-1
1472135360187324,0,1,2,-5,-1,-1,-3,-1
1472135360187324,1,1,-2,0,-2,0,-1,0
1472135360200334,-1,-5,2,-2,-2,0,-1,-2
1472135360200334,-3,0,2,-7,-4,-3,1,-3
1472135360206355,3,-2,-2,6,-2,1,-2,-1
1472135360206355,-1,5,4,-3,-2,-2,-4,-1
1472135360223371,0,-3,-3,-1,-1,-1,1,0
1472135360223371,2,0,4,-1,-2,-1,1,-1
1472135360224356,-3,0,1,0,1,-1,-1,-1
1472135360224356,0,-1,-6,-3,-2,0,2,-2
1472135360245376,-1,-1,5,2,-3,-2,-2,-1
1472135360245376,0,1,-6,3,-1,-2,0,2
1472135360247379,2,-1,6,-5,0,0,-1,-2
1472135360247379,-2,-2,-2,-2,1,-4,-2,-3
1472135360260397,-3,1,-4,-6,-2,0,-1,3
1472135360260397,1,-1,8,6,1,0,-1,0
1472135360266903,-4,1,-2,-6,-3,2,0,1
1472135360266903,-1,-6,0,5,-1,0,0,-3
1472135360282952,-1,1,2,-5,-2,0,-1,-1
1472135360282952,-1,-3,2,0,-2,1,0,1
1472135360284971,1,-3,3,0,-1,-4,0,1
1472135360284971,2,-3,1,-1,-3,-1,0,-1
1472135360305959,-2,-4,-8,-7,-1,0,-4,-2
1472135360305959,2,1,-3,3,-1,0,-1,-2
1472135360306961,-6,-5,4,2,-1,0,-1,-2
1472135360306961,-2,1,3,1,0,-1,-2,-1
1472135360319972,0,0,-2,-1,-1,-1,-1,-3
1472135360319972,0,0,-6,3,2,0,0,0
1472135360326978,-1,-2,0,-7,-4,-1,1,-3
1472135360326978,-4,2,0,-1,1,-2,-2,-1
1472135360342993,-4,-4,-3,0,1,-1,2,-4
1472135360342993,-6,2,-1,-6,-1,-1,-2,0
1472135360344995,1,1,-1,3,-1,-3,0,-2
1472135360344995,0,-5,-7,-2,0,1,-2,0
1472135360366018,0,0,2,4,-2,-2,-1,0
1472135360366018,3,-1,2,2,2,-3,-3,-1
1472135360367522,-4,-2,-4,0,1,-2,-1,-1
1472135360367522,0,-1,-3,-1,-4,2,-2,-3
1472135360380062,-1,-4,-1,4,-1,-2,-2,1
1472135360380062,0,-2,0,-4,-4,-3,1,1
1472135360387054,2,-1,-5,-5,0,1,-1,1
1472135360387054,-2,-3,3,4,2,-2,0,-3
1472135360403070,-1,-3,0,3,0,-1,0,-2
1472135360403070,-3,-2,-2,-5,1,-2,0,-3
1472135360405070,-2,0,1,3,-1,0,-2,-1
1472135360405070,0,0,0,-5,-4,2,-1,1
1472135360426089,-1,-2,1,-3,-1,0,-1,-1
1472135360426089,-4,-2,-3,-4,2,-2,-2,1
1472135360427090,-4,-3,2,-2,0,-2,0,-2
1472135360427090,3,1,3,2,3,-4,-2,-3
1472135360439134,-1,2,-2,-3,1,-1,0,-1
1472135360439134,0,1,4,10,-3,1,-3,-2
1472135360448110,-1,-1,-2,-2,-1,-2,0,1
1472135360448110,-1,0,-11,-2,1,0,-1,-1
1472135360463142,1,3,-15,-3,-3,0,2,0
1472135360463142,-3,-3,-1,0,-1,1,-1,-3
1472135360464643,-2,-4,-7,-2,0,1,-1,-3
1472135360464643,1,4,4,-2,-3,-2,-2,1
1472135360485167,-2,-2,1,5,-1,-3,0,-3
1472135360485167,1,-1,-12,-8,-1,1,-1,-1
1472135360487169,0,0,6,3,1,-3,-2,-2
1472135360487169,-2,-2,0,2,-3,1,-1,-2
1472135360499192,-1,1,3,-5,-2,-2,-2,-1
1472135360499192,2,-2,-1,-2,0,-1,0,-3
1472135360508186,-2,0,-9,-4,-1,0,-1,-1
1472135360508186,-1,-2,-2,-1,0,0,0,0
1472135360523216,-2,0,8,3,-4,1,0,-1
1472135360523216,1,1,-2,-8,-3,0,0,-2
1472135360524203,-1,0,-2,8,1,-2,-1,0
1472135360524203,2,-3,-3,-7,-2,-2,-4,0
1472135360545220,3,0,1,3,0,-3,-2,1
1472135360545220,-2,1,4,0,2,-2,1,-1
1472135360547222,-2,-5,-11,-6,-1,0,2,-2
1472135360547222,-1,-1,0,1,0,-1,1,-3
1472135360559738,0,3,3,-2,-3,1,-2,1
1472135360559738,-1,2,-4,1,-1,-1,0,2
1472135360568247,1,2,4,-3,-1,1,-5,-3
1472135360568247,0,0,-1,-3,-1,-2,0,-1
1472135360583328,1,3,-6,1,2,-1,-1,-2
1472135360583328,-5,-3,3,4,0,-1,-2,-1
1472135360584297,-3,1,-1,0,-1,-1,1,0
1472135360584297,1,-3,-3,-2,-4,-2,0,1
1472135360605355,-2,2,6,-1,1,-1,-5,-2
1472135360605355,-1,-1,-7,0,-2,-2,-1,1
1472135360607358,-1,-2,-7,-3,-4,1,-3,-1
1472135360607358,-4,1,5,2,0,-2,-1,-2
1472135360619344,-3,-4,-8,2,0,-1,1,-1
1472135360619344,0,1,4,2,-1,-2,-1,-1
1472135360628336,-2,-1,1,-5,-1,-3,0,0
1472135360628336,0,-1,-3,-7,-1,-2,-2,0
1472135360643382,1,-3,-7,1,1,0,-2,0
1472135360643382,1,0,4,4,-2,-2,-2,-2
1472135360644350,-1,-2,-2,-2,-2,-1,0,1
1472135360644350,-5,-1,1,2,-2,-1,-2,2
1472135360665876,-2,-1,-1,-8,-1,0,1,-2
1472135360665876,-2,-2,-6,-1,-1,1,-2,1
1472135360667378,1,-2,2,2,3,1,0,-3
1472135360667378,0,1,-5,1,-1,-2,0,-1
1472135360679407,-1,-2,-4,-5,-2,-1,-2,-1
1472135360679407,-2,-4,-4,-5,-1,-4,-1,-1
1472135360688413,-2,-2,2,-1,-2,0,-1,0
1472135360688413,0,-1,-1,2,0,-1,0,1
1472135360703425,0,-3,-1,-2,-2,-3,1,-2
1472135360703425,1,0,-3,-7,0,0,-1,-3
1472135360704427,1,-4,-13,-6,1,-2,-1,2
1472135360704427,-1,0,2,4,1,0,-5,-3
1472135360725479,-2,-4,-2,0,-3,1,-1,0
1472135360725479,2,-2,6,-4,-3,-3,-2,-1
1472135360727481,3,1,0,3,-2,1,-1,-1
1472135360727481,-4,-7,-15,-8,1,1,1,0
1472135360739458,-3,-4,6,1,0,-1,-2,-1
1472135360739458,-6,0,-5,3,-1,-1,-2,-4
1472135360748468,-1,-2,-1,-6,-2,-2,-2,-2
1472135360748468,1,-2,-2,-5,0,-1,0,-1
1472135360763518,0,1,1,1,-1,-1,1,0
1472135360763518,1,-3,-5,-8,0,-1,-1,-1
1472135360765053,-1,-3,0,3,-1,0,0,2
1472135360765053,-3,0,2,5,3,-2,0,-2
1472135360785078,-3,1,3,0,-2,0,-2,0
1472135360785078,2,0,-2,-5,-2,0,0,1
1472135360793062,-3,-2,-15,1,-2,-1,-3,-4
1472135360793062,-3,0,4,-1,0,1,2,-1
1472135360799069,-1,-1,-4,1,-2,0,-2,-1
1472135360799069,-4,-3,0,5,-1,0,0,-2
1472135360808076,0,1,2,-3,1,-2,-2,0
1472135360808076,-1,-1,-3,-2,-2,-2,-2,-1
1472135360823105,-2,-4,-8,-5,1,-2,0,-2
1472135360823105,-2,-1,4,-1,1,1,-1,-1
1472135360825090,-3,-2,-2,-4,1,-2,-2,1
1472135360825090,0,1,-2,-4,-2,0,-3,-1
1472135360845108,2,-3,-7,-2,-1,-2,1,0
1472135360845108,-2,-1,2,5,0,-1,0,1
1472135360853116,-4,1,2,-2,1,0,-1,-1
1472135360853116,-1,-2,-2,-1,-3,0,0,-3
1472135360859137,4,0,-3,1,0,-3,-2,0
1472135360859137,-2,-3,-1,-2,0,-2,-1,3
1472135360868635,1,-3,2,-1,-2,0,0,-4
1472135360868635,-1,-1,-1,0,-2,-4,-2,1
1472135360882682,-4,-2,-7,-3,3,2,1,-3
1472135360882682,3,0,-1,-1,-1,-1,-1,1
1472135360884684,1,0,6,1,-1,-1,-1,0
1472135360884684,-1,0,-1,2,-1,-2,-3,-4
1472135360905703,-1,-2,3,3,-2,-1,-5,-1
1472135360905703,2,-1,-7,-6,-1,-1,0,0
1472135360907704,-1,1,-10,-2,0,-1,-1,-2
1472135360907704,0,-3,-1,-6,-2,0,-3,-2
1472135360927737,-4,-2,7,0,-3,-3,-1,-1
1472135360927737,-3,-3,1,5,1,2,-1,-1
1472135360929725,0,-3,0,-8,0,-3,2,0
1472135360929725,-1,-2,-5,1,1,-2,1,0
1472135360942735,1,-3,2,-6,-2,2,-1,0
1472135360942735,-2,-1,2,2,-1,-2,-2,0
1472135360944737,3,0,5,1,-1,-2,-1,-2
1472135360944737,-2,-1,-5,-4,-1,0,-1,-3
1472135360965762,-1,7,-1,-9,1,-1,1,1
1472135360965762,2,-1,8,12,-2,0,-4,-4
1472135360967763,-1,-3,-1,-3,-3,-1,-3,1
1472135360967763,-1,5,3,-5,-1,-2,0,2
1472135360987798,0,-1,-2,0,1,-2,-1,-4
1472135360987798,-1,-1,-10,-2,-1,0,2,-2
1472135360989801,-3,-4,2,-4,-5,0,-1,0
1472135360989801,3,-1,4,5,-2,-1,-2,1
1472135361002812,0,-3,-7,-1,0,-1,-1,1
1472135361002812,-2,3,5,1,1,-4,0,-5
1472135361004814,-4,2,-5,-9,-1,-1,2,-4
1472135361004814,-1,-2,-4,4,-1,-1,-2,0
1472135361025845,-2,3,2,0,-2,0,-1,1
1472135361025845,-3,-1,-5,-2,1,1,-3,-2
1472135361026833,0,-2,1,3,-1,-2,-1,0
1472135361026833,1,1,9,-2,-1,0,-2,-2
1472135361047852,-2,-2,-12,-3,-2,-1,-3,-1
1472135361047852,-1,0,2,5,-3,-2,-1,-1
1472135361049854,-1,2,-3,0,-2,-2,-1,0
1472135361049854,-2,-3,4,0,0,-2,2,0
1472135361062871,0,-1,1,2,-1,-1,-1,-1
1472135361062871,0,1,-2,-7,0,-1,-1,0
1472135361069379,0,-3,-1,6,-1,-1,-1,-4
1472135361069379,0,-4,-10,-4,-1,-1,-2,2
1472135361085927,-1,-5,0,-11,-1,-4,-2,-4
1472135361085927,-4,-5,-11,4,-1,0,2,-1
1472135361086897,2,-1,4,-2,3,-1,-1,-1
1472135361086897,-3,1,-2,2,1,2,0,0
1472135361107916,-4,-3,0,-4,-2,2,0,-1
1472135361107916,1,-1,0,-8,-1,0,1,-2
1472135361109918,-2,-2,-2,3,-2,-3,0,1
1472135361109918,-1,-3,-1,9,0,1,-3,-1
1472135361122929,0,0,0,-4,0,1,0,-2
1472135361122929,0,0,-1,-3,-3,-1,1,-1
1472135361128935,0,2,7,2,-2,1,-3,-1
1472135361128935,-3,-7,-4,-5,-2,-1,2,1
1472135361145950,-2,-1,-7,5,0,-3,-1,0
1472135361145950,-1,0,-6,-8,-1,0,-1,-1
1472135361146951,1,-1,1,4,2,0,-4,0
1472135361146951,2,-2,4,5,0,-2,-3,-3
1472135361168487,1,3,-1,2,-2,1,-3,1
1472135361168487,2,0,1,-1,-2,-3,1,0
1472135361169988,-4,-2,-2,-1,1,-1,0,1
1472135361169988,-2,-1,-15,-3,-3,-1,1,0
1472135361182004,0,2,2,0,1,-4,-2,-1
1472135361182004,-2,1,-2,-5,2,-2,-2,-1
1472135361189011,-6,-2,8,12,-2,-1,-1,1
1472135361189011,-2,-5,-1,-9,-1,-2,1,-1
1472135361206025,0,-7,-1,6,-1,0,-2,-1
1472135361206025,3,1,-1,-2,-4,-1,-1,1
1472135361207026,1,1,-3,-8,3,-2,-1,-1
1472135361207026,-2,-1,-2,1,-1,1,0,-4
1472135361228045,2,2,0,-3,-1,-1,2,-1
1472135361228045,2,-5,1,-2,-2,0,-4,1
1472135361230047,0,1,-1,0,-1,0,2,0
1472135361230047,1,2,8,-5,0,-2,2,0
1472135361242057,-5,0,2,4,-1,-1,-1,-4
1472135361242057,-2,-1,-4,4,3,-1,-1,-3
1472135361249063,-1,-2,-2,-6,-1,-2,-1,-1
1472135361249063,2,1,1,-4,-4,0,0,-3
1472135361265582,-3,-3,-2,-1,-4,-1,-2,-2
1472135361265582,-1,0,2,0,-1,1,-1,0
1472135361267584,-2,-3,-4,-1,-1,-1,0,-2
1472135361267584,-2,0,6,5,1,-2,-2,-2
1472135361288108,0,-1,0,-3,0,1,-1,1
1472135361288108,-3,-6,3,4,2,-1,-3,-3
1472135361290108,0,1,-2,4,0,-1,0,-1
1472135361290108,-1,2,2,-5,-1,-3,1,-3
1472135361302120,0,0,4,0,-2,-2,1,0
1472135361302120,-3,1,-1,-1,0,1,0,-1
1472135361309126,0,1,1,3,-3,-1,-4,-2
1472135361309126,-1,0,-7,0,-1,1,0,-1
1472135361325142,-1,-1,-9,-3,-3,-1,-2,-2
1472135361325142,-4,-3,0,-4,1,-3,-1,-2
1472135361327142,-3,0,-4,-3,-1,1,0,-1
1472135361327142,-1,-2,3,3,0,0,-1,-2
1472135361348163,-2,0,-4,-3,-3,-3,1,1
1472135361348163,0,-2,-3,0,-3,-1,2,0
1472135361350165,0,-5,-1,-1,-2,-4,1,1
1472135361350165,-4,-1,1,-3,1,0,0,-1
1472135361362679,-1,1,7,5,1,1,-2,-2
1472135361362679,3,-2,-5,-5,-4,1,-1,-2
1472135361369685,0,-2,6,-4,0,2,0,-1
1472135361369685,-2,-1,-6,1,-2,-1,0,0
1472135361385205,-3,0,4,-4,3,0,-1,2
1472135361385205,-3,-1,-5,-3,-1,-2,1,-1
1472135361387207,-1,-1,-1,-1,-1,0,-1,-2
1472135361387207,2,1,2,7,-2,1,-1,-1
1472135361408226,0,-5,-3,-2,-2,0,0,-3
1472135361408226,-1,-1,4,0,0,-1,-2,0
1472135361409227,-1,2,-1,0,-3,-1,-3,-2
1472135361409227,-2,0,0,-3,2,0,-2,1
1472135361421237,2,-2,-6,3,-2,0,-1,-1
1472135361421237,0,-5,2,-9,-3,-1,1,-3
1472135361431246,-2,-2,-5,0,-2,1,0,-1
1472135361431246,-3,0,-2,-2,-1,-3,-1,-3
1472135361445260,-3,-1,7,3,-1,-1,0,0
1472135361445260,-2,-1,-4,-3,0,-2,-1,-2
1472135361447260,-3,-2,-1,1,2,2,-2,-3
1472135361447260,-4,-2,-1,-6,-5,-3,-1,0
1472135361468312,1,-2,-12,-3,0,0,2,0
1472135361468312,0,1,5,-3,1,-3,-3,-1
1472135361469800,0,0,-9,-3,0,-1,0,-1
1472135361469800,2,-3,-6,-3,-2,0,-3,-1
1472135361481342,-3,1,1,0,-3,-3,-4,-2
1472135361481342,-5,2,3,6,0,-1,-4,1
1472135361490334,2,-3,-1,-2,-2,-2,3,0
1472135361490334,1,0,-2,-1,1,1,-1,-3
1472135361505348,-5,1,-1,-1,-2,-2,-2,2
1472135361505348,0,2,-10,-11,-1,-2,0,-1
1472135361507351,1,0,11,2,-3,-2,-2,-1
1472135361507351,-1,0,-7,-2,-1,0,0,-2
1472135361528402,-1,-3,4,4,2,0,0,-4
1472135361528402,3,0,-1,0,-2,0,2,1
1472135361529370,0,-3,-1,-6,0,-2,-2,0
1472135361529370,-3,-2,-4,-4,-1,-2,0,0
1472135361541384,1,-2,-2,-1,1,-1,-2,-1
1472135361541384,-2,-1,-5,2,-2,-2,-1,1
1472135361550389,-2,0,2,-6,-4,-2,-1,-1
1472135361550389,3,-5,0,7,-1,-2,-2,-1
1472135361565952,2,-4,0,-7,-2,0,-2,2
1472135361565952,-2,-2,3,7,0,0,1,0
1472135361567441,-2,-2,-7,0,2,1,-1,0
1472135361567441,-1,-1,2,-4,1,0,-1,0
1472135361588466,-1,1,-1,-2,-1,-1,-1,-2
1472135361588466,1,-2,-4,-3,2,-1,-2,-1
1472135361589468,-2,-1,5,4,-1,-1,-4,1
1472135361589468,2,2,-7,3,-2,-2,0,-1
1472135361601490,-2,-1,-4,-5,-2,-1,2,-6
1472135361601490,-2,-4,0,-4,1,0,-2,0
1472135361610485,-3,-2,-14,1,2,-1,1,0
1472135361610485,-2,-4,-2,-4,-2,-3,-2,3
1472135361625531,1,3,6,1,-2,-1,-3,0
1472135361625531,-1,1,1,5,-2,-1,-2,0
1472135361627501,2,-2,0,2,-2,-1,0,-3
1472135361627501,-1,-3,-2,-2,2,0,0,1
1472135361648522,-1,-1,-2,-7,-1,0,-1,-2
1472135361648522,-1,-1,0,-5,-1,-1,0,-4
1472135361649523,-1,-4,-4,-6,0,-3,0,0
1472135361649523,-4,4,2,0,1,-1,-2,0
1472135361662040,1,0,2,1,1,-1,-3,0
1472135361662040,-1,0,2,2,-2,-2,-2,-4
1472135361671046,-4,3,6,-3,-3,0,0,-3
1472135361671046,-2,-3,-15,-7,0,-1,-2,-2
1472135361685591,-2,-7,6,8,-3,-1,-1,0
1472135361685591,2,-2,-1,2,-1,-2,-3,-2
1472135361687595,4,1,-5,-3,3,0,-4,-1
1472135361687595,3,2,7,2,-3,0,0,-1
1472135361707611,2,0,0,-4,0,1,-3,-2
1472135361707611,-2,0,-5,2,-3,0,2,-2
1472135361709614,-2,-2,1,-2,-2,-3,-2,-1
1472135361709614,1,-2,5,8,-1,0,0,-1
1472135361721626,-1,1,-4,2,0,-2,2,-1
1472135361721626,-4,-1,4,-1,-3,-1,-2,0
1472135361730633,0,1,-6,-5,-2,-3,0,0
1472135361730633,-3,-2,0,-2,0,1,2,1
1472135361745648,0,0,-2,4,-2,0,1,-1
1472135361745648,-1,-4,-1,2,0,-1,0,-1
1472135361747649,-2,-3,4,-2,-2,1,-1,1
1472135361747649,0,-5,-6,-3,-3,0,0,-3
1472135361768190,-5,1,1,1,-5,-3,2,0
1472135361768190,-2,7,-9,0,0,0,-1,0
1472135361769675,-1,0,3,-3,-2,-2,0,0
1472135361769675,-5,0,1,-3,-1,0,-1,-2
1472135361782242,0,0,-3,1,2,-1,-1,-2
1472135361782242,0,-4,-1,-1,-2,1,3,-3
1472135361790251,0,-2,0,4,-2,-2,-2,0
1472135361790251,-3,-2,-1,-6,-1,-1,-2,-1
1472135361805264,-1,0,-4,3,-2,2,-1,-1
1472135361805264,0,0,2,0,-2,-2,-3,1
1472135361807266,0,-2,-2,0,0,0,-2,0
1472135361807266,-3,1,3,1,-2,-3,1,-2
1472135361828300,1,-4,-8,-8,-1,-1,-1,0
1472135361828300,-6,1,2,1,-1,0,-4,0
1472135361829305,2,-2,-1,2,0,0,0,-2
1472135361829305,2,3,-1,-2,-1,-1,-2,-1
1472135361850305,-5,-3,1,-1,-1,-1,1,-1
1472135361850305,2,0,-4,-1,1,-1,-2,-2
1472135361852306,-4,1,1,2,-1,0,-1,0
1472135361852306,-1,-1,-2,-3,-2,0,0,1
1472135361865825,0,3,3,-2,1,0,0,-2
1472135361865825,1,-3,4,-4,-1,-1,1,-4
1472135361867327,-5,-1,-1,5,-2,0,-3,-1
1472135361867327,1,2,2,-2,-3,-1,-3,-1
1472135361888395,-4,-1,-8,1,1,-4,0,1
1472135361888395,1,-4,-4,-4,-3,-1,-1,1
1472135361889393,1,1,0,-3,-1,-1,0,-2
1472135361889393,-2,1,-2,-2,1,0,-2,1
1472135361910412,1,-4,-5,-4,1,-1,0,0
1472135361910412,0,-1,0,-9,-1,-1,1,-1
1472135361912415,-1,-5,0,2,-1,-1,0,-3
1472135361912415,-1,1,8,2,0,-2,-5,-2
1472135361925425,0,-1,-5,-1,-1,0,-1,-3
1472135361925425,-1,-2,-3,5,2,-3,-2,-2
1472135361931447,-5,0,-1,-3,-3,-2,0,-1
1472135361931447,2,-2,-3,0,3,-2,0,0
1472135361948446,1,1,4,-4,0,-1,-1,0
1472135361948446,1,-3,6,0,-2,2,1,-1
1472135361949448,-2,0,-3,-2,-1,-2,1,-3
1472135361949448,-2,-1,2,5,0,-3,-3,-1
1472135361970973,1,4,0,-2,1,-1,-2,-3
1472135361970973,-1,-4,-10,-4,0,-1,0,-1
1472135361972477,0,-2,-2,-4,2,-1,-1,-1
1472135361972477,-3,-2,-4,0,-3,-3,-1,-1
1472135361984995,2,-4,-15,-3,-3,-1,-2,-2
1472135361984995,-6,0,-3,2,1,-1,-2,-1
1472135361992002,2,1,0,1,0,1,0,-1
1472135361992002,1,-1,-1,-2,-2,-2,2,-1
1472135362008015,-3,-3,0,-1,-2,-3,-1,0
1472135362008015,0,-1,3,2,1,-1,1,-2
1472135362010030,-1,1,-8,-3,-2,1,-1,2
1472135362010030,3,0,4,-1,-1,0,-1,0
1472135362031033,-2,-2,-4,-1,-1,-1,-2,0
1472135362031033,0,2,3,2,2,-1,-3,-1
1472135362032034,1,1,6,2,-2,-2,0,-2
1472135362032034,1,-6,-3,-2,0,0,1,-2
1472135362045060,-1,-2,2,2,-1,-3,0,-1
1472135362045060,-3,3,-3,-2,-4,2,1,-2
1472135362052066,0,0,-8,-1,-1,0,-2,0
1472135362052066,-1,-2,1,3,-1,0,-1,-3
1472135362068571,-1,5,5,0,0,0,-4,-2
1472135362068571,0,-1,7,4,-1,-2,1,2
1472135362070074,0,-5,-4,-2,-1,-1,0,0
1472135362070074,-3,-1,-8,-2,2,0,-1,0
1472135362090687,-5,1,1,4,-3,-1,-1,1
1472135362090687,4,0,1,7,-1,-2,-3,0
1472135362092689,0,0,0,-2,1,-2,-1,-3
1472135362092689,-1,4,-7,-5,0,-3,-2,-3
1472135362104701,1,-3,8,-4,-1,2,-1,0
1472135362104701,-2,-4,-5,-4,-1,-2,-1,2
1472135362111722,2,-2,-3,1,-2,-1,-2,-1
1472135362111722,-2,-3,0,-2,-2,0,-1,-1
1472135362127737,-1,0,0,0,-1,-2,0,-4
1472135362127737,-1,0,-3,-3,-2,-1,-1,0
1472135362129724,-4,0,2,-4,1,-3,-1,-1
1472135362129724,-2,-3,4,1,-1,-1,-2,1
1472135362150755,2,0,6,0,-1,2,1,-1
1472135362150755,-2,4,-3,-4,-1,-2,-4,3
1472135362152748,-1,-1,0,3,1,0,0,-2
1472135362152748,1,1,-1,-3,-1,-1,1,-1
1472135362165278,1,-2,-3,-2,-1,-3,0,-1
1472135362165278,-2,-1,1,-3,-1,0,0,-5
1472135362172280,-1,2,-4,-4,-2,0,-3,3
1472135362172280,-2,-4,3,6,-1,0,0,-2
1472135362188300,-5,1,-5,-8,-3,-1,0,-2
1472135362188300,-3,-3,4,1,-1,-1,0,1
1472135362189302,2,-4,1,1,-1,0,-1,-3
1472135362189302,2,0,-14,2,0,0,1,0
1472135362210352,-4,-1,-1,-4,-5,-2,-2,0
1472135362210352,0,3,-6,-1,-1,1,1,-3
1472135362212322,-5,-4,2,-3,-1,-1,-1,-1
1472135362212322,1,2,2,-3,-5,1,-1,-2
1472135362225333,-1,-3,-8,1,1,-3,-3,-1
1472135362225333,0,-3,-11,-9,-2,-4,0,-1
1472135362232340,2,-1,2,8,-2,0,0,0
1472135362232340,-2,2,4,-2,-2,1,1,-1
1472135362248368,-4,-2,-1,-1,1,1,-3,1
1472135362248368,-2,-2,4,-4,0,-1,-1,-4
1472135362249355,3,-1,2,-5,-1,-3,0,0
1472135362249355,0,-4,0,1,0,-3,-4,-1
1472135362270881,0,3,9,9,1,-1,1,0
1472135362270881,-1,-1,-9,-2,0,1,0,0
1472135362272383,-4,-2,1,-1,0,0,-2,-2
1472135362272383,-3,-1,2,3,-2,-2,-2,2
1472135362285398,3,1,5,5,-1,2,1,-1
1472135362285398,0,-1,-7,1,1,-1,-2,-4
1472135362291417,-3,3,-7,-2,-3,-1,2,1
1472135362291417,0,-4,-4,-4,0,-4,-1,-1
1472135362308451,-3,-5,-8,-8,-1,-2,0,0
1472135362308451,2,-4,5,9,0,-1,-3,1
1472135362309421,-2,-2,0,-2,-3,-1,-1,-2
1472135362309421,-2,-2,0,-3,-2,0,-1,0
1472135362330438,1,0,-4,-2,0,0,0,0
1472135362330438,-2,1,4,1,-3,0,0,-2
1472135362332441,2,-4,-3,-1,4,0,-4,-1
1472135362332441,-3,0,-3,1,-1,-2,1,-2
1472135362344483,1,-2,8,1,-2,-5,1,0
1472135362344483,-2,0,0,1,-2,-2,-1,-1
1472135362353460,0,2,-1,-2,-1,0,-2,2
1472135362353460,0,-1,-2,0,0,-1,1,-2
1472135362368510,0,0,2,0,1,-1,-1,-2
1472135362368510,1,2,-5,-6,0,-2,-2,0
1472135362370054,-2,-5,-9,-3,-3,0,0,-1
1472135362370054,3,-3,-4,-4,-1,-1,-3,-2
1472135362390536,-3,-4,-2,4,-2,1,0,-3
1472135362390536,1,-3,0,-6,-2,-2,-2,0
1472135362392568,-4,-3,1,-2,-1,0,-1,-2
1472135362392568,-1,0,-3,-5,-1,-2,-2,1
1472135362404548,-1,-2,-10,-3,-1,2,-3,-1
1472135362404548,2,0,1,-1,0,1,1,1
1472135362413555,-1,-2,-3,2,1,-1,0,-2
1472135362413555,-1,1,4,0,0,1,0,1
1472135362428569,-2,-1,-5,-4,-2,-4,-1,-3
1472135362428569,-3,1,-4,-5,0,0,-1,-4
1472135362429569,0,-6,0,-3,2,-1,0,1
1472135362429569,1,0,0,-5,0,0,1,-1
1472135362450622,2,-2,-11,-4,-1,0,-1,-1
1472135362450622,0,1,3,0,1,0,0,-1
1472135362452621,-4,2,0,-2,-1,-4,-1,-4
1472135362452621,-5,-2,5,4,-1,-2,1,-3
1472135362464609,-3,-1,2,-3,0,-1,-2,3
1472135362464609,-1,0,-5,-5,-3,0,0,1
1472135362473615,-4,0,-3,1,0,0,0,-3
1472135362473615,3,2,3,3,-3,-2,-1,-2
1472135362487692,-1,3,-4,-7,-1,-2,-1,1
1472135362487692,0,-4,-1,6,-3,-2,0,-4
1472135362489665,1,2,1,-2,-4,-2,-3,-2
1472135362489665,0,1,1,-2,0,-1,-1,-3
1472135362510684,-1,-2,8,5,-1,-2,1,-2
1472135362510684,-3,2,-3,1,-2,0,-2,1
1472135362512704,1,-2,0,-1,-3,-2,0,-2
1472135362512704,-2,-4,-11,4,0,-2,-3,0
1472135362524704,-3,-4,1,0,1,0,1,0
1472135362524704,0,-1,-9,-9,-2,-4,-1,-1
1472135362533702,1,2,2,-1,2,1,-1,-1
1472135362533702,-2,-2,-3,-1,-1,0,-2,-3
1472135362547751,1,2,1,4,-1,0,-1,-5
1472135362547751,-3,-5,1,7,2,2,-2,3
1472135362549719,-2,-2,-15,-4,-1,1,-3,-1
1472135362549719,-2,0,-1,-4,-3,0,0,-1
1472135362570739,0,-2,-2,-1,0,0,-2,-3
1472135362570739,-2,-1,2,1,0,0,1,-1
1472135362572740,2,1,-4,-1,-1,-4,-1,-2
1472135362572740,-1,-4,0,4,0,0,-2,-2
1472135362584784,0,1,-3,-3,-2,2,2,0
1472135362584784,-2,-1,-2,-2,1,1,-1,-2
1472135362593794,3,2,0,-1,-2,0,-3,-2
1472135362593794,-2,-3,-5,-10,-3,-1,2,-1
1472135362607837,0,-1,3,10,0,-4,0,-2
1472135362607837,-2,-2,5,-1,-4,-3,-4,-1
1472135362609808,-4,-4,3,0,0,-2,1,0
1472135362609808,1,3,4,-1,1,1,-1,5
1472135362630826,-2,-5,-6,-6,-1,-2,-2,1
1472135362630826,-1,-2,0,0,-1,-2,0,-2
1472135362631827,-4,-2,0,1,-2,1,0,-2
1472135362631827,-1,1,2,-4,-1,-1,-2,-1
1472135362643870,-2,3,3,5,-2,-1,-2,-2
1472135362643870,2,-4,-7,-3,1,-3,-1,1
1472135362652846,-1,-3,4,3,-2,1,1,0
1472135362652846,-2,-1,-2,-4,0,-3,1,-4
1472135362668399,0,-2,-1,-3,-2,-1,-1,0
1472135362668399,0,-1,1,1,2,-1,-2,-2
1472135362669868,-1,1,2,-1,0,0,1,0
1472135362669868,0,-3,7,14,-2,1,-1,-3
1472135362690452,1,-2,7,-7,1,0,-1,-2
1472135362690452,-1,-2,-3,3,1,-1,-2,-3
1472135362692424,-3,-1,-8,-3,-3,-5,-3,-3
1472135362692424,-1,-4,-4,-3,-1,1,-1,-1
1472135362704465,-1,-1,-4,0,-1,-1,-2,1
1472135362704465,2,-2,0,-3,2,1,-2,-1
1472135362713444,-2,-5,5,-1,-2,1,1,-1
1472135362713444,0,-2,-14,-10,-2,-2,-4,-2
1472135362735462,-1,-2,-2,3,-1,-1,-1,-3
1472135362735462,-5,2,-1,-4,1,-1,0,-1
1472135362737465,5,-2,4,2,-1,-3,-1,-2
1472135362737465,1,0,3,2,1,0,2,-1
1472135362750476,-2,-5,-9,-8,3,1,0,1
1472135362750476,-2,3,2,4,-4,-1,1,-3
1472135362752478,0,2,0,-9,-1,1,0,-1
1472135362752478,-2,-1,-12,2,2,0,-2,1
1472135362764526,-1,1,2,4,0,0,-2,-2
1472135362764526,1,-6,-5,2,1,-2,-3,-2
1472135362773502,-3,2,-9,-5,0,-1,0,1
1472135362773502,0,-3,0,-2,0,0,4,0
1472135362788089,-1,2,5,-2,-3,-1,-2,-3
1472135362788089,1,-5,-7,2,-4,-1,1,1
1472135362790084,-1,1,5,-3,1,-1,-2,-2
1472135362790084,1,1,4,5,-4,-4,-3,-1
1472135362811072,-2,-1,-3,-2,-2,-2,-2,-1
1472135362811072,1,0,1,-7,0,2,0,1
1472135362812071,-1,-2,-1,9,0,-2,-2,-1
1472135362812071,1,0,3,-3,1,-2,-1,-2
1472135362833090,-3,-4,-2,1,-2,0,0,0
1472135362833090,-4,3,3,0,-1,1,0,1
1472135362835092,-2,1,-8,-12,1,-1,0,0
1472135362835092,0,-2,3,4,-1,1,-1,-2
1472135362848118,-1,-3,-4,-3,1,-1,-1,0
1472135362848118,-2,-1,3,1,-2,-1,0,-4
1472135362850121,-1,0,5,1,0,-2,0,1
1472135362850121,-2,-3,-5,-1,-1,0,1,-1
1472135362871127,2,2,4,-3,-3,-1,2,-2
1472135362871127,-3,0,-2,-1,-2,2,-2,-2
1472135362872643,0,-2,1,1,-1,0,0,-2
1472135362872643,-5,0,0,-3,-2,-3,0,1
1472135362893198,1,0,0,2,0,-1,0,-1
1472135362893198,2,-3,-2,-2,-1,-3,0,-1
1472135362895198,-4,1,-4,0,0,1,-2,1
1472135362895198,3,1,3,0,-3,-1,-2,0
1472135362908216,-3,2,3,-6,-2,-3,-2,-3
1472135362908216,0,1,0,6,-1,0,-1,-1
1472135362910206,1,-1,-1,-1,1,-1,1,-1
1472135362910206,-1,0,-4,-2,-3,-1,-1,-2
1472135362931199,2,-2,3,1,-2,-1,0,0
1472135362931199,-1,0,-11,-1,0,1,-2,-2
1472135362932199,-3,-1,3,4,-3,0,-1,1
1472135362932199,-4,-2,-5,-14,-1,-2,-1,-1
1472135362953235,2,-4,2,1,-2,-4,1,-1
1472135362953235,-2,1,4,3,-3,-2,-2,-2
1472135362955221,1,0,-2,5,0,-1,0,1
1472135362955221,-4,0,-3,-2,2,0,-2,-3
1472135362967782,-1,0,-6,-5,0,0,0,-2
1472135362967782,-2,-3,-1,1,-2,-3,-3,0
1472135362974755,0,-2,-3,-4,-2,-2,-2,-1
1472135362974755,0,1,7,2,-3,-1,-1,0
1472135362990274,-6,-4,-1,-1,1,-3,-1,-1
1472135362990274,2,-1,5,-2,-3,-1,2,-3
1472135362992274,-1,1,-2,-2,-1,-1,-1,0
1472135362992274,-1,-4,3,5,0,0,3,-1
1472135363013293,-1,1,0,9,0,1,-2,-2
1472135363013293,-1,-5,3,-10,2,-2,0,0
1472135363014295,0,-1,-7,-1,-3,0,-2,-4
1472135363014295,2,-6,-2,-4,-2,-1,-2,-3
1472135363027323,0,-2,-1,7,-1,-1,-1,1
1472135363027323,-4,-2,0,-1,1,-2,1,0
1472135363034313,-2,-2,-2,-3,-1,0,-1,-3
1472135363034313,0,0,-2,-1,3,-2,-1,-1
1472135363050328,-1,5,-7,-5,-1,-2,0,1
1472135363050328,-1,1,6,1,-3,-2,0,-1
1472135363052330,-2,-5,-1,1,-2,2,0,0
1472135363052330,-1,0,1,4,-1,-1,-2,2
1472135363073367,2,5,-5,0,-1,0,-1,-2
1472135363073367,0,-2,-12,-5,0,-1,0,-1
1472135363074858,-1,0,7,3,0,-4,-1,0
1472135363074858,-4,-2,-6,-1,-3,-2,-2,-3
1472135363087401,1,-5,-3,2,0,1,-5,0
1472135363087401,-3,-2,2,2,1,-1,1,-3
1472135363094408,-1,-3,-6,-11,1,-1,-1,-3
1472135363094408,2,-2,-3,2,-1,-1,1,2
1472135363110435,-3,1,3,-5,-3,-2,0,-3
1472135363110435,0,2,-1,-5,1,2,-1,2
1472135363112425,-1,-2,3,8,-2,-2,3,-2
1472135363112425,4,-2,-4,-2,-1,-2,-2,-1
1472135363133455,-1,-3,-1,-7,-2,2,-1,-1
1472135363133455,-1,3,5,5,-3,-1,-1,-3
1472135363134443,1,-1,5,1,0,-1,-4,1
1472135363134443,-3,1,-15,0,0,2,0,-3
1472135363147454,-3,-4,2,-4,-1,-2,-2,0
1472135363147454,0,-3,-2,-5,-2,1,0,0
1472135363154461,1,-1,3,3,1,-2,-2,1
1472135363154461,-1,5,3,-3,0,-1,0,0
1472135363170983,0,-1,-3,2,-2,0,-2,-1
1472135363170983,-3,-1,-3,-5,0,1,-1,-3
1472135363172484,-1,-4,-9,-1,-3,-2,0,0
1472135363172484,-3,0,5,-2,-1,0,1,-1
1472135363193505,-1,2,2,2,1,-1,-2,0
1472135363193505,0,-2,3,2,-2,-1,-1,-1
1472135363194507,-1,4,-5,0,-4,-1,0,-1
1472135363194507,-1,-2,-1,1,0,0,-1,-2
1472135363207533,0,-4,-5,-4,-1,0,-1,0
1472135363207533,1,-1,-4,-1,0,-1,0,-3
1472135363214526,-2,0,3,1,2,-1,0,-3
1472135363214526,0,-1,-2,-13,-2,-1,0,0
1472135363230554,2,0,6,13,-1,-1,-2,-1
1472135363230554,1,2,-2,2,-1,-2,-1,0
1472135363232559,1,-1,0,-5,-3,-2,-3,-2
1472135363232559,-3,-2,-1,-4,-1,-2,-1,-1
1472135363253561,-1,-6,-5,-1,-1,-4,0,-3
1472135363253561,-1,-1,-5,3,-1,-1,2,0
1472135363254561,-2,-2,3,-7,-2,1,2,-1
1472135363254561,0,0,6,0,-2,-1,-1,-3
1472135363267581,2,1,-4,-8,-2,-1,1,-2
1472135363267581,0,-1,-6,-3,-3,-2,-5,2
1472135363274586,0,2,8,2,-1,-2,-3,-1
1472135363274586,-1,-6,1,1,-1,0,-3,-1
1472135363290200,-2,-3,-10,1,1,-2,0,0
1472135363290200,2,3,-1,-8,-1,0,0,0
1472135363292186,1,2,-6,9,-2,1,-1,-4
1472135363292186,-3,-1,-7,-12,-3,-1,-1,-1
1472135363313219,-5,3,-1,-6,-1,-2,1,-2
1472135363313219,-2,-3,0,-1,-1,-2,-2,-2
1472135363315206,-3,-4,-3,0,-1,-1,-2,-2
1472135363315206,2,0,-3,2,0,0,-1,0
1472135363327217,-4,0,3,-3,-1,0,0,1
1472135363327217,-2,-2,-2,1,-4,-1,-2,-1
1472135363336227,-3,-2,-6,-7,-1,0,0,1
1472135363336227,0,0,0,5,1,-1,-2,-3
1472135363350238,0,-1,0,-4,-1,-2,-1,-2
1472135363350238,-4,0,4,1,0,-1,0,-1
1472135363352241,0,-3,-5,-1,0,-1,-1,1
1472135363352241,-3,2,-1,-2,-1,-1,-1,0
1472135363373267,-1,-1,-2,-1,-5,-3,-3,-1
1472135363373267,-1,0,-20,-4,2,-1,-2,-2
1472135363374769,-2,-8,2,6,2,-3,-2,-2
1472135363374769,-1,-2,3,0,-2,-3,0,0
1472135363386781,0,3,-6,-5,1,0,-4,-1
1472135363386781,0,-5,2,-4,-3,2,-2,-2
1472135363395790,1,-1,-1,-5,-2,0,1,-2
1472135363395790,-1,0,6,13,-2,-1,2,1
1472135363410820,1,-5,-1,-4,1,-3,-2,-3
1472135363410820,-3,0,3,-4,0,-2,1,-1
1472135363411804,-2,-1,-6,-1,-1,-3,-2,2
1472135363411804,-3,-2,5,-2,-1,0,-1,-3
1472135363432839,-3,-3,-7,2,0,3,1,-1
1472135363432839,-1,1,13,3,2,-1,-1,-5
1472135363434826,-2,2,10,8,0,-1,2,-1
1472135363434826,-2,4,-2,1,-2,-1,-1,-1
1472135363446850,-3,2,-8,-12,-2,0,-2,-3
1472135363446850,0,-1,1,6,2,-3,-1,2
1472135363455845,-1,1,-2,-3,-1,0,-1,-1
1472135363455845,-1,-1,0,-2,-2,-2,0,-2
1472135363470866,2,-2,1,-3,-1,-1,-1,0
1472135363470866,-1,-2,-7,-2,-3,-1,3,-3
1472135363472368,-1,0,-4,-3,1,-2,-1,-2
1472135363472368,1,-3,-5,-5,0,-2,-3,-2
1472135363492890,-3,0,6,2,-4,-1,1,0
1472135363492890,-1,-2,-2,-1,-1,-1,0,1
1472135363494892,-2,-2,-2,-8,1,0,-1,3
1472135363494892,1,-2,-1,1,0,-1,-1,0
1472135363506918,-3,-1,-1,1,0,-3,0,-4
1472135363506918,0,-1,-3,2,-2,-2,-3,-3
1472135363515911,0,0,6,2,-3,1,1,-3
1472135363515911,-2,0,-3,-6,-3,0,-1,0
1472135363530938,2,-4,1,6,0,1,-1,2
1472135363530938,-1,0,0,2,1,0,-3,0
1472135363531926,-1,-3,2,-6,0,-1,-1,-1
1472135363531926,2,-1,-7,-1,-2,-1,-2,-1
1472135363552960,-1,-1,-4,0,-1,0,1,-2
1472135363552960,-2,-1,2,11,-1,0,-1,2
1472135363554980,0,-2,-2,-6,1,-2,-3,-3
1472135363554980,-4,1,-4,1,1,-3,-2,-4
1472135363566966,-3,2,-4,1,-1,-2,-2,0
1472135363566966,-2,-4,-1,-1,0,0,-1,-1
1472135363575972,0,0,-7,-2,-1,1,-1,-1
1472135363575972,-2,4,0,3,-2,0,-1,-1
1472135363591001,-3,-5,-14,-2,0,-2,-3,0
1472135363591001,1,0,-7,-8,0,-1,-1,-1
1472135363592003,0,-1,-2,1,-2,0,0,-2
1472135363592003,2,-3,0,-3,0,1,-1,-2
1472135363613053,1,0,3,-4,-4,-1,-1,1
1472135363613053,2,-1,2,2,-2,-3,-2,1
1472135363615025,3,5,2,3,-2,0,-3,-4
1472135363615025,-2,-1,0,-2,-1,-1,-1,0
1472135363627034,2,2,2,0,-2,0,0,-1
1472135363627034,-1,1,2,-1,-1,0,-3,-4
1472135363636042,-4,-3,-2,-3,0,1,1,-1
1472135363636042,-3,1,3,2,0,-2,-1,1
1472135363651062,1,0,6,4,0,-1,1,-1
1472135363651062,-3,-6,-6,-4,-1,1,-1,0
1472135363652057,-2,-5,-6,2,0,-1,-1,-1
1472135363652057,1,0,1,-3,-1,-2,-1,0
1472135363673596,-3,3,1,7,-2,2,0,-1
1472135363673596,2,1,1,1,-3,-2,0,0
1472135363675113,1,-1,4,-3,-3,-4,0,-1
1472135363675113,-4,-2,-2,3,0,0,-2,-1
1472135363686738,0,-1,0,-4,-2,0,1,-1
1472135363686738,-1,-4,0,-2,-1,-1,0,-3
1472135363695745,-4,-1,-1,3,-1,-2,-4,0
1472135363695745,1,-4,-5,-18,0,0,0,-3
1472135363710759,-1,-3,1,2,2,-1,1,0
1472135363710759,0,-2,-6,0,0,0,-2,0
1472135363712761,1,-4,-6,-3,-2,-2,2,0
1472135363712761,-3,1,5,-1,0,0,-1,-3
1472135363732795,1,-3,1,5,-1,-3,-1,-2
1472135363732795,-1,-3,-2,-4,-3,1,-2,0
1472135363734781,-4,3,-5,-4,1,0,0,-1
1472135363734781,-1,0,-1,3,-1,-1,-1,-2
1472135363755817,-4,-1,-1,-5,-1,0,-1,0
1472135363755817,-2,2,3,1,0,0,0,0
1472135363756801,-2,-4,3,2,-4,-2,-3,0
1472135363756801,-2,0,-3,3,-1,-2,0,-2
1472135363770318,1,3,2,-4,-2,-2,-1,0
1472135363770318,0,-2,0,-1,-1,-1,0,-4
1472135363770821,1,1,-2,-2,-1,0,-2,2
1472135363770821,1,-1,-1,4,-1,-1,1,-1
1472135363792370,-2,2,3,2,-2,-2,-2,1
1472135363792370,-3,1,-8,-5,2,-3,0,0
1472135363793356,-1,3,0,1,0,2,-1,-3
1472135363793356,0,-3,-1,0,2,-2,-2,1
1472135363815376,1,-1,-3,-5,2,3,0,-1
1472135363815376,-2,2,2,2,-2,-1,-3,-2
1472135363815376,-3,-6,-4,-2,3,-2,0,-2
1472135363815376,0,0,-1,-3,-3,0,-3,-2
1472135363830390,1,-3,-6,1,-1,0,1,-2
1472135363830390,1,-4,0,-4,-5,-1,-1,-1
1472135363830390,-2,-2,-3,0,-1,-2,-2,-1
1472135363830390,-3,0,-3,2,3,-1,2,0
1472135363852411,-3,0,7,-6,-1,-1,-1,0
1472135363852411,2,1,-6,-3,1,1,2,-4
1472135363853412,1,-3,5,-2,0,-1,0,0
1472135363853412,-1,-3,1,0,-3,-2,-2,1
1472135363874969,-1,0,2,1,-1,0,0,-1
1472135363874969,-3,1,-6,-7,2,-3,0,-1
1472135363875970,-3,-2,-1,3,-2,-3,-2,2
1472135363875970,-1,-2,-1,3,-1,0,0,-1
1472135363889550,-1,-2,-3,1,0,-2,-4,-2
1472135363889550,0,-1,0,-1,0,1,-1,2
1472135363897530,0,1,-2,-2,-5,-2,3,-1
1472135363897530,0,-1,-3,-5,1,0,-1,-3
1472135363912539,1,-2,-5,-1,-2,-1,-1,2
1472135363912539,-2,1,-1,-2,0,-1,-2,-3
1472135363913541,-1,1,-5,3,2,-2,-4,-1
1472135363913541,2,-2,-1,-3,-1,-1,-1,-1
1472135363934561,0,2,1,-4,-1,-1,-1,-3
1472135363934561,-3,-3,10,4,0,-3,2,-1
1472135363935561,-1,2,1,1,-2,0,-1,-3
1472135363935561,-2,2,2,-8,-1,-2,1,0
1472135363949575,0,-4,-3,2,1,0,2,-2
1472135363949575,2,-2,2,-1,-4,-2,-2,2
1472135363957595,0,0,1,-2,-1,-1,-1,0
1472135363957595,-3,-1,-3,4,-3,0,-2,-3
1472135363972628,1,-1,1,1,-1,-2,-2,-1
1472135363972628,-4,1,-4,0,-1,0,0,0
1472135363973614,0,-4,2,-4,-3,1,-1,1
1472135363973614,1,-1,-8,0,-1,-3,-2,2
1472135363994650,-1,-4,-5,-5,-1,-1,-1,1
1472135363994650,2,4,-2,0,1,-1,-2,-1
1472135363995649,-3,-1,0,1,1,-2,-1,-2
1472135363995649,-1,-1,2,-3,0,1,-1,-1
1472135364009663,-3,-2,-4,6,-3,-3,-1,0
1472135364009663,0,-2,4,1,-2,1,-3,1
1472135364017670,0,2,-4,-3,0,0,1,-2
1472135364017670,-3,2,1,-2,0,2,1,-1
1472135364032684,-3,-2,-5,-11,-3,-2,-2,-3
1472135364032684,-3,0,3,1,-1,-3,-2,-1
1472135364033683,-1,0,3,1,0,0,1,-1
1472135364033683,-2,0,-2,0,-2,1,-2,-4
1472135364054702,1,1,2,1,0,-2,-1,-2
1472135364054702,-1,-3,-4,-7,1,-2,-1,1
1472135364055703,4,-2,-3,0,-3,-1,-1,-3
1472135364055703,-2,-4,-1,0,0,0,-3,1
1472135364069735,-1,5,0,1,-1,0,-3,0
1472135364069735,-3,-2,-6,-2,1,0,-1,-1
1472135364077755,-2,-1,-2,3,1,-1,-2,-3
1472135364077755,1,-3,-3,-2,0,-1,-1,-1
1472135364092480,-3,-3,1,4,0,1,0,-1
1472135364092480,-2,-2,-6,-12,-3,-3,0,-4
1472135364093484,-3,-1,4,6,-1,-1,0,0
1472135364093484,-1,1,5,-4,-4,-2,0,0
1472135364115502,2,2,7,1,2,0,-1,0
1472135364115502,1,-1,-3,3,-5,-3,3,0
1472135364115502,-1,2,-1,6,-1,0,-2,0
1472135364115502,-2,2,-1,-2,-2,-3,0,-1
1472135364129516,-2,-1,-4,-5,-2,-2,0,-3
1472135364129516,-3,-3,1,-2,-1,0,-2,-1
1472135364137522,1,1,1,-8,0,-2,0,1
1472135364137522,0,0,3,5,0,-1,-1,-1
1472135364152534,2,4,-2,-5,-3,-2,-1,-4
1472135364152534,1,-3,-9,1,-1,-2,-2,-1
1472135364153535,-1,-2,5,-3,1,-1,-3,2
1472135364153535,-3,-1,-1,0,-1,1,-1,-2
1472135364175058,-2,-6,-2,3,0,-2,-1,-1
1472135364175058,-2,-1,1,4,-1,1,-1,0
1472135364176059,-2,-1,-6,-5,-1,-1,0,0
1472135364176059,3,0,-3,-2,1,-2,-2,0
1472135364189576,-1,-4,-7,-3,-3,-1,-5,1
1472135364189576,-2,1,10,4,0,0,-3,-1
1472135364197596,0,-2,-6,-6,-3,-2,0,-2
1472135364197596,0,-5,-3,-2,0,-2,0,-3
1472135364212598,-2,3,7,4,-4,-1,0,1
1472135364212598,-2,0,-7,-3,-3,1,1,-1
1472135364213599,1,-3,-4,-6,0,1,0,-1
1472135364213599,-4,0,0,-1,-2,-1,-1,-3
1472135364234629,-4,0,4,3,-1,-1,-1,-3
1472135364234629,3,-5,-2,-11,-1,-1,0,0
1472135364235617,-3,-3,-3,5,3,-2,-2,-1
1472135364235617,0,0,-6,-4,-2,-3,-2,0
1472135364249643,-4,-3,3,-2,1,-2,-1,1
1472135364249643,0,2,2,4,-2,-1,1,0
1472135364257651,-4,-2,-4,-11,-2,-1,1,-3
1472135364257651,2,-5,-1,7,-1,-1,-1,-3
1472135364272684,2,-4,-7,-5,0,2,-2,1
1472135364272684,0,1,7,6,1,-1,-1,-3
1472135364273690,0,0,-4,1,-4,-1,-1,-1
1472135364273690,-3,1,5,-4,-1,-1,2,1
1472135364295327,0,0,-3,-4,-1,0,1,-1
1472135364295327,1,2,-2,2,-1,-2,-2,1
1472135364295327,-2,-3,-2,-3,-2,-2,-2,-4
1472135364295327,-2,2,-2,0,-2,1,-2,1
1472135364309362,-1,0,-2,2,-2,-1,-2,-2
1472135364309362,-1,-3,-2,4,1,0,1,0
1472135364317349,-4,1,1,-5,0,0,-3,0
1472135364317349,0,-2,-6,-1,-1,-1,-1,-2
1472135364332362,0,-1,-2,1,-2,-4,0,1
1472135364332362,-2,-2,-2,1,-1,-2,-3,-1
1472135364333361,2,3,-5,1,-3,-1,1,-3
1472135364333361,1,-2,1,-2,-1,0,-1,-4
1472135364355381,-1,-1,-7,-3,2,-2,-3,-2
1472135364355381,-1,2,0,-2,-4,-1,-1,-2
1472135364355381,-2,-2,3,4,0,0,-1,1
1472135364355381,-4,-1,-3,4,-2,-3,-2,-2
1472135364378405,0,2,2,3,-3,1,-1,-2
1472135364378405,3,-1,-2,-6,-1,0,-3,-3
1472135364378906,-1,-1,4,-1,-4,-1,0,0
1472135364378906,3,-1,-2,-5,-4,-1,-1,0
1472135364392490,-1,-1,1,1,-1,-1,3,-1
1472135364392490,-1,-3,-4,0,-2,-1,0,-2
1472135364393479,-1,2,-2,-2,-1,-1,-2,0
1472135364393479,2,-3,-1,2,0,1,1,0
1472135364414498,-4,-4,-1,-3,-2,2,-2,-1
1472135364414498,-2,1,-4,-2,-2,-3,-1,-2
1472135364415497,1,-3,3,0,1,-1,-3,-4
1472135364415497,-4,1,3,1,0,-2,-1,-2
1472135364438518,0,0,-1,-1,-1,-1,-2,1
1472135364438518,-3,3,2,1,-1,0,-2,-1
1472135364438518,-1,-1,-3,-3,-3,-3,0,1
1472135364438518,-3,-2,3,3,-5,-3,-1,2
1472135364452534,-1,2,3,-1,-1,-1,1,-3
1472135364452534,0,-4,-2,-1,0,1,1,-2
1472135364453532,1,0,-1,2,0,-1,-2,-2
1472135364453532,-1,2,-5,-8,0,-4,-1,0
1472135364475094,0,-3,-5,-4,2,0,-2,0
1472135364475094,-1,-3,-4,0,-2,-2,0,2
1472135364476060,0,0,0,3,0,-2,-3,-1
1472135364476060,0,-3,2,-1,-1,-1,-1,0
1472135364498144,0,0,-12,-6,0,-3,0,-4
1472135364498144,-3,-3,5,-3,0,1,-3,1
1472135364499115,0,1,-4,-3,-2,-1,1,-2
1472135364499115,-1,-1,0,-1,-1,0,-3,1
1472135364512163,-2,-1,1,-2,-1,-1,2,-5
1472135364512163,-2,0,5,4,-1,-1,-3,0
1472135364513129,-1,-1,-5,-4,-1,1,-2,-1
1472135364513129,-2,-1,-5,-2,1,0,1,0
1472135364535148,1,-2,7,5,-2,-2,-2,1
1472135364535148,-2,0,-6,-2,-3,-1,2,-1
1472135364536186,-1,-3,0,2,-2,1,0,1
1472135364536186,-2,3,-1,1,1,-2,-4,-1
1472135364557168,-2,0,2,-3,-1,0,1,-1
1472135364557168,1,-1,0,1,0,0,-1,-2
1472135364558170,-2,1,-5,-11,-3,0,-1,-1
1472135364558170,-1,-1,5,8,-2,0,-1,0
1472135364572702,-2,0,-2,0,-2,0,2,-2
1472135364572702,0,-3,0,-2,3,-2,-1,-1
1472135364573700,-1,-2,-3,-2,-4,-1,-3,-1
1472135364573700,1,-1,-1,-1,-1,1,-1,-3
1472135364595223,0,-1,-1,-2,0,-2,-2,0
1472135364595223,0,3,-6,-3,-2,-1,-1,-2
1472135364596224,-3,1,3,-1,0,0,1,-2
1472135364596224,-4,-2,-10,-4,0,0,0,0
1472135364617243,3,-2,1,-4,-1,-1,-3,-1
1472135364617243,-1,-1,-4,-2,-1,-1,-1,-3
1472135364618243,-2,2,2,2,0,-2,-2,-1
1472135364618243,0,-2,-1,-4,-1,1,0,-1
1472135364632272,0,0,-2,-2,-5,-1,1,0
1472135364632272,2,-3,2,3,0,0,1,0
1472135364633258,-3,-4,4,0,-1,0,1,0
1472135364633258,-2,-2,-10,-3,0,-3,2,-3
1472135364655293,-3,-2,-1,-7,1,-1,-1,0
1472135364655293,-3,-3,6,8,-1,-1,-2,-2
1472135364656278,-2,-5,-3,-1,-3,-2,2,0
1472135364656278,-2,-1,1,-4,-1,-1,0,-3
1472135364677833,0,-1,-2,-1,-1,1,0,-1
1472135364677833,-2,3,-4,-5,-1,0,0,-1
1472135364678302,0,-1,0,2,-4,0,-4,-2
1472135364678302,1,1,-4,1,-1,-2,-2,-3
1472135364692383,-5,-4,-1,1,-2,-2,-2,-2
1472135364692383,0,3,-6,-5,-2,0,-2,0
1472135364693351,-5,0,-1,0,-1,-3,0,-2
1472135364693351,-4,-1,7,-2,-3,-2,-2,-2
1472135364715371,2,0,-4,1,0,0,-2,0
1472135364715371,-1,-2,1,2,-1,1,0,-5
1472135364715371,1,-5,-5,0,-1,-2,-1,1
1472135364715371,-3,3,4,-3,-1,-1,-1,0
1472135364737393,-3,1,4,1,-3,-2,-1,-3
1472135364737393,-5,3,-1,0,-2,-1,-2,0
1472135364738393,1,1,4,0,-1,0,0,-1
1472135364738393,3,0,3,1,-1,-2,1,0
1472135364752405,3,-3,-2,2,-2,2,-1,-2
1472135364752405,-3,-1,2,-3,1,-2,-2,-2
1472135364753406,-2,0,-3,3,0,-1,-2,-3
1472135364753406,1,-6,-1,0,-2,-1,-3,0
1472135364775428,-3,2,1,-3,1,0,-4,1
1472135364775428,0,-1,1,-3,-1,-2,2,2
1472135364775929,1,0,-3,2,-2,-2,-1,-3
1472135364775929,-3,-3,-6,0,0,0,-2,1
1472135364797480,-2,1,0,-2,1,-2,-1,-1
1472135364797480,-2,-3,-15,-3,0,-1,-4,-1
1472135364798468,-3,-2,-5,-4,-1,-2,-3,-2
1472135364798468,-3,-1,-2,-2,-3,-2,0,0
1472135364812494,1,-2,1,1,0,1,0,-3
1472135364812494,2,-5,2,-4,-2,-3,-4,-2
1472135364813481,-3,2,-3,3,1,1,1,-2
1472135364813481,1,-4,0,-2,-2,0,-2,-1
1472135364834511,-3,-2,-4,1,-1,-2,-1,0
1472135364834511,-1,2,4,2,0,1,1,-1
1472135364835499,0,-4,-10,-5,-1,1,-2,0
1472135364835499,-1,-1,-3,-3,-1,1,0,-2
1472135364857551,2,-3,5,4,0,0,0,0
1472135364857551,-1,0,-2,-7,-2,1,0,0
1472135364858520,0,-1,3,4,1,-3,-1,-1
1472135364858520,-1,1,-5,0,3,-3,-1,-3
1472135364872605,-2,-5,-5,-6,1,-2,-1,1
1472135364872605,1,1,1,4,-2,-1,-1,-1
1472135364873574,3,-3,-1,-4,-1,1,-1,1
1472135364873574,-2,-2,-1,-1,-2,-1,-2,-1
1472135364894627,1,3,-1,-1,0,-1,-2,-1
1472135364894627,-1,-1,-4,-1,-4,1,1,0
1472135364895639,0,0,1,2,0,0,1,0
1472135364895639,1,-3,1,0,0,0,-1,-1
1472135364917618,0,0,-4,-3,-1,1,0,0
1472135364917618,-2,-4,-3,-4,-1,-1,-3,-1
1472135364918619,-2,2,11,-2,0,1,0,1
1472135364918619,-1,-2,2,3,1,0,-1,-2
1472135364932629,-4,-1,1,-1,0,-3,-5,0
1472135364932629,0,-2,1,-1,-2,-2,0,0
1472135364933632,0,-2,-1,-1,-3,-2,-1,-1
1472135364933632,-1,5,0,-4,-2,-2,-3,-1
1472135364954652,-1,-1,-2,2,1,-1,1,0
1472135364954652,3,0,4,3,1,-2,-1,-2
1472135364955651,0,-2,1,2,0,0,-2,-1
1472135364955651,-3,-1,3,2,-1,-2,-1,1
1472135364977695,0,0,-2,0,-2,-2,0,-1
1472135364977695,-3,-1,-2,-3,-1,-3,-3,-1
1472135364978689,0,-7,-1,0,-3,-3,-1,2
1472135364978689,1,1,4,-1,-2,-2,0,0
1472135364992699,-4,-2,1,0,0,0,0,-1
1472135364992699,1,-1,2,-1,-2,0,-1,-1
1472135364993698,-2,1,-1,-2,1,-1,-4,-1
1472135364993698,-3,-1,-8,-4,0,-1,1,-1
1472135365014731,2,-4,-1,0,1,-1,-2,-1
1472135365014731,-2,-3,-2,-1,-2,0,-1,0
1472135365015719,0,5,1,-5,1,-3,1,-2
1472135365015719,1,-2,-4,1,-3,-4,0,-1
1472135365037738,0,2,3,2,-4,-1,3,-1
1472135365037738,-4,-2,1,2,1,0,-2,0
1472135365038738,1,1,-1,-6,-1,0,-4,-1
1472135365038738,-4,-2,-4,-1,1,-2,-2,-1
1472135365052751,0,-4,-6,-5,-3,-1,-1,-1
1472135365052751,-2,-1,1,1,1,-2,-1,-1
1472135365053752,-4,-1,-8,-8,-2,-2,0,-2
1472135365053752,-2,-2,-2,5,-4,2,-2,-1
1472135365075325,2,-2,-3,1,0,-2,0,-1
1472135365075325,1,-4,4,1,-2,-2,-2,-1
1472135365075791,-2,-2,9,2,0,0,0,2
1472135365075791,-2,0,-2,-4,1,2,-1,-3
1472135365097418,-4,-4,-1,0,-2,0,0,-2
1472135365097418,-3,-1,-3,-3,-1,-2,3,0
1472135365098385,1,0,-3,0,0,-1,-1,-2
1472135365098385,1,-1,-1,-4,-3,-2,0,1
1472135365111397,-1,0,6,2,0,-1,-3,-1
1472135365111397,1,0,0,-3,-2,0,1,0
1472135365120405,1,-5,-8,2,0,-2,-3,-2
1472135365120405,-4,2,3,2,1,0,-1,-2
1472135365135418,2,2,-2,-2,0,-2,-1,-2
1472135365135418,-4,-3,-6,-2,-2,-2,-1,1
1472135365135418,1,-4,-5,-3,0,-1,-3,-3
1472135365135418,1,0,4,2,-3,-3,0,-1
1472135365157440,0,-1,-3,-2,-4,-3,-2,1
1472135365157440,0,-2,4,1,3,-1,-1,-1
1472135365158440,-3,0,-5,-1,2,-1,1,-1
1472135365158440,2,-4,-2,-2,1,1,-4,1
1472135365171959,-4,0,0,2,0,1,-1,2
1472135365171959,2,0,-7,-5,-6,0,-2,-4
1472135365179968,-3,-1,2,9,-2,-3,-2,-2
1472135365179968,2,1,3,-5,0,-1,-1,-1
1472135365194719,-4,2,2,-2,-3,0,2,-2
1472135365194719,0,-2,0,0,0,-2,-2,-3
1472135365195690,0,-2,-3,-2,-4,0,2,0
1472135365195690,2,1,-2,0,-1,-1,-1,-3
1472135365217721,3,-3,-7,-2,0,-1,-1,-1
1472135365217721,0,-2,-8,0,1,1,1,-1
1472135365218709,-5,-1,7,0,-2,-2,-3,1
1472135365218709,-1,-3,-16,-5,-2,0,0,0
1472135365231720,-2,3,0,2,0,-1,-2,-3
1472135365231720,0,-2,-1,5,2,-1,-1,-2
1472135365239743,1,-2,-3,2,0,0,0,-2
1472135365239743,-3,1,4,-1,-3,-1,-1,0
1472135365254745,1,-4,1,1,1,-2,-3,-1
1472135365254745,-2,1,-2,-1,-2,-2,0,1
1472135365255743,0,-1,-5,-3,-2,-1,2,1
1472135365255743,-5,-1,-1,2,1,0,0,0
1472135365277801,1,2,-8,-8,0,-2,-3,-4
1472135365277801,-2,-3,4,0,-1,-1,-2,0
1472135365278767,0,-3,2,-5,-1,-2,-3,-2
1472135365278767,1,-4,-2,0,-4,1,-1,-2
1472135365291817,-2,-4,-1,0,4,-2,0,-1
1472135365291817,-1,-2,-3,-1,-2,0,0,-1
1472135365299854,-1,-2,-3,-4,3,-3,-2,-2
1472135365299854,1,-1,-3,-4,1,-3,1,-1
1472135365314849,2,-3,-2,3,-3,-1,0,1
1472135365314849,-3,1,-2,0,1,-1,0,-3
1472135365315837,-2,1,2,-2,-3,0,1,-2
1472135365315837,-1,0,0,-2,-2,1,-4,0
1472135365337857,-2,0,-2,-2,1,0,0,2
1472135365337857,-2,-2,-5,-3,0,-2,-2,-1
1472135365337857,1,-1,-5,-2,-2,-3,-1,-1
1472135365337857,1,-1,5,4,0,-1,0,-1
1472135365351871,0,-1,3,-3,0,1,0,1
1472135365351871,0,3,3,-2,-2,1,-2,1
1472135365359880,-4,-3,-4,-5,-1,0,-1,-3
1472135365359880,1,-2,-2,0,-3,-4,0,-3
1472135365375397,-2,0,-5,1,-2,0,-2,-1
1472135365375397,1,-2,8,-4,-1,-3,-1,-1
1472135365375898,1,1,6,9,-1,1,0,-1
1472135365375898,-2,-1,-4,-4,4,-2,-1,-1
1472135365397924,-2,-8,-4,-3,-2,-1,0,-2
1472135365397924,3,1,3,4,-1,0,-1,-1
1472135365397924,-1,-4,-4,-2,0,0,-1,0
1472135365397924,-1,-2,-1,1,0,-1,1,-3
1472135365411937,0,2,2,-3,-3,0,-2,1
1472135365411937,-2,0,1,3,-1,-1,-1,-4
1472135365419976,1,1,0,-4,-1,0,-1,0
1472135365419976,-4,-3,-5,-4,0,-1,-1,-3
1472135365434958,-1,1,0,-5,-1,-1,-3,-4
1472135365434958,-5,-2,-4,5,2,-1,0,3
1472135365435958,-2,4,-2,-1,0,-1,-1,-1
1472135365435958,2,-1,2,3,-2,-1,-1,0
1472135365457977,-2,2,0,0,-3,-1,0,-1
1472135365457977,-2,-2,0,-2,1,1,-2,-2
1472135365457977,0,-1,-2,-1,-4,-1,-4,-3
1472135365457977,2,2,-13,0,0,-1,-1,0
1472135365471997,-2,0,2,0,-2,-1,0,-2
1472135365471997,1,-2,-1,-2,-2,-2,-1,-1
1472135365480501,-3,0,0,1,-4,-1,0,1
1472135365480501,-1,-1,0,-3,-1,0,-2,0
1472135365494703,-3,-2,-2,-2,-2,0,2,-1
1472135365494703,-1,0,0,-1,-1,-3,0,-2
1472135365495689,2,0,0,-4,1,-3,-2,0
1472135365495689,-2,2,4,-1,-3,-2,-1,1
1472135365517709,-3,0,-4,2,0,1,-2,-2
1472135365517709,-3,1,-2,-8,0,0,-1,0
1472135365518708,-3,1,2,7,0,-1,0,-1
1472135365518708,-1,-3,0,-2,-1,0,0,1
1472135365540743,1,-2,2,-3,-5,-4,0,-2
1472135365540743,0,-2,-8,-7,-2,-1,-3,-2
1472135365541731,-4,-2,-4,-1,-1,-1,0,0
1472135365541731,-3,-2,-1,3,-3,-2,0,1
1472135365554741,-2,-1,0,0,2,-2,-1,-1
1472135365554741,0,0,1,-3,-4,-2,-3,-1
1472135365555742,0,-1,0,0,0,-1,-1,0
1472135365555742,-1,-2,4,0,2,-2,1,-1
1472135365577767,-1,-5,-6,2,1,1,-2,-1
1472135365577767,2,0,-1,0,0,-2,0,-2
1472135365578267,-3,-1,-23,-4,-2,0,-1,-2
1472135365578267,2,0,4,-1,-1,-2,-1,-3
1472135365600223,-1,2,1,-1,0,-1,-1,2
1472135365600223,0,-1,5,1,0,0,-1,-5
1472135365601223,-1,-3,4,-3,-2,-1,0,-1
1472135365601223,2,0,-3,6,0,1,0,-2
1472135365615251,0,1,0,1,0,0,-4,-1
1472135365615251,-3,-1,-8,-6,-2,-1,0,2
1472135365616237,-1,-1,-4,-3,0,-6,0,-2
1472135365616237,-2,0,5,-5,-3,-3,-1,-1
1472135365637256,-1,-2,-4,4,-3,0,-1,-2
1472135365637256,1,1,-7,0,-1,-1,-1,-2
1472135365638257,0,-3,1,-3,-1,0,-3,-2
1472135365638257,0,-1,-1,-3,1,0,3,-2
1472135365660279,-2,-4,-2,0,1,1,0,-1
1472135365660279,-1,-2,-1,-4,-3,-2,0,1
1472135365661278,-2,1,4,-1,-1,-1,-2,-1
1472135365661278,-1,1,-1,1,1,0,-1,0
1472135365675334,-1,0,4,-8,0,-4,0,-1
1472135365675334,-4,-6,-12,0,-2,1,-2,0
1472135365675829,0,2,2,-1,0,-1,-2,-2
1472135365675829,-5,-2,8,-3,-1,1,-5,-1
1472135365697946,-1,-2,-5,3,0,-3,-1,-1
1472135365697946,1,0,2,4,3,-1,1,2
1472135365697946,-1,-4,-4,-5,-3,0,-2,-2
1472135365697946,-2,-5,-4,-7,-2,-1,1,-1
1472135365719999,0,0,-6,-6,-3,0,-1,-2
1472135365719999,-1,-2,4,6,-2,-2,-2,1
1472135365720967,1,1,0,-1,-1,0,-1,1
1472135365720967,1,0,-2,1,1,0,-1,-1
1472135365735010,-3,-3,-1,-4,-1,-1,2,0
1472135365735010,-2,1,0,-2,0,0,-2,0
1472135365735980,0,-3,-5,-1,2,-3,-1,0
1472135365735980,-3,0,-1,-1,-3,-2,-3,-1
1472135365758000,0,0,-2,-1,-1,-3,-3,2
1472135365758000,-3,-2,3,-2,0,-1,-2,-2
1472135365758000,-4,-1,-1,1,0,-1,1,-1
1472135365758000,0,2,-6,-5,0,0,-2,0
1472135365780057,-2,-2,-1,1,-2,0,-1,-1
1472135365780057,-1,-1,-1,-3,0,-2,-1,-2
1472135365781026,-1,0,7,0,-2,-3,-1,-1
1472135365781026,0,-2,-3,-4,-4,0,-1,1
1472135365795394,-2,-2,4,9,3,1,-1,-1
1472135365795394,0,-2,-2,-1,-2,-2,-1,-1
1472135365795394,0,-3,0,0,1,-2,1,-1
1472135365795394,1,-2,-1,-3,-2,-1,1,-3
1472135365817412,-1,0,-1,-2,-4,-2,-3,-1
1472135365817412,0,-4,1,-2,0,0,0,-1
1472135365818415,1,2,3,1,-2,-3,-2,0
1472135365818415,-1,-3,-5,2,-1,-1,0,-2
1472135365840439,0,2,1,-2,-3,-1,-1,-2
1472135365840439,-2,2,-1,3,-1,1,-1,-1
1472135365840439,1,-4,-5,-4,-2,-1,0,0
1472135365840439,-3,3,8,2,-2,-2,-1,-2
1472135365855447,2,-2,0,-3,-2,-1,0,-2
1472135365855447,0,4,-2,-3,-1,-1,-1,-2
1472135365855447,-1,2,-2,-1,-2,0,-2,-3
1472135365855447,-5,-1,2,4,-2,-1,-2,0
1472135365877985,-2,0,1,-2,1,-1,-1,2
1472135365877985,-1,4,4,-1,-1,-1,0,-3
1472135365878486,1,2,2,0,-2,2,-1,-3
1472135365878486,0,-4,-12,-3,1,-2,-1,-1
1472135365900078,-2,-2,1,1,-2,-3,0,-2
1472135365900078,0,0,4,1,-3,-1,-3,-1
1472135365901078,-2,2,-2,0,-1,0,2,-2
1472135365901078,3,-3,0,0,-1,-2,-1,-3
1472135365915105,2,3,-8,-3,-2,-1,-3,0
1472135365915105,1,-5,4,1,2,-3,-1,0
1472135365916111,-1,-1,-5,-1,-2,1,-2,0
1472135365916111,-6,0,0,-2,0,0,-1,-3
1472135365937110,-2,-2,-2,-3,-1,-1,1,-3
1472135365937110,-3,0,3,0,-1,0,-1,-2
1472135365938112,3,0,1,0,0,-1,-1,-1
1472135365938112,1,0,6,1,-4,-1,-2,1
1472135365960145,0,0,6,2,-2,1,-3,0
1472135365960145,1,1,-3,-2,-3,-1,0,1
1472135365961134,-2,-6,0,-3,2,-1,-1,-2
1472135365961134,0,2,1,5,-1,-3,0,-3
1472135365983659,1,-1,1,0,1,-1,1,-2
1472135365983659,1,-2,-4,-1,-5,-1,1,2
1472135365983659,-3,0,0,-1,-2,2,-1,-1
1472135365983659,-1,-1,-1,-4,1,0,1,1
1472135365997673,-1,2,-1,-1,-1,-2,-1,-1
1472135365997673,-1,-1,-5,-3,-2,0,-7,0
1472135365998675,0,-2,1,2,-2,-1,1,0
1472135365998675,0,-1,-3,0,-1,1,-2,1
1472135366019693,-1,-4,-4,1,-1,-1,0,-3
1472135366019693,-3,-2,4,-7,-2,-3,0,-3
1472135366020694,-1,-1,-3,2,-2,0,-1,1
1472135366020694,3,0,-4,0,0,-2,-3,-2
1472135366034705,-2,4,5,-2,2,-2,1,2
1472135366034705,0,-3,-5,-1,-2,0,-1,1
1472135366042713,-1,4,7,0,0,-1,-3,0
1472135366042713,-4,1,-2,-3,-1,-1,-2,-2
1472135366057726,-2,-5,2,0,0,-2,-2,0
1472135366057726,-2,-2,-5,1,-2,-2,0,-1
1472135366058727,0,-1,-1,1,0,-4,1,-1
1472135366058727,-1,-3,-1,-2,-1,0,-1,0
1472135366080251,1,0,0,-3,-3,-2,0,-3
1472135366080251,-1,-1,-1,0,0,-2,-3,0
1472135366081250,-1,-2,-5,-2,1,-1,-2,-1
1472135366081250,-1,0,-3,-1,-4,-1,-2,-1
1472135366095314,-3,-7,-4,-2,1,1,0,0
1472135366095314,2,-3,1,1,1,0,-1,-2
1472135366095314,1,1,-4,-7,0,-1,0,0
1472135366095314,-2,1,1,6,-1,-2,-1,0
1472135366117341,-1,1,-3,-3,-2,-2,-1,-1
1472135366117341,-2,-1,-7,-2,-2,2,1,-2
1472135366118328,-1,-2,1,-1,0,-2,-1,0
1472135366118328,-4,2,1,-8,-3,-1,-2,-2
1472135366140347,-4,-2,1,6,-2,-2,-1,2
1472135366140347,-3,1,-1,-4,-2,-1,-1,1
1472135366140347,0,0,0,-1,-2,0,1,-1
1472135366140347,-1,1,0,-1,0,-3,-2,0
1472135366155361,-1,4,0,0,-1,1,-1,-3
1472135366155361,-3,-3,5,2,1,-1,0,-2
1472135366155361,-1,0,-2,-1,1,0,-3,1
1472135366155361,0,-1,-1,-1,1,-1,1,1
1472135366177884,-1,1,-4,-1,-3,-1,-1,1
1472135366177884,-5,0,-2,-2,-1,-1,0,-1
1472135366178385,-2,1,4,1,0,-4,3,0
1472135366178385,0,-2,-9,0,0,0,0,0
1472135366199908,1,1,0,-2,-1,0,-1,1
1472135366199908,0,-2,-4,1,0,-3,-1,-3
1472135366200909,-1,-2,-4,-1,-1,-1,-2,-2
1472135366200909,-3,-5,-6,0,2,0,-2,-1
1472135366213923,0,0,1,-4,-4,0,-1,-4
1472135366213923,-1,-2,1,-2,-3,-1,0,-1
1472135366222929,-3,-4,3,-3,-2,-2,-2,-3
1472135366222929,-1,0,3,0,-3,0,2,-1
1472135366237942,1,1,3,0,-2,0,-2,-2
1472135366237942,-2,0,4,4,-1,-1,1,-2
1472135366237942,1,5,0,4,0,-2,0,-1
1472135366237942,0,1,2,-2,-2,-4,-3,-2
1472135366259962,-3,0,-4,-3,0,-3,-3,0
1472135366259962,0,0,-5,-5,-2,-1,0,0
1472135366260962,1,-4,-2,4,0,-2,0,-1
1472135366260962,0,-1,-1,-3,-1,0,-1,-3
1472135366274481,-1,1,-3,-2,-3,0,1,-1
1472135366274481,0,0,-3,1,3,-2,-2,0
1472135366283018,-2,-4,-2,-4,-3,-1,-2,-2
1472135366283018,-2,-2,-2,3,1,1,0,1
1472135366298032,-2,-5,-8,-6,0,-2,-1,0
1472135366298032,-2,3,4,5,2,0,-1,-3
1472135366298032,-2,-2,-10,2,0,-3,-1,2
1472135366298032,-1,-4,-1,-3,1,1,1,-1
1472135366320053,-2,-3,3,2,-2,-1,-1,-1
1472135366320053,1,-1,-3,-3,-2,0,-1,1
1472135366321055,-2,-1,-2,0,-1,-1,-3,-2
1472135366321055,0,0,4,-1,-4,-1,-1,1
1472135366334064,-1,-2,3,2,-2,-2,-1,-1
1472135366334064,-1,-2,-6,-3,-1,0,1,-1
1472135366342071,-2,-3,-3,-3,0,-3,-2,-1
1472135366342071,2,0,2,-3,-1,-2,-1,-1
1472135366357086,-3,-4,-1,0,0,-2,0,-1
1472135366357086,2,-1,0,-4,-3,3,0,0
1472135366358088,-1,-4,-3,5,-2,-1,2,-3
1472135366358088,-1,0,-2,-2,0,-3,-2,0
1472135366380130,0,1,-5,0,1,0,-1,-2
1472135366380130,-1,-2,0,0,-2,-2,-2,-4
1472135366381132,-1,-1,6,-4,-1,1,-2,0
1472135366381132,-1,-3,1,2,-1,-2,-2,-1
1472135366394145,-2,-1,-2,-1,0,0,-2,-1
1472135366394145,-3,2,-8,2,-2,-3,-1,-2
1472135366402153,2,0,3,-1,-3,1,-2,0
1472135366402153,1,2,0,-1,-1,-1,3,-1
1472135366417167,0,1,2,-3,-1,0,-4,-1
1472135366417167,-1,-2,0,0,-2,-2,0,-2
1472135366418167,-1,-2,-1,1,-1,-2,-2,-1
1472135366418167,-3,0,-2,-3,-1,0,0,-1
1472135366440188,0,-1,-3,-6,-1,0,-1,-3
1472135366440188,-1,-1,0,-1,2,0,1,1
1472135366441188,-3,-2,-6,-2,-1,0,-1,-1
1472135366441188,-3,-2,-6,3,1,0,-2,0
1472135366454201,1,2,0,1,0,1,-1,0
1472135366454201,-2,-3,-3,-3,2,-2,-2,1
1472135366462206,-2,1,0,-1,-2,-1,0,-2
1472135366462206,-2,-2,-3,-2,-4,1,0,-4
1472135366477726,-2,0,1,4,0,-2,-4,-3
1472135366477726,1,-2,-4,1,-2,-2,-2,-2
1472135366478726,-1,-4,-3,-6,-1,-3,-2,1
1472135366478726,1,1,7,2,-1,0,-2,-3
1472135366500246,4,0,2,0,-1,-1,0,-2
1472135366500246,-2,-1,3,-2,0,1,-2,-3
1472135366500246,-1,-2,1,-1,0,0,-3,-2
1472135366500246,-1,-4,-1,-6,-1,-2,1,0
1472135366514259,-2,-1,1,2,-1,-2,1,-1
1472135366514259,0,0,4,-1,0,0,-3,1
1472135366522266,-3,2,-1,-5,-1,1,1,-3
1472135366522266,-4,-2,0,0,-1,-1,-2,-1
1472135366537280,-1,2,-4,-3,0,-2,1,1
1472135366537280,2,-1,-5,-1,-1,0,1,2
1472135366538281,-2,0,-7,-3,0,0,-2,-2
1472135366538281,0,-4,4,0,-2,-1,-4,-1
1472135366560313,-1,0,-4,-2,-1,-2,1,2
1472135366560313,-2,0,-4,-3,-2,0,-1,-1
1472135366560313,2,1,5,4,-3,-4,-1,-1
1472135366560313,1,1,-2,-3,1,-2,1,-1
1472135366583406,-3,-2,-5,-4,-3,-2,0,1
1472135366583406,-1,-1,5,0,1,-1,-1,-3
1472135366583406,1,-3,-2,-3,-1,2,0,-1
1472135366583406,-2,3,-1,-1,1,-1,-1,0
1472135366597388,2,-3,5,5,-3,-1,-2,-2
1472135366597388,2,-2,0,-2,-2,0,1,-2
1472135366598394,0,-1,1,0,-1,0,0,-1
1472135366598394,-2,-3,-2,-3,-4,0,0,0
1472135366620408,-2,-2,0,1,-1,-3,-4,-3
1472135366620408,-1,2,-1,-3,-1,-1,-1,-1
1472135366620408,-1,-2,4,-1,1,-1,0,1
1472135366620408,0,0,0,1,-3,-4,-2,-1
1472135366643429,1,-2,-7,-4,0,3,0,-4
1472135366643429,0,0,3,2,-1,-2,-1,-2
1472135366643429,3,1,2,-1,-1,1,-1,-2
1472135366643429,-1,-1,-9,-1,-1,-4,-1,-1
1472135366657444,1,-4,-13,-3,0,-2,-1,0
1472135366657444,-5,0,-1,1,0,0,-1,-3
1472135366658442,-2,2,5,-2,-2,-2,0,2
1472135366658442,3,-4,-6,-2,-1,-1,-2,-2
1472135366680500,2,3,9,-5,-1,-1,0,-3
1472135366680500,-1,-4,-9,1,0,-2,0,2
1472135366681001,-3,-1,-3,-3,2,-1,0,1
1472135366681001,-3,1,4,0,-2,0,-1,-1
1472135366703559,-3,-3,-11,-2,-1,-1,0,0
1472135366703559,0,2,4,-6,-3,0,-1,-1
1472135366703559,-3,-3,0,7,-1,-1,0,-2
1472135366703559,-1,-1,-5,-3,1,-2,1,-1
1472135366717568,-4,-4,1,-2,2,-1,2,0
1472135366717568,-1,-2,1,1,0,0,-2,0
1472135366718570,1,1,-5,-6,-2,0,-1,-2
1472135366718570,3,0,1,0,-4,-1,-1,-2
1472135366739603,2,-1,3,1,-1,-3,0,0
1472135366739603,0,-1,-1,-4,-1,-3,0,-1
1472135366740622,-2,-1,-1,-5,-2,-2,-2,-1
1472135366740622,-3,-3,0,6,-1,1,-3,-2
1472135366763610,1,-3,1,-6,-5,-1,0,-1
1472135366763610,2,-1,-2,1,0,-1,-2,-3
1472135366763610,-1,-2,0,1,-1,0,-1,-1
1472135366763610,-1,-1,0,-5,2,-1,0,-2
1472135366777683,-3,1,4,2,3,1,-2,1
1472135366777683,1,-3,-5,-1,-3,-3,0,-1
1472135366778659,-2,-1,-4,-1,2,-1,-2,2
1472135366778659,-1,2,1,-2,-2,1,0,3
1472135366800611,-1,-1,1,-1,-3,1,-1,0
1472135366800611,0,-3,-4,-8,-1,-1,-1,-2
1472135366800611,2,-3,2,8,0,-2,-1,-3
1472135366800611,1,-2,2,1,-2,0,-3,-1
1472135366823632,-2,1,1,0,0,0,-1,-2
1472135366823632,-3,0,0,-3,0,1,-1,-2
1472135366823632,1,-2,-2,-5,-2,0,1,2
1472135366823632,-2,-1,-4,2,1,-3,-3,-3
1472135366837647,-1,-5,-3,2,1,-1,-1,1
1472135366837647,-1,-6,-2,-1,-1,-1,1,-2
1472135366838647,-3,-4,2,-1,-2,-1,1,-3
1472135366838647,-2,-3,-4,-3,0,-1,1,0
1472135366859666,-1,1,-1,-2,-2,-2,0,-1
1472135366859666,-3,0,3,6,2,-2,-2,1
1472135366860668,-5,-3,-4,-3,-1,-1,-1,-2
1472135366860668,2,-1,-3,-1,0,1,-1,-1
1472135366882739,-2,-2,0,-1,0,0,-1,-2
1472135366882739,-2,-3,-2,2,-2,0,-1,0
1472135366883739,1,1,-1,-2,0,-2,0,3
1472135366883739,-4,0,0,1,-1,0,-1,-2
1472135366897768,-2,1,3,0,0,-1,-2,-4
1472135366897768,3,3,-3,-2,1,0,0,-2
1472135366898753,-3,-2,0,7,-2,-2,0,0
1472135366898753,-2,1,4,-3,0,-2,1,0
1472135366919786,-1,-2,-3,-2,-1,-1,-3,0
1472135366919786,-1,1,-3,-6,-3,0,0,-3
1472135366920773,0,0,-8,0,2,0,-2,-2
1472135366920773,-2,-4,0,0,-2,-2,3,-1
1472135366942792,-3,-3,-2,-1,0,-3,-1,-3
1472135366942792,-5,1,-1,-1,0,-1,-2,0
1472135366942792,0,0,3,-3,-3,-1,-3,-3
1472135366942792,-3,-1,-7,-4,-2,-1,0,2
1472135366957806,-1,0,-1,2,-3,-2,0,2
1472135366957806,0,-4,-4,-6,-4,-1,2,0
1472135366958808,-2,-1,-2,0,-3,-3,-1,-3
1472135366958808,3,2,-4,0,1,0,-2,0
1472135366980366,1,0,3,0,-5,-1,-1,1
1472135366980366,0,-1,-1,4,0,-3,-4,-2
1472135366980864,0,-3,-4,-7,-1,-1,1,-1
1472135366980864,-4,-4,6,4,0,-1,-3,0
1472135367002947,0,0,-5,-2,-4,-1,0,-2
1472135367002947,2,0,0,-2,0,1,-2,1
1472135367002947,0,4,-8,-4,-1,0,-1,-1
1472135367002947,0,-3,-2,0,-1,1,0,-1
1472135367017959,-5,0,11,-1,0,-3,-1,0
1472135367017959,-5,1,2,2,-1,-3,-2,-2
1472135367017959,-1,2,-4,-3,0,0,-1,0
1472135367017959,-1,2,-4,1,-2,-2,-2,-3
1472135367039963,0,1,4,2,0,2,-1,-1
1472135367039963,-3,0,1,0,-2,-2,2,2
1472135367040951,-6,0,-1,2,-1,0,-2,-1
1472135367040951,-2,-4,0,-1,-2,-1,-3,-3
1472135367062970,4,0,-8,1,1,-3,1,-2
1472135367062970,1,0,-3,-3,-1,1,-2,0
1472135367062970,-1,1,-2,-1,-1,-3,0,-1
1472135367062970,3,-2,0,-1,-2,-1,0,3
1472135367077990,-1,-4,0,-1,4,0,1,-2
1472135367077990,-1,-1,-9,1,-6,0,-4,0
1472135367078492,-4,-2,2,-1,0,-1,-1,0
1472135367078492,0,1,-6,-3,-1,-3,-1,-2
1472135367100027,-1,-1,2,-2,-3,0,-1,1
1472135367100027,4,-2,7,1,1,-1,3,-1
1472135367101015,-1,-3,1,1,-3,1,-1,-1
1472135367101015,1,2,3,-1,-1,-3,1,-2
1472135367123035,-3,0,-3,0,-1,0,-3,-1
1472135367123035,-4,-1,-1,0,0,0,-4,-3
1472135367123035,2,-2,-3,-3,-1,-1,1,0
1472135367123035,-4,-3,6,3,0,-1,1,0
1472135367137047,-2,-3,-1,0,-3,0,-1,2
1472135367137047,-3,4,4,-6,-1,-1,-2,-5
1472135367145090,-2,-1,3,1,-2,0,-3,0
1472135367145090,0,-1,-8,-3,0,-2,1,-1
1472135367160103,0,4,-5,-3,-3,0,1,-1
1472135367160103,3,-4,-4,0,0,0,-2,1
1472135367161069,2,-3,-1,0,0,0,1,-3
1472135367161069,-3,-2,3,-1,-1,2,1,-1
1472135367182661,2,-2,-4,1,-3,1,1,2
1472135367182661,-2,2,-9,5,-2,-3,0,0
1472135367183129,1,1,2,-2,-1,-2,-4,-1
1472135367183129,-1,-3,1,-1,1,1,-3,-1
1472135367197148,0,3,1,-2,-3,0,-1,-2
1472135367197148,-1,2,3,-2,0,-1,1,-1
1472135367205164,1,-1,-1,1,-1,-3,-1,3
1472135367205164,1,-1,-4,-3,0,0,-4,0
1472135367220198,-4,-2,-1,-2,-2,0,-1,1
1472135367220198,-2,-7,-2,2,-1,0,-1,0
1472135367221168,-4,0,-2,0,-2,0,-1,-1
1472135367221168,1,3,1,4,-3,-2,0,-2
1472135367242219,1,-2,-6,-5,2,0,1,-1
1472135367242219,1,1,-6,-2,-3,-3,-2,-1
1472135367243187,-2,2,2,0,1,-3,1,-2
1472135367243187,-3,-7,-9,-4,0,-1,-1,-2
1472135367257200,-2,-4,-1,2,0,-3,0,-1
1472135367257200,-4,-1,2,4,-3,-1,-1,2
1472135367265208,0,-4,3,-2,-2,1,0,-2
1472135367265208,-2,-1,-5,1,0,0,-2,0
1472135367280228,1,-3,-6,-2,0,-2,-2,-2
1472135367280228,-1,-3,0,-2,-2,-1,1,1
1472135367281229,1,-2,2,-2,0,-1,-3,1
1472135367281229,2,1,4,-3,0,1,-2,0
1472135367302286,-4,-2,0,-1,1,-1,0,-1
1472135367302286,3,-1,2,1,-2,1,0,-1
1472135367303284,-2,-2,-4,-1,1,-2,0,0
1472135367303284,-5,4,0,-2,-2,0,0,0
1472135367325303,-1,-2,-7,1,-1,-1,0,-3
1472135367325303,0,2,4,0,-2,-1,1,-3
1472135367326306,0,-2,0,0,-1,-1,2,-2
1472135367326306,0,1,-2,-1,1,-3,-1,-2
1472135367340330,3,2,1,2,0,1,-2,-1
1472135367340330,-3,-2,6,-4,3,-2,-1,0
1472135367340330,0,-3,-9,0,-3,0,-1,-6
1472135367340330,-1,-3,3,3,0,0,0,0
1472135367362339,-2,1,4,0,-1,0,-3,-2
1472135367362339,-1,1,-8,-8,0,-1,0,0
1472135367363339,-1,-1,7,9,-1,-1,-1,0
1472135367363339,0,-1,-6,-4,-2,-1,0,-2
1472135367377354,1,0,-3,-2,-2,0,-2,-3
1472135367377354,0,0,-1,2,1,-2,-3,-1
1472135367384981,-1,-1,0,-5,1,-2,0,-1
1472135367384981,-1,-1,1,1,-2,-3,0,-3
1472135367399963,-2,-3,-4,-3,-1,0,-2,-2
1472135367399963,-1,-3,-3,-5,0,-2,1,-2
1472135367400964,0,3,-7,-4,-2,-1,-1,-3
1472135367400964,0,-4,2,0,-2,-1,-1,0
1472135367422984,-4,1,-1,-3,-1,-2,1,-2
1472135367422984,-1,-1,-7,4,2,-1,-1,0
1472135367422984,-3,1,-3,1,-1,0,-1,1
1472135367422984,1,-3,-3,-4,2,-2,1,-1
1472135367437030,0,-1,-3,-3,-2,-1,-1,0
1472135367437030,2,0,10,0,-1,-1,-3,-3
1472135367445037,-1,1,0,-1,-1,-3,0,0
1472135367445037,0,2,1,-1,-1,1,-3,-1
1472135367460049,1,1,3,0,-2,-1,-2,-1
1472135367460049,1,0,-1,1,-3,0,-1,-3
1472135367461018,1,2,0,1,-3,-1,0,0
1472135367461018,-4,2,0,-2,-2,-1,-1,0
1472135367483043,0,-3,-4,6,1,-1,1,0
1472135367483043,-6,2,-1,-3,0,0,-3,2
1472135367483544,-4,-4,-2,-2,-2,4,-1,-1
1472135367483544,0,-1,-4,-2,0,0,0,0
1472135367496563,0,0,-3,1,-2,-3,-1,-2
1472135367496563,-1,-1,6,2,-4,0,0,-1
1472135367505569,-2,2,-2,-1,0,0,-1,2
1472135367505569,-3,0,0,-1,-3,-2,-2,-2
1472135367520581,-1,-2,-2,-6,-2,-1,-2,-2
1472135367520581,-1,1,-3,-3,1,0,-3,0
1472135367520581,-2,-4,-3,0,-1,-1,-1,-2
1472135367520581,1,1,-2,4,-3,1,-2,0
1472135367542603,-2,2,6,0,-2,-1,0,2
1472135367542603,1,0,-10,-3,1,0,-1,-4
1472135367543604,1,-1,0,-1,-3,-1,-3,-2
1472135367543604,1,-3,0,-3,1,-3,1,2
1472135367565623,-2,-2,2,2,-2,-2,-2,-2
1472135367565623,0,0,0,0,-2,-2,1,-1
1472135367566625,0,-6,-4,0,2,-2,-2,1
1472135367566625,2,1,-2,-6,-4,-1,-2,-1
1472135367580143,-2,-4,0,-1,1,1,-1,1
1472135367580143,0,-4,-2,0,-2,-2,-1,0
1472135367581145,-1,1,-3,-2,1,1,-1,-2
1472135367581145,-4,0,2,3,1,0,-1,0
1472135367602666,3,-3,-3,-2,2,-1,-1,-1
1472135367602666,0,-3,1,0,2,-2,0,-1
1472135367603672,0,0,1,-3,-1,-2,1,1
1472135367603672,0,-1,-1,1,0,-1,-1,-2
1472135367625689,-2,0,1,4,2,-1,2,-1
1472135367625689,-2,-3,-12,-2,-3,-2,0,-1
1472135367626690,2,-5,-2,-3,-2,-2,-2,0
1472135367626690,-2,-3,2,2,0,0,0,-4
1472135367639701,-5,-1,-6,-4,-3,0,-3,1
1472135367639701,3,1,-2,-1,-1,3,1,-2
1472135367640702,-3,0,8,3,1,0,1,-1
1472135367640702,1,-2,4,0,0,0,-3,1
1472135367662720,-3,0,-2,-2,1,-1,1,0
1472135367662720,-4,-2,2,-2,0,-2,0,0
1472135367663721,-1,1,1,0,-1,-2,-1,0
1472135367663721,2,1,-4,-2,-1,-1,0,0
1472135367685748,-4,-1,-1,-2,-1,-2,1,-1
1472135367685748,-1,0,2,-2,-3,-2,-1,1
1472135367686749,3,-2,-1,-2,0,-2,-2,-3
1472135367686749,-2,-3,-2,1,-1,-4,1,-2
1472135367699762,3,1,0,2,-1,-1,-4,-2
1472135367699762,-3,1,-5,2,-1,-1,1,1
1472135367700762,0,-2,-4,-2,-2,-1,-2,0
1472135367700762,-2,-2,0,0,-3,-2,-2,-3
1472135367722784,-1,-3,-2,-6,-1,-1,-3,-1
1472135367722784,-4,-4,6,2,0,-1,-1,1
1472135367722784,-1,1,-1,-1,0,1,-1,0
1472135367722784,-1,-3,-8,-3,0,0,-4,-1
1472135367745803,1,1,0,-2,-1,-1,-3,-2
1472135367745803,-1,-2,-2,-1,0,-3,2,0
1472135367746804,-2,-3,0,1,-2,-3,0,0
1472135367746804,-2,-5,1,-4,-2,0,-2,-1
1472135367759815,-3,-1,-15,0,2,-2,1,0
1472135367759815,2,0,-2,-1,-2,1,-3,-5
1472135367760816,-5,2,0,-4,0,-2,0,-2
1472135367760816,1,3,1,2,0,-1,1,1
1472135367782843,-4,0,1,1,-1,2,-3,-1
1472135367782843,0,-2,-2,0,-2,-2,0,-2
1472135367783343,-3,0,-3,1,0,0,1,1
1472135367783343,0,0,-1,-1,-2,-1,-2,0
1472135367805868,0,1,5,-4,-3,1,-1,-1
1472135367805868,-3,-3,2,5,-4,-2,-5,-1
1472135367806870,-1,2,1,-2,2,-2,-1,-4
1472135367806870,1,-2,-4,0,-2,-1,-1,-1
1472135367819880,-5,1,2,-1,-1,0,1,-1
1472135367819880,1,-3,-6,-2,-2,-1,-2,4
1472135367820883,-2,-1,-3,-1,-2,-1,-3,0
1472135367820883,-2,2,-1,1,2,-1,0,-2
1472135367842901,1,-2,-1,-2,-1,-1,-1,-4
1472135367842901,-2,-1,-15,-2,1,-2,1,-1
1472135367842901,-1,-2,2,2,-2,-2,-2,-3
1472135367842901,-2,-1,-4,2,-1,1,-1,1
1472135367865923,0,-3,0,-1,-3,-2,-3,0
1472135367865923,-2,0,6,-1,-1,-1,1,-3
1472135367866925,0,-5,0,-1,-2,0,-1,-2
1472135367866925,-1,-1,1,-5,-1,-1,1,1
1472135367880441,4,1,-4,-4,-5,-1,0,-1
1472135367880441,-3,0,6,0,1,2,-4,-3
1472135367880943,-1,-2,-2,-3,-1,3,-1,-1
1472135367880943,-1,0,-5,1,-1,-1,1,-2
1472135367902516,-1,-3,-1,2,-4,-3,-1,-2
1472135367902516,-1,-1,3,-2,0,-4,0,-1
1472135367903517,-2,-1,3,0,-3,0,-1,0
1472135367903517,-3,-4,0,-1,0,-3,-3,1
1472135367925537,-1,-4,2,1,1,0,0,1
1472135367925537,-1,-2,-2,-1,0,-1,-1,-2
1472135367926538,0,-1,-2,0,-2,-2,1,-1
1472135367926538,-1,-2,-8,-3,-1,-2,-1,1
1472135367940548,0,0,0,2,4,-1,1,-2
1472135367940548,2,3,-5,-4,-2,1,-3,0
1472135367940548,-1,2,-2,0,-1,0,-1,-4
1472135367940548,-1,0,0,-3,-2,-1,-1,-4
1472135367962568,-2,0,-3,-2,-2,-3,-1,1
1472135367962568,-3,0,3,-2,0,-1,-2,0
1472135367963569,0,1,-3,-1,-2,-2,1,-1
1472135367963569,1,-1,3,4,-1,-1,-2,1
1472135367985647,-1,-3,-1,5,-1,0,-3,-1
1472135367985647,1,-3,-4,-6,-2,1,-2,0
1472135367986634,0,0,2,-3,-2,-1,-4,-2
1472135367986634,0,-1,5,-2,-2,1,2,-2
1472135367999648,1,2,4,-1,0,-4,0,-3
1472135367999648,0,-2,-2,0,-3,-1,0,-2
1472135368000646,-1,-2,-4,0,-1,-1,1,1
1472135368000646,-2,0,2,2,-1,0,-2,-2
1472135368022668,0,-1,-3,-2,-1,-1,1,0
1472135368022668,-2,-3,-2,-3,-2,0,1,-2
1472135368023669,0,-2,1,-4,-2,0,-4,1
1472135368023669,-1,2,-2,3,-3,-2,-1,-2
1472135368045701,-2,-3,-5,-4,3,0,-1,-2
1472135368045701,0,2,1,3,0,0,-1,0
1472135368046688,-1,-1,1,0,1,-2,-2,-1
1472135368046688,1,-1,-5,-4,1,0,2,-2
1472135368059712,0,-4,-3,-4,-2,-2,-2,-4
1472135368059712,-3,2,-6,-2,-5,-2,-2,0
1472135368060701,2,-4,6,3,2,-1,-1,-1
1472135368060701,-1,-3,-1,0,0,0,-2,-2
1472135368082773,-2,2,1,2,-3,1,-1,0
1472135368082773,0,-2,0,-5,-2,0,-1,-2
1472135368083741,3,-3,-1,1,-3,0,1,-2
1472135368083741,-2,-1,7,-3,-2,-4,0,-2
1472135368104899,-1,2,-2,-2,-1,0,2,-1
1472135368104899,1,1,-2,0,-1,2,-1,-1
1472135368105899,-2,-1,-3,-2,0,1,-1,-1
1472135368105899,1,-5,-2,-1,-1,-1,-2,0
1472135368118944,-3,1,-7,2,1,0,-3,1
1472135368118944,-3,-2,-6,-5,-4,-4,0,-1
1472135368127921,-1,2,1,0,-2,-1,0,-3
1472135368127921,-2,-1,-2,-2,-3,-3,0,0
1472135368142933,-2,1,0,0,0,-1,-2,1
1472135368142933,0,-1,6,3,-2,0,-1,-1
1472135368142933,-2,-2,-9,-2,-2,-2,2,-1
1472135368142933,-3,1,-3,1,0,1,-2,-2
1472135368164955,1,1,3,-2,-2,-1,-2,-2
1472135368164955,-2,1,3,4,-1,-1,0,-1
1472135368165954,0,-1,-3,-4,-1,-3,-3,2
1472135368165954,-3,1,3,1,-1,1,-1,-3
1472135368179515,2,-3,-3,-1,-3,-2,1,-3
1472135368179515,-2,0,2,-2,-1,-1,0,0
1472135368187524,-2,0,-5,0,-1,1,-1,0
1472135368187524,0,-2,1,1,0,-1,0,-1
1472135368202536,-3,-4,-4,2,-1,-1,-3,0
1472135368202536,-2,-3,-3,0,-1,1,-1,-1
1472135368203537,-3,-2,0,-3,-1,-1,-2,0
1472135368203537,0,2,-3,-5,0,0,-3,1
1472135368225556,-2,2,1,-1,-1,-1,0,-1
1472135368225556,0,1,11,2,-5,-1,-3,-1
1472135368225556,-1,1,-10,-2,-2,-1,1,0
1472135368225556,-1,-4,-2,-1,-1,-1,-2,-1
1472135368239585,-4,-1,2,-4,-1,-1,0,3
1472135368239585,-3,-1,-1,-2,-1,-2,-4,-1
1472135368247594,-2,4,3,3,-2,-2,1,-3
1472135368247594,-2,-3,-2,-2,-2,1,-1,-2
1472135368262622,0,0,6,5,0,-1,1,-1
1472135368262622,0,-2,2,7,-2,-1,-1,2
1472135368263592,0,-6,-8,-4,1,-3,2,-1
1472135368263592,-2,-1,-5,-3,1,1,-2,1
1472135368284621,-1,-3,2,-3,-5,0,-1,-1
1472135368284621,-3,0,-5,-3,0,-1,0,-2
1472135368285621,-1,-3,4,1,-1,-1,-3,0
1472135368285621,0,-2,1,-3,-2,-2,2,1
1472135368299636,-2,0,-1,0,-1,-3,-2,-2
1472135368299636,1,3,1,-2,0,-1,0,0
1472135368307655,-2,0,2,-2,-1,-2,-1,-1
1472135368307655,-2,-2,-2,0,-3,-2,-2,-3
1472135368322655,2,-3,-2,-2,2,0,1,0
1472135368322655,-1,-1,-4,-4,2,-3,-1,0
1472135368323658,-3,1,5,0,2,1,-2,0
1472135368323658,-2,-2,1,-1,0,-2,0,-1
1472135368344675,1,0,-3,0,-2,-1,-2,1
1472135368344675,-2,-3,1,-3,4,-3,-2,-7
1472135368345676,1,3,0,-1,-4,-1,1,1
1472135368345676,-1,0,-5,-1,0,-4,-1,-2
1472135368359688,-1,-4,-2,-3,0,-2,0,-1
1472135368359688,-2,-2,2,0,1,0,-1,-1
1472135368375210,-3,2,-1,-1,1,1,-4,-2
1472135368375210,0,-3,-3,-2,0,-3,-1,-3
1472135368382717,-2,1,-2,-2,-4,-2,0,-2
1472135368382717,0,-3,0,-3,0,0,-2,1
1472135368383716,1,0,-9,-4,0,-1,1,-1
1472135368383716,1,0,2,0,-1,-4,0,0
1472135368404741,-1,-3,-4,-1,2,-3,-2,-2
1472135368404741,-2,1,-5,-2,-3,1,1,0
1472135368405741,0,-5,0,0,-1,-2,-2,-3
1472135368405741,0,0,1,3,-2,1,-1,1
1472135368419753,-2,-1,-1,-1,-3,1,-2,-1
1472135368419753,0,-1,0,3,-2,-2,-1,0
1472135368427760,-3,-3,-2,-2,0,-2,-2,-1
1472135368427760,-3,5,3,-3,-5,0,-2,-2
1472135368442772,3,-1,8,0,-1,0,0,-2
1472135368442772,0,-2,-3,-2,0,0,-1,1
1472135368442772,-2,3,1,4,-2,-1,-1,0
1472135368442772,-1,-3,-4,-1,0,1,-1,1
1472135368464793,-3,1,-12,-2,-2,-3,-2,1
1472135368464793,-1,-2,-4,-6,0,-1,1,-3
1472135368465794,2,-4,5,3,-2,-1,-2,-1
1472135368465794,0,3,-2,-2,-3,1,0,0
1472135368488782,-2,-7,3,4,-1,0,-1,-2
1472135368488782,-2,-3,-5,-1,1,0,0,0
1472135368488782,-2,0,-2,1,-2,-2,0,-3
1472135368488782,-1,2,-3,0,0,-1,-2,-1
1472135368502809,-1,1,0,-5,-4,-1,1,1
1472135368502809,-2,4,-2,0,0,-2,-2,-4
1472135368502809,-1,-2,3,-2,0,-2,2,0
1472135368502809,-2,-3,1,0,-1,-1,-4,1
1472135368524815,-2,-3,-5,-2,-1,0,-1,-1
1472135368524815,0,0,-10,-2,1,-1,0,-3
1472135368525816,1,-2,-5,-1,0,1,-1,0
1472135368525816,-3,4,3,-1,-1,-1,1,-5
1472135368548836,3,-2,-10,-3,-1,-2,0,-2
1472135368548836,0,-3,2,1,-1,0,-1,2
1472135368548836,1,-1,-7,-6,-1,-2,-2,-4
1472135368548836,2,-5,-5,4,0,-3,-1,1
1472135368562864,-4,1,3,-2,5,-1,-2,-2
1472135368562864,2,0,-2,-1,-6,0,1,1
1472135368562864,-3,-1,-2,-6,-2,1,4,-2
1472135368562864,2,1,3,4,0,-2,-1,-2
1472135368584876,1,1,4,6,-3,-3,-2,-1
1472135368584876,-1,-6,-4,-6,0,0,-1,-3
1472135368585884,-3,0,2,-3,-1,1,-4,1
1472135368585884,0,-4,-8,-7,-2,0,0,-1
1472135368607915,-3,-2,-1,1,-1,-4,-2,1
1472135368607915,-3,-1,8,-1,2,-1,-4,-3
1472135368608903,2,1,-5,0,-3,0,-2,1
1472135368608903,0,-2,-1,-1,-1,-2,-2,0
1472135368630936,-2,1,0,-4,-3,-1,0,-1
1472135368630936,-1,-2,3,-2,-1,-1,-3,2
1472135368631924,-1,-2,-3,-1,0,-1,0,-3
1472135368631924,0,0,0,-1,2,-1,0,-2
1472135368644949,0,-1,3,7,-1,1,0,0
1472135368644949,1,1,-3,1,-1,-2,-2,0
1472135368645936,-4,-4,-1,-1,-2,0,-2,-2
1472135368645936,-1,-3,0,-1,-1,1,-3,0
1472135368667957,0,0,5,-6,-2,-2,1,-1
1472135368667957,-1,-2,-1,3,-3,-1,-2,-1
1472135368669464,-1,2,2,2,1,-1,-1,1
1472135368669464,-4,-3,1,-3,0,-3,-1,0
1472135368682976,1,0,-5,-2,2,3,0,0
1472135368682976,1,-2,-1,-3,0,0,1,-1
1472135368683478,0,1,4,1,0,-3,0,0
1472135368683478,0,-2,-4,-4,-2,-1,-1,-1
1472135368704999,-1,-2,3,-1,-1,1,-3,-1
1472135368704999,0,-1,-3,2,0,0,-1,-1
1472135368706000,2,0,-4,0,-1,-3,-1,-1
1472135368706000,-4,1,0,0,-1,-2,0,-2
1472135368728021,0,-4,-3,-1,-1,-2,2,-2
1472135368728021,-4,-4,-1,4,-2,-3,2,-2
1472135368729023,-1,-3,3,-1,-2,1,0,1
1472135368729023,1,-5,-8,-1,2,-2,-1,0
1472135368743033,-3,1,-2,-3,1,1,-4,0
1472135368743033,-1,0,1,-3,-4,-2,-2,-1
1472135368743033,-1,1,1,1,-2,-1,-3,-1
1472135368743033,1,0,2,1,-2,0,4,-1
1472135368765067,-5,-7,-4,-2,2,-1,0,-4
1472135368765067,0,1,-1,-4,1,-2,1,-1
1472135368766056,-2,-1,1,3,-4,1,-2,0
1472135368766056,0,0,2,-3,0,1,-1,-2
1472135368788641,-1,3,-1,-3,-2,-2,-3,-2
1472135368788641,-1,-1,1,-2,1,2,1,-1
1472135368788641,-1,-2,-1,-1,0,-1,0,-2
1472135368788641,-2,0,-4,1,-3,0,-1,-3
1472135368802651,3,1,2,-1,-2,-2,0,-1
1472135368802651,-4,1,2,-3,-2,0,-4,1
1472135368803655,1,-1,0,2,-1,-3,0,0
1472135368803655,-1,-1,1,0,-2,-1,-2,0
1472135368824703,-2,0,-3,-1,1,-1,0,-2
1472135368824703,1,1,-3,-4,-1,-4,-3,-2
1472135368825673,0,-1,0,0,-3,-1,-5,-4
1472135368825673,1,0,1,2,1,0,0,0
1472135368848693,3,-4,-4,-3,-4,-2,-1,-3
1472135368848693,-2,-5,-2,1,-1,-1,0,-1
1472135368848693,-3,-2,-2,-4,-2,-1,1,-1
1472135368848693,-1,1,-3,0,-1,-3,-3,0
1472135368862706,-2,-3,6,3,-1,0,-2,1
1472135368862706,0,1,-7,-2,0,-3,-3,1
1472135368863707,-2,-2,3,-5,-2,-3,-2,-1
1472135368863707,-2,1,5,3,-2,-2,0,0
1472135368885248,-1,-1,-7,-2,0,-4,-2,-3
1472135368885248,-2,-1,1,0,-1,-1,-2,-2
1472135368886254,1,1,3,5,1,0,1,-1
1472135368886254,0,0,-1,-4,-2,0,-2,-3
1472135368908275,-2,3,-2,0,-1,-1,0,2
1472135368908275,1,-1,-8,-5,-1,0,0,0
1472135368909275,-2,-1,-10,2,-2,-2,-2,-2
1472135368909275,0,-2,-6,0,-3,1,-1,-2
1472135368922287,0,1,0,-1,-3,0,-2,-1
1472135368922287,-2,-3,-3,0,1,-2,2,-1
1472135368923288,-1,-1,-2,-1,2,-2,1,0
1472135368923288,1,1,1,1,1,-2,-1,1
1472135368945307,0,-3,5,-4,-3,-1,-2,-3
1472135368945307,0,-3,6,5,-1,1,-1,-2
1472135368945307,0,-2,1,0,-2,0,0,-2
1472135368945307,-1,-1,-4,-2,-1,-1,1,0
1472135368968331,-1,-1,-3,-1,1,0,-5,0
1472135368968331,-1,2,6,4,-4,-1,0,0
1472135368969330,0,-3,-3,-5,1,-3,-2,-2
1472135368969330,-1,0,2,-2,1,2,-1,0
1472135368982847,-3,-3,-2,0,-1,0,1,2
1472135368982847,-1,0,0,2,-1,-3,-1,-3
1472135368983348,-1,-3,1,-4,-2,-2,0,0
1472135368983348,-3,0,0,-2,-5,0,-1,-1
1472135369005372,-2,-2,0,1,-2,-1,0,-1
1472135369005372,2,-1,-7,-10,-4,-1,0,-1
1472135369006372,-1,-2,6,0,-1,-1,-1,-1
1472135369006372,0,-2,-1,-1,2,-1,-3,-1
1472135369028391,-1,0,-1,1,0,1,-1,0
1472135369028391,-1,-2,3,4,2,-2,0,-2
1472135369029392,0,-1,-8,-6,-1,-2,-3,0
1472135369029392,0,-1,-3,-2,0,0,-1,0
1472135369042404,0,4,-2,1,0,-1,0,-3
1472135369042404,-2,-3,1,2,-1,-1,-4,-1
1472135369050411,0,-1,-2,-1,0,1,0,0
1472135369050411,0,-3,-3,-3,-1,-4,-1,0
1472135369065424,2,3,3,5,-3,-3,-1,-1
1472135369065424,-4,-1,-4,-2,-2,-1,-1,0
1472135369065424,-4,2,-1,0,-1,2,-3,-2
1472135369065424,1,4,-5,-3,-1,1,-2,0
1472135369087973,-2,1,1,-2,-1,-1,1,-3
1472135369087973,1,-3,-16,-2,1,-1,2,-1
1472135369088975,1,-1,0,1,0,-1,0,1
1472135369088975,-3,1,-2,0,-2,-2,-1,-1
1472135369101985,0,-6,-5,0,0,-1,-2,1
1472135369101985,-2,0,1,1,-2,-1,-1,-1
1472135369109992,-1,0,0,0,-1,-2,-2,-2
1472135369109992,0,-3,-8,-2,-2,-1,-2,-2
1472135369125006,-1,-2,3,0,-2,1,1,0
1472135369125006,0,3,-1,-2,-2,2,-3,0
1472135369126008,-3,-1,-4,-6,-3,-1,0,-4
1472135369126008,0,-1,3,2,-2,-3,-1,0
1472135369148026,-2,0,-5,-3,1,0,2,-1
1472135369148026,0,-3,2,0,-3,-1,-4,-1
1472135369149028,-2,2,-1,-2,-1,1,0,-1
1472135369149028,-1,1,-3,0,-1,0,-1,-1
1472135369162042,0,-1,-3,-3,1,0,-1,1
1472135369162042,-1,-1,2,-1,-2,-1,-1,0
1472135369170563,-3,-3,0,2,1,-1,-2,-3
1472135369170563,-3,0,5,-3,0,0,1,2
1472135369185091,-1,2,0,3,-2,-1,-3,-3
1472135369185091,-1,2,-2,-5,-2,0,2,0
1472135369185091,1,-3,1,0,-1,-1,-2,-3
1472135369185091,0,1,1,-1,-1,1,0,-3
1472135369208419,0,-1,2,-4,-2,-2,-3,-3
1472135369208419,-1,-1,0,0,1,0,-1,1
1472135369209420,2,-2,3,-4,1,1,1,1
1472135369209420,-3,-1,8,9,-1,-3,-1,-1
1472135369222432,0,-2,2,-7,0,1,2,-1
1472135369222432,1,-4,-3,0,-2,-2,-2,-2
1472135369230438,0,-2,-3,4,-2,-2,-2,1
1472135369230438,-2,-1,1,-2,-1,1,0,0
1472135369245451,1,0,-8,0,-1,-3,0,-1
1472135369245451,-1,-3,1,1,-2,-2,-1,-1
1472135369245451,0,1,-4,2,0,-1,-2,1
1472135369245451,3,-4,-2,-4,-3,0,-2,-3
1472135369267471,-2,-3,0,3,-2,-1,0,-2
1472135369267471,1,1,-3,-5,1,3,-2,-3
1472135369268475,-1,0,-3,3,0,-1,1,1
1472135369268475,0,0,-5,-1,0,-2,-3,-2
1472135369282001,-2,1,-4,-1,-1,0,-1,-1
1472135369282001,0,1,3,-1,-1,-3,0,0
1472135369290512,-1,-1,-3,-3,-2,-2,-1,-1
1472135369290512,-2,0,-2,-3,-1,-1,-2,0
1472135369305525,1,0,-5,2,-1,0,-2,1
1472135369305525,-3,1,1,2,-1,-4,-1,1
1472135369305525,-3,-3,0,2,0,-1,-2,-3
1472135369305525,1,-5,-10,-3,0,0,-3,0
1472135369327544,-4,-1,2,-2,0,-2,-1,-2
1472135369327544,0,1,0,4,-2,-1,1,-2
1472135369328549,0,-4,-9,-5,-2,-1,-4,0
1472135369328549,-3,-3,-3,0,-2,-1,1,-3
1472135369341572,-2,-2,2,-1,1,-1,0,-3
1472135369341572,0,-3,-7,-4,0,0,-2,-1
1472135369350566,1,-4,-2,-2,0,0,1,1
1472135369350566,-1,-2,2,-1,-2,0,2,-1
1472135369365580,2,0,3,-5,0,1,0,1
1472135369365580,0,-1,-1,2,-1,-2,-3,3
1472135369365580,1,3,7,0,-2,2,1,-1
1472135369365580,-1,2,-12,-4,-1,-3,0,-2
1472135369387641,1,-5,-1,-4,2,1,-1,0
1472135369387641,-1,-1,1,-1,-2,2,-2,-1
1472135369388643,-1,4,-2,-4,-4,0,-2,2
1472135369388643,-3,-3,5,6,-1,-2,1,-2
1472135369401684,0,0,-5,-3,0,-3,-3,0
1472135369401684,-2,0,3,-1,-1,2,0,0
1472135369409695,-1,-2,-5,-4,2,-3,1,-2
1472135369409695,-3,1,-4,-2,-2,0,-3,-1
1472135369424674,-2,0,-4,1,-1,-2,0,-1
1472135369424674,-1,-3,8,-2,-1,1,-4,-2
1472135369425675,-1,0,6,8,0,-2,-1,-3
1472135369425675,1,2,5,-2,-2,1,0,1
1472135369447696,0,-1,-4,2,0,-1,-2,-1
1472135369447696,-1,3,-4,-2,-1,0,2,-2
1472135369448696,-1,-2,-1,1,-1,-4,-2,0
1472135369448696,3,-3,-2,-3,0,0,-2,2
1472135369471252,-1,5,11,2,-5,-2,-3,3
1472135369471252,-2,-3,-20,-5,-1,-4,-4,-4
1472135369471754,-1,0,1,0,0,-1,1,-3
1472135369471754,-1,-3,0,0,1,0,1,1
1472135369485264,-2,-3,4,-1,-3,-1,-3,-4
1472135369485264,2,-4,0,0,1,0,3,-1
1472135369485765,-1,-1,2,-3,-2,0,-2,2
1472135369485765,0,-2,0,-3,-1,-2,-1,-2
1472135369507789,0,-4,-3,-1,-2,0,0,-1
1472135369507789,0,5,-1,2,2,-2,3,1
1472135369507789,0,1,-2,-6,-2,-1,-2,-2
1472135369507789,-2,0,5,10,0,-1,-2,-1
1472135369530824,-2,-2,-7,-21,-4,-2,-1,0
1472135369530824,-1,-3,2,-5,-1,0,0,-1
1472135369531811,1,3,-1,5,0,2,-1,-2
1472135369531811,-2,0,-3,-12,0,-2,-2,1
1472135369544835,5,-2,-3,18,1,-1,-1,-2
1472135369544835,-3,0,5,-4,-3,0,1,-1
1472135369545823,0,-2,0,-1,2,-2,-1,0
1472135369545823,1,-6,-13,-10,1,-2,0,-3
1472135369567843,-2,2,5,5,-2,-2,-1,-2
1472135369567843,-3,-2,3,5,1,-2,-2,0
1472135369568844,-3,0,-7,2,-1,-2,-2,-1
1472135369568844,-1,1,11,3,-5,0,-1,1
1472135369590935,2,4,3,0,-1,1,2,0
1472135369590935,0,1,1,0,-3,-1,-2,-2
1472135369591904,-1,-1,7,-6,-2,-1,0,0
1472135369591904,2,-2,1,1,1,-2,-2,-4
1472135369604917,-2,-3,-8,-6,1,-1,-1,1
1472135369604917,2,4,-3,-1,0,0,-3,-1
1472135369605917,-2,1,-4,3,1,-2,-1,-5
1472135369605917,0,2,0,-3,-1,-1,2,-2
1472135369627936,-7,-2,7,6,1,-3,-3,-3
1472135369627936,2,3,0,2,-2,-2,-2,-2
1472135369627936,-2,-2,-2,-1,-2,2,-2,-3
1472135369627936,-2,-2,-5,0,-1,-1,1,-1
1472135369650988,-2,-2,-11,-5,0,-2,-2,-1
1472135369650988,-2,-2,-5,-2,-2,-3,-6,-1
1472135369651958,-4,1,-3,-4,-1,-2,2,1
1472135369651958,3,2,3,4,0,0,-2,4
1472135369664970,0,-1,-9,-2,1,-2,5,-1
1472135369664970,-1,-2,7,0,-2,1,3,2
1472135369665972,0,-1,-3,-1,-2,-1,-4,-1
1472135369665972,-3,-1,3,3,0,0,-5,-1
1472135369687999,-2,1,0,1,-2,-1,-1,1
1472135369687999,3,-1,-5,-4,-1,-2,-2,-4
1472135369687999,-2,-2,2,10,0,-3,1,-1
1472135369687999,1,-1,-4,-4,-3,0,-4,0
1472135369711032,2,-3,0,-13,-1,0,-2,2
1472135369711032,-3,-1,0,12,-1,-2,0,-2
1472135369711032,0,4,3,-3,-2,-2,-2,-1
1472135369711032,-3,-2,-2,3,-2,-4,0,-4
1472135369725045,1,1,0,5,-2,1,0,-4
1472135369725045,-5,-5,-2,-11,-5,-2,-2,1
1472135369726033,3,-7,-9,1,-3,-3,-2,-1
1472135369726033,-1,-1,3,-21,-1,-1,-1,-2
