timestamp,emg1,emg2,emg3,emg4,emg5,emg6,emg7,emg8
1470243735448898,0,-1,7,2,2,0,2,-1
1470243735448898,2,-2,0,3,1,-1,-3,-1
1470243735461408,-4,-3,-9,-4,-4,-4,-2,-3
1470243735461408,-2,-3,1,1,3,0,-3,-2
1470243735468919,0,-1,-3,-6,-2,-1,0,-2
1470243735468919,1,-2,0,-2,-3,-1,1,0
1470243735484930,0,0,0,-1,0,2,-3,-2
1470243735484930,-1,0,-7,-4,-5,-2,-1,0
1470243735486434,0,-5,-6,-5,-1,-2,-2,-3
1470243735486434,-3,-2,7,1,-3,-1,-3,-2
1470243735507449,0,2,14,-1,2,-1,0,0
1470243735507449,-2,-2,-3,4,-3,-2,-1,-3
1470243735508951,-2,-2,-4,-7,0,0,-1,1
1470243735508951,0,1,3,5,0,0,2,-1
1470243735521463,0,-3,-7,-4,2,0,-3,-1
1470243735521463,0,-1,-1,-3,-2,-2,-2,-2
1470243735528468,0,1,4,4,1,-2,1,1
1470243735528468,0,-4,-12,-5,-3,-3,-3,0
1470243735544984,-1,-2,6,2,1,-1,-2,-2
1470243735544984,-1,0,-11,-3,-1,0,-1,-1
1470243735546484,0,2,2,2,-2,0,-1,0
1470243735546484,-1,-1,-2,-1,-1,-1,-4,1
1470243735567503,-1,0,-7,-8,-5,-2,-2,-2
1470243735567503,-1,0,3,1,2,1,-1,-1
1470243735569007,-2,-4,-13,-7,-1,-1,-1,-2
1470243735569007,0,1,8,8,-1,-2,0,-3
1470243735581517,-1,-3,-1,-4,0,1,0,-2
1470243735581517,-2,-1,6,0,1,-1,0,0
1470243735588522,0,1,-2,1,-1,1,-1,2
1470243735588522,-6,-1,19,-2,-2,-1,-2,0
1470243735604538,0,0,-7,2,0,-2,0,1
1470243735604538,-5,-1,-2,-1,-2,-1,0,-1
1470243735606038,-1,0,-4,-3,-2,-1,0,-2
1470243735606038,2,-2,-17,1,2,0,-1,-2
1470243735627057,0,-1,8,-11,-3,1,-2,0
1470243735627057,-2,-2,-6,0,-3,-1,3,-1
1470243735629062,-3,-1,3,0,-2,-2,-8,-2
1470243735629062,0,-2,-4,-2,0,-2,1,-2
1470243735641070,-3,-2,3,2,-3,-2,-1,-1
1470243735641070,1,-1,-2,-1,1,0,0,1
1470243735649577,-2,-1,2,3,-1,-1,0,-3
1470243735649577,-1,-2,-1,0,1,-2,-2,-2
1470243735664591,-1,-3,-13,-4,0,0,-2,-4
1470243735664591,-2,-1,2,-5,-2,-3,-2,-3
1470243735666593,0,-1,-1,6,0,1,0,0
1470243735666593,-3,-2,-5,-15,-4,-2,-2,-2
1470243735687111,0,-2,0,5,-1,-2,0,1
1470243735687111,-1,1,-3,-4,3,1,-2,-1
1470243735688613,0,-3,4,-3,-3,-1,0,-2
1470243735688613,0,0,6,5,-1,0,0,0
1470243735700624,-2,1,1,3,-1,0,-2,-2
1470243735700624,0,-1,-2,-6,0,-2,-1,-2
1470243735709631,-1,0,-4,2,0,0,0,0
1470243735709631,1,1,-6,-9,-1,1,1,-1
1470243735724645,-2,-3,20,12,-3,-2,-2,-3
1470243735724645,-1,0,-2,-7,-3,-2,-1,0
1470243735726148,-2,-5,-23,-11,-1,-2,0,-1
1470243735726148,-2,-1,-4,3,-2,-1,-2,-3
1470243735747165,-2,1,0,-4,0,-1,-2,-1
1470243735747165,0,-4,-1,8,-2,-2,-1,-1
1470243735748666,-1,-2,1,3,-2,0,-2,-1
1470243735748666,-2,-3,-4,-9,-2,-1,-1,0
1470243735760677,0,1,7,5,2,-1,0,0
1470243735760677,-3,-5,-20,-6,-5,-2,-2,1
1470243735769686,2,-1,3,-1,5,-2,-2,-1
1470243735769686,-2,0,2,5,-3,0,-1,1
1470243735784699,-2,-3,-4,-3,-1,0,0,-2
1470243735784699,-2,-4,7,2,0,-3,-2,-3
1470243735786203,0,2,9,-7,-4,0,1,0
1470243735786203,-4,1,-8,0,3,1,-1,-1
1470243735807219,1,-1,-7,-6,-2,-2,-1,1
1470243735807219,1,1,-3,2,2,1,0,-1
1470243735808720,-2,0,0,-1,-1,-1,0,-1
1470243735808720,0,0,4,4,-4,-4,-1,-1
1470243735820732,-2,0,-3,-5,-1,-1,0,-2
1470243735820732,0,-1,5,4,-1,-1,-2,0
1470243735830740,-3,-4,-5,-4,-1,-4,-2,-1
1470243735830740,-1,-2,0,-1,0,-1,-2,-1
1470243735844752,-1,-4,-8,-3,-1,-2,-2,-1
1470243735844752,0,0,6,0,1,-1,0,1
1470243735846254,-4,-1,-8,8,-2,0,0,-1
1470243735846254,-1,-1,12,-11,-2,-2,-1,-2
1470243735867273,0,2,4,6,-1,-2,-1,0
1470243735867273,-2,-2,-3,-1,-4,-2,-3,-3
1470243735868776,-2,-4,-4,3,-1,-1,-1,-2
1470243735868776,-2,-3,1,-4,0,-3,-2,-2
1470243735880785,-2,0,-7,1,-2,-2,-1,0
1470243735880785,0,-1,5,-9,0,0,0,-2
1470243735889794,1,-1,-2,3,0,2,0,-2
1470243735889794,-1,-2,-4,-4,-2,-1,0,0
1470243735904807,1,-3,1,5,1,-1,-2,1
1470243735904807,-1,-1,-12,-3,-4,-3,-2,0
1470243735906308,0,-3,1,-6,-2,-2,0,0
1470243735906308,-1,0,1,2,-1,1,-1,-2
1470243735927326,-2,0,-2,-1,1,2,2,-2
1470243735927326,-2,-2,1,1,0,0,-2,0
1470243735928829,-1,-3,-11,-4,-1,-1,-1,-1
1470243735928829,0,-2,4,2,-2,-1,-1,0
1470243735940839,0,0,-7,-8,-2,-1,-2,-3
1470243735940839,-1,0,1,0,2,0,0,-2
1470243735949848,-1,1,11,-1,0,1,-1,-1
1470243735949848,0,1,-6,-3,0,-2,-1,-2
1470243735964861,0,-3,-8,-4,-3,-1,-2,-3
1470243735964861,-5,2,6,1,-2,0,0,0
1470243735966361,-1,-1,7,2,0,0,0,1
1470243735966361,-1,-3,-25,-5,-2,0,-1,-2
1470243735987381,-2,-1,12,2,0,-1,0,0
1470243735987381,-1,-4,-9,-4,-3,-2,1,-3
1470243735988883,0,0,6,3,0,0,-1,-2
1470243735988883,-2,-2,3,5,0,-3,-2,-1
1470243736000893,0,-1,-15,-9,-3,-2,-1,-2
1470243736000893,0,-2,20,4,3,0,-1,0
1470243736009901,-2,-3,-11,-14,-5,-1,-1,-1
1470243736009901,0,-1,-1,8,3,1,-1,-3
1470243736024914,-3,-5,-8,-9,-6,-2,-3,-2
1470243736024914,-1,-1,0,1,0,-2,-3,-2
1470243736026416,-1,0,1,-2,-2,-4,-1,0
1470243736026416,-2,-1,10,3,-2,-2,-3,-2
1470243736047434,-1,1,-4,2,1,2,-2,0
1470243736047434,-1,1,1,-5,-2,0,-2,-1
1470243736048936,0,-2,-7,-2,-1,-1,-1,1
1470243736048936,-1,0,1,-4,-3,-1,0,1
1470243736069956,-2,-2,-1,0,0,-1,-3,-1
1470243736069956,1,-2,-6,1,-1,0,-1,-1
1470243736071456,-3,3,0,3,-2,-1,-2,-2
1470243736071456,2,0,-4,0,-2,-1,0,3
1470243736084469,1,2,8,-4,-4,-1,1,0
1470243736084469,0,-1,-8,-1,-2,-2,1,0
1470243736086471,1,-2,4,-1,2,-1,-2,-1
1470243736086471,-1,1,2,2,-2,0,-1,-3
1470243736114995,-2,-2,-1,-2,1,-1,0,-2
1470243736114995,-2,1,-5,-1,-1,0,-1,0
1470243736116496,-3,-1,-3,1,-1,-1,-3,0
1470243736116496,-1,-1,-1,-5,-2,-1,0,0
1470243736129509,0,-1,-3,4,-1,2,0,0
1470243736129509,0,-2,0,1,0,0,-1,-2
1470243736131510,-2,-2,-3,-2,-2,0,0,-1
1470243736131510,-1,-1,0,-1,-3,0,-2,-1
1470243736145023,-2,-2,-1,-1,-2,-1,0,0
1470243736145023,-1,-1,-6,-3,-3,-2,-2,-2
1470243736147025,0,1,7,2,-1,-1,0,-1
1470243736147025,2,-3,-2,-2,0,-1,-1,-2
1470243736167043,-4,3,8,6,0,-1,-1,1
1470243736167043,-1,-3,3,0,1,0,0,-2
1470243736169547,-2,-4,-8,-7,0,-2,-2,-3
1470243736169547,-2,1,1,2,1,-1,-1,-1
1470243736189566,-1,0,4,-6,-2,-2,-2,-2
1470243736189566,-3,1,-2,-3,-3,-4,-1,0
1470243736191565,0,-1,0,2,1,2,1,2
1470243736191565,-1,-4,0,0,-2,-1,-3,0
1470243736204077,1,-3,-10,-3,-2,-3,-2,-1
1470243736204077,1,-1,11,2,-3,0,0,0
1470243736210581,-2,0,4,-2,-3,-1,-2,-2
1470243736210581,-2,0,1,1,-3,0,-2,0
1470243736227096,-1,-2,-6,-1,3,0,-1,-1
1470243736227096,0,-3,-11,-1,-2,-2,0,-1
1470243736228597,1,1,4,4,-2,-1,-1,2
1470243736228597,-1,0,8,-1,-1,-2,0,-1
1470243736249617,-3,-6,-23,-9,-1,-2,-2,-2
1470243736249617,-4,1,13,5,-3,0,0,-1
1470243736251618,-1,-2,-10,-7,2,-1,-2,-1
1470243736251618,-3,0,5,2,-2,-1,-1,-2
1470243736264129,-1,-2,-11,1,-3,-2,0,-1
1470243736264129,1,-2,10,-3,0,0,-2,-1
1470243736271135,-2,-1,-19,5,0,-1,0,-1
1470243736271135,-3,-2,2,-5,2,0,-2,-2
1470243736294657,1,-5,2,0,-4,-2,0,-1
1470243736294657,-1,0,-11,-4,2,0,-2,0
1470243736296158,1,0,14,-1,-2,1,1,1
1470243736296158,1,0,-12,-1,0,-1,0,0
1470243736309671,-1,-2,5,4,-1,-2,-2,1
1470243736309671,-3,1,-1,-4,-4,-4,-1,-2
1470243736311171,-1,0,4,-3,1,0,0,-1
1470243736311171,0,-1,-14,1,-2,-2,0,0
1470243736324184,-3,0,9,1,-2,-1,-1,0
1470243736324184,2,-3,-7,0,1,1,-2,0
1470243736330689,-5,1,-5,-5,-7,-3,-2,-2
1470243736330689,0,-2,0,-2,4,0,0,0
1470243736347204,0,0,2,-4,-1,1,-1,-1
1470243736347204,0,-1,-19,-2,-2,-2,-1,-3
1470243736348706,-4,-3,21,-1,-3,-2,-1,-4
1470243736348706,0,-1,3,-1,-3,-3,-2,-2
1470243736370225,-1,-1,-19,0,2,1,0,0
1470243736370225,-2,3,10,-1,0,0,0,0
1470243736371725,0,-4,-16,2,-2,-2,-2,-2
1470243736371725,-3,-1,4,-11,-4,-2,-4,-1
1470243736384236,0,2,13,2,1,-2,-1,1
1470243736384236,-1,-5,-24,-3,-6,-2,0,-3
1470243736390743,0,-1,12,5,0,-2,1,-1
1470243736390743,-2,-2,-5,-2,0,-1,-1,-1
1470243736407258,-1,0,0,-2,-2,-2,-1,-1
1470243736407258,-1,-3,1,-2,2,0,0,-1
1470243736409260,-1,-1,-6,-5,2,0,0,-1
1470243736409260,-3,-4,-10,-1,-4,1,0,-1
1470243736429779,1,2,8,1,-1,-1,0,-2
1470243736429779,-1,3,4,4,1,-1,0,-1
1470243736431279,0,-4,-15,-14,-2,-1,-2,-2
1470243736431279,0,2,16,12,2,-1,-2,-2
1470243736443791,-4,-3,1,-2,-2,-1,-3,0
1470243736443791,-2,-3,3,-1,-1,0,-3,-1
1470243736450797,0,1,-14,5,-4,-1,-1,0
1470243736450797,-2,-2,-8,-10,1,-4,-1,0
1470243736467312,0,-1,3,-5,-2,0,1,0
1470243736467312,0,0,7,-1,0,0,-1,0
1470243736468813,-1,0,-4,-1,0,0,-3,-2
1470243736468813,1,0,1,1,1,1,0,-1
1470243736489832,-3,-1,-4,0,-2,-3,-3,-2
1470243736489832,-1,-1,5,3,0,0,-1,-2
1470243736491333,0,-2,0,2,-2,-2,0,0
1470243736491333,-2,-1,-9,-3,0,0,1,-1
1470243736504346,2,2,3,0,3,1,-1,-1
1470243736504346,-3,-2,-3,-1,-4,-2,-1,0
1470243736510851,-2,0,6,-2,0,0,0,0
1470243736510851,0,1,-4,-3,-3,-2,0,-1
1470243736527365,-2,-2,6,-2,1,0,0,-1
1470243736527365,0,-1,-10,-1,0,-2,-1,0
1470243736528867,-3,2,32,4,-4,-2,-1,-2
1470243736528867,0,-2,-15,1,1,0,0,0
1470243736549885,-3,-2,-5,2,2,1,-1,-1
1470243736549885,-1,-3,-7,-8,-3,-2,0,0
1470243736551387,1,-1,-2,1,0,0,0,-1
1470243736551387,-2,-3,-8,-17,-5,-2,-2,-1
1470243736563398,-1,1,6,7,-2,-1,0,-2
1470243736563398,-1,-1,-3,-1,0,0,0,0
1470243736572406,1,-3,-8,0,0,-2,-2,-2
1470243736572406,-6,1,5,3,-2,-1,-1,-2
1470243736587920,-1,-3,-8,-2,-2,-2,-2,-2
1470243736587920,-3,-1,0,-6,-2,0,-2,0
1470243736588920,-2,-3,-9,-5,-4,-2,-1,-1
1470243736588920,0,0,-1,6,-1,-3,-1,1
1470243736609940,1,-1,13,-4,-1,-2,-1,0
1470243736609940,-3,-3,-14,-2,-2,-1,0,0
1470243736611442,0,-3,0,-2,2,1,-1,1
1470243736611442,2,-1,-1,0,0,0,-2,-1
1470243736623451,-1,2,12,0,-5,-2,-1,-1
1470243736623451,1,1,7,3,-1,-2,0,-2
1470243736632460,-2,-1,-5,-1,0,-2,-1,-2
1470243736632460,-1,-4,1,-2,-2,-2,0,0
1470243736647474,0,0,-3,6,0,0,1,-1
1470243736647474,1,0,0,-1,-2,0,-1,-1
1470243736648974,3,-2,-4,-2,-1,-1,1,0
1470243736648974,-3,0,0,0,0,-1,-2,0
1470243736669994,-1,-3,-9,-4,1,1,-1,1
1470243736669994,-2,-3,6,0,0,-2,-1,-2
1470243736671495,-2,-1,-7,-3,-3,-2,-1,0
1470243736671495,2,-1,4,-4,-2,0,1,-2
1470243736683505,-2,-2,-19,1,1,-1,-2,-1
1470243736683505,-2,-1,-4,-10,-5,-4,0,0
1470243736692514,-3,3,18,3,0,0,-1,-3
1470243736692514,-2,-2,-4,1,-2,-2,-1,-1
1470243736707028,-3,-1,-2,-5,0,-2,-1,0
1470243736707028,0,-1,-1,1,1,0,-3,-1
1470243736709028,0,-1,2,3,1,0,0,0
1470243736709028,1,-2,-7,4,-1,-2,-1,-2
1470243736729547,1,-4,-8,-14,-4,-1,1,-2
1470243736729547,0,0,-4,0,-2,-1,2,0
1470243736731549,-4,-2,-2,-8,-3,-1,-1,-2
1470243736731549,-1,0,12,8,-1,0,-1,-1
1470243736743560,-2,-2,-6,1,-2,0,-2,1
1470243736743560,1,-3,7,3,0,-3,-1,-1
1470243736752568,-1,-3,-8,-4,-1,-1,-2,-1
1470243736752568,0,-3,-2,-1,-1,0,-1,-1
1470243736767081,1,-3,-8,-4,-2,-2,-1,-1
1470243736767081,-1,1,6,3,0,1,0,0
1470243736769083,0,-2,-4,-1,-1,-1,-3,-2
1470243736769083,0,1,6,2,0,-1,0,-1
1470243736790102,0,-2,-8,2,-1,-1,0,-3
1470243736790102,0,-5,-26,-10,-3,0,0,-2
1470243736792103,-5,1,13,7,1,-1,-1,-4
1470243736792103,0,-1,4,-2,0,0,0,1
1470243736803613,2,1,0,-4,1,0,0,-2
1470243736803613,-1,-1,6,-1,-4,-1,-2,-1
1470243736812122,0,-1,-8,0,2,-1,0,0
1470243736812122,-2,-1,-5,-3,-2,-2,-2,0
1470243736827134,-3,-1,-3,1,-3,-2,-2,0
1470243736827134,-2,-1,6,4,0,-3,-2,-2
1470243736828637,2,0,-3,-9,-3,-1,-1,0
1470243736828637,0,2,-1,2,-2,0,-1,-1
1470243736849655,-1,-1,-5,0,0,-1,0,1
1470243736849655,-2,-2,-6,-2,1,-2,-2,-1
1470243736851156,0,-2,1,-6,-5,-1,-1,-1
1470243736851156,2,-1,-7,-2,0,0,0,-1
1470243736863167,-2,2,20,3,-1,-1,-2,-1
1470243736863167,-3,1,2,3,0,-1,-1,-1
1470243736872177,-2,-3,-4,0,-1,-2,-1,-1
1470243736872177,1,2,6,-3,1,-1,-2,-1
1470243736887190,0,-1,1,-2,0,1,-1,0
1470243736887190,-1,0,8,2,-1,0,-1,0
1470243736888690,-2,-1,-9,-6,-1,-2,0,-1
1470243736888690,-2,-2,2,0,1,0,0,-2
1470243736909710,-2,-2,13,4,-2,-1,0,2
1470243736909710,-2,0,-5,-1,2,-1,-1,-3
1470243736911211,-1,0,-9,2,-3,0,0,0
1470243736911211,1,-4,3,-3,0,0,0,-2
1470243736923722,-1,-1,-10,2,-2,0,-3,-2
1470243736923722,0,1,0,-1,0,1,0,1
1470243736933230,-1,-3,2,-3,-2,-2,0,-2
1470243736933230,-2,0,-2,-4,-1,-1,-2,-1
1470243736946742,-1,-2,2,0,-1,-1,-1,-1
1470243736946742,-1,-4,-2,-2,-2,0,-1,-3
1470243736953251,0,1,1,0,-1,1,0,0
1470243736953251,0,1,-4,1,1,1,-1,0
1470243736970264,-2,-2,6,-7,-1,0,-1,-2
1470243736970264,0,-3,-9,-6,-3,-3,-1,-1
1470243736971265,-3,-2,0,-2,-3,-1,1,-1
1470243736971265,-3,-6,9,0,-2,-3,-1,-1
1470243736983775,-1,1,-6,2,-5,-3,1,-1
1470243736983775,-1,-2,7,-1,3,0,1,-1
1470243736992283,-2,-3,-6,1,1,0,0,-3
1470243736992283,0,-1,-2,-3,-3,-3,-2,-1
1470243737007296,0,1,9,6,0,-1,-1,-2
1470243737007296,-1,0,-4,-7,-3,-1,-2,-1
1470243737008798,-1,-4,-3,2,3,3,-1,-1
1470243737008798,-1,0,-3,2,-2,-1,0,1
1470243737029816,-1,-2,-8,-12,-1,1,-3,-1
1470243737029816,-5,-1,-3,2,0,1,-3,-2
1470243737031319,0,0,-2,1,-1,0,-1,2
1470243737031319,-4,-2,-4,-2,-1,1,-1,-1
1470243737052337,0,-1,-5,-2,1,-1,-1,-1
1470243737052337,0,-4,-5,-2,-1,-1,-2,0
1470243737053840,1,0,5,1,-1,-2,1,-2
1470243737053840,-2,-3,4,1,1,0,-2,0
1470243737067350,1,0,-3,-1,-1,-3,-2,0
1470243737067350,-2,-2,-2,-2,-1,1,0,-2
1470243737069352,1,-3,-3,1,-1,0,-4,-2
1470243737069352,1,-1,-2,0,-1,-2,0,-2
1470243737089870,1,1,4,1,0,-1,1,-1
1470243737089870,-1,-4,-8,-3,-2,-1,-1,-2
1470243737091372,-4,3,9,-4,-4,-2,-3,-1
1470243737091372,-2,-3,-14,-3,-5,-1,0,-2
1470243737112390,-3,-2,-8,-7,-1,-1,-2,-1
1470243737112390,0,-1,6,10,-2,-4,1,1
1470243737113892,0,-1,-10,-8,-2,-1,0,1
1470243737113892,0,-1,1,5,1,-2,-2,-2
1470243737127405,-1,-2,-3,-4,-4,-2,0,-2
1470243737127405,0,-1,2,-2,1,0,1,0
1470243737128907,-3,1,2,0,2,-2,0,-1
1470243737128907,-1,1,-1,-1,-2,0,-1,0
1470243737149924,-2,-2,-5,-3,-3,-1,-2,0
1470243737149924,0,0,5,3,0,0,-1,1
1470243737151426,1,0,2,3,1,-2,-1,-1
1470243737151426,-3,-2,0,0,1,-1,-3,0
1470243737172444,0,-4,-7,-1,-1,0,-1,0
1470243737172444,-2,-2,3,-7,-2,-2,-1,0
1470243737173947,0,1,11,8,-2,-2,-3,-1
1470243737173947,-1,-2,-12,-8,-3,-1,-1,-1
1470243737187458,-1,1,-2,0,0,-4,-1,-2
1470243737187458,-3,-1,-1,-5,-2,-1,-1,-1
1470243737193463,0,-2,-20,-3,-1,1,0,-1
1470243737193463,-2,-1,7,-2,-2,-3,-1,-1
1470243737209979,-2,0,2,3,1,0,1,-1
1470243737209979,1,-1,-5,-3,2,-2,-1,-1
1470243737211480,-1,-3,5,-3,-4,-4,-2,-1
1470243737211480,-5,-2,-5,-2,0,0,0,-1
1470243737232499,0,-2,-10,-8,1,-2,0,-2
1470243737232499,0,-1,-8,0,-3,-3,-3,-4
1470243737234000,-2,0,3,-4,-6,-1,-1,-2
1470243737234000,0,1,2,4,2,-1,-1,-1
1470243737246511,-1,-4,-13,0,0,-1,-3,-1
1470243737246511,-1,-1,-2,-4,-2,0,-2,1
1470243737253518,1,-2,-7,-5,1,0,-2,1
1470243737253518,-1,-1,7,-2,-3,0,-1,0
1470243737270033,-1,0,3,4,-1,0,-1,-1
1470243737270033,0,-1,-3,-7,-1,-2,-2,0
1470243737271534,-2,-3,-2,3,1,-1,-1,-1
1470243737271534,1,-1,-2,-5,-2,0,0,-1
1470243737291553,-1,1,10,-2,0,1,1,-1
1470243737291553,-2,-1,13,5,-1,-1,-1,-2
1470243737292052,-1,-2,-20,-6,-3,-2,0,1
1470243737292052,-2,-1,3,-3,-3,-1,-2,-2
1470243737306066,-2,-3,6,0,2,0,-3,-1
1470243737306066,1,1,-4,3,-1,-1,-1,-1
1470243737314072,0,2,17,0,2,-1,-1,-1
1470243737314072,0,-4,-20,0,-2,-2,0,-1
1470243737329086,-2,-3,-2,-4,-1,-1,-2,0
1470243737329086,1,0,5,-4,-1,-1,-1,-1
1470243737329586,-2,-1,3,3,1,0,0,-1
1470243737329586,0,0,2,-1,1,-1,-2,-2
1470243737351606,-3,0,1,3,2,-2,-1,0
1470243737351606,-2,0,2,4,0,-1,0,-1
1470243737352608,1,-1,-4,-4,-2,1,-1,0
1470243737352608,1,-4,-11,-11,-1,-2,0,0
1470243737365619,-4,3,10,5,-3,1,-1,-1
1470243737365619,-2,0,-4,-4,-1,0,-1,-2
1470243737374126,0,-1,-1,2,1,-2,-2,-1
1470243737374126,1,1,0,1,1,-2,-1,1
1470243737389139,1,-1,13,1,-1,-2,0,-1
1470243737389139,-1,-1,-21,-5,-4,-2,-1,-2
1470243737389641,-2,-1,6,1,0,1,-1,-2
1470243737389641,-1,-3,-7,-9,-1,0,-2,-3
1470243737411661,0,-3,-3,-2,-2,-4,0,-1
1470243737411661,-4,-2,2,2,1,0,0,0
1470243737412160,0,0,1,5,-1,0,-1,0
1470243737412160,0,-1,13,1,-1,-1,-2,0
1470243737426173,-1,-4,-26,-5,-3,1,-1,-1
1470243737426173,0,-2,11,-1,-1,-2,0,0
1470243737434181,0,-2,-6,-6,-3,-2,-1,-3
1470243737434181,0,0,4,1,0,0,-2,0
1470243737449195,1,-2,-1,-1,-1,-1,0,-2
1470243737449195,1,-1,2,5,1,0,-1,1
1470243737449694,-4,1,3,-7,0,-2,-3,-2
1470243737449694,-2,0,-9,5,0,-1,1,-1
1470243737471714,-3,-1,3,-9,-3,-3,-1,-3
1470243737471714,-2,-1,1,0,2,-2,0,-2
1470243737472214,-1,-3,-6,4,-2,0,0,-1
1470243737472214,-2,0,-3,-3,-2,1,-1,-2
1470243737486229,-2,0,-7,-5,1,0,-2,0
1470243737486229,0,3,16,2,-3,-1,-1,-1
1470243737493733,-1,-5,-16,0,0,-2,-3,-3
1470243737493733,-1,1,6,1,1,0,2,-1
1470243737509247,-2,-3,-10,-2,-2,0,-2,-2
1470243737509247,-2,-2,-2,-3,-1,1,-1,-1
1470243737509748,-1,-1,4,0,-1,-1,-2,-1
1470243737509748,-1,1,9,-1,-3,-1,-1,-2
1470243737539775,-1,-1,-1,-1,1,-1,-2,-1
1470243737539775,-2,-1,-3,0,-1,-3,0,-1
1470243737540275,-1,-2,-5,-3,-1,0,-1,-1
1470243737540275,-2,-4,-13,-4,-1,-1,-2,-1
1470243737554789,-2,0,16,3,-2,-3,0,-2
1470243737554789,-1,-4,-12,-4,-1,-1,-2,-1
1470243737555289,0,0,1,2,-2,-2,1,-1
1470243737555289,-1,-4,-1,0,-2,-3,0,-1
1470243737569303,1,-1,0,-2,2,0,-1,-1
1470243737569303,-1,0,1,3,0,1,0,-2
1470243737569804,-1,-2,-1,-4,-4,-2,-1,-2
1470243737569804,-1,-1,4,6,0,-2,-2,0
1470243737591321,0,-2,1,3,-1,0,-1,0
1470243737591321,-2,-2,1,-1,-1,0,-1,-1
1470243737592322,0,3,3,1,1,2,0,1
1470243737592322,0,-5,-21,-6,-4,-2,-2,-2
1470243737606336,-1,1,12,8,1,-1,0,-1
1470243737606336,-3,-1,-5,-7,1,-2,-1,-3
1470243737614342,-2,0,9,5,-1,-2,-1,1
1470243737614342,0,0,-2,-2,-1,0,-1,-1
1470243737629355,1,-2,-1,-3,-1,-2,-1,-1
1470243737629355,-2,-2,-14,-1,-2,-1,-2,-1
1470243737629855,-2,1,11,2,1,-1,0,-1
1470243737629855,0,-1,1,-1,1,-1,-1,-1
1470243737651376,-1,-2,1,-5,-4,-2,-1,-1
1470243737651376,2,0,4,2,0,-1,-1,1
1470243737652379,-2,-4,-9,-3,1,-1,-2,-1
1470243737652379,-1,-2,6,-2,-3,-1,-1,0
1470243737665888,0,0,-1,3,0,0,1,-1
1470243737665888,0,-2,-5,-4,-1,-1,0,-2
1470243737673895,-2,-2,-3,-2,-2,-3,-2,-4
1470243737673895,-3,3,3,-5,-2,-1,0,-2
1470243737689410,0,-3,-10,-1,0,0,-1,1
1470243737689410,-2,0,-1,-2,-4,0,-2,-1
1470243737689909,0,1,1,-1,0,1,-1,-1
1470243737689909,-2,-1,-2,0,-3,-2,0,-2
1470243737711930,0,-1,-2,-4,-2,0,-1,-2
1470243737711930,-1,-1,-3,1,-1,0,-2,-1
1470243737712430,0,1,0,3,-1,-1,-2,-1
1470243737712430,-3,-4,-6,-10,-3,-1,-2,-2
1470243737725942,-3,-1,-4,5,-2,-1,1,0
1470243737725942,0,2,12,-7,0,-1,-1,-2
1470243737733949,-1,-1,4,0,0,0,-1,-1
1470243737733949,0,-1,5,-1,0,0,0,1
1470243737748962,0,1,-1,2,0,0,-1,0
1470243737748962,-1,-1,-1,4,-1,-1,1,0
1470243737749963,1,-3,-2,-3,-1,0,-1,-2
1470243737749963,-2,-2,0,-1,-1,-1,-1,-2
1470243737771484,-2,-1,-2,-7,-3,-1,-1,-1
1470243737771484,0,0,-1,4,-1,-4,1,0
1470243737772483,-2,1,-3,-3,-5,-2,-1,-1
1470243737772483,0,1,2,5,1,1,0,0
1470243737785996,-3,-2,1,3,0,-2,-2,-2
1470243737785996,-2,-3,-10,-6,-5,-1,-1,-1
1470243737794004,-2,-1,-1,-2,-1,-1,-1,-2
1470243737794004,-1,0,-2,3,1,-1,-2,0
1470243737809018,0,0,0,-3,0,0,-1,1
1470243737809018,-1,-3,8,4,-2,-4,-2,-2
1470243737810017,0,-5,-15,-15,-3,-1,-2,-1
1470243737810017,0,0,-1,3,-1,1,-1,-1
1470243737831536,-2,0,11,-2,-3,-3,-3,1
1470243737831536,-1,-1,-4,4,2,0,0,-1
1470243737832537,-1,1,4,-1,-1,0,0,0
1470243737832537,1,-3,-20,1,-2,-1,1,0
1470243737854558,0,0,0,-7,1,-1,2,-2
1470243737854558,-1,0,3,-2,-3,1,-2,-2
1470243737855559,-1,1,4,4,-1,-2,-1,-1
1470243737855559,-1,1,1,-2,1,0,-1,1
1470243737877077,-2,-1,-3,1,-3,-3,-2,0
1470243737877077,0,-1,-4,-3,1,2,-2,1
1470243737878078,-1,-2,-1,0,-1,-2,0,0
1470243737878078,0,0,3,-2,-3,-2,-3,-1
1470243737891590,-2,-1,-6,0,0,1,0,-2
1470243737891590,-1,0,3,-1,1,-3,-3,0
1470243737892591,-1,0,-5,-2,-3,0,-2,-1
1470243737892591,-1,-2,-1,1,2,-1,1,-1
1470243737906103,-2,0,-2,-5,-3,-2,-2,-3
1470243737906103,-2,0,5,6,-1,0,1,-1
1470243737914111,0,-2,0,-5,-2,0,-1,-2
1470243737914111,0,-2,-4,-4,-1,-4,-2,-2
1470243737929124,0,0,5,8,0,1,-3,1
1470243737929124,-3,-2,-7,-6,0,1,0,-2
1470243737929625,-1,2,-2,3,-1,-3,0,1
1470243737929625,-2,-1,2,-6,-3,-1,-1,-3
1470243737951645,-3,-4,-8,2,-3,-3,-1,-3
1470243737951645,-1,-3,-5,-5,-2,-4,-1,-3
1470243737952646,0,0,7,-2,2,-3,-1,-2
1470243737952646,1,-3,13,3,-3,0,-2,-1
1470243737974665,-2,-2,-14,-3,0,1,-1,-2
1470243737974665,-2,-2,0,-2,0,0,0,0
1470243737975666,0,-3,-6,-1,0,0,-1,-2
1470243737975666,-2,4,9,1,-2,1,-2,1
1470243737989178,1,1,7,1,-1,0,0,-1
1470243737989178,-2,-1,-7,-5,0,0,0,0
1470243737990179,-1,-2,-2,-3,0,-1,-2,-1
1470243737990179,-2,-1,-6,-4,-1,-2,0,-1
1470243738011698,0,-2,-2,0,-1,-1,1,-1
1470243738011698,0,-1,-1,0,-1,-3,-2,0
1470243738012199,1,-3,-1,-2,-1,1,0,0
1470243738012199,1,-2,0,3,3,0,-1,-2
1470243738034719,0,0,-5,1,0,1,1,0
1470243738034719,0,-2,-3,-10,-3,-3,-3,-2
1470243738035720,-3,2,-1,1,-2,-1,0,1
1470243738035720,-2,1,3,4,-3,0,-2,0
1470243738049233,0,-2,-3,-3,3,-1,-1,-1
1470243738049233,-1,-1,-2,2,-1,0,0,0
1470243738049732,-3,-3,2,-2,-1,-1,-1,-2
1470243738049732,-2,-3,-12,-5,-1,-1,-1,1
1470243738071752,-1,1,5,-1,-3,-1,-2,-2
1470243738071752,-2,0,-2,-2,-3,0,0,-1
1470243738072253,0,-2,-2,1,0,-1,0,-2
1470243738072253,-1,1,1,-1,-1,-1,-1,0
1470243738094773,1,2,11,-5,-2,-2,0,0
1470243738094773,-2,-5,-21,1,-1,0,-1,0
1470243738095273,-2,0,1,4,-3,0,0,0
1470243738095273,-1,-3,-4,-2,1,-1,-3,-1
1470243738109286,-1,-2,-4,-7,1,0,-2,0
1470243738109286,1,-1,3,5,1,-1,-1,-1
1470243738109787,0,-4,-8,-3,-1,-2,-2,0
1470243738109787,-2,-1,1,1,-2,-1,-1,-3
1470243738131807,-2,-1,1,0,-1,0,0,0
1470243738131807,-1,-1,6,1,-1,0,-3,-2
1470243738132307,0,-3,-11,-3,-2,-1,-2,0
1470243738132307,-1,0,2,-3,-2,-1,0,0
1470243738154826,0,-3,-5,-2,-2,0,-1,-1
1470243738154826,0,2,8,2,0,-3,0,-2
1470243738155327,0,1,-2,-2,-2,0,-2,-2
1470243738155327,-1,-1,-2,-4,1,1,0,1
1470243738169339,-2,1,0,-1,-1,-2,-1,1
1470243738169339,-3,1,-4,1,-1,-2,-1,-1
1470243738169843,-2,-2,2,-5,0,-2,1,-1
1470243738169843,-2,-2,5,0,-4,-2,-1,-4
1470243738191361,-1,-2,-9,2,1,-1,-2,-2
1470243738191361,0,-3,3,0,-2,-1,0,1
1470243738192361,-3,1,1,-7,-2,-1,1,-2
1470243738192361,-3,-4,-7,-1,2,2,-1,-1
1470243738214880,-1,-1,5,2,-3,-3,-1,0
1470243738214880,-1,-4,-10,-10,-2,0,-1,0
1470243738215381,-1,0,5,1,-1,0,0,1
1470243738215381,0,-1,-6,-4,-4,-2,-2,-2
1470243738228894,-2,-2,-7,-3,-2,-1,-2,-3
1470243738228894,-1,1,8,9,3,2,0,-2
1470243738229894,0,-1,-5,-3,-2,0,-1,-1
1470243738229894,0,1,3,-4,-2,-1,-2,0
1470243738251414,-1,-2,-5,2,-1,0,-1,-1
1470243738251414,0,1,1,-4,-3,-1,-3,0
1470243738252417,-4,-3,1,4,-1,-2,-2,-2
1470243738252417,-1,-2,-5,1,1,0,0,-1
1470243738274935,0,-1,2,-1,-1,1,0,-1
1470243738274935,-4,-1,5,-4,-2,-1,-1,-1
1470243738275436,-1,-1,1,2,-2,-3,-2,0
1470243738275436,-2,-2,-2,-1,0,0,-1,0
1470243738297454,-2,-3,-2,-4,-2,-1,-1,1
1470243738297454,0,-2,1,1,-1,-2,-1,0
1470243738297955,-1,0,-2,4,1,-1,0,0
1470243738297955,-3,0,6,-2,-1,-2,-1,-1
1470243738311467,-2,0,-7,-1,-1,-2,-1,-2
1470243738311467,-1,-1,-4,-4,-1,-2,-2,0
1470243738312468,0,0,4,2,1,0,-1,-2
1470243738312468,1,-2,3,1,-1,0,-1,-1
1470243738334488,-2,-1,-2,3,-1,0,0,-1
1470243738334488,-2,1,-2,-1,-1,-1,-2,0
1470243738335491,-1,-3,-14,-7,-4,0,-1,-1
1470243738335491,0,0,3,4,0,1,-1,0
1470243738349003,-1,0,3,-4,1,0,-1,-1
1470243738349003,1,-3,1,3,1,0,1,-1
1470243738350002,-1,-1,-1,-4,-3,-2,-2,-1
1470243738350002,1,1,1,4,0,-1,-1,-1
1470243738371522,0,-1,-4,-1,-1,-1,-1,-1
1470243738371522,0,0,-1,2,-1,-1,1,1
1470243738372023,0,0,0,-6,0,-1,-1,1
1470243738372023,-2,1,-4,-4,-3,-4,0,-2
1470243738394041,0,-1,-1,0,1,-1,-1,0
1470243738394041,-2,-1,0,-3,-1,-2,-1,-3
1470243738394542,0,-1,2,4,-1,-1,0,-1
1470243738394542,0,-2,-2,-1,-2,0,-1,1
1470243738409055,-3,1,1,-6,-1,1,-2,1
1470243738409055,-1,-2,0,-2,-4,0,-2,-1
1470243738409555,-2,-1,-2,2,1,-1,-3,-2
1470243738409555,-1,-1,1,-4,-1,1,-1,-2
1470243738431576,1,-1,6,5,-1,-1,-1,-2
1470243738431576,-3,-5,-12,-12,0,-1,0,0
1470243738432076,0,0,18,11,-2,0,0,-1
1470243738432076,-2,-7,-25,-4,-1,-2,-1,-1
1470243738455096,0,-1,7,-2,-1,-1,0,0
1470243738455096,-2,0,5,5,0,-1,0,-3
1470243738455597,0,0,-5,-3,0,-1,-1,-2
1470243738455597,-1,-1,3,-2,-2,-2,-3,1
1470243738469110,-1,-2,-11,-6,-4,-2,0,-1
1470243738469110,-1,1,4,4,0,-2,-1,0
1470243738470112,-2,-2,-9,-5,-2,0,-1,0
1470243738470112,0,-2,3,2,-2,-2,-2,-1
1470243738491629,0,-1,0,0,-3,-2,0,-2
1470243738491629,1,-1,-5,-5,-1,-1,-2,-1
1470243738492130,-3,1,6,2,-2,-2,0,-2
1470243738492130,-2,-1,0,-3,0,0,-1,-2
1470243738514652,-2,-1,2,2,0,0,-1,-2
1470243738514652,0,0,-8,-7,-3,-3,-1,-1
1470243738515651,0,-1,0,-2,1,0,-1,-1
1470243738515651,-1,-1,-3,2,-1,0,-1,-2
1470243738529163,-1,2,4,-1,0,-1,-2,-1
1470243738529163,-1,-5,-8,3,-1,1,-2,-3
1470243738529663,-2,0,-1,-1,-1,-3,-1,-1
1470243738529663,-1,0,4,-4,0,0,0,1
1470243738559690,1,-5,-2,-3,0,-1,0,-1
1470243738559690,0,0,3,0,-1,0,-1,0
1470243738560691,-1,-3,-11,-4,-2,-1,-1,-1
1470243738560691,-1,0,-5,2,-2,0,-1,-1
1470243738574703,-2,-3,-2,3,0,-2,0,1
1470243738574703,0,1,10,2,-2,-1,-1,-1
1470243738575206,-1,-3,-14,-5,-2,-1,1,0
1470243738575206,-1,0,14,7,-1,-3,0,1
1470243738588218,-3,-1,-5,-3,-1,0,0,0
1470243738588218,0,1,0,-6,-2,0,-1,1
1470243738596724,-1,-3,0,5,-1,-1,-1,-3
1470243738596724,0,0,-7,-1,-1,-1,-1,-2
1470243738611738,-1,-2,3,-10,-2,-3,-2,-3
1470243738611738,-1,-3,0,0,-1,-1,-1,-1
1470243738613238,1,1,9,-1,0,1,-2,2
1470243738613238,-1,-4,-10,-3,0,0,-2,-2
1470243738634757,0,-2,7,4,-1,-2,-2,-1
1470243738634757,-2,-2,-12,-1,-1,-1,-2,-2
1470243738635759,-2,-1,3,-5,-2,-2,-2,-2
1470243738635759,0,0,6,5,-2,-1,1,-2
1470243738648269,-1,-3,-10,-6,-1,1,-1,-1
1470243738648269,-1,-2,2,2,0,0,-1,0
1470243738656778,-1,0,1,4,-1,0,-1,-2
1470243738656778,-1,2,2,-1,-3,-1,-2,-2
1470243738671793,-1,-1,-5,-2,-2,0,-2,-2
1470243738671793,-2,2,-6,-6,-1,-2,1,-1
1470243738672292,0,-1,0,-1,0,-1,-2,-1
1470243738672292,0,-1,-2,-3,0,-3,-2,-2
1470243738694812,1,0,2,3,-1,0,0,-2
1470243738694812,-1,-1,0,3,0,-1,0,0
1470243738695813,-1,-2,4,-6,-1,0,-2,-1
1470243738695813,-3,-2,-6,-5,-2,-2,-2,0
1470243738708824,0,1,-1,1,0,-2,-1,-1
1470243738708824,0,-2,8,2,0,0,0,0
1470243738716831,0,-2,-17,2,2,1,0,-3
1470243738716831,0,0,4,-5,-4,0,-2,0
1470243738731344,-2,0,-1,4,-1,-3,-1,-1
1470243738731344,1,0,1,0,1,0,-1,0
1470243738732345,-2,-4,-26,-11,-4,-3,-1,-2
1470243738732345,-1,2,9,1,0,-1,-1,0
1470243738754865,-2,-3,-4,0,1,0,1,0
1470243738754865,0,0,4,0,0,-1,-1,-1
1470243738755366,0,-2,5,-1,-1,0,-2,-2
1470243738755366,-1,-2,-6,0,1,1,-1,-1
1470243738768378,0,0,0,-3,-2,-1,0,0
1470243738768378,0,-3,-10,0,-2,-2,-2,1
1470243738776385,0,1,4,1,0,-1,0,-1
1470243738776385,-2,-3,-1,-3,0,0,0,1
1470243738791398,-3,-1,-1,-4,-2,-3,-3,-3
1470243738791398,-2,1,7,1,0,0,0,-1
1470243738792399,0,0,-1,-6,-3,-2,-1,-1
1470243738792399,1,-1,0,0,-2,-1,-1,-3
1470243738814920,-1,-2,0,1,-1,0,0,0
1470243738814920,-1,-3,-6,-2,0,-2,-3,-4
1470243738815420,0,-1,5,0,-2,1,1,2
1470243738815420,-1,1,4,5,2,-1,0,-2
1470243738828431,-1,-1,-3,-5,0,-1,-1,0
1470243738828431,-2,-2,-4,-1,-2,-2,0,-1
1470243738836940,-2,0,5,-1,-1,-1,-1,0
1470243738836940,-1,-2,-2,1,-1,-1,-1,1
1470243738851451,0,0,2,0,0,-3,-2,0
1470243738851451,0,-1,5,3,-1,-1,-1,-1
1470243738852454,-2,-2,-15,-6,-3,-1,-1,-1
1470243738852454,1,-1,5,0,0,-1,-1,-1
1470243738874973,0,-2,-6,-3,-3,-2,-4,-2
1470243738874973,1,1,6,0,0,0,-1,0
1470243738875473,1,2,10,1,1,0,-2,-1
1470243738875473,-2,-3,-16,-5,-3,-4,-1,-2
1470243738896993,-3,-1,-1,2,0,2,1,0
1470243738896993,-1,-5,-1,-6,-4,-2,-1,-1
1470243738897994,-2,-1,3,7,1,-2,-1,0
1470243738897994,-1,1,-1,-7,0,0,-1,-1
1470243738911507,-1,0,0,0,-2,-2,-2,-1
1470243738911507,-2,-2,-14,-5,-2,-1,-1,-2
1470243738912508,-1,-1,-1,2,0,-1,1,0
1470243738912508,-1,-2,7,0,-1,-2,-2,0
1470243738934527,0,-1,0,-1,-1,0,-2,-1
1470243738934527,-2,-1,-12,-4,-5,0,-2,-1
1470243738935530,-1,0,4,1,1,-1,-2,-1
1470243738935530,-1,-3,-4,-1,2,0,0,-2
1470243738957548,-2,-2,-4,-3,-1,-1,-1,-2
1470243738957548,-2,2,10,6,-1,0,-1,-1
1470243738958048,-2,-3,-5,-3,-2,-1,0,-1
1470243738958048,-2,-1,0,1,0,-2,-1,0
1470243738971561,-1,-1,-2,-3,1,0,-1,-1
1470243738971561,-1,-2,-5,-3,-2,-1,-1,-2
1470243738972561,0,-1,2,0,-1,-2,-1,0
1470243738972561,-1,-1,-7,-3,-1,-1,-1,0
1470243738995081,1,0,10,2,-2,-3,-2,0
1470243738995081,-2,-1,-8,-8,0,-2,1,1
1470243738995582,-1,0,5,1,-1,-3,-2,1
1470243738995582,-2,-1,-4,0,-2,0,-3,-1
1470243739024607,0,-2,-3,1,-1,-1,0,0
1470243739024607,-3,-1,3,2,0,1,1,-2
1470243739025609,-3,-1,-6,-8,-1,-2,-1,-2
1470243739025609,1,1,9,10,-3,-1,-1,-1
1470243739031615,0,2,-6,-1,-1,-3,2,-2
1470243739031615,-1,0,-5,-4,-3,0,-2,-1
1470243739032114,-2,-3,2,-1,-1,0,-1,0
1470243739032114,-2,-2,-8,0,0,-2,-1,-2
1470243739054635,-1,0,16,-3,1,0,2,1
1470243739054635,-2,-5,-14,-2,-1,-4,-1,-2
1470243739055636,-1,-2,0,0,-1,0,-1,-2
1470243739055636,0,-1,0,-3,-1,0,-1,-1
1470243739077154,-1,-1,-4,-2,-2,-1,-2,-2
1470243739077154,0,2,4,0,-2,-2,-1,-1
1470243739078155,0,-2,-2,3,-1,1,-1,0
1470243739078155,-1,-4,-1,-6,-2,-1,-1,0
1470243739091668,-2,-1,-6,-1,-1,1,-1,-2
1470243739091668,1,0,3,-1,0,-1,-4,0
1470243739092168,-2,-1,5,6,0,-2,-2,-3
1470243739092168,-1,0,-11,-8,-1,-1,-1,0
1470243739114688,-2,-1,-1,4,-2,-1,-2,-1
1470243739114688,-1,-1,5,1,0,0,-2,1
1470243739115689,-4,0,0,-3,-1,-2,-1,-2
1470243739115689,-1,-1,-1,-1,-1,1,-1,-2
1470243739144720,-1,-1,-2,-1,1,0,-1,-1
1470243739144720,-2,0,0,0,-1,-1,-1,-2
1470243739145716,1,-1,2,1,-2,0,0,1
1470243739145716,-2,-1,-3,-3,-3,-2,-2,-1
1470243739151722,-1,-2,-5,-1,-2,-1,-2,-4
1470243739151722,-1,0,7,-3,-2,0,-4,-1
1470243739152223,-1,-4,-12,-3,0,-2,-1,0
1470243739152223,-2,0,3,-1,-2,0,0,0
1470243739174743,0,-2,5,1,-1,-1,-2,1
1470243739174743,-1,0,-5,1,0,1,-1,-1
1470243739175743,1,-1,-3,-5,-2,-1,0,0
1470243739175743,-1,0,2,5,-1,-2,-1,0
1470243739197263,-2,-5,-15,-10,-2,-1,-2,-2
1470243739197263,-1,-3,-1,-1,0,-2,0,0
1470243739198764,-1,0,3,0,0,-1,0,-1
1470243739198764,0,-1,2,0,1,1,1,-2
1470243739211778,0,2,10,4,-1,-1,0,0
1470243739211778,-3,-1,-10,-1,-3,-1,0,1
1470243739212278,-1,-2,-9,-10,-3,-1,-1,-2
1470243739212278,-1,-2,0,3,1,-1,-1,0
1470243739234796,-1,-1,-5,-7,-3,-2,-2,-2
1470243739234796,0,1,3,2,1,0,-1,0
1470243739235797,0,1,4,6,-1,0,-1,-1
1470243739235797,-2,-3,-2,-8,-1,1,-1,-2
1470243739257317,-3,-3,-4,1,-1,0,1,-1
1470243739257317,1,-3,-2,-2,-1,-1,0,-1
1470243739257818,-1,1,3,-1,-1,0,-2,-2
1470243739257818,-1,-2,-1,0,0,-2,0,-1
1470243739271831,-1,0,-5,1,0,0,-1,1
1470243739271831,-2,-3,-2,2,0,-1,-1,-1
1470243739272330,-1,-1,-9,-10,-2,-1,-1,-2
1470243739272330,-2,-3,0,3,-1,0,1,0
1470243739294850,0,1,-8,-1,-2,-3,-1,-2
1470243739294850,0,-3,2,-3,0,0,1,-1
1470243739295352,0,1,-2,2,0,0,0,0
1470243739295352,0,-3,10,0,-1,-1,-2,-3
1470243739317370,-1,0,-6,0,-1,-1,0,1
1470243739317370,0,0,3,-1,-2,-3,-1,-1
1470243739317872,-2,-2,8,3,-2,-2,-2,0
1470243739317872,-1,-1,-11,-8,-3,0,-1,0
1470243739331884,1,2,15,0,-1,1,-1,2
1470243739331884,-2,-3,-9,2,-2,-2,0,-3
1470243739332384,-1,-1,-1,0,-1,0,1,0
1470243739332384,1,1,4,2,-1,-1,-1,1
1470243739354904,-1,-3,-9,-2,0,0,0,-2
1470243739354904,-1,-1,0,-7,0,-1,-2,-2
1470243739355405,1,0,3,3,0,-1,0,-1
1470243739355405,0,-1,-5,-1,0,0,-2,-1
1470243739377425,-1,-2,-12,-8,-2,-1,-2,-2
1470243739377425,-1,1,9,0,0,-1,0,-1
1470243739377925,-2,-2,-2,-2,-3,-3,-1,0
1470243739377925,-3,-1,-1,-1,2,0,0,1
1470243739391937,-4,-4,-2,0,-1,-2,-1,-2
1470243739391937,-2,-2,8,2,-1,1,-1,-1
1470243739392438,-1,-2,-17,-3,0,-1,-3,-3
1470243739392438,-2,-1,1,-2,-2,-1,-1,1
1470243739414958,1,-1,-9,0,0,-1,0,-1
1470243739414958,-1,1,4,1,2,-1,-1,0
1470243739415459,-2,-4,3,-3,1,0,1,-2
1470243739415459,0,-2,-7,-8,-4,-4,-3,-4
1470243739437479,-1,-1,6,2,1,-1,-1,0
1470243739437479,0,1,4,2,0,-2,-1,1
1470243739437979,1,-1,-1,-5,-2,-1,-2,-2
1470243739437979,-2,2,2,2,-1,-2,0,-1
1470243739451490,-1,0,1,-1,0,0,-2,2
1470243739451490,-2,-5,-7,-6,-2,-2,-1,-2
1470243739452492,-2,-2,0,3,0,-2,-1,0
1470243739452492,-2,-2,-5,-1,-2,-1,0,-1
1470243739475012,-1,-1,2,0,-1,-2,-2,-1
1470243739475012,0,0,-3,-2,0,0,0,-2
1470243739475512,0,1,-4,2,-1,0,-1,-1
1470243739475512,-1,-1,1,0,2,1,-2,-1
1470243739497032,1,-3,6,2,-1,-1,0,0
1470243739497032,-1,0,-4,-2,1,-1,-1,0
1470243739498032,0,-2,1,-5,-2,-2,-1,1
1470243739498032,-1,-4,-17,1,-2,-4,-1,-4
1470243739511044,-2,0,5,-2,0,-1,0,-2
1470243739511044,-2,0,-2,-3,-3,-2,-2,0
1470243739519553,0,1,6,5,0,-3,-2,-1
1470243739519553,-1,0,3,-4,1,-1,-1,0
1470243739535065,-1,-1,-14,3,-4,-2,-1,-1
1470243739535065,2,-1,-13,-4,-3,-2,-1,-1
1470243739535569,-3,1,1,-1,-1,-1,-1,0
1470243739535569,0,-1,4,-1,-1,-1,1,-2
1470243739557085,-3,-2,-1,-4,-4,1,0,-2
1470243739557085,0,-3,-4,2,1,-1,0,0
1470243739558087,-1,-2,-1,-3,-1,1,0,0
1470243739558087,-2,0,-3,-1,-2,-1,-1,-1
1470243739571098,1,0,5,-1,0,0,0,-1
1470243739571098,0,0,-2,3,-1,-1,-2,-3
1470243739579105,-2,-1,-2,0,0,0,-1,-1
1470243739579105,-1,1,2,-1,0,1,-1,0
1470243739594620,-3,-2,-5,-1,0,-2,1,0
1470243739594620,-2,0,8,1,-1,0,-1,0
1470243739595620,0,0,2,1,0,-2,-1,-1
1470243739595620,0,-1,-7,-4,-3,-2,-1,1
1470243739617140,0,-1,4,-1,0,1,0,0
1470243739617140,-2,-3,-6,-3,-1,1,-1,-2
1470243739618141,2,-2,-4,-3,-2,-1,0,-1
1470243739618141,0,0,0,1,0,-1,0,0
1470243739631154,0,-2,4,3,0,-1,-2,-1
1470243739631154,-2,-2,0,-2,-2,-3,0,0
1470243739639161,-2,1,1,-1,-1,0,1,-1
1470243739639161,0,-1,6,4,-1,-1,-3,-1
1470243739654675,1,0,-4,-4,-1,-2,-1,-2
1470243739654675,0,-2,4,1,0,0,-1,-1
1470243739655675,-2,-1,-12,-1,-2,-2,-2,0
1470243739655675,-1,-1,2,-3,1,-2,-2,-2
1470243739677193,-2,-1,6,-1,-2,-2,-1,0
1470243739677193,-1,1,1,0,-1,-2,-1,0
1470243739678195,-2,-1,2,-2,-1,-1,-1,0
1470243739678195,-1,-5,-8,2,-1,0,0,-3
1470243739691207,-3,-1,2,-5,-2,0,-2,-1
1470243739691207,-1,0,-1,-3,-1,-1,-2,-1
1470243739699215,-2,0,5,3,0,-2,0,-1
1470243739699215,-1,-2,-6,-4,0,-2,1,-1
1470243739714727,-1,-1,-11,0,0,-1,0,-2
1470243739714727,-1,-2,-4,-7,-3,0,1,-1
1470243739715727,0,0,3,-1,-1,0,-1,0
1470243739715727,-1,0,3,-1,-1,-1,-2,-1
1470243739737248,2,0,-3,1,-1,1,1,0
1470243739737248,-2,-3,-13,-6,0,0,-1,-2
1470243739738248,-1,-3,0,1,-2,-1,1,-1
1470243739738248,0,-1,-3,2,-2,-1,-1,1
1470243739750759,-2,-1,5,0,0,-1,-2,1
1470243739750759,-2,-2,-2,-1,-3,-2,-2,0
1470243739759768,-1,-3,-4,-1,1,-1,-1,-3
1470243739759768,-3,0,0,-2,0,0,0,0
1470243739774281,0,-1,3,-2,-2,-1,-1,-2
1470243739774281,1,-4,-1,2,-1,0,0,0
1470243739780788,-1,-2,-4,-4,-2,-1,-2,-1
1470243739780788,0,-2,3,0,-1,0,-1,-2
1470243739797303,-1,-1,-4,-1,-1,-1,-2,-3
1470243739797303,-1,-1,7,0,0,0,-1,0
1470243739798803,-3,-3,-2,-1,0,0,-1,-3
1470243739798803,-3,-4,-18,-6,-4,-2,-2,0
1470243739810813,-2,-1,12,2,0,-3,-2,-3
1470243739810813,-1,0,-7,-3,-2,-3,-1,-1
1470243739820324,1,1,8,10,2,1,0,0
1470243739820324,-1,-2,2,-14,-2,-1,-2,1
1470243739833834,-1,-4,-20,-4,-4,-2,-3,0
1470243739833834,0,2,8,0,0,-2,-1,-3
1470243739840842,-2,0,-1,-2,-3,-2,-1,-1
1470243739840842,0,-1,0,-1,1,-1,-2,-1
1470243739857356,0,-1,-6,0,1,-1,-1,1
1470243739857356,-1,0,5,0,-1,0,0,0
1470243739858856,-1,-4,-8,-6,-3,-1,0,-1
1470243739858856,0,2,3,6,0,-1,0,-2
1470243739879875,-1,-2,1,-4,-3,-2,-2,-2
1470243739879875,-1,-1,-4,1,1,0,-1,-2
1470243739881377,0,-1,1,-3,-3,-1,-2,1
1470243739881377,0,-2,-9,-3,-4,-1,-1,-1
1470243739893889,-1,0,4,2,-2,-1,-1,-1
1470243739893889,-1,-1,0,-2,-1,-2,0,0
1470243739900895,-2,-2,-9,-5,-2,-3,-1,-2
1470243739900895,1,1,12,8,0,-1,0,0
1470243739917410,-3,0,-4,-2,2,1,-2,0
1470243739917410,0,0,-4,0,-2,0,-1,-2
1470243739919914,1,1,-2,-3,1,1,-1,-1
1470243739919914,0,0,0,2,0,-2,1,-2
1470243739939929,-3,-2,2,-4,-4,-1,-1,-1
1470243739939929,-1,-2,1,1,-2,-2,-2,1
1470243739941431,-1,2,1,2,0,-2,1,-3
1470243739941431,-2,-2,-7,-1,-1,-1,-1,-3
1470243739953942,-1,-1,-2,-1,-1,1,1,-1
1470243739953942,0,-2,-6,-5,-2,0,0,-2
1470243739960950,-2,-2,-4,-3,-1,0,-2,1
1470243739960950,-3,-1,11,9,-1,-1,-1,1
1470243739977463,-2,-2,-12,-11,-1,-2,-1,-1
1470243739977463,0,0,3,2,0,0,-1,-2
1470243739978965,0,-4,-3,-6,-1,1,0,-2
1470243739978965,0,-1,7,6,-1,-1,-2,-2
1470243739999983,0,-3,-1,-2,-3,-1,-1,-1
1470243739999983,1,0,5,4,-1,-1,-1,1
1470243740001484,-1,-1,0,-6,0,-1,-2,-1
1470243740001484,-3,-1,-11,-13,-2,-2,-1,-2
1470243740013996,-1,-1,11,5,0,0,2,-1
1470243740013996,-1,-3,-4,-4,0,-1,-2,-2
1470243740021002,1,-2,0,5,1,1,0,-1
1470243740021002,0,-2,1,0,-1,-1,-1,-1
1470243740037518,-2,1,-4,2,0,-1,-1,-2
1470243740037518,-2,-1,-3,-4,0,-1,-1,-1
1470243740038518,0,0,1,2,-1,-1,0,1
1470243740038518,-1,-2,-12,-7,0,-1,-1,-3
1470243740067045,-1,1,2,0,1,-2,-1,2
1470243740067045,-1,-2,-1,-3,-2,-1,-1,-1
1470243740069549,-2,-1,-1,-1,-4,-2,-2,1
1470243740069549,0,-1,-2,1,-1,-1,0,-1
1470243740074051,-1,-1,-3,-1,-1,-3,-2,-2
1470243740074051,-4,-4,-1,-3,0,-2,-2,-1
1470243740081558,-2,-1,5,0,-3,-1,-1,0
1470243740081558,1,0,-2,-3,0,0,0,-1
1470243740097070,-2,-4,-8,4,-3,0,-1,-1
1470243740097070,-1,0,-7,-10,-2,0,0,-1
1470243740099072,-1,0,-4,0,-2,-2,-2,-1
1470243740099072,-2,1,8,1,-1,-1,-3,-1
1470243740120092,1,0,8,2,1,0,1,1
1470243740120092,-2,-2,-16,-3,-1,0,0,0
1470243740121093,1,-3,0,-3,-1,-2,-2,-1
1470243740121093,-1,-1,1,-2,-2,-3,-1,0
1470243740134104,0,-1,2,-1,1,0,-2,-2
1470243740134104,-1,0,13,7,-2,0,-2,0
1470243740140610,-2,-1,-17,-4,-1,-2,-1,-1
1470243740140610,-2,-1,-2,3,2,0,-1,-1
1470243740157125,-1,-2,-5,-5,-2,0,-2,0
1470243740157125,1,1,1,0,-1,-1,1,1
1470243740158626,-1,0,-1,0,0,-1,-1,-3
1470243740158626,-1,-2,-5,-3,-2,-1,0,-1
1470243740179645,-2,0,0,-1,-4,-2,-4,0
1470243740179645,-3,-2,1,2,0,-2,-2,-2
1470243740181146,0,-2,-3,0,0,0,-1,1
1470243740181146,0,1,-1,-1,-2,-1,-1,0
1470243740194659,-2,0,2,0,-1,-1,-1,-4
1470243740194659,-1,0,-11,-4,-2,-1,-1,-2
1470243740201165,-2,-2,5,2,-2,-2,-1,-1
1470243740201165,-2,-1,2,-4,-1,-1,-3,1
1470243740217179,-1,-2,-5,-3,-1,0,0,-3
1470243740217179,0,0,3,1,-2,-1,-2,-2
1470243740219682,-1,-1,-1,0,1,1,1,-3
1470243740219682,0,-3,-1,-1,-1,-1,1,-2
1470243740239698,-2,0,1,-1,-1,-2,0,-1
1470243740239698,1,-2,-3,-5,-1,-1,-1,0
1470243740241200,1,-2,-1,1,0,-2,-2,1
1470243740241200,-1,-2,2,0,0,0,-2,-1
1470243740254212,-1,-1,-4,-2,-2,-1,-1,-1
1470243740254212,-2,-2,3,0,0,-1,-1,-2
1470243740261219,-2,1,-4,-2,0,0,-1,-1
1470243740261219,-1,1,0,0,-1,-2,0,-2
1470243740277233,-1,-1,-1,4,0,0,-1,1
1470243740277233,-2,-2,-11,-3,-2,-1,-1,0
1470243740279735,-1,1,8,-2,0,0,0,-1
1470243740279735,-2,-2,0,0,0,-2,-2,-3
1470243740299753,0,-3,-4,-1,0,0,-1,-2
1470243740299753,-1,1,7,1,-1,0,0,1
1470243740301254,-2,1,-1,0,0,-2,0,-1
1470243740301254,0,-1,-6,-4,-3,-1,1,-1
1470243740314265,-1,0,9,3,0,-1,-1,0
1470243740314265,-1,-1,-1,4,1,-1,-1,-1
1470243740320772,-2,-1,-2,-4,-3,-1,0,-2
1470243740320772,-1,0,-2,-4,-1,-3,-1,1
1470243740337287,-1,-1,-6,-3,-1,0,0,-2
1470243740337287,0,-4,-1,1,-1,0,-1,0
1470243740338788,-1,0,-1,-5,-1,0,0,1
1470243740338788,0,0,2,4,-2,-1,-1,0
1470243740359806,-1,0,1,-1,1,0,-1,1
1470243740359806,0,-1,1,-2,-2,-1,-1,-1
1470243740361308,-2,-3,-5,0,-2,-2,-1,0
1470243740361308,-1,-1,-5,-6,-1,2,0,-1
1470243740373819,-2,2,-3,0,-3,-2,-2,-1
1470243740373819,-2,1,2,2,-1,0,1,-2
1470243740382327,-1,-3,0,-3,-3,0,-2,-1
1470243740382327,0,-1,-2,0,0,-1,-2,-3
1470243740397340,-1,-1,3,-3,-1,-1,-2,-1
1470243740397340,-1,0,0,-2,0,-2,-2,-1
1470243740398842,-1,0,2,3,1,-1,-2,-1
1470243740398842,-1,-3,-6,-8,-3,0,-1,0
1470243740419861,-2,-2,-2,-1,-1,-2,0,-1
1470243740419861,-1,-1,-1,-5,-1,0,0,0
1470243740421362,0,1,1,1,0,-1,0,0
1470243740421362,-1,-1,-2,3,1,-1,-3,-2
1470243740434378,1,-1,-4,-6,-2,-2,-2,-2
1470243740434378,-2,0,6,2,-3,-2,-2,-3
1470243740449887,-2,0,-5,-5,0,0,0,-1
1470243740449887,-4,-3,1,0,-3,-2,-1,-2
1470243740457394,0,1,0,-1,2,-2,-1,-1
1470243740457394,0,-2,-2,-2,-3,-1,-1,-1
1470243740458895,0,-1,-1,-2,-1,-1,0,-1
1470243740458895,-3,-1,-2,1,-1,-1,-1,1
1470243740479915,-2,0,5,-4,1,1,-2,0
1470243740479915,-2,-6,-12,3,-2,-1,0,-2
1470243740481916,0,1,-1,3,-1,-2,0,-1
1470243740481916,-2,-1,1,-3,-1,-1,0,-1
1470243740493427,0,0,-1,0,-2,1,2,0
1470243740493427,-1,0,3,1,1,-2,-1,0
1470243740502438,-1,-2,-3,-3,-1,1,-2,0
1470243740502438,-1,-2,1,5,-1,0,-1,-1
1470243740524955,-2,-2,-2,-2,-1,-1,1,-1
1470243740524955,-1,-1,-1,-2,-1,2,-1,-2
1470243740526957,-1,-3,-1,-2,-5,-2,-1,-2
1470243740526957,0,2,3,-2,-1,0,-1,-1
1470243740539968,-1,-3,-17,0,-1,-1,-3,-1
1470243740539968,-1,-2,-4,-4,1,-1,0,0
1470243740541471,0,1,7,2,0,-2,-1,-2
1470243740541471,-1,0,4,3,-1,-2,0,-2
1470243740553481,0,-1,-9,-3,-3,-1,0,-1
1470243740553481,-2,-2,0,-2,1,-2,-1,-3
1470243740562488,-1,-2,-1,-3,-1,-1,-1,0
1470243740562488,1,-2,-2,-4,-2,-1,-1,-1
1470243740577502,0,-1,4,2,-2,-2,-1,-2
1470243740577502,1,1,-1,-4,-3,-1,-1,1
1470243740579004,0,-2,-2,-2,-2,-1,-2,-1
1470243740579004,1,-1,-3,-2,-1,-1,-1,0
1470243740600021,-2,-1,-1,0,-2,-1,-2,-1
1470243740600021,-1,1,2,1,0,-2,-1,0
1470243740601523,-1,-4,0,0,-1,-2,-3,0
1470243740601523,0,-1,-9,-3,-2,-2,0,-2
1470243740613535,0,-2,0,1,2,0,-1,-1
1470243740613535,-1,0,-2,-1,-1,0,-1,1
1470243740623043,-1,0,3,0,-1,-1,-1,-1
1470243740623043,-3,0,5,1,0,0,-1,1
1470243740638057,-1,-1,1,-2,-1,-1,0,0
1470243740638057,-2,-2,5,3,-2,-2,-2,-2
1470243740639557,0,-3,-19,-8,-2,-2,-1,-3
1470243740639557,-1,0,-1,-4,-2,1,0,-1
1470243740659575,-1,1,8,5,2,-2,-2,0
1470243740659575,-1,0,1,-4,-3,-1,-1,0
1470243740661078,0,-1,2,1,-2,0,1,1
1470243740661078,0,-5,-11,-3,-2,1,-2,-1
1470243740673588,-4,-3,6,-1,-3,0,0,-1
1470243740673588,0,2,0,-1,1,0,-2,-1
1470243740682597,-2,1,2,-5,-2,0,1,-2
1470243740682597,-1,-1,-7,4,-1,-1,-3,-2
1470243740697110,0,-3,-10,-8,0,-1,-1,-1
1470243740697110,-2,-3,1,1,-1,-2,1,-1
1470243740698610,-3,-1,-4,-1,-1,0,-1,-2
1470243740698610,-1,-1,3,-2,0,-2,-1,-1
1470243740720131,0,1,3,0,0,-2,0,0
1470243740720131,-1,-1,-12,-4,1,-1,0,-1
1470243740721631,0,1,7,3,0,-2,-3,-1
1470243740721631,-2,-1,6,-1,-1,-1,-1,1
1470243740733143,-1,-4,-4,1,-2,-2,-1,-2
1470243740733143,0,-2,-10,-5,-3,-2,-1,1
1470243740742150,0,-2,0,2,2,-1,0,-1
1470243740742150,2,0,3,-1,-1,0,-1,-2
1470243740757163,-2,1,3,-2,-3,0,-1,-1
1470243740757163,-1,-2,-6,1,0,-1,-1,-1
1470243740758664,-1,1,-2,0,-1,-1,-1,0
1470243740758664,-1,-1,7,2,0,-2,-1,-1
1470243740780185,-1,0,-2,-1,-2,0,-1,-2
1470243740780185,-3,-1,0,-1,-2,0,-2,-1
1470243740781685,-1,0,5,1,-2,-2,-1,-1
1470243740781685,-2,2,1,-3,0,0,0,-2
1470243740802706,-2,-3,-4,-3,-2,-1,-1,1
1470243740802706,-1,0,4,-3,0,-1,-1,0
1470243740804206,-1,-2,-10,1,-1,-2,0,0
1470243740804206,0,-4,-15,-7,-2,-2,-2,-2
1470243740817216,0,0,1,-2,0,-1,0,-2
1470243740817216,0,-2,0,-2,-1,0,-1,-1
1470243740819221,-2,-1,0,-1,-1,0,-1,0
1470243740819221,1,-1,-4,-1,-1,1,0,0
1470243740839738,-2,-3,-4,-2,-1,-3,-2,0
1470243740839738,-3,0,27,5,-3,-1,-1,-1
1470243740841239,0,-3,-5,-3,-1,1,0,0
1470243740841239,-2,-1,-4,-2,-2,0,0,0
1470243740862259,-2,-2,-10,-2,-2,-1,-3,-2
1470243740862259,-1,0,1,-2,-1,-1,-1,-1
1470243740863759,-1,0,-3,-4,-2,-1,-1,-2
1470243740863759,-2,0,7,3,0,-2,-2,0
1470243740877273,-2,1,-7,-3,-2,-2,-2,0
1470243740877273,-1,-2,1,-1,-1,0,-1,-3
1470243740878773,-2,-2,-2,-2,-2,-1,-2,0
1470243740878773,-1,-3,-3,-1,0,0,0,-1
1470243740899791,-2,1,8,3,0,-1,-1,0
1470243740899791,0,-1,-11,-2,1,0,-1,0
1470243740901293,-1,0,2,-1,-1,-1,-1,-1
1470243740901293,-3,-5,-2,-3,-2,-1,-2,-1
1470243740922312,-1,3,12,4,-1,-2,-1,0
1470243740922312,0,-1,-5,-2,1,-2,-1,-1
1470243740923816,-2,0,-2,-1,-1,-2,-2,-1
1470243740923816,0,1,-8,-2,-2,-1,0,-1
1470243740937827,-1,-3,4,0,-3,-1,-1,-2
1470243740937827,0,1,-4,0,-4,-1,-1,0
1470243740938826,1,0,5,-1,0,0,-1,0
1470243740938826,-1,-2,-12,-1,-1,-1,-2,-2
1470243740959846,-1,0,-8,-4,-1,-1,0,-2
1470243740959846,-2,-1,-7,2,0,0,0,-2
1470243740961347,-2,-1,10,-1,0,0,0,-1
1470243740961347,-1,-1,11,-2,-1,-1,-1,0
1470243740982366,-1,-2,-6,-3,-2,1,-1,0
1470243740982366,-1,-2,-4,0,1,0,-3,0
1470243740983867,-1,0,2,-1,-1,0,-2,-1
1470243740983867,1,-1,-3,-2,1,-1,-1,-1
1470243740996378,0,0,3,0,-3,-2,-1,-1
1470243740996378,0,-1,0,0,-3,-1,-1,-2
1470243741004886,-1,-2,-1,-7,-1,-2,-1,-1
1470243741004886,-1,0,-2,0,-1,-2,0,0
1470243741019900,-1,-2,-10,-2,0,-3,-2,-1
1470243741019900,0,0,-5,-5,-1,-2,0,0
1470243741021401,-1,0,1,5,-2,-1,-2,-3
1470243741021401,-1,0,5,-1,-5,-2,0,-2
1470243741042419,-1,1,-4,1,1,0,0,0
1470243741042419,-1,-3,3,0,-2,0,-2,-1
1470243741043923,-1,-1,-3,-2,-1,-3,0,1
1470243741043923,-2,-2,-3,-2,1,0,-1,-1
1470243741056934,0,-3,-10,-2,-3,-2,-1,-1
1470243741056934,-2,-2,5,1,0,0,-1,0
1470243741064940,-1,0,-7,-2,-1,-2,-1,-1
1470243741064940,-1,2,12,10,0,-1,-1,-1
1470243741079953,0,-4,-6,-6,-1,-2,0,-1
1470243741079953,-1,-2,-9,-2,-3,-2,-1,1
1470243741081455,-1,-1,-3,0,-1,0,-2,-1
1470243741081455,-1,-2,0,-3,-2,0,0,-1
1470243741102475,-2,-2,-7,-4,-1,-1,-3,-2
1470243741102475,-1,-1,4,0,-1,-1,1,-2
1470243741103977,-1,-2,-2,0,0,-1,-1,1
1470243741103977,-3,-2,-3,-4,-1,-2,-3,-1
1470243741116486,1,0,2,2,-1,-3,0,0
1470243741116486,1,0,-6,-1,-2,-2,0,0
1470243741123494,-1,-2,-1,-1,0,3,0,-1
1470243741123494,0,0,-3,-1,0,-2,-1,1
1470243741140007,-1,-3,-10,-3,-2,0,-2,0
1470243741140007,-1,1,1,0,0,0,-1,0
1470243741141511,0,-1,-2,-2,-1,-1,-1,0
1470243741141511,-1,-1,-1,-1,-2,0,-1,0
1470243741162527,-1,0,7,1,0,1,-1,-2
1470243741162527,-1,-1,0,-2,0,-1,-1,-2
1470243741164028,-3,-1,0,1,-1,-2,-1,-1
1470243741164028,-1,-2,0,-1,-1,-1,0,0
1470243741176540,0,-3,-12,-4,-4,0,0,-1
1470243741176540,1,-1,5,-3,1,-1,-1,0
1470243741183546,-1,-2,-14,-2,-1,-1,-2,0
1470243741183546,-1,1,2,0,-1,0,-2,-1
1470243741200060,0,2,9,4,0,-1,-1,-1
1470243741200060,-2,-4,-6,-3,-1,-2,-2,-1
1470243741201562,-2,1,-4,2,-1,0,-1,-1
1470243741201562,0,0,3,-7,0,-1,0,0
1470243741222582,-1,-2,-6,-3,-1,-1,-2,-1
1470243741222582,-1,-2,15,-1,-1,0,-1,-1
1470243741224083,-1,-3,4,4,-2,-1,-1,-1
1470243741224083,-1,-4,-3,0,-1,-2,-1,0
1470243741237096,-1,0,-2,1,1,0,0,1
1470243741237096,0,1,-19,-3,-1,-1,-1,0
1470243741243601,-2,-3,11,-4,-2,-3,0,-3
1470243741243601,0,-2,-1,1,-2,1,0,-2
1470243741260115,-1,-2,6,-1,1,0,1,-1
1470243741260115,-1,-3,-2,2,-1,-2,0,1
1470243741261615,0,1,-3,-4,-2,-1,-2,-2
1470243741261615,0,2,5,1,0,-2,-1,-1
1470243741282135,-2,-1,-8,-2,0,-1,-1,-1
1470243741282135,-3,-1,2,-4,-2,0,-1,-1
1470243741284137,1,1,0,0,-1,-2,1,1
1470243741284137,-2,-1,-1,-3,-3,-2,-1,-2
1470243741296148,0,-1,7,-1,0,0,-1,-1
1470243741296148,-2,-3,-16,-2,-1,-2,-3,-2
1470243741304655,-2,-2,-6,-1,-1,-3,0,-2
1470243741304655,0,-1,3,1,-1,-1,-1,-1
1470243741319672,0,0,13,2,-2,0,-1,-1
1470243741319672,0,1,-16,-1,0,0,0,-1
1470243741321170,-1,-3,-2,-5,-3,1,-2,0
1470243741321170,-2,1,-7,2,-2,-3,-1,-2
1470243741342690,-2,-2,7,-6,1,-3,0,-1
1470243741342690,-2,-2,-9,1,-2,-2,-2,0
1470243741343690,0,1,0,1,2,0,0,-1
1470243741343690,-3,-4,-14,-2,-3,-2,-2,-1
1470243741356200,-3,-3,0,-2,-3,-1,-1,-1
1470243741356200,-1,-2,-6,-2,-2,0,-2,-3
1470243741364709,0,1,6,3,0,1,-1,1
1470243741364709,-1,0,2,-2,0,0,-1,-1
1470243741379722,-1,-6,-25,-6,-1,-2,-3,-1
1470243741379722,-2,-2,23,1,-1,-2,1,-1
1470243741381224,-1,2,7,5,0,-1,0,-1
1470243741381224,-2,-1,-26,-12,0,0,-3,-2
1470243741402247,1,3,4,4,-2,0,0,0
1470243741402247,-2,1,9,2,0,-1,-1,-2
1470243741404246,-2,-3,-8,-2,-1,-2,-2,1
1470243741404246,-1,0,16,7,0,1,-1,0
1470243741415755,-3,-3,-20,-8,-3,0,-2,-1
1470243741415755,0,0,-12,1,-1,-1,0,-1
1470243741424763,-4,-13,-13,-11,-5,-2,-2,-3
1470243741424763,0,0,-4,-6,0,-2,0,1
1470243741438778,-2,-2,13,5,-3,-1,-2,-1
1470243741438778,-1,2,9,4,2,1,0,0
1470243741447283,0,0,-1,-2,1,0,1,0
1470243741447283,-2,-6,-20,-3,-2,-1,-1,-2
1470243741462297,1,3,29,3,0,-1,0,0
1470243741462297,0,-3,-26,-3,0,0,-1,0
1470243741463799,-2,-4,0,0,-1,-1,-2,-3
1470243741463799,1,2,3,1,0,0,1,-1
1470243741476308,0,-1,-15,4,0,-1,0,0
1470243741476308,-1,0,40,0,-1,0,-1,-2
1470243741484816,3,1,-12,2,0,-2,-2,1
1470243741484816,-2,-2,-5,-3,-1,-2,-2,-3
1470243741499830,-3,5,12,3,0,-3,-2,-3
1470243741499830,0,-2,0,-4,-2,-1,1,0
1470243741501332,0,2,10,-2,-1,0,-1,-1
1470243741501332,0,0,3,1,1,0,1,1
1470243741522350,0,-2,-4,-3,0,1,0,-1
1470243741522350,-3,-8,-7,-8,-5,-1,-2,-1
1470243741523851,0,5,11,2,-1,0,0,-2
1470243741523851,-2,-4,7,3,-3,-2,-1,-1
1470243741536363,-2,-3,-19,-6,-2,0,-1,0
1470243741536363,0,1,5,4,1,-2,-1,-2
1470243741544871,-2,-3,-17,-4,-2,-3,-2,0
1470243741544871,-1,-3,26,1,-3,-1,-1,-2
1470243741559383,-1,0,-5,-1,-2,-1,-2,-2
1470243741559383,1,6,47,6,2,0,1,0
1470243741565896,-2,-8,-58,-2,-2,-2,-1,-3
1470243741565896,-2,1,-22,-3,-3,-2,-2,-2
1470243741581905,0,-2,14,-5,-1,-1,0,-1
1470243741581905,-1,3,3,4,1,2,-1,0
1470243741589911,-2,-5,-13,-6,-2,-1,0,-2
1470243741589911,-3,-4,15,6,-3,-2,0,-2
1470243741595917,-2,-5,-23,-10,-3,-2,1,-2
1470243741595917,3,2,4,1,2,-2,0,-2
1470243741604925,-2,2,17,5,-1,-1,0,-2
1470243741604925,1,1,-3,1,3,1,-1,1
1470243741620438,-2,0,30,4,-3,-2,-1,-1
1470243741620438,-2,-8,-22,-14,-3,0,-2,0
1470243741625944,2,1,-8,-6,0,2,1,0
1470243741625944,3,2,5,3,1,-1,0,-1
1470243741642459,-3,6,40,8,-2,-3,-1,-1
1470243741642459,-5,-22,-87,-13,-3,-1,-2,0
1470243741643960,-6,-15,76,7,-4,-3,-4,-4
1470243741643960,-2,-11,-107,-14,-2,-1,0,0
1470243741656473,5,15,25,0,4,1,0,2
1470243741656473,0,2,-28,0,0,-1,-1,0
1470243741679992,-2,-1,11,-5,-3,-1,-2,-1
1470243741679992,-1,0,13,0,-3,-1,-3,-3
1470243741680493,-3,-9,-9,5,-1,-1,-2,-2
1470243741680493,-2,2,20,-4,-2,-1,-2,-1
1470243741686499,0,3,-22,0,2,0,-1,-1
1470243741686499,-1,2,30,0,-1,-1,0,0
1470243741702513,-1,-3,-36,-6,-1,-1,-2,-1
1470243741702513,-1,-4,4,4,-3,-2,-3,-1
1470243741704013,2,4,24,3,1,1,-2,0
1470243741704013,-7,-4,-31,-8,-5,-3,-4,-2
1470243741716026,0,-1,5,3,0,0,1,0
1470243741716026,-2,2,2,-9,-2,-1,-2,-1
1470243741725033,-4,-2,0,-3,-4,-2,-1,-2
1470243741725033,2,5,21,8,1,0,0,-1
1470243741739045,3,-1,-3,-5,2,1,-1,0
1470243741739045,-3,1,17,7,-5,-5,-2,-4
1470243741746051,-5,-5,-47,-17,-3,-1,-1,-2
1470243741746051,1,5,-8,3,2,2,0,0
1470243741762067,0,-15,-30,-12,-1,0,0,-1
1470243741762067,0,14,18,6,-2,0,-2,-1
1470243741764067,-3,-4,40,13,-2,-1,0,-1
1470243741764067,0,-8,-9,-15,0,-1,-2,-1
1470243741784585,-1,10,-1,11,-1,-1,-1,-2
1470243741784585,3,-8,-77,-10,3,3,0,0
1470243741786588,1,1,44,2,-1,-3,-1,-1
1470243741786588,1,8,26,5,2,0,1,1
1470243741807607,-5,-13,-4,-9,-3,-2,-2,-3
1470243741807607,-1,1,10,1,-1,-2,-1,0
1470243741809108,4,5,-19,-1,0,1,-1,0
1470243741809108,-6,-8,35,-5,-3,-2,-1,-3
1470243741822121,2,5,21,6,0,0,-2,2
1470243741822121,-5,-11,-20,-4,-5,-1,-1,-4
1470243741824121,-1,3,-7,-2,-1,0,0,2
1470243741824121,1,4,10,5,1,1,0,0
1470243741844640,-2,-2,3,-6,-2,-2,-1,-1
1470243741844640,2,4,29,7,-1,-2,-1,-1
1470243741846643,-1,-2,-2,-4,1,1,-1,-1
1470243741846643,1,1,-15,5,1,1,-1,1
1470243741858652,-2,-2,-7,-1,-3,-3,0,-2
1470243741858652,0,-3,24,-5,1,-1,1,-1
1470243741867160,-2,-5,-56,-8,0,-1,-1,-2
1470243741867160,-2,-6,17,7,-2,-4,-1,-2
1470243741882173,-2,0,-4,4,1,0,0,0
1470243741882173,-1,-4,-4,-6,-1,-1,-2,-2
1470243741884175,-1,6,28,10,1,-1,-1,-1
1470243741884175,-1,-5,-19,-9,-1,0,0,-3
1470243741904695,-2,-1,-29,-5,-2,0,-1,1
1470243741904695,-3,2,30,12,-1,0,-1,0
1470243741906697,5,14,29,1,3,1,0,2
1470243741906697,-7,-21,-79,-18,-6,-4,-2,-2
1470243741918206,1,-6,-33,-6,0,-1,0,-1
1470243741918206,-4,3,53,14,-1,-3,-3,-4
1470243741928214,0,-1,15,-4,-3,-2,-1,-1
1470243741928214,1,1,-14,-5,-1,-1,-2,-1
1470243741942228,1,2,2,11,3,1,-1,-1
1470243741942228,-1,-3,-26,-6,-1,-3,0,1
1470243741943729,-7,-16,-32,-19,-5,-2,-1,-4
1470243741943729,2,4,-12,2,0,0,1,-2
1470243741964748,-4,-4,12,-1,-5,-2,-2,-2
1470243741964748,0,3,19,10,-1,0,-1,0
1470243741966249,1,0,-29,-3,2,2,0,0
1470243741966249,0,3,25,1,2,1,-1,1
1470243741978260,-2,-1,7,-3,-1,-2,-1,-1
1470243741978260,-2,-1,2,-8,-2,-1,0,0
1470243741987270,-1,-2,-18,0,-5,-3,-1,-1
1470243741987270,-3,-3,28,4,-3,-2,-3,-4
1470243742002283,0,5,10,2,1,0,0,0
1470243742002283,-2,-6,-34,-10,-4,-2,-1,-3
1470243742004284,-2,-4,-3,2,-2,-2,0,-3
1470243742004284,0,5,8,-2,0,0,0,-2
1470243742024802,-3,-2,31,9,-1,-1,-2,-3
1470243742024802,1,-1,-27,-8,1,1,-1,0
1470243742026302,1,8,-2,3,2,1,1,1
1470243742026302,-5,-11,-1,-5,-5,-5,-3,-3
1470243742038814,1,1,-6,-4,-2,-1,-2,-1
1470243742038814,0,2,26,5,1,-2,0,-2
1470243742047325,-1,-1,-30,-10,-1,0,-1,0
1470243742047325,-2,0,51,18,-2,0,-1,-1
1470243742062335,-4,-11,-62,-14,-4,-1,-1,1
1470243742062335,0,-1,18,-1,-1,-1,0,2
1470243742063837,-2,0,-6,-3,-1,-1,-1,-1
1470243742063837,1,4,-3,-4,0,0,0,1
1470243742084855,-4,-6,0,8,0,-2,-3,-3
1470243742084855,-4,-3,-8,-6,-3,-2,-2,-1
1470243742086357,0,-4,20,-1,-2,-1,-1,-2
1470243742086357,-1,-4,-13,-6,-2,-1,1,0
1470243742098368,0,7,22,2,0,-1,0,-1
1470243742098368,0,0,-14,-4,2,0,-1,0
1470243742114883,0,1,48,12,-1,-1,-1,0
1470243742114883,-2,0,1,1,-1,-2,0,0
1470243742122392,-1,0,-3,-3,1,-1,1,-1
1470243742122392,-4,-7,-43,-8,-2,0,0,-1
1470243742123893,1,2,18,-1,2,-3,-1,0
1470243742123893,0,0,-12,1,-2,-1,-1,-1
1470243742144909,-1,3,6,2,-2,-2,0,-1
1470243742144909,2,2,1,-6,2,1,0,-2
1470243742146411,1,0,-9,3,0,3,-1,-1
1470243742146411,-1,4,5,-3,-2,-1,-1,-1
1470243742158422,1,0,43,6,-1,0,-2,1
1470243742158422,1,1,6,7,-1,0,-1,-1
1470243742167430,-1,0,-19,0,-1,-1,-1,0
1470243742167430,0,-1,6,-4,0,-1,-1,0
1470243742182444,-1,0,-6,-6,-2,-1,1,0
1470243742182444,-1,1,19,1,-2,0,-1,1
1470243742183944,-3,-6,-21,1,-2,0,-1,-2
1470243742183944,-3,-4,-25,-9,-2,-2,-2,-2
1470243742204977,-2,-1,-21,0,-2,0,-1,0
1470243742204977,-6,-6,-1,2,-2,-2,-2,-2
1470243742206978,-2,-2,-7,0,0,-2,-1,0
1470243742206978,0,0,21,-2,-2,-1,-1,0
1470243742219492,1,-2,-5,-7,0,0,-1,-1
1470243742219492,0,0,-26,-11,0,-1,-1,0
1470243742225996,-3,-9,9,-1,-4,-3,-1,-4
1470243742225996,-2,-4,-27,-1,-1,0,0,-2
1470243742242510,-1,-1,13,5,0,0,0,0
1470243742242510,-1,1,-9,-4,-2,-1,0,-2
1470243742244011,1,2,6,-3,1,-1,-1,0
1470243742244011,0,3,11,5,0,-1,0,-1
1470243742265030,-3,-1,19,-6,-2,-2,-1,-1
1470243742265030,-1,-5,-51,-8,-4,0,-2,-1
1470243742266531,0,0,-6,-3,0,-2,-1,0
1470243742266531,-2,-2,6,6,-3,-1,-1,-2
1470243742278545,-1,-3,-4,-4,-1,-2,-1,-3
1470243742278545,-2,0,24,3,-2,-1,0,-1
1470243742287552,0,2,-14,-2,0,1,0,0
1470243742287552,-2,-6,-26,-6,0,1,-2,0
1470243742302564,-1,0,12,-3,-1,0,-3,-4
1470243742302564,-4,-3,-9,4,-2,-2,-2,-1
1470243742304070,0,-4,-6,-4,-1,-1,-1,-1
1470243742304070,-1,3,37,14,0,0,-1,1
1470243742325085,0,2,3,0,-1,0,0,-1
1470243742325085,1,2,-5,-4,0,-1,1,0
1470243742326587,-5,-5,12,-5,-2,-2,-2,-3
1470243742326587,3,4,-18,-2,1,0,-1,0
1470243742338597,0,5,36,11,1,0,0,0
1470243742338597,-4,-9,-7,2,-3,-2,-2,-3
1470243742347605,3,6,-8,2,1,0,0,1
1470243742347605,-5,-9,-19,-10,-5,-3,-3,-4
1470243742362118,-2,-4,-27,-8,-2,-1,-2,1
1470243742362118,1,3,27,6,1,-3,-1,0
1470243742364119,-3,-6,-5,-2,-2,0,-1,1
1470243742364119,0,0,-6,0,1,-2,0,-1
1470243742384639,-1,-7,-22,0,-3,-2,-2,-1
1470243742384639,0,1,21,-4,-3,0,-1,-1
1470243742386642,-4,0,-20,-1,-3,-1,-1,-2
1470243742386642,3,6,35,-1,-1,-2,2,2
1470243742398651,-5,-5,-25,-1,-2,-1,0,-1
1470243742398651,2,0,-12,-5,0,1,-1,-1
1470243742407659,0,3,33,4,-2,-2,0,-1
1470243742407659,-3,2,29,-2,-2,-4,-3,-3
1470243742422172,0,-2,-2,-3,0,-2,0,0
1470243742422172,-1,0,-15,3,-1,0,-2,-2
1470243742424175,0,0,-5,0,-2,-2,-1,-3
1470243742424175,-3,-7,-12,-5,-3,-1,-1,-1
1470243742444691,-2,-6,-32,-7,-2,-2,-2,-1
1470243742444691,-3,-5,35,5,0,0,-1,-1
1470243742446193,1,1,-12,-5,0,-1,-1,-1
1470243742446193,0,-1,-13,-4,0,1,1,0
1470243742458704,-1,1,14,-2,-3,-2,-2,-3
1470243742458704,1,0,1,-3,-2,-2,-1,0
1470243742467213,-1,0,-4,1,0,-2,-1,-2
1470243742467213,1,-3,13,-2,-1,-1,-1,-3
1470243742482226,-1,3,-1,-4,-1,1,0,2
1470243742482226,-2,2,5,2,-1,-2,0,1
1470243742483727,-3,-6,-1,-3,-2,0,-2,-2
1470243742483727,0,-1,-10,-3,-1,0,0,-1
1470243742504747,-2,-6,-3,9,-1,-2,-2,-1
1470243742504747,0,5,11,1,-1,0,-1,-1
1470243742506747,-1,0,21,3,0,0,1,0
1470243742506747,0,0,-23,-1,0,0,0,0
1470243742518258,-1,-1,9,-6,-2,0,0,-2
1470243742518258,1,0,-7,-2,2,0,-1,-1
1470243742527266,-2,-5,-4,-4,-2,-1,-2,-2
1470243742527266,-1,4,-9,4,0,1,-1,0
1470243742542280,0,-2,-2,-5,0,-1,-1,-2
1470243742542280,-2,-1,11,-5,-1,0,-1,-1
1470243742543781,-2,-1,-15,0,-2,-2,-2,-2
1470243742543781,-1,0,20,10,1,-1,-2,-1
1470243742564801,0,-3,-43,-5,0,-2,-2,-4
1470243742564801,-1,-3,-7,-2,-3,-1,0,0
1470243742566302,0,1,16,-6,-1,-2,-2,-3
1470243742566302,-1,-3,4,-3,-4,-2,-2,0
1470243742578315,1,4,15,6,-1,-2,0,-1
1470243742578315,-3,-12,-56,-17,-1,-1,0,-2
1470243742587320,-2,2,20,10,1,0,1,-1
1470243742587320,-4,-6,-8,1,-2,-2,-3,-3
1470243742603836,2,1,7,-2,-1,-1,-1,-1
1470243742603836,1,3,16,2,-1,-2,-2,0
1470243742603836,0,-3,-15,-5,-1,0,-1,1
1470243742603836,1,-1,3,2,0,-1,-1,-1
1470243742624855,-1,-2,-5,-2,-3,0,-1,-2
1470243742624855,-3,1,4,3,-1,-1,-3,-1
1470243742626355,0,-2,-5,-5,0,-1,-1,2
1470243742626355,-3,-3,12,-1,-2,-2,1,-3
1470243742638366,-4,-5,-37,-10,-2,0,-2,0
1470243742638366,-1,-3,-11,2,-4,0,-2,0
1470243742647374,-2,-1,11,3,-2,0,-2,-1
1470243742647374,1,7,29,10,1,0,0,0
1470243742662387,1,2,7,1,-1,0,0,-3
1470243742662387,-4,-6,-14,-7,-3,-4,-1,-2
1470243742663889,-1,0,3,8,0,-2,-1,-1
1470243742663889,-1,-5,-4,-10,-3,-1,0,-1
1470243742684907,-1,1,-3,0,0,-2,-1,1
1470243742684907,-1,-4,1,2,0,0,-2,-1
1470243742686412,-2,-4,-35,-10,-3,-2,0,0
1470243742686412,1,5,22,-5,-2,1,-1,-1
1470243742707428,-3,-8,7,5,-2,-3,-2,-4
1470243742707428,1,4,16,5,2,0,0,0
1470243742708929,-2,0,-13,-7,-1,-2,-2,0
1470243742708929,-3,-4,-30,0,-1,-1,0,0
1470243742722442,-1,2,-6,-8,0,-1,-2,-2
1470243742722442,-1,-1,7,6,0,-1,1,-2
1470243742723942,-2,-3,5,2,0,0,-1,-1
1470243742723942,-2,-3,-27,-9,-1,-3,0,0
1470243742744961,-4,-1,32,2,-2,-2,0,0
1470243742744961,-1,-2,1,-1,-1,0,0,-2
1470243742746463,1,-1,-8,0,0,-1,-2,0
1470243742746463,1,-3,-18,-6,-2,-2,-1,-1
1470243742774988,0,2,41,10,1,0,-2,-1
1470243742774988,-1,1,1,-7,-2,0,0,-1
1470243742776490,-2,0,14,7,-1,1,0,0
1470243742776490,-3,-1,-3,2,-2,-1,-2,-1
1470243742782495,-1,-1,-3,0,3,3,1,4
1470243742782495,-1,1,-4,-3,-3,-1,-2,-3
1470243742783999,-3,-1,7,2,-3,-5,-2,-4
1470243742783999,-1,0,3,0,-1,-1,0,0
1470243742805016,0,-4,-30,-5,0,-2,0,-2
1470243742805016,-1,-1,-8,0,-1,-1,-1,-1
1470243742806522,-2,-7,4,0,-1,0,-1,-2
1470243742806522,-3,-5,-3,-5,-2,-3,-3,-2
1470243742827535,-1,1,-17,-1,-1,-1,-1,-1
1470243742827535,0,-2,18,3,-5,-1,-2,-1
1470243742829037,2,3,1,-3,0,-1,1,-1
1470243742829037,-3,-3,-9,-2,-2,-2,1,-1
1470243742842549,2,1,6,1,0,0,-1,-2
1470243742842549,-3,-2,-21,-12,0,1,-1,0
1470243742844050,-1,0,32,7,-2,-2,-1,-1
1470243742844050,-2,-1,-11,-5,-1,0,-2,-1
1470243742864569,0,4,7,6,-2,-1,0,-1
1470243742864569,-1,-3,0,-1,-1,-1,-2,-2
1470243742866570,-1,-6,-17,-8,0,-1,0,0
1470243742866570,-1,0,1,-2,-1,0,-1,0
1470243742887590,-3,-1,6,3,-1,-3,-3,-1
1470243742887590,0,4,18,4,1,0,0,2
1470243742889090,0,0,-11,-2,-1,-1,-1,-2
1470243742889090,0,0,-7,-1,-1,0,0,-3
1470243742901602,0,-7,-13,-8,-2,-2,0,1
1470243742901602,-2,2,7,1,0,-2,-1,-2
1470243742909112,-1,0,-20,-8,-1,-1,-1,0
1470243742909112,-2,1,17,10,-2,-1,-1,0
1470243742924625,-3,-4,-20,-10,-3,0,-2,0
1470243742924625,-1,-1,3,2,0,-2,-2,-1
1470243742926624,0,-4,-23,-8,-2,-1,-2,-1
1470243742926624,-1,-2,11,3,0,0,-3,-3
1470243742947145,-1,0,-8,-2,-2,0,0,0
1470243742947145,-1,-2,10,1,0,-3,-2,-4
1470243742949145,-3,0,-2,-3,-1,0,-1,0
1470243742949145,0,-2,-6,-1,0,-2,-2,-2
1470243742961656,-2,-2,-4,-4,-1,-1,0,-1
1470243742961656,-2,-2,-8,-3,0,0,0,1
1470243742968662,-1,2,17,11,-1,-2,-1,-2
1470243742968662,-1,-1,1,-5,2,0,0,1
1470243742984677,1,0,9,1,0,-1,-1,-1
1470243742984677,0,-4,-25,-7,-3,-2,1,-1
1470243742986678,-2,-1,0,3,-1,-1,-2,-1
1470243742986678,0,1,-8,-5,-1,-1,-1,0
1470243743007198,1,3,8,10,0,0,0,0
1470243743007198,-1,-2,0,-2,-1,1,-2,-1
1470243743008699,0,-1,-11,-7,0,1,1,0
1470243743008699,-3,-2,3,2,0,-2,-1,-1
1470243743021712,0,-1,-2,-6,-2,-1,-1,-1
1470243743021712,0,-3,-12,-2,1,-1,-1,-1
1470243743028716,-3,1,23,2,-1,-2,-2,-1
1470243743028716,-3,-6,-7,-10,-3,-1,-1,-1
1470243743044731,0,0,24,8,2,1,0,-1
1470243743044731,-1,1,9,5,-2,-1,-2,-2
1470243743046233,1,-1,-7,-7,-3,-1,-2,-2
1470243743046233,-1,-2,-11,-7,2,-1,-1,-3
1470243743067255,-2,-1,2,3,-3,-1,-1,0
1470243743067255,-3,-2,12,-5,-1,-2,-3,0
1470243743069253,1,-1,-10,2,1,-1,-1,0
1470243743069253,0,-2,-11,0,-1,-1,0,-1
1470243743080764,-1,-3,-20,-9,-3,-2,0,-1
1470243743080764,-1,1,8,3,0,0,1,-1
1470243743089771,-3,-4,11,-1,-2,-2,0,-2
1470243743089771,0,3,4,3,0,0,0,-1
1470243743104784,-2,-2,-16,-8,-1,-1,-1,-3
1470243743104784,0,-2,-5,-2,-2,-2,0,-1
1470243743106286,-1,3,10,1,0,-1,-1,-1
1470243743106286,0,-1,-3,0,-2,0,-1,0
1470243743127305,-2,-1,4,-1,-1,-1,-2,-3
1470243743127305,-2,1,14,3,0,-2,-2,-1
1470243743129807,-2,-1,2,1,-2,0,-1,-1
1470243743129807,1,0,6,-4,-1,-1,-1,0
1470243743141319,-1,-2,-2,-6,-1,0,-4,1
1470243743141319,1,-3,-8,-1,-1,-2,-1,-2
1470243743149825,-3,3,31,5,-1,-1,-1,-2
1470243743149825,-1,-3,-22,-1,-4,-2,-1,-1
1470243743164838,-2,-3,11,3,-1,-2,0,-1
1470243743164838,-1,1,-6,-4,0,-1,-1,-1
1470243743166340,-1,-4,-19,-5,0,0,-1,0
1470243743166340,-2,0,7,0,-1,1,0,-1
1470243743194865,-3,-6,-14,-5,-3,0,-1,-2
1470243743194865,0,2,0,0,0,2,0,-2
1470243743201871,0,-1,12,-3,-1,-2,-1,-3
1470243743201871,-2,3,14,4,-1,-1,-2,-1
1470243743202373,1,0,-12,-3,-1,0,-2,-1
1470243743202373,-1,-3,4,0,-1,0,-2,0
1470243743209879,0,-2,1,0,1,-2,-2,-1
1470243743209879,0,-2,-6,-2,0,1,0,-2
1470243743224893,-1,2,13,2,1,0,1,-1
1470243743224893,-3,-4,-9,-3,-4,-3,-1,-1
1470243743226394,0,-1,-10,-4,-2,-1,-1,1
1470243743226394,-1,-2,0,1,0,-4,-3,-2
1470243743247414,-1,-3,-4,-3,-3,-3,0,1
1470243743247414,0,4,6,2,1,0,1,1
1470243743248914,1,0,-27,-5,1,0,-2,-1
1470243743248914,-4,-6,6,0,-5,-2,-2,-3
1470243743260927,1,1,-2,-3,0,-2,-2,-2
1470243743260927,-1,-3,-20,0,-1,0,0,-2
1470243743269936,-4,-5,1,-3,-4,-1,-1,-5
1470243743269936,1,2,-12,-3,1,0,0,0
1470243743284946,1,2,5,-3,0,0,0,0
1470243743284946,-2,-3,-1,1,-2,-2,-3,-1
1470243743286450,0,3,-2,4,1,0,2,0
1470243743286450,-2,2,4,4,0,-3,-1,-1
1470243743307467,-5,-7,-9,-3,-3,-1,-1,-1
1470243743307467,0,2,-2,-3,0,1,-1,0
1470243743308968,-1,0,1,-2,-2,0,0,-3
1470243743308968,0,-4,-9,-5,-3,-2,0,-1
1470243743320979,0,2,3,1,0,0,-3,0
1470243743320979,-1,-1,5,0,-1,-1,-2,-3
1470243743329987,1,-1,1,2,-1,0,-2,-1
1470243743329987,-2,-1,0,3,-1,1,0,-2
1470243743345000,-1,-1,-7,-2,-2,0,-1,-2
1470243743345000,1,-2,1,-1,1,-1,-1,-2
1470243743346502,-1,2,-3,-2,-2,-1,-1,-1
1470243743346502,-1,-3,-20,-7,-4,-3,0,-2
1470243743367520,-3,-2,0,1,-1,-2,0,0
1470243743367520,0,-2,-4,-2,0,-2,0,0
1470243743369026,-2,-4,1,-1,0,-1,0,0
1470243743369026,-1,-2,1,1,0,0,-2,0
1470243743381036,-1,-3,-9,-6,-1,-3,-2,0
1470243743381036,-2,1,16,7,-3,-2,-1,-3
1470243743390043,-1,-2,-6,-1,1,0,-2,1
1470243743390043,-1,-5,-27,-8,-3,-2,-1,-3
1470243743405054,-4,1,31,9,-1,-1,0,-2
1470243743405054,-2,-2,-15,-7,1,0,-2,0
1470243743406555,-1,-2,-2,0,-2,-2,-2,-1
1470243743406555,0,1,9,-3,0,1,-1,2
1470243743427075,2,4,28,7,1,0,0,-2
1470243743427075,-2,-1,4,0,-3,-2,-1,-2
1470243743429075,-1,-1,-17,1,-1,0,-2,-2
1470243743429075,1,1,28,-4,1,0,-1,0
1470243743441086,-2,-3,-19,-5,0,-1,-1,-1
1470243743441086,-2,-2,7,3,-2,-2,-3,1
1470243743450094,-1,-1,2,-2,2,1,2,1
1470243743450094,-1,0,1,0,-2,0,0,-1
1470243743464107,-1,-2,-8,-2,-1,1,-1,-2
1470243743464107,-1,-2,0,-2,0,-3,1,-2
1470243743471113,-3,-3,-8,-5,-2,-2,2,-1
1470243743471113,-1,0,5,2,-1,-1,-9,-1
1470243743487630,1,-1,-7,-4,-2,-4,-1,-1
1470243743487630,-2,-3,-3,-2,1,4,0,0
1470243743489130,-1,-1,-7,-4,-2,-1,-1,0
1470243743489130,1,2,-2,1,-1,0,3,0
1470243743501643,-3,-3,-18,-3,0,-1,-3,-3
1470243743501643,-3,0,-1,4,-2,-3,-3,0
1470243743509648,1,4,-3,-1,-1,1,0,-1
1470243743509648,-1,-6,-13,-5,-2,-2,0,-2
1470243743524661,1,0,-5,-3,-2,-3,-2,0
1470243743524661,-2,-4,-10,-9,-3,-1,1,-1
1470243743531167,-2,-7,-14,-1,-2,-1,-2,-2
1470243743531167,-2,3,21,8,-2,-2,0,0
1470243743547183,2,1,2,-2,-1,1,-1,-2
1470243743547183,-2,-3,-8,-4,0,0,-1,-1
1470243743548684,2,1,11,-1,-3,-3,0,-1
1470243743548684,1,0,-7,-2,-1,1,0,0
1470243743561194,-1,0,1,1,-2,-1,0,-1
1470243743561194,0,2,5,1,0,2,0,0
1470243743570204,-2,-4,-6,-4,0,-3,-3,0
1470243743570204,0,1,7,2,0,0,0,-1
1470243743584215,-2,-4,-17,-2,-2,0,-1,0
1470243743584215,0,1,0,0,-2,-2,-2,-1
1470243743591221,-1,-1,4,0,-2,-1,-1,0
1470243743591221,-2,-3,-12,-2,-3,-2,-1,-3
1470243743607236,-1,2,6,-1,0,1,0,0
1470243743607236,-1,0,12,-1,-2,-2,-1,-2
1470243743608737,-1,-1,0,-1,-1,0,-1,-3
1470243743608737,-4,0,7,-1,-3,-3,-1,-1
1470243743620751,1,0,-5,-2,2,1,0,0
1470243743620751,-2,-7,-15,-5,-3,-2,-1,-1
1470243743629755,0,0,4,1,-1,1,1,0
1470243743629755,0,0,2,-1,-1,-2,-1,-3
1470243743644269,-3,-3,-1,1,2,-2,-1,-2
1470243743644269,1,1,-7,-3,-1,1,-1,1
1470243743650777,-2,-2,8,0,0,-1,-4,2
1470243743650777,0,-1,-9,-5,-2,0,-1,-3
1470243743667291,-1,0,21,5,-4,-1,0,-1
1470243743667291,1,3,-13,-3,1,0,-1,1
1470243743668791,-3,-4,-5,-1,-1,-3,-2,-3
1470243743668791,1,-2,-2,1,-1,-1,0,1
1470243743689811,0,2,7,-4,-2,-1,0,-2
1470243743689811,-1,1,7,2,-2,-1,-1,-2
1470243743691313,-1,0,3,1,-2,-1,-1,-2
1470243743691313,-1,-5,-21,-5,-1,0,0,-1
1470243743704325,0,-1,-1,-1,0,-2,-1,0
1470243743704325,-1,0,12,0,-1,-1,-1,-2
1470243743710829,-1,2,1,-1,0,-1,-1,0
1470243743710829,0,2,6,1,-1,-2,-1,0
1470243743727344,-1,-2,-17,-4,-2,-3,-1,-1
1470243743727344,1,-2,-1,-3,-1,1,-1,-1
1470243743728846,-1,-2,3,-1,-2,-3,-2,-3
1470243743728846,-2,0,-3,1,0,0,0,-1
1470243743749865,-2,-6,-10,-6,-2,0,-2,-1
1470243743749865,-1,-2,-26,-3,-2,0,-1,-2
1470243743751365,0,-2,13,4,-1,2,1,0
1470243743751365,-3,-3,-16,-3,1,-1,-1,-1
1470243743764377,0,2,2,-2,-1,-1,-2,-1
1470243743764377,-1,-2,-4,-3,-2,-1,0,1
1470243743770884,0,-1,-3,-1,1,0,-2,0
1470243743770884,-4,-2,12,3,0,-2,0,-2
1470243743787899,-2,-2,-13,-8,-2,-4,0,-1
1470243743787899,-2,-3,8,3,-2,0,-1,-3
1470243743789400,-3,0,0,0,-1,1,1,-3
1470243743789400,2,5,12,2,1,1,2,1
1470243743809918,-2,1,-3,1,-3,-2,-1,-3
1470243743809918,-1,-5,2,-1,3,1,-1,2
1470243743811419,0,1,-1,0,-1,-2,-2,-1
1470243743811419,-2,-3,-7,-5,-4,-2,-5,-2
1470243743823430,-3,-3,-3,-2,-3,-2,-1,-2
1470243743823430,-1,2,13,3,0,-1,0,-1
1470243743832438,-1,2,-2,-3,-2,-4,-2,-2
1470243743832438,0,-3,-27,-7,0,-1,-1,-1
1470243743847454,-2,1,23,9,0,1,0,0
1470243743847454,-4,-1,-5,3,-1,-2,-1,-3
1470243743848953,-1,-7,-22,-9,-4,-2,-2,-1
1470243743848953,2,5,17,2,0,-1,0,-1
1470243743869972,-2,1,-7,2,1,0,-1,-1
1470243743869972,0,0,4,-4,-1,-2,-1,0
1470243743871975,1,0,0,2,0,0,1,0
1470243743871975,0,-3,-5,-5,-1,-1,-1,-2
1470243743892491,-1,-2,2,1,-1,-2,-2,-1
1470243743892491,1,0,9,4,-1,-1,0,-2
1470243743893994,-2,0,1,-1,-2,0,-2,-2
1470243743893994,-4,-5,-3,-2,-1,-2,-3,-2
1470243743907508,-1,-4,-6,-2,-1,0,1,-1
1470243743907508,-2,-1,-8,-3,-4,-4,-1,-2
1470243743909007,-2,-2,-3,-3,-1,-1,0,-1
1470243743909007,-2,1,5,4,-1,-2,-1,1
1470243743930025,0,-2,1,0,-2,2,-1,1
1470243743930025,0,-2,-5,-3,-3,-2,-2,-1
1470243743931527,-3,-3,-10,-4,-1,-2,0,-1
1470243743931527,2,-2,-9,0,-1,0,-1,-1
1470243743943539,-2,-1,28,5,-1,-1,-4,-2
1470243743943539,-1,-1,-19,0,-1,-1,-2,-2
1470243743953047,1,-2,8,-5,0,1,0,-2
1470243743953047,-3,1,-7,7,0,0,0,1
1470243743967559,1,-2,-19,-8,0,0,0,1
1470243743967559,-4,0,26,7,-1,-2,-3,-1
1470243743969060,-1,-2,-23,-5,-1,-2,-1,-2
1470243743969060,-1,-6,1,-7,-3,-2,0,0
1470243743990080,2,-1,6,4,3,0,-1,0
1470243743990080,-2,-2,-29,-11,-1,-1,-1,0
1470243743991580,-3,-2,-7,-3,-4,-2,-1,0
1470243743991580,-1,2,13,3,3,0,0,-3
1470243744003593,-4,-5,-14,-2,-3,-3,-2,0
1470243744003593,3,-2,-10,-4,-1,0,-1,0
1470243744012599,0,0,20,5,-3,-1,-3,-2
1470243744012599,0,-2,0,3,0,0,-1,-1
1470243744027113,0,1,-3,-2,-1,-1,-1,-1
1470243744027113,-1,-2,-3,-4,0,1,0,-2
1470243744029114,0,-1,-6,-4,-2,1,-1,-1
1470243744029114,-1,1,4,-1,-3,-1,-1,-2
1470243744049634,-1,0,6,-3,0,-2,1,-1
1470243744049634,0,-5,-28,-4,-3,-1,0,0
1470243744051134,-2,0,25,9,-1,-3,-2,-2
1470243744051134,-1,0,9,2,-3,0,0,1
1470243744064146,-2,-1,-10,-2,-2,-1,-1,-1
1470243744064146,0,-2,10,-3,-1,0,-1,-2
1470243744071655,-1,1,4,0,-1,-1,0,0
1470243744071655,-1,-1,-11,-6,0,-2,-1,-3
1470243744087170,-3,1,21,3,-3,-2,0,-2
1470243744087170,1,3,7,1,0,-2,-2,0
1470243744088668,1,-1,-15,-4,0,-1,-1,-1
1470243744088668,-1,-3,2,-4,-2,1,-2,-2
1470243744109687,1,-3,-4,0,-2,1,-2,0
1470243744109687,0,-3,5,-1,-4,-1,0,-3
1470243744111689,-1,0,6,2,3,0,0,-1
1470243744111689,-1,-4,-14,-7,-2,-1,-2,-2
1470243744124200,0,-2,-7,-2,-2,-1,-2,-1
1470243744124200,0,0,10,4,-1,1,0,0
1470243744130709,-1,-1,-12,-4,0,1,0,0
1470243744130709,-2,-2,4,1,-2,-2,-1,-2
1470243744147220,0,0,-3,-2,2,0,-1,-1
1470243744147220,-2,-1,-5,-1,0,-2,-1,-3
1470243744148722,-1,1,7,-1,-1,0,0,-2
1470243744148722,-1,-7,-31,-4,-2,-2,-2,0
1470243744170242,-1,-1,3,-1,-1,0,-1,-2
1470243744170242,-1,1,7,3,1,0,-2,1
1470243744171243,-1,-2,-10,-1,-3,-1,-1,0
1470243744171243,0,-1,5,-1,-1,1,0,0
1470243744183253,-1,0,-8,-3,-3,-3,0,-4
1470243744183253,-2,-4,-4,-2,0,-3,0,-1
1470243744192261,-1,-2,5,5,-2,-1,-2,-1
1470243744192261,-1,0,4,-8,1,-2,-2,-1
1470243744207275,-2,-1,-14,1,-2,0,0,-2
1470243744207275,-4,0,26,1,-2,0,-2,-1
1470243744208776,-1,0,-21,0,-3,-2,0,1
1470243744208776,-1,-3,-8,-2,-2,0,-2,-2
1470243744229796,3,2,21,0,1,-1,-2,-1
1470243744229796,-1,-4,-7,-4,-2,-3,-3,-2
1470243744231296,0,-5,-25,-4,-1,-3,-1,-1
1470243744231296,-2,1,21,8,0,0,-1,1
1470243744243307,-3,-2,-7,-2,-2,-2,-1,-1
1470243744243307,1,-1,-1,0,0,2,-1,0
1470243744253317,-1,-3,19,-1,1,0,0,-3
1470243744253317,-3,-1,-15,-7,-2,-2,1,-2
1470243744267329,-1,-3,-5,-4,0,0,-1,-1
1470243744267329,-1,0,6,-1,-2,-2,-1,-2
1470243744269335,-4,-5,-28,-4,-2,-3,-2,-2
1470243744269335,-2,-2,2,2,-2,-2,-2,0
1470243744289849,0,-1,-9,-5,-1,-1,-1,0
1470243744289849,-1,0,1,-3,-3,-1,0,1
1470243744291850,0,0,8,1,-2,-1,-2,-2
1470243744291850,-1,0,10,3,1,0,0,-2
1470243744303362,0,-1,-14,-4,-3,0,-1,1
1470243744303362,0,-1,-7,-4,1,0,-1,1
1470243744312369,-2,3,21,0,-2,-3,-3,-2
1470243744312369,-2,0,1,0,-2,-1,1,-1
1470243744327382,-1,-2,8,4,-1,-2,-1,-3
1470243744327382,0,1,-18,-6,1,-2,1,0
1470243744328884,1,-1,15,1,0,0,0,2
1470243744328884,-3,0,5,1,-2,-1,-1,-1
1470243744349902,-5,-1,1,-3,-3,-1,-1,1
1470243744349902,-2,-1,-1,3,-2,-2,0,-3
1470243744351403,1,0,-6,-2,0,0,1,0
1470243744351403,0,-1,2,-3,0,0,-2,-1
1470243744363414,-2,-3,12,4,-2,-1,0,-2
1470243744363414,-1,-1,-2,2,-3,-1,-1,-1
1470243744372423,-3,-4,-8,-4,-2,1,-3,0
1470243744372423,2,3,5,-1,-1,0,0,-1
1470243744387436,-1,-5,-31,-7,1,-1,-1,-2
1470243744387436,-4,-6,-20,-3,-1,-2,-3,-2
1470243744388937,-6,0,24,6,-2,-3,-3,-2
1470243744388937,1,-1,-4,-4,-3,1,0,1
1470243744409956,0,0,13,1,-1,1,1,-1
1470243744409956,-1,-1,-4,-3,-1,0,1,0
1470243744411458,2,0,-11,-5,-2,-1,1,-1
1470243744411458,-1,-3,0,1,0,-2,-3,1
1470243744423470,-1,-1,-4,0,0,-1,-2,0
1470243744423470,0,0,5,2,-1,0,-1,-1
1470243744432477,-2,1,-2,1,-2,-1,-1,-2
1470243744432477,0,0,3,0,-1,-2,-2,-2
1470243744447489,-1,0,-11,-5,0,-1,0,1
1470243744447489,-3,-1,7,2,-1,-1,0,-2
1470243744448991,0,1,1,0,-2,-1,-2,0
1470243744448991,-2,0,1,0,-1,-1,-2,0
1470243744470512,2,-1,3,1,3,0,-1,0
1470243744470512,1,-1,-7,-2,-1,0,-1,-2
1470243744471512,-2,-6,-6,-5,0,1,0,-1
1470243744471512,-3,-2,0,-1,-2,-1,0,-1
1470243744483522,0,1,0,-3,-3,-2,-1,-1
1470243744483522,0,2,10,-1,0,-1,0,0
1470243744492530,0,-1,-10,0,2,-2,-1,0
1470243744492530,-2,-3,-6,-3,-2,-1,-1,-1
1470243744515051,-1,2,7,1,-2,0,0,-2
1470243744515051,-1,-3,-13,-6,-2,0,-1,-3
1470243744516552,0,1,20,2,0,0,-1,-1
1470243744516552,-2,0,3,0,-1,-1,-1,-1
1470243744529564,1,-4,-12,1,-1,-2,-2,-2
1470243744529564,0,0,6,3,4,2,-1,1
1470243744531565,0,1,8,-6,-2,-1,0,-1
1470243744531565,0,-1,-3,-1,-1,0,0,-1
1470243744543576,-3,-4,-7,-2,-2,-2,-2,-1
1470243744543576,0,1,5,-3,-2,-2,-2,-1
1470243744552585,-2,-1,-3,1,-1,-2,0,-1
1470243744552585,-3,-1,13,4,-3,-3,-2,-2
1470243744567598,-1,-2,1,1,-1,0,0,1
1470243744567598,0,0,0,-3,-2,-2,-2,0
1470243744569099,-1,-3,-24,-5,-1,2,-2,-1
1470243744569099,0,0,-2,-3,-2,-2,-1,-2
1470243744590118,-2,-2,3,0,-1,-1,-2,-2
1470243744590118,-3,-1,-2,1,-3,-2,-2,-2
1470243744591619,-1,-1,5,-3,-1,-2,-1,-2
1470243744591619,0,-5,-35,-4,-1,-1,-1,1
1470243744612638,-2,-1,-3,-3,-2,-1,0,0
1470243744612638,-1,2,9,4,-2,-1,0,1
1470243744614139,0,0,3,4,-1,0,-1,-1
1470243744614139,0,-5,0,0,-1,1,0,-2
1470243744627151,-1,-2,-2,-3,0,-2,-2,0
1470243744627151,-2,0,-7,-5,-2,-1,-2,0
1470243744628653,-2,-3,-3,1,-1,-1,0,0
1470243744628653,-1,2,5,0,0,-2,-2,-2
1470243744650173,-3,-4,-6,-4,-2,-2,-3,0
1470243744650173,-2,-7,-5,-2,0,-1,-1,-1
1470243744651674,0,2,16,7,2,-1,0,0
1470243744651674,-3,-1,-15,-6,-2,-2,-1,0
1470243744672193,-2,2,5,0,-3,1,0,-1
1470243744672193,0,2,11,3,1,-1,0,-1
1470243744673694,0,-6,-25,-4,-2,-3,-1,-2
1470243744673694,1,1,4,0,-1,-1,-2,-2
1470243744687706,0,0,4,-1,0,-1,-1,-1
1470243744687706,-1,0,-7,-2,-1,0,-1,-2
1470243744688707,-1,1,-2,0,1,-1,-1,-1
1470243744688707,-1,1,6,2,1,-1,-1,-1
1470243744709725,-1,0,-1,-2,-1,0,1,0
1470243744709725,-1,-1,11,1,-1,0,0,-1
1470243744711228,-1,-1,-6,-2,-4,-2,-1,-2
1470243744711228,1,-1,-5,-4,0,-1,0,0
1470243744732247,-2,1,3,1,-1,-2,-2,-2
1470243744732247,0,1,7,2,-1,0,-1,-2
1470243744733747,-2,-4,-18,-4,-1,-1,-2,-2
1470243744733747,-3,-2,-15,-5,-2,0,-2,-2
1470243744746759,1,-2,0,1,-3,1,-1,0
1470243744746759,-2,0,0,-1,-2,-2,-1,-3
1470243744753268,1,-2,-2,-2,-1,-1,-2,1
1470243744753268,-1,1,27,5,0,-1,0,-2
1470243744777286,0,-2,-15,-2,-1,-1,-1,-2
1470243744777286,0,0,0,-1,0,-1,-2,-1
1470243744779289,-2,-3,-8,-4,-3,-2,-2,0
1470243744779289,0,-3,-7,2,-1,-1,-1,1
1470243744792300,-1,-1,13,0,-1,0,-2,-1
1470243744792300,-1,-1,-8,-1,-1,-1,0,-1
1470243744793801,-1,-2,1,-3,-2,-1,1,-2
1470243744793801,-1,0,1,1,-3,0,-1,-1
1470243744806812,0,2,6,1,-1,-2,-1,-1
1470243744806812,0,-3,-12,-2,-2,-2,-2,-1
1470243744813319,-2,-1,8,-2,2,1,1,-2
1470243744813319,-1,-3,-8,-5,0,0,-1,-1
1470243744829835,1,0,1,0,-1,-3,0,-1
1470243744829835,0,-1,-2,-2,-3,-3,-1,-1
1470243744831335,-2,-4,-12,2,0,-1,-1,-2
1470243744831335,-1,2,8,1,1,1,-2,-1
1470243744852857,-4,-4,-15,-5,-1,-1,0,-2
1470243744852857,-2,-2,-6,-4,0,1,-1,0
1470243744854356,1,3,23,6,-3,-1,0,-1
1470243744854356,-2,-3,-32,-4,1,-1,-1,0
1470243744866867,0,-3,7,3,-3,0,0,-1
1470243744866867,-2,1,3,3,1,2,0,0
1470243744873373,-1,0,-3,-6,-2,-1,-1,-1
1470243744873373,-1,-3,-2,-3,1,0,-1,-1
1470243744889887,-1,0,0,-1,-2,-1,-1,-2
1470243744889887,0,-3,-8,-5,0,1,0,-1
1470243744891389,-2,0,4,-1,-3,-1,-1,0
1470243744891389,0,-2,7,0,-1,0,-1,0
1470243744912408,-1,1,0,1,1,-1,-2,-2
1470243744912408,-4,-4,-11,-2,-2,-2,-1,-1
1470243744913909,-2,1,5,0,3,-1,-2,-2
1470243744913909,-1,2,11,4,-2,-2,-1,1
1470243744926921,-4,-2,-4,-2,-2,0,2,0
1470243744926921,0,1,5,-1,-1,-1,-1,0
1470243744933426,0,-3,-9,-3,-2,1,0,1
1470243744933426,1,0,5,-2,-1,-2,-1,-1
1470243744949940,-2,0,5,3,3,-1,0,0
1470243744949940,-1,-3,-5,-1,-3,-3,-1,-1
1470243744951443,-2,1,-2,0,-2,-2,-1,-2
1470243744951443,-2,-2,2,-2,0,-1,0,-1
1470243744972461,0,-3,0,0,-3,0,0,-1
1470243744972461,-2,-2,0,-3,-1,-3,-1,-1
1470243744973963,0,-1,-4,1,-1,-1,-2,0
1470243744973963,-2,-3,0,-2,-2,-3,-1,-2
1470243744986975,0,-1,-3,-2,1,-1,-1,-2
1470243744986975,-2,-2,-22,-7,-3,-2,-3,-1
1470243744993491,-2,-3,24,2,-2,-1,-1,0
1470243744993491,0,1,-1,1,-1,0,1,-1
1470243745009994,-2,-3,0,1,-2,-2,-1,1
1470243745009994,0,1,0,0,2,0,0,-2
1470243745011496,2,2,3,1,1,-1,0,0
1470243745011496,-3,-7,-10,-5,-3,-3,-3,-1
1470243745032514,1,1,13,-1,0,0,-1,0
1470243745032514,-3,-4,-34,-7,-3,0,0,1
1470243745034017,-1,-2,3,-4,0,-2,-1,-1
1470243745034017,-1,3,23,7,1,0,0,-1
1470243745047529,-2,0,-7,-1,-3,-1,-2,-2
1470243745047529,0,-1,11,1,-1,-1,-4,-1
1470243745054036,1,1,-8,2,-2,0,-1,-2
1470243745054036,0,-2,-7,-6,-2,1,-1,0
1470243745069549,-1,1,-6,-2,0,-2,-1,-1
1470243745069549,-1,1,9,1,1,0,-1,-1
1470243745070050,-1,-2,-5,-3,-2,-3,-1,-2
1470243745070050,-4,-5,-13,-3,-4,-3,-1,-2
1470243745091570,1,-1,3,2,3,2,0,0
1470243745091570,-1,-3,5,0,-2,-1,-1,-1
1470243745092569,-2,3,-6,-3,-1,-2,1,-1
1470243745092569,-1,-1,-1,0,0,-2,-2,-2
1470243745106081,-1,-3,-7,-4,-3,-2,-1,-3
1470243745106081,-1,1,6,1,-1,-1,-1,0
1470243745114090,-1,-2,-5,1,-1,1,-2,-1
1470243745114090,0,1,3,-1,0,0,0,-1
1470243745129603,-1,0,-2,-2,-3,-2,-3,-1
1470243745129603,1,1,-9,0,0,1,0,0
1470243745131104,-3,-5,0,-3,-4,-2,-2,-3
1470243745131104,-2,0,11,6,-3,-1,-1,-1
1470243745151621,-1,-3,-21,-7,0,-1,1,-1
1470243745151621,0,0,2,1,-1,-3,-1,0
1470243745152624,1,0,-9,-6,-1,-1,0,1
1470243745152624,-1,-1,-1,-2,1,0,-1,-1
1470243745175145,-1,-1,6,0,1,1,-2,1
1470243745175145,-1,-1,9,0,-1,-2,-3,0
1470243745175645,-3,-3,-8,0,1,0,-1,-2
1470243745175645,-1,1,1,0,0,-1,-1,-1
1470243745189156,0,1,0,0,-3,-1,-1,-2
1470243745189156,-3,-1,4,-1,-1,-2,-1,-2
1470243745190157,-4,-2,0,0,-1,-1,0,1
1470243745190157,-1,1,-4,-2,0,-1,0,-1
1470243745211676,-2,-2,-6,-3,-1,-1,-2,-1
1470243745211676,-2,-3,2,1,-3,-1,1,-1
1470243745212176,-1,0,7,-3,-3,-2,0,-2
1470243745212176,2,-2,-27,-6,1,0,2,2
1470243745226190,-4,-3,21,7,-3,-2,-2,-2
1470243745226190,-1,0,14,3,-1,0,-1,-2
1470243745234197,-2,-1,-6,0,-3,-1,-2,-2
1470243745234197,-1,1,-1,-2,-1,-1,0,-2
1470243745256216,2,-1,-6,-3,0,1,-2,-2
1470243745256216,-1,-2,-9,-4,-2,-1,-1,-1
1470243745264223,2,-1,3,0,0,0,-1,-1
1470243745264223,-1,-4,-1,-3,-1,-1,-2,-2
1470243745271730,-3,1,-1,-1,-3,-2,-1,-1
1470243745271730,0,-1,4,0,0,-1,-2,1
1470243745272231,1,1,-4,1,2,1,0,-1
1470243745272231,-2,0,2,-1,-2,-1,-1,-1
1470243745285744,-4,-4,-5,-2,-3,-3,0,-1
1470243745285744,-4,-1,1,0,-2,-1,0,-1
1470243745294250,-1,-2,-5,-6,0,0,-1,-1
1470243745294250,1,0,12,3,-2,-1,-2,0
1470243745309265,1,0,10,3,-1,-1,0,-1
1470243745309265,0,0,-1,1,-2,-2,1,-2
1470243745309764,0,-2,-5,-1,-2,0,0,0
1470243745309764,-1,1,4,3,2,0,0,-3
1470243745331784,-1,0,-5,-4,-1,1,-2,-1
1470243745331784,0,0,-17,-3,-1,0,-1,-1
1470243745332285,0,-2,6,-3,0,-2,-2,-1
1470243745332285,-2,0,-1,2,-1,0,0,-2
1470243745345798,-2,-1,3,-3,-1,-2,0,-1
1470243745345798,1,1,6,0,-1,-1,-1,0
1470243745354305,0,1,-1,1,0,-1,-1,-1
1470243745354305,1,-3,-13,-4,0,0,-2,-1
1470243745369319,-4,-2,-7,0,-3,-1,0,0
1470243745369319,-2,1,13,1,-1,-2,0,-2
1470243745370320,-2,0,-1,-1,-1,-1,-2,-2
1470243745370320,-2,-1,-8,-5,-3,-2,-2,-1
1470243745391837,1,-2,-7,-2,2,0,-2,-3
1470243745391837,-1,-5,-6,-3,-2,-2,-1,-2
1470243745392338,-2,-1,3,1,0,-2,0,-2
1470243745392338,0,-1,4,-1,-1,-2,-1,-2
1470243745405853,-2,-2,-6,-5,0,0,-2,0
1470243745405853,-4,-2,0,0,-2,0,0,0
1470243745414357,1,0,-13,-3,0,2,-1,-1
1470243745414357,-4,-4,22,1,-3,-1,-1,-2
1470243745429371,-3,0,-13,2,-3,-3,-1,-2
1470243745429371,-1,0,-9,-1,1,0,0,-1
1470243745429872,-1,-1,0,-2,-3,-2,-1,1
1470243745429872,-1,-2,-23,-5,0,-1,0,-1
1470243745451891,0,1,14,0,0,-1,0,-2
1470243745451891,0,-2,3,-3,-4,-1,-2,-2
1470243745452393,0,-1,-11,-2,0,1,1,-2
1470243745452393,0,1,5,-2,0,-1,-2,2
1470243745466405,0,0,4,3,1,0,-1,-1
1470243745466405,-1,0,10,-1,-1,-2,-3,-2
1470243745474412,-2,-1,-13,-3,-2,0,-1,-1
1470243745474412,-3,-1,12,3,-1,0,-1,2
1470243745488926,-2,-4,2,-6,-1,-1,-1,-2
1470243745488926,0,0,0,-2,-1,0,-2,-2
1470243745489926,-2,0,7,2,0,-3,-1,-2
1470243745489926,0,-1,-6,-1,0,0,-1,-1
1470243745511947,0,1,-10,-1,-2,-2,-1,2
1470243745511947,0,-5,-5,-1,1,-3,0,-1
1470243745512447,-2,-2,8,1,0,0,-2,0
1470243745512447,0,-2,-8,0,0,-1,-1,-3
1470243745534966,0,-1,4,1,0,0,0,0
1470243745534966,-1,0,-6,0,-1,-2,-1,-1
1470243745535467,-2,0,3,-1,-2,0,-1,0
1470243745535467,0,2,6,-2,-1,-2,0,-2
1470243745548979,2,-3,-18,-2,-2,0,-3,-1
1470243745548979,1,2,-9,-3,3,2,-1,0
1470243745549980,-4,0,18,4,-2,-3,-2,-2
1470243745549980,-1,2,4,5,1,-1,0,-1
1470243745571999,1,0,0,-5,-2,-2,-1,-2
1470243745571999,0,-1,-5,-3,-3,-2,0,0
1470243745572502,0,-1,-1,-2,-1,0,-1,-2
1470243745572502,0,-3,-5,-3,-4,-1,-2,-2
1470243745595020,-2,1,3,1,0,1,-1,-1
1470243745595020,-1,-3,-3,-3,-1,-1,0,-1
1470243745595521,0,0,5,0,1,-2,0,-2
1470243745595521,0,0,-1,2,-1,-1,0,-1
1470243745617540,-3,-6,-23,-5,0,0,0,-2
1470243745617540,-1,0,7,-1,0,0,-1,-1
1470243745618041,-1,-1,10,1,-1,-1,-1,0
1470243745618041,-1,-2,-9,-4,-3,-2,-1,1
1470243745632053,0,1,15,4,4,1,0,1
1470243745632053,-3,-6,-19,-3,-1,-1,1,-3
1470243745632554,-3,-3,-9,-4,-1,-3,-1,-1
1470243745632554,-2,-2,7,-3,-3,-1,-2,-1
1470243745654576,0,0,-3,0,0,-1,0,0
1470243745654576,0,-2,0,1,-1,0,-2,0
1470243745655575,0,0,-5,1,1,0,1,0
1470243745655575,-1,-1,0,-3,-3,0,0,-2
1470243745669087,-2,-1,1,-2,-2,-2,0,-1
1470243745669087,-2,0,3,0,0,-2,-2,-2
1470243745670087,-1,-2,-6,-1,0,0,1,1
1470243745670087,0,0,-12,-3,1,0,-1,-1
1470243745691608,-3,-3,10,-1,-3,0,-3,-2
1470243745691608,-6,-3,-11,0,-2,-1,-1,0
1470243745692108,-2,-2,9,-1,-3,-1,-3,-2
1470243745692108,-1,-2,-10,-3,0,-2,-1,0
1470243745714628,1,2,8,3,2,1,0,0
1470243745714628,-1,0,-4,-1,-1,0,2,1
1470243745715630,-2,-3,-5,-3,-4,-3,-1,0
1470243745715630,0,-2,14,3,1,-3,1,-1
1470243745729641,0,-3,-18,-3,-1,-2,-2,-3
1470243745729641,0,-2,11,-3,-3,-1,-1,0
1470243745730142,-3,-1,5,6,-3,-1,0,-2
1470243745730142,0,-2,-12,-3,3,1,-1,0
1470243745751661,0,3,11,4,-1,-1,-1,0
1470243745751661,-1,-1,9,-4,-1,0,-2,-3
1470243745752665,-1,-3,-9,-5,1,-1,-1,1
1470243745752665,-3,-4,-8,-4,-3,-2,-1,0
1470243745774683,-2,-2,-7,-3,-3,-2,-1,-2
1470243745774683,2,3,11,5,3,0,-1,0
1470243745775683,-1,-1,-9,-3,-1,-1,0,-1
1470243745775683,-5,-3,3,0,-1,-1,-2,-1
1470243745789196,-1,1,3,-2,0,0,1,1
1470243745789196,-1,-3,0,-1,-4,-2,-1,-1
1470243745790196,-1,1,-5,-3,-1,-1,-1,-2
1470243745790196,1,0,-2,0,-1,-1,-2,-2
1470243745811716,-1,-4,0,-2,-2,-2,0,-2
1470243745811716,0,0,-13,-3,-1,0,-1,-1
1470243745812215,0,-4,7,1,-2,-1,-1,-2
1470243745812215,-1,1,2,2,0,-1,0,-1
1470243745834735,0,0,6,0,-1,-2,-2,1
1470243745834735,-2,-1,-29,-4,-3,0,0,-2
1470243745835236,1,1,9,1,-2,-1,-1,-4
1470243745835236,-1,-1,-10,-6,-2,1,0,0
1470243745849249,-3,-2,18,5,-2,0,-2,-3
1470243745849249,-2,-3,-12,-3,-1,-2,-2,-3
1470243745849749,1,0,-2,-1,-1,0,-1,0
1470243745849749,-2,1,14,3,-1,-3,-1,-3
1470243745871770,0,0,-9,-2,0,-2,0,1
1470243745871770,0,1,13,-2,0,-1,-1,0
1470243745872271,-2,-2,-16,-1,-1,-3,-1,-1
1470243745872271,-2,-2,4,-1,-2,0,-1,0
1470243745894791,0,-2,-15,-5,-1,-1,-1,-2
1470243745894791,-3,-1,7,1,-1,-4,-1,-1
1470243745895790,-2,-4,3,-3,-3,-2,-2,-1
1470243745895790,-1,-1,-2,3,2,-1,0,-1
1470243745909302,0,0,2,0,-1,-1,-2,-2
1470243745909302,0,-4,-4,-2,-1,1,-1,-1
1470243745909804,-2,0,1,-2,-1,0,0,0
1470243745909804,-1,0,5,-2,-4,-1,-1,1
1470243745931322,-2,-2,-3,-1,0,0,0,-1
1470243745931322,0,0,9,2,-1,-1,-1,-1
1470243745932323,-2,-1,-8,-3,-1,0,0,0
1470243745932323,-1,-1,3,-2,0,-1,-1,-2
1470243745954846,1,0,-3,-1,0,-2,0,-1
1470243745954846,0,1,-3,-1,-1,-1,-1,2
1470243745955845,0,-1,9,5,0,-2,-2,-3
1470243745955845,0,-1,-7,2,-1,1,-1,-1
1470243745969358,-3,-2,1,-4,-2,0,0,-1
1470243745969358,-2,-1,-9,-4,-1,1,0,-3
1470243745969860,0,0,-1,-1,0,0,-2,-2
1470243745969860,0,1,12,1,-2,0,-1,-2
1470243745991876,-1,-3,-10,-4,0,-2,-1,0
1470243745991876,-4,-3,-2,-1,-1,-1,-2,0
1470243745992378,0,-3,-6,0,-1,-3,1,-1
1470243745992378,1,1,-10,-6,-3,-1,-1,-1
1470243746014897,-1,0,14,7,1,-1,0,0
1470243746014897,-1,1,12,1,0,1,0,1
1470243746015397,-1,-2,-9,-3,0,0,-1,-2
1470243746015397,-2,-2,-1,-3,-3,-1,0,0
1470243746029410,1,-2,-23,-9,-4,-3,-2,-1
1470243746029410,-1,2,21,7,-1,-1,-1,-2
1470243746029912,1,1,12,2,-1,0,0,-1
1470243746029912,-1,-4,-11,-3,0,-2,-1,-2
1470243746051431,1,-3,-11,-2,-2,-1,-2,-2
1470243746051431,-2,-3,-6,-3,-1,-1,0,1
1470243746052431,-2,-1,-4,-5,-1,-2,-2,-1
1470243746052431,-3,0,5,1,-1,-2,-1,1
1470243746074950,-3,-1,-3,-3,1,-1,0,0
1470243746074950,0,-2,5,2,-2,-3,0,-2
1470243746075452,-1,0,0,1,0,0,-1,0
1470243746075452,-1,-3,-10,-3,1,-3,-2,-1
1470243746089464,-2,-5,-2,-1,-5,0,-2,-2
1470243746089464,-2,1,22,6,1,1,-1,-2
1470243746089964,-2,-1,-2,-2,-3,-1,-1,2
1470243746089964,0,-3,-16,-2,-1,-1,-1,-1
1470243746111485,-2,-1,-1,-5,-2,-2,0,-2
1470243746111485,-1,0,-16,-8,-2,-2,-2,-2
1470243746119492,1,0,19,3,1,-1,-1,1
1470243746119492,-2,-1,3,1,-4,-2,-1,-2
1470243746135004,-1,1,-5,0,1,-1,0,-1
1470243746135004,0,-3,-9,-2,-3,-3,-1,-2
1470243746136508,-2,-1,-7,-3,-1,-2,0,0
1470243746136508,-1,-1,9,-2,-2,0,-1,-1
1470243746157526,0,0,5,4,2,1,0,0
1470243746157526,1,-2,-14,-1,-1,1,-1,-1
1470243746158026,-3,-4,-16,-5,-1,-1,-2,-1
1470243746158026,-1,1,16,5,2,1,-2,-1
1470243746171540,-1,-4,1,-1,-3,-2,-2,-4
1470243746171540,0,-1,-1,-1,0,-3,-1,-1
1470243746172540,0,0,-11,-3,-1,-1,0,-1
1470243746172540,0,0,-12,-1,-1,-2,-1,-1
1470243746195059,1,-3,-10,-7,-2,-1,-1,0
1470243746195059,-4,-2,22,5,-2,-2,0,-1
1470243746196561,-1,-2,-3,-1,-2,-2,-1,-1
1470243746196561,0,2,3,-2,0,-1,0,-1
1470243746208575,0,-1,-6,-1,-1,-1,-2,0
1470243746208575,-2,-5,-33,-11,-1,2,-1,0
1470243746216578,-2,-4,15,0,-1,-2,-1,-2
1470243746216578,-1,-3,-19,1,-3,-1,-2,-2
1470243746231591,1,3,12,2,-1,-1,1,2
1470243746231591,-3,-2,14,1,-2,-3,-3,0
1470243746232592,0,0,-6,-1,0,-1,0,-1
1470243746232592,1,-2,-6,-3,1,-1,0,-1
1470243746254614,-1,-1,4,-2,-3,-1,-3,-2
1470243746254614,0,2,1,-1,-3,-1,-1,0
1470243746255614,-2,0,-5,-2,-1,-1,-1,0
1470243746255614,-1,1,20,4,0,-1,0,0
1470243746268625,-3,-3,-9,-2,-3,-2,-3,-3
1470243746268625,0,2,-2,2,2,-1,0,1
1470243746276632,-1,-2,-16,-4,-2,-1,-1,0
1470243746276632,-1,-2,-3,0,3,1,1,-3
1470243746292147,-1,-3,12,0,0,-1,-3,-1
1470243746292147,0,-3,-30,-3,-3,-2,-1,0
1470243746292147,0,0,24,0,-2,-3,-1,-2
1470243746292147,-2,-1,-1,-1,-4,-2,-1,0
1470243746314667,-1,1,4,-2,0,0,0,0
1470243746314667,0,-3,-6,-4,0,0,0,-1
1470243746315667,1,0,-1,0,-1,2,-1,0
1470243746315667,-2,-3,6,-1,-1,-3,-2,-2
1470243746328179,-2,-1,-30,-8,-1,-1,0,0
1470243746328179,-1,0,53,8,-1,0,1,-3
1470243746336688,-2,0,-25,0,-2,0,-1,-2
1470243746336688,0,-2,-2,-5,-1,-3,-3,-1
1470243746351701,-1,1,-7,2,-1,0,-1,1
1470243746351701,3,-1,-9,-8,-2,0,0,-1
1470243746352703,-1,-5,-3,-2,0,-3,-3,-2
1470243746352703,-4,-2,2,0,-2,1,8,0
1470243746374721,1,0,7,0,3,3,-16,0
1470243746374721,-2,-1,-15,0,-4,-7,-3,-1
1470243746375722,-2,0,3,-1,-1,8,5,0
1470243746375722,0,-5,-30,-7,-4,-7,-5,-3
1470243746388233,-3,-3,17,4,-2,-3,1,-1
1470243746388233,-3,0,-8,-7,0,1,5,1
1470243746396740,0,-1,13,8,1,1,-21,-1
1470243746396740,0,-1,-19,-8,-3,-7,-6,0
1470243746411754,1,1,0,-4,-3,4,11,-2
1470243746411754,-1,4,31,7,-3,-8,-6,-1
1470243746412254,0,-4,-40,-9,-2,-4,6,-1
1470243746412254,0,2,24,2,2,2,-4,-1
1470243746434774,-2,-1,7,4,-3,-5,-6,-4
1470243746434774,-2,-5,-13,-5,2,1,3,-1
1470243746435777,-2,1,8,1,-3,-1,-3,-2
1470243746435777,0,3,19,2,-1,1,4,-1
1470243746457295,-3,-5,-28,-3,-1,-4,-1,0
1470243746457295,1,-2,-2,-3,0,6,4,-1
1470243746458295,-1,-1,-2,-4,-2,-3,-9,-1
1470243746458295,0,-1,6,1,2,0,-1,-1
1470243746471807,-3,0,10,-2,0,-3,-1,-1
1470243746471807,0,0,0,3,-1,0,-2,0
1470243746472308,-2,-1,12,5,0,-1,7,1
1470243746472308,-1,-3,-27,-4,-2,0,1,-1
1470243746494828,0,0,-4,0,-1,1,1,-1
1470243746494828,0,-2,2,-2,-2,-2,-6,0
1470243746495829,-1,-2,7,1,-3,-2,3,-2
1470243746495829,-1,0,3,0,-1,0,-1,1
1470243746517348,-2,1,10,4,-1,-1,1,-2
1470243746517348,-2,-3,-18,-4,1,1,-2,-3
1470243746517849,3,3,23,1,-1,-1,9,1
1470243746517849,-1,-5,-28,-3,-2,-3,-23,-3
1470243746531862,-1,-2,-3,0,-3,-1,-1,-1
1470243746531862,0,1,2,-2,-1,1,-2,-2
1470243746532362,-3,-1,-12,-5,-1,0,1,-1
1470243746532362,1,2,25,2,1,0,2,1
1470243746554884,-1,0,4,6,2,-4,-1,-1
1470243746554884,-3,-2,-17,-1,-3,6,2,1
1470243746555383,2,0,-3,-7,1,-1,2,1
1470243746555383,0,1,-11,0,-1,-1,-3,-2
1470243746577403,-1,-1,1,1,-3,-1,13,0
1470243746577403,2,0,-1,1,2,-10,-21,1
1470243746577903,-3,-5,2,-4,-2,11,6,-2
1470243746577903,-2,-1,10,-2,-1,1,8,-1
1470243746591915,0,0,16,2,-2,-4,-4,-1
1470243746591915,-3,-1,-13,-4,-5,-6,0,-1
1470243746592416,1,-2,-23,-7,3,-6,-5,0
1470243746592416,1,-2,9,2,2,0,-4,0
1470243746614936,-2,-1,4,-5,3,2,0,0
1470243746614936,2,1,-10,-3,-2,-2,3,0
1470243746615437,-4,-3,23,5,-2,-3,-10,-4
1470243746615437,-1,0,-10,-4,-4,0,8,-2
1470243746637458,-1,-2,-5,-3,0,2,-2,-1
1470243746637458,-3,-2,3,-1,0,0,0,-1
1470243746637957,-2,-1,1,-1,0,-2,-2,-2
1470243746637957,-2,0,-15,-2,-2,0,1,-1
1470243746651470,-1,1,10,1,-3,-2,-4,1
1470243746651470,-2,1,15,-3,-3,-1,1,-1
1470243746652474,0,-4,-11,-2,-2,-4,-2,-2
1470243746652474,-2,4,19,11,2,1,0,0
1470243746674991,0,1,-23,-9,-1,1,0,-1
1470243746674991,0,0,12,6,0,-1,4,0
1470243746675490,-2,0,-2,-5,-1,1,3,1
1470243746675490,1,0,-4,-3,-3,-4,-4,-2
1470243746697512,0,-1,-2,-1,0,1,-2,-1
1470243746697512,-1,-1,11,2,3,1,1,-1
1470243746698010,-2,1,4,2,-2,-2,-2,0
1470243746698010,-2,-1,3,3,0,-2,8,1
1470243746712022,-3,-3,0,0,-2,0,-23,-5
1470243746712022,2,-1,-4,-4,-1,1,2,-1
1470243746712524,1,-2,-14,-3,-1,-4,-4,-1
1470243746712524,-3,-1,14,-1,-2,-1,-1,-2
1470243746734544,0,-1,-21,-4,-2,-4,4,-2
1470243746734544,-4,-3,3,0,-2,-4,-3,-1
1470243746735544,-1,0,-7,-2,-3,1,-2,-2
1470243746735544,-2,0,3,-2,-3,0,-1,0
1470243746757564,-1,-6,-19,-4,-2,-1,1,0
1470243746757564,-1,1,1,-2,-2,1,-5,-1
1470243746758065,0,0,-9,-1,-1,-1,2,-1
1470243746758065,0,0,6,-6,-1,0,-3,-1
1470243746772077,-2,-3,4,3,-1,0,1,0
1470243746772077,-1,-2,-14,-6,-2,0,1,0
1470243746772577,-4,2,28,14,2,-2,-1,-1
1470243746772577,2,-2,-15,-1,0,0,-1,0
1470243746795099,0,0,10,-2,-3,0,0,-1
1470243746795099,0,-1,-19,-5,-3,-1,0,-1
1470243746795598,2,0,-18,-6,1,-2,0,0
1470243746795598,-4,-5,16,2,-4,-1,-2,-2
1470243746817119,-2,-2,12,0,0,0,3,0
1470243746817119,-1,-1,-4,2,1,-2,-3,1
1470243746818119,-1,-3,-17,-9,-3,0,2,-2
1470243746818119,0,-2,-4,-2,0,-2,-10,-2
1470243746831631,0,-1,-1,1,2,-2,-17,-3
1470243746831631,0,0,7,2,0,-2,1,-1
1470243746832632,0,0,6,-1,0,-2,1,0
1470243746832632,-2,-2,-16,0,-2,-1,4,-1
1470243746854653,-1,-1,-14,-7,-2,-2,2,2
1470243746854653,-3,0,21,8,-2,3,2,-2
1470243746855653,0,-1,-8,-3,0,-3,-4,0
1470243746855653,-1,-3,12,-1,0,1,3,-1
1470243746877672,-2,-1,-18,-1,2,-1,0,-1
1470243746877672,-1,-1,-3,-1,0,-3,-1,-3
1470243746879173,-3,-9,-26,-11,-4,-5,-4,0
1470243746879173,0,2,-2,0,0,5,3,-3
1470243746891686,-2,1,18,3,-3,-4,4,-2
1470243746891686,-1,-2,-10,0,-1,1,0,0
1470243746892187,-2,1,2,-1,-2,-1,-5,-4
1470243746892187,0,-3,-16,-7,-1,-4,-2,1
1470243746914706,-3,0,5,0,0,1,11,-1
1470243746914706,-2,-1,-2,0,2,0,-12,0
1470243746915706,1,1,14,2,-3,-1,0,1
1470243746915706,-2,-1,-5,-3,-2,0,-1,-1
1470243746937726,0,1,11,2,0,1,7,0
1470243746937726,-3,-4,-7,-4,-2,-1,-3,-2
1470243746938227,1,2,12,5,1,1,-1,-1
1470243746938227,-4,-6,-15,-4,-4,-3,-1,0
1470243746951238,-1,-2,-2,0,-1,0,-3,-1
1470243746951238,-1,0,7,-1,2,0,2,-2
1470243746959246,-1,0,0,-3,-2,-2,-4,-1
1470243746959246,0,0,-3,-1,0,0,5,0
1470243746974759,0,-3,-8,-3,-3,-2,-5,1
1470243746974759,-2,0,17,2,-2,-2,-3,-2
1470243746975761,-1,-1,-25,-5,0,2,3,-1
1470243746975761,0,-1,1,-2,1,0,-4,0
1470243746997279,1,0,7,2,1,0,-2,-2
1470243746997279,1,-2,10,4,0,-1,0,-1
1470243746997779,-3,1,3,2,-3,0,1,-1
1470243746997779,0,-2,-12,-3,0,-3,-1,-2
1470243747011792,1,-2,-13,-9,-2,-1,-2,-1
1470243747011792,-3,-4,-9,6,-5,-3,1,-3
1470243747012293,0,1,14,9,2,1,-1,-1
1470243747012293,-1,-4,-13,-6,0,-1,-2,1
1470243747034813,0,-2,-4,-3,2,2,2,1
1470243747034813,-2,-3,-6,-9,-6,0,0,0
1470243747035814,-1,-5,-2,-1,0,-2,-2,-2
1470243747035814,1,0,9,3,0,1,1,-1
1470243747057835,-1,1,-7,-5,-3,-1,-1,0
1470243747057835,-2,-1,-3,-1,-1,0,0,-1
1470243747058334,-1,2,1,1,-1,-2,-1,-1
1470243747058334,-3,-1,11,0,-3,-1,0,-1
1470243747071847,-1,0,-10,-4,-2,-1,-1,0
1470243747071847,2,-1,2,-5,0,0,-1,0
1470243747072346,-2,-1,5,-1,-2,-1,-2,-1
1470243747072346,-1,0,-6,0,2,-1,-1,-3
1470243747094868,-1,1,3,8,-1,-1,-3,-2
1470243747094868,0,-1,-2,-4,0,-1,2,1
1470243747095868,1,-3,-9,-6,-2,-1,-1,0
1470243747095868,-1,0,-1,-3,-1,-1,-3,1
1470243747117388,-3,-4,20,3,-1,-1,-1,-4
1470243747117388,0,-1,-7,-1,-2,0,0,-1
1470243747118389,-1,-2,-20,-4,4,2,0,-2
1470243747118389,-2,2,26,5,-2,-4,-2,0
1470243747130899,-1,-1,-15,-2,-1,-2,-2,-1
1470243747130899,1,2,5,0,1,-1,-1,0
1470243747139407,-1,-1,6,-2,-1,-2,-1,-1
1470243747139407,-2,0,-2,2,-2,-2,0,-1
1470243747154921,-1,1,4,-2,-1,0,-1,0
1470243747154921,-1,2,-1,-6,-4,-2,1,1
1470243747155422,-2,0,0,-1,-3,-2,-1,0
1470243747155422,-2,-1,3,-2,0,-1,-1,0
1470243747177442,-2,-4,-12,-4,-4,-2,-1,-1
1470243747177442,-3,-2,7,1,2,-1,-2,0
1470243747177942,-1,0,12,2,0,-2,1,-2
1470243747177942,-1,-3,-11,-3,0,1,0,0
1470243747190957,-1,-3,-12,-10,-2,0,0,-1
1470243747190957,0,-3,-7,4,2,-1,-1,-2
1470243747198960,-2,1,5,1,-2,0,0,0
1470243747198960,-1,1,-3,-2,-3,-3,0,-3
1470243747214974,0,-1,5,1,0,-2,-1,0
1470243747214974,0,-2,5,-4,0,-2,-1,-2
1470243747215476,-1,-1,2,0,-2,-1,0,-1
1470243747215476,0,1,0,-2,-1,0,-1,-1
1470243747237496,0,-1,-24,-7,-2,0,-1,-1
1470243747237496,-5,-2,27,5,-4,-4,-3,-5
1470243747237997,0,-2,3,1,-1,-1,-1,1
1470243747237997,-2,-1,-7,-2,-2,-2,-3,0
1470243747251007,-2,-1,-1,-1,-1,-2,0,-2
1470243747251007,1,1,-12,-3,-1,-3,0,0
1470243747259015,-2,-2,4,-1,0,0,-1,0
1470243747259015,0,-2,-5,0,-4,-1,-1,-2
1470243747275028,1,3,19,3,2,-1,-1,-1
1470243747275028,-1,-4,-5,-2,0,1,-1,0
1470243747276030,-3,-1,-9,-2,-4,-3,-2,0
1470243747276030,0,-3,-5,-1,2,-1,0,-1
1470243747297048,-3,2,10,2,-2,-2,-1,-3
1470243747297048,1,0,-9,-6,-2,0,0,-2
1470243747298049,3,0,-6,-2,-2,0,0,-1
1470243747298049,-2,-1,4,-1,-2,-2,-2,-1
1470243747311061,-1,-4,11,4,2,0,1,1
1470243747311061,-2,0,2,3,-2,-1,-1,-2
1470243747319572,-1,-1,-3,0,-1,-2,0,1
1470243747319572,-1,-2,-17,-4,-1,-1,-2,-1
1470243747335083,1,-1,-5,-3,0,1,-1,1
1470243747335083,-1,-1,0,3,-1,-2,-1,-1
1470243747336086,-2,1,4,1,0,0,-1,-1
1470243747336086,-1,-1,9,4,-3,0,-1,0
1470243747357603,0,-1,-2,-8,0,1,0,0
1470243747357603,-2,-4,-10,-3,0,-1,-1,1
1470243747358103,-2,2,5,-2,-4,-1,-1,-3
1470243747358103,1,-2,-1,0,1,0,-1,0
1470243747371115,-3,-2,0,1,0,-2,1,-1
1470243747371115,-2,2,15,1,0,-1,1,-1
1470243747379122,0,-6,-34,-9,-2,-2,-1,-1
1470243747379122,-3,-1,8,3,-4,-2,-1,-2
1470243747395136,0,1,-13,-6,-3,0,-2,0
1470243747395136,0,0,10,3,-2,-2,-2,0
1470243747395637,-2,-2,4,-3,-3,0,-2,-1
1470243747395637,1,0,-2,-1,1,0,1,-1
1470243747417156,-2,-1,3,2,-1,-3,-2,-3
1470243747417156,0,0,-10,-2,-1,-1,-2,-1
1470243747418157,-2,0,-8,-1,-1,-3,-1,-2
1470243747418157,-3,-1,13,-1,-2,-1,-2,0
1470243747431169,-3,0,7,2,-2,-2,-1,-2
1470243747431169,-2,0,-5,-2,-3,-2,-2,-1
1470243747439178,0,-2,-1,-3,0,0,0,0
1470243747439178,-1,1,5,2,-1,-1,-1,-2
1470243747455191,-3,-3,2,0,-5,-1,-1,-3
1470243747455191,0,1,-13,-3,-1,-1,-1,2
1470243747455692,-4,-1,8,2,0,-1,-2,0
1470243747455692,1,-1,-15,-8,-2,-1,-1,-1
1470243747477210,-1,-1,18,8,1,-1,-1,0
1470243747477210,-2,-6,-20,-7,-2,-2,-1,-2
1470243747478212,0,0,-3,2,2,-1,1,-1
1470243747478212,2,-2,-12,-3,0,0,-1,2
1470243747499731,-3,0,14,4,-1,-1,-3,1
1470243747499731,0,0,-7,-6,0,-1,-1,-1
1470243747500731,-1,-1,-1,-2,-1,-1,0,-1
1470243747500731,-1,0,8,2,1,-3,0,-2
1470243747514745,-1,0,-12,-2,-2,0,0,0
1470243747514745,-1,-3,0,1,0,-1,0,-2
1470243747515745,-1,-4,1,-4,-3,-1,-3,-2
1470243747515745,-2,1,1,-1,1,0,1,-1
1470243747537764,-1,0,8,0,0,0,1,0
1470243747537764,-2,1,-3,2,0,-2,-2,1
1470243747538265,0,0,-4,-4,-1,-1,-1,0
1470243747538265,-3,-3,3,-4,-2,-1,-3,-1
1470243747559784,0,-1,0,1,-3,-2,0,-1
1470243747559784,-1,-4,-8,-4,-3,-1,0,-1
1470243747561286,-2,-1,12,9,-2,-1,0,-2
1470243747561286,-1,-3,-16,-7,-3,-2,-1,-1
1470243747573799,0,-2,1,-1,-1,-2,-2,-2
1470243747573799,-1,1,16,0,0,-2,-2,-1
1470243747582809,-2,-1,9,3,2,1,-1,-1
1470243747582809,-1,4,-1,4,2,-1,-1,1
1470243747597318,0,2,-2,-5,-4,-3,-1,-1
1470243747597318,-1,0,-10,5,5,1,-1,1
1470243747599820,-1,0,12,0,0,-1,-3,0
1470243747599820,-2,-2,2,1,-1,0,1,1
1470243747620341,0,-2,-7,-2,1,-2,-1,-1
1470243747620341,-3,-3,6,-7,-2,-2,-3,-3
1470243747621340,1,4,-2,4,1,0,-1,0
1470243747621340,-3,-6,10,0,-3,-1,-1,-3
1470243747633351,-1,-5,-26,-8,2,2,-2,2
1470243747633351,-1,-3,11,3,-3,0,-1,-3
1470243747642360,-1,-5,-24,-13,-4,-4,0,-2
1470243747642360,1,0,7,-2,0,-1,-1,-1
1470243747657373,-3,-1,14,7,-5,-1,-1,-2
1470243747657373,-1,-2,-16,-12,-1,0,-1,-2
1470243747658873,-3,-2,-2,-4,-2,-2,-1,-1
1470243747658873,-1,-1,1,1,-3,-3,-1,0
1470243747679892,1,-2,-46,-12,1,-1,-1,0
1470243747679892,-2,3,38,13,-2,-1,0,-1
1470243747681394,-1,-2,-6,2,-1,-1,-1,-1
1470243747681394,-2,1,15,10,8,0,-2,-1
1470243747693405,-1,-1,6,4,-5,-1,-1,-1
1470243747693405,1,0,-23,-10,-3,-1,0,1
1470243747703916,-1,-3,-19,-11,-5,-3,0,-2
1470243747703916,-2,-1,19,13,2,-1,-3,-2
1470243747717426,1,0,-18,-8,-1,-1,0,-1
1470243747717426,-3,-5,-5,-5,-5,-2,-2,-2
1470243747718927,1,2,11,5,2,1,0,0
1470243747718927,-2,-3,-19,-3,-2,1,-1,1
1470243747747453,-2,2,3,2,1,0,0,-2
1470243747747453,0,-4,-14,-6,0,-1,-1,-2
1470243747748955,2,1,7,-2,0,0,-1,-3
1470243747748955,-3,-3,-19,1,-5,-1,-1,-3
1470243747754460,-7,-7,15,-3,-2,-2,-2,-1
1470243747754460,-2,-5,-11,6,-4,1,-2,-2
1470243747761467,-1,2,-14,6,1,1,-2,-1
1470243747761467,2,2,-7,-8,3,1,0,0
1470243747777480,0,1,-2,-8,-2,-4,0,-1
1470243747777480,0,-5,-14,-12,-3,-2,-1,0
1470243747778983,0,-2,2,-5,-5,-2,-2,-1
1470243747778983,2,1,-20,-10,1,1,1,-1
1470243747800000,-3,1,35,22,-4,-3,-1,-2
1470243747800000,-2,1,-13,-3,1,1,-1,-1
1470243747801502,0,0,3,-6,0,-2,-1,0
1470243747801502,-1,-4,1,-1,1,-1,-1,-1
1470243747814014,0,-2,-7,-18,-2,-3,0,-1
1470243747814014,-5,-3,17,10,-4,-2,-1,-2
1470243747821023,-1,-3,-3,3,-3,0,-1,0
1470243747821023,1,0,-4,-8,-6,-1,-2,0
1470243747837535,2,2,-2,6,8,4,-2,-1
1470243747837535,-3,0,2,-6,0,-1,1,0
1470243747839035,-2,-2,2,0,0,-1,0,-2
1470243747839035,0,-2,-7,-3,-4,-1,-1,-2
1470243747860054,-3,0,40,14,-4,-2,-1,-2
1470243747860054,-1,1,-17,-7,-1,-1,-2,0
1470243747861555,-1,-3,-10,1,-1,-1,-1,0
1470243747861555,-3,-3,-4,-7,-4,-4,-3,-3
1470243747874570,-3,-1,-7,4,1,0,-2,0
1470243747874570,3,0,-5,-2,0,1,1,-1
1470243747881073,-5,-2,21,3,-3,-3,-3,-1
1470243747881073,-2,0,-1,-3,-6,-2,0,0
1470243747897089,3,-2,-36,-15,3,1,1,2
1470243747897089,-2,3,53,22,4,1,-1,-2
1470243747899089,-1,-1,-20,-3,-1,-1,-2,-2
1470243747899089,0,0,1,1,-1,-1,-2,-2
1470243747920108,-1,-2,-15,-4,-3,-1,0,-1
1470243747920108,1,1,4,-6,-1,-2,0,-1
1470243747921610,-2,-6,0,1,0,-2,-4,-2
1470243747921610,-2,0,4,-4,-2,-2,-1,-1
1470243747934121,-1,1,-11,7,-1,0,-2,-1
1470243747934121,-1,-4,-2,-9,0,-3,0,-1
1470243747941127,1,6,18,0,-2,-1,0,0
1470243747941127,-4,-7,11,7,1,1,-1,-3
1470243747957642,-1,3,13,3,-2,-1,-1,-1
1470243747957642,-2,-3,-21,-4,-1,0,1,0
1470243747959143,0,-1,-16,-8,-1,0,1,2
1470243747959143,1,0,-11,-3,-1,-2,-2,0
1470243747979662,-1,-1,25,1,-2,-3,-1,-3
1470243747979662,-3,-3,-15,10,0,0,-2,1
1470243747981163,2,1,14,2,1,0,-1,0
1470243747981163,-2,-2,-28,-11,-5,-2,0,-1
1470243747993674,-2,-5,8,-1,-1,-1,-1,0
1470243747993674,-2,4,14,14,-3,-2,-3,-2
1470243748004185,-2,-6,-9,-8,-2,-2,-1,-1
1470243748004185,-2,1,0,-3,-1,-1,-1,-2
1470243748017696,0,-5,-18,-13,-1,0,-1,-1
1470243748017696,3,-4,-1,-1,3,0,0,-1
1470243748021199,-2,-1,0,10,-1,-1,-1,1
1470243748021199,-2,-2,0,-2,-2,0,-1,-2
1470243748040216,0,-3,-16,-4,-1,-2,-1,-3
1470243748040216,1,3,18,-4,1,2,0,-3
1470243748041717,-3,-6,-26,-6,-3,-3,-2,-4
1470243748041717,0,1,4,5,-1,0,0,0
1470243748053728,0,-3,-11,-8,-4,-2,-2,-1
1470243748053728,-1,2,18,5,-2,-2,-1,-1
1470243748062236,-3,1,-17,-6,0,0,-1,-2
1470243748062236,3,3,4,-6,0,0,-1,1
1470243748077252,-5,-2,19,9,-4,-1,-3,-1
1470243748077252,0,2,-11,-4,-3,-1,-1,-1
1470243748078751,-3,-2,19,5,-2,0,-1,-1
1470243748078751,1,1,3,0,1,0,-2,2
1470243748100270,-2,-3,8,5,-1,-1,0,0
1470243748100270,2,1,-10,-1,-1,0,-1,2
1470243748101771,-1,1,9,-3,-1,-2,0,-1
1470243748101771,-1,-3,-4,-8,-3,-2,0,-1
1470243748113781,-1,-2,-14,0,-1,-1,1,-2
1470243748113781,-4,-1,-4,0,-1,1,-2,1
1470243748122290,-1,-4,15,-9,-4,-3,-2,-3
1470243748122290,0,-1,7,4,-1,-1,-2,-1
1470243748137803,0,1,-3,-3,2,2,2,0
1470243748137803,0,-1,10,5,-3,-2,-1,-2
1470243748139305,0,3,5,0,0,0,0,0
1470243748139305,-2,-1,-20,-5,-1,-1,-2,-3
1470243748159824,-3,-1,7,9,-1,-3,-4,-2
1470243748159824,-1,-3,-24,-13,-1,-1,1,0
1470243748161325,0,-1,7,2,0,0,-2,0
1470243748161325,1,-2,14,3,-1,-3,-1,-1
1470243748173335,1,2,-9,-5,1,4,5,1
1470243748173335,0,1,10,1,-1,-4,-6,-2
1470243748182344,-2,1,-8,-5,-2,2,3,-1
1470243748182344,0,-3,-8,7,0,-6,10,-2
1470243748197361,2,1,15,1,3,2,-25,1
1470243748197361,-2,-4,-7,0,-2,-3,7,-2
1470243748198858,-1,1,-7,-1,0,1,-13,-2
1470243748198858,-4,-1,26,5,-2,-1,-3,-1
1470243748220380,-2,-4,-19,0,0,2,7,0
1470243748220380,-1,0,-6,-5,-1,-1,-2,0
1470243748221380,4,1,7,6,2,-3,-1,-1
1470243748221380,0,-1,-27,-14,-2,-3,1,0
1470243748233889,2,3,6,2,-1,-4,1,0
1470243748233889,-4,-1,15,5,-5,-7,-6,-4
1470243748242398,-2,-1,19,2,-1,2,5,-2
1470243748242398,-2,0,22,4,-1,-2,-3,0
1470243748257411,1,0,-26,-8,-1,3,-2,-1
1470243748257411,-1,-5,-10,-13,-1,-1,13,1
1470243748258912,-2,-4,-15,3,-2,-7,-27,-3
1470243748258912,1,1,5,5,-2,1,6,0
1470243748279930,-2,-4,-5,-19,-2,8,9,-2
1470243748279930,-1,-3,11,3,4,3,-1,0
1470243748282434,-2,1,21,3,-5,2,-1,-3
1470243748282434,0,-3,-41,-3,2,-5,-5,-1
1470243748293443,-9,-2,44,10,-6,-13,1,-6
1470243748293443,4,2,-19,-11,-1,1,2,1
1470243748303954,0,-2,-52,-14,-1,-4,6,0
1470243748303954,-4,-2,43,20,1,2,-5,-1
1470243748317464,-2,-3,-8,-22,-6,-1,5,0
1470243748317464,-2,-4,-21,-5,-1,-2,-9,-2
1470243748318966,0,1,-12,-9,0,-2,3,0
1470243748318966,1,2,0,2,-3,1,-1,-2
1470243748339984,1,-3,-2,6,-3,-5,-1,1
1470243748339984,0,3,16,1,2,0,-2,-2
1470243748341487,1,-1,-13,-7,1,2,4,1
1470243748341487,-1,-3,17,7,-2,1,-1,-2
1470243748353500,-1,-4,-8,0,-1,-1,-3,-2
1470243748353500,-4,-7,-22,0,-4,-2,-5,-1
1470243748362505,-2,-7,-32,-18,0,1,5,-1
1470243748362505,-2,1,-10,5,-1,-1,-3,-4
1470243748377519,0,-1,-4,-10,-4,-3,-4,-2
1470243748377519,0,-5,-4,-1,3,-1,-2,-2
1470243748379021,-5,-8,23,21,2,-2,1,-1
1470243748379021,0,1,-12,-16,-7,0,-3,-2
1470243748400039,2,1,-25,-3,2,-2,-2,-1
1470243748400039,3,-1,44,7,3,2,-1,0
1470243748403045,-3,-1,-7,16,-6,-4,1,-1
1470243748403045,-1,-2,-9,-5,-1,-1,-1,-1
1470243748422560,-2,3,20,9,-4,-2,-1,-2
1470243748422560,1,3,-19,-20,-6,-1,-2,0
1470243748424061,-3,3,29,18,2,-2,-1,-2
1470243748424061,-1,-3,3,-5,1,0,1,0
1470243748437573,1,-3,-26,-16,1,-2,0,-1
1470243748437573,-3,-2,3,14,-3,-2,-1,-2
1470243748439074,1,7,32,4,-2,-1,0,2
1470243748439074,-3,-4,-31,-11,-1,-1,-2,0
1470243748460092,-1,-3,6,-5,0,-4,-1,0
1470243748460092,-1,3,-11,4,-1,-1,-1,-1
1470243748461094,0,-3,-10,-17,-3,1,1,-1
1470243748461094,1,2,31,8,0,0,-2,-2
1470243748482613,0,0,-3,14,5,2,-1,1
1470243748482613,-4,-5,-20,-11,-3,-4,-3,-4
1470243748484114,3,2,-18,-9,0,0,1,0
1470243748484114,-2,-4,17,5,-2,-2,-3,-2
1470243748496625,0,3,4,1,-1,-1,-2,1
1470243748496625,-2,-5,-21,-3,-4,-3,-1,-2
1470243748511139,0,1,11,8,2,-2,-3,-1
1470243748511139,-1,-3,-6,-14,1,0,0,-1
1470243748520147,-1,3,20,12,-4,-2,-2,-3
1470243748520147,0,4,12,-3,2,1,0,1
1470243748521649,-2,-5,-9,-8,-6,-4,-2,-1
1470243748521649,2,0,-9,-2,3,3,1,0
1470243748542667,-4,-1,-4,-6,-4,-3,-2,0
1470243748542667,-1,-1,-12,-6,-1,-1,0,-1
1470243748544168,-1,0,12,0,-8,-1,0,-2
1470243748544168,-1,-1,-25,1,0,-1,-1,1
1470243748556680,-1,-3,0,3,0,-2,-2,0
1470243748556680,0,-1,-5,3,1,0,0,-1
1470243748564188,0,1,8,-7,-2,-3,-1,0
1470243748564188,1,0,-17,-10,-3,-3,0,-1
1470243748579700,-3,-4,31,5,-2,-2,-3,-3
1470243748579700,-2,0,6,6,0,0,-3,0
1470243748581702,-3,-2,-19,-5,1,-1,1,0
1470243748581702,0,-2,6,3,0,-1,-2,-2
1470243748602222,-3,-1,-1,5,0,0,0,-1
1470243748602222,-1,-1,8,-5,0,0,-1,0
1470243748604222,0,-3,-15,-7,-2,1,0,-2
1470243748604222,0,2,29,1,-1,-2,-1,-1
1470243748616735,-2,-2,-34,-1,-1,-1,-1,0
1470243748616735,-1,-2,-9,-9,-2,-1,-2,-3
1470243748623741,-4,-3,1,6,0,-2,0,-1
1470243748623741,-2,0,3,-3,0,0,-1,-1
1470243748640255,-1,-1,-6,-8,1,0,-1,-1
1470243748640255,-4,2,12,1,-4,-3,-1,-1
1470243748641756,0,1,1,4,1,0,-1,0
1470243748641756,-3,-4,0,-1,-2,-1,-1,-2
1470243748662275,1,0,-8,-4,2,1,-1,0
1470243748662275,0,-5,-12,-12,-5,-2,-3,-1
1470243748664277,0,3,24,-2,-2,-1,0,-2
1470243748664277,-6,-4,-1,5,-2,-3,-3,-2
1470243748676788,-1,-5,-18,-20,-6,-1,-1,-1
1470243748676788,0,3,21,21,2,-2,0,0
1470243748683795,1,-3,-19,-12,-5,-1,0,-2
1470243748683795,1,-4,6,5,3,0,-1,-1
1470243748699807,2,0,1,-6,-3,-2,-1,-2
1470243748699807,-1,0,4,-1,1,-1,-1,-1
1470243748701309,0,-5,-14,-5,-2,-1,-1,1
1470243748701309,-2,2,-8,1,-3,-2,-2,-1
1470243748729836,-1,0,18,11,3,-1,-1,-1
1470243748729836,-2,-1,-8,0,-2,1,0,-1
1470243748731336,-2,2,1,0,4,-2,-1,-1
1470243748731336,-1,-3,-14,-13,-5,0,-1,-1
1470243748736844,2,0,-8,6,4,1,0,1
1470243748736844,-1,-1,9,-2,-5,-3,-1,-3
1470243748743848,-1,0,3,9,0,0,0,1
1470243748743848,-1,-1,-18,-6,0,-1,-1,0
1470243748759863,0,0,-2,3,-1,1,0,1
1470243748759863,0,-7,-16,-13,-1,-1,1,1
1470243748761363,1,2,24,6,2,-1,0,1
1470243748761363,-2,-1,-2,0,-2,-1,0,-1
1470243748782382,-2,-1,1,-2,-1,0,-2,-1
1470243748782382,-2,-1,-3,-6,-2,-1,-1,-3
1470243748783884,1,2,-7,5,2,0,-1,0
1470243748783884,-4,0,26,3,-4,-2,1,-2
1470243748796896,-1,2,-9,-5,-4,-3,-1,-2
1470243748796896,-3,-3,-2,5,1,0,-1,-1
1470243748810908,-1,-5,-16,-4,-2,-1,-1,-2
1470243748810908,0,-2,1,-5,0,-4,0,-2
1470243748819916,-2,0,10,8,1,2,1,-3
1470243748819916,-1,-1,-1,-1,-1,-3,-1,-2
1470243748821419,-3,1,2,-3,-1,0,0,-1
1470243748821419,0,-1,-17,-12,-2,-1,-1,0
1470243748842436,1,-2,17,8,-4,-2,-2,-1
1470243748842436,-1,0,17,-3,3,0,0,-1
1470243748843937,0,-3,0,4,1,-1,-1,-1
1470243748843937,-3,3,4,-6,-5,-2,-2,-2
1470243748856949,-3,-2,2,1,-1,-2,-2,0
1470243748856949,1,1,-4,5,0,1,0,-1
1470243748863455,-4,-3,16,-8,-5,-1,-1,0
1470243748863455,1,-3,-14,5,2,-1,0,-1
1470243748879970,1,-1,-9,-6,1,0,0,2
1470243748879970,-3,0,9,9,-1,-1,-1,-1
1470243748881472,-1,-2,-5,-11,-5,-2,-2,-2
1470243748881472,-1,1,1,2,1,0,-1,-2
1470243748902490,1,-1,-26,-16,-1,0,0,-1
1470243748902490,-1,3,44,17,-2,-2,-2,-1
1470243748903993,-1,-4,-13,-5,0,0,-1,-1
1470243748903993,-1,-1,-1,-2,-2,0,-2,0
1470243748916005,-1,-2,-16,0,1,-3,0,-2
1470243748916005,-6,-3,7,-7,0,0,-3,-1
1470243748925010,-1,-2,-1,2,-3,-2,-1,-1
1470243748925010,1,-2,-1,1,2,1,0,-1
1470243748940025,-5,-3,0,4,-1,-3,-1,0
1470243748940025,2,-2,-10,2,-2,-1,-1,0
1470243748941526,-3,-2,3,10,0,-1,-1,-1
1470243748941526,0,2,-1,-14,-1,1,0,0
1470243748962543,1,-6,-6,-4,-2,0,0,-2
1470243748962543,-2,0,-9,4,-1,0,-1,-2
1470243748964045,0,1,-10,-13,-1,0,1,0
1470243748964045,0,-2,-3,11,-2,-3,0,-1
1470243748976057,-2,0,6,0,-1,-1,-2,-1
1470243748976057,2,-1,-18,-6,-1,0,0,0
1470243748985065,-1,-4,-12,0,-1,0,-2,-2
1470243748985065,-1,-3,0,0,-1,1,-1,-1
1470243749000077,-4,-1,4,-9,-1,0,0,-1
1470243749000077,-2,-1,-13,-2,-3,-1,0,-1
1470243749001579,-1,0,1,2,1,0,-2,-2
1470243749001579,-1,0,4,1,-1,-3,-2,0
1470243749022598,-3,2,8,1,-1,-2,-1,-2
1470243749022598,3,-1,-4,-4,-1,1,2,1
1470243749024099,0,-3,-9,-3,-2,-1,-1,-2
1470243749024099,-5,0,8,2,-1,-1,-2,-2
1470243749036112,-1,-3,-5,4,-2,1,-2,0
1470243749036112,-3,1,0,-1,0,-1,0,-1
1470243749045118,0,2,6,-8,0,0,2,-1
1470243749045118,0,-4,-20,0,-2,-2,0,0
1470243749060131,-2,0,28,9,-2,-2,-1,-2
1470243749060131,-1,-4,-15,2,0,0,0,-3
1470243749061632,0,0,4,-1,2,0,-1,-1
1470243749061632,1,1,3,-5,2,1,0,-1
1470243749082151,-2,0,2,8,-5,-1,0,-3
1470243749082151,-3,-3,-4,-5,-1,-2,-3,0
1470243749084154,-2,0,2,-9,-2,-3,-1,0
1470243749084154,0,-2,-3,1,-2,1,-1,-1
1470243749096163,2,0,-6,0,4,3,0,0
1470243749096163,0,-3,-3,-8,-1,-1,0,-2
1470243749105172,-3,-2,-7,5,-3,-3,-2,-2
1470243749105172,-7,2,18,7,-3,-2,-1,-2
1470243749120186,-2,-4,-14,-14,0,0,0,1
1470243749120186,0,0,6,4,-1,-2,-2,0
1470243749121689,-1,-3,-3,0,0,0,-1,-2
1470243749121689,2,-1,-3,-4,-1,0,0,2
1470243749142206,-1,2,2,-1,-4,-1,-1,-2
1470243749142206,-1,-3,-12,-7,-1,0,3,2
1470243749144207,-5,-3,5,3,-3,-1,-3,-2
1470243749144207,1,0,3,-2,0,-1,-1,-1
1470243749156218,-1,-3,10,0,-1,-1,-1,-1
1470243749156218,2,2,-1,1,-1,-1,-2,-2
1470243749165226,-3,-1,8,5,-1,-2,-1,-1
1470243749165226,0,-3,-24,-13,-2,0,-1,-1
1470243749180241,-2,-3,0,-1,-2,-2,-3,-2
1470243749180241,-1,-2,4,0,-2,0,-2,-1
1470243749181240,-1,-1,1,0,-1,2,0,0
1470243749181240,0,0,-2,1,-2,-1,-2,-1
1470243749202259,0,-1,-19,-8,-2,0,1,0
1470243749202259,-5,-2,2,-4,-1,-3,-1,-2
1470243749204263,0,-1,-13,2,0,-1,-1,0
1470243749204263,2,-1,1,0,-1,-3,-1,-4
1470243749216273,-3,3,21,3,-1,1,-1,1
1470243749216273,0,-3,-16,-1,-2,-2,-2,-2
1470243749224780,1,1,1,-3,1,1,0,-2
1470243749224780,-2,-2,6,4,-2,-1,0,0
1470243749239793,-1,-5,-4,-4,0,-1,-1,-2
1470243749239793,-2,0,12,-7,-2,-2,-2,-1
1470243749241295,-2,0,-12,2,-2,-1,0,-2
1470243749241295,-2,2,1,4,1,0,-1,-1
1470243749262313,0,-2,-2,8,2,1,1,1
1470243749262313,-2,-4,-16,-11,-3,-1,-2,0
1470243749263814,4,1,9,5,1,0,-2,1
1470243749263814,-1,1,6,8,0,0,1,0
1470243749276325,-2,0,-23,-17,-5,-2,0,0
1470243749276325,0,1,-4,0,-1,-1,-1,-2
1470243749284833,-2,-1,-2,-4,3,0,0,1
1470243749284833,-3,0,2,-1,-1,-1,-2,-2
1470243749299847,-1,0,6,-2,0,-2,-3,-1
1470243749299847,0,-4,-7,-2,-2,-1,0,0
1470243749301348,-3,2,20,2,-2,-2,-2,-3
1470243749301348,-1,-4,-30,-11,-2,-1,-1,-2
1470243749322367,0,2,19,13,0,-2,-2,0
1470243749322367,-1,-1,-5,-8,-1,0,0,1
1470243749323869,-3,-3,5,0,-2,-3,-1,-2
1470243749323869,-2,-1,0,-1,-1,0,-1,1
1470243749344888,0,-3,-5,-2,-1,-1,-3,-5
1470243749344888,-1,0,-19,2,3,1,-1,-2
1470243749346389,-2,3,28,8,-3,0,-1,-1
1470243749346389,0,0,14,6,0,-1,0,-1
1470243749360402,-1,-1,2,-10,-3,-2,-1,-2
1470243749360402,0,-2,2,5,1,0,-1,-1
1470243749361903,1,-2,-14,-5,-1,-1,-3,-1
1470243749361903,-1,-1,1,0,0,-1,0,-1
1470243749382422,-1,-2,-12,-3,-1,-1,1,-1
1470243749382422,-2,0,17,3,-4,0,-2,-2
1470243749383923,-1,-1,-4,-6,-3,-2,-1,0
1470243749383923,-3,-2,-10,-5,-2,-1,-2,-2
1470243749404943,-2,-1,0,0,-1,-4,-3,-1
1470243749404943,-1,0,-3,0,-1,-1,-2,-2
1470243749406443,-1,-4,-7,1,1,-1,0,-1
1470243749406443,2,-3,-6,-8,0,1,-2,-1
1470243749420456,-6,0,6,2,0,-2,0,-3
1470243749420456,-1,2,23,21,-1,-1,-1,-3
1470243749421457,-3,-4,-27,-21,-5,-2,0,-1
1470243749421457,-1,-1,-2,6,0,-2,0,-1
1470243749442475,1,-3,-6,-3,1,2,0,0
1470243749442475,-1,0,19,0,0,-1,0,0
1470243749443977,-1,-5,-27,-1,2,0,-2,1
1470243749443977,-3,-3,1,-1,-2,-1,-2,-3
1470243749464995,0,-1,1,9,0,2,0,0
1470243749464995,-2,1,7,-10,-3,-1,0,0
1470243749466497,1,-2,-1,-3,-2,-1,0,-1
1470243749466497,0,3,15,1,3,-1,-1,0
1470243749480014,-1,-5,-16,-1,-5,-2,-2,-2
1470243749480014,0,1,-5,5,1,-1,-2,-3
1470243749482511,-5,1,-6,-3,-2,-1,0,0
1470243749482511,0,0,0,-5,-3,-2,0,0
1470243749502530,-1,-1,14,4,0,0,0,-2
1470243749502530,-1,-4,-35,-13,-1,0,-1,-1
1470243749504034,0,-2,23,3,-1,-1,-1,-2
1470243749504034,-3,-4,-1,-1,-2,-1,-2,-2
1470243749525049,-3,0,-8,-2,-3,0,-3,0
1470243749525049,0,-3,3,-1,-1,-2,0,-1
1470243749526550,-1,1,6,4,-2,-3,-2,-2
1470243749526550,-1,-2,-7,-3,-2,0,0,0
1470243749539562,1,-4,-16,-9,-4,-3,-2,1
1470243749539562,-1,-1,6,-6,2,1,-2,-1
1470243749546068,0,2,20,6,-4,2,0,0
1470243749546068,0,-2,-18,-6,-1,-2,-1,-2
1470243749562584,-2,-1,-7,-13,-2,-3,-1,-4
1470243749562584,0,0,4,4,-1,-1,-1,-2
1470243749564084,-2,-3,-9,-2,-1,-1,-2,-2
1470243749564084,-2,0,3,-2,-1,0,-1,0
1470243749585103,1,2,16,7,2,1,1,0
1470243749585103,0,-4,-20,-8,-2,-4,-3,-1
1470243749586607,-1,2,0,-1,2,-1,1,0
1470243749586607,-2,-3,-20,-4,0,0,-2,-1
1470243749599116,0,-1,15,6,-1,-1,0,0
1470243749599116,-1,-4,2,0,-3,-1,0,-1
1470243749606123,1,-3,-8,3,0,-2,-1,-1
1470243749606123,-1,1,9,2,-3,-1,-3,-1
1470243749622636,-1,2,-10,-3,-1,0,1,-2
1470243749622636,-4,-4,-18,-9,-6,0,0,-1
1470243749624139,0,-3,-2,-4,-2,-1,0,-1
1470243749624139,-2,0,5,1,0,-1,0,-2
1470243749645158,-3,-6,-5,1,-4,-2,-2,-3
1470243749645158,0,2,5,1,0,-1,-1,2
1470243749646659,3,-2,10,0,0,1,0,0
1470243749646659,-1,-2,-10,1,-1,-2,1,0
1470243749659170,1,0,-2,-5,1,-1,-1,0
1470243749659170,-2,-1,-2,4,-3,-1,-2,0
1470243749666177,0,0,0,-3,-1,0,-1,0
1470243749666177,0,-2,14,2,1,0,0,-2
1470243749682691,2,0,-3,0,-2,-2,0,0
1470243749682691,-2,-4,-22,-19,2,0,-1,0
1470243749684193,2,3,22,14,-2,-2,-2,0
1470243749684193,-4,-2,-3,1,-4,-2,0,-3
1470243749705211,-2,-1,-5,-3,-2,-3,-3,0
1470243749705211,0,2,8,0,0,0,1,0
1470243749706712,0,0,-7,-12,0,1,0,0
1470243749706712,-3,-5,-7,5,-1,1,-2,-1
1470243749719728,-1,0,1,-10,-1,-2,-1,-2
1470243749719728,1,0,-9,9,-1,-1,0,-1
1470243749726229,-5,-6,-12,-10,1,-2,-1,-2
1470243749726229,1,2,12,2,-1,1,-1,0
1470243749742244,0,-1,5,4,0,-2,0,1
1470243749742244,0,0,13,3,1,0,0,-2
1470243749743745,-1,-2,-7,-3,-4,-2,-5,-3
1470243749743745,0,-2,-4,-1,0,-1,1,-2
1470243749764764,-2,2,7,2,-2,-3,1,-1
1470243749764764,-1,-1,2,1,2,0,-6,-1
1470243749766767,-1,0,-1,0,0,0,0,-1
1470243749766767,-1,0,-1,-8,-4,-3,-1,0
1470243749779279,-3,-1,-12,-3,1,2,-2,0
1470243749779279,-2,0,5,3,-1,-2,0,-1
1470243749786286,2,-3,-11,-2,-2,-2,0,-1
1470243749786286,-2,0,2,-6,-1,-3,-2,1
1470243749802298,1,-1,0,0,1,1,-1,-2
1470243749802298,-2,-2,-7,3,-3,-2,0,0
1470243749804300,0,-3,-3,-7,0,-1,1,0
1470243749804300,0,0,-13,-1,1,0,2,-1
1470243749824818,-5,-3,-1,1,-5,-4,-4,-2
1470243749824818,-2,2,22,7,-2,-1,1,-1
1470243749826319,-1,0,-9,0,0,-3,-3,-1
1470243749826319,2,-1,-4,-8,-3,0,-1,1
1470243749838832,1,-3,-14,-3,1,0,-1,0
1470243749838832,1,-1,-5,-4,-3,-3,-3,-2
1470243749847338,-3,0,-3,-2,-1,1,0,-1
1470243749847338,-3,0,21,5,0,-1,-2,0
1470243749862351,0,0,-4,-5,-1,-1,0,0
1470243749862351,-2,-4,6,1,-2,-1,1,-2
1470243749863854,0,-1,-4,-1,-1,0,-2,1
1470243749863854,1,2,9,3,-1,0,-3,-1
1470243749884872,-3,-2,-6,-4,-2,-2,-3,-5
1470243749884872,-1,0,-3,-1,-2,-2,-1,-1
1470243749886875,-2,1,-19,-4,-1,-3,0,0
1470243749886875,-4,-6,-16,-7,-4,-2,-1,-1
1470243749898886,2,2,25,7,2,-1,0,-1
1470243749898886,-1,-5,-22,-6,3,0,-1,-1
1470243749907392,-3,-2,18,5,-6,-1,-3,-2
1470243749907392,0,-1,-10,3,2,0,-2,0
1470243749922407,-2,-3,1,-12,-1,-1,-2,0
1470243749922407,-2,0,11,9,1,-1,-2,0
1470243749923908,2,1,3,-3,-3,-1,-1,-1
1470243749923908,-1,-2,-4,6,-1,-3,1,-1
1470243749944926,1,-1,-6,-5,0,1,0,-1
1470243749944926,1,-3,-1,-6,-5,-3,-3,-1
1470243749946427,-3,3,20,6,-1,1,0,-2
1470243749946427,0,1,1,-1,0,1,-2,0
1470243749958942,1,-1,-18,1,2,0,-1,1
1470243749958942,2,1,20,3,-1,-1,0,-1
1470243749967446,-3,-4,-15,-5,-2,-2,0,-1
1470243749967446,-1,-2,7,-10,-4,-3,-1,-3
1470243749982460,-1,0,-3,-3,-2,-1,-1,0
1470243749982460,-3,1,10,3,2,0,0,0
1470243749983962,2,-2,-2,1,-1,-2,-2,-1
1470243749983962,-2,-3,-7,-7,-1,0,-2,-1
1470243750004982,-2,-1,4,5,-2,-3,0,-1
1470243750004982,-4,-1,-9,-11,-2,-2,-2,-1
1470243750006482,-3,-1,0,-3,-2,-1,0,-1
1470243750006482,-1,-1,-12,-1,0,-1,0,-2
1470243750018492,-1,0,9,15,-3,0,-1,-1
1470243750018492,-1,-2,-14,-9,-1,1,-2,-1
1470243750027501,0,-3,1,-7,1,1,-1,-1
1470243750027501,1,1,5,1,0,0,-1,0
1470243750042514,-5,-3,6,-7,-3,-1,-3,-1
1470243750042514,1,1,1,9,3,-1,0,-1
1470243750044015,-1,1,12,11,0,-1,-2,-1
1470243750044015,2,-4,-17,-2,-2,-1,-1,-1
1470243750065033,-1,0,-11,-7,-1,0,-1,0
1470243750065033,-3,-1,15,0,-5,0,-2,-2
1470243750066535,0,1,-8,-4,0,-1,-3,-2
1470243750066535,1,1,5,6,-1,-2,-1,-1
1470243750078546,0,0,0,0,-2,0,-2,-1
1470243750078546,-2,-1,0,1,-4,-2,1,-2
1470243750087555,-2,-4,-11,-4,-3,-1,-1,0
1470243750087555,-1,-1,13,2,-2,-1,0,0
1470243750102568,1,-3,-4,-2,0,0,0,0
1470243750102568,-1,-1,-8,-3,-2,-2,-2,0
1470243750104071,-1,-4,6,4,2,0,-1,-1
1470243750104071,-2,1,10,-4,-2,-2,2,-1
1470243750125087,0,-4,-27,5,-2,-2,-1,-1
1470243750125087,2,2,7,-12,-2,0,1,1
1470243750126590,0,-1,5,5,2,0,-2,-2
1470243750126590,-2,0,10,4,-2,-2,-3,1
1470243750138601,1,-4,-4,2,-1,0,0,-2
1470243750138601,0,0,-7,-3,0,0,-1,0
1470243750147608,-3,0,-20,-5,-5,-2,-1,-3
1470243750147608,-2,2,6,0,2,2,0,-1
1470243750162622,-3,-1,12,-1,-3,0,-1,-3
1470243750162622,1,-3,-24,-6,-1,1,-2,0
1470243750164123,-1,-3,28,0,-1,0,0,1
1470243750164123,-1,-2,-14,-1,-3,-1,-2,-2
1470243750185141,-1,-2,-3,-4,0,-1,-2,-1
1470243750185141,1,-1,-19,-7,1,-1,0,-1
1470243750186645,0,2,18,6,-2,-2,0,-1
1470243750186645,-2,-3,3,-2,-4,0,-1,-2
1470243750199157,-3,0,-11,-14,-2,-1,-3,-2
1470243750199157,0,1,6,5,-1,-2,-1,-3
1470243750207663,1,-4,-24,-8,-1,-1,-1,-1
1470243750207663,-2,-1,5,8,1,-1,0,0
1470243750222676,-1,0,5,-5,2,1,-2,-1
1470243750222676,0,-4,1,-3,0,1,-1,-2
1470243750224179,-8,2,-5,-5,0,-2,0,-2
1470243750224179,-1,0,-6,3,-1,0,-1,-1
1470243750252702,-1,0,-7,3,-1,-2,0,-2
1470243750252702,-3,-2,6,-5,-2,-4,0,-1
1470243750254204,-1,-3,-13,-7,-3,-2,-1,-2
1470243750254204,0,0,5,-1,1,-3,-1,-1
1470243750258708,1,0,4,5,0,-2,-1,-2
1470243750258708,-2,-2,4,2,-2,-1,-1,1
1470243750267715,1,-4,-7,-6,-3,1,0,-2
1470243750267715,-1,0,-3,-6,-1,-2,-2,0
1470243750282229,-1,3,34,7,-2,0,0,2
1470243750282229,-2,-3,-34,1,-3,-2,-1,-2
1470243750283731,0,-2,8,-2,0,0,0,0
1470243750283731,-2,-4,-10,-1,1,0,-1,-2
1470243750304900,-1,-2,-3,-16,-5,-3,-1,0
1470243750304900,1,4,9,-4,0,-2,-1,1
1470243750306399,1,2,1,7,0,0,-1,3
1470243750306399,-7,0,-2,-5,-1,0,-1,-2
1470243750327420,0,-1,4,4,-1,-2,-1,-2
1470243750327420,-2,-3,4,2,-1,-2,-2,-2
1470243750328919,0,-6,-34,-8,-2,-2,-1,-3
1470243750328919,-2,-2,9,-1,-4,-3,-1,1
1470243750342932,0,0,-7,4,2,0,1,0
1470243750342932,-3,-1,4,-1,-1,0,-1,-1
1470243750344435,1,0,3,6,0,-1,-1,-1
1470243750344435,1,-3,-6,-6,-3,-2,-1,-3
1470243750364951,-4,2,18,7,-3,-2,-2,-1
1470243750364951,-1,-5,-13,-6,-1,0,0,-2
1470243750366454,-1,2,12,3,1,0,0,-1
1470243750366454,2,-1,-11,-11,-2,0,-2,-4
1470243750387476,1,-1,-9,0,0,0,-1,-2
1470243750387476,0,1,2,-9,-1,-1,-1,0
1470243750388974,-2,1,10,8,2,-1,-2,0
1470243750388974,0,0,-7,-10,-3,1,0,-1
1470243750402485,0,1,5,3,2,0,-1,-1
1470243750402485,-3,-3,-9,4,-1,0,-2,0
1470243750404988,-2,-2,-15,-6,-3,-2,-1,-2
1470243750404988,0,-2,3,1,-1,-1,-1,0
1470243750425005,-3,2,18,8,-2,-2,-1,0
1470243750425005,1,1,6,13,1,1,0,0
1470243750426508,-2,0,-4,-10,0,-3,-2,-1
1470243750426508,-1,-3,-18,-6,-1,-3,-2,1
1470243750447526,0,-4,-12,-4,0,-1,-3,-1
1470243750447526,-1,0,15,-4,1,-1,0,-2
1470243750449027,-1,-1,-7,-4,-3,-2,-2,0
1470243750449027,-2,-4,1,6,-2,-1,-1,-1
1470243750461538,1,-2,-1,-6,-3,0,0,2
1470243750461538,-1,2,-12,1,-1,-1,-2,0
1470243750468544,0,2,14,4,0,-1,-1,0
1470243750468544,-1,-2,1,-1,-3,-2,-2,-2
1470243750485059,-1,-3,-10,-6,-1,-1,0,-3
1470243750485059,0,-1,4,0,-2,0,-2,1
1470243750486562,0,-1,4,-4,-3,-1,-1,-1
1470243750486562,-2,-1,-3,-1,-2,0,-1,-1
1470243750507579,0,-1,0,1,-1,-2,-1,-2
1470243750507579,-2,2,17,10,0,-2,0,0
1470243750509081,1,-3,-22,-11,-2,-1,0,-1
1470243750509081,-7,0,6,-1,2,1,1,0
1470243750522094,-1,2,-1,8,-2,-1,-3,-2
1470243750522094,-1,-3,-3,-5,2,0,-1,-1
1470243750528598,-1,2,17,4,-1,0,-1,-1
1470243750528598,4,2,-3,0,-1,0,1,-1
1470243750545114,-2,-3,-9,-6,2,-2,1,1
1470243750545114,-1,-1,1,0,-1,-3,-1,-2
1470243750546616,-3,-3,-6,5,2,0,0,1
1470243750546616,-2,-3,-2,-7,-2,-3,1,2
1470243750567633,-1,0,10,-3,-1,-2,0,0
1470243750567633,1,-3,-14,-8,-5,-1,-2,-1
1470243750569135,0,-3,-2,-2,-1,-1,-1,-1
1470243750569135,0,2,0,6,-1,-2,-3,-1
1470243750581646,-2,-3,9,1,0,1,-1,-2
1470243750581646,-2,0,0,-2,-2,-1,-1,-3
1470243750588653,0,-1,-16,-7,0,-1,-1,-1
1470243750588653,-1,3,24,12,1,0,-2,-1
1470243750605168,-1,-3,-23,-6,-2,-1,0,-2
1470243750605168,1,-3,-1,0,-1,1,-2,-1
1470243750606669,-3,-1,15,2,-2,-2,-3,-1
1470243750606669,3,-2,-14,-1,-1,-2,-2,-1
1470243750627687,-1,-3,-3,6,-2,-1,-1,1
1470243750627687,-2,-5,-5,-16,-5,-2,-1,-3
1470243750629189,1,-1,-5,-1,-2,-1,0,0
1470243750629189,-1,-2,8,6,0,0,-2,-1
1470243750641700,-2,0,-6,-4,-1,0,-1,-1
1470243750641700,-1,4,6,1,0,0,-1,-1
1470243750648706,-1,-4,-15,-3,-3,0,-1,-1
1470243750648706,-2,-1,0,-8,-1,0,-1,-2
1470243750664720,-2,0,4,2,0,0,-2,0
1470243750664720,-2,-2,-13,1,-2,-2,0,-2
1470243750666722,-4,-2,26,7,3,0,0,-3
1470243750666722,-2,-1,-15,-8,-4,-2,-1,-1
1470243750687743,0,1,-7,-9,-1,1,0,-2
1470243750687743,-3,0,4,11,0,-1,-2,1
1470243750688743,0,-1,-1,-6,-1,-3,0,0
1470243750688743,-1,-1,2,1,0,0,-2,0
1470243750701755,-1,-2,-4,-2,1,-1,-1,0
1470243750701755,1,-1,-5,2,0,-1,0,0
1470243750715768,-8,-2,4,-8,-4,-1,-1,-2
1470243750715768,-2,0,3,-3,-1,0,-1,1
1470243750724774,-2,-2,-4,-6,-3,0,-1,-2
1470243750724774,0,0,8,3,-1,-1,-1,-2
1470243750726777,1,0,-5,-4,-1,-2,-1,0
1470243750726777,0,-2,-1,3,-1,-3,-1,-2
1470243750747295,-2,-2,-6,-1,-3,-2,-1,-3
1470243750747295,0,-1,5,-5,-2,1,-1,-1
1470243750748797,0,4,12,5,-2,1,0,-1
1470243750748797,-2,-8,-26,-3,-2,0,-1,-2
1470243750761809,-2,-3,6,-2,-2,-2,-2,-1
1470243750761809,-2,0,-7,-3,-2,-1,-1,0
1470243750768314,0,0,-3,-3,-1,-2,-1,-2
1470243750768314,-2,0,11,8,-2,-2,-1,0
1470243750784829,0,-1,-6,-2,0,-1,-1,1
1470243750784829,1,-3,-6,-6,-2,-2,0,-1
1470243750788332,-3,-3,0,2,-1,-1,-2,-1
1470243750788332,0,2,-2,-1,0,-4,-2,-2
1470243750807851,-1,1,12,6,1,0,1,0
1470243750807851,-2,-1,-21,-20,-1,-2,-2,-2
1470243750808851,1,0,15,10,-2,2,-1,1
1470243750808851,-3,-1,4,-2,0,-1,0,-1
1470243750821364,0,-1,-21,-4,-2,-3,0,-2
1470243750821364,-2,-4,-1,2,1,-1,-1,-1
1470243750829871,0,-3,-10,-2,-2,0,0,-1
1470243750829871,0,-1,18,-5,0,0,-3,-1
1470243750844883,1,1,-3,1,-1,0,-1,1
1470243750844883,-4,-3,15,6,-2,0,-2,-2
1470243750846385,0,0,-8,5,-1,-1,-1,-2
1470243750846385,0,-2,-11,-4,-2,-1,0,-2
1470243750867404,0,1,8,-6,-2,-3,-1,-1
1470243750867404,1,-1,0,4,0,0,0,0
1470243750868905,-1,0,1,-6,0,-1,0,-1
1470243750868905,1,0,8,4,0,0,1,0
1470243750880915,0,-3,-19,-2,0,0,-1,0
1470243750880915,-3,-1,6,6,0,0,0,-1
1470243750889925,-2,-4,-12,-5,-1,0,-3,-1
1470243750889925,-2,1,1,2,0,-1,0,-2
1470243750904938,-1,-3,-12,-2,1,-1,0,0
1470243750904938,-1,4,26,-8,-3,-1,0,0
1470243750906438,-1,-2,-12,10,-2,-2,-1,0
1470243750906438,-3,-1,-8,-13,0,-2,-3,-1
1470243750927456,-1,-1,16,7,0,1,-1,0
1470243750927456,-1,-1,-16,-4,-2,-2,-2,-1
1470243750928959,-1,0,12,-1,1,-1,0,-2
1470243750928959,1,-2,-3,-1,-4,-1,-2,-2
1470243750940969,-2,0,2,-1,-3,-1,-1,0
1470243750940969,-2,-4,0,7,1,-2,0,1
1470243750949978,-1,0,-9,-8,-2,-1,-2,-2
1470243750949978,-1,-2,6,2,-1,0,0,-1
1470243750964991,-2,-1,5,0,-1,-1,-1,-1
1470243750964991,1,3,12,1,-1,1,0,0
1470243750966492,-9,-5,-28,-6,-1,-3,-1,-4
1470243750966492,-1,-3,-13,-6,-4,0,-1,0
1470243750987514,-2,-1,12,4,-1,-2,-2,-1
1470243750987514,0,-1,-12,-3,1,-1,-1,1
1470243750989012,2,3,21,-3,0,-2,0,-1
1470243750989012,-1,-2,-30,0,-3,-3,-1,-1
1470243751001023,-2,-1,7,-8,0,-2,-1,-1
1470243751001023,-2,-1,-17,-3,0,-3,-1,0
1470243751010031,3,1,7,1,-1,2,0,1
1470243751010031,-1,-2,6,6,2,-1,-1,0
1470243751025045,-2,-5,-6,-12,-2,-3,-2,-2
1470243751025045,0,-1,1,-2,-4,-2,0,-3
1470243751026546,-1,2,-3,0,1,-1,-1,0
1470243751026546,-2,-1,-4,6,-1,-1,0,0
1470243751047564,-1,-1,-2,2,-2,1,-1,-1
1470243751047564,-1,-1,5,-1,-1,1,0,-1
1470243751049066,-2,-3,-6,-2,-2,-2,-1,0
1470243751049066,3,0,16,4,3,-1,-1,0
1470243751061077,-1,-2,-36,-13,-2,-1,0,0
1470243751061077,-3,1,8,2,-2,-2,-2,-2
1470243751070088,-2,-1,12,3,-1,1,-1,-4
1470243751070088,-1,0,0,-3,-1,-1,-2,-1
1470243751085098,-2,1,14,1,0,1,0,1
1470243751085098,-3,-5,-37,-2,-2,0,-1,1
1470243751087102,1,-2,6,2,0,0,-1,1
1470243751087102,-3,0,7,-12,0,-1,0,-2
1470243751107619,0,-1,-3,3,-1,-2,0,0
1470243751107619,-3,-1,4,0,-2,-1,-2,-1
1470243751109120,0,1,3,-2,4,0,1,2
1470243751109120,-3,-3,-3,2,-6,-2,-1,-2
1470243751121632,-3,-1,-5,-13,-4,-3,-3,-1
1470243751121632,-1,-1,-1,1,-1,-2,-1,-1
1470243751130140,0,-2,3,3,-1,-2,-2,1
1470243751130140,-1,2,1,3,3,-1,-2,-1
1470243751145152,0,-1,-2,3,0,0,-3,-4
1470243751145152,-1,0,13,-1,-1,0,-1,-2
1470243751146653,-1,-3,-7,-2,-2,0,-2,-2
1470243751146653,0,-2,-18,-10,-3,1,0,-1
1470243751167172,2,2,12,5,2,-3,1,-2
