timestamp,emg1,emg2,emg3,emg4,emg5,emg6,emg7,emg8
1470246978894086,-1,-1,-4,-4,-2,-2,-2,0
1470246978894086,-1,0,0,5,0,0,-2,-1
1470246978894588,-1,3,32,3,-2,-1,-1,-1
1470246978894588,0,0,-24,-1,-3,-2,-1,0
1470246978909100,-1,-2,-5,-3,0,-1,-2,-2
1470246978909100,1,-1,-3,-6,-1,-1,-1,-1
1470246978909601,-2,-3,-1,2,0,-1,-1,-2
1470246978909601,-1,-1,18,0,-1,-1,-2,0
1470246978931620,0,-1,-8,0,0,-2,-1,-1
1470246978931620,-3,-5,-5,-3,-1,-2,0,-2
1470246978932122,-1,1,11,2,-1,0,-1,-1
1470246978932122,-4,-1,-13,-4,-3,-2,0,-2
1470246978954141,1,-8,0,2,-1,1,-1,0
1470246978954141,-3,-3,-3,0,-2,-1,-2,-1
1470246978954641,0,1,4,-2,-2,-2,-2,1
1470246978954641,1,4,-15,-1,-1,-1,1,-3
1470246978969154,-5,-14,-16,-7,-2,-2,-2,-2
1470246978969154,0,2,0,-4,0,-3,0,-2
1470246978969655,2,1,-1,3,-2,-1,0,-2
1470246978969655,-2,-6,5,-1,1,-1,-2,0
1470246978991675,-5,2,4,1,-4,-3,-2,-1
1470246978991675,0,-1,21,4,-3,-1,1,-1
1470246978992177,-3,-1,-11,-1,-2,-1,-1,0
1470246978992177,2,1,-8,-2,1,1,1,-1
1470246979014195,1,2,-2,-2,0,-2,0,-1
1470246979014195,0,-1,2,1,0,0,-1,0
1470246979014695,1,0,1,-3,-2,-1,-1,-2
1470246979014695,-3,0,3,0,-1,0,1,-3
1470246979037215,2,1,3,0,1,1,-1,1
1470246979037215,-3,-4,-8,-4,-5,-2,0,-6
1470246979037716,0,1,-7,1,-1,-1,0,4
1470246979037716,-1,1,5,1,-1,-2,-2,0
1470246979051228,-2,2,12,-2,-1,-2,-1,-3
1470246979051228,-1,-11,-25,-7,3,-1,-2,-1
1470246979052230,-2,-2,8,3,-2,-1,-3,-4
1470246979052230,-1,-2,-30,-9,-2,-1,-3,0
1470246979073750,0,7,12,9,0,-1,-1,0
1470246979073750,-2,-4,-12,-6,1,0,-1,0
1470246979074752,1,2,-9,-2,-1,0,1,-3
1470246979074752,-1,1,14,-1,1,-1,1,-1
1470246979088762,1,-5,0,-2,0,1,1,-2
1470246979088762,-2,2,-7,-1,-4,-2,-2,-1
1470246979089763,2,2,2,-2,-1,-1,-1,4
1470246979089763,0,-3,11,2,0,0,0,-2
1470246979111783,-3,-3,-9,-4,-2,-1,-2,0
1470246979111783,0,3,6,5,1,0,2,-1
1470246979112284,-3,-4,4,0,1,-2,0,-2
1470246979112284,2,2,-7,-3,-1,-2,0,1
1470246979133802,0,1,9,0,-1,1,-1,-1
1470246979133802,-1,-1,-5,0,1,-1,-1,0
1470246979134804,-3,-4,-14,-7,-3,-2,-3,-2
1470246979134804,3,7,1,-3,-1,0,-1,-1
1470246979148315,-3,-5,3,0,-2,-3,0,-1
1470246979148315,-3,1,3,-2,-2,-1,-1,-1
1470246979156323,2,1,11,1,0,0,-1,-2
1470246979156323,-5,-4,-24,-4,-2,-3,-2,-4
1470246979171336,1,-2,-27,-6,0,-1,-2,-1
1470246979171336,3,4,6,1,-2,-1,-1,-1
1470246979172337,-1,2,-25,-5,0,-1,-1,1
1470246979172337,-5,-8,30,-1,-2,-3,-2,-1
1470246979193856,1,0,-1,5,1,0,-1,-3
1470246979193856,-1,-6,2,-5,-1,-2,-1,-1
1470246979194857,-1,-1,-20,-1,0,2,0,-1
1470246979194857,0,1,8,2,-2,-2,-2,-1
1470246979208369,1,-1,-6,-1,-1,-3,-2,0
1470246979208369,-2,-2,16,2,-3,-2,-1,-1
1470246979216376,-1,-1,17,2,-3,-2,-1,-3
1470246979216376,1,4,0,6,0,1,-1,-2
1470246979231390,-4,-8,2,-7,-3,-3,-2,-4
1470246979231390,0,3,-49,-6,2,0,0,-1
1470246979232391,1,8,0,-1,1,-2,0,0
1470246979232391,0,-6,11,0,-1,-2,-2,-2
1470246979253911,-1,4,11,1,-2,0,-1,1
1470246979253911,0,-3,13,1,0,-1,-1,-1
1470246979254911,-3,-3,-18,-5,-2,0,0,-1
1470246979254911,0,2,-3,-2,-1,-2,0,-1
1470246979268422,0,2,17,2,1,-2,1,1
1470246979268422,1,0,11,1,-2,-2,-2,0
1470246979276430,-2,-9,-18,2,-2,-2,-2,-3
1470246979276430,-2,0,21,-1,0,-2,-3,-1
1470246979291444,-1,-5,-19,9,-1,1,0,-3
1470246979291444,-2,-2,-11,-16,-2,0,-1,-1
1470246979292445,-2,0,6,1,2,0,-1,1
1470246979292445,-2,-7,-2,-2,-3,-1,-2,0
1470246979313963,1,5,20,-2,-2,-2,-1,0
1470246979313963,-1,2,-12,2,0,0,-1,0
1470246979321471,-1,1,-4,-2,0,0,0,-2
1470246979321471,-2,-12,-9,-1,0,1,0,0
1470246979336986,-1,1,12,-4,-2,-1,-1,-2
1470246979336986,-3,6,12,4,-4,-2,-1,-1
1470246979337985,-1,-3,-1,-2,-2,-4,-2,0
1470246979337985,0,2,8,2,0,-3,-2,1
1470246979351497,0,-2,-9,-6,-2,-1,1,-1
1470246979351497,0,-6,-20,0,1,-1,0,0
1470246979352498,-2,-5,10,4,-2,0,-2,-2
1470246979352498,-2,12,14,3,-1,0,1,1
1470246979374018,-4,-4,-17,-7,-1,-1,-2,-1
1470246979374018,-1,1,7,1,1,0,-1,0
1470246979375019,-1,-2,2,-2,0,-1,0,-1
1470246979375019,-2,3,12,3,-1,-2,-1,-4
1470246979388531,0,-1,-15,-2,-2,0,0,0
1470246979388531,-2,-4,-1,-2,-4,-2,-1,-2
1470246979396538,0,1,8,-3,-2,0,0,-1
1470246979396538,-3,-4,-6,-3,-1,-1,-3,-1
1470246979411552,-1,1,-20,-4,1,-2,0,0
1470246979411552,-1,0,21,2,-2,-2,-2,-3
1470246979412052,-2,-2,-2,1,-3,-3,-2,-2
1470246979412052,-2,-5,0,0,0,0,1,0
1470246979434072,0,-2,-8,-5,-1,-2,-1,0
1470246979434072,-1,-4,-5,1,-1,0,-1,-2
1470246979434572,0,-5,7,-3,-1,0,0,0
1470246979434572,4,11,4,1,-1,-1,1,-1
1470246979449586,-1,-19,-23,-4,-1,-2,0,1
1470246979449586,-1,-2,6,3,-3,-1,0,1
1470246979456592,-1,-1,-2,-3,-1,0,0,-3
1470246979456592,0,-2,-24,-2,-2,-1,-1,1
1470246979471606,2,5,28,5,-1,0,-1,0
1470246979471606,-3,1,-15,-5,-2,0,-2,0
1470246979472107,-2,-2,-3,-1,0,-1,-2,-2
1470246979472107,0,-4,-8,-5,0,-1,-2,0
1470246979494125,-2,2,2,2,-1,0,-1,-2
1470246979494125,-3,-3,22,5,0,0,-1,-2
1470246979494626,-1,-2,-18,-3,-4,-1,-1,-2
1470246979494626,0,0,4,-1,-2,-1,0,-2
1470246979517146,-3,-1,-7,1,-3,-3,-3,-2
1470246979517146,2,5,0,-4,0,-1,-1,-1
1470246979518147,-2,-1,10,4,-1,-1,-3,-1
1470246979518147,3,1,1,-2,-2,-1,-1,0
1470246979531659,0,-1,-2,-1,2,0,0,0
1470246979531659,2,0,-2,-3,0,0,1,0
1470246979532160,-4,-2,10,-1,-1,-1,-2,0
1470246979532160,-1,-9,-1,3,-2,-2,-2,0
1470246979562187,0,3,5,-2,0,-2,-3,-2
1470246979562187,1,-1,-5,-4,-1,-2,1,0
1470246979563188,1,1,11,-5,1,-2,0,-2
1470246979563188,-4,-1,8,1,-2,-2,-2,-3
1470246979577201,-2,5,1,-4,-2,-1,-1,-2
1470246979577201,1,-1,1,7,2,-2,0,1
1470246979578201,2,4,-9,-7,-2,0,-1,-1
1470246979578201,-2,-4,-20,-2,2,0,0,-2
1470246979591713,-1,0,3,-1,-1,0,1,1
1470246979591713,-4,-5,16,-2,-2,-1,-1,-2
1470246979592215,0,-3,-32,-3,-1,-2,-1,-1
1470246979592215,-1,-1,-27,-4,-1,-2,-1,0
1470246979613733,-2,0,10,1,-1,-1,-3,-2
1470246979613733,-3,-4,-9,-1,0,0,0,-3
1470246979614735,0,-1,2,1,-1,-2,-1,1
1470246979614735,-1,0,10,-3,-1,1,0,-2
1470246979644761,-1,-2,4,1,-3,-1,0,-1
1470246979644761,-1,1,22,6,-2,-3,-1,0
1470246979645262,0,-3,-15,-1,-2,-1,-1,-1
1470246979645262,-1,0,12,0,0,0,-2,0
1470246979651767,2,-5,-24,-6,0,0,1,0
1470246979651767,0,4,2,-1,-2,-1,-1,-1
1470246979652268,-2,-1,8,4,-1,0,0,-1
1470246979652268,-1,0,14,2,-2,1,-1,-1
1470246979674289,-1,-2,-21,-3,-1,-1,-2,-3
1470246979674289,0,-10,-12,-3,-2,-1,-1,1
1470246979674790,-1,6,9,-2,-1,0,-2,-2
1470246979674790,-3,2,-11,-2,-3,-3,-1,-1
1470246979697310,-4,-10,12,-2,0,-1,0,1
1470246979697310,5,10,-7,0,0,-2,0,0
1470246979697809,1,6,26,7,0,1,0,-1
1470246979697809,-3,-3,-13,-7,-4,-2,-1,-2
1470246979711322,-2,2,-7,-1,-1,-2,-3,0
1470246979711322,-1,-4,1,-1,-2,0,0,-1
1470246979712322,-2,-5,2,0,1,-2,-2,0
1470246979712322,-1,-2,8,-4,0,-2,-2,-1
1470246979733842,-1,2,-15,-2,0,0,-1,0
1470246979733842,-4,1,-2,-2,0,-1,-1,-3
1470246979734842,-1,-1,2,-4,0,0,0,-2
1470246979734842,1,-4,-4,4,0,0,0,0
1470246979757363,-4,-2,-4,-3,-2,0,-1,-1
1470246979757363,1,1,-2,-2,-2,-3,-1,-2
1470246979757866,-1,-2,5,-2,-2,-1,0,-1
1470246979757866,0,-2,-6,-1,0,-1,0,-2
1470246979771375,1,0,4,2,1,0,0,-1
1470246979771375,-2,0,2,1,-2,0,-2,-1
1470246979772376,0,-14,-19,-2,-1,-1,0,1
1470246979772376,-2,4,11,2,0,-1,0,-2
1470246979794396,-1,3,17,3,-1,-1,-1,-1
1470246979794396,-1,-4,-24,-4,0,0,-1,0
1470246979794897,1,6,-18,-4,-2,-1,-2,-1
1470246979794897,-4,-7,-2,-3,1,0,-1,0
1470246979817416,2,-6,17,4,-1,-4,1,-1
1470246979817416,0,6,3,-5,-1,-2,-1,0
1470246979817916,-1,-1,-6,-3,-1,-1,0,0
1470246979817916,-1,-3,-10,-3,-2,-2,-1,-2
1470246979831429,-2,1,20,4,-1,1,0,-1
1470246979831429,-2,-7,-19,-3,-3,-3,-1,-1
1470246979832430,-3,1,0,-1,0,-3,-1,-1
1470246979832430,2,1,8,0,-2,-1,-2,0
1470246979853949,-2,0,-12,-3,-2,-1,-1,-1
1470246979853949,0,-1,11,1,2,0,0,1
1470246979854950,-3,-1,4,1,-2,-1,0,-2
1470246979854950,-3,-12,-4,-2,1,-2,-2,-1
1470246979877470,0,3,-6,-2,-2,-1,-2,-2
1470246979877470,0,-2,9,11,0,-1,1,1
1470246979877971,0,1,6,-7,-3,0,-1,-1
1470246979877971,2,4,-10,-1,-2,0,-1,-2
1470246979891487,-3,-9,-8,-5,0,0,-1,-1
1470246979891487,3,8,18,-1,1,0,-2,0
1470246979892484,0,-6,-32,-7,-2,-2,-1,-1
1470246979892484,0,0,-9,-1,-1,-1,0,-1
1470246979914003,-2,0,1,-1,-1,-2,-1,-1
1470246979914003,-2,-2,10,0,0,-1,0,0
1470246979915004,-1,0,10,4,1,-2,0,2
1470246979915004,-1,6,0,-3,-2,0,-1,-2
1470246979937024,-1,-5,14,2,0,-2,0,-1
1470246979937024,-3,-3,-11,-7,-3,0,-3,-2
1470246979938024,-2,-1,-18,-2,-2,-1,-1,0
1470246979938024,1,6,27,4,0,-1,0,0
1470246979951536,-2,-4,11,0,0,0,-1,-2
1470246979951536,-2,-4,-21,-6,-2,0,-2,-1
1470246979952538,0,-1,18,7,1,0,-1,-3
1470246979952538,-1,0,-8,0,0,1,0,0
1470246979974058,-1,-1,-6,-2,-1,-1,-1,-1
1470246979974058,-2,-4,-7,-4,0,-1,-2,-2
1470246979975058,0,2,5,1,-1,-2,-2,0
1470246979975058,-3,-5,-19,-3,-3,-1,-1,-2
1470246979997077,0,6,-3,-4,-1,0,-1,-3
1470246979997077,-4,-9,-3,-2,-1,0,-1,-2
1470246979998078,1,4,8,0,0,-1,0,-1
1470246979998078,-3,-4,-1,0,-3,-1,-1,-1
1470246980011590,-1,3,-5,-3,-4,-2,-2,0
1470246980011590,-1,4,-7,-4,0,-1,1,-1
1470246980012091,-3,-5,22,3,-2,-2,-3,-1
1470246980012091,-2,-3,-27,-3,-2,-1,-1,-1
1470246980034110,0,-1,5,-1,-3,0,-1,1
1470246980034110,-2,-1,-1,1,-1,-2,-2,-3
1470246980034611,0,-7,-13,-6,0,0,0,-2
1470246980034611,1,4,6,-4,-1,-2,0,0
1470246980064638,-2,-2,-14,2,-2,-2,-2,-3
1470246980064638,-4,-1,20,7,-1,-2,1,-1
1470246980065639,0,-5,-23,-9,-4,-1,-1,0
1470246980065639,-1,-2,6,1,-1,0,-1,-2
1470246980071644,1,-1,9,-1,-1,-1,-1,-1
1470246980071644,3,1,-3,-3,-2,-2,-2,1
1470246980072145,-4,5,-8,0,-1,-2,-1,-3
1470246980072145,-2,-12,2,-1,-3,-3,-2,-1
1470246980094164,0,0,-6,0,-1,-2,-2,0
1470246980094164,-1,2,-4,1,-2,-2,-1,-2
1470246980094665,-1,0,18,-3,-3,-1,-1,0
1470246980094665,-2,3,4,4,0,-1,-1,0
1470246980124695,-3,-8,-8,0,0,1,1,1
1470246980124695,-2,-5,-12,0,0,0,-1,0
1470246980125693,0,1,-7,-5,0,0,-2,1
1470246980125693,-3,-2,24,6,-2,-1,-3,-3
1470246980130698,-1,4,10,2,-2,-1,-1,-2
1470246980130698,1,0,-34,-4,0,-1,0,0
1470246980139205,-2,-2,10,4,2,0,0,-1
1470246980139205,0,2,-24,-2,-2,-1,0,-2
1470246980154218,0,0,2,-3,-1,1,0,0
1470246980154218,1,-4,2,-3,-1,-1,0,-2
1470246980154719,-1,0,19,3,-2,0,-1,-4
1470246980154719,0,1,-22,-4,-1,-1,-1,0
1470246980177240,-1,-4,-19,-5,-1,-1,-2,-1
1470246980177240,-3,1,-12,-1,-2,-2,-2,-2
1470246980177740,-2,-3,22,0,-1,-2,-1,0
1470246980177740,1,5,23,4,1,1,-1,-1
1470246980191254,1,0,-23,-4,-1,-3,-1,0
1470246980191254,-1,-1,1,-4,-1,-1,-1,0
1470246980199258,0,-8,11,5,-2,-2,-1,1
1470246980199258,-4,3,-16,-6,-1,0,-1,-2
1470246980213772,5,3,7,4,0,0,-2,1
1470246980213772,-2,-2,4,-1,0,0,-1,-1
1470246980214773,-5,-4,-14,-3,0,0,-1,-3
1470246980214773,-2,-8,-3,-3,-2,-1,0,-1
1470246980237293,-1,1,11,4,1,0,0,-1
1470246980237293,0,-1,0,-3,-1,-2,0,0
1470246980238294,-1,-6,-17,-4,-2,1,0,2
1470246980238294,-2,-2,12,4,0,1,-1,-2
1470246980250806,-3,0,-3,-5,-1,-1,0,-2
1470246980250806,0,-1,-26,-3,-3,0,0,-2
1470246980259313,-2,1,33,5,1,-1,0,-1
1470246980259313,1,6,-4,0,1,0,-1,-1
1470246980274328,-4,-12,19,0,0,-1,-2,-2
1470246980274328,-2,2,12,3,-1,0,-1,-3
1470246980274829,0,-1,-33,-4,-1,-2,-1,-1
1470246980274829,-2,0,3,1,-2,-1,-1,-2
1470246980297347,-2,1,-2,-1,-2,-1,-2,0
1470246980297347,-1,-4,2,-3,-1,-1,-2,0
1470246980297848,0,5,-1,0,-1,-1,-1,-1
1470246980297848,-1,-11,-14,-9,-1,-3,0,-1
1470246980310861,1,3,5,2,-1,-3,-1,-1
1470246980310861,-1,1,3,2,-2,0,-2,-2
1470246980318866,0,-2,7,-1,-3,-2,-1,0
1470246980318866,1,8,-3,-1,-1,-1,-1,0
1470246980333880,0,4,-7,-2,0,1,0,-1
1470246980333880,-2,-3,4,1,0,0,0,0
1470246980334881,-1,-4,-12,-4,-1,-3,-2,-2
1470246980334881,1,0,-6,-3,0,-1,0,1
1470246980357401,1,-2,-5,-5,0,-1,1,2
1470246980357401,-2,-1,12,3,-3,-2,-3,-2
1470246980357901,-2,5,5,4,0,0,-2,-1
1470246980357901,-2,-6,-11,-5,-3,-1,-2,-1
1470246980370913,-2,2,-6,0,0,-1,0,-2
1470246980370913,-2,-5,-5,-3,-2,-2,-2,0
1470246980378920,0,-2,7,-2,-1,-2,0,-2
1470246980378920,1,-1,13,2,-1,-1,-1,0
1470246980393934,-1,-2,-4,-1,-1,-2,-1,-2
1470246980393934,0,-2,-13,0,1,0,0,0
1470246980394934,0,11,1,3,1,0,-2,-1
1470246980394934,-2,-6,-3,3,-2,-1,-2,-1
1470246980417455,-6,-2,0,-5,-1,-1,-3,-4
1470246980417455,-2,-7,-17,-2,-2,-1,-2,-1
1470246980417955,0,1,4,0,0,0,-1,-2
1470246980417955,1,1,10,-1,1,0,-1,0
1470246980439474,-1,3,-2,2,-3,-3,0,-2
1470246980439474,-1,2,-30,-10,-3,-1,-2,0
1470246980440476,-2,-3,9,5,-1,-1,-2,-2
1470246980440476,1,2,12,-3,-1,-2,-1,0
1470246980453988,-1,-9,-6,4,0,0,0,-2
1470246980453988,-1,2,16,1,-1,-1,-2,-1
1470246980454988,-1,-5,-39,-12,-4,-2,-1,-1
1470246980454988,-1,0,5,1,-2,-2,-1,0
1470246980477009,-2,1,14,0,-2,-1,-1,-1
1470246980477009,0,-3,15,0,-1,-1,-1,-2
1470246980478009,-1,-4,-13,-5,0,0,0,-1
1470246980478009,-1,-1,-8,0,-1,0,-1,-2
1470246980499529,-4,2,5,-2,0,-1,-2,0
1470246980499529,0,-2,-26,2,0,-2,1,0
1470246980500530,0,5,6,1,-2,-3,0,0
1470246980500530,-1,-10,-5,-2,-1,-2,0,-2
1470246980514042,0,-2,-1,0,-2,0,-3,1
1470246980514042,-4,1,27,2,-3,0,-1,-1
1470246980515043,-1,-3,-2,1,0,0,0,-2
1470246980515043,-3,-3,-32,1,-1,0,0,-2
1470246980537563,4,5,-7,-6,-2,-3,0,1
1470246980537563,-4,-6,19,3,0,-1,-1,-4
1470246980538564,1,1,-10,-3,0,0,0,-2
1470246980538564,-1,1,25,2,-1,0,-3,-1
1470246980559584,0,-5,-11,-1,-1,0,-1,0
1470246980559584,0,0,-20,-2,-1,-1,0,0
1470246980560585,0,-2,18,1,-2,-2,0,0
1470246980560585,-2,-1,16,3,0,-2,0,-1
1470246980574096,0,-3,-7,-1,-1,-2,-1,-1
1470246980574096,0,-2,25,2,0,-1,-1,-2
1470246980575097,3,4,-41,-4,0,1,0,0
1470246980575097,0,-6,-37,-7,-4,-2,-1,-2
1470246980597116,-1,-2,13,1,-2,-1,0,-2
1470246980597116,2,2,1,-3,-1,-1,1,0
1470246980598118,-4,-4,7,-3,-2,-2,-2,-2
1470246980598118,-1,1,3,-1,-2,0,-3,0
1470246980619636,0,2,4,5,-1,-1,-2,0
1470246980619636,-1,-8,-8,2,-4,0,-1,0
1470246980620137,-2,4,-10,-6,-2,0,0,0
1470246980620137,1,0,5,-2,0,-2,-1,0
1470246980634150,-5,-4,4,2,0,-2,0,-3
1470246980634150,0,9,19,5,-2,-1,0,2
1470246980634650,-2,-9,1,-2,-3,-1,-2,0
1470246980634650,-1,0,9,-5,-1,-1,0,-2
1470246980657172,0,-1,-5,-3,1,-1,0,-1
1470246980657172,0,-1,-9,-5,-1,0,0,0
1470246980658170,-2,-5,-1,1,-3,0,-1,-2
1470246980658170,-1,2,-3,-4,-3,-3,-1,-1
1470246980680193,0,-6,-1,-2,-1,0,-2,1
1470246980680193,-4,1,18,0,1,-1,-1,-2
1470246980680705,-2,-6,-34,-3,-1,0,-2,-1
1470246980680705,1,3,12,3,1,-2,-2,-1
1470246980694203,-2,0,-9,-3,-2,0,-1,-2
1470246980694203,1,0,-10,-3,-1,-2,-2,-1
1470246980694704,-1,1,26,5,-2,-2,0,-2
1470246980694704,-2,0,-18,-2,-3,0,0,-1
1470246980717225,-2,-5,1,-2,-2,-1,-1,-1
1470246980717225,-3,0,4,-1,-2,0,-1,-2
1470246980718225,-1,1,4,1,0,-1,-1,-3
1470246980718225,-1,-4,-9,-4,0,0,-1,0
1470246980739745,1,3,15,1,-1,0,1,1
1470246980739745,1,0,-19,-9,-1,-1,-2,-2
1470246980740745,-3,-7,-18,-1,-4,-3,-3,-1
1470246980740745,-3,-5,-6,1,-1,-2,-1,-1
1470246980754257,-3,1,14,0,-1,-1,-2,-3
1470246980754257,-1,-8,2,2,-1,-2,-3,0
1470246980754757,2,9,11,-2,1,-1,0,-1
1470246980754757,-1,-6,-10,2,1,1,-1,2
1470246980784784,-1,-2,-10,-6,-3,-2,-3,-2
1470246980784784,0,0,3,4,-1,-1,-1,-2
1470246980785285,0,-6,3,-1,0,-1,0,0
1470246980785285,1,3,12,3,-1,0,0,1
1470246980799798,0,-2,-14,-2,-2,-1,-1,-1
1470246980799798,1,2,6,-1,-1,0,-1,-2
1470246980800299,0,1,-3,0,0,0,-1,1
1470246980800299,1,2,13,-2,-2,-1,-1,-3
1470246980814311,-4,-14,-43,-10,-4,-3,-2,-2
1470246980814311,-4,1,25,1,1,0,-1,-2
1470246980814812,0,2,7,3,-3,-1,0,2
1470246980814812,-1,0,8,-3,1,-2,-1,-3
1470246980837331,-1,0,2,-1,-2,-3,-2,0
1470246980837331,-1,-3,-17,-2,-2,-1,0,-1
1470246980837832,0,4,6,0,1,-3,-1,-1
1470246980837832,-1,0,-6,-3,-1,-1,0,-1
1470246980867358,-1,-8,7,2,0,-1,0,-1
1470246980867358,3,8,-9,-5,-3,-2,-1,-1
1470246980867859,-1,5,-1,0,-1,1,-1,1
1470246980867859,-2,-7,11,1,-1,-1,-2,-1
1470246980873871,1,0,-17,-2,-1,-1,0,0
1470246980873871,-3,-7,-10,-3,-1,-1,-1,-1
1470246980874870,-2,-6,-5,-5,-1,-3,-1,-1
1470246980874870,0,0,-4,0,-2,0,-2,-1
1470246980897385,-2,3,24,4,-2,-1,-1,-1
1470246980897385,1,0,15,2,0,-1,1,1
1470246980897886,-3,-2,-16,-3,-2,-4,-3,-2
1470246980897886,-2,4,10,3,1,-1,-1,-1
1470246980919906,2,1,-11,-3,-1,1,-1,-1
1470246980919906,-1,-3,4,0,0,-2,-1,2
1470246980920407,-1,-1,9,-2,-1,0,1,-2
1470246980920407,-1,0,-3,0,-1,0,-1,0
1470246980933919,-2,-6,-11,-3,-1,1,-1,-2
1470246980933919,0,3,1,-1,-3,-1,-1,-2
1470246980934920,0,-1,-7,0,0,-1,-1,-2
1470246980934920,-2,-12,-4,-4,-2,-1,0,0
1470246980957441,3,9,12,4,-1,0,-1,0
1470246980957441,-2,-6,-12,-2,-1,-2,0,-1
1470246980958442,0,-5,1,-2,-2,0,0,-1
1470246980958442,-2,0,13,0,-1,0,0,-2
1470246980979481,-3,0,-28,0,-2,-2,-1,-4
1470246980979481,-1,1,9,0,-2,-2,-3,-2
1470246980979960,-1,-4,20,4,-2,-1,-2,-1
1470246980979960,-3,-1,-10,-5,-1,-2,-1,-1
1470246980994482,0,3,2,0,0,1,0,1
1470246980994482,-2,-2,-21,-8,-1,-2,-1,-2
1470246980994973,-2,-5,-12,-6,0,0,0,-2
1470246980994973,-1,-1,6,-1,-2,-2,-1,-2
1470246981017555,0,3,11,4,2,1,-1,-1
1470246981017555,-1,-3,-13,-6,0,-1,-1,-1
1470246981017994,1,-3,9,0,-1,-1,-1,-1
1470246981017994,3,5,-4,-3,-4,-3,-2,-1
1470246981040014,-5,-8,-5,-3,-3,0,-2,-1
1470246981040014,-2,-4,9,2,1,1,0,-1
1470246981040517,0,-1,-10,1,0,0,-1,0
1470246981040517,-2,-1,-23,-3,-1,-1,0,2
1470246981062604,-2,0,1,-2,-2,-1,0,-2
1470246981062604,-2,-1,-2,3,-3,-1,-1,0
1470246981063035,0,1,7,2,-2,-2,-3,0
1470246981063035,0,-1,14,2,-1,-2,-1,-2
1470246981077589,-1,-1,15,3,0,-1,-2,-2
1470246981077589,-1,-2,-21,-4,0,-1,-1,-3
1470246981078048,1,-2,-8,-2,0,-1,0,-1
1470246981078048,0,1,-34,-4,1,1,0,-1
1470246981099620,-1,-7,36,2,-1,-3,0,1
1470246981099620,1,2,6,1,-1,-1,-1,-1
1470246981100568,-2,-1,-4,0,-1,-1,0,-1
1470246981100568,-2,-3,4,-1,-1,-2,-1,-1
1470246981113580,1,4,-9,-2,0,-2,-1,-1
1470246981113580,-2,-9,-2,0,-1,0,0,-1
1470246981121612,1,4,-5,-3,0,-1,0,-1
1470246981121612,-4,-4,7,1,1,-1,-1,0
1470246981137103,2,1,-8,-3,-1,-1,-2,-2
1470246981137103,0,-1,1,-2,1,1,0,1
1470246981138102,0,1,-6,-3,-1,1,-1,-1
1470246981138102,-5,-5,6,2,-6,-2,-1,-3
1470246981159645,-2,0,8,0,-2,-1,-2,0
1470246981159645,-2,0,8,-1,0,0,-2,-2
1470246981161122,1,1,-16,-7,0,0,0,0
1470246981161122,1,2,5,2,1,-1,-2,-1
1470246981173633,0,-4,-9,0,-3,-1,0,-1
1470246981173633,-2,-1,4,0,0,-2,-1,-1
1470246981182190,1,4,-4,0,-1,-1,-2,0
1470246981182190,1,-1,-3,-5,-2,-1,-1,-3
1470246981197210,-1,0,3,2,1,-1,0,-1
1470246981197210,2,-3,3,0,-2,-1,0,-1
1470246981199156,-3,-2,-1,-1,-2,-1,-1,-2
1470246981199156,1,-4,3,0,-1,0,-2,-1
1470246981219730,1,2,-4,-4,0,-1,0,0
1470246981219730,0,5,6,-1,-3,-1,0,2
1470246981221177,-4,-7,-33,-4,0,-1,0,-1
1470246981221177,-1,8,44,5,-3,-3,0,-2
1470246981233190,-4,-4,5,0,-3,-2,-1,-2
1470246981233190,-1,2,-9,-2,0,0,-1,-1
1470246981242195,-3,-2,10,3,0,-1,0,-1
1470246981242195,-1,-1,-10,0,0,-1,-1,-1
1470246981256728,-1,0,-9,-6,0,-1,-1,1
1470246981256728,1,2,2,2,1,-2,-2,-2
1470246981264715,-4,-3,6,-1,0,0,-2,-1
1470246981264715,1,-1,-12,-8,-3,-1,0,1
1470246981279730,-5,3,17,7,0,-2,-2,-1
1470246981279730,-1,0,-11,-3,-2,-1,-1,-3
1470246981281230,-2,-15,-10,-2,-2,-1,-2,-2
1470246981281230,-1,4,15,-1,-1,-1,0,-1
1470246981293285,0,-7,-68,-10,0,1,-1,-1
1470246981293285,-1,-1,-5,-4,-2,-1,-1,1
1470246981302249,-3,-3,25,5,-3,-2,0,-2
1470246981302249,-1,3,7,5,-1,-1,-1,1
1470246981317262,-3,-3,-15,-6,-2,-1,-1,-2
1470246981317262,-1,-3,1,-3,-2,-1,-1,1
1470246981318764,2,8,-6,0,-1,0,0,-1
1470246981318764,-1,-6,-16,-4,-1,0,-1,-2
1470246981339785,0,1,20,5,0,-1,-1,0
1470246981339785,-2,-4,-15,-1,-1,-2,-2,-4
1470246981341285,0,1,23,2,-1,-3,-2,1
1470246981341285,0,0,0,0,1,0,-1,-1
1470246981353295,-2,-8,-33,-7,-2,-3,0,0
1470246981353295,0,-3,11,2,0,0,-1,-1
1470246981362303,0,2,-8,0,-2,-2,-2,-2
1470246981362303,0,-2,10,7,-1,-1,-2,-2
1470246981375815,-1,2,1,-3,-1,-1,-3,-3
1470246981375815,-2,0,23,1,-1,-2,-2,0
1470246981384824,-3,-4,-24,-4,1,-1,-1,-3
1470246981384824,0,2,-17,-6,0,-2,-1,-1
1470246981399836,1,5,11,2,-1,-1,0,-1
1470246981399836,-3,-3,-3,0,0,-1,0,0
1470246981401339,0,2,11,-1,1,1,0,-1
1470246981401339,-3,-5,-19,-7,0,-2,-1,-1
1470246981422356,-1,2,28,2,0,1,0,-1
1470246981422356,-1,0,0,-1,-1,0,-1,-1
1470246981423859,-2,-3,-4,-2,-2,-3,-1,0
1470246981423859,-1,-6,-3,0,-2,1,0,0
1470246981437370,-1,-2,13,0,1,0,0,0
1470246981437370,0,-4,-31,-6,1,-1,-1,0
1470246981438871,-2,1,19,3,-2,-1,-1,0
1470246981438871,-1,-5,-25,-1,-3,-2,-1,-1
1470246981459890,0,1,33,3,-2,-1,-2,0
1470246981459890,0,3,8,0,-1,-3,-1,0
1470246981461393,-2,-6,-27,-7,-2,-2,-3,-1
1470246981461393,-1,5,10,3,-1,0,-1,0
1470246981482411,-1,-7,-20,-4,-2,-2,-2,-2
1470246981482411,-4,-2,10,-2,-1,0,-1,-3
1470246981483912,0,-2,-33,-4,-1,-1,0,2
1470246981483912,0,4,21,3,-2,-1,-1,-1
1470246981497424,-1,-1,2,1,1,0,0,1
1470246981497424,0,3,-17,-3,0,-1,-1,0
1470246981498926,1,-7,25,1,0,1,1,-2
1470246981498926,-2,-2,-33,-6,-2,-2,-1,-3
1470246981519945,-2,-2,6,-2,-1,-1,1,-2
1470246981519945,2,-3,-23,-1,-2,-1,-3,-1
1470246981521447,-2,3,20,5,-3,0,-1,-2
1470246981521447,-1,-3,-7,-3,0,-1,-1,-2
1470246981542556,-3,-2,2,-3,-1,-1,0,-1
1470246981542556,-3,-6,18,1,-4,-1,-1,-2
1470246981543966,1,2,-4,3,1,-2,-1,-1
1470246981543966,-4,-6,4,-5,-1,-1,-3,-1
1470246981556978,1,4,2,0,-1,-1,1,-1
1470246981556978,-2,-6,-11,-1,-1,0,-1,-1
1470246981563484,-2,2,21,-2,-2,-2,-1,-1
1470246981563484,0,1,-3,0,1,0,-1,0
1470246981579053,1,0,-10,0,0,-1,-1,-1
1470246981579053,-2,-2,-14,-5,-1,-1,-1,-1
1470246981587506,-2,1,4,1,-1,1,-2,-1
1470246981587506,-1,1,7,-1,-5,-2,-1,-1
1470246981602522,1,-1,8,-2,0,-1,-2,-1
1470246981602522,3,3,0,4,1,-1,0,0
1470246981604022,0,-2,4,-2,0,1,-1,-2
1470246981604022,-4,-5,3,-2,0,-2,0,0
1470246981616587,1,-5,-6,-3,-4,0,-2,-1
1470246981616587,-2,-4,7,-2,0,0,-1,0
1470246981623539,-5,2,4,-2,-3,-2,-2,-2
1470246981623539,2,6,17,1,1,0,2,-1
1470246981639573,0,-3,-12,2,-1,-2,-1,-1
1470246981639573,1,4,-1,-4,-2,-3,0,3
1470246981641554,-1,-6,8,1,-1,-2,-1,-1
1470246981641554,-2,-1,1,-2,-2,-2,-2,-2
1470246981662119,-2,-1,-8,-3,-1,-2,-2,-1
1470246981662119,-1,-3,-13,-2,-1,-1,0,-2
1470246981663573,0,0,-8,-2,0,0,-1,-1
1470246981663573,2,3,6,6,-1,0,-2,1
1470246981676629,-2,-2,8,-2,-3,-1,-1,-3
1470246981676629,-2,-1,-21,-1,-3,-1,-1,-2
1470246981683734,1,-1,-6,-2,0,-1,-1,0
1470246981683734,-3,-5,-10,-5,-1,0,-2,-3
1470246981699651,0,1,3,3,0,0,-2,-3
1470246981699651,-2,1,7,0,-1,-1,-2,-4
1470246981701107,-1,0,-11,-3,-1,-1,2,-1
1470246981701107,-3,-4,-4,0,0,-1,-1,-3
1470246981722200,-3,-1,-24,-4,0,-1,1,0
1470246981722200,0,7,14,0,-2,-2,-3,-1
1470246981723628,-3,-3,0,-1,-2,-1,-1,-1
1470246981723628,-3,-9,-2,1,0,-2,-1,0
1470246981736641,0,2,-2,-2,1,-1,0,0
1470246981736641,0,2,22,4,1,-3,-1,0
1470246981743674,-2,-2,-33,-5,-2,-2,-2,0
1470246981743674,1,0,13,2,-2,-1,-1,-1
1470246981759678,1,4,-21,-1,-1,0,-2,-1
1470246981759678,-2,-7,9,-3,-1,-2,0,-1
1470246981761161,-1,-1,12,4,1,1,-1,-1
1470246981761161,0,1,-12,-7,-1,-1,-1,0
1470246981782180,-1,0,8,-1,-1,-2,-2,0
1470246981782180,0,0,-8,-1,0,-1,1,-1
1470246981784182,-1,-3,-8,-4,-4,-3,0,0
1470246981784182,0,-1,-6,1,1,-2,-1,-1
1470246981796694,-1,-1,6,-1,-2,-2,0,0
1470246981796694,-3,-5,-2,-3,0,-1,-1,-1
1470246981803700,2,-2,-2,-3,0,-2,0,0
1470246981803700,-3,6,-5,0,-2,-1,-1,-2
1470246981819714,-3,-5,-6,0,0,-1,-2,-1
1470246981819714,-1,-2,29,6,1,0,0,-2
1470246981821215,0,4,-47,-4,-2,-1,0,0
1470246981821215,-4,-4,22,2,-2,-2,-3,-2
1470246981842233,-3,-10,-29,-3,0,-1,0,-3
1470246981842233,0,2,-1,-3,-2,-1,-2,-1
1470246981843736,1,-1,15,5,0,2,0,0
1470246981843736,1,1,9,-1,-1,-1,-1,-2
1470246981864773,0,2,-32,-6,-2,-1,-1,0
1470246981864773,-1,-7,-10,0,0,-1,-1,-2
1470246981866256,0,3,25,-2,-2,-1,-1,-1
1470246981866256,0,-1,-10,-2,-3,0,-1,-2
1470246981879797,-1,1,23,2,-1,0,-1,-2
1470246981879797,2,1,-13,-3,-1,0,0,1
1470246981881288,-1,1,11,2,0,-1,-1,-1
1470246981881288,0,-5,-22,-5,-2,-1,-1,0
1470246981902343,1,4,33,3,-1,0,-2,0
1470246981902343,0,1,-21,-3,-2,-2,-2,0
1470246981903789,-3,-3,4,-4,-1,-1,-3,-2
1470246981903789,-5,-13,-8,-6,-3,-2,-2,-4
1470246981915844,1,4,18,5,0,-2,1,-1
1470246981915844,-2,0,-2,-1,0,0,1,-1
1470246981924808,-2,-3,-1,2,0,0,-1,0
1470246981924808,2,7,-6,-2,1,1,-1,1
1470246981939874,-1,5,-6,-4,-1,-1,-2,-3
1470246981939874,-2,2,10,0,-2,-1,-2,-2
1470246981941324,0,-3,-23,-4,-1,0,0,-1
1470246981941324,1,-2,14,0,-1,-2,0,0
1470246981962364,-1,-4,8,3,0,-1,-1,-3
1470246981962364,-2,2,2,0,-3,-2,-1,-1
1470246981963876,1,1,-3,-1,0,-1,-1,-2
1470246981963876,-1,0,18,4,0,0,0,1
1470246981975855,-4,-9,-47,-10,-2,0,0,-2
1470246981975855,2,9,9,1,-2,0,-1,0
1470246981984862,-3,0,2,-3,-3,-3,-2,-3
1470246981984862,0,-1,2,0,-2,-2,-1,0
1470246981999876,0,-1,8,-1,-1,0,0,-1
1470246981999876,-2,-5,2,-2,0,-1,-1,-3
1470246982001410,-2,-1,-24,-1,0,0,-1,-2
1470246982001410,2,3,-6,-1,0,-2,-2,-1
1470246982022396,-2,1,11,1,-1,-2,0,0
1470246982022396,-4,-10,-14,1,-1,-1,-1,0
1470246982023899,-1,1,31,1,0,-2,0,-1
1470246982023899,-2,-5,-34,-5,0,-2,-3,-3
1470246982035950,-1,-4,11,-4,-3,-2,-2,-1
1470246982035950,-1,-5,-7,-1,-2,-1,-1,-1
1470246982044917,-1,5,20,3,0,-1,0,0
1470246982044917,-1,3,-26,-4,-1,0,0,1
1470246982059929,-3,-6,3,-1,-1,0,0,0
1470246982059929,0,1,13,3,-1,-2,-2,-1
1470246982061432,-2,-6,15,-1,-1,-1,-1,1
1470246982061432,-2,1,-5,-2,-1,0,1,-2
1470246982082450,-1,-1,8,-4,0,-1,-2,-2
1470246982082450,-2,-7,-12,0,-2,-2,-1,-3
1470246982083969,1,-5,-7,2,-1,-2,0,-1
1470246982083969,-1,3,11,2,-2,0,0,1
1470246982095997,2,2,-7,2,-1,0,-1,0
1470246982095997,-2,-2,-4,-1,-1,1,-1,-1
1470246982104970,-2,-7,-6,-3,-4,-3,-3,-1
1470246982104970,1,-3,-13,0,0,-1,1,-1
1470246982119989,-3,-4,16,5,-1,-4,-1,-2
1470246982119989,-1,2,-26,-7,0,0,-2,1
1470246982121485,1,7,28,3,0,-1,0,0
1470246982121485,-3,-5,-6,-3,-1,0,-2,-1
1470246982142504,1,4,3,1,1,0,-1,0
1470246982142504,0,2,-2,-1,0,-1,0,-1
1470246982144005,-2,-1,-5,-3,-1,0,-2,-1
1470246982144005,-1,-3,11,1,-1,-2,-1,-2
1470246982156016,2,4,4,-2,-1,-2,-1,-1
1470246982156016,-1,-2,-12,-4,-2,-3,0,-1
1470246982165024,-1,-7,-21,-8,-1,-2,0,-1
1470246982165024,-2,1,22,6,-1,-2,-2,-2
1470246982180065,-1,3,4,3,-1,-1,-2,-1
1470246982180065,-4,-9,-29,-9,-2,0,-1,-1
1470246982181577,-4,-3,9,3,-1,-2,-2,-2
1470246982181577,-5,0,2,-3,-2,-2,-1,-2
1470246982202558,-2,-6,-4,-5,-2,-1,-2,-1
1470246982202558,1,5,30,4,0,-1,0,-1
1470246982203559,-3,-3,-18,-2,-2,-1,-2,-1
1470246982203559,2,-2,0,-4,-1,-1,-1,-1
1470246982216069,-3,-2,0,0,-1,1,-1,-2
1470246982216069,-1,2,-9,-4,1,-1,0,0
1470246982225078,0,2,13,1,0,0,-1,-1
1470246982225078,1,-7,-11,1,-3,-2,-2,-2
1470246982239592,0,7,-18,-7,-1,-3,-1,0
1470246982239592,0,-7,10,3,-2,-2,0,-1
1470246982241593,1,7,0,-1,-1,1,-1,0
1470246982241593,-3,-3,-21,-5,-1,1,-2,1
1470246982262110,-3,-6,5,2,-1,-2,1,-2
1470246982262110,0,3,0,-6,-2,-1,0,0
1470246982263613,0,2,11,6,-1,-2,0,1
1470246982263613,2,7,-4,-3,1,0,0,0
1470246982276123,2,-5,-3,0,-2,0,-1,-1
1470246982276123,-1,5,6,0,-1,0,-1,0
1470246982285164,-2,-8,-21,-5,-1,1,-1,-2
1470246982285164,-4,-9,4,-1,-1,-3,-2,0
1470246982300145,-2,-1,5,-2,-2,-2,-1,-1
1470246982300145,-1,-2,-4,1,-1,-2,-2,0
1470246982301646,-1,-3,-15,-2,-4,-1,-2,-1
1470246982301646,-2,-1,3,-2,-1,0,-1,1
1470246982322220,-1,0,25,6,-1,0,-1,-1
1470246982322220,1,-4,1,-2,-1,0,0,0
1470246982323667,-1,2,-2,-3,1,-1,0,-1
1470246982323667,-2,-1,3,-1,1,-1,0,-1
1470246982344741,1,-9,-7,-3,1,-1,-2,-2
1470246982344741,-1,1,19,2,-3,-4,-3,-3
1470246982346187,1,-2,1,0,-2,-2,-1,1
1470246982346187,-1,1,0,-3,-1,0,-1,-1
1470246982359719,-3,-3,-12,-4,-2,-1,0,-1
1470246982359719,-1,-3,0,1,-1,-1,0,-1
1470246982361700,-3,-7,-8,-6,-1,-1,-3,-2
1470246982361700,-2,-5,12,6,-1,-1,-1,-1
1470246982382263,2,4,-2,1,0,-1,-1,1
1470246982382263,0,2,-20,-2,-1,0,-1,-1
1470246982383758,-4,-10,-3,-3,0,-1,0,-3
1470246982383758,-2,2,7,1,-2,-1,-1,-2
1470246982404765,-3,-2,-13,-2,-3,0,-1,-1
1470246982404765,-2,3,16,2,0,-1,-1,-2
1470246982406241,0,-2,-11,0,-1,0,-1,-1
1470246982406241,0,0,2,-2,2,0,-2,-2
1470246982419795,1,-2,-23,-5,-2,-2,0,-1
1470246982419795,-5,-5,33,6,-3,-2,-2,-2
1470246982421254,-1,4,0,5,0,-1,-2,-1
1470246982421254,1,1,0,-3,-1,-1,0,-2
1470246982442273,1,3,-8,-1,1,-1,-1,0
1470246982442273,-1,-2,-12,-7,0,-1,-1,0
1470246982443774,1,4,15,1,-1,-2,0,-1
1470246982443774,-1,-2,-17,-1,-5,-1,0,-3
1470246982464806,-1,3,15,-3,0,0,-1,-1
1470246982464806,-2,-8,-11,-2,-1,-1,-3,-1
1470246982466295,-2,0,-10,-5,-3,-2,0,0
1470246982466295,-1,2,5,2,0,0,-1,0
1470246982479870,-4,-4,-14,-2,-3,-2,1,0
1470246982479870,-1,-3,-1,-4,0,0,-2,-2
1470246982481318,-2,-1,1,0,-2,-2,-2,-2
1470246982481318,-2,-9,-1,-4,0,1,-1,-1
1470246982502347,0,4,8,5,2,-1,-1,0
1470246982502347,-1,-3,-30,-6,-2,-2,1,-1
1470246982503829,-3,-6,-19,-2,-2,-2,-1,-3
1470246982503829,-1,0,5,-2,-2,-2,-1,-2
1470246982524848,-3,-3,18,3,-2,0,-1,0
1470246982524848,0,2,-9,-3,-1,-1,-1,2
1470246982526349,2,1,-2,-4,-1,0,0,-1
1470246982526349,0,1,-4,-1,0,-2,-1,-1
1470246982539405,-2,-3,7,1,0,0,-2,-1
1470246982539405,1,2,6,2,-2,-2,-1,-2
1470246982546369,1,2,4,1,-2,1,-1,-1
1470246982546369,-3,-2,-6,-2,1,-1,-1,-1
1470246982562429,1,2,-8,-3,-2,0,-1,-1
1470246982562429,-1,-1,-4,-2,-1,1,0,0
1470246982563882,-5,-5,2,-2,-1,-1,-1,-2
1470246982563882,0,1,3,-3,-1,-1,0,-2
1470246982584912,-2,-2,14,1,-1,-1,-1,-2
1470246982584912,-1,2,1,-1,-2,1,0,-1
1470246982586403,-3,0,5,0,0,1,0,0
1470246982586403,1,2,-11,-1,-2,-1,0,0
1470246982599419,-1,1,-12,-1,-1,-1,-1,-1
1470246982599419,1,2,14,-1,-1,-2,1,0
1470246982605953,0,-5,-5,-1,-1,-2,-1,-3
1470246982605953,-3,-2,10,2,0,0,-2,0
1470246982622935,-2,-6,-2,-3,-2,-1,-1,-1
1470246982622935,-1,0,-1,-1,-2,-1,-2,-2
1470246982624436,2,3,4,-1,-1,-1,1,0
1470246982624436,0,-4,-4,-3,-1,-1,1,-1
1470246982644456,0,-1,-7,-3,-2,-1,-2,0
1470246982644456,-2,-3,8,-2,-2,-2,-2,0
1470246982650960,0,-1,-6,-4,1,0,-1,-2
1470246982650960,0,1,11,8,-3,1,0,-1
1470246982658967,0,0,0,-2,1,-1,0,-1
1470246982658967,-3,-5,-9,-1,-3,-1,-2,-2
1470246982665973,1,5,-2,-2,0,-1,0,0
1470246982665973,-3,-2,3,-2,0,-1,-2,-1
1470246982682522,2,-1,-12,1,-1,-1,-1,-2
1470246982682522,-2,1,3,1,1,-1,-1,0
1470246982683989,0,3,18,8,-1,-1,1,-2
1470246982683989,-2,-5,-20,-8,-3,-3,-2,-1
1470246982705011,0,5,14,0,-1,2,-2,0
1470246982705011,-2,-2,-25,-6,0,-1,-1,-1
1470246982706510,-2,-2,0,-1,-2,-2,-1,-1
1470246982706510,0,1,9,1,-1,-3,-1,-1
1470246982719053,-1,0,7,-3,-1,-3,-1,-2
1470246982719053,-3,-11,-21,0,-2,0,-2,-1
1470246982726028,0,1,12,3,-1,-1,0,1
1470246982726028,-1,-1,-20,-3,-3,-1,-1,0
1470246982742542,-2,-5,4,-1,-2,-2,1,-1
1470246982742542,-1,-1,3,-2,1,-1,1,-2
1470246982744046,-1,-5,-9,-5,-1,-3,-2,-1
1470246982744046,1,0,1,-1,-1,-2,-1,0
1470246982764564,-1,-1,-10,0,-1,-1,-1,-2
1470246982764564,0,2,17,2,-1,-2,-2,0
1470246982766564,2,5,0,-2,-1,-1,-2,0
1470246982766564,-4,-5,-18,-4,0,-1,-2,-2
1470246982779075,-1,-3,7,-3,-3,0,-1,-3
1470246982779075,-2,2,17,1,-2,-2,0,0
1470246982786081,1,-1,-6,-8,-2,-1,-1,-1
1470246982786081,3,0,-11,3,0,1,-2,-1
1470246982809604,-1,-4,-18,-3,-1,-2,-1,-1
1470246982809604,-2,1,25,5,-1,0,0,-2
1470246982811104,-5,-12,-23,-2,-2,-2,0,-1
1470246982811104,0,0,13,0,-1,-1,-1,0
1470246982824632,-2,-7,-16,-4,0,-1,-1,-2
1470246982824632,2,0,-1,-3,-1,-1,-2,0
1470246982826117,-1,-1,6,-1,0,-2,-3,-2
1470246982826117,-1,-2,5,-2,-2,0,-2,-2
1470246982839151,-3,-3,-6,-3,-1,1,-1,-1
1470246982839151,-2,0,-39,-10,-3,-2,-2,-2
1470246982846136,-5,-1,17,2,-1,-2,0,-1
1470246982846136,-1,0,-5,0,-1,-2,-1,0
1470246982862650,0,2,22,0,-1,0,-2,-2
1470246982862650,1,1,-3,-1,0,0,-1,1
1470246982864151,1,1,-6,-7,-1,0,0,0
1470246982864151,0,0,1,0,-1,-1,1,1
1470246982892179,-2,-3,0,2,-1,-2,-1,0
1470246982892179,-2,-3,9,1,-2,-3,-1,-2
1470246982893680,-2,2,-1,2,-1,-2,-1,-1
1470246982893680,0,2,9,2,-2,0,-1,-1
1470246982898682,0,-1,-7,-2,0,-1,-2,-1
1470246982898682,1,-1,10,3,0,0,0,-1
1470246982907692,2,-6,-17,-1,-1,0,-3,1
1470246982907692,-2,-5,12,-3,-1,-1,0,0
1470246982922253,-2,-1,-8,3,-1,-1,0,0
1470246982922253,-1,2,16,2,-2,-1,-1,-1
1470246982928714,-2,0,-41,-6,-2,-2,-1,-2
1470246982928714,1,1,12,1,-1,-1,-1,-1
1470246982944723,1,0,-7,-2,-2,-2,-2,1
1470246982944723,-1,-1,2,-3,-1,-2,-1,0
1470246982946225,-3,-3,13,5,2,0,-1,0
1470246982946225,-1,1,-7,-1,-3,-2,-2,-2
1470246982958737,-2,1,-2,1,-3,-2,0,-3
1470246982958737,-1,1,-2,0,1,1,0,0
1470246982967244,-2,-5,-7,-5,-4,0,-1,-2
1470246982967244,-3,-3,-21,-8,-4,-1,-3,-3
1470246982982283,-1,1,23,5,0,-1,-1,0
1470246982982283,-1,-1,-6,1,1,0,-2,-1
1470246982983759,-4,2,25,3,-3,-2,-1,-2
1470246982983759,-1,-5,-28,-9,0,0,0,-1
1470246983004834,0,-3,-5,0,-2,-1,-1,-2
1470246983004834,1,1,-14,-6,1,0,0,-1
1470246983006279,-3,2,44,9,0,-2,-2,-2
1470246983006279,0,0,-3,-1,-1,-4,-1,0
1470246983027351,-4,-6,-3,-2,0,0,0,-2
1470246983027351,0,-1,-16,-1,-1,-3,0,0
1470246983028800,-2,-7,1,-6,-2,0,-2,-1
1470246983028800,-1,-3,-21,-1,-3,-1,1,-1
1470246983042311,-1,1,9,-2,-1,0,-1,-1
1470246983042311,-1,1,16,8,-2,0,0,0
1470246983043813,0,-1,-6,-8,-1,1,-1,-3
1470246983043813,-4,-3,9,3,0,-2,-2,-2
1470246983064892,3,5,-20,-6,-1,-1,-1,0
1470246983064892,-3,-10,-12,-1,-1,0,1,-1
1470246983066361,3,9,1,1,0,-1,-1,-1
1470246983066361,-2,-2,-3,-4,0,-1,0,0
1470246983078846,-3,-4,25,4,-1,-1,-2,-1
1470246983078846,-1,1,8,4,0,1,-1,-2
1470246983087352,1,-2,-15,-3,-1,-2,-2,0
1470246983087352,0,1,-2,-1,0,1,0,-1
1470246983102372,1,8,-11,-3,0,-1,0,0
1470246983102372,-6,-7,-7,-7,-2,-2,-1,-4
1470246983103869,-3,0,-7,2,0,1,0,-3
1470246983103869,-2,-3,29,1,-2,-1,-1,-2
1470246983124885,-2,-4,4,-1,-4,-3,-3,1
1470246983124885,0,1,-3,-5,-2,-1,-1,0
1470246983126421,1,1,0,1,2,-2,1,-1
1470246983126421,-3,-1,15,0,-1,-1,-2,-3
1470246983138453,-3,-8,-56,-11,-1,-2,-2,-2
1470246983138453,-1,0,28,6,-4,-3,-1,-2
1470246983147406,1,0,-17,-6,-1,-1,1,-1
1470246983147406,-1,0,11,4,0,1,0,0
1470246983162419,-1,3,21,3,0,-2,-1,0
1470246983162419,0,-4,-17,-6,-2,-2,-3,-1
1470246983163921,0,3,-12,-2,-3,-1,0,-2
1470246983163921,1,-2,4,-2,-2,-1,-2,-1
1470246983184940,0,-1,0,-1,-2,0,-2,-1
1470246983184940,-1,-2,-2,-2,1,1,0,-1
1470246983186442,-4,-4,2,0,-1,-1,-2,-2
1470246983186442,0,1,-12,-1,0,-2,0,-1
1470246983198495,-3,-2,15,1,-3,0,-1,-1
1470246983198495,0,8,-8,-3,-1,-2,0,-1
1470246983207460,2,0,16,3,0,0,-1,0
1470246983207460,-2,-5,-20,-2,-1,-1,-1,-1
1470246983222480,-2,0,-16,-6,-1,-1,1,0
1470246983222480,-3,-7,9,2,-2,0,-1,-1
1470246983223974,1,4,16,4,-2,-2,0,-2
1470246983223974,-2,0,3,1,-3,-2,-1,-1
1470246983245003,-1,-6,-11,-1,0,0,-1,-1
1470246983245003,0,-5,-19,-7,0,1,1,-1
1470246983246495,2,8,7,-5,-1,0,-1,0
1470246983246495,1,-3,-14,-2,0,0,-1,-2
1470246983258507,-3,-1,16,3,1,-1,-1,-3
1470246983258507,0,1,-10,-4,-4,-4,-2,-1
1470246983267516,0,-3,2,2,-1,-1,-2,1
1470246983267516,-2,-1,-8,3,0,0,0,-1
1470246983282057,1,-2,7,-2,1,-1,-1,-2
1470246983282057,-3,-4,-12,0,-2,-2,-2,0
1470246983284073,-2,-5,-15,-3,-4,-2,0,-1
1470246983284073,-1,0,30,0,0,-1,1,-2
1470246983305047,-3,5,4,3,0,0,-1,-3
1470246983305047,1,5,9,-1,2,1,-2,0
1470246983306549,-2,-9,-17,-6,0,-1,0,-1
1470246983306549,0,5,5,1,-2,-1,-2,0
1470246983327069,-3,-7,-1,-3,-1,0,-2,0
1470246983327069,-2,3,4,2,3,-1,0,-2
1470246983329070,-1,-3,-3,-2,0,2,0,-1
1470246983329070,2,5,6,-3,-1,-1,-1,-1
1470246983342080,1,5,-1,1,-1,-2,-1,1
1470246983342080,0,-2,-3,-2,-1,-2,0,-1
1470246983344082,0,-5,-5,-3,-2,-1,-1,-2
1470246983344082,-2,0,-12,3,-2,-1,-2,-2
1470246983365101,-5,-12,-44,-7,-3,-1,-1,-3
1470246983365101,1,5,33,0,-1,-2,-2,-1
1470246983366602,-2,-4,-24,-3,-2,-1,0,0
1470246983366602,0,-3,8,-4,-1,-2,-1,-1
1470246983387648,-3,-1,1,4,-1,1,-1,-1
1470246983387648,-1,-1,-6,1,-2,-1,-2,-1
1470246983388622,-1,-2,-3,-1,0,0,0,-2
1470246983388622,-2,-2,-4,0,-2,-3,-1,-1
1470246983402190,2,1,-10,-1,-2,0,-1,-3
1470246983402190,0,1,3,2,2,0,1,3
1470246983403636,-5,0,25,4,-2,-4,-3,0
1470246983403636,-6,-9,-7,-5,0,-1,-1,-1
1470246983425171,1,2,1,1,-1,-2,-1,1
1470246983425171,-1,-2,-17,-6,-4,-1,-2,-2
1470246983426157,-5,0,-11,-1,2,-1,-2,-3
1470246983426157,2,-2,-2,-1,0,1,-1,1
1470246983455191,-3,-6,12,-1,-1,-1,-2,-1
1470246983455191,-1,1,12,2,0,-1,-1,0
1470246983456183,-2,-9,-16,-2,-3,-3,-1,-1
1470246983456183,1,10,15,0,-2,-1,0,0
1470246983461773,-3,-8,8,0,-1,-3,0,-4
1470246983461773,-3,-10,-10,-6,-1,-2,-3,-2
1470246983468695,1,3,15,4,-1,-1,-1,0
1470246983468695,-3,-5,-9,-7,-1,-3,-1,-3
1470246983485221,3,3,15,0,-1,-1,2,2
1470246983485221,-2,-4,-22,-2,0,0,1,-1
1470246983487211,0,0,11,1,-3,-1,-2,-1
1470246983487211,-1,-3,-10,0,1,0,-2,0
1470246983507229,0,4,24,0,-2,0,-2,-1
1470246983507229,-2,-6,-3,-3,0,0,-1,-1
1470246983508730,0,3,-7,-1,2,0,-2,1
1470246983508730,1,6,9,1,0,-1,-1,1
1470246983521745,-3,-1,-1,1,-2,-3,-1,-1
1470246983521745,-1,-2,-8,0,-3,0,-1,-1
1470246983528253,0,-1,3,0,0,0,0,-1
1470246983528253,-1,-2,12,3,-2,-1,-2,-1
1470246983544779,0,0,-28,-7,0,-1,-2,-1
1470246983544779,0,0,23,1,-3,-2,-2,-2
1470246983546265,-4,-3,0,-1,-2,1,-1,-3
1470246983546265,-1,2,-5,1,0,1,1,-1
1470246983567301,0,2,-4,-4,-1,1,-2,1
1470246983567301,1,4,-8,-2,-1,-1,-1,0
1470246983568784,2,-1,4,-1,-1,-3,-1,-2
1470246983568784,0,2,17,-1,0,-1,-1,-1
1470246983581796,0,-5,-28,-3,-1,-1,0,-2
1470246983581796,-2,-6,5,-1,-1,-2,0,-3
1470246983588834,2,7,3,0,-2,0,0,0
1470246983588834,-4,-5,-5,2,-1,0,-1,-3
1470246983604860,-1,-1,11,-1,-2,-3,0,-2
1470246983604860,-1,-8,-11,-3,0,-1,0,-2
1470246983606384,-3,-2,-13,-7,-2,-1,-2,1
1470246983606384,-1,-3,8,-2,-4,-3,-1,-3
1470246983627370,1,4,9,4,-1,0,-2,-1
1470246983627370,-1,1,-2,1,-1,0,0,0
1470246983628840,-2,-6,-5,0,0,-1,-1,0
1470246983628840,-1,2,-7,-2,0,-1,-1,0
1470246983641870,-2,-2,-25,-3,-1,-1,-1,0
1470246983641870,-2,-1,-12,-3,-2,-2,0,-1
1470246983648383,-2,-1,24,2,-3,-1,0,-1
1470246983648383,-2,-5,1,1,-2,-1,0,-2
1470246983664912,-1,2,6,0,-2,-1,-2,-2
1470246983664912,2,0,-7,-5,0,-1,-2,0
1470246983666405,1,7,1,-1,-1,-1,0,-1
1470246983666405,-6,-17,-35,-2,-2,-3,-3,-2
1470246983687470,0,-1,0,-6,-1,-1,-1,-1
1470246983687470,-2,1,28,8,0,-1,-2,-2
1470246983688896,-1,-2,12,0,0,-1,-3,0
1470246983688896,2,2,-15,-1,1,0,0,1
1470246983701909,1,-1,7,0,1,2,0,-1
1470246983701909,-3,-4,-44,-5,-2,-1,0,-2
1470246983708468,1,-8,-11,-4,-2,-2,-1,-2
1470246983708468,2,5,5,0,-3,-3,0,0
1470246983724966,-3,-2,9,0,-2,-1,-1,0
1470246983724966,0,3,14,0,2,-1,-1,0
1470246983726427,-1,-1,-3,-1,-1,-1,-1,-2
1470246983726427,-3,-7,-21,-4,-2,-1,-4,0
1470246983747500,1,1,1,-3,-1,0,-2,1
1470246983747500,2,4,-4,3,-1,-1,1,1
1470246983748991,-3,-2,-6,-5,-3,-1,-1,-1
1470246983748991,0,3,15,4,-1,0,-2,-2
1470246983761458,-1,-3,22,-5,-2,-2,-2,-2
1470246983761458,-2,-2,-25,-1,-3,-1,-2,-1
1470246983768464,-1,-5,-9,-1,-2,-1,1,0
1470246983768464,2,-1,9,-3,-2,-1,0,-2
1470246983784478,-1,-1,7,1,-1,-1,0,0
1470246983784478,0,3,5,-3,0,0,-2,-1
1470246983786480,-2,3,19,3,1,0,-2,-2
1470246983786480,-3,-8,-18,-4,-3,-2,-3,-2
1470246983807498,0,2,1,2,2,-1,0,0
1470246983807498,-3,-6,12,1,-2,-1,-1,-2
1470246983809000,-2,-1,-18,-4,-2,-1,1,0
1470246983809000,1,6,17,1,1,0,1,0
1470246983821010,-2,-6,-19,-2,-1,-1,-1,-3
1470246983821010,2,4,7,-1,-1,-1,0,1
1470246983830019,-3,-4,-10,-3,0,1,-1,0
1470246983830019,-2,0,-7,-1,1,1,1,-2
1470246983845032,-4,-6,3,0,-4,-3,-1,-2
1470246983845032,-3,0,12,4,-2,-1,0,-2
1470246983846534,-1,1,-5,0,0,0,-3,-1
1470246983846534,1,7,-3,-4,-1,-1,0,0
1470246983867053,-1,-4,-14,-1,-2,0,-1,1
1470246983867053,0,-2,16,-2,-3,-1,-2,0
1470246983868553,0,1,-3,1,-1,-3,-1,0
1470246983868553,-3,0,10,0,-1,-1,-2,0
1470246983881081,-1,0,0,1,0,-1,-1,-1
1470246983881081,-1,-1,3,-5,-3,-1,-1,-1
1470246983890072,-1,-3,-10,0,0,1,-1,-2
1470246983890072,-1,-3,5,2,-1,-2,0,-2
1470246983905086,-1,-4,-3,-3,0,0,0,-1
1470246983905086,-2,0,7,2,1,-2,0,0
1470246983906588,1,0,6,-1,-2,-4,-1,-3
1470246983906588,-2,-3,-25,-4,-2,0,-1,-1
1470246983927165,-4,-3,-4,-2,-3,-1,-1,-1
1470246983927165,-1,2,-5,-3,-1,-2,-1,-1
1470246983929116,2,-1,0,-2,0,1,0,1
1470246983929116,-3,-1,15,4,2,0,1,-1
1470246983941120,-3,-3,-35,-6,-4,-2,0,-2
1470246983941120,0,6,21,3,0,0,-3,0
1470246983950126,-1,-2,-3,2,-2,-1,-1,-1
1470246983950126,1,2,14,3,2,-1,-2,2
1470246983964670,0,2,-3,-1,-1,0,0,-2
1470246983964670,-2,-11,-27,-4,0,0,0,-2
1470246983966141,-4,1,5,0,1,0,0,-1
1470246983966141,0,-1,-7,-4,-1,-2,0,-1
1470246983987160,-1,0,12,1,-1,-1,-2,0
1470246983987160,-1,2,0,-1,-2,0,0,0
1470246983988664,0,-6,8,0,-2,-1,0,0
1470246983988664,-1,-2,-9,-3,-2,-2,0,-1
1470246984001175,1,2,-1,-1,-2,-2,-2,-1
1470246984001175,-4,0,-1,-3,-2,-2,-1,-2
1470246984009680,0,1,-10,-1,-1,0,0,0
1470246984009680,-1,-4,2,-3,-1,-2,-1,-1
1470246984024735,3,6,-1,-2,1,0,-2,1
1470246984024735,-4,-2,26,6,-3,-2,-2,-2
1470246984026725,-1,1,5,-3,-1,-4,-2,-3
1470246984026725,-1,1,-11,0,-2,0,1,1
1470246984047215,-2,-1,-3,-1,0,2,-1,-2
1470246984047215,-2,-5,-14,-5,2,-1,-2,-1
1470246984048715,0,1,1,1,-1,0,1,0
1470246984048715,-3,-4,0,-4,-2,-1,-3,-2
1470246984061258,-2,0,21,1,-3,-2,0,0
1470246984061258,-1,-3,-26,-2,-3,-1,1,-2
1470246984069736,-1,0,-4,-4,-2,-2,-1,-1
1470246984069736,0,-3,-3,0,-1,-1,-1,-2
1470246984084803,0,3,2,3,-1,0,0,-1
1470246984084803,-1,-5,-4,-3,-1,0,-2,-1
1470246984086251,-2,-1,-2,1,-3,2,0,-1
1470246984086251,-2,1,23,-3,-4,-3,-2,1
1470246984107273,1,0,1,-1,0,-2,-1,1
1470246984107273,1,-7,-15,1,0,-1,-2,-1
1470246984108773,3,8,-16,-5,1,0,-2,0
1470246984108773,-1,0,17,4,1,0,-2,0
1470246984120835,-2,-4,-11,-4,-2,-1,0,-1
1470246984120835,2,10,13,0,1,-2,0,1
1470246984129790,-5,-16,7,1,-2,-1,0,-3
1470246984129790,-1,-2,-19,0,-1,0,-1,-2
1470246984144817,1,0,18,2,-1,0,-1,1
1470246984144817,-1,-1,-7,-3,-1,-2,0,-1
1470246984146303,-5,-8,4,-2,-3,-3,-2,-1
1470246984146303,-2,4,-3,0,0,1,-1,-1
1470246984167321,0,-2,-14,-4,0,-1,-2,0
1470246984167321,-3,-3,0,0,-2,-2,-2,-2
1470246984168823,0,-3,11,1,-1,-2,-1,0
1470246984168823,2,-1,-3,0,-2,-2,-1,-1
1470246984181352,-1,-1,5,0,1,0,-1,-2
1470246984181352,0,-1,-20,-3,-1,0,-1,0
1470246984189842,0,1,3,3,-1,-2,-1,-1
1470246984189842,0,1,-35,-6,-3,-2,-1,-2
1470246984204873,-3,-2,20,4,-2,-1,-1,-1
1470246984204873,-2,4,23,0,-2,0,0,0
1470246984206857,1,4,-13,-2,2,0,-1,-1
1470246984206857,-1,-2,3,0,1,-1,-1,-2
1470246984227403,2,4,-14,-4,0,-2,-1,-2
1470246984227403,-3,-6,-1,-4,-4,-1,-3,-4
1470246984228879,-1,1,4,0,-1,-1,-1,0
1470246984228879,-3,-2,1,3,-2,-2,-1,-3
1470246984249951,-2,-2,-1,-1,-1,0,0,0
1470246984249951,-2,-12,-33,-6,-2,-1,-1,-2
1470246984251401,-1,9,19,0,-1,0,1,-1
1470246984251401,-1,-3,12,-1,-1,-1,-2,0
1470246984264996,-2,-4,-10,1,-2,-4,-2,-4
1470246984264996,-1,2,14,2,-3,-1,-1,-2
1470246984266445,-2,-3,-13,-6,-1,-1,-1,-2
1470246984266445,1,4,3,-1,-1,-1,0,-1
1470246984287454,-3,-4,8,-2,-1,-1,-1,-2
1470246984287454,1,4,8,0,0,-1,0,1
1470246984288933,0,-3,-4,-1,-4,-2,-3,0
1470246984288933,-4,-8,-6,-4,-2,-1,0,-3
1470246984308993,0,3,-5,0,-1,-2,-1,0
1470246984308993,-1,1,19,2,1,0,-2,0
1470246984317457,-5,-7,-14,-2,-1,-1,-2,-1
1470246984317457,1,10,10,2,0,-1,-2,1
1470246984325007,-3,-8,-31,-9,-3,-2,-1,-1
1470246984325007,3,7,16,-1,1,-2,1,0
1470246984326514,-3,1,-10,-2,-1,0,-2,-1
1470246984326514,-3,-12,-6,-5,-2,0,-1,-1
1470246984347509,0,1,13,0,-3,-2,0,-1
1470246984347509,0,0,-12,0,0,0,0,1
1470246984348992,0,0,7,0,-2,-2,-1,-2
1470246984348992,-1,-2,-6,-3,-1,-1,0,1
1470246984370004,-1,0,-3,-7,0,1,-3,-1
1470246984370004,-2,-13,-16,-1,-1,-1,0,0
1470246984371505,-1,-2,-15,-2,-2,-2,-2,-2
1470246984371505,1,-1,6,3,-1,1,0,0
1470246984385530,-1,0,-1,-4,-2,-1,0,0
1470246984385530,-1,-1,26,2,-2,-1,-2,0
1470246984387020,1,3,-15,-4,1,0,-1,-3
1470246984387020,0,4,-2,-1,0,0,-2,0
1470246984407537,-5,-8,12,1,-2,-3,-2,-2
1470246984407537,-1,1,13,4,-3,-2,-1,-1
1470246984409039,-2,0,-8,-2,-1,-1,0,3
1470246984409039,0,1,-5,2,0,-1,1,-2
1470246984430057,1,3,-4,-1,-2,0,0,1
1470246984430057,-4,-9,-39,-10,-2,-2,0,-1
1470246984431561,2,3,32,3,-2,-1,1,2
1470246984431561,-1,-11,-17,-5,-2,0,-2,0
1470246984444113,0,6,18,8,1,2,-1,-3
1470246984444113,-1,2,4,-1,0,-2,-1,-1
1470246984451133,-1,-6,-52,-6,0,0,-3,-2
1470246984451133,-1,3,29,4,-3,-2,0,-1
1470246984467607,-2,-2,10,2,-1,-2,-1,-1
1470246984467607,-1,0,-25,-5,0,0,0,-2
1470246984469092,-2,-1,28,4,1,-1,-1,0
1470246984469092,-1,4,-21,-3,0,0,2,-1
1470246984490156,-4,-12,-31,-3,-2,-1,-2,-1
1470246984490156,-2,-4,-2,-2,-1,-2,-2,-2
1470246984491613,1,-1,5,-3,-2,-1,0,1
1470246984491613,-1,1,-9,-3,-1,1,0,-1
1470246984504123,1,1,21,3,1,0,1,1
1470246984504123,-2,-1,-13,-2,0,-1,-1,-2
1470246984511130,1,4,12,1,-2,0,0,-2
1470246984511130,-2,-3,-7,-7,-2,-3,-3,-2
1470246984527147,0,0,-41,-3,0,0,-1,-2
1470246984527147,-1,3,16,4,2,0,-2,0
1470246984529157,-3,-4,10,-3,-4,-2,-1,-1
1470246984529157,-3,0,6,-1,-1,-2,-2,-2
1470246984549721,0,1,7,4,-1,-1,-1,1
1470246984549721,1,2,-8,-6,-4,-1,2,0
1470246984551669,-2,-5,-9,0,1,-1,-1,-1
1470246984551669,-2,-5,-13,-3,0,0,-1,-1
1470246984564178,-1,-3,12,3,-2,-2,-1,0
1470246984564178,2,4,9,4,0,-1,0,-1
1470246984571184,0,1,3,-6,-3,-1,-1,-3
1470246984571184,0,-3,11,2,-1,-2,-2,-1
1470246984587273,1,3,-25,-7,0,-2,0,-1
1470246984587273,-1,-4,26,3,-1,1,-2,-1
1470246984593709,-3,-2,8,-2,-3,-2,-2,-2
1470246984593709,-4,-5,-3,0,0,-1,-1,-1
1470246984609720,1,3,15,0,-1,0,0,-2
1470246984609720,-1,-4,-23,-7,-3,-1,-3,-1
1470246984611220,1,-1,5,-1,-1,0,-1,0
1470246984611220,-2,-5,0,-5,1,-1,-2,0
1470246984624257,-4,-4,-9,0,-2,-2,-2,-2
1470246984624257,0,2,8,1,-1,-1,-1,0
1470246984631347,-4,-8,-10,1,0,-2,0,0
1470246984631347,1,2,-1,-1,-2,0,-2,-2
1470246984647306,1,-2,8,-1,-1,-2,-2,-1
1470246984647306,0,5,-24,0,1,1,-1,0
1470246984648754,-1,0,-1,1,-4,-1,-1,-1
1470246984648754,-1,5,10,3,0,0,-1,0
1470246984669820,-1,-5,-15,-3,-1,-1,-1,-1
1470246984669820,-2,2,21,-1,-1,-1,-1,-1
1470246984671274,0,-4,-9,-4,0,0,0,0
1470246984671274,-2,-3,-18,2,-2,-2,0,-2
1470246984684374,-2,0,2,-1,-1,0,-1,-1
1470246984684374,-2,3,3,-3,-3,-2,-1,0
1470246984690794,0,0,1,5,1,0,-1,-2
1470246984690794,-2,-5,5,-6,-2,-1,-2,0
1470246984707306,0,1,-4,-1,-1,-1,0,-1
1470246984707306,-2,-3,-8,1,-2,-2,-2,-3
1470246984708810,-2,1,26,2,0,1,-1,-2
1470246984708810,0,0,-27,-3,-1,-1,0,0
1470246984729855,-1,0,10,-3,0,0,-1,0
1470246984729855,3,-3,-50,-7,0,1,0,1
1470246984731361,-1,6,18,3,-1,-2,-2,-2
1470246984731361,-2,-1,11,2,0,-1,-1,0
1470246984743391,-1,1,-7,-3,-1,0,0,0
1470246984743391,-1,-2,10,-1,-1,-1,-1,-2
1470246984752347,3,7,-8,-3,-1,0,1,1
1470246984752347,-1,-8,3,1,-2,-2,-1,-1
1470246984767362,0,4,13,2,-2,-1,0,-3
1470246984767362,0,-5,-15,-4,-1,-1,-2,-1
1470246984768861,0,2,8,2,-2,-2,0,-1
1470246984768861,-1,-2,1,-5,-2,0,0,-2
1470246984789880,-2,-3,-1,0,1,0,-1,0
1470246984789880,-3,1,15,1,0,0,0,2
1470246984791383,0,-5,-31,-3,0,-1,-1,0
1470246984791383,-1,-1,21,3,-3,-2,-2,0
1470246984803393,1,0,7,1,-1,-1,0,-1
1470246984803393,-2,-3,11,-1,-2,0,-1,-2
1470246984812401,-1,-6,-12,-2,1,-1,-2,0
1470246984812401,1,3,-12,-6,-1,-2,-1,-2
1470246984834922,-2,-3,-20,-6,0,0,-2,-2
1470246984834922,0,1,35,8,-1,-1,0,2
1470246984836423,-6,-13,-32,-7,-2,-2,-2,-3
1470246984836423,1,5,6,1,-1,1,-2,-1
1470246984850010,-1,-8,-4,2,-2,-1,-1,-1
1470246984850010,1,2,-7,-6,-1,-2,-1,-1
1470246984851451,-3,-2,1,0,-1,0,-1,-1
1470246984851451,0,0,-5,0,1,-3,-1,-1
1470246984863461,-2,0,3,-1,-2,-1,-2,0
1470246984863461,-1,-6,2,2,-1,0,-2,-3
1470246984872455,-2,0,7,1,-1,-2,-2,-2
1470246984872455,-2,1,-17,-3,1,-1,0,0
1470246984887496,-2,-1,28,4,-3,-2,0,1
1470246984887496,-4,-3,7,-2,-3,-1,-1,-3
1470246984888970,-1,-1,-21,-4,-1,-1,1,0
1470246984888970,1,5,12,2,-1,-2,-1,0
1470246984909991,0,-1,-18,-4,1,-1,2,-2
1470246984909991,0,-2,13,-2,-1,-2,-2,0
1470246984911489,1,2,13,4,-2,-2,0,0
1470246984911489,-2,1,-4,0,0,-1,-1,-1
1470246984923544,-3,-5,-4,-2,0,-2,-1,0
1470246984923544,1,5,-3,0,-2,-1,-1,1
1470246984932509,-4,-3,8,-2,-2,-1,-3,-2
1470246984932509,-1,-4,-11,-1,-2,1,-2,-1
1470246984947522,0,2,1,-2,-2,0,-1,-2
1470246984947522,0,4,-9,-2,-1,-1,0,-1
1470246984949023,-2,-1,6,0,-1,-1,-1,-1
1470246984949023,1,-1,11,-1,-1,-2,-1,-2
1470246984970043,1,0,-14,-4,0,-2,-3,-2
1470246984970043,-3,-6,4,1,-1,0,0,-1
1470246984971544,1,1,-34,-4,-2,0,0,0
1470246984971544,-6,-12,27,-1,-4,-1,-3,-4
1470246984983639,-3,-1,-7,1,-3,0,-3,-1
1470246984983639,-2,-2,-1,2,-3,-2,-1,-1
1470246984993064,1,-1,4,-1,0,-1,1,0
1470246984993064,7,10,-10,-2,0,0,-1,1
1470246985007576,-1,-6,-24,-5,-1,-2,-3,-1
1470246985007576,-5,1,-1,-1,0,0,-2,-4
1470246985009078,-1,-9,21,2,-1,-1,0,-1
1470246985009078,1,2,-18,-1,-2,-3,-1,-2
1470246985029610,1,2,9,-1,-1,-1,0,0
1470246985029610,1,-1,-13,0,0,-1,0,0
1470246985031598,-2,-3,-2,-7,0,-2,-1,-3
1470246985031598,-3,-5,12,1,-3,-2,0,-2
1470246985043651,1,2,-1,-1,-2,-1,0,0
1470246985043651,-6,-4,-5,-1,1,0,-1,-4
1470246985052618,1,1,0,1,1,0,0,1
1470246985052618,-2,-4,-2,-5,-2,-2,-1,0
1470246985067666,2,1,2,-3,1,-1,-1,0
1470246985067666,-1,-3,10,0,-3,-2,-1,0
1470246985069178,-1,3,1,2,-3,-1,-2,-2
1470246985069178,-2,3,-12,0,1,1,0,-2
1470246985090164,-4,-9,2,3,-1,0,-2,-1
1470246985090164,-1,2,1,0,-2,0,-1,0
1470246985091653,-2,-4,-2,-6,-3,-2,-1,0
1470246985091653,-1,-1,14,2,0,-2,-2,0
1470246985103662,-2,-1,-10,2,-1,-3,1,-2
1470246985103662,0,-2,-11,-2,-1,-3,-1,0
1470246985112671,-1,-1,11,-1,-1,0,-1,-1
1470246985112671,-1,3,-17,-2,-2,1,0,0
1470246985127230,-2,-4,5,-4,1,-1,-3,-2
1470246985127230,2,-1,-7,-2,-3,-2,-1,-2
1470246985128685,-1,3,0,3,-1,-1,-1,-1
1470246985128685,-1,-5,3,-4,0,0,0,-1
1470246985149745,0,5,12,0,0,-1,-3,1
1470246985149745,-3,-6,-4,-2,-1,-1,-1,-2
1470246985151205,2,-3,-1,-1,0,0,0,1
1470246985151205,-3,-1,4,6,-1,0,0,-1
1470246985163818,-1,3,-4,-3,-2,-2,0,-2
1470246985163818,-1,-6,3,-1,0,-2,-1,0
1470246985172225,2,10,8,1,1,-1,-1,-1
1470246985172225,-1,-1,-15,-2,1,0,-2,0
1470246985187277,-2,-12,-23,-4,-3,-2,-1,-1
1470246985187277,-1,0,8,-3,-4,-1,-1,-2
1470246985188738,-2,-3,-9,-2,-1,-2,-1,-2
1470246985188738,-1,2,-4,-1,0,-1,-1,0
1470246985209813,-4,3,5,1,0,1,0,-1
1470246985209813,-3,0,-4,0,-1,0,0,1
1470246985211259,-1,0,-14,-5,-2,0,-1,-2
1470246985211259,0,-2,9,-2,-1,0,-1,-1
1470246985232313,-4,-6,3,0,-1,-2,-2,0
1470246985232313,-1,3,28,7,-2,-1,-2,0
1470246985233779,-3,0,-4,-1,-1,0,-2,0
1470246985233779,0,-5,-3,-1,0,-1,-1,-1
1470246985247292,3,4,8,-1,0,1,0,-1
1470246985247292,-3,0,-43,-11,-1,0,-1,-2
1470246985248793,1,1,13,1,-1,-1,-1,0
1470246985248793,-5,2,3,0,0,0,-1,-2
1470246985269826,-3,-5,4,1,-1,0,0,0
1470246985269826,1,4,-4,2,1,-1,0,-1
1470246985271313,0,-1,9,1,-3,-2,-1,-2
1470246985271313,0,-6,0,-2,-1,-1,-1,0
1470246985292365,0,-1,-11,0,-1,1,0,0
1470246985292365,0,3,-16,-6,-2,-1,-3,1
1470246985293833,-4,-17,2,-3,-2,0,-1,-3
1470246985293833,-2,0,-6,2,-2,-2,-1,-1
1470246985307345,-1,1,1,2,-3,-1,-1,-3
1470246985307345,-4,-14,-11,-7,0,0,-2,-2
1470246985308847,3,10,5,0,0,-1,1,2
1470246985308847,-2,-8,-22,-3,-3,1,-2,-1
1470246985329865,-3,-1,2,-4,-2,0,0,-1
1470246985329865,0,5,11,3,1,-2,-1,0
1470246985331367,-1,-19,-8,1,-1,-2,0,-1
1470246985331367,-2,17,8,-5,-2,-2,-1,-4
1470246985352444,1,-10,0,4,3,0,0,0
1470246985352444,1,18,-18,-5,-2,-1,-2,-1
1470246985353907,-3,-4,-9,1,-4,-2,-2,-3
1470246985353907,5,7,23,-2,0,-1,0,2
1470246985366398,-6,-11,2,-1,-3,-4,-3,-2
1470246985366398,0,-3,4,-2,0,0,-1,0
1470246985373404,-1,23,12,-5,-1,-1,-1,-2
1470246985373404,-1,-38,-21,0,-1,-1,1,-1
1470246985390011,2,17,-3,4,1,0,0,-2
1470246985390011,-6,-26,-34,-11,-8,-3,-2,-5
1470246985391421,0,10,13,0,0,-1,0,-1
1470246985391421,0,-5,21,10,2,1,-1,1
1470246985412485,1,7,5,-8,0,0,-1,-1
1470246985412485,1,-6,12,5,0,-1,0,1
1470246985413979,-1,-5,-7,-4,0,0,-2,-3
1470246985413979,-1,3,13,2,-3,-2,-2,-1
1470246985426952,1,3,-4,-1,-1,0,-1,-1
1470246985426952,-1,2,-31,-5,-1,-1,-1,-2
1470246985433488,-4,-11,-31,-5,-4,-2,-1,0
1470246985433488,0,8,22,1,2,1,-3,0
1470246985450000,-1,6,16,5,0,1,-2,0
1470246985450000,-2,-9,18,-5,-3,-3,-3,-3
1470246985451475,1,3,27,8,2,-1,-1,0
1470246985451475,-5,-6,-43,-10,-4,-2,-2,-3
1470246985472556,-1,3,27,-2,-2,-3,0,-1
1470246985472556,-5,-15,-26,-4,2,2,0,0
1470246985473995,-1,1,-15,-5,-3,-2,-2,-3
1470246985473995,1,9,11,4,-1,0,-1,1
1470246985486006,-1,1,-1,0,-1,-1,-2,-2
1470246985486006,1,2,11,2,-1,-1,1,0
1470246985495014,-1,-7,-26,-3,0,-1,0,1
1470246985495014,-4,-8,-2,-1,-2,-3,-1,-2
1470246985510033,-2,5,13,0,-1,-2,-1,-1
1470246985510033,-1,-1,-32,-1,-2,-3,-2,-1
1470246985511530,1,3,25,4,2,0,0,1
1470246985511530,-1,-1,-33,-9,-1,-1,-2,-2
1470246985532582,-2,-12,-23,-4,-3,-1,-3,0
1470246985532582,0,12,43,11,3,1,1,0
1470246985534050,-1,-1,1,-3,-4,-1,0,0
1470246985534050,-2,1,8,1,0,-3,-2,-2
1470246985546561,-2,-9,-18,-4,-3,-2,-1,-3
1470246985546561,2,3,-7,1,1,1,1,1
1470246985553629,-1,-1,-48,-3,2,-1,0,0
1470246985553629,-2,-8,38,1,-1,-1,-2,-2
1470246985570117,1,3,-4,2,2,-1,0,-1
1470246985570117,-2,-6,9,-6,-4,-1,-1,-4
1470246985571582,-1,0,10,5,-4,1,-2,-2
1470246985571582,1,6,-4,-1,0,0,1,0
1470246985592708,-4,-11,-4,-1,-1,0,-1,-1
1470246985592708,-1,0,10,2,3,0,-1,-1
1470246985594103,0,6,14,-2,-1,-1,-1,-1
1470246985594103,-1,-3,-46,3,-3,-1,-2,-3
1470246985606656,1,1,11,-5,2,-1,0,0
1470246985606656,0,6,14,4,5,0,0,0
1470246985613621,-4,-11,-14,-4,-3,-4,-2,-2
1470246985613621,-1,9,50,5,0,0,-1,-3
1470246985629668,0,-8,-42,-8,-5,-2,-1,0
1470246985629668,-1,3,6,7,-4,-2,-1,-2
1470246985631137,0,1,-1,-9,-1,0,0,-2
1470246985631137,-3,-7,-18,-6,-2,-2,-2,0
1470246985652656,0,4,6,2,-2,-1,-2,-3
1470246985652656,-4,-3,23,-4,-3,-3,-3,-2
1470246985653656,-1,-4,-37,-1,0,-2,-1,0
1470246985653656,1,3,4,-3,2,0,2,0
1470246985666672,-3,-6,-9,-4,-4,2,0,0
1470246985666672,-1,-4,3,-3,-2,-1,-1,-1
1470246985673674,-1,-1,23,4,-1,-1,-3,-3
1470246985673674,0,1,8,-1,-1,-1,0,0
1470246985689688,-2,-3,-25,0,0,-3,-2,-3
1470246985689688,2,5,8,3,1,0,0,0
1470246985691690,-3,-5,-14,-9,-2,-2,-1,-3
1470246985691690,0,-1,3,2,-2,-2,0,0
1470246985712226,-1,2,21,10,2,1,-1,-1
1470246985712226,1,5,-19,6,-2,-1,-1,-2
1470246985713711,0,3,34,-13,0,-2,-1,-1
1470246985713711,-2,-10,-1,4,-5,-2,-1,-1
1470246985726259,-2,3,0,-6,1,-1,0,0
1470246985726259,-1,-3,-17,-12,1,0,0,-1
1470246985734729,-5,-11,-22,3,-2,-1,-1,-3
1470246985734729,-1,1,-12,5,-2,-1,-2,-4
1470246985749783,1,9,22,0,-2,-3,-2,-1
1470246985749783,-1,-7,0,2,-1,1,0,-1
1470246985751244,-2,-6,-16,0,0,-2,-2,0
1470246985751244,0,1,14,1,1,-1,-1,0
1470246985772262,3,4,24,16,-2,-1,-1,2
1470246985772262,-5,-20,-44,-23,-5,-4,-3,-2
1470246985773764,1,14,11,8,2,2,1,0
1470246985773764,0,-3,-28,-9,-3,0,-1,-1
1470246985785774,0,-4,-5,-7,0,-4,-3,-4
1470246985785774,1,9,45,8,0,-2,-3,-3
1470246985794783,-1,-3,3,0,-3,1,1,0
1470246985794783,0,1,-8,5,3,-1,-1,-1
1470246985809821,-1,10,4,-4,-7,-5,0,-2
1470246985809821,2,-12,18,2,-1,1,-2,0
1470246985811297,-7,10,-32,-18,8,0,-1,-3
1470246985811297,0,-13,11,24,1,0,0,-1
1470246985832333,0,0,-19,-17,-3,-1,-1,-1
1470246985832333,-2,-8,-13,-4,-6,2,-1,1
1470246985833818,1,8,30,2,5,0,0,1
1470246985833818,0,3,-19,-9,-4,0,-3,-2
1470246985845872,-4,-13,-6,5,0,-1,-3,-2
1470246985845872,-1,4,9,5,-27,-9,0,-1
1470246985854837,1,0,7,-2,24,7,-1,-2
1470246985854837,-2,-4,-33,-3,-6,-9,0,1
1470246985869894,-5,-20,-6,-15,-11,-1,-3,-2
1470246985869894,-2,16,14,-3,-1,1,0,0
1470246985871354,1,-1,-15,2,-2,-3,-2,1
1470246985871354,-2,-8,27,-5,1,0,-2,-3
1470246985892373,1,2,-14,7,-2,2,3,1
1470246985892373,0,3,-10,-2,13,0,-3,-1
1470246985893872,1,-3,10,7,-8,0,1,0
1470246985893872,1,3,6,0,2,-2,-4,0
1470246985905908,-6,-12,-8,-3,-8,-1,-1,-3
1470246985905908,-3,-6,-8,-2,7,0,-2,-3
1470246985914891,1,7,17,7,-12,-3,-1,0
1470246985914891,-3,-15,-34,-7,23,5,1,-2
1470246985929403,0,3,6,-1,-3,3,2,1
1470246985929403,0,5,14,2,-10,-11,-5,-3
1470246985935944,-1,-7,-15,1,1,6,1,-1
1470246985935944,0,7,25,-3,-6,-7,1,1
1470246985952425,-1,4,4,2,5,7,-3,-3
1470246985952425,-2,-7,-17,1,11,4,2,2
1470246985953932,0,1,2,2,-17,-12,-5,-4
1470246985953932,-2,-2,-1,-15,-5,3,-1,-1
1470246985965985,0,0,-9,-3,5,-3,-1,0
1470246985965985,1,6,9,4,3,6,3,0
1470246985974947,-2,-9,-5,2,-6,-8,-2,-2
1470246985974947,0,-3,-1,-4,-4,-1,0,0
1470246985989469,-1,-3,9,3,4,2,0,0
1470246985989469,3,11,-6,-3,-5,-3,0,0
1470246985995992,-1,-4,4,4,-1,2,-3,0
1470246985995992,-3,-10,-8,-7,4,0,1,-3
1470246986012479,2,24,-8,-5,-5,0,2,1
1470246986012479,-2,-6,-2,4,-20,-9,-2,-1
1470246986013995,-2,-5,0,-3,25,6,-3,-3
1470246986013995,-1,6,6,2,-9,1,-3,-3
1470246986025990,0,-11,0,-10,6,-3,-1,-1
1470246986025990,-1,7,-10,-2,-9,-5,0,-2
1470246986034999,-2,-29,-9,-3,-4,-6,-2,-2
1470246986034999,1,9,12,3,-2,7,0,1
1470246986049013,-2,-11,-1,1,0,-9,-3,-2
1470246986049013,-2,1,-33,-9,3,5,-2,-4
1470246986056019,0,3,8,-2,-12,-2,-2,2
1470246986056019,-1,6,5,0,6,0,0,-1
1470246986072532,-2,-1,11,7,-4,-1,-1,3
1470246986072532,-2,-8,1,-6,12,3,0,0
1470246986074036,-3,2,-4,-1,-5,-4,0,-2
1470246986074036,-1,7,-9,-2,-8,-3,-4,-2
1470246986086132,0,6,4,-5,-9,-8,-3,-1
1470246986086132,-2,-8,15,2,1,1,-1,-2
1470246986095053,0,2,5,1,7,5,-1,-2
1470246986095053,-2,-1,-9,-7,-4,-6,1,-1
1470246986109066,1,3,0,2,19,5,-2,-1
1470246986109066,-2,-3,5,5,0,-2,-2,1
1470246986116112,-1,-1,3,-1,-13,-5,-1,-1
1470246986116112,0,3,0,-3,-3,-3,-3,-2
1470246986132587,-1,-6,-6,3,-9,-2,-2,-2
1470246986132587,-2,-3,0,-4,-2,-1,-1,-1
1470246986134087,1,2,-8,-4,-1,-1,-1,-2
1470246986134087,0,-4,5,-1,-1,-7,-2,-1
1470246986155107,-2,-7,-22,-3,3,9,-1,-1
1470246986155107,2,1,11,2,1,-4,0,1
1470246986156607,-1,-1,-1,2,1,0,1,0
1470246986156607,0,2,-7,-4,0,-3,-2,-1
1470246986169146,-1,-5,11,1,-9,-4,0,-1
1470246986169146,0,0,7,4,7,1,1,-3
1470246986176125,2,5,6,1,-4,0,-1,2
1470246986176125,-2,-6,-5,3,1,-3,-2,-1
1470246986192700,-1,1,-6,-4,2,-1,-2,-1
1470246986192700,1,6,4,-3,-6,-2,0,-1
1470246986193641,-2,-14,-12,-5,-2,-2,0,-1
1470246986193641,-1,-10,0,-1,3,7,0,0
1470246986214703,-4,8,7,5,-4,-5,-1,-1
1470246986214703,-4,-5,-3,-3,-1,-1,0,-2
1470246986221166,0,7,-1,-2,-2,-1,-2,-1
1470246986221166,2,2,-19,-2,0,-1,0,0
1470246986229204,-2,-7,28,2,-3,-2,-1,-2
1470246986229204,-2,-4,-5,-6,-1,-1,-1,-4
1470246986236179,0,4,1,0,-24,-9,-1,-1
1470246986236179,-1,-4,-16,-5,17,9,-1,0
1470246986252237,-1,2,-2,2,-3,-1,2,0
1470246986252237,2,3,4,3,2,-1,-1,1
1470246986253695,-3,-7,-6,0,-5,-2,-2,-3
1470246986253695,-3,-10,-1,-14,-10,-4,0,-2
1470246986274732,-1,-2,-29,-5,-2,-2,-2,-2
1470246986274732,2,3,7,1,5,-1,-2,-3
1470246986276218,-2,-13,-13,-3,4,1,-1,0
1470246986276218,-5,16,30,7,-5,-4,-3,-4
1470246986288726,-3,-9,-46,-6,1,0,0,-1
1470246986288726,-6,-13,6,-3,1,1,-3,-3
1470246986297259,-1,5,17,4,4,3,0,1
1470246986297259,0,-8,-8,2,-5,-5,-1,0
1470246986312274,4,12,6,0,-2,-1,-1,-1
1470246986312274,-2,7,-3,-1,-8,-6,-1,1
1470246986313749,-2,-8,-2,-8,-14,-4,0,-1
1470246986313749,1,7,-5,2,36,15,-1,0
1470246986334782,0,-5,5,2,-4,-5,-1,-2
1470246986334782,-2,-5,-19,1,-6,-2,1,-2
1470246986336269,-1,7,23,2,5,-1,-1,1
1470246986336269,1,2,-7,0,-19,-6,0,-2
1470246986348280,-4,-11,-10,-6,4,0,-2,-3
1470246986348280,-1,0,-2,3,5,4,-2,-1
1470246986357289,1,2,-11,2,-1,-1,-2,-1
1470246986357289,-4,-3,-3,1,-8,-2,0,-3
1470246986372333,1,1,21,2,2,1,-1,0
1470246986372333,1,-1,-13,-3,0,1,-1,0
1470246986373805,-1,4,-4,0,3,1,0,-1
1470246986373805,0,-3,7,1,-3,-2,-3,-1
1470246986394377,1,6,12,-2,-6,-3,-1,-2
1470246986394377,0,-1,-2,-5,-2,-1,-1,-1
1470246986394846,-1,-2,3,-4,3,-1,-2,-2
1470246986394846,-1,-1,-19,0,-1,1,-1,-1
1470246986416863,0,3,9,3,0,1,0,-2
1470246986416863,-3,-4,-11,0,0,-4,-3,-1
1470246986417344,0,3,-13,-4,4,3,0,-2
1470246986417344,-2,-3,10,-7,-35,-17,-2,-2
1470246986431952,-1,-6,-5,-1,18,10,0,-1
1470246986431952,-3,1,6,-7,-8,0,-3,-2
1470246986432366,1,1,-3,2,8,0,-1,-1
1470246986432366,-3,-4,-11,-3,-7,-2,-1,0
1470246986454375,-1,3,4,5,-4,0,0,-1
1470246986454375,0,-2,-9,-7,-2,1,1,1
1470246986454877,1,-2,-2,-1,-6,-3,0,-2
1470246986454877,0,2,4,-2,7,2,-4,-1
1470246986476395,-3,-2,2,1,2,-1,-1,1
1470246986476395,-1,-3,-6,2,0,-3,1,-1
1470246986477396,-3,-3,7,0,-2,-3,-2,-3
1470246986477396,1,0,9,6,0,1,-1,-1
1470246986491910,-1,-3,-5,-4,-2,-4,0,-1
1470246986491910,0,0,2,-1,-3,-1,-1,0
1470246986492409,-2,-3,-8,-4,-1,-2,-1,-3
1470246986492409,-2,0,7,1,4,-1,1,-1
1470246986514429,0,-1,-5,-2,-4,-1,-3,-1
1470246986514429,0,0,1,0,-1,-2,0,0
1470246986514931,-1,0,1,2,-4,-1,-1,-1
1470246986514931,-1,-4,-5,-3,3,-1,-1,-2
1470246986536478,-5,-3,-6,-11,-4,-2,-1,-2
1470246986536478,-1,0,8,7,-26,-7,-1,0
1470246986537450,-1,-1,-7,-8,20,6,-1,-1
1470246986537450,0,2,2,0,-7,-2,-1,-1
1470246986551466,-2,-6,-15,-8,-3,-2,-3,-2
1470246986551466,0,0,18,5,3,1,-1,-1
1470246986552464,-3,-1,-4,-3,-4,-3,-1,-2
1470246986552464,0,3,14,2,1,3,-1,-2
1470246986573983,-2,-6,-7,-3,-2,0,-1,-1
1470246986573983,2,1,10,2,6,2,0,1
1470246986574984,-2,0,13,5,-7,-5,0,-1
1470246986574984,-2,-2,-27,-11,6,0,-3,-2
1470246986596531,0,3,10,7,-2,-4,-1,1
1470246986596531,-2,-1,3,-1,4,1,3,-3
1470246986597504,0,-1,1,1,4,8,1,1
1470246986597504,-1,-2,1,2,-6,-3,0,-2
1470246986611550,0,0,2,-2,-3,-4,-3,-1
1470246986611550,0,-1,-10,-3,2,0,0,-2
1470246986612517,0,1,-3,-1,-5,-1,-2,1
1470246986612517,-6,-3,1,-1,0,0,1,-1
1470246986634092,-3,-2,4,-1,0,-1,-1,1
1470246986634092,1,0,-15,-3,4,3,-8,-1
1470246986635037,0,-4,-10,-6,-5,-8,3,-3
1470246986635037,2,1,9,1,-1,-8,-1,1
1470246986657557,0,0,2,2,-2,4,5,-5
1470246986657557,-4,-2,-10,1,0,-2,2,0
1470246986658073,-2,2,0,1,-1,-5,-11,-2
1470246986658073,-4,-8,-4,-2,0,4,12,-1
1470246986671598,-1,2,13,1,-1,-9,-19,-1
1470246986671598,1,-3,-17,-5,-2,-2,-5,-2
1470246986672571,-3,-3,4,0,1,3,2,-1
1470246986672571,0,0,0,-1,1,-2,1,-1
1470246986694134,2,-1,0,3,-2,3,2,-2
1470246986694134,-1,-1,7,-1,2,-2,0,-1
1470246986694597,0,1,-2,0,0,0,-1,0
1470246986694597,-2,1,3,-2,-4,0,-3,1
1470246986708603,-4,-2,1,-3,-2,1,-1,-2
1470246986708603,-1,-2,-3,-4,0,-5,-2,0
1470246986716612,-2,0,-3,0,-1,-1,0,-1
1470246986716612,3,2,4,-2,0,-5,-11,0
1470246986731667,-5,-1,-10,-1,0,8,13,1
1470246986731667,6,0,2,0,0,-3,-5,0
1470246986732172,-1,-2,-4,-2,-2,-1,2,-1
1470246986732172,1,0,-3,2,-1,0,1,-2
1470246986754168,-9,-2,-5,0,-2,-2,-4,-2
1470246986754168,0,-3,0,0,0,-1,-4,-2
1470246986754645,0,2,-1,-2,0,-2,5,3
1470246986754645,10,-7,-5,-2,-1,-2,-8,-1
1470246986777165,-18,-2,-1,-2,1,-2,-9,3
1470246986777165,-4,-1,1,-2,-2,-6,3,-10
1470246986778166,0,-1,-2,-3,-2,6,-4,1
1470246986778166,-9,-1,0,0,-1,-3,-6,-4
1470246986791678,3,0,-5,-2,-1,-2,1,0
1470246986791678,2,0,0,1,0,3,-1,2
1470246986792680,-2,-2,-3,-1,-4,-8,-11,-3
1470246986792680,-2,1,-2,0,-2,5,15,-1
1470246986814216,11,-1,-1,-2,1,-2,-2,6
1470246986814216,-11,-3,-3,-1,1,1,4,-17
1470246986814698,0,-4,-1,-1,-2,-7,-1,-8
1470246986814698,-1,-2,0,-1,-1,1,-5,2
1470246986828711,4,-1,-3,0,-1,-9,-1,-8
1470246986828711,1,-2,-1,-2,-3,4,-1,5
1470246986836736,-1,-2,-1,1,1,2,8,0
1470246986836736,-5,-1,0,-1,-3,-5,-5,-2
1470246986851762,4,1,-2,-1,-1,-4,-1,1
1470246986851762,-4,-1,-1,-1,-2,0,1,1
1470246986852232,2,-1,0,1,0,1,-1,-3
1470246986852232,0,2,-3,-1,-1,0,1,5
1470246986874296,5,-1,1,-1,-1,-5,-4,2
1470246986874296,-7,-1,0,-1,0,3,4,1
1470246986874754,2,2,0,1,0,2,3,7
1470246986874754,2,1,-2,-1,-3,-1,0,-1
1470246986888783,4,-7,-5,-2,-2,-4,-12,-18
1470246986888783,4,4,2,1,5,3,-9,2
1470246986896773,-6,-1,-1,-1,-2,-9,1,-2
1470246986896773,-8,-1,0,0,2,13,5,12
1470246986911790,1,1,0,-2,-6,-8,11,-6
1470246986911790,8,-2,-4,-4,-4,0,-16,4
1470246986912289,-1,0,0,1,3,-3,0,-3
1470246986912289,7,1,0,-3,-1,-4,-3,1
1470246986942313,-5,1,1,0,1,4,3,5
1470246986942313,-1,-2,0,-2,-1,0,18,-1
1470246986943314,0,-1,-2,-1,-2,0,-17,6
1470246986943314,-8,-4,-3,0,-3,-6,-8,-12
1470246986948836,-1,0,-1,-1,0,4,6,9
1470246986948836,-6,-1,-1,-1,-2,-6,-4,-14
1470246986956861,3,1,-1,-1,-2,6,2,-2
1470246986956861,-2,0,-1,-2,1,-1,3,4
1470246986971841,-3,-2,2,-1,-1,3,-3,-2
1470246986971841,3,-4,0,-1,-2,-7,-5,7
1470246986972340,-1,-2,-1,-2,-2,6,-1,-5
1470246986972340,6,0,-1,1,-1,-5,1,-4
1470246986994360,-18,-1,-2,0,-1,-1,2,-2
1470246986994360,8,-1,-1,0,-1,-3,-3,1
1470246986994860,-11,-1,-2,-3,0,-2,0,2
1470246986994860,2,-4,0,-2,-1,4,-2,-9
1470246987008874,8,1,0,0,-1,-2,-24,0
1470246987008874,-8,-1,-2,-2,-2,-2,-1,-2
1470246987016879,-1,0,-1,-2,0,1,11,0
1470246987016879,1,3,1,0,0,2,-16,1
1470246987031893,0,0,-1,-1,0,-3,8,-2
1470246987031893,-4,2,-1,0,0,-2,1,-3
1470246987032396,0,-1,-1,-2,-1,1,-14,-3
1470246987032396,-2,-1,0,1,0,-3,8,9
1470246987062434,1,-2,-2,-3,-2,3,3,-5
1470246987062434,6,1,-1,-2,-1,-5,-2,3
1470246987062924,-1,-4,-1,-2,-3,-2,3,-11
1470246987062924,-9,-1,-2,0,1,2,-1,-3
1470246987068463,0,-1,-1,0,-1,-2,-4,-2
1470246987068463,-3,-1,2,-1,-1,2,6,2
1470246987076934,4,0,-2,0,-1,-2,0,4
1470246987076934,-4,-1,-1,-2,-3,-6,-4,-22
1470246987091950,4,-6,-2,-3,-1,5,-9,4
1470246987091950,-24,-3,-1,0,-2,-4,-11,-4
1470246987092448,1,1,1,-1,-1,-3,3,1
1470246987092448,6,3,-2,-1,0,-2,0,8
1470246987113996,-4,-1,-1,-1,-4,-7,-5,-2
1470246987113996,-1,-3,0,-1,0,4,0,-9
1470246987114968,1,-1,0,-1,-2,0,1,1
1470246987114968,-6,-1,0,0,-2,-1,-1,-2
1470246987137489,7,-2,-1,-3,-2,-3,0,-7
1470246987137489,3,-1,-3,-2,-1,9,9,6
1470246987138036,1,-3,-1,-2,-1,-9,-12,10
1470246987138036,-4,-2,-1,-1,0,-1,3,-16
1470246987152001,-3,1,0,1,1,3,6,5
1470246987152001,-3,1,-2,-1,-2,-2,1,-1
1470246987152503,-2,1,-2,-1,-2,-3,-6,-5
1470246987152503,3,-3,-1,-3,-2,-7,-21,7
1470246987174021,-4,-2,-2,-1,-2,-5,7,-5
1470246987174021,-1,-1,-2,-1,-2,3,18,0
1470246987175022,-5,-2,-3,-1,-4,-1,-27,4
1470246987175022,5,-3,-1,0,-1,-9,2,-8
1470246987197542,-15,0,0,-1,1,1,4,-2
1470246987197542,0,2,-1,-1,-2,-4,-10,6
1470246987198043,-3,-3,-3,-1,-2,-2,24,-8
1470246987198043,1,0,-1,-1,1,5,-14,13
1470246987211587,2,-1,1,-2,0,1,0,-4
1470246987211587,-1,-2,0,-1,-1,-4,-7,-4
1470246987212556,-6,0,-1,-1,-1,4,14,-2
1470246987212556,2,-1,0,-1,-2,-1,-10,2
1470246987234588,1,-1,-1,1,-1,2,12,6
1470246987234588,0,-1,-1,0,-1,-2,-13,-4
1470246987235075,4,-1,0,-3,0,-1,1,-3
1470246987235075,-4,1,0,-1,-2,1,4,0
1470246987257096,0,-1,-4,-2,-2,-1,19,1
1470246987257096,-1,-1,-2,-4,-1,-7,-27,-4
1470246987258097,2,1,2,2,1,4,25,1
1470246987258097,-2,-2,-4,-3,-5,6,-32,-6
1470246987271639,3,1,1,0,-1,1,29,5
1470246987271639,-2,-2,-1,0,0,-3,-6,-4
1470246987272610,0,-3,-1,-2,-5,-7,-10,0
1470246987272610,-4,-3,-1,-1,-2,-1,-1,5
1470246987294184,2,0,-1,-1,-1,1,-12,-2
1470246987294184,1,-1,-1,0,-2,3,12,-1
1470246987294634,-3,-3,0,-1,-1,-5,-6,-5
1470246987294634,-3,-3,-1,-2,-3,0,17,-1
1470246987317713,-3,-2,-4,-2,-3,-5,-20,-2
1470246987317713,10,-1,-1,0,0,-2,12,1
1470246987318151,0,1,-2,-2,-1,0,-8,0
1470246987318151,2,-2,1,-1,1,-5,2,-2
1470246987331663,-7,4,1,-1,-2,3,-3,-4
1470246987331663,-3,-1,0,0,0,-1,1,4
1470246987332166,3,-1,-6,-2,-2,-2,2,-11
1470246987332166,-3,2,1,-1,0,2,1,8
1470246987354182,8,-10,-2,0,0,-4,2,2
1470246987354182,2,-2,0,-2,-3,1,9,-4
1470246987355184,-5,0,1,1,1,3,-27,1
1470246987355184,-9,-2,-1,-2,0,-3,22,-6
1470246987377246,1,2,-2,1,-1,-4,-12,0
1470246987377246,0,-3,-4,-2,-1,0,0,-3
1470246987378204,4,-2,-1,0,-2,2,0,-1
1470246987378204,3,4,1,-1,-2,1,9,-3
1470246987391718,-3,-9,-1,-1,0,-2,-8,5
1470246987391718,-4,-1,-1,-1,-2,0,-7,-1
1470246987392219,-2,2,1,-1,1,-4,4,3
1470246987392219,-5,-3,-4,-3,-3,-2,-1,-11
1470246987414238,0,6,1,-1,-1,-4,-12,11
1470246987414238,1,-11,-3,0,0,1,12,-5
1470246987414737,-6,0,1,1,-1,-4,-13,-3
1470246987414737,1,-2,0,-1,-1,4,11,2
1470246987437300,-1,1,-1,0,0,-2,8,-11
1470246987437300,0,1,-2,-1,-1,-7,-29,3
1470246987438259,-7,-3,-1,-2,-1,-2,6,-1
1470246987438259,1,1,0,1,0,6,-2,7
1470246987451775,8,0,0,0,-1,-3,1,-4
1470246987451775,-6,1,0,-1,-2,-2,1,-8
1470246987452277,0,-3,-1,-3,-1,-4,1,5
1470246987452277,0,-5,-4,-1,0,-2,-5,-3
1470246987474291,-3,4,1,-2,0,7,6,-1
1470246987474291,4,5,-2,1,2,-9,2,-4
1470246987474791,-4,0,-1,-1,-2,2,-16,0
1470246987474791,1,0,-1,0,2,8,25,4
1470246987497340,3,-2,1,-3,-2,-6,-18,-9
1470246987497340,-13,2,2,-1,-1,3,14,8
1470246987498312,1,-3,-1,-1,-1,0,3,-3
1470246987498312,0,1,1,-1,-1,-3,4,-3
1470246987511823,4,-5,-4,0,-2,-2,-12,6
1470246987511823,2,3,0,-3,-2,-5,5,-6
1470246987512325,4,0,-1,-1,0,7,-13,4
1470246987512325,1,-3,-1,-1,-1,-5,-6,-3
1470246987534345,-11,-3,-5,-4,-3,-6,3,-7
1470246987534345,3,2,1,-1,-1,5,2,6
1470246987534845,-4,-10,0,-1,-2,1,6,-2
1470246987534845,-1,-3,-2,-1,-2,-4,-11,-6
1470246987557368,-1,3,0,0,1,2,-5,-3
1470246987557368,-1,-1,0,-3,-2,-9,0,8
1470246987558366,2,0,1,-1,-1,-2,3,-4
1470246987558366,-2,-1,-3,0,0,-3,1,-5
1470246987571408,5,-1,-4,-1,-3,6,14,-2
1470246987571408,-3,-4,-3,-1,0,-12,-41,-3
1470246987572383,-2,-9,-2,-2,-3,-3,-1,7
1470246987572383,-3,-1,-1,-2,-1,4,9,2
1470246987594398,-2,3,2,-1,-1,2,-6,3
1470246987594398,-5,-5,-2,1,-3,-5,-10,-17
1470246987594899,2,1,-3,-2,-3,-3,6,-5
1470246987594899,-6,-1,-3,-2,-3,-9,-17,-15
1470246987618008,-1,-4,-3,0,-2,6,15,6
1470246987618008,5,0,-1,0,0,4,5,6
1470246987618435,-1,4,3,-1,2,5,19,-5
1470246987618435,-1,0,-3,-1,-2,-5,-21,3
1470246987632933,-4,-6,-3,-2,-1,-6,-7,-12
1470246987632933,-3,-13,-6,-3,0,-3,-2,-7
1470246987633434,-1,7,2,0,-2,1,14,3
1470246987633434,2,-2,1,-3,0,1,-11,-1
1470246987654452,1,-2,-1,0,-3,-2,-4,-2
1470246987654452,-6,0,-1,0,0,1,7,5
1470246987655453,-2,0,-3,1,0,7,8,-4
1470246987655453,10,-2,0,0,0,0,15,-2
1470246987677473,-12,-1,-2,-1,1,-4,-11,-1
1470246987677473,7,5,3,0,-3,-12,-14,0
1470246987677973,-7,-1,-1,-2,-1,13,-10,9
1470246987677973,0,-3,-3,-1,-1,-12,-4,10
1470246987691493,1,0,0,0,1,2,1,4
1470246987691493,-4,4,-1,-2,-2,0,7,0
1470246987699493,-2,-10,-2,-3,-2,-9,-1,0
1470246987699493,-1,1,-3,-4,-3,-2,-25,-12
1470246987722513,2,11,2,1,1,3,9,7
1470246987722513,-7,-10,-3,-2,-1,3,-8,-6
1470246987723014,2,0,-5,-3,-2,-5,16,-7
1470246987723014,-1,4,4,2,1,5,-3,2
1470246987737528,0,-6,-4,-2,-3,-10,5,1
1470246987737528,-3,5,-1,0,1,9,-8,0
1470246987738027,4,-2,-3,-1,-2,-5,2,-9
1470246987738027,3,-2,-1,-2,0,-3,5,16
1470246987751053,-10,-8,0,-1,0,-4,-13,-10
1470246987751053,4,4,0,-1,-2,4,15,6
1470246987759051,-4,-4,-1,1,-1,8,-4,-3
1470246987759051,10,5,1,1,-1,-2,9,0
1470246987774561,-8,0,-3,-2,-2,-11,-7,-6
1470246987774561,0,-1,2,-2,-2,2,-1,3
1470246987775062,3,7,-1,-1,-1,0,-9,-1
1470246987775062,-9,-6,-3,-1,-1,-3,21,-10
1470246987797124,10,0,0,-1,-1,4,-13,14
1470246987797124,-3,-1,-4,1,-1,-4,7,-9
1470246987798081,-4,-4,-2,-1,-2,-2,-19,0
1470246987798081,-7,-3,-1,-2,-3,0,9,-3
1470246987811093,-2,-2,-3,0,0,2,-11,-10
1470246987811093,4,0,-1,1,-1,-5,-12,1
1470246987819118,-3,3,-1,-3,-2,-11,10,7
1470246987819118,-5,-4,0,-1,1,7,1,2
1470246987834159,-3,0,-5,1,-1,-11,-5,-5
1470246987834159,5,-3,-1,-2,1,11,13,4
1470246987835114,-3,-4,-2,-2,-2,-14,-12,-17
1470246987835114,2,2,1,-1,0,0,-4,12
1470246987857637,-3,7,1,-3,-3,-3,10,-5
1470246987857637,-5,-17,-5,-3,-2,8,12,-2
1470246987858137,-4,-3,-3,1,1,-2,-15,-2
1470246987858137,6,3,0,-1,-2,-4,2,-1
1470246987871147,-9,-4,0,-1,-1,0,-9,-4
1470246987871147,1,0,-2,-2,-2,-3,5,-3
1470246987895669,2,10,1,-1,0,1,5,8
1470246987895669,-1,-15,-3,0,0,-2,-15,-6
1470246987897171,13,1,2,-1,0,3,17,1
1470246987897171,-12,1,0,1,-2,-5,-6,-1
1470246987897671,7,2,-1,0,-1,0,-1,1
1470246987897671,-9,4,-2,-1,-1,-3,-16,8
1470246987917689,6,-7,-3,-4,-2,8,5,-13
1470246987917689,-2,8,5,1,1,-2,2,2
1470246987918191,-1,-5,-5,-1,-1,1,-5,5
1470246987918191,0,-3,-1,-2,-1,-7,13,5
1470246987931245,-3,4,-1,0,-2,8,2,5
1470246987931245,2,-8,-2,-2,-1,-6,-18,-5
1470246987939237,-2,3,1,-1,-1,1,11,-1
1470246987939237,-2,-3,-3,-1,-3,-3,-24,-6
1470246987954250,4,0,-3,2,0,5,11,17
1470246987954250,0,1,0,-1,-1,-4,-14,-4
1470246987954726,1,-7,-2,-1,-3,0,1,-11
1470246987954726,-6,0,-2,-2,-4,-8,0,-5
1470246987977268,3,-2,0,-1,0,-2,-11,-5
1470246987977268,-7,-7,-3,2,-1,-14,-8,3
1470246987978244,11,-2,-1,-2,-3,9,1,7
1470246987978244,-3,7,1,0,-2,-6,10,-4
1470246987991256,-6,-1,2,-1,-2,-4,-14,-7
1470246987991256,11,2,0,-2,-3,4,15,1
1470246987999304,-17,-1,-2,0,1,-5,-15,-9
1470246987999304,3,0,0,-1,0,0,19,-4
1470246988014366,-8,-5,-2,-1,-2,0,-20,7
1470246988014366,-3,-2,1,-3,-3,-5,-4,-7
1470246988014778,3,-3,-1,-1,0,4,8,1
1470246988014778,0,0,-1,0,0,6,-19,-1
1470246988037346,-3,-1,-1,-2,0,-4,11,-5
1470246988037346,-4,2,-2,1,0,4,6,-5
1470246988038297,4,-2,-1,0,-1,-2,8,0
1470246988038297,-8,1,-2,-2,-3,0,-1,-1
1470246988059817,2,-4,-3,-3,-2,0,9,-4
1470246988059817,3,0,-2,-2,-1,-6,-25,-4
1470246988060345,-2,1,-2,1,-1,-4,-3,-1
1470246988060345,-9,-4,-1,-1,-1,4,4,-6
1470246988074331,-3,1,0,-1,-2,-6,-4,0
1470246988074331,9,4,-1,0,-2,8,29,8
1470246988074839,-17,-5,-2,-1,-2,-10,-31,-10
1470246988074839,4,-3,-5,0,-2,-3,-17,-7
1470246988097375,-2,1,0,-1,-1,1,2,1
1470246988097375,5,-1,1,1,1,1,9,-3
1470246988098351,5,5,-1,-1,-1,4,-7,6
1470246988098351,-1,-5,0,-1,0,-1,10,1
1470246988119885,-3,3,2,2,2,-1,1,-12
1470246988119885,-4,1,0,-1,-1,-2,7,4
1470246988120371,4,-3,-1,-1,0,-1,-4,-1
1470246988120371,-1,0,-2,-1,-1,1,8,-1
1470246988134383,5,-1,0,0,-3,-1,-7,8
1470246988134383,-3,-2,-3,-1,-2,2,3,-4
1470246988134885,-6,-1,-1,-1,0,-1,11,-1
1470246988134885,1,2,-1,-1,-2,-7,-4,2
1470246988157404,0,-1,-2,-1,-1,-14,0,-2
1470246988157404,0,-2,-3,-1,-3,12,1,-8
1470246988158405,-3,-2,1,0,-1,-2,3,-1
1470246988158405,-1,0,-1,-1,1,5,6,1
1470246988179946,-1,-4,-2,-1,-2,-2,-9,-4
1470246988179946,2,5,0,-1,-2,-5,9,9
1470246988180925,-5,-10,-3,0,0,-6,-5,-12
1470246988180925,3,1,0,-4,-2,5,-6,-1
1470246988194438,-4,-1,-2,-1,0,1,0,2
1470246988194438,-3,-2,-1,-3,0,3,-9,4
1470246988194941,-1,0,1,-2,-3,-4,8,4
1470246988194941,-1,-2,-1,1,0,1,-3,-6
1470246988217507,4,2,-2,-1,-2,0,6,-1
1470246988217507,-7,-7,0,0,1,-6,-20,5
1470246988217958,9,1,-4,-3,-1,5,11,1
1470246988217958,-14,0,2,0,1,-5,-12,-9
1470246988239979,1,0,0,-2,-3,-1,-2,-1
1470246988239979,2,2,1,0,-1,1,10,10
1470246988240480,-2,1,0,0,-1,-4,-16,-4
1470246988240480,3,-2,-4,0,-1,0,8,2
1470246988254572,-4,-2,-1,-2,-1,1,11,-1
1470246988254572,-4,-4,-2,-2,-1,-4,-19,0
1470246988254993,-8,2,0,-3,-2,-1,4,-1
1470246988254993,14,1,0,-1,-2,3,2,1
1470246988277512,-15,-6,-2,-3,0,-3,-9,-7
1470246988277512,-1,-3,-5,-1,-2,-4,2,-1
1470246988278012,2,1,1,-1,-1,2,19,2
1470246988278012,-3,-2,-1,0,-1,-2,-19,-3
1470246988300032,11,1,-1,2,0,0,4,1
1470246988300032,-7,1,0,-1,1,-2,1,12
1470246988300534,-4,-6,-2,-2,-3,0,5,-13
1470246988300534,4,11,2,-1,-1,3,7,2
1470246988314046,-4,-15,-7,0,-1,-6,0,4
1470246988314046,-4,-2,0,2,-1,-7,-12,-16
1470246988315046,-3,3,0,0,-2,-3,-21,-4
1470246988315046,-2,-7,-3,-1,-1,-1,5,6
1470246988337065,1,3,2,-1,-1,-1,-14,-3
1470246988337065,-1,3,-2,-4,-1,5,24,4
1470246988338067,1,-4,-2,-1,-2,-10,-18,-3
1470246988338067,-2,0,-2,-2,-3,6,16,0
1470246988360087,4,4,2,-1,-2,-4,-28,0
1470246988360087,0,-6,-4,-3,-1,-7,10,-1
1470246988360587,3,0,0,-2,2,9,0,4
1470246988360587,1,-5,-2,-1,-1,-13,-11,4
1470246988374099,0,0,-3,-2,-2,7,31,3
1470246988374099,-3,0,1,1,-4,2,-18,-14
1470246988375099,-4,0,-3,-2,0,-6,0,8
1470246988375099,0,-2,0,-1,-1,3,1,-3
1470246988397704,-1,-2,-1,-1,-4,-11,7,2
1470246988397704,1,3,1,-1,-1,4,-29,-6
1470246988398122,0,-4,-1,0,0,-2,19,-2
1470246988398122,-7,-6,-2,-1,-1,0,-6,-5
1470246988419642,-4,1,0,-2,-2,1,6,-6
1470246988419642,2,1,0,0,0,5,-1,4
1470246988420641,1,2,0,0,-3,-6,7,-3
1470246988420641,-4,-3,0,0,-2,-1,-6,-10
1470246988434208,0,-2,1,-1,0,0,2,1
1470246988434208,2,-2,-2,-1,-2,-6,3,-2
1470246988434693,-4,2,-1,-1,-1,10,-1,-5
1470246988434693,-1,1,-2,0,0,-11,1,4
1470246988457196,-3,-2,-5,-2,-1,2,-8,-5
1470246988457196,7,-3,0,2,0,5,1,-3
1470246988458178,-10,8,1,0,-1,-7,-6,6
1470246988458178,4,0,0,-2,-2,1,4,-2
1470246988479738,-4,1,1,1,-1,-2,-6,5
1470246988479738,-3,-4,-2,-3,0,2,14,-3
1470246988480694,2,-6,-2,-2,-1,-1,-18,0
1470246988480694,-4,4,1,0,2,3,11,-1
1470246988494206,9,-1,0,0,-1,-7,-25,2
1470246988494206,-21,1,-2,-1,-1,-4,3,-7
1470246988495209,7,-2,-1,-1,-4,2,4,8
1470246988495209,-5,-2,-2,-1,-2,-1,11,1
1470246988517242,1,0,-1,-2,-1,0,-8,-7
1470246988517242,3,1,-1,-1,1,5,5,0
1470246988518229,1,0,-2,-2,0,-9,-5,-1
1470246988518229,-4,-1,2,-1,-2,-2,-12,-1
1470246988539747,2,-4,-5,-3,0,2,12,1
1470246988539747,-2,3,-2,0,0,-1,7,2
1470246988540749,-11,-9,0,0,-1,-2,-21,-7
1470246988540749,6,8,-2,-2,-1,1,9,0
1470246988554265,-6,1,1,1,-1,-1,-8,-1
1470246988554265,2,-3,-2,-1,-1,-1,6,5
1470246988554766,3,-2,-2,0,1,-1,15,3
1470246988554766,-3,-2,-2,0,1,-6,-15,-3
1470246988577286,-10,4,1,-3,-3,5,6,0
1470246988577286,7,-2,1,0,-2,-8,-12,-6
1470246988577781,-8,1,1,-1,-1,0,5,-1
1470246988577781,-1,-15,-2,-2,-3,0,-5,-10
1470246988599829,-1,2,-1,-1,-1,7,10,0
1470246988599829,3,-3,-2,-1,-1,-7,-5,-1
1470246988600802,3,2,-1,-2,1,-1,0,2
1470246988600802,-3,2,0,-2,-3,3,3,4
1470246988614368,-1,-4,-2,0,0,4,1,-2
1470246988614368,-6,-2,-2,0,-2,-6,-4,-8
1470246988614860,5,-3,-5,-2,-2,-3,-3,-3
1470246988614860,0,-4,1,-1,1,2,3,3
1470246988637399,-6,3,-3,-3,-2,-4,7,-9
1470246988637399,1,5,1,-3,0,4,-7,-2
1470246988638335,-2,-1,2,0,-1,-2,-11,2
1470246988638335,3,-2,0,1,1,-3,-4,1
1470246988659897,1,-2,0,-2,-1,-1,11,-2
1470246988659897,-8,0,-1,-1,-2,3,1,-5
1470246988660358,5,-2,0,-2,-2,-3,-10,0
1470246988660358,5,-1,-3,-3,-2,1,-1,4
1470246988673869,-9,-1,1,-1,1,3,-11,11
1470246988673869,-3,-2,-2,-1,1,-6,12,-9
1470246988681874,-8,-10,-2,-2,0,3,1,-3
1470246988681874,1,2,-2,-2,-1,-6,4,-2
1470246988697439,6,1,-2,0,-1,7,-10,-2
1470246988697439,-4,-2,-1,-4,-1,0,-11,3
1470246988697889,5,0,-1,0,-1,-1,9,5
1470246988697889,-4,2,-1,0,-2,1,3,0
1470246988727416,-3,-2,0,1,0,-3,11,-2
1470246988727416,2,-2,2,0,-1,2,-5,-7
1470246988727917,-2,0,-2,0,-1,3,-3,-6
1470246988727917,2,4,2,0,-2,-3,6,2
1470246988733427,-9,-4,3,2,-1,-1,2,-8
1470246988733427,8,-2,-3,-3,0,-3,-2,7
1470246988741929,1,0,0,-1,-3,-3,0,-2
1470246988741929,-7,-1,0,-1,0,0,-6,-13
1470246988757442,2,-3,-3,-3,0,-6,-9,3
1470246988757442,-3,-2,-2,-1,-2,0,-5,-4
1470246988757943,-5,3,0,-1,1,2,12,0
1470246988757943,0,-9,-2,-4,-1,-2,-12,1
1470246988779963,0,0,2,-2,-4,-2,-1,0
1470246988779963,-3,-2,-3,1,0,3,8,2
1470246988780463,1,1,0,0,-2,1,2,-1
1470246988780463,-4,-3,-6,-2,-4,-5,-12,-1
1470246988793977,6,1,2,2,0,-1,11,2
1470246988793977,2,3,-4,-2,-3,-4,-4,0
1470246988801482,-5,-10,-3,-2,-2,-5,-4,-7
1470246988801482,-5,-1,-2,0,-2,3,2,7
1470246988817552,1,-3,-3,0,1,-2,3,-7
1470246988817552,-4,-1,1,-3,-1,-5,-16,1
1470246988817999,2,1,12,0,1,0,-2,0
1470246988817999,-9,3,-25,-7,-1,-2,1,-2
1470246988840017,2,-12,5,-1,-2,-2,-3,1
1470246988840017,1,-3,-15,-5,-3,-3,5,-1
1470246988841019,0,4,18,3,-1,-2,-5,2
1470246988841019,-2,-3,12,7,-2,0,-2,-5
1470246988853585,-3,4,-5,-7,-1,-1,-4,-2
1470246988853585,0,-5,-3,-5,-2,-2,1,1
1470246988862067,-3,-2,-8,-5,-2,0,-2,-2
1470246988862067,2,1,16,3,-1,-2,3,-1
1470246988877551,1,-1,-2,4,-1,-4,-7,-4
1470246988877551,0,0,-3,4,0,0,-3,-1
1470246988878051,0,4,-13,-5,2,2,3,1
1470246988878051,-3,-6,10,-17,-4,0,-1,-2
1470246988900159,-1,1,1,-3,-4,-1,-4,3
1470246988900159,1,2,5,-1,-1,-2,4,6
1470246988901574,-2,-2,-23,0,-1,0,1,-6
1470246988901574,1,1,-2,2,-2,-4,-7,-1
1470246988913597,-2,-2,14,4,0,-1,-3,-2
1470246988913597,1,-3,0,4,-2,0,10,2
1470246988922591,-6,-2,-4,-5,1,-4,-25,-3
1470246988922591,-2,-6,-11,-2,0,1,1,-2
1470246988937104,2,1,-8,-1,1,1,14,0
1470246988937104,-2,-2,-2,1,0,-1,-7,-7
1470246988939106,0,2,3,0,-3,0,7,2
1470246988939106,-3,2,0,-1,2,0,3,1
1470246988960125,-2,0,-6,0,-2,-1,-7,0
1470246988960125,3,0,3,-1,-1,2,7,1
1470246988961626,-6,-3,3,-3,-2,-4,-4,-1
1470246988961626,6,0,-1,1,-1,0,-1,0
1470246988973637,-6,-2,-5,-3,0,0,-2,-5
1470246988973637,-6,-5,-1,-2,0,-2,-6,-4
1470246988982645,-1,-4,2,2,-2,0,5,1
1470246988982645,9,4,-2,4,0,0,0,7
1470246989005183,-3,-4,-7,-3,0,-1,-6,-9
1470246989005183,-1,3,-4,-12,-1,-3,-1,3
1470246989006166,-2,-8,-10,-3,-29,-9,-1,-3
1470246989006166,-3,-1,5,2,28,12,0,-2
1470246989020205,-1,0,-7,5,-4,-3,-6,1
1470246989020205,-4,2,2,-1,0,-1,0,-3
1470246989021180,2,5,7,-3,0,0,2,0
1470246989021180,-1,0,-11,-3,-8,-6,-6,-1
1470246989042230,1,0,1,2,-1,-3,-1,2
1470246989042230,-3,0,2,-5,-5,-2,-1,0
1470246989043701,0,-1,4,8,10,5,1,1
1470246989043701,-2,-3,0,-1,-4,2,-2,-4
1470246989057229,-2,-3,-27,-8,3,-1,-2,0
1470246989057229,0,8,23,2,-6,-3,-1,0
1470246989058717,3,-8,9,-1,1,-2,-2,0
1470246989058717,-2,7,3,0,-2,-5,0,-3
1470246989080234,0,-3,15,2,-4,1,-2,1
1470246989080234,-2,-6,-36,-8,-2,-4,-5,-2
1470246989081734,0,8,11,2,5,4,1,-1
1470246989081734,-3,-11,-17,12,-4,-1,-1,-2
1470246989109767,-1,-3,3,-13,-3,-1,-1,2
1470246989109767,2,4,8,-1,12,4,0,-1
1470246989111261,-4,-11,-23,-10,6,2,-1,-3
1470246989111261,-2,-2,5,3,-7,-4,0,2
1470246989116858,2,13,6,16,5,-1,-1,3
1470246989116858,-3,-15,-2,-2,-9,-4,-2,-3
1470246989123274,2,6,-9,1,4,-1,2,1
1470246989123274,-1,-1,6,-6,1,2,-3,-4
1470246989139825,0,-4,-1,-6,-8,-5,0,0
1470246989139825,3,0,7,5,1,1,-2,0
1470246989141287,0,5,-1,1,-4,-3,-2,-2
1470246989141287,-7,-4,-3,-7,-7,-6,-2,1
1470246989162307,-3,-3,-3,-4,3,-4,-1,-3
1470246989162307,-2,-1,2,8,-1,5,0,-2
1470246989163808,3,2,6,-6,2,-1,0,-3
1470246989163808,0,-15,-8,-3,-2,-1,-1,1
1470246989176830,-3,1,-4,-3,-2,1,3,-5
1470246989176830,-1,-2,-2,4,-2,-6,-4,-2
1470246989183326,-1,-1,-4,0,-2,-1,-1,2
1470246989183326,-1,3,8,-4,1,0,-4,-2
1470246989199928,-2,-2,-9,2,-2,-2,1,1
1470246989199928,-2,-1,4,-3,-1,1,0,-8
1470246989201434,-1,1,-4,0,-2,-2,0,0
1470246989201434,-3,-12,-8,-6,-4,-3,0,-1
1470246989222495,1,-1,10,3,-5,-1,-3,-3
1470246989222495,-1,-4,-47,-8,21,4,0,1
1470246989223954,1,-1,12,5,-6,0,0,1
1470246989223954,4,14,-9,-7,0,-1,1,-3
1470246989236966,-12,-9,13,0,-1,-1,-2,-2
1470246989236966,1,0,0,-8,-9,-4,0,1
1470246989243524,-3,-13,-2,7,-2,-3,-3,-4
1470246989243524,3,7,3,-8,4,2,-1,2
1470246989259985,2,3,-1,-1,-4,-1,0,-2
1470246989259985,-4,-9,7,-3,-4,-2,-2,-1
1470246989261490,-4,4,-1,2,0,-1,-2,-3
1470246989261490,-2,3,4,11,-4,-2,0,-1
1470246989283006,2,0,-10,-8,4,-1,0,-2
1470246989283006,1,0,6,2,-3,1,-1,-3
1470246989284508,1,-2,-38,-10,-1,-2,0,-1
1470246989284508,-2,0,8,0,-2,-3,-1,-3
1470246989296535,-2,-3,10,10,1,-2,-1,0
1470246989296535,0,0,8,-3,-3,-1,0,4
1470246989303560,-3,2,5,-1,-5,-1,1,-3
1470246989303560,-1,4,-12,-2,0,-1,-1,0
1470246989320127,1,-3,-6,-4,3,2,-1,1
1470246989320127,-1,-15,-4,5,-7,-5,-1,-1
1470246989321543,0,-1,2,-12,-2,-2,-4,-1
1470246989321543,-3,-2,-1,0,3,2,0,0
1470246989342062,-4,0,4,-4,-4,-1,0,1
1470246989342062,-4,4,5,4,-2,-3,-1,-6
1470246989344062,1,2,10,2,0,-1,0,0
1470246989344062,4,-1,-21,0,-2,-3,-1,-1
1470246989356624,2,-3,-2,-3,0,0,-3,-3
1470246989356624,-2,2,-11,-1,1,1,0,2
1470246989363597,-6,0,7,0,1,1,0,1
1470246989363597,-2,-3,12,3,-2,-2,-3,-2
1470246989380093,3,4,-9,-3,-2,-3,-4,0
1470246989380093,1,2,1,-3,-1,0,0,0
1470246989381596,1,0,9,11,-2,0,0,0
1470246989381596,-4,1,-5,-10,1,0,-3,-3
1470246989402113,-3,-14,-4,-4,-3,1,-1,1
1470246989402113,1,5,11,0,2,0,0,0
1470246989404118,-3,-2,-7,6,2,-1,-2,-4
1470246989404118,-1,-8,-7,-7,-3,-3,-1,2
1470246989416126,2,4,14,-1,-3,-1,-1,-4
1470246989416126,2,13,1,-2,-2,-2,0,-1
1470246989425135,-4,-11,11,6,2,2,-1,0
1470246989425135,-3,-9,-22,-3,-5,-1,-2,-2
1470246989439673,-2,3,-3,-3,1,-2,-2,-2
1470246989439673,-1,-4,7,0,-3,-2,0,-1
1470246989441149,1,2,-5,-3,-1,-2,0,1
1470246989441149,-1,1,6,2,0,-1,-1,-2
1470246989462214,-2,-4,-1,4,1,-1,-1,-4
1470246989462214,-4,-1,6,-5,-4,-2,-2,0
1470246989464198,0,-2,-8,-3,1,0,0,-2
1470246989464198,1,0,-2,-4,-9,-1,1,2
1470246989476182,-1,0,-4,-3,8,3,-2,-3
1470246989476182,2,8,1,4,0,0,-5,-1
1470246989486223,-10,-14,1,1,-2,-3,2,3
1470246989486223,3,0,6,2,-3,-3,-3,-2
1470246989500201,-3,-3,-8,-9,-6,-2,-2,-4
1470246989500201,1,1,-6,0,-2,-1,0,3
1470246989501703,3,5,6,-2,0,-1,-2,-3
1470246989501703,-3,5,1,6,0,0,1,2
1470246989522274,1,-4,16,3,-2,-1,0,-1
1470246989522274,1,-8,-29,-5,0,-3,-2,-1
1470246989524224,-6,2,-5,-5,-4,0,-3,-1
1470246989524224,-7,-6,12,10,-2,-3,-2,-5
1470246989536240,3,5,-5,-12,0,-1,1,0
1470246989536240,-4,-2,17,1,2,0,1,-3
1470246989545242,5,1,2,6,1,0,0,0
1470246989545242,4,-1,-14,-2,2,0,1,2
1470246989559790,-6,-3,-1,-9,-4,-3,-3,-4
1470246989559790,0,-4,5,3,-3,-1,1,-2
1470246989561257,2,1,-13,-6,-3,-1,0,-1
1470246989561257,1,3,5,1,1,1,0,4
1470246989589838,0,-7,-13,-1,-4,-2,0,-3
1470246989589838,-3,0,2,1,-1,0,-1,-1
1470246989591786,2,2,4,-5,1,0,1,7
1470246989591786,-8,-3,6,-3,-1,-1,-2,-17
1470246989596288,-1,4,2,3,0,-1,-1,2
1470246989596288,0,-5,-16,-3,-2,-1,-3,-5
1470246989604797,-4,-3,9,-1,-3,0,-2,-12
1470246989604797,-1,2,1,7,-1,-1,1,16
1470246989619854,0,1,-5,-6,1,0,0,-5
1470246989619854,0,0,-1,1,-2,-1,-3,2
1470246989621311,-4,0,2,-4,-3,-2,-3,-7
1470246989621311,-1,-10,-22,-12,4,2,0,-2
1470246989642347,0,9,9,13,-3,-2,-2,4
1470246989642347,-1,3,2,-3,1,1,0,-2
1470246989643831,4,0,-6,-6,-5,-2,-1,6
1470246989643831,1,-2,14,-1,-1,-3,-4,-3
1470246989655884,-3,-1,-1,4,1,1,0,1
1470246989655884,-5,-5,-1,3,-3,-1,-1,-3
1470246989664850,2,4,-23,-11,0,0,-1,-1
1470246989664850,2,-2,5,-2,-2,-4,-1,-3
1470246989679896,1,-12,9,1,-2,2,0,-4
1470246989679896,-3,-1,-6,3,0,0,-1,-3
1470246989681398,-1,1,6,-5,0,0,-1,5
1470246989681398,0,-1,-7,-8,-2,0,0,-3
1470246989702439,-1,3,-4,-3,-1,-2,0,8
1470246989702439,-4,-4,-4,0,3,1,1,-5
1470246989703885,-3,-7,-15,-2,-4,-2,-4,-6
1470246989703885,-1,7,13,0,-2,0,-1,-2
1470246989715938,-3,-4,2,4,-1,-4,-4,2
1470246989715938,1,-5,2,5,0,-2,-2,-1
1470246989724905,0,0,4,1,1,-1,1,-3
1470246989724905,-2,0,7,4,-2,0,-2,-2
1470246989739417,0,3,2,3,-2,2,0,-3
1470246989739417,-2,-5,-9,-9,-5,-2,-2,2
1470246989745922,1,2,1,3,-1,-1,-2,-3
1470246989745922,-2,-2,-1,-8,-4,-3,-1,-1
1470246989762478,-5,0,-1,0,0,-1,-3,0
1470246989762478,0,-4,10,14,3,1,2,0
1470246989763940,-1,0,1,-9,3,0,-1,3
1470246989763940,1,-3,-4,-11,-4,-3,-2,-5
1470246989775949,0,10,-4,-1,-2,-2,-2,4
1470246989775949,-4,-10,-9,-5,-1,-2,0,-6
1470246989784958,0,-1,-6,4,-2,-3,-2,-2
1470246989784958,-1,-3,13,9,0,-1,0,-2
1470246989799544,-1,3,12,-5,8,0,-1,0
1470246989799544,1,0,-29,-13,-8,-1,-1,4
1470246989806004,-2,0,11,5,-2,-2,0,-1
1470246989806004,-1,0,4,-4,5,2,0,2
1470246989822491,0,-9,-14,-2,-5,-1,-1,-2
1470246989822491,0,4,10,-9,-4,-2,-4,-1
1470246989824993,-1,-3,9,-1,-1,0,0,0
1470246989824993,0,2,-2,6,-1,0,-1,1
1470246989836029,0,2,0,2,-1,-1,0,-4
1470246989836029,-2,-11,-13,-4,1,-1,-1,-1
1470246989845012,-3,-8,2,1,-7,-3,-2,-3
1470246989845012,0,-1,-1,-1,-1,-1,-2,-1
1470246989859052,-2,-9,-11,-7,4,2,-1,-5
1470246989859052,0,9,14,13,-3,-2,0,1
1470246989867536,-2,-7,-8,-21,-5,-2,-2,4
1470246989867536,-1,5,-8,-4,3,0,1,-14
1470246989882626,-6,-10,-14,1,1,0,1,1
1470246989882626,0,2,10,-6,-3,-1,1,2
1470246989884059,-1,0,19,11,1,-1,-2,-5
1470246989884059,0,-4,-18,-1,-5,-3,-1,2
1470246989896075,3,3,2,-1,-5,-3,-1,-2
1470246989896075,-2,-2,6,2,5,2,-1,0
1470246989905065,0,-1,-1,4,-1,0,0,2
1470246989905065,-3,0,-13,-6,-2,-2,-1,0
1470246989919121,1,-2,-1,2,-1,-2,-2,-2
1470246989919121,-1,-1,0,-7,-2,-3,-1,-2
1470246989926085,-2,2,1,2,-23,-10,-2,-2
1470246989926085,0,6,5,8,19,9,-1,1
1470246989942599,-3,-12,-12,-8,-7,0,1,0
1470246989942599,0,2,12,-2,-1,-1,0,4
1470246989944100,-1,3,-9,-4,-1,-1,-3,-12
1470246989944100,-3,-2,1,5,-6,-4,-3,2
1470246989965130,0,-10,0,-3,-6,-2,-2,1
1470246989965130,0,7,3,-6,0,3,-1,-2
1470246989966621,-2,0,2,9,17,5,0,1
1470246989966621,-1,-2,7,4,-5,0,-1,1
1470246989979188,-1,4,1,-1,1,-3,0,-3
1470246989979188,0,-4,0,-6,-4,-5,-1,1
1470246989986164,0,-1,-9,8,1,0,0,-2
1470246989986164,-4,-3,-5,-12,-3,-3,0,0
1470246990002157,0,-1,-5,-4,-2,-1,-1,-2
1470246990002157,-2,5,2,3,3,-3,-2,-4
1470246990004156,4,-6,-6,2,1,1,-2,2
1470246990004156,-5,0,-1,-2,1,0,-2,-2
1470246990025175,-4,-4,0,-6,1,0,0,0
1470246990025175,-2,-4,-4,1,-1,-1,-2,-4
1470246990026675,-4,-5,11,-4,1,-1,0,-5
1470246990026675,3,-2,-10,-2,-7,-3,0,3
1470246990039217,0,3,-6,10,-1,-1,-2,4
1470246990039217,-5,-3,-9,-1,3,1,0,-7
1470246990046191,3,1,2,2,-2,-1,0,-3
1470246990046191,-1,-5,5,-4,-5,-4,-4,-1
1470246990062208,0,3,-4,-2,1,1,1,2
1470246990062208,-1,-5,-3,4,-4,-2,-3,0
1470246990064209,-3,2,-9,-10,1,2,0,-1
1470246990064209,-1,-4,0,1,2,1,-1,-1
1470246990084742,-2,2,4,12,3,-1,-1,-4
1470246990084742,1,-2,-9,-12,0,-2,0,3
1470246990086229,0,0,-4,-12,-11,-7,-1,-1
1470246990086229,-2,0,0,4,22,9,-1,-1
1470246990098738,1,-3,-2,-4,-4,-1,-1,0
1470246990098738,0,3,12,-1,-2,-2,0,1
1470246990114754,-4,-2,-5,1,0,1,-1,-1
1470246990114754,0,-3,0,-2,-9,-6,-1,-3
1470246990122275,-1,1,0,-7,-3,-2,-3,-3
1470246990122275,0,-1,-1,1,1,1,-1,0
1470246990124262,0,-1,-7,1,-1,0,0,-1
1470246990124262,1,-2,-2,-1,-3,-1,2,-1
1470246990144781,0,-3,11,-4,0,-1,-2,-5
1470246990144781,0,-1,-8,-1,-6,-4,-1,0
1470246990146282,0,0,0,-2,2,2,-3,4
1470246990146282,-1,-2,-4,-3,-6,-4,0,-1
1470246990158793,-2,0,-3,-12,-2,1,0,0
1470246990158793,0,-1,1,6,1,1,-1,-2
1470246990167301,0,0,0,10,3,-1,0,2
1470246990167301,-1,-3,0,-6,1,-1,-1,0
1470246990182316,-1,3,-2,1,-4,-1,-1,-1
1470246990182316,0,-1,2,-2,0,-1,-1,1
1470246990183819,-3,-3,-16,-2,3,0,-3,-2
1470246990183819,-2,2,10,3,-14,-9,0,-2
1470246990204853,0,0,-13,-1,17,10,-1,-2
1470246990204853,-1,-2,1,3,5,-1,1,0
1470246990206836,-1,-1,1,5,-2,-2,1,1
1470246990206836,0,0,3,-8,-6,-2,-2,-4
1470246990218376,-1,-2,0,-5,-3,-3,0,0
1470246990218376,-3,-2,2,2,0,2,-1,-1
1470246990227855,-2,0,0,1,2,0,-2,-3
1470246990227855,-1,-1,-1,-7,-1,-5,-2,-2
1470246990242399,-2,1,2,3,-5,-2,0,-2
1470246990242399,-1,-1,-2,-3,-3,1,-2,-2
1470246990243870,-2,-2,-2,-7,-7,-3,-2,-1
1470246990243870,-1,-2,-3,8,-3,-1,-2,-1
1470246990264915,0,-1,1,0,1,-1,1,1
1470246990264915,-1,0,-2,6,4,1,1,-3
1470246990266390,-2,1,-2,-12,-2,1,1,-1
1470246990266390,-3,-2,-2,5,1,1,-2,0
1470246990278400,1,-3,-5,-6,-9,-9,-2,-4
1470246990278400,-2,0,-2,-6,18,11,-1,1
1470246990287408,-1,-1,1,-3,-2,-3,0,-1
1470246990287408,-1,-2,-1,-4,-5,-2,-3,0
1470246990302422,-1,0,1,2,-6,0,2,0
1470246990302422,2,0,-1,2,-1,-3,-1,0
1470246990303924,-1,0,1,4,0,-1,-2,-2
1470246990303924,0,-2,-4,6,3,0,0,0
1470246990332465,-5,-4,-2,-8,-3,-5,-4,-1
1470246990332465,-3,-2,-1,-2,-8,-2,-1,-2
1470246990333955,0,-1,-2,-2,5,0,0,6
1470246990333955,-1,2,-1,1,-3,1,0,-7
1470246990338456,-1,-1,4,5,0,3,-2,-2
1470246990338456,-2,-2,-3,-6,-5,-4,2,0
1470246990347463,-2,-2,-1,5,-1,-1,-4,-1
1470246990347463,-2,-1,-2,3,4,2,2,0
1470246990362493,0,-1,-4,-4,17,8,0,0
1470246990362493,-3,-1,0,1,-6,-5,-2,-1
1470246990363979,1,-1,0,-3,-9,-3,0,-4
1470246990363979,1,-2,-2,-4,-1,-3,0,0
1470246990384998,0,2,1,7,-2,1,1,-2
1470246990384998,-2,-5,-2,1,-5,-2,-1,0
1470246990386530,-2,1,-2,-4,9,3,0,-1
1470246990386530,0,-3,-2,-7,-7,-3,-1,-1
1470246990398508,1,1,-3,-5,-4,-2,-2,1
1470246990398508,0,0,-2,-3,-2,0,-1,0
1470246990407517,-1,-3,1,-5,-8,-3,-1,-3
1470246990407517,-2,-1,-3,4,1,2,-1,-2
1470246990422622,2,0,0,3,-3,-3,-1,-2
1470246990422622,-2,1,1,-1,-3,-2,-4,-2
1470246990424031,-2,-1,0,3,2,-4,-1,-2
1470246990424031,-1,-2,-5,-9,2,3,0,1
1470246990445050,-2,-1,1,4,0,-7,-5,-2
1470246990445050,-1,-2,-5,-2,-3,-2,3,0
1470246990446567,-2,1,0,-2,-6,-1,-2,-3
1470246990446567,0,-1,-1,-2,-3,-1,-2,0
1470246990459063,-1,-1,-1,1,-6,-2,-2,-1
1470246990459063,3,2,1,-2,0,-3,-4,-3
1470246990467572,0,0,-4,3,-3,-2,1,-1
1470246990467572,-2,0,0,-3,0,1,1,-1
1470246990482647,-6,-3,0,-2,4,3,0,-1
1470246990482647,1,-1,2,4,-11,-6,-2,-2
1470246990484085,0,-1,-3,-1,0,1,-2,-2
1470246990484085,0,1,3,3,0,-1,-1,-3
1470246990505103,-1,-2,-4,-2,-7,-4,0,2
1470246990505103,-2,-2,-1,1,2,1,-2,-4
1470246990506606,-1,-1,-1,-3,5,3,3,0
1470246990506606,-1,1,-1,2,0,-1,-1,1
1470246990518641,-1,-1,-1,-2,-5,-4,0,-1
1470246990518641,-2,-1,-2,1,2,1,2,-1
1470246990528125,-1,-3,1,-5,0,0,-1,0
1470246990528125,0,-5,-4,-6,-19,-14,-1,-1
1470246990542637,1,-2,-6,-11,12,10,-1,-5
1470246990542637,0,0,7,21,13,1,0,1
1470246990544139,0,1,3,-6,6,3,3,0
1470246990544139,-6,-4,-2,-2,-2,-1,-3,-1
1470246990564657,0,0,1,-1,-7,-1,0,-1
1470246990564657,-1,1,-1,-5,-8,-3,-3,-2
1470246990566161,-3,-2,-3,3,-4,-3,-2,-2
1470246990566161,1,0,1,-2,-3,-1,-2,-2
1470246990578726,-1,-2,-3,-1,0,1,0,-1
1470246990578726,-1,-2,-1,-3,-1,1,2,0
1470246990587679,-3,0,-3,-4,-4,-4,-3,1
1470246990587679,-1,-1,-3,-2,3,2,0,-2
1470246990602727,-2,-1,-1,2,-4,-3,-1,0
1470246990602727,-1,0,-3,-2,2,-2,0,-3
1470246990604193,-3,-2,-1,-2,-6,-1,-1,0
1470246990604193,-1,-1,-5,-8,2,0,0,-1
1470246990624744,-1,-2,4,8,2,-2,-1,-1
1470246990624744,-1,-2,1,-4,1,-1,-2,1
1470246990631219,0,0,-6,-2,-1,1,0,-1
1470246990631219,-4,0,1,14,5,3,2,0
1470246990638756,-1,-4,-7,-13,-3,-2,0,-1
1470246990638756,-3,-1,-4,-14,-7,-4,-2,-1
1470246990647232,0,-1,0,9,0,-3,-2,-3
1470246990647232,3,1,-3,-5,0,1,-1,1
1470246990670318,-1,0,3,5,-2,-3,-3,-2
1470246990670318,-3,-2,-5,-1,-24,-10,-3,-1
1470246990671753,-1,-2,-2,1,13,6,0,-3
1470246990671753,-2,0,0,1,-3,-3,0,-2
1470246990684766,-1,0,3,3,-5,-2,-1,0
1470246990684766,0,0,-1,-5,-2,0,-2,-1
1470246990686768,1,-1,-3,-5,0,-2,-1,0
1470246990686768,-3,-2,0,1,-1,1,-1,-3
1470246990698850,-2,-1,-2,-1,-2,-3,1,-1
1470246990698850,-3,-3,-2,0,3,0,-2,0
1470246990707787,-2,0,1,-1,-6,-1,-1,-1
1470246990707787,1,-2,-5,-7,5,1,-2,-1
1470246990722315,0,1,0,7,-5,1,0,0
1470246990722315,-3,-2,-4,-3,6,2,1,-1
1470246990723801,1,-1,1,-2,-6,-5,-2,-1
1470246990723801,1,-1,-3,-4,0,-2,-2,2
1470246990744823,-3,0,-1,3,1,0,1,1
1470246990744823,-1,1,-2,-1,2,0,-3,-3
1470246990746323,-2,0,0,-1,-5,-2,-1,-1
1470246990746323,-1,-1,1,0,-5,-2,-1,-1
1470246990758831,-1,0,-1,0,-5,-4,-3,-3
1470246990758831,2,0,-3,-6,-7,1,1,0
1470246990767371,-2,-1,-3,-3,8,2,-2,-1
1470246990767371,-2,-1,-2,2,-6,-5,-1,-1
1470246990782354,-1,0,-2,-4,0,-1,-1,0
1470246990782354,-1,-3,3,4,-6,-3,0,0
1470246990783855,0,-2,-2,-5,-5,-1,-2,0
1470246990783855,0,-1,0,0,3,3,-1,0
1470246990804897,-1,-1,-5,-7,-3,-3,-2,-2
1470246990804897,-1,0,1,2,3,1,-1,-1
1470246990806382,-1,-2,-1,0,-2,-2,0,0
1470246990806382,-2,1,3,5,4,2,1,-1
1470246990818937,0,0,-1,0,-2,-2,-2,-1
1470246990818937,0,-2,-4,-2,4,1,-1,0
1470246990827895,-2,-2,-4,-2,2,-1,-1,0
1470246990827895,-3,0,0,-2,-7,-2,-2,-2
1470246990842407,-2,0,5,2,2,1,-1,-1
1470246990842407,2,-1,-5,-4,-1,-2,-1,0
1470246990843910,-2,-1,0,-8,-3,-2,0,-1
1470246990843910,0,-2,-1,1,-2,-3,-2,-1
1470246990864971,-1,-1,2,6,-1,1,0,0
1470246990864971,1,2,1,-3,5,1,0,0
1470246990866431,1,0,-1,3,-5,0,0,0
1470246990866431,-1,-1,-1,0,-13,-8,-1,-1
1470246990887489,0,-1,1,4,6,1,-1,1
1470246990887489,-2,-1,0,5,-2,-2,-2,-1
1470246990888995,-3,-3,-2,-3,-2,-1,-3,0
1470246990888995,0,-1,2,1,0,0,0,-3
1470246990902461,0,-2,0,-4,-3,-3,0,-2
1470246990902461,0,1,-3,-7,-2,1,-1,-1
1470246990903981,0,-1,0,4,0,-2,-2,-2
1470246990903981,0,0,-2,-3,2,2,0,-1
1470246990924987,-3,-1,-2,0,-1,0,0,-1
1470246990924987,-4,-3,0,-3,-2,-3,-1,-1
1470246990926483,-1,-1,-1,3,0,0,-1,-1
1470246990926483,0,0,-1,-2,4,3,0,-3
1470246990947501,0,0,-2,2,0,0,-3,1
1470246990947501,0,-1,-2,-1,-6,-2,-1,-1
1470246990949008,0,0,-5,-7,4,2,-1,-2
1470246990949008,-1,-2,0,-2,1,0,-2,2
1470246990962514,-2,-2,-3,-3,0,0,0,0
1470246990962514,0,-1,2,4,-8,-3,-3,-1
1470246990964018,-2,-2,0,5,20,7,-2,-1
1470246990964018,-2,-1,-1,1,1,-1,-1,-1
1470246990985120,-2,-1,-3,-3,-5,-3,-3,0
1470246990985120,-1,-2,-1,-4,-4,-2,-3,-1
1470246990986538,-1,0,0,-3,-11,-4,0,1
1470246990986538,0,-1,0,-1,0,2,-1,-2
1470246991007555,-1,-2,-1,0,3,2,0,-1
1470246991007555,-3,-1,0,1,3,1,-1,-2
1470246991009060,-1,-1,0,-3,-6,-3,0,-2
1470246991009060,-1,-1,-4,-1,0,-3,-1,0
1470246991021594,0,-1,0,-5,-10,-4,-1,-4
1470246991021594,-2,-1,-2,2,7,3,-1,-2
1470246991028575,-1,-3,-3,-1,-3,-2,1,0
1470246991028575,0,-1,0,-6,-3,-3,-1,1
1470246991052595,-1,0,1,4,1,-3,-1,-2
1470246991052595,-1,-1,-6,-8,-18,-10,-1,0
1470246991054097,0,-1,-1,0,12,5,-1,-2
1470246991054097,0,-2,0,5,-5,-3,-1,-2
1470246991067609,0,0,-4,-11,-2,-1,0,0
1470246991067609,-2,-1,2,9,1,-1,0,-2
1470246991069114,0,0,-5,-12,-7,-2,0,-3
1470246991069114,-1,-3,-1,-1,-1,1,-1,0
1470246991081647,-3,-3,0,-1,0,0,-2,-1
1470246991081647,-1,1,-1,-2,5,3,0,1
1470246991090129,0,-1,0,0,-4,-3,0,-1
1470246991090129,-2,1,-1,-1,5,3,-2,-1
1470246991105143,0,-1,-1,0,-2,-2,-1,-3
1470246991105143,0,-1,-1,-2,1,-1,-1,0
1470246991106669,-1,-2,2,2,-7,-4,-2,-1
1470246991106669,-2,-1,-4,-3,0,-1,-1,-1
1470246991127164,0,-1,3,3,-2,-1,0,1
1470246991127164,-1,-1,-2,-4,-3,-1,1,-1
1470246991129165,-1,-1,-3,-3,14,7,-1,-2
1470246991129165,-1,-1,2,10,-5,-5,0,-1
1470246991141679,-1,-1,-7,-9,0,-1,-2,-2
1470246991141679,-1,0,2,3,4,1,-1,-2
1470246991148733,-6,-2,2,0,-11,-5,-2,0
1470246991148733,-2,-4,-7,-6,2,2,-1,-2
1470246991172725,-1,-1,1,0,3,2,-2,0
1470246991172725,0,0,-1,-3,-4,-2,-1,-1
1470246991174205,1,-2,-1,1,-3,0,0,1
1470246991174205,-2,0,1,1,0,3,-1,-2
1470246991187259,-2,-1,-1,-6,-7,-6,0,0
1470246991187259,-1,-2,-2,-3,-2,-1,-2,-2
1470246991189218,0,0,-1,1,-3,-1,0,-3
1470246991189218,-1,-1,0,0,3,1,0,0
1470246991201789,-4,-3,-1,-1,-2,0,-2,-1
1470246991201789,0,0,-2,2,1,-1,-1,-1
1470246991208737,1,1,0,-1,-4,-3,0,-1
1470246991208737,0,-1,-1,-4,-19,-10,-2,-2
1470246991224783,2,1,-4,8,22,8,-2,0
1470246991224783,-1,-4,3,-6,-2,0,-1,-1
1470246991226752,-1,1,0,2,-3,-1,0,-1
1470246991226752,-2,0,0,-1,0,0,-2,-1
1470246991246774,0,-2,-1,-1,-6,-2,1,0
1470246991246774,-2,-3,-2,3,2,1,0,-2
1470246991254779,-1,-1,-3,-4,-1,-1,-2,-1
1470246991254779,-2,-2,1,-3,0,-1,-1,-2
1470246991261837,-1,-2,-2,1,1,0,-1,0
1470246991261837,-1,-2,-1,-1,3,2,-2,-1
1470246991268790,-3,-2,2,-3,-8,-5,-1,-1
1470246991268790,1,0,-1,1,3,8,-2,2
1470246991284848,-5,0,-1,-5,-6,-4,-1,-1
1470246991284848,-2,1,-1,2,-3,-1,-1,-2
1470246991286306,-1,-2,-1,-2,-1,-1,-1,-2
1470246991286306,0,-2,-2,-3,1,-3,0,0
1470246991307324,1,-1,-1,-5,-7,3,0,-1
1470246991307324,-2,-3,0,1,0,2,0,0
1470246991308828,0,1,3,0,-3,-4,-1,0
1470246991308828,-1,-2,-6,-6,1,-1,0,-2
1470246991321882,-2,0,-1,1,-5,-4,0,0
1470246991321882,-2,0,-1,-3,-1,-4,-2,-2
1470246991328940,-1,-2,-2,2,2,2,-2,-1
1470246991328940,1,-1,2,-1,-9,-4,-1,0
1470246991344858,-1,0,0,-3,2,-1,-1,-1
1470246991344858,0,-1,-2,9,3,-1,0,-1
1470246991346360,0,-1,-1,-4,1,2,-2,-3
1470246991346360,-2,0,-2,-4,2,-3,-1,-1
1470246991367393,0,-3,0,-5,-4,-3,-3,-3
1470246991367393,-1,0,0,-2,0,-4,-2,-1
1470246991368880,-1,0,-2,1,1,4,0,-1
1470246991368880,-2,-2,-3,-4,1,3,1,-1
1470246991381891,-2,-1,3,8,-2,-1,1,1
1470246991381891,1,-3,-1,-7,-2,0,1,-1
1470246991388415,-2,-1,-3,-4,-4,-7,-2,-3
1470246991388415,-1,-2,-3,-4,1,0,-3,-1
1470246991405016,0,0,-4,3,3,-2,0,-2
1470246991405016,-2,0,-4,-7,-6,-1,0,-2
1470246991406413,-2,0,1,5,0,1,0,-1
1470246991406413,-2,-1,0,0,-2,-4,1,0
1470246991427482,-2,-4,-3,-1,0,-3,1,-2
1470246991427482,-2,-4,-1,0,-1,-2,-2,1
1470246991428933,1,0,-1,-3,-2,-4,-2,-1
1470246991428933,-2,-2,-1,2,0,-1,-1,1
1470246991440946,1,-2,-1,0,-1,-1,-1,-1
1470246991440946,-1,1,0,0,-2,4,-1,-1
1470246991449952,-3,-3,-2,-3,-2,-6,-1,1
1470246991449952,-1,-2,2,2,-5,-1,-1,-1
1470246991465010,-1,0,-2,-8,0,1,0,-1
1470246991465010,0,-2,0,3,-2,-2,-1,-2
1470246991466515,0,-3,0,-2,-4,-2,-2,0
1470246991466515,-2,-1,-4,-2,3,-1,0,0
1470246991503002,2,0,1,-8,-8,-4,-2,-1
1470246991503002,-1,0,0,-1,6,2,-1,-2
1470246991504503,-1,-1,0,-1,-3,-1,0,-2
1470246991504503,-1,-1,-2,1,1,-2,-2,-2
1470246991505502,-3,-1,0,3,0,2,-2,-2
1470246991505502,-1,0,-2,-5,-7,-3,-2,0
1470246991510006,1,-2,-2,1,-4,-6,-1,-2
1470246991510006,-2,0,1,1,17,7,-1,-2
1470246991525085,0,0,-1,1,-1,-3,0,-2
1470246991525085,0,-4,-2,-1,0,-3,-1,0
1470246991526525,-5,-1,-3,1,-2,1,0,0
1470246991526525,-1,0,-2,-4,-6,-2,0,-3
1470246991547622,-1,-2,-2,0,1,-3,-3,-2
1470246991547622,0,-1,-2,-7,0,0,-2,-1
1470246991549041,-1,1,0,4,-5,-6,-1,-2
1470246991549041,1,-3,2,-1,2,5,-2,-1
1470246991561054,-3,0,-1,2,4,4,-2,-1
1470246991561054,-1,1,0,0,-3,-3,0,2
1470246991570060,-1,-1,-4,-2,1,2,-2,0
1470246991570060,0,0,-4,-4,-6,-8,-1,-2
1470246991585075,0,-2,0,-1,-2,-2,-1,-1
1470246991585075,-2,-1,-2,-6,-1,5,-1,-2
1470246991586575,-1,-1,1,-3,2,-3,1,1
1470246991586575,-1,-1,0,-1,-6,-3,-2,-2
1470246991615120,-3,-1,-2,-2,-1,-1,-3,-1
1470246991615120,-2,0,1,1,-4,-4,0,-1
1470246991616602,0,-2,-3,0,1,1,-3,-1
1470246991616602,-1,0,-1,3,-1,0,1,-1
1470246991621125,1,-3,-2,-2,-7,-3,-1,1
1470246991621125,-2,1,-2,1,-4,-7,-3,0
1470246991630167,1,-2,-2,-2,2,3,-2,-2
1470246991630167,0,-2,1,-4,4,7,0,0
1470246991645162,1,0,2,5,1,-3,1,0
1470246991645162,-1,-1,1,2,9,2,0,-1
1470246991646633,0,2,-3,-4,-3,-4,-2,-2
1470246991646633,0,0,-1,-2,-7,-7,-3,0
1470246991667648,0,-2,-3,-5,1,2,-2,0
1470246991667648,-4,1,-3,-4,-11,-2,-2,-1
1470246991669149,-1,-1,1,8,3,2,-2,1
1470246991669149,0,-1,-2,-6,-3,-2,1,-1
1470246991681246,0,0,1,-2,0,-2,-1,1
1470246991681246,2,-3,-3,2,-3,-4,-1,0
1470246991690168,-2,1,1,2,-1,1,0,0
1470246991690168,0,-2,-1,-1,-1,0,-1,-2
1470246991705213,-2,-1,-1,-5,-5,-4,0,0
1470246991705213,0,-3,-2,-3,-1,-2,-2,-3
1470246991706683,-1,0,0,1,3,0,-1,-1
1470246991706683,-1,-1,1,1,-3,-4,1,-1
1470246991727204,-2,-1,-3,-1,6,9,0,-4
1470246991727204,-1,-2,0,-6,1,-1,0,-2
1470246991729203,0,-2,0,0,-2,-3,-2,-1
1470246991729203,-1,-2,-1,1,-3,-3,-4,-2
1470246991741213,-1,-1,-2,-3,-9,-4,-3,-1
1470246991741213,0,0,1,5,4,3,1,-1
1470246991750222,-1,-1,-1,-1,-2,1,0,0
1470246991750222,-1,0,-4,-5,-1,0,-2,-1
1470246991772241,-5,-3,-2,0,-1,0,-1,-1
1470246991772241,-1,-1,-2,-3,-1,-2,-1,-2
1470246991774244,-4,-2,-1,-5,-4,-3,-2,-1
1470246991774244,0,-1,0,1,-3,-1,0,-1
1470246991787257,-1,1,-2,-1,2,-1,0,-1
1470246991787257,-1,-1,-1,0,-5,-2,-2,-2
1470246991789257,-1,-1,-2,-5,-1,-1,0,0
1470246991789257,-1,0,0,5,2,2,-2,-1
1470246991809777,-1,0,-1,-4,-4,-7,0,0
1470246991809777,-1,-2,-2,0,3,8,0,-3
1470246991811277,-2,-3,1,-4,-3,-3,0,0
1470246991811277,-2,-2,-4,-5,-1,-4,0,-1
1470246991825291,1,-1,0,0,1,2,0,-2
1470246991825291,0,-2,0,-3,-2,-2,-1,2
1470246991826791,-2,-2,-2,3,1,2,1,-3
1470246991826791,-1,-3,-1,0,-16,-7,-1,-2
1470246991847824,-1,-1,0,-3,7,1,-4,0
1470246991847824,-1,-1,-1,4,-2,-2,-2,1
1470246991849311,1,0,0,0,1,-1,-1,0
1470246991849311,-1,-2,-4,-5,-1,-1,1,2
1470246991869872,-2,-3,-2,-2,-4,-4,-2,-1
1470246991869872,1,-1,-1,-4,-2,-1,-1,-2
1470246991871331,-1,-1,-3,-2,3,0,-2,-1
1470246991871331,1,-1,0,5,2,1,0,1
1470246991892353,-1,-1,-5,-8,-2,0,1,-2
1470246991892353,-2,0,1,0,3,0,0,-2
1470246991893851,0,-2,-2,-1,-9,-6,-1,-1
1470246991893851,-1,-1,-1,0,6,5,-2,-2
1470246991907363,-1,-2,0,3,-4,-5,0,0
1470246991907363,-3,-2,-2,-4,-3,-6,-2,-1
1470246991908869,1,0,-1,3,1,3,-1,-1
1470246991908869,-2,-2,0,-1,-10,-8,-3,-2
1470246991929883,-2,-1,0,3,14,4,-2,0
1470246991929883,-1,1,-2,0,-6,-5,0,0
1470246991931385,-2,0,-1,2,2,2,1,-1
1470246991931385,-1,1,-2,-1,5,4,-1,-1
1470246991944950,-1,-2,-2,-1,-8,-3,-2,-1
1470246991944950,-2,-1,0,-2,1,-2,-1,-1
1470246991946398,1,-1,-2,-2,1,-1,-3,-1
1470246991946398,-1,-4,-3,-8,-2,-2,-1,-3
1470246991967453,-1,0,0,6,-4,-4,0,-1
1470246991967453,-1,-3,-3,-7,5,3,-2,-2
1470246991968945,2,-1,3,-1,-5,-2,1,0
1470246991968945,-2,0,1,1,4,-2,-1,-2
1470246991989978,0,2,-1,-7,-5,-1,-1,0
1470246991989978,-1,-3,0,8,-2,-3,-1,0
1470246991991441,-2,-2,-1,-6,-2,-2,-3,-1
1470246991991441,0,-1,-1,1,-3,3,-1,-2
1470246992003949,0,-1,0,2,19,4,-2,-2
1470246992003949,-2,2,1,-2,-3,1,0,0
1470246992010987,-2,-3,-2,-3,-4,-3,-1,-2
1470246992010987,0,-4,-1,-2,-1,0,-1,-2
1470246992027472,1,-1,-1,-1,-9,-3,1,1
1470246992027472,-1,-1,-3,1,7,2,-1,-1
1470246992028973,-1,1,-1,-1,3,2,-1,-1
1470246992028973,-1,0,-1,-1,-2,-2,-1,1
1470246992057498,-2,-2,-1,2,-7,-3,-1,-2
1470246992057498,-2,-3,-2,-2,1,-1,-1,-1
1470246992059502,0,1,-1,-1,-8,-4,-1,-3
1470246992059502,-1,0,3,8,7,3,-1,0
1470246992064505,-1,-3,-1,-7,-3,0,0,1
1470246992064505,0,0,-4,-3,-2,-3,-1,-1
1470246992071011,-2,-2,-3,-4,-13,-9,-2,-1
1470246992071011,-3,-2,-1,-6,23,9,-1,-1
1470246992087539,0,0,-2,-3,-4,-3,0,-1
1470246992087539,-1,-1,2,4,-6,-7,-1,-1
1470246992089026,-3,-4,-1,-3,1,2,-2,-1
1470246992089026,0,-1,0,0,-8,-7,-2,-2
1470246992110045,1,-1,1,1,-2,-1,-1,-1
1470246992110045,-4,-2,-4,-6,3,3,0,-1
1470246992111567,-1,1,-2,-2,3,-1,-1,-1
1470246992111567,-1,-2,0,0,-5,-3,0,-1
1470246992124559,-2,-3,-1,-1,0,1,-1,-2
1470246992124559,-1,-1,0,-1,-7,-2,0,-2
1470246992131067,1,-1,0,2,5,1,0,0
1470246992131067,0,0,-1,-3,-4,-3,0,0
1470246992147578,-2,-1,0,0,-2,-2,-3,-2
1470246992147578,-2,-4,2,8,-1,-1,-2,0
1470246992149081,-1,-3,-6,-14,1,2,0,0
1470246992149081,-1,-2,-3,-3,-6,-4,0,-1
1470246992170100,-1,0,0,2,12,0,-3,-1
1470246992170100,0,1,-1,1,2,1,-1,0
1470246992171602,1,2,0,2,-2,2,-1,0
1470246992171602,-2,-2,-1,-1,-1,0,-1,0
1470246992184148,-1,-1,-3,-3,-4,-4,-1,-2
1470246992184148,0,0,-2,0,-1,0,-2,0
1470246992191118,-1,0,-1,0,-2,-5,-1,0
1470246992191118,-1,-1,-3,-3,-3,-2,-2,-2
1470246992207632,-1,-2,1,4,-6,-1,0,0
1470246992207632,-1,-1,-2,-5,0,1,-1,-1
1470246992209135,0,-2,-1,1,-2,-3,-1,-2
1470246992209135,-2,0,-3,-3,-3,-1,0,-1
1470246992230153,0,0,-2,-3,-2,-1,-1,-1
1470246992230153,-5,-2,-1,-2,-1,0,0,-2
1470246992231654,0,-3,-1,1,-1,0,-1,-1
1470246992231654,-2,0,-1,1,-1,-2,0,0
1470246992244166,0,1,-3,-2,-8,-4,-1,-1
1470246992244166,-1,2,3,11,13,3,-1,-3
1470246992251186,0,0,-3,-10,-2,-1,-2,-2
1470246992251186,-1,-1,1,0,2,-1,-1,0
1470246992275193,0,-2,-2,-1,-3,-2,-2,0
1470246992275193,0,-4,-4,-5,-7,-3,0,-1
1470246992276694,-2,0,3,6,1,8,2,-2
1470246992276694,0,-1,-1,-3,2,-3,1,-1
1470246992290285,0,1,-2,-2,-3,0,-1,0
1470246992290285,0,0,0,-2,-4,-5,-2,-2
1470246992291708,-2,-4,0,3,3,1,-2,0
1470246992291708,-2,-1,-4,-6,-5,1,0,-3
1470246992304238,-1,-1,1,1,0,-1,-1,0
1470246992304238,-2,-1,-2,-6,-4,-3,0,-2
1470246992311231,1,-1,-1,-1,-2,-5,0,-1
1470246992311231,0,-2,-2,3,0,-2,-3,-3
1470246992335274,-2,-3,-2,-2,-14,-2,-2,-2
1470246992335274,1,1,-1,-5,8,1,0,2
1470246992336748,-1,1,1,9,-9,-10,-3,-1
1470246992336748,-2,-1,-2,-3,7,9,1,0
1470246992349776,1,0,2,1,1,0,-2,-1
1470246992349776,1,-1,-1,-5,-4,-4,-1,-1
1470246992351762,-2,-2,-3,-5,-1,0,-2,-2
1470246992351762,0,-1,-1,-1,-10,-8,-2,0
1470246992363773,-2,0,-2,0,2,2,-1,-2
1470246992363773,0,0,1,1,-2,2,-2,-2
1470246992372281,-1,-2,0,0,2,-3,-1,1
1470246992372281,-1,-1,1,-1,-4,-2,-1,-1
1470246992387294,-1,-3,-2,-1,6,1,1,-1
1470246992387294,-1,-2,0,5,-1,0,-1,0
1470246992388795,-1,0,-1,-4,-4,-1,-1,0
1470246992388795,-3,-1,1,1,-1,-2,-1,0
1470246992409816,0,-2,-1,-2,1,1,-2,1
1470246992409816,-1,0,1,0,-3,0,1,-2
1470246992411316,-2,0,-5,-5,0,-1,-2,-1
1470246992411316,0,-2,-2,-5,-17,-7,-3,-2
1470246992423885,-1,-2,-2,-3,16,2,-1,-1
1470246992423885,-1,-1,-1,-1,-4,-4,0,0
1470246992432358,-3,-1,1,-2,-1,0,-2,-1
1470246992432358,0,-1,0,-1,-7,-4,-1,-2
1470246992447348,-3,-3,-4,-3,-5,-5,-1,-1
1470246992447348,0,-2,-4,-4,0,1,-1,-1
1470246992448852,0,0,0,2,3,1,0,0
1470246992448852,0,-1,2,3,5,-1,0,-1
1470246992469893,-1,-1,-1,-4,-3,-1,0,-2
1470246992469893,-2,-3,0,0,2,-1,0,-1
1470246992471369,1,0,-1,-5,-3,-1,-2,0
1470246992471369,0,1,-1,2,4,0,-1,-2
1470246992483880,-2,-1,3,7,-2,-4,0,-1
1470246992483880,0,-3,-7,-14,-5,-1,-3,-2
1470246992492388,-2,-3,-1,2,0,1,1,-1
1470246992492388,-3,-2,-3,-2,-2,0,-2,0
1470246992507402,-2,-1,-2,2,0,-1,-1,-1
1470246992507402,-2,0,0,-1,-2,0,0,-3
1470246992508904,-1,-2,0,1,-8,-3,-1,0
1470246992508904,0,-2,-1,-4,23,6,-3,-1
1470246992529956,-4,-1,-2,-1,-11,-8,-1,-1
1470246992529956,-1,-1,1,2,-2,2,-1,-1
1470246992531424,-2,-1,-2,-2,-2,-5,0,-1
1470246992531424,-1,1,1,7,0,1,-1,-2
1470246992543468,-1,0,-2,-9,0,-1,-1,-1
1470246992543468,1,0,-1,-2,0,-3,-2,2
1470246992552442,2,0,-3,-2,-1,1,0,0
1470246992552442,0,-1,-2,-2,-6,-2,-1,1
1470246992566501,2,0,-1,0,2,1,0,-1
1470246992566501,-10,-3,-1,8,-8,-4,-1,0
1470246992574964,-1,0,-2,-3,7,-1,-1,-2
1470246992574964,-2,0,1,5,-9,-5,-3,-2
1470246992589977,2,-2,-1,-4,19,6,0,-2
1470246992589977,0,-1,0,-2,-4,-4,-2,0
1470246992591477,-1,-1,2,2,-5,-2,0,1
1470246992591477,-3,-1,1,-2,4,5,0,-1
1470246992612556,-2,0,-3,-5,-8,-4,-2,-2
1470246992612556,2,-2,-2,0,-3,-2,-1,-1
1470246992613998,-7,-1,-3,-5,3,0,-1,-3
1470246992613998,1,0,-1,0,-3,-2,-1,-1
1470246992627582,0,-4,-1,2,-7,0,-3,-2
1470246992627582,0,2,-1,-2,2,-1,1,2
1470246992629011,2,2,-2,1,-2,-2,-1,-2
1470246992629011,-1,0,-4,-6,-3,-2,-2,-3
1470246992650060,-6,-1,1,4,-1,0,-2,-5
1470246992650060,3,0,0,3,2,-1,-1,-1
1470246992651531,-3,-4,-4,-2,3,3,-1,-1
1470246992651531,0,-1,-2,-5,-5,-3,-1,0
1470246992663542,0,-4,2,6,3,-1,0,2
1470246992663542,0,-2,-5,-6,-1,-4,-2,-3
1470246992672551,-5,-1,-1,-1,-5,-3,-2,-3
1470246992672551,-3,-2,-3,-3,19,6,0,-1
1470246992687563,1,1,1,0,-11,-2,0,1
1470246992687563,1,-1,1,-1,-3,-5,3,0
1470246992689066,0,-1,2,6,3,7,-5,-2
1470246992689066,-4,-3,-3,-1,-5,-4,0,-3
1470246992717590,-2,1,-2,-2,0,-1,4,-2
1470246992717590,-1,-3,-1,-1,4,1,-1,0
1470246992719107,5,3,1,2,-3,-4,0,5
1470246992719107,3,-1,-1,4,-4,-1,-1,2
1470246992723610,-4,-3,-3,-6,0,-1,-1,-4
1470246992723610,-23,-3,0,-1,-2,0,2,0
1470246992732605,-2,-1,-2,-1,-2,-1,-2,-1
1470246992732605,4,1,0,-1,-3,-5,-4,-1
1470246992747617,13,1,2,1,-1,0,2,1
1470246992747617,1,-1,-3,-2,4,3,-4,-3
1470246992749119,0,-2,-1,2,-4,-6,4,-2
1470246992749119,0,1,1,-1,18,6,-2,6
1470246992770638,-12,-3,-1,-4,-9,-6,-3,-4
1470246992770638,11,3,0,-1,-4,4,2,3
1470246992772139,3,-4,-2,-3,1,1,-2,-5
1470246992772139,-2,-3,-1,-1,-10,-5,-1,2
1470246992792658,0,-1,-2,0,-3,-2,-1,-2
1470246992792658,-1,-3,-1,-1,2,-2,-4,-2
1470246992794159,-2,-4,-1,-2,0,-1,1,-1
1470246992794159,2,3,0,-1,-6,-1,0,0
1470246992807172,-8,-2,-1,-3,1,4,-4,0
1470246992807172,3,0,1,0,-6,-3,1,-1
1470246992809172,0,0,-6,-10,-1,0,-4,-4
1470246992809172,-3,-1,-2,3,-4,-3,-3,-4
1470246992829190,3,-1,-3,-3,-4,-4,6,5
1470246992829190,-4,0,-2,2,4,3,-5,0
1470246992837699,1,-2,0,1,-11,-3,-3,0
1470246992837699,-5,-1,-1,1,3,-2,-1,-2
1470246992852718,2,2,-3,0,-5,-1,-6,2
1470246992852718,-5,-4,-3,-4,-4,-3,6,2
1470246992854213,3,-2,1,0,-1,-3,-8,-5
1470246992854213,-4,-2,-1,-3,-5,1,-1,-1
1470246992866763,2,-2,0,0,4,-2,-1,1
1470246992866763,0,-2,0,2,-4,-1,2,2
1470246992873732,14,2,0,-4,3,2,5,7
1470246992873732,-12,-2,-1,-3,-4,-5,-1,-9
1470246992889745,-8,-4,0,0,0,3,-1,-3
1470246992889745,-2,-3,-1,-3,-1,-5,-6,-6
1470246992891747,-7,1,1,3,2,0,2,7
1470246992891747,1,-5,-1,-2,-3,-4,2,-1
1470246992911765,4,2,-3,-1,1,-1,2,1
1470246992911765,-5,-5,0,-2,-8,-7,-4,-11
1470246992919776,-3,-1,1,1,4,7,0,1
1470246992919776,3,-1,-2,-1,-1,-1,-5,0
1470246992926297,-7,-1,-1,0,1,1,1,-3
1470246992926297,6,1,-1,-2,0,-1,0,5
1470246992935320,-7,-4,-1,-2,13,1,-2,-5
1470246992935320,-2,0,-1,-1,-5,-3,-1,-2
1470246992950301,4,-1,0,0,-2,-1,1,2
1470246992950301,2,-2,-1,-2,1,-2,-2,1
1470246992951801,-3,0,-3,-4,-7,-4,1,0
1470246992951801,6,-1,-1,0,1,3,-7,0
1470246992972352,-19,-1,-1,-2,-5,-4,-5,-3
1470246992972352,3,3,2,8,0,2,1,2
1470246992974321,-5,-3,-5,-10,-4,-2,0,-3
1470246992974321,1,-5,0,3,1,-2,2,-1
1470246992986332,-1,-1,-2,-2,-3,-2,0,-1
1470246992986332,0,-1,0,4,-2,0,-1,-9
1470246992995340,-1,0,-1,-4,-2,-6,-4,-3
1470246992995340,-3,0,0,-4,0,4,0,-1
1470246993009903,5,2,0,-1,0,-1,-3,1
1470246993009903,-7,0,-1,-3,-1,2,-5,-1
1470246993011354,-4,-4,-2,3,-4,-5,-5,-6
1470246993011354,-1,0,-1,-4,-14,-5,-2,0
1470246993032408,3,-3,1,1,4,3,0,-7
1470246993032408,0,1,-1,-1,-2,-2,2,4
1470246993033875,-2,-1,0,0,-4,-1,-6,-4
1470246993033875,1,-4,-1,-2,-2,-3,-9,-5
1470246993046397,-3,0,0,-2,-2,-1,3,1
1470246993046397,0,-3,0,-2,-4,1,3,-3
1470246993055394,-1,0,-5,-5,-1,-3,-2,-2
1470246993055394,6,-1,-1,1,3,-1,0,-2
1470246993069906,1,0,-3,-2,-6,-5,2,-1
1470246993069906,-14,-8,-2,-1,4,6,-8,-9
1470246993071408,4,2,2,3,0,2,-1,0
1470246993071408,-1,0,-1,-2,1,-3,-5,3
1470246993093428,-6,2,1,1,1,0,-9,-3
1470246993093428,4,2,-2,-2,-3,-5,3,3
1470246993094929,-1,2,2,2,-2,3,8,3
1470246993094929,-8,-7,-1,-3,-1,-1,0,-1
1470246993105973,4,-2,-2,0,-1,1,1,-1
1470246993105973,3,-2,-3,-5,-2,2,0,4
1470246993114947,-7,-1,0,0,2,0,-6,-2
1470246993114947,20,5,0,0,-3,-1,4,3
1470246993129985,-29,-5,0,-4,1,3,2,-9
1470246993129985,1,1,-1,-2,-8,-6,-17,-2
1470246993131464,3,0,0,0,3,5,8,2
1470246993131464,-3,2,-2,-2,-8,-7,1,-3
1470246993159987,1,-5,-2,-1,4,0,-6,-5
1470246993159987,-7,-1,0,0,9,6,10,-1
1470246993161489,-1,-2,-2,0,-11,-15,-2,0
1470246993161489,-4,-2,-3,0,-1,11,6,2
1470246993166020,7,0,-1,-1,-11,-10,-9,2
1470246993166020,-4,1,-3,-3,25,1,-2,-9
1470246993175504,-1,-10,-1,-1,0,1,0,-1
1470246993175504,-4,4,2,10,-4,-1,13,-1
1470246993189103,0,-1,-3,-15,-8,-3,-16,4
1470246993189103,1,5,2,-1,5,-2,3,-3
1470246993197522,10,2,0,1,2,0,2,-3
1470246993197522,-1,-6,-1,-4,10,4,-4,-3
1470246993212613,-18,-7,-1,3,-9,-1,6,-1
1470246993212613,5,1,3,4,-12,-7,2,2
1470246993214037,-6,0,-5,-11,2,2,-2,1
1470246993214037,8,0,-2,-9,-30,-15,-1,-1
1470246993226050,9,-1,-1,3,19,4,-2,-6
1470246993226050,2,-1,1,0,-6,4,-1,1
1470246993235056,-10,-4,0,7,-7,-6,-1,-4
1470246993235056,-1,3,-2,-3,11,1,-8,5
1470246993250068,-1,-2,-3,-11,-6,-1,0,-3
1470246993250068,0,-7,-4,-2,-5,-6,-3,0
1470246993251570,1,3,0,7,-3,5,2,1
1470246993251570,-15,-4,1,-13,3,-2,-3,1
1470246993272595,8,1,-3,1,5,1,-1,1
1470246993272595,11,5,1,-2,1,1,0,2
1470246993274593,-7,-1,-4,11,-3,-1,2,1
1470246993274593,-12,-9,-9,-25,2,0,-2,-3
1470246993286101,3,-1,4,25,2,2,4,2
1470246993286101,1,-3,-4,12,-5,-4,-7,-7
1470246993295110,-19,3,2,-26,0,-5,-7,-5
1470246993295110,-5,-1,0,10,3,1,3,-2
1470246993310137,3,-1,-1,5,-5,-3,2,4
1470246993310137,-4,0,-4,-4,-31,-12,-1,-2
1470246993311628,4,-2,3,2,17,9,6,-7
1470246993311628,1,3,0,6,-2,-6,-13,2
1470246993332643,0,1,0,-9,-5,-1,4,1
1470246993332643,-6,-5,-2,0,-1,-1,-3,1
1470246993334146,3,1,-3,-3,-5,-3,-2,1
1470246993334146,1,0,1,-5,-3,2,-1,-2
1470246993346170,2,-1,-1,5,2,0,3,2
1470246993346170,-2,0,0,-7,15,6,-3,-3
1470246993355163,0,-1,-1,0,-7,-2,-3,-4
1470246993355163,0,2,1,8,0,-6,2,-4
1470246993370176,5,1,0,-3,2,7,-3,0
1470246993370176,-2,-1,-3,-3,2,-5,2,2
1470246993371678,-1,-3,0,1,-3,-5,-12,-10
1470246993371678,2,0,0,4,-6,4,4,-1
1470246993392697,-1,-1,-2,-6,-3,-4,-5,-2
1470246993392697,5,3,1,-3,22,6,7,-1
1470246993394198,1,0,0,0,-6,-1,-10,4
1470246993394198,1,-1,-3,0,-2,-5,3,-1
1470246993406251,4,1,-3,-4,2,0,-15,-3
1470246993406251,-8,-4,-3,-2,-11,-1,6,3
1470246993415219,8,-1,2,-3,-1,-8,4,2
1470246993415219,-7,-1,-3,4,11,14,1,-3
1470246993430239,-1,0,1,-1,-6,-5,1,1
1470246993430239,-2,0,1,3,-8,-6,-6,-1
1470246993431731,2,-5,-1,-2,5,3,4,3
1470246993431731,-3,-3,-5,-15,-4,0,-1,0
1470246993452305,1,0,-1,2,17,4,2,-1
1470246993452305,-8,-2,0,0,-6,-5,-4,-5
1470246993454257,0,-1,-2,-6,-2,-4,3,4
1470246993454257,5,-1,0,3,7,2,-1,-1
1470246993466262,8,-1,0,-1,-13,-2,-2,3
1470246993466262,-5,-2,-5,-2,1,-3,1,-4
1470246993475271,1,-2,-1,1,-3,-1,-5,-1
1470246993475271,-1,-2,1,-1,-6,-3,-3,-1
1470246993490295,3,-1,-5,-7,0,-1,9,-3
1470246993490295,3,-4,-2,-1,-8,0,-5,0
1470246993491286,-12,-4,-3,7,4,0,2,-3
1470246993491286,6,6,0,-4,1,-2,-4,-1
1470246993512306,-5,2,6,13,-8,-7,-1,-2
1470246993512306,-2,-2,-3,-15,0,7,-1,0
1470246993514306,-1,-1,-4,-3,-6,-1,0,2
1470246993514306,0,1,0,4,-1,-7,-2,1
1470246993526316,-2,2,2,-2,-24,-6,0,-2
1470246993526316,4,2,4,11,12,3,-1,-2
1470246993535325,-22,-7,-12,-30,-2,1,-3,-4
1470246993535325,0,0,7,9,0,1,0,0
1470246993549352,-4,-7,-14,-21,3,-4,-3,-2
1470246993549352,4,-3,1,8,-3,1,4,3
1470246993556343,8,8,6,7,3,3,0,0
1470246993556343,-11,-3,1,20,-1,-2,-4,-10
1470246993572384,-4,1,0,-13,3,-2,-1,0
1470246993572384,1,2,2,16,-12,-3,-2,-2
1470246993573859,-1,-4,-5,-11,8,-4,-3,-1
1470246993573859,4,4,-6,-1,-1,1,1,3
1470246993586371,-4,-11,3,1,-22,-2,-1,-5
1470246993586371,-4,-3,-2,-14,13,2,-2,-1
1470246993594928,-3,-1,7,25,-11,-2,-2,-4
1470246993594928,8,6,6,1,4,-4,0,1
1470246993609461,-3,7,-3,-5,1,0,-2,-1
1470246993609461,14,-5,-4,-11,-8,-4,-3,0
1470246993616419,-22,-4,-2,-6,-15,-7,-7,-11
1470246993616419,-1,-4,-4,-4,-2,-3,0,2
1470246993632441,-4,4,2,3,13,5,-2,-3
1470246993632441,2,2,-5,-7,0,-1,0,7
1470246993633916,14,-1,1,4,20,4,2,2
1470246993633916,-3,-2,-1,-8,-7,2,-2,-3
1470246993646544,-5,-3,-2,6,-8,-7,-2,-1
1470246993646544,-1,6,1,3,22,3,-2,-2
1470246993654933,-2,-2,-1,1,-3,0,-2,-3
1470246993654933,-5,-6,-4,-6,-11,2,1,3
1470246993669444,1,0,2,6,10,-6,-2,0
1470246993669444,7,1,-2,-11,-9,0,-1,-3
1470246993675967,0,-1,-1,5,-3,1,1,1
1470246993675967,-1,-2,1,5,12,0,-3,0
1470246993692496,-5,0,-4,-5,-2,2,5,-2
1470246993692496,-3,-6,0,-4,-6,-5,-4,-2
1470246993693967,5,3,0,-1,-4,1,0,2
1470246993693967,-3,-2,-2,-4,-6,-1,-1,-2
1470246993706033,11,1,0,8,3,0,1,4
1470246993706033,-29,0,-3,1,22,7,-4,-9
1470246993714986,0,-6,0,-2,-12,-9,0,2
1470246993714986,-3,-6,-2,-2,-1,-1,-2,0
1470246993729500,-1,-2,-3,-3,-3,-2,-1,1
1470246993729500,9,4,1,-1,2,10,7,-3
1470246993736008,3,5,1,3,-4,-1,-2,9
1470246993736008,-7,-4,-1,-1,19,1,15,-3
1470246993752520,2,-3,0,-2,-6,-9,-16,1
1470246993752520,0,-2,-3,0,-11,-4,25,-6
1470246993754022,-8,-3,-2,0,0,-2,10,-2
1470246993754022,2,0,-1,3,-11,-8,-31,-1
1470246993775039,-5,1,-1,-5,3,3,10,-4
1470246993775039,-3,-3,-1,-1,-10,-5,-13,-3
1470246993776541,4,1,-4,-9,11,6,0,-5
1470246993776541,3,-5,-2,-1,0,-2,-7,5
1470246993789555,-5,-2,-1,1,-5,-4,-6,-6
1470246993789555,-3,-2,1,-2,-1,1,-10,-1
1470246993796061,4,3,0,9,-10,-3,4,-5
1470246993796061,-4,-1,-3,-6,3,4,8,-5
1470246993812574,3,1,0,1,7,1,-9,1
1470246993812574,11,2,-1,-2,-15,-9,3,9
1470246993814077,-13,-7,-3,-8,-14,-8,-14,-7
1470246993814077,-1,-1,0,2,9,1,-24,-6
1470246993835094,0,1,0,6,6,12,26,2
1470246993835094,16,1,-3,-1,-15,-7,1,6
1470246993836595,-2,2,0,-1,5,6,-14,-7
1470246993836595,-2,-4,0,4,-12,-13,-3,2
1470246993849109,3,0,-3,-9,0,-5,-2,0
1470246993849109,-6,-1,1,8,-3,11,6,0
1470246993856113,2,-1,-1,-7,2,-2,-4,4
1470246993856113,-2,-2,-3,-4,-3,-5,-9,-7
1470246993872652,1,-1,2,6,3,-2,2,2
1470246993872652,-10,-4,-1,-3,-8,-7,-11,-3
1470246993874129,-2,-2,-1,1,4,0,7,-11
1470246993874129,0,-1,-2,-5,0,3,16,7
1470246993895148,-6,-2,-4,0,-3,-4,-3,0
1470246993895148,-4,-1,0,-3,3,-7,1,6
1470246993896650,8,0,-2,0,0,6,-22,6
1470246993896650,0,-2,1,-4,-5,0,42,-4
1470246993908660,-7,-2,0,-1,-2,6,-5,-4
1470246993908660,-6,-2,-2,-2,1,-1,-3,-1
1470246993917668,2,0,-1,-3,1,-3,3,0
1470246993917668,-2,-2,-1,-2,-4,-8,-4,-1
1470246993933182,-3,-3,-2,-2,-6,-2,-5,-1
1470246993933182,-4,0,-1,0,23,9,6,-4
1470246993938686,4,0,-1,-1,-2,-2,4,2
1470246993938686,-2,1,0,-4,-6,-4,-13,2
1470246993954735,-4,-5,-3,-5,-3,-2,-2,-15
1470246993954735,2,-2,-2,0,10,3,-11,10
1470246993956703,-1,1,0,1,-4,1,15,1
1470246993956703,2,3,-2,1,3,1,4,7
1470246993968714,0,-1,4,-3,-11,-1,-5,-7
1470246993968714,-6,-2,-12,-2,2,-9,-6,-6
1470246993985231,-1,-3,8,-2,1,9,4,6
1470246993985231,-3,0,0,-2,-5,0,9,-5
1470246994000274,1,-3,4,-2,0,-1,-19,-3
1470246994000274,-5,-5,-53,-4,-7,-2,6,-7
1470246994001744,4,0,-2,0,-3,-11,2,8
1470246994001744,-1,-2,4,-2,-1,0,-10,-5
1470246994022784,-2,-3,6,2,2,-2,-3,-4
1470246994022784,0,0,13,0,-1,5,10,13
1470246994024264,-4,-1,5,-2,-15,-7,-16,-8
1470246994024264,2,1,-8,2,12,-2,6,2
1470246994028771,-2,0,-9,0,-2,0,-3,1
1470246994028771,1,1,8,-4,-12,-14,-10,2
1470246994037776,-2,1,21,3,1,7,10,-1
1470246994037776,-1,-13,-30,-8,-3,3,-9,-2
1470246994052806,-4,-1,4,2,4,-11,-7,-3
1470246994052806,-5,-1,1,0,-7,-5,-4,-9
1470246994054293,2,5,15,5,6,5,4,2
1470246994054293,-3,-4,-33,-4,-3,1,8,-4
1470246994074823,4,0,-22,0,4,3,8,7
1470246994074823,-4,-2,9,-7,-8,-6,-22,-8
1470246994076811,-4,-4,-11,-4,1,-8,2,-3
1470246994076811,1,10,34,5,-16,6,-14,-1
1470246994088822,-1,-3,7,0,25,-12,10,2
1470246994088822,-5,-10,28,-3,-17,-1,4,-14
1470246994097329,0,8,28,1,17,-5,7,2
1470246994097329,1,-4,-58,-5,-7,5,-15,-12
1470246994112342,-4,-2,37,-5,-11,0,17,0
1470246994112342,0,9,9,4,7,1,3,-4
1470246994114346,1,-12,-7,-3,-5,-6,-7,-2
1470246994114346,-2,-1,44,0,2,0,-2,1
1470246994134863,1,7,-12,0,-5,11,2,0
1470246994134863,0,-10,-41,1,14,1,-4,-1
1470246994136365,-3,-6,-52,-10,-16,2,-3,-3
1470246994136365,4,18,40,9,15,-8,-1,4
1470246994148876,-4,-28,-53,-10,-14,-1,-8,0
1470246994148876,0,7,37,5,-12,-1,2,2
1470246994164391,1,-6,-9,13,17,-3,-6,-1
1470246994164391,-1,7,-19,-20,18,4,2,-3
1470246994171896,-4,-9,-33,-10,-7,5,-4,-3
1470246994171896,-3,-3,29,11,4,-3,4,0
1470246994172398,1,2,-4,-7,-9,-2,-6,-1
1470246994172398,-9,-15,21,-4,-12,-12,-1,-5
1470246994194418,2,15,22,24,8,-2,1,5
1470246994194418,4,11,34,-4,5,12,-3,2
1470246994194918,-2,-5,-23,5,-2,-3,3,0
1470246994194918,-1,-8,-23,-14,-5,-2,3,2
1470246994216936,-1,5,-45,-10,-2,1,-2,-2
1470246994216936,-1,-12,-8,2,-16,-10,1,-3
1470246994217437,-3,11,-17,-9,8,-1,-8,-6
1470246994217437,0,9,24,17,-11,-1,1,2
1470246994231950,-3,-7,-8,-8,-3,-7,0,-6
1470246994231950,-1,2,-13,-1,3,-3,-6,1
1470246994232451,5,12,4,-5,-27,-2,-11,1
1470246994232451,1,-13,7,10,17,12,14,5
1470246994254471,2,13,36,5,10,8,-4,-4
1470246994254471,0,7,1,-5,-3,0,3,1
1470246994254971,-7,-25,-14,-3,-1,-11,4,0
1470246994254971,0,2,-37,-2,-9,-4,-9,-2
1470246994276991,0,-3,-9,-7,-16,-3,9,4
1470246994276991,-1,2,-6,-3,22,4,-7,-3
1470246994277490,-3,-7,30,1,-8,6,-5,-3
1470246994277490,-2,-3,-2,8,10,-4,7,-3
1470246994292006,-1,2,-7,-3,-6,2,-3,1
1470246994292006,0,0,-12,0,-3,-8,4,2
1470246994293006,0,8,27,0,-2,5,-12,-2
1470246994293006,0,-4,-9,-4,-6,-13,2,0
1470246994314524,0,-3,7,-4,-3,0,-3,-1
1470246994314524,-2,-3,-2,0,-13,-2,-11,-3
1470246994315025,0,1,8,3,20,4,11,-3
1470246994315025,-3,-16,-17,-8,-16,2,-7,-4
1470246994337045,0,-2,26,5,6,-2,-8,1
1470246994337045,-4,-21,-38,-12,-4,0,6,-2
1470246994337545,0,4,11,2,-2,-5,-1,1
1470246994337545,1,6,17,12,-5,-2,-5,-1
1470246994351559,1,0,-10,-9,13,12,5,3
1470246994351559,-5,0,33,0,-4,-7,-2,-1
1470246994352559,0,-2,-15,-14,-3,-3,3,0
1470246994352559,-2,2,3,5,-8,-8,-7,-1
1470246994382585,-7,0,-4,3,2,3,-2,-1
1470246994382585,1,0,-14,2,3,1,0,0
1470246994383086,1,0,-6,0,-1,0,0,2
1470246994383086,2,5,-3,-9,-1,-3,1,-2
1470246994396598,-3,-5,22,5,-3,-6,-7,-4
1470246994396598,-8,-6,-8,11,1,-5,-5,-5
1470246994397599,0,-1,-11,-7,6,3,13,-1
1470246994397599,1,-1,27,3,3,6,-4,-1
1470246994411612,3,4,-21,-15,-2,-2,1,0
1470246994411612,1,-1,-11,-3,-7,-4,-5,-3
1470246994413114,-1,-9,-6,-4,-3,-5,3,-2
1470246994413114,-2,-1,-27,-1,-1,-3,-1,-2
1470246994434148,-2,0,38,-5,2,1,-5,-2
1470246994434148,1,2,-21,0,5,8,8,1
1470246994435133,2,5,21,11,4,0,-3,0
1470246994435133,-2,-7,-48,-23,-4,1,0,-3
1470246994456680,4,-3,9,9,-8,-8,-2,-3
1470246994456680,-5,-2,-9,-12,-4,3,-2,-1
1470246994457653,-3,0,12,8,0,0,-2,-1
1470246994457653,1,1,12,-3,2,1,-3,-1
1470246994471667,0,1,-7,3,0,-3,2,1
1470246994471667,3,1,10,-4,2,1,1,-3
1470246994472666,-6,-6,-36,-4,-7,-4,-3,-1
1470246994472666,-1,0,20,4,0,-1,0,1
1470246994494200,-5,-1,-9,5,2,-1,4,-1
1470246994494200,0,1,20,-3,2,3,-1,1
1470246994495186,2,5,-1,5,-2,-6,-3,-1
1470246994495186,-2,-3,13,-6,-1,1,1,-1
1470246994516720,0,8,11,3,-1,-4,-5,-1
1470246994516720,-1,1,-8,2,-2,-3,-4,-1
1470246994517706,-1,-2,-14,-7,-1,-1,0,-2
1470246994517706,0,4,8,2,2,-1,13,0
1470246994531768,-8,-15,-7,0,-4,0,-31,-5
1470246994531768,-1,5,-4,-4,1,2,18,-3
1470246994532255,-8,-10,8,-3,1,-3,-21,-4
1470246994532255,0,6,-12,0,-2,3,2,-1
1470246994554239,-4,-4,-8,-2,-1,-5,5,1
1470246994554239,4,5,5,-1,0,1,1,0
1470246994555240,-2,-18,-28,-6,1,1,-2,-1
1470246994555240,-8,-8,39,9,-4,-3,-2,-3
1470246994576816,3,5,15,0,-1,0,3,-2
1470246994576816,5,5,-24,-7,-2,-10,-14,1
1470246994577284,3,-5,1,7,1,8,22,-1
1470246994577284,-9,-4,8,-6,-5,-2,10,1
1470246994591773,4,8,1,4,4,4,-7,3
1470246994591773,-4,-1,7,3,-4,-10,6,-5
