timestamp,emg1,emg2,emg3,emg4,emg5,emg6,emg7,emg8
1470331846721826,1,-4,-26,-8,-1,-1,0,-1
1470331846721826,0,0,15,1,-3,-1,-4,-2
1470331846725829,-3,-3,18,5,-1,-1,-1,-1
1470331846725829,1,0,-10,2,0,1,-2,-1
1470331846726330,-2,0,9,8,0,-1,-2,0
1470331846726330,-2,-4,-20,-8,0,1,-1,0
1470331846727831,0,-2,-10,2,1,-1,3,0
1470331846727831,-1,5,17,-16,-4,-3,-3,0
1470331846732334,-1,-4,2,3,4,0,2,-1
1470331846732334,0,3,-2,3,-2,-3,0,1
1470331846740341,0,-4,-3,8,1,1,-2,-2
1470331846740341,0,1,-14,-8,-2,-7,-2,0
1470331846755855,-1,1,7,3,0,4,-1,0
1470331846755855,0,4,13,-1,0,0,0,-1
1470331846761360,2,0,-1,-6,-3,-2,-1,-1
1470331846761360,-3,-8,-24,1,-2,-1,1,-1
1470331846769868,0,-1,1,-10,-3,-4,-3,0
1470331846769868,-1,-2,2,6,1,0,0,-1
1470331846792888,-2,-2,-4,-15,-3,-1,-1,0
1470331846792888,0,-3,-3,21,2,0,-1,-2
1470331846793389,-4,0,14,-2,4,0,-3,-3
1470331846793389,-1,-1,-5,-1,-1,-1,0,1
1470331846838930,-4,-2,2,-1,-2,-4,-2,-3
1470331846838930,4,1,5,0,0,1,0,0
1470331846840431,-5,-1,1,-1,0,0,0,-2
1470331846840431,0,0,3,7,-1,0,-1,0
1470331846841432,-1,-5,-15,-17,-1,-3,-1,-2
1470331846841432,1,0,7,3,-3,-2,0,0
1470331846843934,4,3,1,-12,-3,-1,-3,-1
1470331846843934,-1,-2,-2,-3,0,-3,-1,-4
1470331846851942,-1,2,1,5,1,1,3,0
1470331846851942,-1,-6,-17,1,0,-2,-3,-3
1470331846858947,-1,1,14,7,-2,-1,-2,1
1470331846858947,-2,-2,-4,-3,-3,-5,-1,0
1470331846866454,1,-1,-3,-3,-2,3,-2,-2
1470331846866454,-2,-3,0,-15,0,1,0,-3
1470331846881468,-2,-2,-14,5,0,-4,0,-2
1470331846881468,-3,4,8,1,-2,0,-1,-1
1470331846888977,0,-2,14,6,2,0,-1,-1
1470331846888977,-3,-1,-6,-5,-1,0,-1,0
1470331846912496,2,-3,-9,-5,-2,1,0,-1
1470331846912496,0,-4,-2,-3,-3,-2,0,0
1470331846913497,-3,1,3,17,2,-1,-1,-2
1470331846913497,-1,-7,-20,-16,-5,0,-2,-1
1470331846927010,0,2,17,4,-1,0,-1,0
1470331846927010,1,-2,-11,0,-1,1,3,0
1470331846927509,1,-3,4,-7,-2,-3,-6,1
1470331846927509,-3,1,5,11,0,0,-1,-1
1470331846949529,-11,-5,-10,-4,-1,0,0,-3
1470331846949529,6,0,-3,-5,-2,1,-3,0
1470331846950030,4,1,-1,1,-2,0,1,3
1470331846950030,1,2,7,6,0,-1,0,0
1470331846972551,-3,-1,2,7,4,0,-2,-1
1470331846972551,-6,-5,0,-7,-2,0,-2,-2
1470331846973552,0,-3,-9,-8,-1,-1,0,-1
1470331846973552,5,0,4,1,-2,-2,-2,-2
1470331846987063,-2,-3,-20,-13,-1,0,-1,-2
1470331846987063,-1,2,22,9,0,-1,-1,-2
1470331846987563,1,0,-13,-2,0,0,2,-1
1470331846987563,-4,0,24,9,0,-1,0,-1
1470331847009584,0,-2,-4,2,-1,-2,-2,0
1470331847009584,2,-3,-12,-23,-3,-3,-1,-2
1470331847010085,-4,-1,-5,2,-1,-2,-2,-2
1470331847010085,-2,4,10,13,-1,-2,0,-1
1470331847032603,2,-4,-8,-18,-2,-4,-1,0
1470331847032603,-2,0,-1,4,1,0,0,0
1470331847033105,7,0,2,2,-3,-1,-2,-1
1470331847033105,-15,-4,-19,-18,-2,-4,-1,-2
1470331847047116,2,-2,14,5,-2,-1,-1,-1
1470331847047116,1,3,-7,1,0,-1,1,-1
1470331847047617,-4,-1,3,3,-1,-1,1,-1
1470331847047617,5,1,0,-3,-2,1,-1,1
1470331847069638,-1,0,4,-7,-3,-1,-1,-2
1470331847069638,-12,-3,-8,-2,-1,-2,-1,-3
1470331847070138,5,-2,5,2,0,0,0,0
1470331847070138,0,0,-7,3,-1,-1,-1,-3
1470331847092658,0,-2,-17,-9,-1,0,0,1
1470331847092658,2,2,24,12,-1,-1,-2,-1
1470331847093659,-7,-2,-9,-6,-2,-3,-1,2
1470331847093659,-4,-5,10,1,0,0,-2,-1
1470331847106671,8,1,-3,0,-2,1,-1,-2
1470331847106671,3,1,-7,-5,-1,-1,-1,1
1470331847107672,-10,-2,-3,-2,-3,0,-2,-4
1470331847107672,5,1,8,11,4,-2,-1,0
1470331847129190,-8,2,9,12,1,1,1,0
1470331847129190,0,-4,-11,-13,-3,-2,0,-1
1470331847130191,0,1,-5,-4,-1,-1,-2,-3
1470331847130191,2,1,1,6,1,0,0,0
1470331847152713,-2,-3,-1,-6,-2,-3,-2,-2
1470331847152713,-2,-4,-2,5,0,2,0,-2
1470331847153213,2,1,4,-10,0,-1,1,2
1470331847153213,0,-3,-4,-2,-4,-2,-2,-2
1470331847166724,2,1,-10,10,2,-1,0,0
1470331847166724,-2,-6,6,-13,-4,-3,-3,-3
1470331847167726,-4,7,-5,4,0,-1,-1,-2
1470331847167726,0,-7,4,-8,-1,-2,-1,-2
1470331847197755,-5,-8,-12,-5,-4,-1,-1,-4
1470331847197755,1,6,3,14,1,1,-1,0
1470331847198253,2,-4,8,-1,-2,-2,-2,-1
1470331847198253,-6,-6,-23,-9,-2,-1,0,-4
1470331847212766,-1,0,-16,-2,-1,1,-1,-1
1470331847212766,0,2,3,3,2,-1,-1,-1
1470331847213266,-9,-1,16,-4,-3,-1,0,1
1470331847213266,7,0,-11,-4,-1,-1,-5,1
1470331847226279,2,-3,9,0,0,-2,-1,-1
1470331847226279,2,-1,-4,2,-1,-1,-1,2
1470331847234286,0,-2,-6,-8,-4,0,-1,0
1470331847234286,-2,-1,-3,2,-2,-1,0,-1
1470331847249298,-10,0,9,5,-1,1,-1,-3
1470331847249298,1,-3,2,-3,0,-2,0,-2
1470331847250300,-1,2,3,1,3,0,0,-2
1470331847250300,0,-1,-1,-3,-1,-3,-1,1
1470331847272820,3,4,-3,4,0,-2,-2,0
1470331847272820,-8,-6,-6,-18,-3,-1,-2,-1
1470331847273320,3,0,2,-3,-1,-1,-2,0
1470331847273320,-2,3,-3,-1,-2,-1,0,-2
1470331847286332,0,0,4,-1,-1,-3,-1,0
1470331847286332,-5,-2,-8,2,-1,-2,-2,-2
1470331847294339,1,-1,-7,6,0,-3,0,-1
1470331847294339,-4,0,0,-7,0,-1,-1,-2
1470331847309352,-5,0,8,-5,-2,-1,-2,0
1470331847309352,1,-7,-13,1,-2,-2,-1,-1
1470331847310354,-6,-3,-7,-5,-4,-1,-1,-4
1470331847310354,-6,-1,24,12,0,-1,-1,-2
1470331847332374,7,0,5,-2,0,-1,-1,0
1470331847332374,4,2,2,0,-1,-1,0,-2
1470331847333375,-1,-6,-6,3,1,0,0,-2
1470331847333375,-12,-2,-12,-16,-5,-3,-2,-2
1470331847346388,4,-4,0,2,0,-1,-1,-2
1470331847346388,-1,1,-1,-1,1,-1,0,0
1470331847354393,3,2,13,8,0,-1,0,-1
1470331847354393,5,-1,-14,-2,-1,0,-1,3
1470331847369407,-9,-6,4,-2,-3,0,-2,-1
1470331847369407,-1,0,-17,-1,1,0,-2,-1
1470331847370407,-2,-4,4,-4,0,0,-3,-1
1470331847370407,1,-1,-3,-1,0,0,0,0
1470331847392428,6,4,3,1,-3,-2,1,0
1470331847392428,-4,-1,6,3,-1,-1,-1,0
1470331847393428,-4,-1,13,4,3,1,-2,-3
1470331847393428,3,-1,3,-7,-4,-2,0,1
1470331847406439,-1,-5,-11,10,2,-1,-1,-1
1470331847406439,3,0,-2,-2,-3,1,-1,-1
1470331847414447,-7,0,-1,-2,-4,-3,-1,-1
1470331847414447,1,-2,-7,-5,1,-1,1,-1
1470331847429461,-1,-2,-8,-7,-2,-2,-1,-1
1470331847429461,-4,0,10,3,1,-2,0,-3
1470331847430461,1,0,-8,-1,-3,-1,-4,1
1470331847430461,2,-2,5,-1,-2,-5,-2,-3
1470331847452480,-5,-1,-3,-5,-3,2,-2,-1
1470331847452480,0,2,2,5,-1,2,2,1
1470331847453482,3,-2,-1,-2,-2,0,0,-1
1470331847453482,-2,-1,-7,1,1,0,-1,-2
1470331847466493,1,1,0,-8,-3,-2,-2,-1
1470331847466493,-1,-1,2,2,0,0,-2,-3
1470331847474502,1,-2,5,0,-1,-2,-1,0
1470331847474502,-2,-4,-13,0,-2,-1,-1,-2
1470331847489516,4,2,13,2,0,-2,1,1
1470331847489516,-9,-5,-9,-5,-4,-3,-4,-5
1470331847490015,1,-2,-9,-4,-1,3,2,6
1470331847490015,1,1,2,1,-1,-5,-4,0
1470331847512535,1,-2,-2,-4,-1,1,-1,0
1470331847512535,3,1,3,-2,1,5,4,0
1470331847513535,-1,-4,-11,-1,0,-4,-3,-2
1470331847513535,-5,6,6,0,-1,1,4,0
1470331847526046,-1,-1,-1,0,-2,-1,-4,-4
1470331847526046,-2,0,1,-1,-2,-3,-5,0
1470331847534554,-5,-5,-9,-5,-3,-3,-2,-6
1470331847534554,-3,0,6,2,2,0,-1,1
1470331847549568,-3,3,-2,2,1,-1,-2,-2
1470331847549568,-2,-2,9,-3,-3,-2,-1,-1
1470331847550068,0,0,1,2,-2,0,-2,1
1470331847550068,0,-1,-1,1,-2,-1,0,0
1470331847572588,-3,0,0,12,2,-1,1,-1
1470331847572588,1,2,2,-8,0,0,-2,1
1470331847573590,-2,-5,-16,-26,-6,-5,0,-1
1470331847573590,0,-1,2,7,1,-2,-3,-2
1470331847586100,-5,-4,3,7,0,-1,1,0
1470331847586100,0,1,-8,-7,-3,-3,-2,0
1470331847594608,2,0,4,6,0,-2,-3,-3
1470331847594608,4,-1,5,0,-1,2,0,2
1470331847609621,-10,-6,-12,-9,-2,-1,-3,-6
1470331847609621,1,3,2,-3,-2,-2,-1,-1
1470331847610122,1,5,-8,11,4,-1,-1,-1
1470331847610122,-4,-2,11,-1,-3,0,0,0
1470331847632643,4,-3,6,6,1,-4,0,2
1470331847632643,2,-1,-5,-4,-1,-2,-2,2
1470331847633143,-2,0,2,-4,-3,1,1,0
1470331847633143,-5,3,4,10,0,1,-1,-1
1470331847655165,3,-2,-9,-14,-1,-2,-2,-1
1470331847655165,-2,-3,2,2,0,0,1,-2
1470331847655663,2,-2,-2,-7,2,1,0,0
1470331847655663,3,-2,-9,5,-2,0,1,-4
1470331847670177,-12,-4,-4,-21,-6,-2,0,-3
1470331847670177,6,0,-12,5,-1,-2,-4,0
1470331847670177,-4,0,13,8,2,-1,0,0
1470331847670177,-4,1,11,-5,-2,-3,-4,-2
1470331847692699,1,0,5,0,-3,2,1,0
1470331847692699,0,-1,-10,13,2,0,1,-1
1470331847693197,-3,-5,-8,-19,-3,-1,0,-1
1470331847693197,6,4,-15,-1,0,0,0,-2
1470331847715216,1,-5,5,-9,0,-1,1,1
1470331847715216,-8,-8,-6,0,-2,-1,-3,-3
1470331847715717,-3,-1,3,5,-2,-1,-1,-2
1470331847715717,-2,-2,-4,-5,1,0,-2,-1
1470331847729730,4,3,6,5,3,-1,-1,0
1470331847729730,-3,6,8,0,-1,-1,0,-2
1470331847730231,1,-3,-3,7,-2,1,-1,0
1470331847730231,-4,-2,-29,-14,-2,-2,-1,1
1470331847752750,4,2,8,-2,-4,-3,-3,-1
1470331847752750,-6,-6,4,2,1,0,1,1
1470331847753251,0,-2,-19,-8,-3,0,-2,-2
1470331847753251,1,4,18,-2,-4,-4,-1,-1
1470331847775270,-4,-1,4,8,-1,-2,-3,-1
1470331847775270,-6,-3,8,6,2,1,-1,0
1470331847775772,6,-1,8,12,-2,-2,0,-2
1470331847775772,-6,0,-10,-14,0,1,-1,-1
1470331847789283,5,-3,-14,-9,-3,-2,-2,-1
1470331847789283,-4,-3,5,-1,-1,-2,-3,-1
1470331847790285,2,2,-22,-1,0,0,-2,0
1470331847790285,-1,-12,10,3,5,-2,-1,-1
1470331847811304,0,6,14,6,-1,2,1,-1
1470331847811304,6,-3,-11,-7,-4,-2,0,-3
1470331847820313,2,3,-2,-1,0,-2,-3,-1
1470331847820313,-3,4,1,5,0,2,-1,0
1470331847835325,5,3,11,7,-1,-2,-3,0
1470331847835325,-11,-10,-11,3,-1,0,-1,-2
1470331847836826,-7,1,-10,-26,-4,-3,-2,0
1470331847836826,-1,-2,-7,-1,0,2,0,-1
1470331847857345,0,-6,-24,-4,-2,0,0,1
1470331847857345,3,7,10,3,-3,0,-1,-1
1470331847859347,-5,-5,13,4,1,-2,0,0
1470331847859347,1,2,14,10,0,-1,-1,-2
1470331847871357,-1,3,-14,-12,2,-1,-1,0
1470331847871357,1,-5,4,-3,-2,-2,1,-1
1470331847880366,3,5,15,12,2,0,0,0
1470331847880366,-9,-5,-11,-7,-4,-2,0,-3
1470331847895378,-5,-4,10,9,0,-1,-1,-2
1470331847895378,7,3,-8,-5,2,-1,-2,0
1470331847896881,2,-4,4,-1,-3,0,2,1
1470331847896881,-7,-1,-5,-2,-1,-1,-2,-5
1470331847917399,0,-1,9,2,-1,1,0,1
1470331847917399,4,-4,-16,-14,-3,-2,-4,1
1470331847919400,-6,-3,4,-2,-2,-2,-4,-7
1470331847919400,2,5,21,14,1,-2,-2,2
1470331847931410,4,-4,-30,-10,-3,-4,-1,-3
1470331847931410,-2,0,14,-1,-3,0,-3,-1
1470331847940420,-1,1,-1,7,-2,1,0,0
1470331847940420,7,-7,-31,-8,-1,-2,-1,0
1470331847954933,-9,1,19,2,0,0,-1,-1
1470331847954933,-5,-10,-12,-3,0,-2,5,1
1470331847956936,-7,3,-7,-7,-2,0,-8,-5
1470331847956936,11,2,30,7,-1,3,4,5
1470331847977453,0,-1,-9,-1,-2,-5,0,-4
1470331847977453,-1,0,-9,-2,1,-7,-2,3
1470331847979454,-11,-6,0,-3,-1,3,-3,-6
1470331847979454,3,-4,-9,-4,-1,0,3,2
1470331847991465,-6,1,-1,-1,-4,-7,-9,-2
1470331847991465,11,9,3,2,-2,7,-2,-3
1470331848006479,3,-1,3,3,0,-5,4,3
1470331848006479,-13,-4,-3,-3,-2,-9,-7,-5
1470331848014986,4,-1,-2,-1,1,9,3,-1
1470331848014986,-21,-2,11,6,-1,-5,0,-3
1470331848016988,10,-2,-10,-3,-1,0,-6,3
1470331848016988,0,-2,-1,-2,0,3,3,1
1470331848037507,-6,0,-12,-5,-1,-5,-3,-2
1470331848037507,2,1,13,0,-1,0,-1,-3
1470331848039508,3,1,-6,0,-1,-1,2,1
1470331848039508,-10,-5,-24,-6,-5,-3,-4,-1
1470331848051519,-2,-2,24,1,-1,-1,1,2
1470331848051519,8,3,1,-3,0,4,-6,-3
1470331848060528,-5,1,-3,3,0,-4,4,-1
1470331848060528,-1,-3,16,-1,-3,-3,-7,-5
1470331848075040,0,2,-7,10,1,3,3,-1
1470331848075040,-4,-6,-22,-21,-4,-3,-1,-2
1470331848077042,0,-2,3,1,1,1,-1,-1
1470331848077042,-1,1,-9,-11,-1,1,0,-2
1470331848098062,-2,-3,10,8,-1,-1,-1,1
1470331848098062,1,1,2,5,0,-1,0,-2
1470331848099061,0,-1,-5,4,-1,0,0,-2
1470331848099061,5,-3,-7,-18,-3,0,0,1
1470331848111573,-12,0,3,3,-2,-2,-4,-1
1470331848111573,0,-5,-16,-4,-3,0,-1,-1
1470331848120081,0,-3,1,-3,0,-2,-1,0
1470331848120081,1,4,7,7,-2,-2,-2,-1
1470331848135095,3,2,6,3,-3,-2,-1,-2
1470331848135095,1,-1,0,8,-1,2,2,0
1470331848136595,1,-1,3,3,-1,-1,-3,-1
1470331848136595,-6,3,-16,-15,-2,-3,-2,-2
1470331848157614,-5,-13,-14,-17,-3,0,-2,1
1470331848157614,-1,2,6,15,10,-1,2,1
1470331848159116,-5,3,12,0,-2,-1,1,0
1470331848159116,6,-4,-19,-11,-2,-1,-1,-2
1470331848180135,-1,2,14,6,0,0,-1,1
1470331848180135,-3,-6,-23,-7,-5,-4,-2,0
1470331848181635,-1,-3,7,2,2,-1,-1,-2
1470331848181635,1,0,-10,4,1,-1,0,2
1470331848195148,2,-2,-7,-12,-4,-3,-1,-3
1470331848195148,-2,0,13,20,1,0,-1,-1
1470331848196650,1,1,-2,-16,-3,-1,-1,-3
1470331848196650,-1,-4,-8,-9,0,0,-1,-1
1470331848217669,3,-2,-14,0,1,-1,-1,-2
1470331848217669,-1,-1,26,4,-4,-4,-2,0
1470331848219169,-2,2,-3,11,-1,-1,1,1
1470331848219169,-2,-2,5,-8,0,1,-2,-1
1470331848240188,5,-1,-4,10,1,-1,-1,1
1470331848240188,-9,6,-16,-35,-6,-4,-2,-3
1470331848241689,-6,-13,-4,10,-1,0,-1,-2
1470331848241689,5,2,13,16,2,-1,0,0
1470331848255202,-3,0,-11,-6,-2,-2,-1,-3
1470331848255202,5,2,7,7,-2,-1,-1,0
1470331848256704,-2,2,1,10,1,0,-2,0
1470331848256704,-8,-4,4,-11,-2,-1,-3,-1
1470331848285229,2,3,30,13,1,1,-1,-1
1470331848285229,2,6,-15,-8,1,0,-1,-1
1470331848286731,0,-6,-13,-9,-3,-2,0,0
1470331848286731,0,4,4,11,0,-1,-1,-3
1470331848300242,0,1,2,-5,-1,-3,0,1
1470331848300242,2,-8,-10,10,0,0,-1,0
1470331848301744,-7,1,0,-12,-3,-3,-2,0
1470331848301744,-3,0,-5,6,3,0,0,-1
1470331848314755,3,1,11,1,-3,0,0,-1
1470331848314755,3,2,11,4,0,0,-1,0
1470331848321261,-12,-5,-13,-13,0,2,-2,-1
1470331848321261,-1,-5,1,-3,-2,-1,0,-2
1470331848337775,1,0,-20,-3,0,0,-2,-1
1470331848337775,0,-2,11,9,-2,-1,0,1
1470331848339277,1,8,-6,-10,-3,-1,0,-2
1470331848339277,3,-2,16,6,-2,-1,-3,-3
1470331848360295,-2,-8,-22,-18,-2,-2,-1,2
1470331848360295,-3,-3,-16,-7,1,-3,-2,-1
1470331848361797,8,1,1,-2,-4,-2,0,-2
1470331848361797,-8,4,18,19,0,-1,0,-3
1470331848374809,-1,-3,-20,-10,1,-1,-1,-3
1470331848374809,5,0,34,7,-2,-1,-4,0
1470331848381315,-9,-4,-11,4,0,-1,0,-2
1470331848381315,-3,-6,-3,-5,-3,-2,-4,-2
1470331848397829,-4,4,-4,-2,1,-1,-1,-1
1470331848397829,-6,-3,-10,-7,-4,-1,1,0
1470331848399333,14,1,14,12,1,-1,-2,1
1470331848399333,1,-3,-33,-11,-2,-2,-1,2
1470331848427857,-7,5,46,9,-2,-2,-2,-2
1470331848427857,6,-2,-18,-11,-1,-1,0,0
1470331848429358,-5,-5,-7,-8,-2,-2,-1,1
1470331848429358,-7,1,-12,10,-1,-2,-2,-2
1470331848434456,5,-7,6,-5,-1,-2,-1,0
1470331848434456,-11,-2,7,-3,-3,-2,-1,-5
1470331848441369,1,-1,5,4,0,-1,-1,0
1470331848441369,4,-1,-11,-4,-3,-1,-1,1
1470331848457883,-3,0,-2,-1,-1,1,-2,-1
1470331848457883,2,1,7,-3,1,0,-1,-2
1470331848459400,-2,0,-4,6,-1,-2,-1,-1
1470331848459400,0,-2,9,-9,-2,0,0,1
1470331848480502,-6,-2,-13,1,-1,-1,0,-1
1470331848480502,3,-2,-4,-1,0,-2,-2,-1
1470331848481909,-2,-1,-7,-6,-3,0,-1,-2
1470331848481909,1,4,30,17,-1,-1,-1,-1
1470331848494416,-4,-10,-27,-4,1,0,-1,-2
1470331848494416,-4,0,6,-3,1,1,0,-1
1470331848501443,3,1,-6,-4,-1,0,4,4
1470331848501443,4,-3,8,-1,0,-1,-2,-2
1470331848517437,2,6,1,0,-1,-2,-1,1
1470331848517437,-12,-9,-18,-6,0,-1,-3,-5
1470331848519439,-4,-3,15,-4,-1,0,-4,-4
1470331848519439,2,-1,-14,1,-2,-1,-1,-1
1470331848539959,1,5,-8,-8,1,-1,-1,0
1470331848539959,2,-5,32,7,-2,-3,-2,-1
1470331848541962,-1,-1,-6,2,-1,-1,-2,0
1470331848541962,-8,-5,-18,-8,-1,0,-2,3
1470331848554470,5,2,12,7,-1,-2,1,-3
1470331848554470,2,1,-4,-4,-2,-2,-2,1
1470331848561480,3,-1,-2,-3,-1,-3,-3,-4
1470331848561480,-7,-3,1,0,0,2,1,0
1470331848578062,-4,-2,-3,-1,0,1,-1,1
1470331848578062,-4,-1,-18,-4,-1,-1,1,-1
1470331848579515,-2,-2,18,-3,-1,-1,-2,0
1470331848579515,3,1,-13,2,-1,-3,-1,-2
1470331848600011,-3,-1,15,0,-1,-2,-2,-1
1470331848600011,0,1,0,2,-3,-2,-3,-3
1470331848602014,-4,-3,-8,-4,0,-1,1,-1
1470331848602014,2,1,10,-6,-2,-2,2,2
1470331848614540,-11,-5,-5,1,-1,-2,-3,-6
1470331848614540,2,-5,-6,1,-1,-2,-2,-4
1470331848621530,3,6,6,0,-3,-2,0,0
1470331848621530,0,3,1,-3,1,2,3,1
1470331848638045,-2,-2,-6,2,-2,-2,0,-3
1470331848638045,1,1,-9,-2,0,1,0,1
1470331848639046,1,-4,3,1,-1,-1,-3,-2
1470331848639046,-6,-5,-16,-2,-2,-3,-3,-4
1470331848660065,9,0,3,-1,-1,0,-1,2
1470331848660065,-11,0,3,-4,-1,-1,1,0
1470331848661566,-10,-2,3,3,-1,0,0,-2
1470331848661566,7,-2,1,-9,-4,0,-4,-1
1470331848674078,0,-3,-12,4,-3,-1,-1,2
1470331848674078,2,-1,-3,0,0,-1,0,1
1470331848682586,1,3,-1,-3,2,1,1,0
1470331848682586,-5,1,15,4,1,-3,-2,-3
1470331848698600,5,-1,-8,-4,-3,-1,0,0
1470331848698600,-6,5,-1,-3,-2,0,-1,-1
1470331848699600,-4,-4,-4,8,0,0,-1,-2
1470331848699600,2,-3,-1,-11,-4,-1,-1,0
1470331848720122,-1,-4,-11,-4,3,2,-1,0
1470331848720122,-3,2,19,0,-3,-3,0,-1
1470331848721634,3,1,-10,-7,1,0,-1,0
1470331848721634,-3,-1,8,7,1,-4,-2,0
1470331848734136,0,-3,-2,2,0,-4,-2,-1
1470331848734136,0,0,-15,-1,0,1,-1,0
1470331848742640,-3,-3,22,14,-3,-3,-1,-2
1470331848742640,-3,-1,-18,-17,-3,0,-1,-1
1470331848757724,-4,2,0,-4,-2,-3,-1,-2
1470331848757724,2,-2,-7,-1,1,0,-2,-1
1470331848759154,0,-1,-3,-1,-1,0,0,0
1470331848759154,1,1,7,14,2,-2,-1,-1
1470331848780218,0,-3,1,2,-2,-1,0,-1
1470331848780218,-3,-2,7,-5,-4,-2,-3,-3
1470331848781676,0,2,-15,-16,-1,-3,-1,0
1470331848781676,-3,-2,-2,2,-1,-1,-3,-1
1470331848793699,-4,2,7,-3,0,0,0,-3
1470331848793699,0,-6,-5,6,-1,-1,0,1
1470331848802715,-2,-3,-8,-10,-1,-2,-3,-1
1470331848802715,-1,-1,9,10,-2,0,0,1
1470331848817709,1,-1,-9,-12,-1,1,-1,1
1470331848817709,3,2,7,6,-1,-1,-2,1
1470331848819236,0,0,-2,7,-1,-2,0,-1
1470331848819236,-1,-4,-14,-20,0,0,-1,-2
1470331848840305,0,-1,3,6,-3,-2,-1,0
1470331848840305,-3,-4,-1,0,0,-1,0,0
1470331848841729,0,-1,-15,-11,-2,1,-2,-3
1470331848841729,1,0,4,9,-1,-1,-1,-3
1470331848853795,1,2,9,0,-1,1,-2,0
1470331848853795,-4,0,0,18,-1,0,-1,0
1470331848862747,-4,-2,-5,-22,-5,-2,-2,-2
1470331848862747,-2,-4,-8,0,-1,-2,0,0
1470331848877761,-2,-1,-3,-5,-1,0,-2,-1
1470331848877761,7,-4,-1,-6,-2,-1,0,0
1470331848879264,-2,-1,0,13,5,0,0,0
1470331848879264,-3,6,28,2,-2,-1,-2,0
1470331848900318,-4,-3,12,7,-1,0,-2,-3
1470331848900318,0,2,-18,-4,-1,0,1,-1
1470331848901833,3,1,1,2,-1,-2,0,0
1470331848901833,-5,-8,4,-11,-2,-1,-1,-2
1470331848913826,-1,-1,-8,2,-2,0,0,-1
1470331848913826,-4,-2,-11,-16,-2,0,0,-2
1470331848922801,-1,-1,2,2,-1,0,-1,-1
1470331848922801,2,-1,-16,-3,-1,-1,0,-2
1470331848937814,-3,2,17,4,-2,-2,-2,-3
1470331848937814,1,2,2,0,0,-1,-1,1
1470331848939318,0,-2,3,-1,-2,-1,0,1
1470331848939318,-5,0,7,8,0,-1,-2,1
1470331848960335,0,-5,-21,-10,-1,-2,-1,-1
1470331848960335,0,0,-2,-3,-1,0,-1,-2
1470331848961836,1,2,4,3,-1,0,-2,0
1470331848961836,0,3,-1,3,-1,0,-1,0
1470331848973890,-3,0,1,8,0,-1,-1,0
1470331848973890,0,-1,-10,-19,-4,-3,0,-1
1470331848982855,1,0,16,14,0,1,-3,1
1470331848982855,-2,-5,-21,-9,0,1,0,-1
1470331848997868,-1,0,5,0,0,0,-1,-1
1470331848997868,0,0,-7,4,1,-4,0,-2
1470331848999370,-2,-1,12,-3,-3,0,-1,0
1470331848999370,1,0,-5,3,-1,-1,0,-1
1470331849020389,-1,-5,-14,-2,1,-1,0,-1
1470331849020389,-4,1,17,6,1,2,0,-1
1470331849021891,-3,3,9,1,-3,-1,1,-1
1470331849021891,4,-2,-10,-6,-3,-1,-2,0
1470331849033982,6,1,-6,-11,-2,-2,-2,0
1470331849033982,-13,-4,-10,-3,-2,-1,-1,-3
1470331849042909,1,-4,-17,0,1,-1,-2,-1
1470331849042909,-1,1,15,9,2,2,-1,0
1470331849065435,-1,0,12,-1,0,-1,-2,0
1470331849065435,1,-4,-8,0,-1,-2,-1,1
1470331849066933,-2,2,9,6,0,-1,-1,-2
1470331849066933,0,-1,-10,-1,-1,-3,-1,-2
1470331849080474,-3,0,0,-4,-2,-1,-1,-1
1470331849080474,-2,-1,7,6,2,1,-2,-1
1470331849081944,1,-3,-20,-21,-4,-1,-2,-3
1470331849081944,1,-1,13,6,1,-1,-1,-2
1470331849102998,-3,-5,-28,-5,-1,0,1,-2
1470331849102998,0,3,3,-1,-2,-2,-1,-1
1470331849104464,-3,-2,5,8,1,-2,0,-1
1470331849104464,0,0,1,-3,-2,-3,-3,0
1470331849117983,-3,0,0,2,-1,0,1,-1
1470331849117983,-2,-6,-21,-19,-4,-1,-1,-2
1470331849119513,2,1,16,5,-1,-1,-2,-3
1470331849119513,3,2,0,-2,-1,-1,1,-2
1470331849140506,-2,-1,2,4,-1,-1,-2,0
1470331849140506,-9,-2,-8,-2,-1,-1,-1,-4
1470331849141999,0,-4,-1,6,0,-1,-3,1
1470331849141999,-4,-2,-1,-10,-2,-2,-1,-1
1470331849162518,4,-1,1,0,-2,-2,0,2
1470331849162518,7,1,7,2,0,-2,-1,1
1470331849164019,-6,-3,-6,-6,-1,-1,0,-1
1470331849164019,-3,-1,-5,2,0,-1,-1,-2
1470331849177532,-3,-3,-7,-4,0,-1,-1,-2
1470331849177532,1,2,3,-7,0,0,0,-1
1470331849179533,-1,-3,-5,-1,-2,-3,-1,-1
1470331849179533,-1,-1,2,0,-1,-1,-1,-2
1470331849200051,-3,0,9,5,-1,-2,-2,-2
1470331849200051,1,-1,2,6,-2,-1,-2,1
1470331849201570,1,0,-19,-13,0,1,0,0
1470331849201570,-2,-2,8,1,-1,1,-1,-3
1470331849222632,-3,-1,1,-5,-2,-2,-1,-2
1470331849222632,10,1,13,16,1,-1,-1,-2
1470331849224106,-6,-2,-9,-3,1,-1,0,0
1470331849224106,1,-2,-32,-7,-1,-1,1,0
1470331849237138,-2,1,32,5,-1,-1,0,0
1470331849237138,0,-2,15,4,-2,-1,-2,-2
1470331849244120,1,0,-8,-2,-1,0,0,-2
1470331849244120,-4,-4,-16,-21,-1,-1,-2,-1
1470331849260170,4,1,-4,3,-1,1,-1,3
1470331849260170,-5,0,-11,-4,-2,0,-1,-1
1470331849261610,-6,0,14,-4,-4,-4,-3,-3
1470331849261610,-1,-3,3,6,0,-1,-1,-3
1470331849282624,0,1,-9,-7,0,-1,-1,0
1470331849282624,3,-1,4,-1,-1,-3,-1,0
1470331849284126,0,-1,7,10,2,-1,-2,-2
1470331849284126,2,-2,-2,6,-2,-2,-1,1
1470331849297137,-1,-4,-17,-19,-2,0,-3,-3
1470331849297137,-1,2,14,11,0,-1,1,-2
1470331849303643,1,-2,-7,-7,-3,-1,-1,-1
1470331849303643,-1,-1,10,12,-1,0,-2,-1
1470331849320205,-1,-3,-1,7,1,-1,1,-1
1470331849320205,-2,-2,-16,-14,-4,-3,-1,0
1470331849321659,1,-2,0,-3,-1,0,-1,-2
1470331849321659,-1,1,2,-9,-4,-2,-2,-1
1470331849342679,-4,-1,6,-1,-3,-2,-1,-1
1470331849342679,-2,-2,-13,-4,0,0,0,-1
1470331849344182,1,-3,-1,1,-1,-1,-1,-2
1470331849344182,-1,2,5,4,0,-1,-3,-2
1470331849357238,-2,-1,-1,-2,-1,0,-2,0
1470331849357238,0,0,9,0,-1,0,-1,-1
1470331849363697,1,1,1,6,-2,-2,0,0
1470331849363697,-8,-1,1,-2,-1,-1,0,-1
1470331849380213,-1,0,-1,5,-1,-1,-2,-1
1470331849380213,-1,-5,-24,-9,-1,-2,0,1
1470331849381715,-2,1,5,-8,-3,0,0,-1
1470331849381715,-1,2,6,4,1,-1,-1,-2
1470331849402732,0,1,4,4,-1,0,-1,-1
1470331849402732,-1,1,7,7,4,0,-2,0
1470331849404234,1,-4,-20,-7,-2,0,0,0
1470331849404234,-2,-2,1,-2,-1,-4,-2,0
1470331849417244,-4,-1,-6,0,-3,-2,0,-4
1470331849417244,1,-3,-3,-7,-2,-1,-1,-3
1470331849423808,0,0,3,6,-1,-2,-1,-1
1470331849423808,3,0,2,3,0,2,-2,-1
1470331849440268,0,-1,-14,-6,-1,0,0,0
1470331849440268,-2,-1,4,-6,-2,-2,-1,-1
1470331849441792,-1,0,7,4,2,-1,-2,0
1470331849441792,-2,-3,-18,-12,-3,-3,-2,-2
1470331849462792,0,-2,8,2,1,-2,1,-1
1470331849462792,-2,-2,-6,3,0,-1,0,-2
1470331849464287,-3,-1,-2,-2,-1,-1,0,-2
1470331849464287,-1,-1,9,0,-2,-1,0,-1
1470331849477324,-2,0,-4,-5,-1,1,-1,-2
1470331849477324,1,-2,-13,1,-4,0,-2,0
1470331849483848,0,0,18,9,0,-1,-1,-2
1470331849483848,-1,-2,-13,12,-1,0,0,-2
1470331849500319,-4,-7,-5,-26,-6,-3,-4,-2
1470331849500319,-1,-4,-14,-2,-1,-2,-2,-1
1470331849501861,-1,2,18,1,0,1,-1,-1
1470331849501861,0,0,4,4,1,-1,0,1
1470331849522840,-2,0,-6,2,0,-1,0,-1
1470331849522840,-1,-2,-6,-4,0,1,0,-1
1470331849524341,0,-4,-6,1,-1,-1,0,0
1470331849524341,-3,0,-1,-11,-2,-1,-1,-2
1470331849537354,-1,-3,-2,1,-1,-1,0,-1
1470331849537354,1,3,22,3,1,-2,0,-1
1470331849543860,-1,-1,-13,-5,0,0,-2,-2
1470331849543860,-1,-5,0,2,-2,0,-2,-2
1470331849560373,-1,2,-2,-2,-2,-2,-1,-1
1470331849560373,-4,1,2,4,-1,-1,-3,0
1470331849561876,-2,2,19,2,1,-1,-1,1
1470331849561876,1,-1,-8,-3,0,0,0,1
1470331849582894,0,-4,-10,-5,-1,-1,0,-2
1470331849582894,-1,0,6,-3,-2,-1,-1,-1
1470331849584396,-1,-1,-10,2,0,-1,-2,-1
1470331849584396,-2,1,8,1,0,-1,-1,-1
1470331849596407,1,0,-1,4,1,-1,0,1
1470331849596407,-1,-2,0,-1,-3,0,0,0
1470331849605413,0,-3,-19,-10,-3,-2,0,0
1470331849605413,-1,2,12,0,0,2,-2,-1
1470331849620476,2,1,4,5,-1,2,0,0
1470331849620476,-3,-3,-2,0,0,-1,-1,-2
1470331849621928,0,-3,-41,-27,-2,-1,-1,-3
1470331849621928,-1,2,41,11,-1,0,0,0
1470331849643034,-2,2,8,10,1,0,-1,0
1470331849643034,0,-1,2,0,-2,1,-1,0
1470331849644448,0,-3,-5,0,-1,0,0,0
1470331849644448,0,-2,-13,-6,-2,-2,0,-1
1470331849656460,-1,-1,-8,-2,-1,-1,-2,-1
1470331849656460,-1,1,5,2,-3,-2,-1,0
1470331849665469,-3,0,16,5,-2,-1,-1,-3
1470331849665469,1,-3,-13,-7,-4,-1,0,-1
1470331849680507,-2,-4,2,1,0,0,0,-1
1470331849680507,0,-2,-10,-8,-1,1,-1,-3
1470331849681983,-1,-1,-3,-2,-1,-1,-1,-1
1470331849681983,-2,-1,-3,-2,-2,-2,-1,-1
1470331849702531,-2,-1,2,1,1,0,-2,-1
1470331849702531,0,-2,7,19,1,0,-1,-2
1470331849704503,-1,-2,-26,-46,-6,-1,-2,-1
1470331849704503,-1,2,10,15,1,-2,0,0
1470331849716554,-1,-2,-12,-10,-3,-1,-1,0
1470331849716554,-2,-2,7,6,1,0,-4,-2
1470331849725542,-2,-2,9,16,3,0,0,1
1470331849725542,0,-2,-16,-9,-2,0,0,-1
1470331849740051,0,-1,-2,-3,-2,-2,-2,-3
1470331849740051,-1,-2,0,-2,-1,-2,-2,0
1470331849742045,-2,-2,5,8,-1,-2,-1,0
1470331849742045,0,-3,-11,-8,-1,-1,0,0
1470331849762597,-1,0,11,8,-1,-2,0,1
1470331849762597,-2,-2,-5,-9,-2,-2,0,-1
1470331849764057,-1,0,0,3,-1,-2,0,-1
1470331849764057,-2,-1,4,0,-2,-2,-1,0
1470331849776568,-1,-2,-17,3,-2,0,-2,0
1470331849776568,-1,-1,-6,-14,-1,2,-2,-1
1470331849785077,0,1,1,3,-2,-1,0,-2
1470331849785077,0,-1,0,-2,0,-2,-1,-3
1470331849800090,0,-1,4,-2,0,0,0,-2
1470331849800090,-2,-1,-3,-1,-2,-1,-1,0
1470331849801591,0,2,11,7,-1,-1,0,0
1470331849801591,-4,-4,-24,-19,-3,0,-2,0
1470331849822610,-2,3,35,12,-1,-3,-1,-1
1470331849822610,0,-1,-3,1,0,-1,-1,0
1470331849824111,-1,-1,7,9,0,0,-1,2
1470331849824111,0,-2,-6,5,2,0,0,0
1470331849836634,-3,-4,-18,-12,1,-1,0,-1
1470331849836634,-2,-2,-1,-4,-2,-1,-3,-4
1470331849845150,-2,-3,-9,1,-1,-2,-2,-1
1470331849845150,0,1,6,-7,-2,-2,-2,-1
1470331849860194,-1,1,4,4,-2,0,-1,-1
1470331849860194,-1,0,7,3,0,-1,0,0
1470331849861644,0,-2,-9,-3,0,1,-2,-2
1470331849861644,0,1,11,2,-2,-1,-1,-1
1470331849882705,-1,-1,-6,-4,-1,1,-1,0
1470331849882705,-1,2,-3,-2,-1,-2,0,0
1470331849884164,-2,-2,-5,-3,-2,-2,-2,0
1470331849884164,-2,-1,-9,-2,0,-1,-2,1
1470331849896178,0,-1,-2,-4,-2,-2,-1,-1
1470331849896178,0,-1,4,0,-1,-1,0,-2
1470331849905222,0,4,26,12,0,-1,0,-2
1470331849905222,-2,-3,-7,-4,-1,-1,-2,-2
1470331849920249,-1,-1,-8,-6,-1,-1,-2,0
1470331849920249,0,-2,-16,-3,0,-1,0,-1
1470331849921747,-1,-1,-2,1,1,0,-1,-2
1470331849921747,-1,0,5,7,-2,-2,-1,-1
1470331849942772,-1,-1,5,6,2,-1,-2,-2
1470331849942772,0,-2,-15,-10,1,-2,0,0
1470331849944219,-2,-1,10,3,0,-1,0,-1
1470331849944219,0,2,5,2,-1,-1,-1,-1
1470331849956262,-1,-3,-1,0,-1,0,0,-2
1470331849956262,0,-2,5,3,-2,-1,0,-1
1470331849965241,-1,-3,-11,-5,-2,-2,-1,-1
1470331849965241,-2,-2,-4,-4,-2,1,-1,1
1470331849980271,-1,0,1,0,-1,-2,-1,-2
1470331849980271,1,0,0,0,-3,-1,-2,-1
1470331849981752,-2,-6,-28,-14,-2,1,0,0
1470331849981752,-1,0,15,2,-2,-2,-2,-2
1470331850010333,0,4,14,1,0,-1,-1,0
1470331850010333,-4,-2,-7,-4,-3,-3,-1,-2
1470331850011783,0,0,0,2,-1,-2,0,-1
1470331850011783,0,-7,-25,-11,0,1,0,-1
1470331850016326,-3,-1,-4,-8,-2,-2,-2,0
1470331850016326,0,0,7,2,0,-2,1,-2
1470331850025293,0,1,1,1,-1,-1,-2,-1
1470331850025293,-2,0,4,6,0,-1,-1,-1
1470331850040358,-1,-3,-7,-7,-2,1,0,-1
1470331850040358,-1,1,0,0,1,-1,0,1
1470331850041807,0,-1,9,2,-3,-2,-1,-2
1470331850041807,1,1,-3,1,-2,-1,-1,-3
1470331850062825,-1,-2,-6,-2,-3,-1,-2,-1
1470331850062825,-1,-1,1,-2,-3,-2,-3,-1
1470331850064327,-1,-1,-2,-2,-1,0,0,-1
1470331850064327,-2,-1,3,0,-1,-1,0,-1
1470331850085345,-1,-3,-4,0,-2,0,-1,-1
1470331850085345,0,-3,-6,-4,2,-1,-1,-1
1470331850086850,-1,2,4,3,1,-1,-1,-1
1470331850086850,0,-1,6,5,-3,-2,-2,-1
1470331850100413,1,-1,-9,-5,-1,-1,1,-1
1470331850100413,-3,0,-3,-1,-1,1,-2,-2
1470331850101860,0,-2,-1,-5,0,1,-1,-1
1470331850101860,-2,1,6,2,-1,-2,-1,-1
1470331850122896,-2,-2,-2,-2,0,-1,0,0
1470331850122896,-1,1,8,7,-3,-1,1,2
1470331850124422,-2,-1,-7,-9,-4,-3,-1,0
1470331850124422,-1,-3,-9,-4,1,0,-2,-1
1470331850145399,-2,-1,4,1,0,-2,-1,-2
1470331850145399,-2,-2,-2,0,2,0,-1,-3
1470331850146901,-1,-1,-1,1,-2,-1,-1,-2
1470331850146901,0,0,-2,-3,-1,-1,1,-1
1470331850160473,-2,-2,-2,0,0,-1,-3,0
1470331850160473,0,-1,0,0,-2,-1,-3,-2
1470331850161914,1,-1,6,7,-2,-1,-1,1
1470331850161914,-3,0,-18,-23,-2,-3,-2,-1
1470331850182947,-1,-1,0,4,-2,-1,0,-2
1470331850182947,1,-1,3,-1,-1,-3,0,-1
1470331850184434,-2,-1,-1,-3,-1,0,-1,2
1470331850184434,0,0,3,6,0,2,-3,-1
1470331850205452,-2,0,-5,-4,-1,-1,-1,0
1470331850205452,-3,-4,-6,-9,-3,0,0,-1
1470331850206954,0,-1,-3,0,-1,-1,0,-1
1470331850206954,-2,3,28,17,-2,0,0,-2
1470331850219468,0,-2,-4,4,-1,0,-2,0
1470331850219468,0,-2,-6,-1,1,0,0,0
1470331850226472,-2,-5,-16,-13,-1,-1,0,-2
1470331850226472,1,-3,-6,-2,1,-1,0,0
1470331850242487,1,-1,5,-2,-2,-2,-1,0
1470331850242487,-1,1,-3,0,-3,-1,-1,2
1470331850244490,-1,-2,1,-2,-2,1,-1,-1
1470331850244490,-2,-3,-2,-3,-2,-1,1,1
1470331850265011,-3,-1,0,2,1,0,0,-2
1470331850265011,-1,-2,7,1,-3,-2,-2,-1
1470331850266509,-1,0,0,1,-1,0,-1,-3
1470331850266509,0,0,-7,-3,-2,0,0,1
1470331850279520,0,-1,-3,-1,-1,-1,-1,-2
1470331850279520,-2,-2,-4,-4,0,0,0,0
1470331850286526,0,-1,1,-3,-1,0,-2,-2
1470331850286526,-2,-3,-5,0,0,0,-2,-2
1470331850302568,0,-1,-2,-3,-2,-2,-2,-1
1470331850302568,0,1,4,0,0,-3,0,-2
1470331850304043,-3,1,2,5,-3,-2,-2,0
1470331850304043,-2,-4,-4,-11,-2,0,-2,-2
1470331850332608,-2,0,1,1,-2,-1,-1,-2
1470331850332608,1,0,3,4,1,0,0,0
1470331850334069,-1,-1,-6,-6,0,-1,-3,-2
1470331850334069,0,-1,-4,-2,-2,-2,-2,-1
1470331850339614,-1,-3,0,0,-1,-2,1,0
1470331850339614,1,-3,-8,-2,1,0,1,0
1470331850346084,-2,0,4,5,0,-1,-1,0
1470331850346084,-1,3,8,2,-1,-1,-2,0
1470331850362648,0,-1,2,1,0,0,-1,-2
1470331850362648,-2,-3,-18,-13,-2,-1,1,-1
1470331850364596,1,-1,-4,-1,0,-1,-2,0
1470331850364596,1,-2,-1,0,-1,-2,-1,-3
1470331850385137,0,1,0,-1,-1,-1,-1,1
1470331850385137,-1,-3,2,2,-3,-2,-2,0
1470331850386616,-1,-1,5,5,-1,1,-1,-1
1470331850386616,-1,-3,-12,-9,-2,-1,0,-1
1470331850399718,-1,2,1,1,0,-1,-1,-1
1470331850399718,-2,0,9,4,-1,-1,-2,-1
1470331850406188,0,-1,3,3,-1,-2,0,-2
1470331850406188,-2,0,1,1,-2,0,0,0
1470331850422678,1,-5,-10,-5,1,-2,0,-1
1470331850422678,-2,-3,-5,-3,-2,-1,-2,-1
1470331850424149,0,-2,-12,-11,-2,-1,0,-2
1470331850424149,-1,0,21,12,-2,-2,-1,0
1470331850445212,-1,3,-3,-7,-3,0,-2,0
1470331850445212,-2,2,2,0,-1,-2,-2,-3
1470331850446670,0,0,-4,-1,-4,-1,0,0
1470331850446670,-2,-6,-17,-8,-1,-1,-1,-2
1470331850459695,-1,-1,7,2,-2,0,1,-1
1470331850459695,-1,-1,11,11,1,-2,-1,0
1470331850466198,-2,1,-2,-3,-3,-1,-1,1
1470331850466198,0,-1,-9,-13,-2,-1,-1,0
1470331850482703,-1,-2,-1,0,-2,-1,-2,0
1470331850482703,-1,-3,-8,-5,-1,-3,-1,-1
1470331850484205,-2,-3,0,3,1,-3,-2,-1
1470331850484205,-1,-2,-3,1,0,-1,-1,-1
1470331850505727,0,0,-5,-6,0,0,-1,-2
1470331850505727,-2,3,7,1,-1,-1,-1,-2
1470331850507225,0,-1,4,7,0,-2,-1,-2
1470331850507225,0,0,-6,-6,-2,-2,-1,-2
1470331850520235,-2,-3,-8,0,-1,-1,0,0
1470331850520235,-2,-2,-4,-4,-2,0,0,-1
1470331850526268,-1,0,3,1,0,-1,0,-2
1470331850526268,0,0,-5,1,1,-4,0,-3
1470331850542851,-1,1,11,4,0,-3,-4,-2
1470331850542851,1,-2,-7,-5,1,0,-2,-2
1470331850544300,0,1,3,2,-2,-1,-1,0
1470331850544300,-2,-1,-1,1,-1,-1,-1,0
1470331850565322,-3,-2,0,-2,-3,-1,-1,-1
1470331850565322,-1,0,-2,0,-3,0,-2,-1
1470331850566818,-4,-3,-7,-9,0,-1,-2,-2
1470331850566818,-2,-2,-1,0,-2,1,0,-1
1470331850578831,-1,-2,-7,-1,2,-1,-1,-2
1470331850578831,-3,-1,16,13,0,-1,-1,-1
1470331850587797,1,1,0,-7,-2,0,0,1
1470331850587797,0,1,-1,-6,-1,0,-2,0
1470331850602809,-2,-2,-5,1,-1,-3,1,-1
1470331850602809,1,-2,-9,-6,0,-1,-1,-2
1470331850604312,-2,-2,-1,3,-2,-3,-1,0
1470331850604312,-2,-1,8,6,0,0,-2,0
1470331850625330,-2,0,-4,-4,-3,0,0,-1
1470331850625330,1,1,-2,-2,1,-1,-1,-1
1470331850626832,0,-2,2,1,0,-1,-1,-2
1470331850626832,-1,-2,-9,-4,-1,-3,0,-2
1470331850638897,0,-3,-2,-4,-1,-1,-2,0
1470331850638897,-2,1,13,3,-2,0,0,0
1470331850647893,0,-2,-13,-5,-2,-1,-1,-2
1470331850647893,0,1,11,11,0,-1,-2,0
1470331850662864,0,-1,4,0,-2,-1,-2,-1
1470331850662864,0,-1,-6,-2,-3,-2,-1,-2
1470331850664369,-1,-4,-5,-7,0,-1,1,0
1470331850664369,-2,-2,-7,-1,-2,-1,1,-2
1470331850685384,-2,-1,-9,-4,-1,-2,0,-2
1470331850685384,1,-1,0,-2,-2,-1,-2,-1
1470331850686886,-2,1,5,-4,-2,0,-1,-2
1470331850686886,0,1,2,2,-1,-1,-2,-1
1470331850698930,-2,-1,-4,-7,-3,-1,-1,0
1470331850698930,-3,-2,-9,-2,1,-2,0,0
1470331850707904,-1,0,2,4,0,0,-1,-2
1470331850707904,-1,0,4,0,-2,1,1,-1
1470331850722917,0,-1,-6,-3,-2,-1,-2,-1
1470331850722917,1,-3,-9,-4,-1,-1,-1,-1
1470331850724419,0,5,20,9,-2,-3,-2,-1
1470331850724419,1,1,-6,-2,0,-2,0,-2
1470331850745113,0,-1,5,0,0,0,0,-2
1470331850745113,-1,-4,-11,-10,-3,-3,-2,-2
1470331850746572,0,-2,-4,2,-1,0,-2,0
1470331850746572,0,0,5,3,0,0,-1,0
1470331850758627,0,0,-3,-1,-1,-1,0,-1
1470331850758627,-3,-3,2,-3,-2,0,-2,-1
1470331850767637,0,-3,-14,-5,-1,-1,0,-2
1470331850767637,-1,-1,12,1,0,-3,-2,-2
1470331850783144,1,-1,5,0,-2,-1,-1,-1
1470331850783144,-1,-1,-1,-2,-1,0,-1,1
1470331850784622,-1,-3,-7,-1,-2,0,0,0
1470331850784622,0,-4,-9,-6,-2,-1,-1,-2
1470331850805150,-2,2,3,2,-1,-2,-1,-3
1470331850805150,1,0,-2,1,-1,-1,-2,-2
1470331850806626,-1,1,7,-1,0,-2,-1,0
1470331850806626,0,-2,-9,-3,-1,0,0,-1
1470331850819148,-1,-1,6,2,0,-1,-2,2
1470331850819148,-2,-1,-2,-1,-1,-2,0,-2
1470331850828145,-1,-2,-2,-1,-1,-1,0,-2
1470331850828145,-3,-2,-1,-1,-1,-3,-1,0
1470331850842674,-1,-2,-11,-8,-1,-3,-2,-2
1470331850842674,0,0,8,6,-1,0,0,-1
1470331850844159,-2,-2,0,1,-1,-1,-1,-2
1470331850844159,-1,-1,-5,-9,-2,-2,-1,0
1470331850865233,0,0,0,4,0,-1,0,-2
1470331850865233,-1,0,4,-1,-1,-4,-3,-2
1470331850866680,-1,-4,-6,-3,-1,-2,-1,-2
1470331850866680,-1,-1,1,4,3,1,-1,1
1470331850878700,-1,-3,-9,1,0,-1,0,-1
1470331850878700,-2,-3,-18,-17,-3,-1,-1,-3
1470331850887733,-1,2,23,12,-3,-1,-1,2
1470331850887733,-2,-1,7,0,-2,0,-3,0
1470331850902733,1,1,-2,0,-2,0,0,0
1470331850902733,1,-1,-1,4,0,0,-1,-1
1470331850904214,-1,-3,-15,-13,-1,-1,-2,-1
1470331850904214,-2,-2,-4,-1,-2,-1,0,-1
1470331850925288,-2,-2,-2,-3,0,0,0,0
1470331850925288,0,1,6,-3,-1,-3,-1,0
1470331850926734,-1,1,-8,-6,-1,-3,-2,-1
1470331850926734,0,4,4,7,-1,-2,-2,-1
1470331850938801,-2,-3,7,8,1,-2,0,0
1470331850938801,-3,-5,-15,-13,-1,-2,-1,0
1470331850947754,0,-1,1,-3,0,-3,1,1
1470331850947754,-1,-3,-2,-2,-2,0,-2,-1
1470331850962766,-1,0,3,1,1,1,-3,-1
1470331850962766,-1,3,10,9,-2,1,-1,-1
1470331850964280,-2,-2,-2,3,-1,0,-2,-2
1470331850964280,-1,-3,-14,-13,-1,-1,-1,-1
1470331850985308,-2,2,6,4,-1,-2,1,-1
1470331850985308,-3,-4,-6,-1,-2,-1,-2,-2
1470331850986846,1,1,18,6,0,-1,0,-1
1470331850986846,-1,0,-8,0,-2,1,-2,-2
1470331851007834,-2,-5,-10,-13,-2,-2,-1,-2
1470331851007834,-1,3,19,2,-1,0,1,-2
1470331851009308,-1,-3,-15,-6,-2,0,0,-1
1470331851009308,1,1,6,5,-1,0,-1,1
1470331851022821,1,-1,-2,8,1,1,-1,1
1470331851022821,-1,-3,-8,-3,-2,-1,0,0
1470331851024322,-2,-1,-5,-10,-1,0,-2,-2
1470331851024322,0,-3,2,2,-1,-3,0,-2
1470331851045343,-1,0,-9,-12,-2,-2,-2,-2
1470331851045343,1,0,13,17,0,-1,-2,-2
1470331851046895,-2,0,0,0,0,0,0,0
1470331851046895,-4,-1,-6,-7,1,-2,-1,-3
1470331851067860,-2,0,6,0,-2,-2,-3,-2
1470331851067860,0,-4,-9,-4,1,-3,0,0
1470331851069362,-1,0,0,-5,-2,-1,-1,-4
1470331851069362,-3,-1,10,4,-1,-1,0,-2
1470331851082874,-1,-3,-1,0,-1,3,1,0
1470331851082874,-1,0,-3,-1,0,-2,0,0
1470331851084376,0,0,-2,7,0,0,-1,0
1470331851084376,1,-3,-1,-1,-2,-2,0,1
1470331851105394,-1,-2,0,0,-2,-2,-4,-1
1470331851105394,-1,1,-9,-6,0,1,0,-1
1470331851106904,-1,-1,4,6,-3,-1,-2,-1
1470331851106904,-2,-1,-5,-10,-3,-3,-1,-1
1470331851127915,0,0,3,4,1,-3,0,0
1470331851127915,-2,0,3,1,-3,-1,-1,0
1470331851129416,-1,-3,-10,-3,1,-2,-2,0
1470331851129416,-2,1,3,1,-2,0,-1,-2
1470331851141931,0,-1,1,2,0,-1,-1,-1
1470331851141931,-2,0,3,-4,0,0,0,0
1470331851148934,1,0,0,7,0,-2,-1,0
1470331851148934,1,-1,-8,-7,-2,-1,-1,0
1470331851165454,-1,-1,1,-8,-4,-2,-1,-1
1470331851165454,0,0,10,9,-1,-1,-1,0
1470331851166950,-2,-3,-7,-3,-2,-2,0,0
1470331851166950,-4,-2,1,0,-2,-2,-2,-2
1470331851187998,-1,-1,-3,0,-1,0,-2,0
1470331851187998,-1,-3,-5,-5,-1,-2,-1,-4
1470331851189473,-1,-2,-15,-11,-2,-2,1,-2
1470331851189473,-2,0,16,12,0,-1,-1,-2
1470331851202041,-4,1,1,-2,-4,-2,-1,-3
1470331851202041,0,-3,-6,-6,0,0,0,0
1470331851208988,-2,-2,3,4,1,-1,-1,-1
1470331851208988,1,0,-7,-7,0,-2,1,2
1470331851225502,1,-3,-7,-6,-1,0,0,-1
1470331851225502,-2,-1,5,1,-2,-1,-2,-1
1470331851227004,-1,-4,-17,-12,0,2,-2,0
1470331851227004,-1,3,16,4,-2,0,-1,-1
1470331851248034,-1,0,5,7,-1,-1,-1,-2
1470331851248034,-2,-2,-9,-2,0,-1,0,-2
1470331851249528,-1,-1,6,3,-3,0,-1,-4
1470331851249528,-2,-4,-14,-3,-1,-1,-2,1
1470331851262052,0,-2,-3,-1,-1,-1,-1,-1
1470331851262052,0,2,4,-1,-2,-1,-1,-1
1470331851269040,-3,-3,4,3,-1,-1,0,0
1470331851269040,1,-3,-13,-7,0,1,-2,-3
1470331851285560,-2,1,10,-2,-3,-2,-1,-1
1470331851285560,0,0,-4,1,-1,-2,0,1
1470331851287069,0,0,4,3,0,-2,-2,-1
1470331851287069,-1,-2,-5,-5,2,-1,-2,0
1470331851307619,-1,-1,-4,1,1,-1,0,-1
1470331851307619,-1,-2,3,-2,-3,-2,-1,-2
1470331851309077,-1,1,2,-2,-2,-1,0,-1
1470331851309077,-2,-3,-7,-5,-1,0,0,0
1470331851322118,-1,3,-5,2,1,0,-1,0
1470331851322118,-3,-1,12,13,-1,-2,-2,0
1470331851328597,0,0,-5,-14,-1,-2,-1,-1
1470331851328597,-2,-5,-5,0,-2,-2,0,-1
1470331851345137,0,-3,-6,-6,-2,0,0,0
1470331851345137,-1,-2,-4,1,-1,0,1,-1
1470331851346611,-3,0,4,3,-2,0,-1,-1
1470331851346611,1,1,6,3,0,-1,-2,-2
1470331851367664,-1,-3,-9,-3,-1,-1,1,-1
1470331851367664,1,1,5,0,-2,-1,-1,-3
1470331851369141,0,-3,-5,-6,-1,-1,-1,1
1470331851369141,-3,0,-3,1,-1,-1,-1,-1
1470331851382196,1,0,6,5,-2,-1,0,1
1470331851382196,-1,-1,-9,-10,-1,0,-2,1
1470331851388695,1,-1,0,1,-2,0,-1,-2
1470331851388695,0,0,3,3,-2,-1,0,-1
1470331851405207,-1,-3,-8,-7,-3,-2,-1,-1
1470331851405207,-1,-1,-3,-1,-3,-3,-1,-1
1470331851406702,-2,-2,10,8,1,-4,-2,-2
1470331851406702,-1,-1,-14,-9,-1,-2,0,-2
1470331851427710,-3,-1,8,-2,-1,-4,-1,-2
1470331851427710,0,0,2,2,2,0,0,1
1470331851429186,0,0,-1,-2,-2,0,-1,1
1470331851429186,-2,-3,-4,-1,-2,0,-1,-2
1470331851442200,-2,-2,-6,-5,1,0,-1,-2
1470331851442200,0,-3,-8,-8,0,1,1,1
1470331851448792,-1,0,5,4,-2,0,0,1
1470331851448792,3,0,1,-1,-4,-2,-2,0
1470331851465273,-2,0,3,3,0,-1,0,-1
1470331851465273,-1,-2,-1,-2,-1,-3,-1,-3
1470331851466719,-2,1,-4,2,-1,-1,-1,0
1470331851466719,-2,-2,-2,-5,0,-2,-2,-1
1470331851487825,-2,-3,0,0,-2,-1,-1,-3
1470331851487825,0,-2,-4,0,-2,0,1,-1
1470331851489239,0,-1,1,-3,-2,-2,-1,-2
1470331851489239,-1,-2,1,1,-2,0,-1,-2
1470331851501282,-1,-2,-7,-4,1,1,-2,0
1470331851501282,-3,-1,-1,-4,0,-2,-2,-2
1470331851510258,-1,3,6,4,0,-1,0,-1
1470331851510258,1,-3,-4,3,0,0,-1,0
1470331851525313,1,-1,6,2,-2,-2,-1,-3
1470331851525313,-1,-4,-8,-7,-3,0,-2,-1
1470331851526776,0,-3,-6,-6,-2,0,-2,-1
1470331851526776,-1,-1,-1,0,-1,-2,0,-1
1470331851547795,-1,0,1,2,-4,0,-1,0
1470331851547795,-1,3,8,-2,-1,-1,-3,-1
1470331851549294,-1,-3,1,-2,0,0,-2,-4
1470331851549294,-1,1,4,4,1,-1,0,-1
1470331851561304,0,-3,-6,8,-2,-1,-1,-1
1470331851561304,1,-3,-11,-15,-3,-2,-2,-2
1470331851570313,-2,-1,-1,0,-3,0,-1,-1
1470331851570313,-1,-3,2,-2,-1,-2,0,-2
1470331851585329,1,1,-2,7,2,1,0,2
1470331851585329,-1,0,11,6,0,0,-1,-1
1470331851586852,2,-3,-9,-3,0,-3,0,-1
1470331851586852,-1,0,6,3,-1,-1,0,-1
1470331851607845,-4,-3,-8,-5,-2,-2,0,0
1470331851607845,-1,-3,-6,-2,-1,0,-2,0
1470331851609346,-2,2,3,4,0,-1,-2,-1
1470331851609346,-2,-1,5,5,2,1,1,-2
1470331851621416,-1,0,0,-9,0,-1,-1,0
1470331851621416,0,0,-6,-2,-2,-1,0,-1
1470331851630365,-2,-1,2,-3,-2,-2,-1,0
1470331851630365,0,-2,-6,-5,-2,-2,-3,0
1470331851645392,-1,-1,3,2,-1,1,-1,-1
1470331851645392,-3,-2,-3,1,1,-3,-2,-3
1470331851646908,1,-2,-4,-3,-1,0,1,0
1470331851646908,-1,-2,-2,-5,-3,-3,-1,0
1470331851667899,1,-1,5,7,1,0,-3,-1
1470331851667899,1,1,12,6,-2,-1,0,-3
1470331851669452,-2,0,-6,-6,-1,-1,-2,0
1470331851669452,-3,-1,-4,-5,-1,-1,-1,-1
1470331851681441,-1,-2,-4,-4,1,-1,0,0
1470331851681441,-1,-2,0,5,-1,0,-3,-1
1470331851690420,-1,-4,-3,0,0,0,0,-1
1470331851690420,-2,-4,-11,-8,-3,-1,1,0
1470331851705433,1,3,18,12,-1,0,0,-1
1470331851705433,-1,0,0,-2,-1,0,0,-1
1470331851706934,-1,0,-3,3,0,0,0,-2
1470331851706934,-1,-1,-2,-5,-1,0,-1,-3
1470331851727485,-2,-1,-12,-12,-2,-3,0,-4
1470331851727485,0,-1,-1,-1,-2,-1,0,0
1470331851729489,-2,-2,2,-1,-2,-3,-2,-2
1470331851729489,-2,0,4,5,0,-2,-2,-2
1470331851741496,-2,-1,-4,-4,-1,-1,-1,2
1470331851741496,-1,-2,-2,-2,-2,0,0,-2
1470331851756510,0,-1,-5,-2,-1,0,0,-1
1470331851756510,-1,0,9,3,0,0,-2,1
1470331851765519,-3,-1,2,-3,-3,-2,0,0
1470331851765519,-2,-3,-8,-3,-1,-1,0,-1
1470331851767032,-1,-3,1,-2,-1,-1,-1,-1
1470331851767032,-1,-2,-5,-1,-1,1,-1,-2
1470331851787538,-1,-3,-12,-8,-3,-1,0,-3
1470331851787538,0,1,12,13,-1,-2,-2,0
1470331851789540,-1,1,8,-1,0,-1,-1,-2
1470331851789540,1,-1,-5,-2,-1,-2,-3,-1
1470331851801551,-1,-3,-3,-6,0,-1,0,0
1470331851801551,-1,-3,-10,-4,-2,-1,1,0
1470331851810068,-2,-2,-1,4,-2,0,-2,-1
1470331851810068,-1,2,7,3,-2,-1,-2,-2
1470331851825113,-1,-1,-2,-3,-2,-2,-1,0
1470331851825113,0,-3,-11,-7,1,-1,-1,-1
1470331851826573,-1,1,11,5,0,0,-1,0
1470331851826573,-1,-1,-11,-5,-4,-2,0,0
1470331851847648,-1,1,8,2,1,-1,-2,-3
1470331851847648,0,-2,3,3,0,-1,-1,-1
1470331851849095,-1,-1,-8,-7,-1,-3,-1,-2
1470331851849095,-1,-3,1,4,1,1,-1,-2
1470331851861608,0,-1,-7,0,-2,-1,-2,-3
1470331851861608,-3,-1,-5,-6,-1,-2,-1,-1
1470331851870618,-1,-1,-4,-4,-2,-3,-2,-2
1470331851870618,1,-1,7,8,2,-2,0,2
1470331851885125,0,-1,-1,0,0,1,0,0
1470331851885125,-2,-2,2,-1,-1,-1,-1,-2
1470331851886630,-2,-1,-4,-4,-2,-1,0,0
1470331851886630,0,-1,3,2,-2,-1,-1,-1
1470331851907650,-1,-3,-1,4,-1,0,-2,0
1470331851907650,-2,0,-5,-5,0,0,-1,0
1470331851909179,-2,0,-4,-5,0,0,-1,0
1470331851909179,-2,-2,-4,-2,0,-3,-1,-1
1470331851921162,-2,0,-6,-1,0,0,-1,-2
1470331851921162,-1,0,12,6,-2,-2,-2,-2
1470331851930166,0,0,5,2,0,0,-2,-1
1470331851930166,-1,-1,0,-3,-1,0,-1,0
1470331851945233,-1,-3,-6,-5,-2,-2,-1,-1
1470331851945233,-2,-4,-8,-7,-3,-1,-2,-1
1470331851946681,-2,-2,-6,-1,-1,1,-1,-1
1470331851946681,-2,2,8,-2,-3,-2,-1,-1
1470331851967700,0,0,1,-3,-2,0,-2,-1
1470331851967700,-1,-2,0,1,0,-2,-2,0
1470331851969211,0,-3,-5,-4,-1,-1,-1,0
1470331851969211,-1,-1,-3,-1,-2,1,-1,-4
1470331851990240,-2,-1,3,-4,-1,-2,-1,-1
1470331851990240,0,0,0,0,0,1,-1,-1
1470331851991763,-3,-1,-7,-4,-1,-2,0,-2
1470331851991763,-1,-2,-11,0,2,-1,-1,-1
1470331852005239,-2,4,22,1,-2,-4,-3,-1
1470331852005239,0,-1,-8,-3,-1,0,0,1
1470331852006735,-1,-2,-1,-1,-1,-2,0,-1
1470331852006735,-1,-4,-9,-4,-2,-1,-1,-1
1470331852027809,-1,-6,-9,-3,-1,0,-1,-2
1470331852027809,0,0,2,-2,-2,0,0,0
1470331852029255,0,-1,-4,2,-3,-1,-3,-1
1470331852029255,-2,1,12,-1,-1,-2,-2,-1
1470331852050318,2,1,-4,2,-1,-1,0,0
1470331852050318,-3,2,7,-1,-2,-1,0,-3
1470331852051775,-3,-2,-4,-5,-1,1,0,0
1470331852051775,0,0,1,1,-3,-3,-1,0
1470331852064787,-1,-2,-6,-7,1,-2,-2,-1
1470331852064787,1,-3,-5,0,0,-3,0,1
1470331852071334,0,-1,7,2,0,-2,0,-2
1470331852071334,-2,-2,-3,-1,-1,2,-1,-1
1470331852087856,0,-3,-3,1,1,0,0,0
1470331852087856,-2,2,-4,-4,-2,1,-1,-2
1470331852089354,-1,-1,5,3,-3,-2,-2,-2
1470331852089354,0,0,-6,-10,-1,1,-2,-1
1470331852110373,-3,-2,-3,0,-2,-1,-2,-3
1470331852110373,1,-3,0,3,0,0,0,0
1470331852111829,0,-2,-3,-2,-3,-3,0,1
1470331852111829,-1,0,0,1,-1,-1,0,-1
1470331852124845,-2,-4,-5,-2,-2,-2,-1,-1
1470331852124845,-1,-2,0,-2,2,-1,-1,0
1470331852131363,-2,-1,-6,0,-1,-2,-1,-2
1470331852131363,-2,-2,6,1,-2,-1,-1,-2
1470331852147892,0,0,-1,0,-1,0,0,-1
1470331852147892,-3,-2,-2,0,-2,-1,-1,1
1470331852149363,1,0,2,0,1,0,-1,-1
1470331852149363,0,3,-6,-6,-1,0,-1,1
1470331852170382,0,-2,1,1,-1,-1,-2,-2
1470331852170382,-2,-5,0,1,-3,-3,-1,-2
1470331852171909,0,0,-5,6,-1,1,-1,0
1470331852171909,-1,-1,-5,-8,0,-1,-1,0
1470331852184426,-3,-2,-2,-5,-3,-3,0,1
1470331852184426,0,-2,-4,1,2,1,-2,0
1470331852191401,-1,3,15,2,-1,0,0,0
1470331852191401,-2,-1,1,2,-1,-3,1,-1
1470331852207939,-1,0,2,4,-1,0,-1,-1
1470331852207939,-2,-1,-5,-3,-3,-2,-1,-3
1470331852209418,-1,-3,-7,-7,-1,2,-1,-1
1470331852209418,-1,0,1,5,-1,0,-1,0
1470331852229935,-1,-2,-3,-4,-1,-2,-1,1
1470331852229935,0,1,2,2,1,0,-2,-1
1470331852231937,-1,0,-2,-4,-2,-2,-1,-2
1470331852231937,-1,-2,-6,-2,-2,-1,0,-3
1470331852244497,-5,0,1,3,1,-1,-1,-2
1470331852244497,-1,1,-2,-1,1,-1,-1,0
1470331852251454,-1,-3,-1,-4,-2,-2,-1,-1
1470331852251454,1,-3,-1,-1,-1,-1,-2,0
1470331852267484,0,0,-2,-7,-1,0,-2,-2
1470331852267484,-1,1,1,4,-2,-2,-3,-2
1470331852269472,0,-4,-7,-5,1,-1,-2,0
1470331852269472,-2,-1,9,6,-1,0,-1,-2
1470331852290489,-1,0,-1,5,0,-2,0,-2
1470331852290489,0,-1,3,-4,-3,-1,0,-2
1470331852291991,1,-1,0,3,0,-1,0,0
1470331852291991,-2,-4,-14,-16,-1,-3,-2,1
1470331852304530,1,-2,-10,-6,-3,-1,-2,0
1470331852304530,-3,1,8,-1,-2,-3,0,-1
1470331852311531,-2,-1,3,2,-2,-2,-1,0
1470331852311531,0,-2,2,0,-1,-1,-2,-2
1470331852327575,2,-2,1,3,0,-1,-1,1
1470331852327575,1,-4,-14,-7,-3,0,-2,-1
1470331852329635,-3,-1,9,2,-2,1,-1,-1
1470331852329635,0,1,4,7,1,0,1,1
1470331852350577,0,-4,-4,-5,-2,-1,-1,-1
1470331852350577,-2,-1,-2,0,1,-1,0,-1
1470331852351546,0,-1,-1,-3,-2,-1,-3,-1
1470331852351546,-2,1,-7,-5,-1,1,-2,-1
1470331852364601,0,1,11,6,-1,-1,-1,-1
1470331852364601,0,0,5,3,1,-1,0,0
1470331852371565,0,-2,-10,-5,1,1,0,-3
1470331852371565,-1,-1,3,-1,-5,-4,-1,1
1470331852387605,-1,0,-2,-2,0,3,0,-2
1470331852387605,0,-3,-6,-4,-2,-2,-3,-2
1470331852394082,0,1,-3,-2,-2,-1,-1,-1
1470331852394082,-1,0,4,6,-1,0,-2,-3
1470331852410099,-4,-3,-8,-7,-1,-1,1,0
1470331852410099,-1,-1,0,-1,-2,-2,0,-1
1470331852411598,-1,1,11,4,-2,-2,-3,-1
1470331852411598,0,-2,-6,1,1,1,0,0
1470331852424114,0,1,4,1,-3,-2,-2,-1
1470331852424114,-2,-2,-11,-3,0,1,0,-1
1470331852433117,0,-5,-4,-5,-2,-2,-1,-1
1470331852433117,-2,1,10,3,-2,-3,-2,-2
1470331852447630,0,-2,-5,-2,0,-1,-2,0
1470331852447630,0,-2,-3,-4,0,1,0,0
1470331852449637,-1,-2,-1,2,1,-1,0,-1
1470331852449637,1,-2,-7,-4,-1,-1,-2,-2
1470331852469650,-3,1,3,0,-1,-1,-1,-1
1470331852469650,0,1,-1,1,-1,-2,1,-1
1470331852470152,-4,0,6,2,-2,-1,-2,-1
1470331852470152,-2,-3,-8,-5,0,0,1,0
1470331852492671,2,-2,2,-2,-3,-1,0,-1
1470331852492671,-3,-1,-7,-5,-1,-1,-3,-2
1470331852493696,-1,2,8,3,-2,-3,-1,-1
1470331852493696,-2,-1,0,3,0,-1,-2,-2
1470331852515244,1,0,-1,-2,-1,-1,-1,-1
1470331852515244,2,-2,-2,-4,-2,0,-1,-1
1470331852516191,-2,-4,-8,-4,-1,-1,1,-1
1470331852516191,0,-1,-1,-4,-1,-2,-2,-1
1470331852529703,-4,1,-5,-3,-1,0,-1,0
1470331852529703,-1,-1,8,2,-1,-2,-2,0
1470331852530204,-1,-3,-3,3,0,0,-1,0
1470331852530204,0,5,2,1,-3,0,-1,-1
1470331852552724,0,-4,-4,-5,0,1,-1,-1
1470331852552724,-1,1,-3,1,-1,-1,1,0
1470331852553225,-1,0,-10,-10,-2,-2,0,-1
1470331852553225,1,-2,1,3,0,-1,-1,0
1470331852567272,0,1,4,-2,-3,-2,1,0
1470331852567272,-2,-1,2,2,-2,-2,-2,-3
1470331852567739,2,-2,-4,-4,-1,-1,0,1
1470331852567739,0,-3,-8,-3,0,0,1,-1
1470331852589759,-2,1,8,3,-3,-1,-3,-2
1470331852589759,-1,-2,-3,-1,-1,-3,-2,-1
1470331852590261,1,-2,-2,-1,-2,-2,-2,-1
1470331852590261,-1,-2,-2,-3,-1,0,-1,-1
1470331852612806,-2,-3,-6,-2,0,2,1,0
1470331852612806,2,-2,6,2,0,1,-2,-2
1470331852613324,-3,-1,-9,-1,0,-1,-1,-1
1470331852613324,-2,-1,4,0,-2,-4,-2,0
1470331852627292,-1,-3,-4,0,0,0,-1,-2
1470331852627292,2,1,-3,-5,-1,0,-1,1
1470331852627792,-1,0,2,-3,0,0,-1,-2
1470331852627792,-2,-1,-1,3,-2,-2,0,1
1470331852649811,-1,1,1,2,-1,-2,-2,-3
1470331852649811,-1,-2,2,1,-1,-1,0,-3
1470331852650314,-1,-3,-1,-4,0,2,-1,-1
1470331852650314,-3,-5,-13,-2,-1,0,0,-2
1470331852672858,2,-1,2,-6,-1,-1,0,1
1470331852672858,-6,1,14,6,-2,-2,-2,-2
1470331852673333,2,-1,-4,-1,-2,-1,-1,1
1470331852673333,-1,-3,-1,0,-1,-1,-2,-2
1470331852687354,0,2,0,5,1,0,-2,-1
1470331852687354,-2,-3,-7,-10,0,-1,-1,-1
1470331852687846,-1,1,1,2,2,-2,-1,-1
1470331852687846,-1,-5,-3,-6,-3,-2,-3,0
1470331852709397,-1,0,0,4,-2,-3,0,-1
1470331852709397,-1,-2,2,2,-2,0,0,-1
1470331852710366,-3,-3,-2,-3,-2,-2,-2,-2
1470331852710366,-2,1,-1,-1,0,-1,1,0
1470331852732894,-2,-2,0,-1,-1,1,-1,0
1470331852732894,0,-2,-9,-2,-1,-1,2,-1
1470331852733402,-2,0,-3,-1,0,-1,-1,-3
1470331852733402,1,2,15,3,2,0,0,1
1470331852746915,-1,0,0,5,-2,-3,-2,-1
1470331852746915,0,-1,-7,-3,0,1,-2,0
1470331852747900,-1,-3,-10,-6,-3,0,-1,-1
1470331852747900,2,2,7,2,0,-1,-1,-3
1470331852769429,-2,-2,-6,-9,-1,1,-2,-3
1470331852769429,-1,-1,0,2,1,-1,-1,0
1470331852770420,-2,0,-6,-4,-1,-1,-1,-2
1470331852770420,-1,-1,-3,-1,-1,0,-1,-2
1470331852792992,0,-1,1,-1,-2,-2,-1,0
1470331852792992,0,-2,1,0,-2,1,-1,3
1470331852793471,-1,0,-2,1,-1,-3,-2,0
1470331852793471,-2,1,0,-4,-1,0,0,0
1470331852807009,-1,-2,-1,-2,-1,-2,-1,-2
1470331852807009,-1,0,4,1,-1,-3,-2,-2
1470331852807570,1,1,1,2,-3,-1,0,-1
1470331852807570,-3,-4,2,1,0,-2,-1,0
1470331852829516,-2,0,2,2,2,-1,-2,-2
1470331852829516,1,-4,-5,-5,-1,-1,-1,-2
1470331852830474,-5,-3,1,1,0,0,-1,-1
1470331852830474,1,-2,-10,-6,-3,0,-3,-2
1470331852852519,-2,-2,-2,-2,-1,0,0,0
1470331852852519,-1,1,2,0,0,-2,-1,-2
1470331852853545,-1,0,3,1,-1,0,-1,-1
1470331852853545,-1,-3,-12,-9,-1,-1,-1,-1
1470331852867008,-1,2,11,7,-2,-2,1,-1
1470331852867008,-1,0,-7,-3,-2,-2,-1,-2
1470331852868009,-2,-1,5,0,-1,0,0,1
1470331852868009,-3,0,-2,-3,-2,-2,-2,0
1470331852889542,1,-4,-10,-6,-1,-2,-2,0
1470331852889542,-1,2,5,2,-2,-2,-2,-1
1470331852890032,0,-3,-8,-3,-1,-1,0,-1
1470331852890032,0,0,2,2,-1,-1,0,0
1470331852912591,-3,0,0,-1,0,-2,0,1
1470331852912591,-1,-2,-1,1,-1,-1,0,0
1470331852913549,2,-3,1,-6,-1,0,-2,-1
1470331852913549,-3,-2,-1,2,0,-2,0,0
1470331852927062,-1,0,-2,1,-1,1,-1,-2
1470331852927062,-2,-3,2,-4,-2,0,0,0
1470331852927579,0,3,-4,1,-1,0,-1,-2
1470331852927579,0,-2,-3,-6,-1,-2,-1,-2
1470331852949625,1,-1,7,3,-1,0,-1,0
1470331852949625,0,-1,-8,-4,0,0,0,-2
1470331852950085,-1,-1,5,3,-2,-1,0,-1
1470331852950085,-3,-1,-2,0,-2,-1,-1,0
1470331852972609,-3,-2,-8,-7,-1,0,-1,0
1470331852972609,0,0,-2,0,-1,-1,-2,0
1470331852973606,0,-1,-6,-4,0,-1,-1,-1
1470331852973606,-3,1,11,5,2,1,0,-2
1470331852987210,-1,-2,-5,-4,-2,-2,-1,-1
1470331852987210,-1,-1,0,-1,0,1,-1,-2
1470331852987615,-1,-2,-6,-2,-2,-1,-2,-1
1470331852987615,0,-2,3,-3,-2,-1,-1,-1
1470331853009719,0,-3,-4,1,-2,-1,2,-2
1470331853009719,0,1,0,2,-2,-4,-2,0
1470331853010642,0,0,1,0,-1,0,-1,1
1470331853010642,0,-1,-2,-3,-1,-1,-3,-2
1470331853032683,0,-2,-3,-2,-3,0,-3,1
1470331853032683,0,-4,-3,-2,-2,-2,0,-1
1470331853033682,0,3,-2,-1,0,-2,0,-2
1470331853033682,-1,2,5,1,-2,0,-2,-2
1470331853047236,-2,-1,2,1,1,-2,0,-1
1470331853047236,-3,-2,-3,0,-2,-2,-1,1
1470331853047669,-1,-3,1,-1,-1,0,-1,-1
1470331853047669,-1,0,-8,-2,-2,-1,-1,-2
1470331853069712,0,-4,-4,-2,-1,0,-2,-3
1470331853069712,0,0,2,0,1,-3,-1,-3
1470331853070194,-1,-3,1,-3,-1,-1,-3,-1
1470331853070194,1,1,-13,-3,1,0,0,1
1470331853092725,-2,-2,8,-1,-2,-2,-2,-4
1470331853092725,-2,-1,-3,-1,-1,0,-1,-2
1470331853093711,-2,-2,-1,1,0,0,0,-1
1470331853093711,1,-3,-3,2,-1,-2,-3,-1
1470331853107223,1,-2,-6,-2,0,-2,-3,0
1470331853107223,-1,0,1,-2,-1,-3,0,-2
1470331853107724,0,-3,-1,0,-1,-2,-1,-3
1470331853107724,-2,-1,1,-5,-3,-1,-1,0
1470331853129743,-2,1,5,10,1,0,-2,-1
1470331853129743,-2,4,13,10,0,1,-1,-2
1470331853130244,-1,-5,-5,-7,-3,-3,-1,0
1470331853130244,-2,-4,-9,-7,-1,1,0,0
1470331853152796,-2,0,-6,-7,-1,-2,-1,1
1470331853152796,1,-1,2,0,-1,-1,-2,-1
1470331853153265,0,3,4,6,-1,-1,-1,-1
1470331853153265,0,-2,-1,-1,0,0,-1,0
1470331853167309,-3,-2,-15,-4,-3,-3,0,-3
1470331853167309,-1,-2,-2,-3,-2,0,-1,-2
1470331853167777,0,0,6,4,-1,-1,0,0
1470331853167777,-1,1,-2,2,0,-1,-2,-1
1470331853189312,1,2,3,0,0,-2,-2,-1
1470331853189312,-2,-2,-6,-6,0,0,-2,-1
1470331853190298,-2,1,-2,-3,-2,0,-1,-2
1470331853190298,-2,0,2,1,-1,-1,0,-1
1470331853212822,1,0,-7,-3,-1,0,-1,0
1470331853212822,1,-1,3,3,-1,-2,-1,-1
1470331853213319,-2,-5,-5,-5,0,-1,-1,-2
1470331853213319,0,3,9,6,1,-1,0,-1
1470331853226385,-2,0,1,-5,-2,-1,-3,0
1470331853226385,-1,-1,-6,-2,-1,0,-3,-1
1470331853234392,-3,-3,-4,-4,-1,-1,-1,1
1470331853234392,0,-1,-4,1,-1,-2,-2,-3
1470331853249851,-1,-2,10,3,1,0,-1,0
1470331853249851,-2,-4,-9,-5,-2,0,-1,1
1470331853250352,0,3,5,2,-2,-1,-1,-2
1470331853250352,-1,-1,-1,-2,0,3,-2,-3
1470331853272872,-1,-3,-11,-7,-2,0,0,0
1470331853272872,-2,-1,6,1,-1,-1,-1,-2
1470331853273373,-1,-2,-5,-2,0,-2,-1,0
1470331853273373,-1,-2,1,-1,-2,-1,0,-2
1470331853287385,0,-3,-1,-2,-1,1,-1,0
1470331853287385,0,-3,-12,-6,-2,2,0,1
1470331853287886,-1,0,8,5,-1,1,-1,-4
1470331853287886,0,-1,3,-4,-1,-1,-1,-1
1470331853309407,-1,-1,-7,-1,-1,-1,-1,-3
1470331853309407,-4,-3,-1,1,-2,-1,-1,-2
1470331853310405,-2,1,-3,-3,0,0,-2,0
1470331853310405,0,-1,4,2,-2,-2,-2,-1
1470331853332946,-1,-1,-6,-4,-2,-3,0,0
1470331853332946,1,-1,0,1,-1,-2,0,-3
1470331853333427,-3,-1,-6,-7,-3,-2,-1,-2
1470331853333427,-2,-1,0,3,0,0,-2,1
1470331853346485,-1,-2,2,2,0,-2,-1,-2
1470331853346485,-1,0,-4,0,1,-1,0,-3
1470331853354463,-1,-3,2,-2,-1,0,0,2
1470331853354463,-3,2,5,1,-2,-1,-1,-3
1470331853369483,0,0,2,0,-1,-3,0,-2
1470331853369483,0,-2,-4,-3,0,-2,-2,2
1470331853370458,-2,-1,3,8,-2,-1,-1,-2
1470331853370458,-2,-4,-9,-13,-1,-1,-3,0
1470331853392534,-2,2,7,5,1,1,0,2
1470331853392534,-2,-1,-3,-5,-1,-2,-2,1
1470331853393480,1,-1,-6,-2,-2,-2,-1,-3
1470331853393480,1,-1,-3,0,-1,-2,0,-1
1470331853407021,-2,-3,6,5,-3,-2,0,-2
1470331853407021,0,-2,-8,-5,1,1,0,1
1470331853407993,0,0,9,2,0,-1,-1,-2
1470331853407993,-2,-1,0,1,-2,-3,0,-1
1470331853429557,1,-2,-3,-4,1,1,-1,-1
1470331853429557,-2,0,2,2,-3,-2,-2,-3
1470331853430512,-1,-1,-3,-1,-1,1,-1,0
1470331853430512,-1,-1,-2,-1,-1,-1,0,-1
1470331853452575,0,2,-2,-2,-4,-1,-2,-3
1470331853452575,-1,-1,5,0,-2,-1,-1,-2
1470331853453533,0,1,-5,-3,2,0,0,-1
1470331853453533,-2,-3,1,-1,-1,-2,-1,-1
1470331853467073,-2,-2,-3,0,0,1,0,0
1470331853467073,-2,-1,-1,4,-2,0,-2,-2
1470331853467550,-1,-1,-4,-7,-2,-1,-1,-1
1470331853467550,-1,-4,-8,0,0,-2,-1,0
1470331853489607,-1,1,-9,-4,-2,-2,0,-1
1470331853489607,-1,1,19,8,-2,-2,-2,0
1470331853490110,1,3,-2,0,-1,-1,-1,-2
1470331853490110,-1,-1,-3,0,-1,-2,-2,-2
1470331853512587,0,-3,-10,-5,-1,-3,0,0
1470331853512587,-2,-3,-7,-9,-1,0,-1,-2
1470331853513589,-1,-1,3,2,-3,-3,-1,-1
1470331853513589,-2,0,-4,-1,0,0,-2,-1
1470331853526600,0,2,11,2,-3,-1,-1,-2
1470331853526600,-1,2,-4,2,-1,-2,0,-4
1470331853534607,0,-4,-3,0,-1,-1,-1,-1
1470331853534607,-4,-1,1,-1,-2,-1,0,-2
1470331853557683,-2,-2,-2,-3,-1,1,-1,0
1470331853557683,0,-2,-11,-9,-1,0,-1,-1
1470331853558642,-2,-1,2,4,0,0,-3,-1
1470331853558642,0,0,11,3,-2,-3,-2,0
1470331853572687,-2,-1,-3,3,-2,-1,-1,-2
1470331853572687,1,-1,0,0,-2,-1,0,2
1470331853573641,-2,-4,-11,-5,-2,0,0,-1
1470331853573641,1,-2,-7,-7,-1,0,-1,-3
1470331853586691,0,1,9,-2,0,-1,-2,-2
1470331853586691,1,-3,-7,-2,-2,-1,0,-1
1470331853594681,0,-2,3,-2,0,-4,-1,-1
1470331853594681,0,0,1,3,-2,0,-2,1
1470331853609674,-1,-1,-8,-4,-1,0,2,-2
1470331853609674,-1,1,6,2,-1,-2,0,-2
1470331853610175,1,-4,-2,-1,-1,0,-1,1
1470331853610175,-1,-4,-4,-3,-2,-1,-2,0
1470331853632695,-1,0,-12,-4,0,0,-2,-1
1470331853632695,-1,0,17,3,0,0,-1,-1
1470331853633695,-2,1,4,7,-1,-2,-1,-1
1470331853633695,0,2,4,0,0,-1,-1,-1
1470331853646232,0,-4,-9,-4,-1,-1,-2,1
1470331853646232,0,-1,-8,-3,-2,-2,-2,0
1470331853662220,-2,-4,-3,-1,1,-1,-1,0
1470331853662220,-1,-4,-6,-4,-2,-1,-2,-2
1470331853669728,-3,1,11,5,-2,-3,-3,-2
1470331853669728,-2,-3,-4,-1,0,-2,-1,-1
1470331853670230,-2,-1,-2,-5,-3,-2,-1,-1
1470331853670230,0,0,-5,-1,0,-1,-1,0
1470331853692773,-1,1,-2,-3,-1,-1,0,1
1470331853692773,-1,-2,-5,-1,-2,0,-1,0
1470331853693250,1,-3,-1,-2,-2,-1,0,0
1470331853693250,-2,0,1,1,-2,-2,0,-3
1470331853706288,1,-2,-4,-3,-3,-2,0,-2
1470331853706288,-1,0,4,2,-1,-1,-2,-3
1470331853714796,0,0,-4,1,0,0,-2,-3
1470331853714796,-3,1,4,4,1,1,1,0
1470331853729281,0,-4,-9,-2,0,1,0,-1
1470331853729281,-3,1,3,-2,-3,0,-2,0
1470331853730282,0,-2,3,-1,-2,-1,-1,1
1470331853730282,-1,-1,-3,-2,0,-2,-2,-1
1470331853752803,-2,-1,1,4,-3,-1,-1,-1
1470331853752803,-1,-5,-9,-3,1,2,1,0
1470331853753303,-1,2,-3,-3,0,-2,-2,-3
1470331853753303,0,-1,2,-4,-2,0,0,-2
1470331853766331,-1,-2,-2,-2,-1,0,-1,0
1470331853766331,0,4,6,3,-1,-2,-3,-1
1470331853774921,0,-2,-1,1,-1,0,0,0
1470331853774921,0,-3,-6,-1,2,-2,0,-1
1470331853789855,-4,-5,2,-2,-1,0,-1,-2
1470331853789855,0,3,-4,1,-1,-2,-1,-1
1470331853790336,0,-2,-6,-3,-2,-2,-1,-2
1470331853790336,2,-1,-3,-5,-2,-1,-1,-1
1470331853812911,0,-4,-8,0,0,-1,-2,0
1470331853812911,-1,1,13,3,1,0,0,0
1470331853813357,-2,-1,-7,-4,-1,0,-1,0
1470331853813357,0,0,8,8,-2,0,-1,-2
1470331853835413,0,-1,0,-4,-1,-2,-1,-2
1470331853835413,-2,-4,-12,-5,-1,-1,-1,-2
1470331853835877,-1,1,1,2,0,1,-1,-2
1470331853835877,-5,-1,0,-3,-2,-1,-1,0
1470331853849434,-2,-1,3,3,1,0,-1,-1
1470331853849434,0,-3,-5,-4,-2,-2,-1,0
1470331853850390,0,-2,-1,-3,-2,-2,-1,0
1470331853850390,-3,-2,-2,-1,-1,-2,-2,-1
1470331853872910,1,1,0,0,-1,-2,-2,-1
1470331853872910,1,0,-5,-2,-2,-1,-1,-1
1470331853873410,-2,0,5,2,0,0,-1,0
1470331853873410,1,-3,3,-3,-3,-2,0,-1
1470331853895431,0,1,1,-1,-1,-1,-2,-2
1470331853895431,-1,-3,-7,-3,-2,-1,-1,0
1470331853895952,-1,0,-3,-4,-1,-3,-2,-1
1470331853895952,-2,0,2,6,-2,-1,-1,-1
1470331853909498,1,-1,5,2,0,2,-1,0
1470331853909498,1,-3,-4,-5,-1,-3,-2,-3
1470331853910444,-1,0,-2,0,-1,-2,-1,-2
1470331853910444,-1,-2,-7,-7,0,-2,0,-1
1470331853932464,-1,-1,-2,-3,-2,-4,-1,-2
1470331853932464,-1,0,0,2,0,1,0,1
1470331853933466,-1,-1,5,0,-2,0,0,-2
1470331853933466,0,2,-2,2,-2,-2,-3,0
1470331853955484,-1,0,1,-3,-2,-2,-2,1
1470331853955484,-1,-3,-2,-4,-2,-2,-2,-3
1470331853955985,1,-1,-9,-4,-2,1,-2,-1
1470331853955985,1,0,9,-1,-1,-3,-2,-1
1470331853969497,-3,-2,2,0,-1,0,-1,0
1470331853969497,-3,-2,0,-3,-1,-1,-1,-1
1470331853969997,-1,-1,-4,-1,0,-2,1,-2
1470331853969997,-1,-3,-8,-4,0,0,-3,-1
1470331853992077,-3,-2,-2,1,1,-1,-1,-2
1470331853992077,0,2,-1,-2,0,-1,-1,-1
1470331853993055,-2,-1,7,4,-1,-1,-1,-1
1470331853993055,-1,-1,-7,-4,-1,1,0,0
1470331854015551,-3,-1,6,0,-1,-2,-2,-1
1470331854015551,1,-4,-17,-8,-2,-1,1,0
1470331854016039,-2,-2,8,3,-3,-1,-2,-2
1470331854016039,0,0,4,1,-2,-1,-1,0
1470331854029606,1,2,-6,1,0,-1,-2,-2
1470331854029606,-2,-1,-3,-1,-1,-2,-2,-2
1470331854030551,-1,2,-1,-7,0,-2,-1,-2
1470331854030551,-4,-2,-6,-2,1,-1,-1,-2
1470331854060134,-2,0,1,-2,-1,-2,0,-1
1470331854060134,-1,-3,1,6,-2,-1,-2,-1
1470331854061087,-1,-4,-4,-7,1,-1,-1,0
1470331854061087,1,0,1,1,-3,-1,-1,-1
1470331854075147,1,-4,-8,-5,-2,-1,0,0
1470331854075147,-1,6,17,8,-1,-1,-2,-3
1470331854076095,-2,-3,-5,-2,0,-1,-1,1
1470331854076095,-1,-2,-1,-2,0,-1,-1,-1
1470331854089632,1,1,-5,-4,-1,-1,0,1
1470331854089632,-2,-3,-5,-5,-3,1,-1,0
1470331854090605,0,-3,4,2,-2,-1,-2,-1
1470331854090605,2,0,-9,-4,-1,-1,-2,0
1470331854112671,-1,-2,2,2,-2,-1,0,0
1470331854112671,-1,-1,2,0,-2,0,-1,-3
1470331854113665,-1,0,-5,-4,-1,-1,-2,-1
1470331854113665,-2,-1,0,0,1,0,-1,-3
1470331854135645,0,2,3,0,-3,0,-1,-1
1470331854135645,0,-3,-3,-2,0,0,1,-1
1470331854136146,-3,0,-5,-4,-3,-1,-1,-2
1470331854136146,-2,-1,-6,-1,-2,-2,-1,0
1470331854149659,-2,-2,6,2,0,1,-1,-3
1470331854149659,0,-2,0,-3,0,-2,-1,-1
1470331854150159,0,-2,-9,-5,-3,-2,-2,1
1470331854150159,-1,0,14,5,-1,1,0,1
1470331854172697,-1,-1,-6,-2,-1,-1,-1,-1
1470331854172697,-3,0,8,2,-2,0,-1,-1
1470331854173680,1,-1,-5,-2,-2,0,-1,-1
1470331854173680,-4,-2,-10,-6,-3,-2,-2,-1
1470331854195224,-1,-3,-5,-3,-1,-2,0,-2
1470331854195224,-2,0,0,2,0,0,0,-1
1470331854196200,-1,0,2,2,0,-1,-1,0
1470331854196200,-2,-3,-3,-4,-1,-1,-1,-1
1470331854209712,-2,-3,5,1,-1,-1,-1,0
1470331854209712,-2,-2,-7,-3,0,-2,-2,0
1470331854210213,-1,-3,2,-1,-1,-1,0,-2
1470331854210213,2,-1,-3,-1,1,-1,-2,-1
1470331854232789,-2,1,2,2,-1,-3,-2,-1
1470331854232789,-1,1,-2,-2,-3,-2,-2,-2
1470331854233734,0,1,6,3,-1,1,1,1
1470331854233734,-2,-3,-3,0,2,-1,0,-2
1470331854255253,0,0,-4,-2,-1,0,-1,-2
1470331854255253,-2,-2,-6,-3,1,-2,-2,0
1470331854255769,-3,0,11,6,0,-2,-2,-2
1470331854255769,1,2,5,-2,0,-1,1,0
1470331854269766,-1,-4,-4,1,0,1,-1,-2
1470331854269766,-1,-4,-8,-3,-1,-2,2,-1
1470331854270267,-2,0,-9,-7,-1,-2,1,0
1470331854270267,-2,0,9,4,-2,-2,-2,-1
1470331854292812,-2,0,-1,-2,-1,0,0,3
1470331854292812,-3,-2,0,-3,1,0,-1,0
1470331854293287,1,-3,-2,0,0,-1,-2,-2
1470331854293287,0,-1,0,-4,-2,-1,-1,-2
1470331854315326,-1,1,1,2,0,-1,-1,0
1470331854315326,-1,-1,2,1,-2,1,-2,1
1470331854315808,0,-2,5,0,-2,-1,0,1
1470331854315808,1,-1,-11,-5,-2,-1,-1,-2
1470331854329820,-1,-1,1,-2,-1,-3,-1,0
1470331854329820,1,-1,7,4,-1,-1,-2,0
1470331854330321,-2,0,-3,1,1,1,-1,-2
1470331854330321,-2,-1,-1,1,-1,0,-1,0
1470331854352350,-1,-2,-9,-6,-2,0,-1,-3
1470331854352350,1,-1,2,1,-2,0,0,-2
1470331854352841,0,-1,-3,-4,-3,-1,-2,-1
1470331854352841,-3,-3,-7,-1,-1,0,1,0
1470331854375364,-3,0,3,3,-2,-2,0,1
1470331854375364,-1,-1,-4,-5,0,-1,-1,-1
1470331854375862,-1,-1,7,7,0,-3,-3,-1
1470331854375862,-2,-2,-4,-2,-3,-1,-1,-2
1470331854389390,1,1,0,-1,1,-1,-1,-3
1470331854389390,-2,-2,0,0,0,-1,-2,-3
1470331854390376,0,-3,-6,-3,0,0,1,0
1470331854390376,0,-3,-4,-2,-1,-1,-2,-1
1470331854412896,0,0,7,2,-3,-1,-2,0
1470331854412896,0,1,-4,0,-1,-1,-2,0
1470331854413396,-2,-2,-7,-1,-1,-2,-1,-2
1470331854413396,1,-3,5,-2,-1,-2,0,0
1470331854435469,-3,0,-5,-3,-3,-1,-1,0
1470331854435469,1,-2,-11,-8,-4,-2,-1,-1
1470331854435916,-2,3,12,8,-1,1,-1,-2
1470331854435916,-1,-2,-6,-2,-1,-2,0,-2
1470331854448977,0,-1,0,-2,1,0,-1,-2
1470331854448977,-3,0,0,0,0,-1,-2,1
1470331854456934,-2,-5,-12,-7,-2,1,-1,0
1470331854456934,0,-2,-3,-1,-2,-1,0,-1
1470331854472964,-1,-1,8,3,-3,-3,-2,-2
1470331854472964,-3,-4,-4,1,2,-1,-1,-1
1470331854473469,0,0,-6,-4,-3,-2,-1,1
1470331854473469,-1,0,5,5,-1,-2,-1,-1
1470331854495469,1,-2,3,-6,-3,-2,-2,-2
1470331854495469,-1,-2,0,-1,0,0,1,-1
1470331854495970,1,0,-6,-5,-2,-2,0,-3
1470331854495970,0,1,2,0,-1,-2,1,0
1470331854509073,-1,-1,-6,1,-3,-2,-2,0
1470331854509073,-1,0,-1,4,-1,1,-1,-2
1470331854517043,-1,-5,0,-6,0,-1,-1,0
1470331854517043,1,1,3,1,-1,0,-1,1
1470331854532531,-1,-1,-4,-1,-1,1,0,-2
1470331854532531,-1,1,4,-3,-2,-1,-1,-2
1470331854533503,-1,-1,-3,0,-2,-2,-1,-1
1470331854533503,-1,1,-2,-4,0,0,-1,0
1470331854555567,-1,-5,-5,-3,-2,-3,-2,-1
1470331854555567,3,3,-1,2,1,-2,1,-2
1470331854556024,0,2,4,1,-1,-1,-2,0
1470331854556024,-1,-3,0,-1,0,1,-3,0
1470331854569055,2,0,-6,-3,0,1,0,-1
1470331854569055,-1,-1,0,1,-1,-2,-1,-3
1470331854577087,-2,-2,-2,-2,1,-2,-2,-1
1470331854577087,-1,-2,1,0,-2,-1,0,-1
1470331854592060,-2,-1,-6,-1,-1,1,0,1
1470331854592060,-1,-3,1,-3,-1,-2,0,0
1470331854593056,-1,-1,-5,-1,2,-1,1,1
1470331854593056,-4,1,8,3,-3,-2,-2,-3
1470331854615577,0,-1,-3,-3,-1,-2,-1,-2
1470331854615577,-2,0,7,0,-3,-1,-2,-1
1470331854616078,-1,0,-7,-1,-1,0,-1,-1
1470331854616078,2,-2,-6,-1,-1,-1,-1,0
1470331854629126,0,3,-2,-4,1,-2,-2,-2
1470331854629126,-3,-3,0,-2,-3,-2,-2,1
1470331854637115,-3,-4,-6,-3,-2,-3,-1,-2
1470331854637115,0,-2,3,-5,-2,-1,1,-2
1470331854652167,-3,0,11,6,-1,-1,-2,-1
1470331854652167,2,-1,-5,-1,-1,-2,-2,0
1470331854652613,1,-1,0,1,-1,-1,-1,0
1470331854652613,-3,0,-10,-3,-2,-1,-1,-1
1470331854675132,-2,-2,5,1,-2,-2,0,-1
1470331854675132,0,0,-5,-5,-1,-1,-1,0
1470331854676131,0,0,-1,1,-2,0,-1,-1
1470331854676131,0,0,9,5,1,-2,0,-1
1470331854689142,-1,-2,-5,-2,0,0,-1,-1
1470331854689142,-2,-1,-2,0,-1,-2,-1,-4
1470331854697204,-3,-3,-2,-3,0,-1,-1,-2
1470331854697204,-2,1,-1,-3,-3,-3,-1,-2
1470331854712170,-1,0,0,-2,-1,-2,-1,-1
1470331854712170,-3,-2,2,-2,-3,0,0,0
1470331854713164,-1,-2,-2,-2,-2,-1,0,0
1470331854713164,0,-1,-1,2,-1,-1,-1,-2
1470331854735184,1,0,-3,0,0,-1,1,0
1470331854735184,-3,-5,-3,-1,-1,-2,-1,-2
1470331854736186,-3,2,2,1,-1,-1,-2,-1
1470331854736186,-2,-1,-1,0,-1,-1,-2,1
1470331854749261,-2,-2,-4,-3,-1,-1,0,-1
1470331854749261,3,2,-3,-2,0,-2,1,0
1470331854757286,1,-1,-2,-5,-2,1,-1,0
1470331854757286,-2,-1,1,0,0,-3,-1,0
1470331854772217,-1,-2,-7,-3,0,-1,-1,-2
1470331854772217,-2,-2,5,1,-2,-2,-1,-1
1470331854772717,-1,2,5,6,1,-1,0,0
1470331854772717,-1,-1,-8,-7,-1,-1,-3,-2
1470331854795242,-1,-2,-6,-2,-1,0,0,-1
1470331854795242,-2,0,4,-2,-1,0,-1,-2
1470331854796240,-1,-3,1,-2,-3,-2,0,-2
1470331854796240,0,-2,-6,-1,-1,-2,-1,0
1470331854817766,-1,1,-1,-2,0,1,-1,0
1470331854817766,0,0,0,-1,-3,-1,-1,0
1470331854818260,1,-4,-3,-4,-1,-2,0,-2
1470331854818260,0,-1,-6,-3,-2,-2,-3,-2
1470331854832273,0,-1,7,1,-1,-1,-2,-1
1470331854832273,0,0,-4,2,0,-1,0,-2
1470331854832777,-4,-1,1,-1,1,-1,1,-2
1470331854832777,-1,0,-4,-1,-1,0,1,-1
1470331854855334,1,-1,-6,-3,-1,-1,-1,-1
1470331854855334,2,-1,3,1,-1,0,0,1
1470331854855793,-1,-1,2,1,-1,-1,-2,-2
1470331854855793,-2,-2,-8,-3,-2,0,-2,-1
1470331854877863,-3,-4,7,3,0,1,-1,1
1470331854877863,1,-2,-12,-7,-2,-1,-1,0
1470331854878375,-2,3,15,3,-1,-1,0,1
1470331854878375,-1,-3,-5,-2,0,0,0,0
1470331854891880,-1,-1,1,0,0,-1,-2,-3
1470331854891880,0,-3,-6,-1,-1,0,-2,-3
1470331854892858,0,-1,-6,-1,-2,-2,-1,0
1470331854892858,-2,-1,1,0,-1,0,0,-2
1470331854915379,-2,-1,3,2,-2,-2,0,-2
1470331854915379,-1,1,1,-3,-1,1,-2,-2
1470331854915868,-1,-3,-4,0,-2,-2,-2,-1
1470331854915868,-1,-2,4,-1,-1,-1,0,0
1470331854937958,-2,0,-7,-7,0,0,-2,-1
1470331854937958,-4,0,3,3,-1,-3,0,0
1470331854938394,0,0,-3,-4,-1,0,-2,-1
1470331854938394,-2,-1,1,1,1,0,-2,-2
1470331854951925,0,-3,-4,0,-3,-1,-3,-2
1470331854951925,-5,-3,-11,-5,-2,-2,0,-3
1470331854952914,-2,-4,0,-4,-1,-2,0,-1
1470331854952914,-1,1,12,6,-1,-1,-1,-2
1470331854982907,0,1,-5,-2,0,-2,-1,-1
1470331854982907,-1,-3,-1,1,0,0,-2,2
1470331854983411,-2,-4,-8,-2,-1,-2,-1,-2
1470331854983411,0,-4,-3,-6,-2,-3,-2,-1
1470331854997962,-2,1,7,5,0,-1,-2,1
1470331854997962,-2,0,-4,-1,-1,-1,0,-1
1470331854999422,-1,0,-2,0,0,-2,-1,-2
1470331854999422,1,0,-2,-1,1,0,-2,-1
1470331855011443,0,-2,-10,-4,-2,0,-1,-2
1470331855011443,-1,0,7,3,1,-2,1,-1
1470331855020441,0,-1,-3,-1,-2,1,-1,1
1470331855020441,-2,-1,-5,-1,-3,0,0,0
1470331855035474,-2,-1,6,5,0,1,0,-1
1470331855035474,1,0,-1,-3,0,-2,-1,0
1470331855037007,-2,0,0,-2,-1,-2,-2,-1
1470331855037007,-1,-4,-6,0,0,0,0,-3
1470331855057475,-3,-3,-8,-8,-1,-1,0,2
1470331855057475,-1,1,11,5,-3,-2,-3,-2
1470331855059477,2,1,-10,-5,0,-1,-1,-1
1470331855059477,-3,3,7,1,-2,-1,0,-1
1470331855071570,0,1,-3,1,-3,-4,0,-2
1470331855071570,-3,-3,2,-2,-2,-1,0,-1
1470331855080496,1,-2,-5,-1,-1,-2,1,-1
1470331855080496,-3,-2,-7,-2,1,0,-1,-2
1470331855095508,-1,-2,2,-4,-2,0,0,1
1470331855095508,0,0,-1,-1,0,-1,0,-1
1470331855097009,0,4,9,5,-1,-4,-2,-1
1470331855097009,1,-4,-7,-3,-1,0,-1,0
1470331855118028,0,0,2,0,-1,1,0,0
1470331855118028,-1,-3,-7,-4,0,0,-2,-1
1470331855119530,-3,-2,0,1,0,0,0,-1
1470331855119530,0,0,-5,-4,-3,-3,-1,-1
1470331855131541,0,-2,3,1,-1,-2,-2,-2
1470331855131541,1,-3,-7,-4,-2,-1,1,-1
1470331855140548,0,0,4,2,0,0,-2,0
1470331855140548,1,2,4,4,0,-1,1,-1
1470331855155565,-1,-2,-3,-3,-1,0,-2,-2
1470331855155565,-1,-2,-4,-1,-1,-1,-2,-1
1470331855157063,-1,-2,-4,-4,-3,-2,-1,-2
1470331855157063,-2,-3,-4,-5,-3,-1,-1,0
1470331855177610,-2,0,-2,-2,1,-1,1,-1
1470331855177610,0,1,2,4,-2,-2,-2,0
1470331855179584,-1,0,-4,-1,0,-1,-2,0
1470331855179584,-2,-1,6,2,1,-1,-2,-1
1470331855191594,-1,-1,-2,-1,-1,-1,-1,-1
1470331855191594,-1,-2,-5,-4,-2,0,0,0
1470331855200624,-2,-1,-4,-3,-1,0,1,-1
1470331855200624,-2,-3,-1,-1,0,-3,0,-1
1470331855223131,0,1,0,-3,-1,-2,-1,-1
1470331855223131,-2,-1,-3,1,-2,-2,-1,-1
1470331855224624,-1,2,6,4,-2,0,-1,0
1470331855224624,-2,-1,-6,-4,1,0,-1,0
1470331855237637,-1,-2,-8,-6,0,0,0,0
1470331855237637,0,-1,7,-1,-1,-2,0,-2
1470331855239140,-3,-2,-2,-4,0,0,-1,0
1470331855239140,0,0,1,1,-1,0,0,-1
1470331855251648,0,0,3,1,-2,-2,-2,0
1470331855251648,-1,0,-6,-2,0,-2,-3,-2
1470331855260657,0,-3,2,-2,-1,-1,-1,-1
1470331855260657,-2,-1,-10,-8,-2,0,-1,-2
1470331855275170,-3,0,7,6,-3,-2,0,0
1470331855275170,1,0,-4,0,0,0,0,-1
1470331855276672,1,-2,0,0,-1,-1,0,1
1470331855276672,-2,-2,0,-2,-1,-1,-1,-1
1470331855297690,0,-3,-8,-5,-1,-3,-1,-2
1470331855297690,-2,4,11,4,-1,-1,-1,-2
1470331855299191,-3,-4,-5,1,-4,-1,-1,-1
1470331855299191,0,-1,-2,-2,0,-1,-1,-1
1470331855311226,-1,-1,0,0,0,-2,-2,-1
1470331855311226,-2,-3,-7,-5,-1,0,0,-1
1470331855320236,-1,1,5,1,0,-1,-2,-4
1470331855320236,0,2,8,1,-2,-2,-2,-1
1470331855335252,-3,-2,-5,-3,-2,0,-1,-2
1470331855335252,-2,-6,-8,-5,-1,1,-2,0
1470331855336724,-1,-1,-4,-1,-2,-1,-2,-1
1470331855336724,0,0,-5,-1,-1,-1,-1,-1
1470331855357802,-1,0,6,2,-1,-3,-1,-1
1470331855357802,-1,-1,2,-1,0,-1,-2,1
1470331855359245,-2,-1,-4,-2,1,0,0,-1
1470331855359245,1,-1,1,-1,-1,-2,-3,-1
1470331855371284,-2,-3,-4,-1,-2,1,-1,-1
1470331855371284,0,-3,-4,-4,-2,-1,-1,-1
1470331855380311,0,-1,2,-3,-3,-2,-2,-2
1470331855380311,0,1,6,4,0,-2,1,1
1470331855395277,-1,-1,1,1,-2,1,0,-3
1470331855395277,-2,-5,-10,-4,1,-1,0,1
1470331855396778,0,0,3,0,0,1,-1,0
1470331855396778,-1,3,14,6,0,-2,-1,0
1470331855417840,0,-3,-7,-7,-2,-2,-2,-1
1470331855417840,0,1,0,0,-1,0,-1,-2
1470331855419298,-2,-2,-4,-1,-3,-3,-2,-2
1470331855419298,0,-2,-8,-3,-1,0,-1,0
1470331855431349,1,1,4,-2,-1,0,1,1
1470331855431349,0,-2,-4,-2,-3,-1,-3,-2
1470331855440361,-1,-2,-1,-1,1,0,-2,-1
1470331855440361,-2,-1,3,1,-1,-1,0,-1
1470331855455332,0,-4,-6,-2,0,-3,-2,-3
1470331855455332,0,2,10,1,-2,-2,-2,0
1470331855456833,-2,0,-2,-3,-1,1,-1,-2
1470331855456833,1,-1,0,1,-2,0,-1,-2
1470331855477943,-1,-3,-4,-3,-1,-2,-1,-1
1470331855477943,-1,-1,-6,-5,0,0,2,1
1470331855479352,-2,-2,9,4,-3,1,-1,-1
1470331855479352,-2,0,-8,-3,-2,-1,-1,0
1470331855491394,-2,0,3,0,-1,-2,-3,-1
1470331855491394,0,0,4,2,0,-2,-1,-2
1470331855500372,-1,-2,-5,-5,-3,-2,-2,0
1470331855500372,-1,-2,-6,0,1,-1,-2,-1
1470331855515425,-1,-1,-1,2,0,-2,-1,0
1470331855515425,-1,-2,0,-3,-1,0,-2,-1
1470331855516886,-1,-3,-6,-3,2,-1,0,0
1470331855516886,1,1,3,2,-2,-2,0,-1
1470331855537941,-2,3,4,2,-1,-1,-1,0
1470331855537941,-2,-2,0,-2,-1,-3,-2,-2
1470331855539406,-3,-4,-5,-2,1,-1,-1,-2
1470331855539406,-3,-5,-8,-7,-2,-3,-1,-2
1470331855551474,-1,1,9,3,0,1,-1,-2
1470331855551474,0,1,0,3,-1,-1,-1,-2
1470331855560426,0,1,3,1,-1,-1,-1,0
1470331855560426,-2,-3,-1,-6,-1,-1,-1,-1
1470331855575441,0,-4,-12,-5,0,-1,-1,-2
1470331855575441,-1,0,0,-2,0,-1,-1,1
1470331855576986,-1,3,8,3,-2,-1,-2,-1
1470331855576986,0,1,0,3,-2,-1,-1,0
1470331855597958,-1,-1,-4,-5,-1,-1,-1,-1
1470331855597958,2,0,-5,1,-1,0,-1,-1
1470331855599470,-2,-3,-7,-2,-1,-1,0,0
1470331855599470,-1,-1,4,0,-1,-1,-1,-2
1470331855611562,1,-3,-5,-3,-1,-2,0,-1
1470331855611562,-5,1,-4,-2,-2,-2,0,-3
1470331855620480,-3,-3,2,2,-2,-2,-1,-2
1470331855620480,-1,-3,-6,-6,0,-1,0,-2
1470331855642999,0,2,2,4,-2,0,0,0
1470331855642999,1,-1,-3,-1,-3,1,0,1
1470331855644584,1,-1,-3,-3,-1,-1,-2,-2
1470331855644584,-2,-1,4,3,-1,0,-1,-1
1470331855658015,-2,-1,-1,-1,-2,0,-1,-2
1470331855658015,-1,-3,-2,-3,0,0,-1,0
1470331855659514,1,-1,1,0,0,-1,0,-1
1470331855659514,0,-1,-1,-2,-1,0,-1,-1
1470331855671527,-2,-2,-3,-4,-1,0,-2,1
1470331855671527,-2,-2,3,2,-1,-2,0,0
1470331855680534,0,-1,-7,-3,-2,0,-1,0
1470331855680534,-3,-2,-2,-1,-2,-1,-1,-3
1470331855695047,-2,-2,-8,-3,-2,-2,0,-2
1470331855695047,0,2,16,9,0,-1,-1,-2
1470331855697048,3,-1,-5,-3,-1,-3,-1,-1
1470331855697048,-1,1,3,-3,-1,-1,-1,0
1470331855718067,-1,-2,-1,1,-2,0,-1,-3
1470331855718067,0,-6,-13,-5,-2,0,0,-1
1470331855719568,-2,0,9,3,-1,-2,0,1
1470331855719568,-2,0,3,3,-1,-2,-2,-1
1470331855740590,-1,-3,-4,-4,0,-2,-2,-2
1470331855740590,0,-1,-5,-3,0,-2,-1,-2
1470331855742125,1,-2,-9,-4,0,-1,-2,-1
1470331855742125,0,-1,4,1,1,-1,0,0
1470331855754600,-3,-2,1,4,-1,-3,-1,-1
1470331855754600,-1,-1,-1,-5,-2,-2,-2,0
1470331855762607,0,-2,-6,-2,-1,-1,0,-1
1470331855762607,-1,-3,3,1,1,-1,0,-1
1470331855777673,0,0,-2,-4,-2,-1,-2,0
1470331855777673,-2,0,4,0,-1,-1,0,-1
1470331855779170,-1,-1,-8,-7,-2,0,-1,0
1470331855779170,-1,1,1,5,-2,0,0,-1
1470331855800184,0,-2,9,9,1,1,-1,-2
1470331855800184,-1,-3,-18,-8,-1,0,0,-2
1470331855802142,-2,0,5,4,-3,-1,0,-3
1470331855802142,0,-3,-13,-18,-1,-1,0,0
1470331855815183,0,-1,-12,-9,-2,0,0,1
1470331855815183,-2,2,19,8,-2,0,-2,-1
1470331855817158,0,0,-1,8,2,-1,0,-1
1470331855817158,-2,-3,-8,-9,-4,-3,-1,-1
1470331855836718,-2,-2,1,4,-1,-1,0,-2
1470331855836718,0,-2,-1,-2,-2,0,-3,0
1470331855845233,-1,-1,0,-3,0,-1,0,-2
1470331855845233,0,-2,1,3,-1,1,-2,-2
1470331855860250,-2,-1,0,-4,-1,-2,0,-1
1470331855860250,-2,1,-6,-1,-1,-2,-1,0
1470331855861696,-2,0,1,-5,-2,-2,-2,0
1470331855861696,0,-1,-6,0,1,2,0,0
1470331855882739,1,-1,1,-3,-3,-2,-1,-1
1470331855882739,-2,0,17,11,-1,-2,-2,-3
1470331855884217,-2,-2,-5,-4,-1,-2,-1,-3
1470331855884217,1,1,-1,0,-1,-2,-1,-1
1470331855897728,-1,-2,-2,-3,-3,-1,-1,-2
1470331855897728,-3,-4,-5,-1,0,0,0,0
1470331855899230,-2,-3,-11,-9,-3,-1,-2,0
1470331855899230,0,2,5,0,-1,-1,-1,1
1470331855919249,0,3,5,4,1,-1,-1,-2
1470331855919249,1,0,-6,-4,-1,-1,-1,-1
1470331855927787,-4,-2,0,0,-2,0,-2,-1
1470331855927787,-1,-4,-1,2,-1,-3,-1,-1
1470331855934762,-2,0,-7,0,-2,0,-1,0
1470331855934762,0,2,8,-2,-1,-1,-1,-3
1470331855941312,0,1,-2,-2,-2,0,-1,0
1470331855941312,1,-2,-6,0,1,-1,0,-2
1470331855957826,-1,-5,-8,-9,-2,-1,0,-1
1470331855957826,-2,-3,-9,-2,1,1,1,0
1470331855959283,1,-1,5,4,0,0,-1,0
1470331855959283,-2,0,11,5,-3,-2,-3,-2
1470331855980351,2,0,-2,2,0,1,-1,2
1470331855980351,0,1,-4,1,0,0,0,0
1470331855981806,-1,-2,-3,-7,0,-1,0,-1
1470331855981806,-2,0,-6,-5,-3,0,0,-1
1470331855994860,-2,-1,4,4,-1,-4,-2,-2
1470331855994860,-1,-3,-5,-3,-1,-1,-2,0
1470331856001379,0,0,1,2,-1,-1,0,-3
1470331856001379,-1,-1,-5,-1,0,0,-2,0
1470331856017862,-3,-1,0,-3,0,-1,-1,-1
1470331856017862,-1,-3,1,-1,-2,-3,-1,0
1470331856019338,-1,0,-2,-2,-1,-1,0,-1
1470331856019338,-1,-4,-13,-6,-1,0,0,0
1470331856040448,-1,2,15,4,0,1,0,0
1470331856040448,0,-1,-1,2,-3,-2,-1,0
1470331856041860,1,-1,5,2,0,-3,-1,0
1470331856041860,-2,0,7,7,1,-2,0,-2
1470331856054869,-1,-2,-9,-9,1,1,0,0
1470331856054869,-1,-3,-12,-8,-2,0,-1,-2
1470331856061422,-2,1,4,-2,-2,-1,-1,-1
1470331856061422,0,0,-1,3,0,0,0,-2
1470331856077912,0,-1,6,4,-1,-1,-2,0
1470331856077912,0,2,5,1,2,0,1,-1
1470331856079394,-2,-3,-8,-4,-1,-1,-2,0
1470331856079394,-2,-1,-3,0,-2,-4,-3,-3
1470331856100411,-4,2,4,0,-1,0,2,0
1470331856100411,-1,-1,-2,0,-1,-1,-2,0
1470331856101912,0,-1,-2,-1,-2,0,-2,0
1470331856101912,-1,-2,-2,-4,-2,0,0,-1
1470331856114423,-2,-3,-6,-3,0,0,0,-2
1470331856114423,1,-2,-4,-3,-2,-2,-1,-1
1470331856122933,-2,-1,5,7,1,-2,0,1
1470331856122933,-1,-2,-4,-5,-1,-1,-2,0
1470331856137958,-1,-2,1,1,-1,-1,-1,-1
1470331856137958,-1,0,1,3,-2,0,-2,-1
1470331856139490,-1,-2,-7,-12,-2,-3,-1,-3
1470331856139490,0,1,-5,-5,0,1,-1,0
1470331856160466,-1,-2,-7,-8,-4,-3,-2,-1
1470331856160466,-2,-2,13,6,0,0,-1,-3
1470331856162019,0,0,6,7,-3,-1,-1,-1
1470331856162019,1,-2,-5,2,-1,-2,0,-1
1470331856174532,0,1,-5,-4,0,-1,0,-2
1470331856174532,-3,-1,-12,-6,-1,0,-2,-1
1470331856181483,-2,-3,6,2,-1,-1,0,-2
1470331856181483,-2,0,4,3,0,0,1,-1
1470331856197997,0,-5,-14,-11,-1,-3,-3,0
1470331856197997,-1,1,8,7,-1,-1,0,1
1470331856199542,-2,0,-4,-4,0,-1,-2,-1
1470331856199542,1,0,-1,-2,-1,-3,-2,-1
1470331856220573,0,-1,2,-1,0,3,0,-2
1470331856220573,-3,-3,-1,-1,0,-1,-2,-2
1470331856222039,0,-2,-15,-5,-2,-2,-2,-1
1470331856222039,-4,-1,0,-4,-3,0,-2,-1
1470331856234030,0,3,10,8,-1,-2,-1,-1
1470331856234030,0,-3,-9,-9,1,0,1,-1
1470331856243041,-1,0,11,11,0,1,1,-2
1470331856243041,1,0,-1,0,0,-1,-1,-1
1470331856258060,-2,0,-1,-2,-2,-1,-1,0
1470331856258060,-2,-1,-4,-3,-3,0,-1,-1
1470331856259559,1,1,-1,3,1,1,2,-1
1470331856259559,-2,-1,-3,-5,-3,-1,-1,-1
1470331856280572,-3,-4,1,2,-2,-2,-2,-2
1470331856280572,0,-2,3,-3,-1,-2,-2,-1
1470331856282073,0,-1,-11,-14,0,-3,-2,-1
1470331856282073,-1,0,11,6,0,0,-2,0
1470331856294083,0,0,-1,3,0,-2,0,-1
1470331856294083,0,-3,-11,-1,-2,0,-1,-1
1470331856302593,-1,-1,8,0,-2,-2,-2,-2
1470331856302593,-3,-3,-6,5,-1,0,0,-1
1470331856317632,-2,-2,-8,-11,-1,-1,-1,-2
1470331856317632,-1,2,6,0,-2,-3,0,-1
1470331856319107,0,0,4,4,-1,0,-2,0
1470331856319107,0,-2,-2,-4,-2,-1,-3,0
1470331856340130,0,-3,-1,2,-2,-1,-1,0
1470331856340130,0,-1,-3,1,-1,-1,0,0
1470331856341627,-1,-1,-2,-2,0,-1,0,-1
1470331856341627,-2,-2,-2,-2,-1,-2,0,-2
1470331856354138,-2,0,-1,1,0,-1,-2,-1
1470331856354138,0,-2,5,4,0,0,-2,-1
1470331856362648,-3,-2,-8,-12,-3,-1,-2,1
1470331856362648,0,0,-4,-2,0,-1,-1,-1
1470331856377677,-1,-1,-1,2,-1,-1,1,1
1470331856377677,-3,-2,-2,0,-2,-2,0,-1
1470331856379160,0,-3,0,2,0,-1,-2,-3
1470331856379160,0,-4,-7,-6,-1,-1,1,0
1470331856400207,0,-1,-11,-10,-3,-1,0,-2
1470331856400207,-1,3,21,8,-1,-1,-3,-2
1470331856401708,-1,0,-3,0,-2,-3,-1,-1
1470331856401708,-1,-1,-2,-4,-2,0,-1,-1
1470331856414192,1,-1,0,6,1,-1,0,-1
1470331856414192,-1,-4,-10,-5,-2,-2,-1,-1
1470331856422700,-2,-2,-4,-6,0,-2,0,-1
1470331856422700,1,2,9,5,-1,1,-1,-1
1470331856437768,-1,0,0,2,0,-2,-3,0
1470331856437768,0,0,-4,-8,0,0,-1,0
1470331856439214,0,0,1,4,0,0,-1,-1
1470331856439214,-1,-1,-6,-6,-2,-2,-2,-1
1470331856460288,0,0,8,0,-2,-2,-2,-2
1470331856460288,0,0,1,-1,1,-1,-1,0
1470331856461735,2,-2,-10,-1,-2,1,-1,0
1470331856461735,-3,0,6,5,0,-2,-2,-2
1470331856473795,-3,1,1,-10,-1,-1,-2,-2
1470331856473795,0,-1,-13,-4,-1,-1,0,-1
1470331856482764,-1,0,9,3,-2,0,1,-1
1470331856482764,-1,-2,-4,-2,-1,-1,-1,-1
1470331856497810,0,0,3,3,-1,-1,0,2
1470331856497810,-2,-3,-8,-8,-3,-2,-2,-3
1470331856499271,1,0,-1,3,0,-1,-2,1
1470331856499271,0,-1,5,3,0,-1,-2,-1
1470331856520342,-2,-2,-1,-5,-2,0,0,-1
1470331856520342,-2,0,-4,-3,-1,-1,0,0
1470331856521788,0,1,5,-3,-2,-1,-1,-1
1470331856521788,-3,-3,-2,1,-1,0,0,-2
1470331856533802,0,-2,-6,-5,-2,-1,-1,0
1470331856533802,-2,-2,5,0,-1,-1,-1,-1
1470331856542809,-1,-2,0,0,1,0,-1,0
1470331856542809,0,2,-3,-4,-1,-1,0,-1
1470331856557857,1,-1,-5,-1,1,1,1,-1
1470331856557857,-2,0,10,7,1,0,0,1
1470331856559323,-6,-5,-7,0,-2,-1,-2,-1
1470331856559323,-2,0,5,-7,-2,0,-2,-1
1470331856580341,1,-2,-6,-4,-1,-1,0,1
1470331856580341,1,1,1,2,-2,-1,0,-1
1470331856581842,0,-3,-3,-1,-2,-2,-1,0
1470331856581842,-2,-4,-4,0,-1,-1,-2,-2
1470331856593908,-3,-1,3,-2,-2,1,-1,-1
1470331856593908,-2,-3,-9,-11,-1,-1,-2,-2
1470331856602862,0,0,-1,4,-1,-1,-2,-2
1470331856602862,-1,-3,5,-2,-1,-2,0,-1
1470331856617927,1,0,4,5,-1,-3,0,-2
1470331856617927,-1,0,-1,4,-1,0,-1,-1
1470331856619418,-2,-3,-5,-7,-3,0,-1,-2
1470331856619418,-1,0,-3,-2,-1,-3,-1,0
1470331856640416,-1,-1,2,-2,-1,0,-1,-1
1470331856640416,0,-3,-7,-6,-2,-3,0,-1
1470331856641930,1,3,2,3,-2,-2,-2,-1
1470331856641930,0,-1,3,5,0,0,-1,1
1470331856653922,-2,-1,-1,-4,-1,-1,-1,-2
1470331856653922,-3,-4,-7,-5,0,1,-2,1
1470331856662918,-1,-3,-2,-4,-1,1,0,0
1470331856662918,-2,0,-2,1,0,0,-2,-2
1470331856677938,-2,-1,-5,-3,-1,-1,-2,-1
1470331856677938,2,1,8,7,2,-1,-1,0
1470331856679430,-2,-2,-4,-10,-1,0,-1,-2
1470331856679430,-1,1,-1,4,0,-1,1,-3
1470331856700454,-1,-2,-1,4,0,0,-1,-1
1470331856700454,-1,0,-4,-3,-2,-2,-2,-1
1470331856701977,0,-1,1,0,-1,-2,-1,-2
1470331856701977,-2,-1,1,-3,0,0,-1,-2
1470331856722972,-2,-2,-11,-6,-2,0,0,0
1470331856722972,-2,2,7,5,0,0,1,-2
1470331856724498,0,-1,7,6,0,-2,-2,0
1470331856724498,1,2,-7,-8,0,0,0,0
1470331856737982,2,-3,4,4,-2,-2,-1,-2
1470331856737982,0,-4,-7,-5,-2,-1,-1,2
1470331856739484,-1,-1,2,0,-2,0,0,-1
1470331856739484,-1,-2,-5,-10,-4,-1,0,-2
1470331856760503,0,-2,-1,19,8,2,1,-1
1470331856760503,-2,0,-1,-5,-2,0,-3,-2
1470331856762004,-2,-1,-3,13,-1,1,-1,-1
1470331856762004,-2,-3,-1,-11,2,-1,-1,-2
1470331856783032,-2,2,6,3,-3,-2,-1,-2
1470331856783032,-2,-3,-6,-6,-1,-2,0,-2
1470331856784525,-2,-1,-3,-14,-1,-1,-2,0
1470331856784525,-1,-2,-5,0,-2,-1,-2,-2
1470331856798036,-1,-1,-3,-11,-4,-2,-2,-3
1470331856798036,-1,0,14,21,-1,-1,-2,-1
1470331856799551,1,-2,-13,-9,-5,-1,-1,-1
1470331856799551,-4,-1,5,7,0,-1,-2,0
1470331856820651,-1,0,6,5,-1,-1,-3,2
1470331856820651,-1,-4,-2,-6,-2,-1,-2,-1
1470331856821558,-2,-1,2,-1,-1,-2,-1,-2
1470331856821558,-2,-3,-6,1,-1,0,-1,-1
1470331856842632,1,-1,-7,-2,-2,-2,0,-1
1470331856842632,0,1,6,-7,-6,-1,-1,-2
1470331856844612,-2,1,-2,2,2,0,0,0
1470331856844612,2,0,1,0,-2,0,-1,0
1470331856857090,-1,-3,-1,-6,-4,-1,-2,-1
1470331856857090,1,-2,-7,-1,-2,0,0,-2
1470331856864096,-1,1,1,-2,-3,-2,-1,-2
1470331856864096,-2,1,-3,1,-3,-4,-3,-1
1470331856887669,0,1,7,2,-1,0,-1,2
1470331856887669,-2,-2,-8,-7,-1,-1,1,-1
1470331856889625,0,0,2,1,3,0,-1,-2
1470331856889625,0,-3,-10,2,-2,-1,-1,0
1470331856902676,-2,-1,1,-1,1,-1,-1,-2
1470331856902676,-1,1,-7,-5,-1,-2,0,-1
1470331856904131,-1,1,9,10,-2,-2,-1,-2
1470331856904131,0,3,-1,1,1,0,0,0
1470331856917187,-1,-4,-14,-7,1,-1,-3,-2
1470331856917187,-5,1,21,13,0,-3,-3,-1
1470331856923692,-1,-2,-3,6,-1,-2,0,-2
1470331856923692,-1,-2,-2,-4,-4,0,-1,0
1470331856940217,1,1,-1,1,-3,-2,1,-1
1470331856940217,-1,-4,-17,-22,0,-1,0,-2
1470331856941669,-1,-2,8,12,0,0,-2,0
1470331856941669,2,-2,-7,-20,-2,-1,-2,-3
1470331856962685,-2,-5,0,2,-2,-1,-1,0
1470331856962685,0,-1,-4,4,-1,-1,-1,0
1470331856964187,-1,2,3,-5,-4,-2,-2,-2
1470331856964187,-5,-6,-12,-6,-2,-3,-1,0
1470331856977264,-2,1,1,0,0,-1,-2,-3
1470331856977264,-3,-3,5,-5,-2,0,0,-2
1470331856991212,0,-4,-3,0,0,0,-3,0
1470331856991212,-2,2,10,12,1,0,-2,2
1470331857000233,0,0,-4,-7,-3,1,-1,-1
1470331857000233,0,-2,6,6,1,-1,-1,0
1470331857001721,2,0,0,-7,1,1,0,2
1470331857001721,1,-3,-9,-1,-2,-1,0,-1
1470331857021792,-1,4,1,-2,1,-1,-2,-1
1470331857021792,1,1,2,0,-4,-1,0,0
1470331857030745,-3,-3,-8,-1,4,0,0,-1
1470331857030745,0,-1,0,3,1,1,-1,-1
1470331857037286,-3,-2,2,-4,-2,-1,0,-1
1470331857037286,1,2,-2,3,-1,0,-1,1
1470331857043788,-2,-2,3,-7,-9,-3,-1,-2
1470331857043788,0,-4,-9,6,1,-3,-1,1
1470331857060300,0,-2,1,-4,-2,-2,-1,-2
1470331857060300,0,1,-4,7,3,0,0,0
1470331857061796,-3,-1,1,-6,-3,0,0,-1
1470331857061796,-2,0,4,2,-1,-2,-2,-2
1470331857082834,-2,-3,-6,1,-5,-2,-1,0
1470331857082834,1,-1,-2,-5,-1,-1,-3,-1
1470331857084293,-3,-1,-5,-1,2,-1,-1,0
1470331857084293,-2,-1,-4,-4,-3,-1,1,-4
1470331857097318,-2,4,15,12,5,0,0,-1
1470331857097318,-1,-1,-4,-15,-4,0,-2,-1
1470331857103901,1,1,-5,-8,-5,-3,-1,1
1470331857103901,1,2,36,29,1,-1,-2,1
1470331857120327,0,-8,-44,-2,20,7,3,1
1470331857120327,-3,-4,-7,6,-2,-4,-2,-3
1470331857121829,-1,-5,3,-14,-2,-2,-1,-1
1470331857121829,1,5,12,-6,-6,-1,-1,0
1470331857142847,0,4,8,8,-4,-1,-3,-9
1470331857142847,3,1,-1,6,-1,0,-1,2
1470331857144348,-6,-4,0,-7,-3,-1,-1,-2
1470331857144348,-5,-4,-8,-9,-1,0,1,3
1470331857157359,2,-1,10,1,-8,-1,-3,1
1470331857157359,0,0,-10,-4,0,-1,-2,-9
1470331857163866,-6,-2,-2,-6,-4,-1,-2,-4
1470331857163866,5,-5,-13,-8,1,1,1,-1
1470331857180419,-5,-2,3,-10,-5,-3,0,5
1470331857180419,4,1,5,20,-3,-1,-4,-6
1470331857181882,-3,0,0,-1,4,1,-1,-5
1470331857181882,-1,1,-4,-18,-7,0,-2,0
1470331857202900,4,0,1,17,0,-3,1,1
1470331857202900,-7,-2,5,20,12,1,2,4
1470331857204403,1,3,0,-1,12,0,0,0
1470331857204403,-5,-1,-8,-17,-18,-6,-2,-3
1470331857216438,2,-6,1,6,8,2,-1,0
1470331857216438,-7,-8,-18,-24,-10,-3,-1,0
1470331857232928,-2,-4,-17,23,5,-1,1,-1
1470331857232928,5,10,44,5,4,2,-1,1
1470331857240437,-2,2,-16,-17,-12,-5,-5,-11
1470331857240437,-9,-6,-14,7,-2,1,-2,-1
1470331857241935,0,-5,-17,-14,-5,-2,0,-1
1470331857241935,-3,-4,-6,-9,-6,-3,-2,0
1470331857262954,8,4,9,10,1,-2,-1,1
1470331857262954,10,1,-13,-14,-1,0,3,3
1470331857264456,-10,-1,-3,-13,-11,-3,-2,-3
1470331857264456,-2,-7,-18,10,12,1,-1,-3
1470331857276483,-7,6,38,13,0,-2,-2,-1
1470331857276483,0,-1,6,-9,2,-3,1,-1
1470331857285476,6,-2,7,-14,-11,-1,-2,1
1470331857285476,-2,-4,-38,3,3,2,1,-2
1470331857300488,-3,-2,-3,-7,-2,-1,0,-2
1470331857300488,-4,2,31,10,-1,-1,-2,-3
1470331857302042,1,1,-19,8,-3,-3,-1,0
1470331857302042,-5,-4,3,2,2,-1,-2,-3
1470331857323025,-3,-6,-16,0,-5,1,1,3
1470331857323025,-1,0,6,-6,-3,-3,-1,-1
1470331857324540,-4,4,7,-2,-3,0,0,-1
1470331857324540,6,1,-3,2,-2,-2,-4,-3
1470331857336548,-3,-10,-23,-14,-3,-2,-14,-2
1470331857336548,-3,1,12,2,0,0,-2,1
1470331857345530,7,1,22,4,2,1,17,2
1470331857345530,-14,-5,-14,-9,-1,-2,-2,-2
1470331857360541,2,-3,-2,-6,-2,-4,-27,-13
1470331857360541,-7,2,1,-2,-3,0,15,4
1470331857362042,0,-6,-34,-2,3,-3,-87,-4
1470331857362042,2,1,12,8,2,0,99,4
1470331857383062,-1,-1,4,-15,-4,-3,-7,-2
1470331857383062,4,0,1,7,-2,1,3,17
1470331857384564,-7,-5,-12,-2,2,1,6,-2
1470331857384564,-5,-1,8,-11,-2,-4,-21,-2
1470331857396573,-1,4,-16,-28,-12,-3,-4,-1
1470331857396573,4,-2,-7,14,3,-1,6,-4
1470331857405082,5,2,24,18,2,-1,14,1
1470331857405082,-10,1,3,11,0,1,-27,-2
1470331857420097,-5,-5,-8,-13,0,0,19,3
1470331857420097,7,-3,-4,-12,-6,-2,-22,-6
1470331857421644,0,0,3,-5,-3,0,11,0
1470331857421644,4,-2,0,3,-2,-4,-24,-7
1470331857442666,-1,2,8,8,1,-2,-2,1
1470331857442666,-5,-3,-5,-10,-1,0,2,-5
1470331857444116,1,-1,-12,0,-1,-2,-1,1
1470331857444116,-4,3,14,4,-2,-2,-2,1
1470331857456628,-3,1,11,-14,0,-1,7,1
1470331857456628,4,-7,-34,6,2,-2,-11,-5
1470331857465162,4,0,4,-1,1,1,17,0
1470331857465162,1,-2,-1,1,-4,-1,-14,0
1470331857480652,-9,-5,0,2,-1,0,3,0
1470331857480652,1,1,-2,4,3,1,-15,-7
1470331857481650,-1,2,-3,-8,-6,-1,1,-4
1470331857481650,9,-1,0,0,-1,-1,-3,-2
1470331857502712,-7,2,-4,6,2,1,-4,-3
1470331857502712,-7,3,18,-4,-5,-3,3,2
1470331857504173,4,-7,-2,11,-2,-3,12,2
1470331857504173,-6,4,4,0,7,-1,-6,-4
1470331857516725,6,-4,0,5,-2,-1,4,0
1470331857516725,7,4,3,0,-5,-2,-1,-3
1470331857525189,-5,-2,-11,-12,-2,-2,2,-1
1470331857525189,4,-6,-3,-6,-4,1,-4,2
1470331857540244,-3,3,16,5,-1,0,1,2
1470331857540244,-8,-3,-1,-5,1,1,0,-2
1470331857541705,5,1,-9,-2,-1,-2,-4,-3
1470331857541705,-19,-5,-12,-8,-3,-1,-2,-4
1470331857562723,8,2,10,11,2,1,0,0
1470331857562723,2,-5,-9,-12,-2,-1,2,0
1470331857564252,1,1,11,11,1,-1,0,0
1470331857564252,1,3,-4,-7,-3,-3,-2,-1
1470331857576291,-1,-5,-6,-2,-5,-2,1,-3
1470331857576291,-2,-1,1,-16,-5,-3,0,-3
1470331857585245,0,0,7,0,-7,-1,-1,1
1470331857585245,4,0,-5,19,11,1,-2,1
1470331857600258,3,3,3,1,-3,2,-1,2
1470331857600258,0,1,6,18,-1,-4,2,-1
1470331857601762,-8,0,2,-50,-12,-4,-1,0
1470331857601762,2,-3,-12,-11,-3,-3,-2,-2
1470331857622806,0,-1,-4,37,8,0,1,-1
1470331857622806,-5,-2,2,1,0,1,-3,-3
1470331857624281,-2,-4,-2,-4,-8,-4,-3,-2
1470331857624281,0,2,11,1,-2,1,-1,0
1470331857645299,-3,0,4,-17,-3,-3,1,0
1470331857645299,-3,-1,-12,-3,-3,-1,0,-3
1470331857646799,-4,2,16,18,9,1,0,1
1470331857646799,3,0,0,-1,-3,-2,-3,-2
1470331857660310,1,-3,-14,-19,-6,-1,-1,-1
1470331857660310,-6,-2,-1,0,1,0,-2,-1
1470331857661812,-6,-5,15,3,2,0,-1,-3
1470331857661812,0,0,-2,-3,0,-1,0,1
1470331857682830,-2,1,-2,2,-2,-2,-8,1
1470331857682830,6,-3,1,-3,2,-1,11,0
1470331857684332,-3,1,-17,5,3,1,-2,0
1470331857684332,0,-1,7,-1,-3,-1,-4,-1
1470331857705375,-5,-4,-3,8,-1,-7,-3,0
1470331857705375,3,-1,0,-24,-1,4,-3,1
1470331857706855,2,0,-16,6,1,2,0,0
1470331857706855,-1,0,-10,-3,-2,0,1,-1
1470331857718863,-3,-1,9,5,-2,-2,1,0
1470331857718863,-4,1,18,4,0,-3,-2,-3
1470331857727871,0,-3,-5,-5,-2,-1,2,0
1470331857727871,-1,-2,-6,12,3,1,-3,-2
1470331857742947,0,-3,-9,-12,-5,-1,1,-2
1470331857742947,-5,-3,-4,6,0,-3,-4,-1
1470331857744388,1,-1,-1,-9,-2,0,-2,-2
1470331857744388,4,1,4,1,-4,-3,0,0
1470331857765416,0,0,9,-5,-2,-1,1,0
1470331857765416,-12,0,-1,-6,0,0,-1,-3
1470331857766955,-3,-4,-12,6,1,-1,-1,-1
1470331857766955,9,0,6,-2,-1,0,0,0
1470331857780421,-4,1,10,6,1,1,1,-1
1470331857780421,3,-2,-12,-7,-3,-2,-1,0
1470331857781921,-4,3,5,14,0,-2,0,-1
1470331857781921,-3,-4,-4,-16,-1,-1,-3,-2
1470331857802939,1,-4,-9,-1,0,1,-2,-1
1470331857802939,0,2,8,8,-1,-2,-1,1
1470331857804440,-2,1,-1,0,-1,-2,0,-2
1470331857804440,-2,-2,-1,11,2,-1,2,-1
1470331857825459,-3,-5,-27,-27,-3,-1,-2,-1
1470331857825459,0,-2,-10,-4,1,-2,-2,0
1470331857826962,3,0,9,5,-6,-5,-2,-1
1470331857826962,-2,1,11,1,-4,0,-3,-1
1470331857839490,-8,-3,-1,8,1,-1,1,-2
1470331857839490,-1,-3,-4,2,3,0,-1,0
1470331857846478,1,1,12,-1,4,2,-1,0
1470331857846478,0,-2,-17,-6,-4,-2,-1,1
1470331857862994,-1,2,16,8,0,-2,0,-2
1470331857862994,1,-1,-4,-14,-4,-1,-1,-2
1470331857864493,1,1,-3,-2,-1,-1,-3,0
1470331857864493,-4,-3,4,6,0,0,-2,0
1470331857885513,-1,-2,-7,-2,0,-1,-1,0
1470331857885513,-2,-1,1,-5,-2,2,0,-1
1470331857887015,7,0,-11,-11,-1,0,0,1
1470331857887015,-9,-2,-3,-5,-2,-1,0,-3
1470331857899525,-3,-2,4,6,-2,-2,0,-5
1470331857899525,5,-1,0,4,-1,-3,-1,0
1470331857906550,-7,-1,-2,-1,-1,-1,-2,-1
1470331857906550,8,-2,-9,-8,-2,-3,0,0
1470331857923046,-4,-1,-1,-3,-1,-3,-1,0
1470331857923046,-1,-3,0,10,-2,-2,0,0
1470331857924547,2,1,0,-17,-4,-1,-1,1
1470331857924547,-2,-1,3,16,4,0,-2,-1
1470331857945612,5,2,-5,-7,0,1,0,0
1470331857945612,-6,-5,-12,-3,-2,-1,-1,-1
1470331857946571,-4,-2,16,6,-2,-2,-1,-3
1470331857946571,-6,-3,-7,-15,-3,-1,-2,-2
1470331857959634,2,-1,4,5,1,-2,-2,-1
1470331857959634,5,3,-4,2,-1,-1,-1,0
1470331857966586,-1,-3,-13,-15,-3,0,-4,0
1470331857966586,-17,-2,0,-2,-2,2,5,0
1470331857982655,9,-1,-2,-2,-1,0,0,1
1470331857982655,-2,1,16,9,-1,-1,-2,-2
1470331857984603,3,2,-5,6,1,-4,-2,-4
1470331857984603,-2,-5,-10,-12,-4,0,-3,-1
1470331858005165,-6,-1,-3,1,-1,0,-1,-1
1470331858005165,-5,-5,-9,-10,-3,0,0,-2
1470331858007122,6,2,2,6,0,-1,0,0
1470331858007122,2,2,7,-3,-1,-1,0,1
1470331858019677,-6,-6,-7,-1,-4,-1,1,-1
1470331858019677,-2,0,-4,2,1,-3,-3,-4
1470331858026140,-2,-2,6,2,1,0,-6,-2
1470331858026140,5,0,-1,2,0,-1,2,3
1470331858042698,-13,-4,-10,-8,-2,0,-1,-4
1470331858042698,-6,0,18,-1,-3,-2,-6,-4
1470331858044156,0,-3,-12,7,2,1,1,0
1470331858044156,7,4,8,-3,1,-1,-3,1
1470331858065190,4,1,4,2,-1,0,-3,0
1470331858065190,-7,-4,-17,-9,-2,-1,0,-1
1470331858066677,-5,-1,16,5,0,0,0,-3
1470331858066677,1,-2,-15,-6,-3,-2,-4,-2
1470331858079687,-2,-1,16,1,-2,-2,1,0
1470331858079687,3,3,-6,-4,-2,1,3,4
1470331858086193,4,-3,-11,-4,-2,-1,0,0
1470331858086193,1,-2,10,4,0,0,4,0
1470331858102709,-9,-3,-11,-6,0,-2,-5,-4
1470331858102709,0,5,11,10,0,-1,-1,-2
1470331858104231,-6,-5,-8,-8,-3,0,0,0
1470331858104231,-3,-2,-7,-12,-1,-1,-5,-5
1470331858125231,4,0,3,5,0,-2,-3,0
1470331858125231,1,-3,-3,-10,1,0,0,0
1470331858126730,-6,-1,-2,4,-2,-4,0,-1
1470331858126730,4,1,-2,4,2,-1,-2,-1
1470331858138812,1,0,-4,-2,2,2,1,0
1470331858138812,1,-2,-3,-6,-4,1,-2,0
1470331858147749,-1,-2,3,0,-1,-1,-1,-2
1470331858147749,-4,-1,-4,1,0,-2,-3,-2
1470331858162765,1,1,5,2,-1,-1,-1,1
1470331858162765,-4,2,2,3,-2,-2,-2,-3
1470331858164264,0,-6,-3,-9,-1,0,0,0
1470331858164264,2,-2,3,-2,-2,-1,-1,-2
1470331858185300,-7,-2,-21,-18,-5,-3,-3,-6
1470331858185300,2,-3,2,-1,1,-2,0,1
1470331858186809,-5,-1,-9,-6,-1,-1,-1,0
1470331858186809,-1,6,23,18,2,-1,1,-2
1470331858198815,4,-1,-5,-3,-1,-1,-2,2
1470331858198815,3,2,10,3,2,1,0,0
1470331858207811,-13,-3,-2,4,-2,-1,0,-4
1470331858207811,-2,-5,-9,-13,-4,-3,-2,0
1470331858222849,2,1,9,9,1,2,1,-1
1470331858222849,2,-1,-14,-1,-1,-2,1,-1
1470331858224322,1,-6,-10,-6,1,0,1,0
1470331858224322,-1,0,11,-3,-4,-1,-1,-1
1470331858245364,-6,4,6,9,-1,-2,-1,0
1470331858245364,-8,-5,-5,-2,1,-3,-1,-3
1470331858246840,7,2,9,17,1,-1,1,2
1470331858246840,3,-2,-8,-20,-2,-3,-4,4
1470331858258894,9,-1,-2,-2,0,2,-2,-10
1470331858258894,-12,1,12,10,0,-2,-1,-1
1470331858275365,-2,0,-16,-14,-2,0,-2,-2
1470331858275365,-3,-3,6,11,1,0,0,0
1470331858282883,15,0,2,-7,-5,-3,-2,2
1470331858282883,-16,-9,-34,-21,-2,2,3,1
1470331858284372,4,6,34,7,-2,-9,-6,4
1470331858284372,-4,-2,-6,3,-1,1,-2,-13
1470331858305390,-4,-2,-7,-1,0,2,-1,3
1470331858305390,-4,-7,-8,-2,-2,-3,-3,-4
1470331858306942,3,-3,2,-1,0,-4,2,5
1470331858306942,9,3,1,0,-1,4,-2,4
1470331858318966,-14,-2,-4,-2,1,-1,8,-5
1470331858318966,0,-1,-1,-5,-2,-1,-10,0
1470331858327928,-4,-1,5,2,-2,-5,-2,-10
1470331858327928,3,0,-3,-1,-3,-7,1,4
1470331858342933,8,-1,-13,-3,-3,9,1,4
1470331858342933,6,6,1,1,-1,-4,-1,3
1470331858344455,-20,-7,10,2,0,0,-4,-5
1470331858344455,1,0,-2,5,-1,-5,-2,-4
1470331858365443,-3,-5,-25,-8,-2,-5,-2,2
1470331858365443,11,-1,20,-2,-1,4,-2,-1
1470331858366975,-1,-2,-1,1,-2,5,8,-1
1470331858366975,-6,1,-21,-7,-1,-3,-18,1
1470331858378999,-3,1,13,3,0,-6,-5,-1
1470331858378999,-4,-3,2,7,-3,-3,-1,-7
1470331858387964,-2,2,-6,-4,-2,1,1,1
1470331858387964,-6,-5,-5,-6,0,1,10,1
1470331858402977,0,-2,-11,-4,-2,-2,-3,1
1470331858402977,5,1,8,3,-2,-1,-4,-9
1470331858404495,0,-1,4,-1,-1,1,3,1
1470331858404495,-4,-1,-13,-1,-1,-1,1,0
1470331858425498,-4,-3,10,0,-2,-2,-5,-1
1470331858425498,1,-3,-12,-2,0,-2,5,0
1470331858427000,0,1,-3,1,0,2,-4,-1
1470331858427000,-6,3,18,6,0,-2,-3,-5
1470331858439038,0,-1,-5,-4,0,-1,1,-1
1470331858439038,2,-2,-5,-2,0,0,1,5
1470331858448019,5,-2,-11,-2,0,0,-3,-1
1470331858448019,-2,-5,-13,6,-5,-3,-2,-4
1470331858462562,-8,-2,11,-18,-1,-2,-1,-2
1470331858462562,3,1,21,7,0,-1,-1,0
1470331858464533,3,4,-20,-9,0,-1,-3,1
1470331858464533,-6,0,11,15,1,1,2,-3
1470331858485552,4,-1,-4,5,-1,1,0,-2
1470331858485552,-3,-4,-15,-9,-5,-2,-1,0
1470331858487054,-5,1,14,-1,-1,-4,-2,-1
1470331858487054,-1,-2,-10,-9,4,1,0,-2
1470331858499064,1,1,9,13,2,-1,0,-1
1470331858499064,-2,-4,-14,-15,-4,1,-3,1
1470331858507581,2,-3,-9,-1,-1,-1,-2,-3
1470331858507581,-6,2,19,2,-3,1,1,-1
1470331858524088,3,0,-4,5,1,0,-1,-1
1470331858524088,-5,6,26,2,0,-1,-1,-3
1470331858524587,1,-6,-15,3,-1,0,0,0
1470331858524587,4,-4,-19,-20,-2,-1,-1,-1
1470331858545105,1,1,12,9,1,-3,-2,-1
1470331858545105,-2,-5,-20,-4,-1,-1,1,-1
1470331858548609,8,3,22,9,0,-6,-1,-2
1470331858548609,-14,-4,1,2,-1,5,1,-1
1470331858559118,-2,1,-4,-11,-4,-3,0,-1
1470331858559118,-5,0,-1,4,-2,-3,0,1
1470331858567626,-5,-3,-6,-1,-2,-2,-2,-2
1470331858567626,6,-1,3,-5,0,-3,0,0
1470331858582640,-6,-3,-3,-3,-2,-3,-4,-3
1470331858582640,4,2,3,3,2,0,0,1
1470331858584140,4,3,-5,-8,-2,-2,-1,0
1470331858584140,1,-3,12,11,1,4,2,0
1470331858605159,-4,-3,-13,-16,-1,-1,-5,-1
1470331858605159,1,2,6,14,-2,-2,-2,-3
1470331858606663,-7,-2,-17,-21,-1,0,-1,0
1470331858606663,2,0,5,3,1,-2,2,-1
1470331858627706,-1,-2,-5,13,1,0,-1,2
1470331858627706,1,2,11,7,1,0,1,0
1470331858629681,1,2,1,-1,-2,-2,-2,-1
1470331858629681,-6,-3,2,-5,-3,-3,-1,1
1470331858642722,-1,-5,1,4,-2,0,-1,-2
1470331858642722,4,0,0,4,0,-2,-2,1
1470331858644210,-9,0,-10,-7,0,1,0,-2
1470331858644210,11,1,-5,-6,-3,-3,-1,0
1470331858665230,-5,-1,9,7,-2,-2,0,0
1470331858665230,2,-4,-16,-8,-1,-1,-1,0
1470331858666715,4,-1,9,1,0,1,2,-1
1470331858666715,-2,2,5,4,-1,-1,-3,-2
1470331858687798,2,-2,-4,-4,-1,-1,-1,-1
1470331858687798,0,-5,-11,-9,-5,-2,-1,-1
1470331858689234,-3,-2,-1,3,0,1,-2,1
1470331858689234,0,2,-3,11,-1,-3,-2,-1
1470331858702761,6,0,2,-18,-1,1,0,-2
1470331858702761,0,1,-11,-7,-1,-1,1,0
1470331858704248,-17,-8,5,6,-2,0,-2,-4
1470331858704248,2,-3,-14,-10,-2,-2,-2,0
1470331858725267,3,-1,5,5,1,0,1,0
1470331858725267,-2,-1,-3,-2,-1,0,-1,0
1470331858726772,4,0,-2,-4,-2,-1,0,-2
1470331858726772,-1,-1,7,-2,-1,0,-1,0
1470331858747787,-3,0,-1,8,0,-3,0,-1
1470331858747787,-1,1,9,-5,-3,-2,-2,-3
1470331858749291,3,-1,-2,1,-1,0,-1,0
1470331858749291,-3,-2,0,3,-1,-1,0,-2
1470331858762301,-1,-4,-14,-12,-5,-3,-1,-1
1470331858762301,-3,0,4,4,0,-1,-1,-1
1470331858768932,-3,-1,-6,-1,0,-1,-1,-1
1470331858768932,4,-3,-5,-7,0,-1,1,-2
1470331858785345,-7,-2,6,9,-2,-2,-2,-3
1470331858785345,0,2,-1,-5,-1,0,-1,-1
1470331858786824,0,-2,-3,0,-2,-3,0,2
1470331858786824,3,4,-8,-8,-3,-2,-3,-1
1470331858808429,-4,-1,2,5,0,-1,0,-1
1470331858808429,1,1,15,-1,-2,-1,2,3
1470331858814348,0,0,-1,3,1,0,-1,0
1470331858814348,-9,-4,-13,-2,-1,-2,-4,-4
1470331858822354,0,-2,8,-5,0,-1,-1,0
1470331858822354,-1,0,1,12,0,-2,-3,-2
1470331858828916,2,-1,2,-5,-1,0,-1,1
1470331858828916,-4,-5,-20,-18,-5,-3,-2,-2
1470331858845411,-1,0,-2,8,0,1,0,-1
1470331858845411,0,4,10,1,-1,-1,-2,-2
1470331858846906,0,-2,0,3,-1,0,1,-2
1470331858846906,-7,-4,-1,7,1,1,0,2
1470331858867895,1,1,3,-3,-2,1,-1,1
1470331858867895,-4,-6,-10,-14,-4,0,2,1
1470331858869398,2,2,-5,1,2,0,-2,0
1470331858869398,5,0,15,1,-2,-2,-2,-1
1470331858882426,-2,2,-6,0,-1,-1,-1,-2
1470331858882426,-1,-1,5,4,0,1,-3,2
1470331858888962,-2,-1,-6,-4,-3,-1,-3,-9
1470331858888962,0,-2,-3,0,0,-1,0,2
1470331858905436,11,5,1,0,-2,-5,2,0
1470331858905436,-23,-7,-13,-4,0,3,0,0
1470331858906931,0,-2,9,2,-2,-2,-1,1
1470331858906931,1,-2,5,-2,-1,-1,-1,-2
1470331858927960,5,1,0,1,-1,0,0,2
1470331858927960,3,4,-10,-3,-1,-2,-2,-5
1470331858929454,-2,-1,1,-2,-2,1,0,0
1470331858929454,-6,-6,0,0,-1,0,-1,-4
1470331858942466,1,-3,-5,-7,-2,0,-1,0
1470331858942466,1,-6,-25,-5,0,0,-2,-2
1470331858948980,-5,0,24,3,-1,-2,0,-2
1470331858948980,-1,5,1,3,-1,-3,-2,-1
1470331858964987,-5,-1,2,-1,1,2,3,-2
1470331858964987,7,-1,6,3,0,-5,-1,-2
1470331858971525,9,-3,-16,-7,-3,0,-4,0
1470331858971525,-7,-4,-6,-1,-2,7,4,-2
1470331858988003,-20,-5,-3,-6,-2,-4,-9,-5
1470331858988003,4,-1,-8,-1,0,-2,6,13
1470331858989538,1,0,2,2,0,0,-3,-11
1470331858989538,4,-3,-1,-2,-1,-5,-4,1
1470331859002058,-4,-2,7,3,0,4,1,-3
1470331859002058,0,1,11,2,-1,0,1,1
1470331859009022,12,5,-9,-1,1,-2,11,7
1470331859009022,-3,0,4,0,-1,1,-17,-5
1470331859025537,-18,-4,-6,-1,-1,-9,-1,-5
1470331859025537,2,-3,-9,-6,-2,10,13,5
1470331859027038,0,0,5,3,0,-3,-8,-5
1470331859027038,-6,-1,-3,-3,-1,7,1,-3
1470331859047558,5,-1,-5,-5,-1,-5,-3,11
1470331859047558,4,1,-6,0,0,-3,-5,-15
1470331859049558,-7,-7,3,-1,-2,-1,8,5
1470331859049558,-4,2,15,4,-1,-4,-1,4
1470331859062071,5,-1,-3,-2,-2,6,-2,-5
1470331859062071,3,1,-1,-2,-1,-5,-3,-2
1470331859069076,-4,-4,-18,-7,-2,0,-2,1
1470331859069076,-2,0,-2,-1,-1,-5,-1,-1
1470331859084592,-1,2,14,4,-3,0,2,2
1470331859084592,-1,0,-4,1,0,0,-6,-4
1470331859093097,-2,-5,-33,-13,-1,-2,-4,-2
1470331859093097,0,2,41,10,0,-2,1,1
1470331859108112,3,-2,-14,-3,-2,-1,0,-3
1470331859108112,1,-2,5,2,-1,0,-3,-2
1470331859109613,-5,-3,-7,0,1,-2,-2,-2
1470331859109613,-2,-3,-12,-6,-3,-2,4,0
1470331859121622,3,-3,-2,-2,2,-1,-1,-1
1470331859121622,-4,1,6,-1,-3,-4,-5,-2
1470331859130631,-2,-3,-1,-3,-2,-1,1,2
1470331859130631,8,5,-5,7,-1,0,3,-1
1470331859145645,-6,-3,2,-2,0,-2,-1,-2
1470331859145645,-5,-7,-10,-2,-1,-2,-3,-3
1470331859147146,-1,-1,-1,-2,-3,0,1,1
1470331859147146,2,3,23,11,-1,-3,-1,-1
1470331859167683,2,2,-2,0,-3,0,-3,-2
1470331859167683,-4,-4,-12,-14,2,-3,-1,-1
1470331859169169,0,1,11,12,-1,-2,-1,0
1470331859169169,0,-7,-28,-19,0,-2,-2,-2
1470331859181677,-2,-2,0,6,-1,1,-1,-2
1470331859181677,-2,1,17,14,1,2,0,1
1470331859190184,-1,3,8,-4,-2,-2,-1,-3
1470331859190184,-3,-4,-17,-18,-4,-2,0,2
1470331859205253,0,2,1,-1,-2,-1,0,0
1470331859205253,3,-1,5,5,-1,-3,-2,-1
1470331859206701,-9,-4,2,-6,-3,0,-2,-3
1470331859206701,4,1,-13,-4,-3,0,0,-2
1470331859227720,-7,-4,-6,-11,-2,-1,-1,-1
1470331859227720,2,-1,11,15,-1,1,-2,-1
1470331859229219,-4,-3,-9,-12,0,-1,-1,0
1470331859229219,-7,-1,7,10,0,0,1,-3
1470331859241730,13,0,-10,-20,-1,-1,-1,-2
1470331859241730,-3,0,9,9,-3,-3,-2,0
1470331859250246,-1,0,-9,-10,-3,1,-3,-3
1470331859250246,1,2,0,11,3,1,-1,-2
1470331859265253,-6,-8,-13,-27,-7,-7,-4,-1
1470331859265253,-10,-4,8,0,0,-1,0,-1
1470331859266755,7,1,3,3,2,-1,-2,1
1470331859266755,3,2,1,4,-2,-1,2,0
1470331859287850,4,-2,-2,5,-1,-1,2,-1
1470331859287850,-1,4,2,-6,-1,-1,-1,2
1470331859289274,-4,-3,0,6,1,0,-3,-10
1470331859289274,-12,-2,-4,-13,-2,-2,1,1
1470331859301309,-1,1,0,11,1,0,-5,1
1470331859301309,6,-3,-13,-11,-3,0,1,0
1470331859310292,3,3,12,15,0,-3,-3,1
1470331859310292,1,-1,-8,-5,-1,-1,0,-3
1470331859325310,-2,-1,-3,-6,-2,1,0,3
1470331859325310,-4,-2,-7,-5,-2,-1,-3,-1
1470331859326808,-2,2,12,4,-3,-1,-1,-3
1470331859326808,0,-4,-4,-4,-2,-4,-1,-4
1470331859347882,3,-1,0,2,-1,1,1,1
1470331859347882,1,4,-3,-1,-1,0,-1,-1
1470331859349364,-6,-4,11,2,-1,-1,2,1
1470331859349364,0,-2,-4,-2,-1,-2,-1,0
1470331859361339,0,2,3,8,1,-1,1,0
1470331859361339,-1,-5,-12,-9,-3,0,-1,-3
1470331859370358,3,1,-5,-2,1,-1,-1,0
1470331859370358,-9,-5,3,0,-1,-2,-1,-2
1470331859385374,4,-1,-4,0,1,-2,-5,-1
1470331859385374,-1,-1,-2,-6,-4,-2,-2,-6
1470331859386862,-1,0,20,10,2,-1,1,3
1470331859386862,5,2,-13,-5,1,2,-1,0
1470331859407891,-3,-5,-12,-10,-3,1,-2,-1
1470331859407891,-9,-1,5,3,0,-2,-3,-2
1470331859409382,-3,2,5,3,-2,-1,-3,-3
1470331859409382,3,-3,15,4,2,-1,0,3
1470331859421408,-1,1,0,6,-1,-2,0,-3
1470331859421408,0,-2,-20,-18,-2,-2,-2,-1
1470331859430401,1,-1,-11,0,0,-2,0,2
1470331859430401,-1,2,-2,-1,-4,-3,-3,-2
1470331859445421,-13,-1,7,3,0,0,0,-2
1470331859445421,1,-7,-1,-2,-2,0,2,0
1470331859446916,3,0,-12,-9,-3,-1,-2,0
1470331859446916,8,3,7,3,-2,-2,-2,-2
1470331859467934,-11,3,16,6,-1,-1,0,-2
1470331859467934,-7,-2,7,2,0,-1,-2,-1
1470331859469474,0,-5,-13,-8,-3,-2,-1,-2
1470331859469474,2,-5,-14,-3,-2,0,0,2
1470331859481501,4,-2,-4,-2,-2,-2,-6,-6
1470331859481501,-6,2,8,3,2,2,10,8
1470331859490506,5,1,4,0,-1,0,-3,0
1470331859490506,-1,0,3,2,-3,0,-1,-2
1470331859505536,-3,-6,-3,-3,-1,-1,-1,-4
1470331859505536,4,2,-6,-1,2,-2,-3,-1
1470331859506973,-6,-4,-4,-4,-2,1,0,1
1470331859506973,-1,1,-9,-7,-2,0,1,-1
1470331859528018,2,6,28,16,-1,-1,-1,0
1470331859528018,-2,-4,-7,-1,0,-3,-3,-5
1470331859529489,1,-1,-3,4,-1,0,2,1
1470331859529489,0,-3,-6,-5,-1,-1,-4,2
1470331859550509,-3,-5,-4,-8,1,1,0,0
1470331859550509,3,1,4,3,-4,-1,-2,-2
1470331859552009,5,3,-2,-3,0,-3,-2,-1
1470331859552009,-15,-5,-8,-3,-2,0,-1,-2
1470331859565522,1,-3,-6,5,-2,-1,0,1
1470331859565522,3,-3,1,-3,0,0,2,0
1470331859567024,-1,1,0,4,-1,-1,-1,-2
1470331859567024,-1,0,11,14,-1,-2,-1,-1
1470331859587543,6,-1,-18,-30,-1,-3,-1,-2
1470331859587543,-3,-1,-6,-4,-2,-1,-3,-5
1470331859589544,1,-1,9,4,-2,-3,0,-2
1470331859589544,-2,1,0,8,1,-1,1,-1
1470331859610562,-2,1,1,-1,1,-2,0,-1
1470331859610562,-7,-1,11,19,-2,-1,-2,-3
1470331859612063,2,1,8,-22,-1,-2,-2,1
1470331859612063,1,-5,-26,-4,-2,1,-2,0
1470331859625576,1,-1,-1,-2,-2,-1,0,0
1470331859625576,4,4,-3,5,0,-1,-1,2
1470331859627078,-9,-2,-3,-7,-3,0,-2,0
1470331859627078,-8,-4,14,11,-1,-3,-3,-9
1470331859647597,9,0,-10,1,-1,1,2,2
1470331859647597,-5,-2,1,-1,-2,-1,0,-2
1470331859649098,-12,-5,-5,5,0,0,0,1
1470331859649098,4,-1,-17,-17,-1,-2,1,-1
1470331859670137,-3,1,25,14,-4,-2,-2,-3
1470331859670137,8,3,2,-5,-1,-1,-4,0
1470331859672133,0,0,-5,-5,-3,-1,-4,-2
1470331859672133,-4,-3,4,-1,0,-1,-2,0
1470331859684644,8,-1,-23,-14,-2,0,2,0
1470331859684644,2,2,0,0,-1,-3,-1,0
1470331859691636,-3,-6,-8,-4,-2,-1,0,0
1470331859691636,-7,0,10,1,1,0,0,-4
1470331859707666,-5,0,-4,7,-1,-1,1,0
1470331859707666,7,-3,-16,-17,-3,-2,-4,-2
1470331859709150,-3,0,4,5,0,-1,0,-1
1470331859709150,3,-3,2,1,0,-1,1,5
1470331859730670,-8,1,0,2,0,0,-2,-6
1470331859730670,-7,-2,-1,5,-1,0,-1,-6
1470331859731673,8,-4,-25,-21,-3,-2,-2,0
1470331859731673,-3,2,22,4,-1,0,0,2
1470331859744710,-5,0,1,1,-1,-1,0,5
1470331859744710,-4,1,2,1,-1,-2,-3,2
1470331859751688,-5,-5,-11,-4,-2,-1,-3,-3
1470331859751688,12,1,-7,-6,1,0,3,-1
1470331859767731,6,-2,-5,-4,0,-1,-5,1
1470331859767731,-2,-2,2,1,-1,-10,1,6
1470331859769705,-5,2,11,9,1,17,0,-14
1470331859769705,2,0,-7,-4,-4,-6,-4,4
1470331859790279,-21,-6,-3,-4,0,-5,-4,-8
1470331859790279,11,-5,-16,-4,1,7,11,-3
1470331859791772,5,-1,26,6,-2,-4,6,7
1470331859791772,-15,1,5,2,-3,-7,-11,-15
1470331859804746,3,-2,-11,-3,-1,-2,-7,4
1470331859804746,-3,-3,-3,-4,-1,1,-4,-8
1470331859811742,8,-2,-1,1,0,-8,-1,4
1470331859811742,-3,-3,-2,-2,-3,5,4,8
1470331859827756,8,4,-1,2,-3,-4,-8,-5
1470331859827756,-7,-5,-24,-16,-2,3,-2,-5
1470331859829758,-3,-2,18,8,0,-3,0,-2
1470331859829758,7,-1,-18,-7,0,-6,-4,4
1470331859850294,-5,6,30,6,-3,0,5,7
1470331859850294,0,-7,-23,-6,-1,2,-5,-12
1470331859851778,-5,0,10,2,1,-6,-3,0
1470331859851778,-7,3,7,3,0,2,3,3
1470331859864790,-2,-7,-3,2,-1,8,-1,-7
1470331859864790,3,4,7,4,-2,-5,1,4
1470331859871893,7,2,-18,-1,0,-4,-6,0
1470331859871893,3,-5,2,-7,0,-1,1,-2
1470331859887879,-2,-1,2,3,0,-2,5,-7
1470331859887879,-10,-2,6,-2,-3,1,-8,3
1470331859889902,-2,-1,2,10,-1,1,5,-1
1470331859889902,8,-1,-10,-8,-1,-3,-2,7
1470331859910333,3,-3,-9,-9,-3,4,2,2
1470331859910333,-1,-1,5,0,-1,-1,1,-2
1470331859911847,-4,2,3,2,-1,0,-2,2
1470331859911847,-2,-2,7,4,-1,0,-1,-9
1470331859924848,-4,-3,-6,4,0,-3,1,-1
1470331859924848,9,-1,-13,-14,-1,-2,-4,2
1470331859931405,-2,2,18,10,1,2,0,-2
1470331859931405,-9,-2,-1,1,0,0,-2,-4
1470331859947937,4,-2,-6,-5,-3,-3,-1,1
1470331859947937,-3,2,8,6,1,1,1,0
1470331859949368,-1,-5,-14,-12,-2,-2,-4,0
1470331859949368,-6,-2,-2,0,2,1,-1,-10
1470331859970393,6,-1,-1,-2,-1,-5,-1,5
1470331859970393,6,3,7,2,-1,4,4,1
1470331859971919,-11,-3,-10,-9,-2,-3,-3,-1
1470331859971919,0,2,-6,0,-2,2,4,0
1470331859984997,-8,-3,1,-1,0,-3,-6,-7
1470331859984997,-2,-2,12,7,-3,-3,-1,1
1470331859991920,3,2,-9,-7,-1,-2,1,1
1470331859991920,5,4,8,6,-1,0,0,-3
1470331860007918,1,-5,-12,-2,-1,-1,-3,-2
1470331860007918,-9,-3,-4,-5,-2,-3,-1,0
1470331860009419,-1,1,13,11,-1,-2,-1,-1
1470331860009419,3,-2,-14,-8,-1,-2,-3,-2
1470331860030439,1,1,-1,-1,-1,1,3,3
1470331860030439,-2,0,5,3,0,-6,-4,-1
1470331860031940,3,-3,-15,-7,0,1,-3,-6
1470331860031940,6,0,2,-2,-3,0,-3,4
1470331860043952,-11,-2,5,2,1,3,2,-6
1470331860043952,1,-6,-10,-6,-1,-3,2,9
1470331860052959,-15,-2,3,-1,0,-2,-3,-5
1470331860052959,1,0,1,1,-1,1,-4,0
1470331860067972,3,-1,-11,-5,-1,1,1,4
1470331860067972,2,4,5,4,-1,-1,-4,-4
1470331860069473,9,-2,3,-5,-4,-1,8,5
1470331860069473,4,-4,-6,-4,-2,0,-6,-1
1470331860090492,-14,2,12,7,0,-3,-1,-3
1470331860090492,-2,0,-5,-1,-1,0,2,2
1470331860091994,-7,-2,-13,-3,0,-2,-9,-15
1470331860091994,-4,-5,-10,-9,-2,-2,4,4
1470331860104021,9,3,2,-1,-4,-1,-1,-6
1470331860104021,-1,3,21,6,0,0,-2,-3
1470331860113013,-5,-2,-15,0,-3,-1,-1,1
1470331860113013,8,1,-2,-3,0,1,1,-1
1470331860128027,-6,0,4,-1,-1,-2,-3,-5
1470331860128027,0,-3,-6,-4,0,-2,-1,-3
1470331860129528,3,1,-11,-3,-1,6,5,1
1470331860129528,-2,-1,8,2,-3,-5,-1,0
1470331860150546,-6,0,5,3,-1,-5,-1,-4
1470331860150546,2,1,7,6,-2,2,-4,-1
1470331860152047,-1,-6,-10,-7,0,-4,3,5
1470331860152047,0,-2,0,6,-2,0,-5,-12
1470331860164071,3,0,-10,-6,0,-1,2,7
1470331860164071,-10,-3,8,-3,-3,-4,-5,-8
1470331860173068,7,-1,-3,2,-1,-5,-2,1
1470331860173068,-10,-3,-5,-4,-2,4,2,5
1470331860188080,6,-2,-1,-2,0,0,-3,-4
1470331860188080,-6,-4,-9,-5,-2,0,-6,-1
1470331860189581,-1,2,6,2,-1,0,-1,-1
1470331860189581,3,-1,-8,-6,-1,-3,0,2
1470331860210601,1,3,31,13,-1,-2,-2,0
1470331860210601,-1,-3,-1,3,0,-1,2,1
1470331860212164,8,2,0,-1,0,0,-1,5
1470331860212164,-2,0,-3,2,0,-2,-1,-10
1470331860224151,-20,-5,-27,-16,0,-1,0,-4
1470331860224151,6,0,4,-2,0,0,3,1
1470331860233147,3,0,0,2,0,0,-4,2
1470331860233147,-4,-5,-16,-9,-1,-2,-3,-2
1470331860247635,12,2,16,5,-1,-1,-1,2
1470331860247635,-4,4,5,3,-2,-3,-1,0
1470331860249137,-6,-5,-9,-5,-1,1,1,-10
1470331860249137,1,0,-3,-1,-2,-2,-1,-4
1470331860269654,-3,-5,-9,-5,-1,0,-4,0
1470331860269654,-5,-1,-3,-5,-2,-7,-2,-3
1470331860270654,12,1,5,3,-1,7,-1,3
1470331860270654,-13,0,9,2,0,-4,0,-4
1470331860292204,5,-6,-12,7,-1,-1,-4,-1
1470331860292204,1,-2,-12,-28,-5,-6,2,6
1470331860293174,-13,-2,6,6,1,-2,-2,-7
1470331860293174,-5,-3,3,-4,-2,-2,0,-3
1470331860307215,1,-2,0,5,-2,0,-4,2
1470331860307215,-2,-2,2,7,-1,-1,-2,-4
1470331860308194,6,0,-15,-18,-3,-4,1,9
1470331860308194,0,1,13,10,1,2,4,0
1470331860329742,4,0,-5,-12,-4,-3,-6,4
1470331860329742,1,-1,-7,6,2,2,1,-4
1470331860330208,-5,-1,7,3,-1,-2,-3,-9
1470331860330208,-1,-1,-2,-4,-1,-3,-2,2
1470331860360281,2,-3,-12,-5,0,0,6,6
1470331860360281,-3,-2,10,2,1,6,0,-6
1470331860361263,-1,-1,0,5,-1,-2,-3,0
1470331860361263,-5,-2,-1,-3,-1,-4,0,5
1470331860366744,1,-1,-4,-3,-2,-2,-3,-9
1470331860366744,1,-4,-7,1,0,-1,-1,0
1470331860374788,-1,5,10,-2,-4,-4,-1,2
1470331860374788,-3,-2,-9,-8,0,0,-1,-1
1470331860405301,2,-1,6,9,0,-1,1,-2
1470331860405301,2,-1,-14,-10,-1,-1,-2,1
1470331860406276,1,-2,3,2,0,-2,0,-6
1470331860406276,5,5,11,16,-1,1,-4,1
1470331860412310,-10,-3,-7,-5,-1,-1,-1,0
1470331860412310,-12,-1,1,3,0,0,-2,-11
1470331860412782,1,-5,-13,0,-2,-1,1,4
1470331860412782,1,-5,3,-12,-1,0,-2,1
1470331860427310,3,0,-5,-10,1,0,1,-3
1470331860427310,3,-1,2,0,-4,-3,-3,-6
1470331860427851,-3,1,-6,-5,-1,-1,-4,2
1470331860427851,5,3,-1,4,1,0,-1,1
1470331860449816,-4,-3,-5,-2,0,2,5,0
1470331860449816,-3,-2,6,7,1,2,1,5
1470331860450315,0,0,15,-2,-1,-4,-4,-7
1470331860450315,-3,-3,-13,0,-2,1,-2,-1
1470331860472335,0,-1,5,-6,-2,-1,-1,2
1470331860472335,2,0,-3,-1,0,-2,-1,2
1470331860472836,-2,-2,-5,5,1,1,0,-7
1470331860472836,-5,0,12,4,0,-2,-3,-1
1470331860487350,1,-5,-2,0,0,1,-2,-5
1470331860487350,-4,0,-3,-1,0,1,-1,0
1470331860487868,0,0,0,3,-1,-3,-3,0
1470331860487868,2,0,-13,-8,-2,-1,1,1
1470331860509869,-3,-2,6,3,-1,-1,1,4
1470331860509869,0,-1,3,2,-3,-3,-5,-14
1470331860510372,-2,-3,2,-1,0,-2,0,4
1470331860510372,-3,-1,1,6,0,-2,0,-4
1470331860532429,5,1,0,2,-1,0,-1,4
1470331860532429,3,3,6,10,-1,0,0,5
1470331860532890,-5,-1,-15,-10,-3,-1,-2,-8
1470331860532890,2,-2,-5,-13,-2,-1,3,4
1470331860546908,-4,-1,0,1,0,-2,-2,-2
1470331860546908,1,1,-1,-5,-2,-2,-2,0
1470331860547904,-2,2,2,8,0,3,3,4
1470331860547904,1,-4,-13,-11,0,0,-4,-5
1470331860569930,0,1,-1,-1,-2,0,-3,-4
1470331860569930,1,1,10,6,0,1,-1,0
1470331860570424,0,2,-2,-8,-3,0,-4,1
1470331860570424,-3,-3,-2,2,0,-3,-2,-5
1470331860592453,-6,-3,-9,-3,-3,-1,-2,-3
1470331860592453,5,-1,11,-3,-2,-2,-3,0
1470331860592944,-12,-4,-2,2,-2,-1,4,4
1470331860592944,1,0,-5,-1,-2,-4,-2,-11
1470331860606957,-2,-1,1,-2,0,0,-1,-2
1470331860606957,10,-1,-18,-8,-1,-1,2,2
1470331860607958,-11,-3,0,-3,0,-2,-2,0
1470331860607958,-7,1,16,4,-1,1,-1,1
1470331860638068,10,-5,-5,4,0,-2,-1,-2
1470331860638068,-4,-5,-13,-6,-1,-1,-2,-1
1470331860638488,6,4,-1,0,-3,-2,-2,-1
1470331860638488,0,3,5,1,-2,-2,0,-1
1470331860652042,-8,2,7,4,-1,0,-3,-2
1470331860652042,-1,-5,-11,-8,-4,1,4,6
1470331860653028,0,-8,-6,-8,-2,-1,-3,-6
1470331860653028,-12,-1,1,5,-1,0,-2,2
1470331860667511,6,2,2,3,-1,-3,-1,3
1470331860667511,-2,-1,-8,-11,-3,0,-3,-10
1470331860668012,-1,-1,2,3,-1,-1,0,0
1470331860668012,7,1,-2,-3,-1,-1,1,1
1470331860698038,-8,-1,-11,-7,-2,-3,-2,0
1470331860698038,-6,-1,11,8,2,-1,-2,-2
1470331860698538,3,2,11,5,-1,-1,-3,-4
1470331860698538,-1,-3,2,2,0,-2,0,1
1470331860712051,0,-3,-17,-9,0,0,0,-4
1470331860712051,-4,0,10,9,-2,-2,-2,0
1470331860713052,2,0,2,-4,-1,0,-1,0
1470331860713052,1,1,-2,5,1,0,-2,0
1470331860727092,3,-4,-13,-10,-2,-1,2,3
1470331860727092,-4,2,2,-4,-4,-3,-1,-3
1470331860728065,-6,1,16,6,3,0,-1,0
1470331860728065,-3,-3,-9,-6,-2,-2,-1,-3
1470331860749600,-4,-1,9,19,3,0,-1,-2
1470331860749600,-1,-4,1,-6,-2,0,-1,0
1470331860750085,7,1,-4,2,-3,1,1,-2
1470331860750085,2,-4,-15,-17,-2,-1,-2,-1
1470331860772134,-3,1,5,4,0,0,0,-3
1470331860772134,-1,-7,-13,-8,-1,-3,-2,0
1470331860772608,-4,-1,15,9,2,-2,0,-3
1470331860772608,2,0,-12,-14,-2,0,0,3
1470331860787136,-1,2,4,3,-2,-2,1,-5
1470331860787136,-8,-2,-1,-7,-1,-2,-1,2
1470331860787618,2,-2,9,14,-1,-2,0,-1
1470331860787618,0,2,-7,-7,-1,-2,-3,-2
1470331860809655,-4,-3,-11,-19,-1,-3,-6,2
1470331860809655,1,-2,-3,12,-1,0,7,-2
1470331860810138,0,-1,-6,-12,-1,-1,-1,-1
1470331860810138,-1,-2,6,20,1,-2,-2,0
1470331860832177,-3,1,16,-6,-4,-1,0,1
1470331860832177,2,-3,-17,-3,-3,-3,-3,-2
1470331860832661,-1,-1,-8,-4,-2,1,-3,1
1470331860832661,2,-1,2,-3,0,-1,0,-3
1470331860847186,0,-3,-1,3,0,1,0,1
1470331860847186,-3,-2,7,4,1,-1,-2,-1
1470331860847684,-1,-1,-11,-4,-1,-2,0,-2
1470331860847684,-1,-1,1,-6,-2,-1,-3,-1
1470331860869719,1,1,9,4,-1,-2,-1,-4
1470331860869719,0,2,2,2,-1,0,-1,-1
1470331860870192,0,-3,-15,-10,-3,0,-1,-1
1470331860870192,-3,-3,2,3,-1,-2,0,-2
1470331860892212,-1,0,3,4,-3,0,2,-1
1470331860892212,3,0,3,8,0,1,-1,0
1470331860892713,-1,-7,-26,-29,-3,-1,-3,-1
1470331860892713,-1,-1,11,0,-2,-1,-1,-2
1470331860907293,-4,3,13,11,0,-2,0,-2
1470331860907293,2,0,-6,-7,-2,-1,-3,-3
1470331860907726,-3,-3,0,1,-1,-1,1,0
1470331860907726,1,-2,-8,-3,-1,-1,-1,0
1470331860929746,2,-1,-9,-10,-2,-3,1,-3
1470331860929746,-2,1,-3,1,1,1,0,-1
1470331860930249,0,-2,9,4,0,-2,0,-2
1470331860930249,-2,-4,-3,-1,-1,-2,-1,-2
1470331860952298,1,0,-6,-4,1,1,-2,2
1470331860952298,-1,1,-3,-7,-3,-2,-2,2
1470331860952767,-1,2,8,5,-2,-2,-2,-8
1470331860952767,-2,-2,6,8,-1,0,-1,-2
1470331860967280,0,0,-3,-4,-1,-1,0,1
1470331860967280,-1,-4,-2,-6,-1,-2,-2,0
1470331860967780,-1,-4,-2,-1,0,-3,-2,0
1470331860967780,0,2,7,8,-2,-2,-1,0
1470331860989809,0,1,-4,4,-3,-1,-2,-2
1470331860989809,1,-2,-3,-5,0,0,-3,0
1470331860990326,-1,1,2,0,0,-1,-2,0
1470331860990326,-2,-2,-6,2,-2,-2,0,-1
1470331861012320,-2,-2,-3,-1,-2,-1,-1,-1
1470331861012320,-1,-2,10,1,-1,0,-1,-1
1470331861012821,-3,-3,-5,-4,-1,-2,0,0
1470331861012821,-1,3,1,5,0,0,-1,-2
1470331861026345,6,0,-1,-13,-3,-1,-1,-2
1470331861026345,-9,0,2,0,1,0,0,-1
1470331861034840,-3,-5,-13,-2,-3,-2,-4,-2
1470331861034840,3,-2,6,-6,-3,-1,-1,-1
1470331861049854,1,-2,-5,5,1,0,-1,-3
1470331861049854,4,6,13,6,-1,-4,-1,1
1470331861050356,-1,1,-5,-2,-1,0,0,1
1470331861050356,-2,-3,-3,-6,-2,0,-1,-1
1470331861072374,0,-2,11,21,2,1,-1,1
1470331861072374,1,-1,-32,-40,-6,-1,0,-1
1470331861072874,-3,0,19,11,-1,1,-2,-1
1470331861072874,2,2,1,3,1,-1,-1,0
1470331861086894,-3,-1,-4,-8,1,-3,-2,0
1470331861086894,-2,1,2,12,1,0,0,-1
1470331861094894,1,-2,-5,-9,-2,-1,0,2
1470331861094894,-2,-1,10,0,-1,-1,-2,-6
1470331861109934,-2,2,-3,2,-1,3,1,2
1470331861109934,-1,-2,6,3,-2,1,-1,-4
1470331861110408,3,4,9,5,3,0,0,0
1470331861110408,-6,-6,-11,-5,-1,-4,-3,-2
1470331861132428,-2,0,-12,3,0,-3,0,1
1470331861132428,0,-1,4,-4,-1,-3,-1,1
1470331861132929,-1,-3,5,-4,-3,1,-2,0
1470331861132929,-3,-2,5,1,0,-3,-2,0
1470331861146443,2,1,7,9,0,3,1,-1
1470331861146443,-2,-4,14,-5,-2,0,0,0
1470331861154503,1,6,1,1,3,1,5,-2
1470331861154503,-1,-4,-13,4,0,2,-2,1
1470331861169465,5,-2,3,-20,-5,-3,-1,0
1470331861169465,-10,2,3,9,0,0,-1,-7
1470331861170462,3,2,-3,-3,-1,-3,1,0
1470331861170462,-9,-3,-1,-8,-1,2,-5,-2
1470331861192482,-5,0,-6,-8,-3,1,1,-1
1470331861192482,6,-10,-26,2,0,-2,-1,0
1470331861192982,-4,-1,0,1,-2,0,-3,-3
1470331861192982,5,5,-6,-7,-2,-4,-1,-2
1470331861206494,-3,0,12,-10,-7,-4,-3,-4
1470331861206494,-5,-3,-7,4,0,-1,0,-1
1470331861215503,-1,-3,-8,2,-2,-1,-1,0
1470331861215503,3,2,6,5,3,2,4,3
1470331861229552,-5,-7,-16,-15,1,-1,-2,-2
1470331861229552,1,2,9,7,0,0,-1,0
1470331861230519,0,-1,-4,2,-4,-2,-2,0
1470331861230519,-1,2,1,-6,1,0,2,-1
1470331861252540,-2,1,1,3,-1,-1,-2,-1
1470331861252540,-1,-6,-10,0,-1,-2,-1,-1
1470331861253037,-2,1,14,15,5,1,-1,1
1470331861253037,1,1,-1,3,-2,0,-1,-1
1470331861275556,0,-4,-1,2,-3,0,-1,-1
1470331861275556,2,1,-9,-16,-5,-2,-1,-1
1470331861276058,-3,-5,-7,-5,-1,0,-1,-1
1470331861276058,1,-2,0,8,0,1,0,-2
1470331861289570,-5,-3,0,-4,2,-2,1,-1
1470331861289570,0,1,6,16,1,0,-2,-3
1470331861290570,0,-2,-11,-19,-6,-3,-1,-4
1470331861290570,1,1,-1,-5,0,0,0,1
1470331861312114,0,-1,-7,4,-3,-1,-2,-1
1470331861312114,0,-3,1,-9,-3,-1,-2,2
1470331861313093,2,0,8,1,-1,-1,-1,-2
1470331861313093,0,-3,-19,-4,-2,-2,0,-1
1470331861335128,-2,-3,-6,-4,-3,-1,-2,-1
1470331861335128,2,-7,-3,0,0,0,1,1
1470331861336111,7,5,4,7,1,0,-2,-2
1470331861336111,-16,-10,-6,-11,-5,-2,-1,-2
1470331861349623,-4,3,7,8,0,-2,-2,-2
1470331861349623,-1,-1,-3,0,-1,-2,-2,-2
1470331861350624,1,-1,-10,-9,-1,-1,-1,0
1470331861350624,3,3,4,2,-1,-1,-2,0
1470331861372171,-1,-2,-1,-1,0,-1,-1,-1
1470331861372171,-1,-3,5,8,3,0,0,1
1470331861372648,0,-1,-7,-2,-1,-2,1,1
1470331861372648,1,1,6,0,-2,-3,-1,-1
1470331861386662,-1,-6,0,6,0,-2,-2,-3
1470331861386662,4,3,1,-7,-2,0,-2,0
1470331861394678,-8,-1,-11,8,-1,0,1,-1
1470331861394678,-4,-1,6,-2,0,-1,-1,-2
1470331861409680,0,-4,-1,-16,-4,-4,-1,0
1470331861409680,-1,0,-11,-10,0,-1,-1,-1
1470331861410177,-3,-1,17,8,-2,-3,-2,-1
1470331861410177,3,5,2,8,-2,-1,0,-2
1470331861432213,0,-5,-6,0,-1,-1,1,1
1470331861432213,-1,3,-8,-10,-3,-1,0,-3
1470331861432707,-2,-2,9,2,0,-2,-2,0
1470331861432707,2,2,6,8,1,0,-1,-1
1470331861455722,-2,2,3,1,0,1,0,-1
1470331861455722,5,2,-11,1,-1,-3,-1,-1
1470331861456219,-5,-6,-19,-14,-2,0,-1,-1
1470331861456219,-9,-6,16,1,-3,0,-4,-4
1470331861469753,4,3,-1,-3,2,2,-1,-1
1470331861469753,-8,-6,-5,2,-1,2,0,-1
1470331861470231,6,1,-2,4,-2,-1,-1,0
1470331861470231,-4,0,-8,-18,-3,-1,-1,1
1470331861492270,-6,2,8,4,-2,-2,0,0
1470331861492270,-3,0,19,7,0,-2,0,-2
1470331861492753,7,5,9,7,-2,-2,0,0
1470331861492753,4,-4,-21,-11,-3,-2,-1,4
1470331861515287,-8,-2,4,23,3,1,0,0
1470331861515287,1,2,13,-25,-4,-3,-1,0
1470331861516273,-6,-5,-13,-2,-1,-1,-1,-2
1470331861516273,-6,-3,1,-2,0,-2,-1,-3
1470331861529785,1,3,5,12,-2,-1,-3,-2
1470331861529785,-1,-1,-9,2,-1,-1,-1,0
1470331861530286,1,0,-7,-13,-2,1,-1,0
1470331861530286,9,1,-9,-1,-1,-2,-2,-3
1470331861552305,0,1,-2,-1,1,0,1,2
1470331861552305,-10,-6,4,15,2,-2,-2,-5
1470331861552806,-6,-3,-2,-5,1,0,-1,-5
1470331861552806,1,3,7,-2,-1,-3,-2,2
1470331861575327,-1,-4,-13,-8,-1,-1,0,2
1470331861575327,6,0,5,3,-2,-2,-2,-4
1470331861575827,-5,-7,-17,-9,-1,-1,-1,-3
1470331861575827,-3,2,4,2,-2,-2,-1,-4
1470331861589841,4,10,4,-1,-2,-3,-1,-1
1470331861589841,6,1,6,6,0,1,0,1
1470331861590340,-10,3,-11,-10,-3,-1,-2,-3
1470331861590340,2,0,33,2,-2,-1,-2,1
1470331861612360,8,-10,-34,0,-1,-2,-3,-2
1470331861612360,-3,-1,-13,-7,-1,0,-1,1
1470331861612859,-1,-8,7,7,0,0,-1,0
1470331861612859,-1,1,-5,4,0,-1,2,2
1470331861635399,-5,3,6,-10,-2,0,-3,0
1470331861635399,10,0,0,5,1,-1,-1,0
1470331861635905,-2,0,-9,-4,-3,-2,-2,0
1470331861635905,-12,-7,-10,-4,-1,0,-2,-5
1470331861649394,4,-4,6,-3,-2,-2,1,-2
1470331861649394,-4,0,-1,4,-1,-1,-1,0
1470331861650394,-2,-2,2,-4,-2,-2,-2,-4
1470331861650394,3,-1,-19,-6,-3,0,0,1
1470331861672454,-1,-2,13,4,1,1,-1,-2
1470331861672454,1,1,-2,-16,-5,0,-2,-2
1470331861672913,2,3,8,5,2,0,-1,0
1470331861672913,0,-7,-11,5,0,0,2,1
1470331861695451,-10,-6,-25,-28,-6,-3,-2,-2
1470331861695451,-7,-1,13,10,0,-2,0,0
1470331861696435,2,0,-3,-1,0,0,-1,9
1470331861696435,-4,1,12,5,-1,-1,-2,-11
1470331861709446,-2,-4,-13,-1,-2,0,1,-2
1470331861709446,14,6,25,9,-3,-1,-2,0
1470331861710447,-20,-4,-2,10,1,0,-1,-2
1470331861710447,2,-8,-34,-35,-5,-3,-3,1
1470331861732471,1,5,11,1,-1,0,-3,1
1470331861732471,-2,-3,-10,1,1,0,1,-3
1470331861732987,9,1,1,-4,0,-1,-1,-1
1470331861732987,7,0,5,10,-2,-2,0,-1
1470331861755487,-19,-4,-1,-3,0,0,0,-6
1470331861755487,-2,-4,-9,-8,-1,0,-2,1
1470331861755988,2,-1,-1,2,-1,0,0,0
1470331861755988,6,3,2,1,1,0,1,2
1470331861769501,2,0,2,0,-4,-2,-2,0
1470331861769501,-4,7,2,6,1,1,1,-1
1470331861770501,-4,-20,-2,-4,-3,-3,-4,-5
1470331861770501,4,-1,-27,3,0,0,-2,0
1470331861792065,2,2,16,13,2,-1,0,1
1470331861792065,-13,-12,-27,-24,-4,-2,-4,-2
1470331861793063,5,3,-2,-7,-1,-2,-1,-1
1470331861793063,-6,-1,11,1,0,-2,-2,0
1470331861815541,12,6,3,4,-1,0,-1,0
1470331861815541,-10,-3,7,4,-1,-3,-1,-4
1470331861816045,5,2,2,-2,-1,0,1,-2
1470331861816045,0,-1,5,-1,-3,-3,-2,2
1470331861829078,3,0,-25,-12,-1,0,-1,-4
1470331861829078,-7,-2,24,4,-3,-1,0,-1
1470331861837566,1,-2,-3,2,-1,-1,0,-1
1470331861837566,-4,1,3,9,0,0,0,0
1470331861852579,-1,-2,10,-1,-2,-1,-1,0
1470331861852579,0,-2,-20,-3,-1,-4,-1,1
1470331861853093,4,4,4,-1,1,-1,-2,-2
1470331861853093,-6,-2,5,4,1,0,-2,-7
1470331861875597,0,-3,0,-6,-3,-1,-2,0
1470331861875597,-3,-2,2,5,0,-1,-1,-6
1470331861876100,4,4,-3,1,-1,0,0,2
1470331861876100,3,1,7,0,0,0,-2,2
1470331861889655,-11,-6,5,-2,-1,-2,-3,-5
1470331861889655,2,1,-6,-1,0,1,-2,0
1470331861890641,-3,-2,5,-1,-2,-1,0,0
1470331861890641,7,-1,-3,0,0,1,1,1
1470331861912130,3,-1,6,0,-3,-3,0,2
1470331861912130,-1,-2,-14,-11,-1,-1,-1,0
1470331861913143,2,0,-12,-6,-4,-3,-2,-2
1470331861913143,-13,0,28,8,0,-1,1,0
1470331861935660,7,1,-1,7,0,-1,1,-7
1470331861935660,1,0,-8,-1,-2,1,-2,2
1470331861936194,-3,-7,-3,-2,-1,-2,-2,-2
1470331861936194,-9,3,-8,-4,-1,-1,0,-2
1470331861949702,-1,-1,9,2,0,-4,-3,-1
1470331861949702,6,-1,-4,-3,-2,0,-2,-6
1470331861950162,-5,1,-7,0,0,-1,8,10
1470331861950162,0,-3,11,4,0,1,-6,-2
1470331861972182,-1,-4,-13,-6,-1,-1,1,5
1470331861972182,-6,0,10,0,0,-3,-2,-5
1470331861972684,3,2,-7,-3,-1,5,0,-2
1470331861972684,4,-1,-8,-3,0,-5,1,1
1470331861995259,-2,-3,2,-3,0,1,-2,-1
1470331861995259,1,-1,-1,6,-1,-2,0,6
1470331861996203,-2,0,4,1,-2,-4,-1,-6
1470331861996203,4,3,-5,-3,0,2,0,3
1470331862009716,4,0,-5,-6,-5,-1,-2,1
1470331862009716,-21,-7,-1,-2,0,-2,-2,-5
1470331862010216,3,1,-2,25,2,-1,-1,-3
1470331862010216,4,-7,-14,-37,-7,-4,-4,-3
1470331862032283,-1,3,27,33,6,-1,1,1
1470331862032283,5,10,-28,-43,-6,0,0,1
1470331862032763,-10,-14,16,20,3,-1,-4,0
1470331862032763,-1,3,-13,0,-3,-3,2,-1
1470331862055298,0,1,-4,3,-3,-2,-1,0
1470331862055298,1,-4,3,13,-2,0,0,3
1470331862056258,-4,4,1,-12,0,-1,-4,-8
1470331862056258,6,-2,-8,-2,-1,-1,0,2
1470331862069302,-2,-2,7,3,0,-2,0,-3
1470331862069302,-9,-1,4,11,0,-2,-2,-2
1470331862077308,-5,-1,-5,-10,-5,-3,-2,-1
1470331862077308,0,-9,6,8,-1,0,-2,-2
1470331862092790,13,11,-10,-5,0,2,2,1
1470331862092790,10,-2,-3,3,1,-1,1,0
1470331862093291,-12,5,-3,-19,-5,-1,-2,-5
1470331862093291,5,-10,-3,10,1,1,-1,-3
1470331862115313,-18,-11,20,-7,-3,-4,-3,-3
1470331862115313,2,3,-5,-6,-5,-5,-1,0
1470331862115811,9,-1,6,5,-1,0,-1,1
1470331862115811,-10,5,-21,-2,8,3,0,-1
1470331862129323,11,0,12,2,-2,-1,-1,1
1470331862129323,-9,-3,-7,0,-1,-2,-1,-3
1470331862137331,-2,-3,-16,-8,-5,-2,-2,-2
1470331862137331,-2,1,21,2,-1,-2,0,-1
1470331862160353,-6,-2,-8,-1,0,1,-1,0
1470331862160353,1,-4,5,-3,-2,-1,-1,-3
1470331862161351,2,2,-8,-2,0,-1,-1,3
1470331862161351,-5,-4,-17,-13,-2,0,-3,-8
1470331862175366,-4,-1,-17,0,1,1,0,-2
1470331862175366,4,3,16,14,-1,0,0,1
1470331862176367,2,-3,-16,-22,-2,-1,-1,2
1470331862176367,-5,1,10,9,-1,-2,-1,2
1470331862188891,2,0,-6,-5,-2,-3,-1,-3
1470331862188891,-2,-6,-4,3,1,2,-1,1
1470331862197384,-1,-1,-6,-7,-1,0,-1,-1
1470331862197384,-2,2,34,13,-3,-1,-1,-1
1470331862212400,-2,2,-19,-7,-2,-2,-1,-2
1470331862212400,5,-3,0,7,1,1,0,1
1470331862213399,2,-5,-9,-10,0,0,0,-2
1470331862213399,-7,2,9,-4,-4,-3,-3,-4
1470331862235418,2,1,2,-3,-2,-1,-1,5
1470331862235418,-3,0,31,21,-1,-3,-3,-10
1470331862235919,3,1,-16,-25,-3,1,-3,1
1470331862235919,-2,-11,-33,-3,-1,-2,0,3
1470331862248934,-7,3,2,-5,0,-1,-1,-2
1470331862248934,4,13,1,2,0,-1,-1,1
1470331862257438,-7,-22,-39,-9,-5,-9,0,1
1470331862257438,4,6,-2,3,1,9,3,-1
1470331862271953,-5,-19,4,2,1,-4,-3,-1
1470331862271953,3,5,19,-11,-2,5,3,5
1470331862272952,-4,-11,10,15,1,0,-3,-5
1470331862272952,-7,2,-50,-15,-7,-9,-5,-3
1470331862295559,-5,-22,16,8,-1,0,0,-1
1470331862295559,0,3,-31,-8,0,-4,-3,1
1470331862296473,1,1,32,13,2,0,-2,-1
1470331862296473,3,8,-5,-6,-1,2,0,-1
1470331862309006,1,4,-6,-3,-2,-1,-2,-3
1470331862309006,-4,-15,-8,-3,-3,-1,-1,0
1470331862317492,0,9,14,3,-2,-1,1,-1
1470331862317492,3,-5,6,4,0,-4,-1,1
1470331862332506,5,7,-4,-7,-1,1,-1,-2
1470331862332506,6,0,1,-5,0,-1,-1,0
1470331862333007,-27,1,3,5,-1,2,-2,-6
1470331862333007,1,2,14,3,0,-2,-1,0
1470331862355526,4,0,-11,-4,-2,0,0,0
1470331862355526,3,-3,-6,-4,0,0,0,2
1470331862356028,9,10,19,13,3,-2,-1,-4
1470331862356028,-7,-3,2,-6,-3,-2,-1,0
1470331862378047,-6,2,-10,-8,-3,0,1,-1
1470331862378047,3,-2,-13,-4,-1,-2,-1,-1
1470331862378557,6,2,26,9,-1,-1,1,1
1470331862378557,-9,-1,8,5,1,1,-1,-2
1470331862392094,-4,-1,-10,-3,1,7,0,0
1470331862392094,-2,-4,-19,-14,-3,-6,-2,4
1470331862393078,-9,-5,9,14,1,-2,-2,-10
1470331862393078,12,6,0,-7,-4,-2,1,4
1470331862415581,3,-2,6,-1,-3,-5,-3,-2
1470331862415581,-7,-1,-5,-6,-1,0,0,-2
1470331862416082,5,4,-2,-4,-1,0,4,4
1470331862416082,-7,-8,12,5,-1,-2,-4,-2
