timestamp,emg1,emg2,emg3,emg4,emg5,emg6,emg7,emg8
1470242759243238,-3,2,0,2,0,1,0,-1
1470242759243238,-10,-12,1,-5,-5,0,1,1
1470242759245241,10,1,-9,1,0,-2,-3,-6
1470242759245241,-3,2,-6,-1,0,-2,-1,2
1470242759246241,-11,0,8,-4,-2,1,0,2
1470242759246241,10,13,3,4,2,0,-1,-4
1470242759247243,-2,-8,-20,-5,-1,-2,-2,0
1470242759247243,-4,-6,14,2,-2,-1,0,1
1470242759255250,5,5,-14,0,-3,-2,-2,-3
1470242759255250,0,-4,2,2,2,-1,-1,0
1470242759263256,-5,-3,7,-2,-1,-1,0,2
1470242759263256,-4,3,0,-7,-2,1,1,-4
1470242759270263,4,-7,-10,1,1,-2,-2,-2
1470242759270263,-3,-3,0,1,-2,0,-2,-2
1470242759285776,-9,-3,5,-4,-3,-1,0,-1
1470242759285776,5,1,-6,0,-1,-2,-1,-4
1470242759292784,-3,-12,3,-1,-1,0,1,-2
1470242759292784,-5,6,0,-8,-1,-1,-1,-1
1470242759314803,1,7,2,0,-1,0,-2,0
1470242759314803,-2,-7,5,-1,-2,-1,-3,1
1470242759315804,-2,-7,-2,0,-1,-1,-1,-2
1470242759315804,0,2,-2,-3,-2,-2,-2,1
1470242759328816,1,1,4,4,-2,-1,1,-2
1470242759328816,-2,0,14,2,-2,-2,-2,-2
1470242759370853,1,-3,6,6,1,-1,-1,0
1470242759370853,-3,-3,6,2,-1,0,0,0
1470242759371353,-2,-1,0,0,-4,-2,-1,-1
1470242759371353,2,-2,-6,2,2,0,-3,-2
1470242759374857,-3,0,3,-3,0,2,-1,1
1470242759374857,-8,-2,0,-7,-4,-2,-1,-2
1470242759375357,9,1,-9,1,1,-3,-2,-4
1470242759375357,-2,0,13,2,-1,-1,-2,-1
1470242759381864,-8,-6,4,-1,-3,-1,0,-1
1470242759381864,9,4,-9,-1,0,-3,-2,-2
1470242759388869,0,-2,-2,-4,1,0,0,0
1470242759388869,-4,3,9,-2,-2,-1,-2,1
1470242759404383,-3,-9,-9,-4,-3,-3,-3,0
1470242759404383,1,1,9,5,1,-2,0,0
1470242759411389,-6,-12,-6,-1,-3,-2,1,2
1470242759411389,0,19,2,-3,-4,-2,0,-4
1470242759419397,5,3,-8,1,-2,-2,-1,-3
1470242759419397,-1,-11,-4,-4,-1,0,0,-2
1470242759442918,-5,3,-3,-1,-2,2,0,0
1470242759442918,2,-6,0,1,0,1,-2,-1
1470242759443419,-4,4,2,2,-1,-1,-2,-2
1470242759443419,-5,-11,-18,-5,-2,0,-1,0
1470242759456431,1,4,8,0,0,-1,0,-3
1470242759456431,-1,-4,-11,-1,0,0,-1,-1
1470242759464437,-1,1,2,-2,0,-1,-1,1
1470242759464437,-1,0,2,1,-1,0,-1,-2
1470242759479452,0,1,2,0,0,-4,-3,-2
1470242759479452,-2,-8,-2,-2,-1,0,0,-1
1470242759486457,-3,-3,-9,-6,-1,-2,0,-1
1470242759486457,-1,4,14,5,0,-3,-2,-2
1470242759502473,-3,1,-5,-3,-1,0,-2,-2
1470242759502473,-3,-2,1,1,-2,-2,0,0
1470242759504473,0,0,0,0,-1,0,-2,-2
1470242759504473,-2,5,-1,-3,-2,0,-1,-2
1470242759516485,-3,-3,-7,-2,-3,-1,0,-2
1470242759516485,-2,-3,0,-3,-1,-1,-2,0
1470242759525493,0,-6,-4,-3,0,0,-1,-1
1470242759525493,-4,-6,-3,1,-3,-3,-1,0
1470242759539005,1,19,14,0,-2,-2,-1,0
1470242759539005,-1,-2,-19,-7,-2,-1,0,-3
1470242759548012,0,-3,8,3,-3,-2,-1,-1
1470242759548012,-3,-1,-1,-3,-1,-1,-2,-1
1470242759562526,0,-2,-3,1,0,-1,-3,1
1470242759562526,-1,-7,8,-1,0,0,-1,1
1470242759564528,0,20,-5,-3,-1,-1,-2,-3
1470242759564528,1,-4,7,4,0,0,0,0
1470242759576538,-3,-3,-6,-1,-1,-1,-1,-1
1470242759576538,0,-2,-1,0,-1,-3,-2,0
1470242759585546,-2,-4,7,1,1,0,-2,0
1470242759585546,-1,2,-6,-3,-2,-1,0,0
1470242759599559,0,-5,-1,0,-1,0,-1,-2
1470242759599559,-5,3,0,1,-1,1,1,-3
1470242759606564,1,-5,6,-1,1,-1,0,-2
1470242759606564,1,6,-6,-3,-1,1,-1,-1
1470242759622580,-4,-12,5,0,1,1,-1,0
1470242759622580,-1,-2,-7,-2,-2,-3,-1,-2
1470242759624580,1,-4,-2,-2,-2,-2,0,-1
1470242759624580,-4,3,-1,-3,-3,-4,0,0
1470242759645100,0,-3,-4,-1,-1,-2,-1,0
1470242759645100,2,1,0,0,0,-1,-1,1
1470242759646601,-2,6,-5,-1,-2,0,0,-3
1470242759646601,-2,-2,-6,-2,-2,-1,-2,-2
1470242759659612,-1,-2,4,2,-2,1,0,1
1470242759659612,-2,1,-22,-4,-3,0,-2,-2
1470242759666618,0,-1,4,-1,-2,-1,0,-1
1470242759666618,1,-4,-3,-4,0,-1,-1,0
1470242759682632,-3,4,7,2,-1,-3,-2,0
1470242759682632,-3,-16,-16,-6,-1,-3,0,-4
1470242759684634,-2,1,-6,-1,-2,-1,0,-1
1470242759684634,1,1,19,6,0,0,0,-2
1470242759705153,0,-1,-5,-1,-1,0,-1,-2
1470242759705153,-2,1,1,-2,0,-1,-2,0
1470242759707155,2,0,-3,-1,0,-1,0,-1
1470242759707155,-2,0,-5,-4,-1,-1,-2,0
1470242759719666,-1,-14,-5,-1,0,0,0,0
1470242759719666,-2,15,15,2,-3,-3,-2,-3
1470242759726672,-4,-13,-9,0,-2,0,1,2
1470242759726672,1,2,-10,-3,-1,0,-2,-3
1470242759742689,0,0,-2,-2,0,0,-2,-3
1470242759742689,1,-5,6,0,1,-1,0,0
1470242759744689,-3,1,6,0,-2,-2,-2,-2
1470242759744689,-1,-7,3,-7,-4,-2,-1,-3
1470242759765208,-2,-5,-39,-8,0,-2,-1,-1
1470242759765208,-5,0,21,8,-1,0,0,1
1470242759766709,-4,1,7,-2,-3,-4,0,0
1470242759766709,4,0,-3,2,1,-1,-1,0
1470242759779720,-1,0,-4,-2,-2,-1,-1,-1
1470242759779720,0,-4,1,-3,-1,0,-2,0
1470242759786726,0,0,-14,-2,0,0,-1,-3
1470242759786726,0,-2,2,0,0,-2,-1,0
1470242759802741,-2,8,6,2,-1,-2,0,-1
1470242759802741,-2,-10,-2,-1,0,0,-1,-1
1470242759804242,1,23,4,3,0,-2,-3,2
1470242759804242,-2,-7,-4,-1,-2,0,1,-1
1470242759825261,-2,4,10,2,0,1,0,-1
1470242759825261,1,-3,1,0,-1,-1,-3,-3
1470242759826763,-2,-3,-9,-7,1,1,-2,0
1470242759826763,-1,-1,1,-1,1,-1,-1,-2
1470242759839773,-3,-2,8,1,-4,-3,-2,-2
1470242759839773,-2,4,-8,-1,0,-1,2,0
1470242759846281,1,-3,-12,-5,-2,0,-1,-2
1470242759846281,-4,-14,14,2,-2,-3,-2,0
1470242759863296,-2,-7,-16,-5,-2,0,-2,-2
1470242759863296,-2,-4,-10,-4,-3,-2,-2,0
1470242759864797,-1,-4,-2,-1,1,1,-1,0
1470242759864797,1,4,-2,-1,2,0,1,-1
1470242759885315,0,-1,16,1,-1,-2,-1,-2
1470242759885315,-1,3,-11,-2,-1,0,-1,-2
1470242759886816,0,-5,4,-2,-2,-2,-1,0
1470242759886816,-2,2,10,6,-2,-1,-2,-3
1470242759899828,0,-3,2,-2,-2,-2,0,1
1470242759899828,-3,-13,2,2,-1,0,0,-1
1470242759906334,-3,13,-3,-1,-3,-4,-3,-3
1470242759906334,0,4,-6,-6,1,1,1,1
1470242759922849,-1,-4,8,4,1,0,0,-1
1470242759922849,0,0,-4,-2,-2,-3,-1,-2
1470242759924350,-3,-6,-3,-5,-1,0,-1,-1
1470242759924350,-3,4,-4,0,-3,-1,-1,-1
1470242759945371,2,2,-7,-3,1,-1,-2,0
1470242759945371,0,3,8,-1,-1,1,0,-1
1470242759946871,-2,-5,1,0,0,-1,0,-3
1470242759946871,-1,-6,-8,-4,-3,0,-1,0
1470242759959381,3,2,6,-2,0,-1,-1,-1
1470242759959381,-5,0,9,3,-4,-3,-2,-2
1470242759966388,-2,-5,8,1,-1,-2,1,1
1470242759966388,1,2,1,1,2,0,0,-1
1470242759982904,-4,3,14,8,0,0,-1,0
1470242759982904,-2,-5,-12,-6,-3,-1,-3,-2
1470242759984405,0,-1,5,-3,-4,0,-1,-1
1470242759984405,-1,0,-7,2,1,-2,-2,-1
1470242760005424,0,0,-8,-10,-1,0,0,-1
1470242760005424,0,7,16,7,3,0,1,2
1470242760006924,-3,-1,-3,3,0,1,-2,0
1470242760006924,-2,-4,-14,-8,-3,-2,0,-1
1470242760019436,-2,0,8,-1,-3,-2,-1,-1
1470242760019436,0,-8,-8,-1,0,-1,-2,-2
1470242760033949,-1,-7,-11,-5,-2,-3,-3,1
1470242760033949,-3,7,3,2,-1,-1,-3,-1
1470242760042957,1,-2,-4,-3,-1,-1,-1,-1
1470242760042957,0,2,-3,-1,0,-1,-2,3
1470242760044459,-4,-5,-6,-6,-4,-3,-2,-1
1470242760044459,-2,-4,7,2,-1,-1,-1,-1
1470242760065477,-1,2,1,6,-1,-1,-2,-1
1470242760065477,1,1,-1,-4,-2,-2,0,-2
1470242760066979,-3,0,7,3,1,-1,0,-1
1470242760066979,1,1,-3,-1,-1,-1,-1,-2
1470242760079490,-3,-8,-8,-7,-1,-2,-2,0
1470242760079490,2,19,0,-1,1,-1,-1,0
1470242760086496,-1,-7,12,3,-1,-2,0,-2
1470242760086496,-1,-1,1,0,-1,-1,-2,0
1470242760110517,-2,0,-1,-1,-1,0,-1,-3
1470242760110517,0,-2,-4,-3,-2,-1,-1,0
1470242760112019,1,-6,-9,-3,-2,0,-1,-3
1470242760112019,-3,0,8,1,-2,-2,-2,0
1470242760125531,-3,1,-8,-2,-2,-1,0,-1
1470242760125531,-1,-3,1,0,-1,-2,-2,-1
1470242760127033,-2,2,-8,-3,-2,0,0,0
1470242760127033,-2,-6,0,-1,-1,-1,0,-1
1470242760139044,1,2,-11,-1,-1,-3,0,1
1470242760139044,-7,-4,5,-1,-1,0,-2,-2
1470242760148052,-2,-3,-3,2,-1,1,0,1
1470242760148052,-2,0,11,-3,-2,0,-1,-1
1470242760163064,-3,-1,-16,-3,-1,0,-1,-1
1470242760163064,0,0,4,0,-2,0,-1,2
1470242760164566,-2,-5,2,-1,1,1,-2,-1
1470242760164566,2,0,-5,-4,0,0,-2,-1
1470242760185585,-2,0,3,2,0,-2,0,0
1470242760185585,-3,-5,-5,-3,-4,-4,1,0
1470242760187086,1,2,-1,1,0,-1,0,0
1470242760187086,0,7,1,2,-1,-1,0,-1
1470242760199097,0,1,5,-5,-1,-1,-3,0
1470242760199097,-3,-6,0,4,-2,-1,-3,-2
1470242760208105,-1,7,8,3,-2,0,0,0
1470242760208105,-2,-2,-13,-4,0,-3,0,1
1470242760222617,0,-6,-2,-1,-1,0,0,1
1470242760222617,1,8,-6,-5,0,0,-1,-4
1470242760224619,-2,-7,-2,-1,-2,-1,-1,1
1470242760224619,-4,-2,8,2,-1,-1,-2,1
1470242760245138,-2,-5,-4,2,-1,-2,0,0
1470242760245138,-1,10,21,-2,1,0,0,-1
1470242760247140,-1,-7,-22,-2,-1,-2,-1,-3
1470242760247140,-1,0,-4,-7,-3,-1,-1,-3
1470242760259151,1,3,10,2,-1,0,-2,-2
1470242760259151,-5,-9,-5,-5,-3,-2,-1,0
1470242760268160,-1,6,8,4,0,-2,-1,-2
1470242760268160,-2,-5,-5,-6,-3,-1,0,-1
1470242760282672,-1,-1,4,3,-2,1,-1,-1
1470242760282672,-3,-4,-1,0,1,-2,0,-2
1470242760284174,2,-11,3,-5,-2,0,-2,0
1470242760284174,-2,0,-8,-4,-2,-2,0,-1
1470242760304192,-1,-3,-1,1,0,-1,-2,-4
1470242760304192,2,-1,-3,-3,-1,-1,0,0
1470242760312699,1,1,0,1,0,-3,-1,0
1470242760312699,-2,-1,-10,2,2,0,0,2
1470242760319204,-1,5,3,-6,-2,0,0,-1
1470242760319204,2,-6,-8,-1,-2,0,-2,-2
1470242760327712,-1,1,5,-3,0,1,0,-1
1470242760327712,0,-4,1,-1,0,-1,0,-3
1470242760350233,1,2,-7,-2,1,-2,-1,-3
1470242760350233,2,-1,-5,0,-1,-1,-1,1
1470242760351734,-3,5,5,6,-2,-1,-3,2
1470242760351734,0,2,0,-3,-1,-1,-2,0
1470242760364745,0,-4,-7,-2,-1,0,-2,3
1470242760364745,-3,-7,-2,-2,-1,-1,0,-1
1470242760371752,-1,9,-7,-6,-1,0,-1,-3
1470242760371752,-1,-6,8,5,0,-2,-2,1
1470242760387765,-1,-5,-5,-1,-1,-2,-1,0
1470242760387765,-1,5,8,0,0,1,-1,-3
1470242760389269,0,-2,0,0,-2,-1,0,-1
1470242760389269,-1,3,-4,0,-1,1,-2,-2
1470242760410286,-1,3,8,-2,-3,0,-1,2
1470242760410286,-1,-5,-9,1,-1,-2,0,0
1470242760412290,-2,-5,1,-1,0,0,-1,-1
1470242760412290,0,-5,1,-2,-1,0,0,-1
1470242760424800,0,1,-10,-2,0,-1,-1,0
1470242760424800,-1,-9,8,-1,-3,-2,-1,-1
1470242760431305,-1,-2,-3,-1,-3,-1,-2,-2
1470242760431305,0,5,2,3,-1,-1,-1,-1
1470242760447819,1,-9,-13,-4,-1,-2,-1,0
1470242760447819,-2,1,-3,0,2,-1,0,-1
1470242760449322,-1,-3,-5,-5,-1,-2,0,-4
1470242760449322,-2,2,3,-4,-1,-2,-1,0
1470242760470340,0,-2,8,3,-1,-2,-1,-3
1470242760470340,-3,-7,-13,-1,0,-1,-1,-1
1470242760471842,-2,-9,1,-2,-4,-1,-2,-1
1470242760471842,-2,-5,0,4,-1,0,-1,-1
1470242760484353,-2,4,2,-5,-1,-3,0,-1
1470242760484353,1,-9,-12,-4,-2,0,-1,1
1470242760491360,3,5,22,5,0,1,0,-1
1470242760491360,-2,-2,-5,0,-2,2,-1,0
1470242760507873,-4,-8,-14,-7,-3,-2,-1,-1
1470242760507873,1,10,13,1,-1,-2,-2,-3
1470242760509376,-1,-3,-1,0,1,-1,1,1
1470242760509376,-3,-4,-18,-8,-4,-3,0,-1
1470242760530412,-3,0,17,4,1,1,0,0
1470242760530412,0,8,-12,-1,0,0,-1,0
1470242760531912,-1,-2,-13,-8,-4,-1,-3,-4
1470242760531912,-1,-2,5,4,-1,0,0,-2
1470242760544408,-2,0,-1,0,1,0,-2,-1
1470242760544408,-2,1,2,-1,1,-1,-3,-1
1470242760551415,-5,-21,-12,-7,-1,-1,-2,-1
1470242760551415,1,24,8,4,1,-2,-2,0
1470242760567929,-5,-6,-10,-2,-2,-1,-1,-2
1470242760567929,1,-2,5,-3,-2,-1,-2,1
1470242760569431,-1,0,0,-1,-2,-3,-2,0
1470242760569431,1,-2,6,-2,-1,-1,-2,-1
1470242760590948,-2,-12,-16,-4,1,-2,-1,-1
1470242760590948,-1,2,-11,-1,-1,-2,-1,-2
1470242760592452,0,2,12,3,0,-1,-1,1
1470242760592452,-2,-8,-1,-6,-2,-3,0,1
1470242760603961,1,2,6,3,-1,0,0,-1
1470242760603961,-2,-2,-5,0,0,-1,-1,-3
1470242760613470,-2,4,2,0,0,0,-1,0
1470242760613470,-2,-2,-1,2,-2,-1,-2,0
1470242760635489,-3,3,12,2,-3,-1,-2,-1
1470242760635489,2,-3,-7,-2,-1,-3,0,1
1470242760636993,-4,3,2,0,-1,-1,-2,-1
1470242760636993,-2,-4,-5,-1,0,0,-2,-2
1470242760650502,2,4,-1,-1,-2,-1,-1,-3
1470242760650502,-1,7,12,-1,-1,1,1,-1
1470242760652504,-5,-17,8,2,-3,-2,1,-1
1470242760652504,-1,16,-7,-2,0,-2,0,-2
1470242760664016,-1,0,1,-1,0,0,0,2
1470242760664016,-2,-2,6,5,-2,0,-2,-4
1470242760673022,-1,0,-10,-6,-1,0,0,-1
1470242760673022,-2,-8,-11,-5,-2,0,1,0
1470242760688037,-1,-6,6,-2,-2,-3,-2,-2
1470242760688037,-2,8,-3,-2,-3,-2,-1,-1
1470242760689540,3,2,-19,-1,0,-1,-1,-2
1470242760689540,-4,-5,5,0,-1,0,-3,-2
1470242760710556,0,-6,-12,-3,-1,-1,2,-3
1470242760710556,0,-10,-3,0,-4,-1,-1,0
1470242760712058,-1,3,1,1,0,-3,-1,-2
1470242760712058,2,3,-7,-2,1,-2,0,0
1470242760724112,-1,1,9,-3,-1,-1,-1,0
1470242760724112,-2,-6,-10,-1,0,-1,-3,-3
1470242760733076,0,3,4,-2,-2,-2,0,-1
1470242760733076,-3,-7,-13,-3,-1,-2,0,-2
1470242760748090,-1,3,4,3,0,0,-2,-2
1470242760748090,-4,-7,-2,-5,-3,0,0,0
1470242760749593,0,8,-3,2,-1,1,0,-2
1470242760749593,1,-15,7,1,-1,0,-1,-2
1470242760770111,-1,0,-16,-3,-2,-1,-1,0
1470242760770111,-1,-4,9,2,-1,-1,-2,-1
1470242760772111,-2,-3,1,0,-2,-2,0,-2
1470242760772111,0,0,-2,0,0,-1,-1,1
1470242760784121,0,-2,-1,2,-3,-2,1,-1
1470242760784121,-1,0,-10,-8,-1,-1,-1,0
1470242760793130,1,0,-2,1,1,-1,-1,0
1470242760793130,-1,-4,12,1,-2,-1,-2,-4
1470242760807645,-1,0,-14,-1,0,0,-2,0
1470242760807645,-1,1,7,3,1,-3,-2,-1
1470242760809680,-2,0,-19,-4,1,-1,1,1
1470242760809680,-2,2,4,-1,-1,-2,0,0
1470242760830664,-1,0,4,-2,-1,-2,-3,-2
1470242760830664,-1,-4,0,-1,-1,0,-1,-1
1470242760832165,-1,-2,-3,-2,-1,1,-2,0
1470242760832165,-1,5,-3,-1,-1,-3,-1,-1
1470242760844176,2,3,8,0,-1,-1,-1,-2
1470242760844176,-3,-1,5,4,-2,-1,1,-1
1470242760852685,-2,-1,1,0,-3,0,-1,-1
1470242760852685,-2,-4,-9,-5,-2,1,1,-1
1470242760867697,-2,4,6,-1,0,0,0,1
1470242760867697,0,0,-4,-2,-1,0,-2,-1
1470242760869699,0,-3,2,-1,0,-1,0,-3
1470242760869699,0,0,-1,-1,0,0,-3,0
1470242760890218,-2,-1,-19,-5,-3,-3,-1,-2
1470242760890218,-2,-3,-1,-2,1,0,0,0
1470242760891719,-3,0,7,1,-3,-1,-4,-2
1470242760891719,-1,-1,-2,1,-2,0,-1,-3
1470242760904230,-1,-8,-4,-1,0,-1,-1,-3
1470242760904230,-1,-10,-2,-1,-1,-1,-1,1
1470242760912737,-2,4,9,3,-2,0,-2,-1
1470242760912737,-3,-15,-7,-5,-2,-3,-2,-1
1470242760927751,0,2,5,3,1,1,0,-1
1470242760927751,1,-3,-13,-6,-1,-2,-1,1
1470242760929253,1,4,10,-2,1,-2,1,1
1470242760929253,-4,-1,-1,0,-3,0,0,-1
1470242760950272,0,6,5,-1,-1,-1,-2,-1
1470242760950272,-4,-2,9,1,-2,0,-3,-2
1470242760951773,-2,-6,-9,-4,0,-1,-4,1
1470242760951773,3,3,6,2,1,-2,-1,-1
1470242760972792,-3,-2,6,0,-3,-1,-2,-1
1470242760972792,-2,7,1,4,-1,-1,2,-1
1470242760974293,1,-3,-17,-7,-3,-2,-2,-3
1470242760974293,1,1,6,-3,1,0,-1,0
1470242760987807,-3,-3,-2,0,-1,0,-1,-1
1470242760987807,-2,1,10,1,-3,-1,-1,-1
1470242760989306,0,0,-9,-3,-3,-2,-1,0
1470242760989306,1,-1,-3,-2,1,-1,0,1
1470242761010324,-4,-7,7,0,-2,-1,0,-2
1470242761010324,6,3,-10,-4,0,-2,-1,0
1470242761011826,-10,-13,4,0,-2,-1,-2,-2
1470242761011826,3,7,-3,0,-1,-1,-1,-2
1470242761023839,3,0,11,6,-2,-3,-2,-2
1470242761023839,-2,5,-38,-9,-1,-1,-2,-2
1470242761032846,0,-10,8,1,0,0,-1,0
1470242761032846,-4,-1,-2,-3,-1,-1,-1,-2
1470242761047861,1,3,-16,-3,-1,-3,0,1
1470242761047861,-2,-6,18,6,-1,-2,1,-1
1470242761049361,-1,6,0,2,-1,0,1,-2
1470242761049361,-1,-2,1,-1,-3,-3,-2,-3
1470242761070407,4,-8,-10,-3,0,-1,-1,-1
1470242761070407,-15,1,0,-3,0,-1,-3,-1
1470242761071923,1,3,8,6,1,-1,1,2
1470242761071923,-1,-2,-4,0,-1,-3,-2,-2
1470242761092934,1,1,0,-2,0,-2,-1,2
1470242761092934,3,-1,-3,-1,-2,-1,-1,-2
1470242761094429,1,-1,3,-3,0,-2,-1,-1
1470242761094429,-3,-1,-1,1,-2,-2,-1,-1
1470242761106947,-4,0,0,-2,-1,-1,-1,-1
1470242761106947,2,-6,2,-1,-1,-4,-2,-2
1470242761113954,-1,8,-2,-3,-2,-2,0,-1
1470242761113954,0,-15,-2,1,-1,-1,-1,-1
1470242761130433,-3,-1,-8,-5,-2,-2,-3,-2
1470242761130433,2,-5,8,0,1,0,1,-1
1470242761131937,2,10,4,-1,-1,-2,-2,-3
1470242761131937,-5,-12,4,4,-3,-1,-2,1
1470242761152985,0,2,2,1,0,0,0,-1
1470242761152985,0,-1,-4,-3,-1,-2,0,-1
1470242761154489,0,-3,-14,-8,-2,-1,-1,-1
1470242761154489,2,-1,18,7,-2,1,-1,-1
1470242761168000,-2,1,-12,-3,-1,-2,-2,1
1470242761168000,2,-8,6,-3,-1,1,-3,0
1470242761169469,-4,3,10,2,-2,-1,-2,-1
1470242761169469,-1,5,-8,-3,0,0,-2,-1
1470242761190488,-1,-4,16,1,-2,-2,2,1
1470242761190488,-2,5,-3,0,-1,-3,1,-1
1470242761192023,1,-10,0,-1,1,1,-2,0
1470242761192023,-3,1,-9,-4,-3,-2,-1,-1
1470242761213043,2,3,10,1,1,-1,-1,-2
1470242761213043,-1,-6,-23,-6,-2,-2,0,1
1470242761214509,-3,3,-1,-3,-2,-3,-2,-2
1470242761214509,1,-9,9,0,0,-1,-1,-1
1470242761227078,-5,0,-17,5,-2,0,-2,-2
1470242761227078,-1,-1,4,-3,-1,-1,-1,0
1470242761234058,0,3,2,0,-1,0,1,0
1470242761234058,-1,4,-13,-10,-2,0,0,0
1470242761250541,-2,-8,-2,3,0,-2,0,-2
1470242761250541,-2,12,10,0,0,-1,-3,-1
1470242761252043,-2,-3,-15,-5,-1,-1,2,0
1470242761252043,3,11,30,12,2,-1,-2,-1
1470242761273143,-7,-5,-9,-11,-4,0,-3,0
1470242761273143,0,-2,5,2,-2,-1,0,-2
1470242761274577,1,-6,0,-3,1,0,-3,-2
1470242761274577,-2,-5,-24,-3,0,0,0,-2
1470242761287087,0,-1,2,1,0,0,-1,-3
1470242761287087,-2,-9,-6,-3,-2,-1,-1,-2
1470242761294139,2,0,27,4,2,-2,-1,1
1470242761294139,-6,-12,-7,11,-2,-2,-2,-2
1470242761310595,-1,8,0,-10,-2,1,0,-1
1470242761310595,4,5,-5,-3,-1,-1,-3,-1
1470242761312096,-3,0,2,0,-4,-2,-2,-3
1470242761312096,0,0,-10,-6,1,-1,0,0
1470242761333115,-4,-11,1,10,0,-4,-1,-3
1470242761333115,-1,9,4,0,-2,0,0,1
1470242761334616,-1,-9,-12,-4,-1,-1,0,-2
1470242761334616,-1,3,-2,-7,-3,-2,-2,-2
1470242761347179,-1,-5,9,-1,-2,-2,-2,0
1470242761347179,-3,-1,-2,2,1,0,0,-1
1470242761354136,-2,-5,-4,-5,-2,-1,-2,-1
1470242761354136,1,7,-13,-12,-2,1,0,1
1470242761370652,-6,-1,7,7,-4,-2,-2,-2
1470242761370652,-1,6,-8,-5,-3,-2,-1,-1
1470242761372175,0,-9,-3,3,0,1,-2,0
1470242761372175,1,7,3,-6,1,0,0,0
1470242761393169,0,-7,-9,-6,-1,2,-1,-1
1470242761393169,-3,-1,8,12,-1,-2,-1,-2
1470242761394697,0,5,-11,-6,-1,-1,-2,-2
1470242761394697,-3,-1,5,-5,-5,-1,-2,0
1470242761407181,4,0,11,3,2,-1,-2,-1
1470242761407181,-2,-8,-5,0,-1,-2,-3,-1
1470242761414187,-4,-7,-11,-10,-2,-2,-2,-1
1470242761414187,-1,-2,6,2,1,-2,-1,-2
1470242761430244,3,13,15,2,-1,-1,-1,0
1470242761430244,-2,-12,-16,-6,-3,-1,-1,-2
1470242761432203,-2,0,-8,2,0,0,-1,-2
1470242761432203,-1,-10,-2,0,-2,-2,-2,-1
1470242761452765,-1,1,-17,-6,0,-1,0,0
1470242761452765,-2,-1,9,-8,-2,-1,0,-2
1470242761454226,0,2,2,4,1,0,0,0
1470242761454226,-1,-11,5,2,0,-1,0,-3
1470242761467236,-3,1,3,-1,-1,0,0,0
1470242761467236,-3,0,-2,2,-3,0,-1,0
1470242761473744,0,1,1,0,-4,-2,-2,-2
1470242761473744,-3,13,3,2,-1,-2,-3,-1
1470242761490758,1,-7,-10,-6,-2,-3,-2,0
1470242761490758,-1,1,11,3,0,-1,0,0
1470242761492364,2,3,-2,0,-1,-1,0,0
1470242761492364,0,-5,-20,-6,-1,1,0,-3
1470242761512779,-2,-1,-4,-5,-3,-2,-2,-2
1470242761512779,0,0,9,7,1,0,-2,-1
1470242761514280,-3,-4,10,1,-3,-2,-2,0
1470242761514280,-2,-9,-10,3,-1,0,0,-4
1470242761527289,1,-2,-14,-7,0,-1,-2,-3
1470242761527289,0,-2,13,-5,-3,-1,1,-1
1470242761533808,-2,-4,-2,4,-1,-2,-1,-1
1470242761533808,-5,1,8,-3,-6,-2,-1,-1
1470242761550331,1,-1,0,-3,0,-1,-2,-1
1470242761550331,0,1,-4,2,2,-1,0,1
1470242761551811,-1,-2,12,2,-1,-2,2,-1
1470242761551811,0,-6,-4,-3,0,-2,1,-1
1470242761572838,-1,11,7,4,-1,-2,-2,-2
1470242761572838,-1,10,-4,-6,-1,0,0,-1
1470242761574847,0,-5,-14,-4,-3,-1,-1,-2
1470242761574847,-2,2,2,4,0,0,-4,-1
1470242761586387,-2,-9,-6,-3,-1,0,1,2
1470242761586387,0,-6,8,1,1,-1,-1,-2
1470242761595351,-3,4,-13,2,-1,1,-2,0
1470242761595351,0,4,5,-5,-1,-3,0,-2
1470242761610380,-2,3,11,3,-2,-3,0,1
1470242761610380,-2,-8,-7,-1,-1,0,0,-2
1470242761611866,-4,-3,8,2,-3,-2,-2,-1
1470242761611866,0,3,-2,-3,1,0,-1,-1
1470242761632921,1,-3,-10,-2,0,-1,1,-1
1470242761632921,0,-2,-3,-3,1,0,1,-2
1470242761634386,-1,16,4,-3,-1,-1,0,-2
1470242761634386,-2,-9,2,-1,-2,-1,-1,-1
1470242761646417,0,13,0,3,0,0,1,-1
1470242761646417,-2,-5,1,2,0,0,-2,0
1470242761655404,-1,-5,-25,-12,-3,-1,-2,-1
1470242761655404,0,1,-3,-3,-1,-1,-2,-2
1470242761670450,1,1,5,2,-2,-1,-2,0
1470242761670450,-4,-4,8,-2,-3,-2,-2,-1
1470242761671920,0,0,2,2,1,-2,-1,-3
1470242761671920,-3,0,-1,8,2,1,1,1
1470242761692938,-1,-5,-4,-1,-2,-2,-2,-4
1470242761692938,-1,-6,-5,-10,-2,0,-2,-2
1470242761694440,0,-2,3,0,-1,-1,-2,1
1470242761694440,-1,5,11,0,-3,-2,-1,0
1470242761706464,-3,-2,1,3,-1,0,1,-1
1470242761706464,-2,1,5,-1,1,-2,-2,1
1470242761715460,0,-10,-38,-6,-1,-1,0,-2
1470242761715460,-2,0,15,0,-1,0,-3,-1
1470242761730522,-1,-5,-4,-1,0,1,0,-1
1470242761730522,0,9,1,1,-2,-2,0,-2
1470242761732007,-4,-22,1,3,2,3,2,-2
1470242761732007,1,9,-8,1,-2,-2,0,-1
1470242761752999,-1,-5,-8,-11,-2,-2,-1,-1
1470242761752999,-2,-1,-1,1,-3,0,-2,1
1470242761754514,-2,-8,10,4,-1,-3,-1,1
1470242761754514,1,-1,-8,-8,0,-1,0,-1
1470242761766504,-3,0,25,-2,-3,-2,-3,-2
1470242761766504,0,-5,-19,1,-2,-1,0,1
1470242761775512,-3,4,2,0,0,-1,-1,-1
1470242761775512,0,-2,11,-1,2,-2,0,-1
1470242761790525,1,-4,-12,1,-1,0,0,-1
1470242761790525,0,6,3,1,-1,-3,-1,-1
1470242761792027,-1,0,9,-2,-2,-2,-4,-2
1470242761792027,2,0,-16,-5,-1,0,0,-1
1470242761813046,-8,-3,19,4,-1,-2,-2,-2
1470242761813046,1,-5,-13,1,0,1,0,0
1470242761814549,-1,5,11,-7,-3,-1,-2,-1
1470242761814549,-3,-4,-13,-3,-3,-2,-2,-2
1470242761826557,2,-1,-5,-1,2,0,-1,0
1470242761826557,1,7,0,-3,0,0,-1,-2
1470242761835565,1,-7,-3,-1,0,0,-1,0
1470242761835565,0,-5,0,0,-3,-3,-2,-3
1470242761850659,-3,-1,3,3,-1,-2,-1,-1
1470242761850659,-1,7,6,0,-1,-2,1,-1
1470242761852080,1,1,-11,0,1,-1,-1,-3
1470242761852080,-2,-15,-19,-5,-1,1,-3,1
1470242761873217,1,10,8,3,0,-2,-2,0
1470242761873217,-2,-5,-2,-1,-4,-3,-2,1
1470242761874633,0,-2,5,1,0,-1,-1,0
1470242761874633,-2,2,2,-1,-3,0,-1,-1
1470242761886659,2,-3,-13,-6,2,-2,-1,-1
1470242761886659,0,-4,-6,-1,-4,-3,-3,-3
1470242761895620,0,2,7,2,1,0,0,-3
1470242761895620,-2,-6,-24,2,-1,-2,-1,-1
1470242761910134,-2,0,-1,2,-1,1,1,0
1470242761910134,-1,-2,-2,-8,0,0,-2,-4
1470242761912135,-3,7,-1,0,-2,0,0,0
1470242761912135,-1,0,14,3,1,1,-2,0
1470242761932653,0,6,-12,-5,-1,-2,-3,-4
1470242761932653,-1,-16,-2,7,-1,1,0,-1
1470242761934654,0,6,0,-3,-1,-2,-1,0
1470242761934654,-2,2,5,-1,1,-2,-1,0
1470242761946692,0,-6,-3,0,-1,-2,0,-1
1470242761946692,-2,2,-9,-6,-2,-1,-2,-2
1470242761955175,1,0,11,0,-2,-1,-4,0
1470242761955175,-1,-4,-3,-1,-2,-3,-1,-1
1470242761978215,-1,9,2,-3,-1,0,-3,-3
1470242761978215,-2,-6,-11,-2,0,0,0,-2
1470242761979222,0,-6,17,2,-1,0,0,-3
1470242761979222,-3,-4,-1,-1,0,-3,0,-1
1470242761992752,-2,-8,-17,-5,-4,-2,0,-1
1470242761992752,1,4,16,-1,2,-1,-1,0
1470242761994218,-4,2,-8,0,-2,-2,0,-2
1470242761994218,0,1,7,1,0,0,-1,0
1470242762015272,-1,3,-1,-5,-2,-2,-1,0
1470242762015272,-1,1,16,6,-1,-1,0,0
1470242762016728,-4,-9,-18,-6,-1,0,-2,-1
1470242762016728,-2,2,2,2,-1,0,1,-1
1470242762030283,-1,-11,3,2,2,-1,-2,-3
1470242762030283,-3,3,-3,-8,-4,-2,-2,-1
1470242762032248,-3,1,1,-3,-3,-2,-1,0
1470242762032248,0,2,-5,0,-3,-1,-2,-1
1470242762052816,0,-4,1,-2,4,2,1,0
1470242762052816,0,-9,-3,5,-1,-1,-1,0
1470242762054262,2,10,17,3,1,-1,-2,-2
1470242762054262,-3,-22,-14,-11,-5,-3,-1,-4
1470242762075337,0,7,5,1,-2,0,0,0
1470242762075337,-4,-1,0,-1,0,-2,0,-1
1470242762076785,1,-2,-7,1,-1,-3,-2,-1
1470242762076785,0,-2,8,-4,1,-1,-1,-3
1470242762090350,-2,0,-1,0,-2,0,-2,-2
1470242762090350,-1,2,-7,4,-2,0,-1,0
1470242762091798,-2,-2,12,1,-3,0,0,-2
1470242762091798,1,10,1,-7,-1,-2,-1,2
1470242762112815,-2,-11,-14,-4,-3,-1,-2,-2
1470242762112815,1,4,3,3,2,1,1,0
1470242762114317,-3,-1,-14,2,-1,-2,-2,1
1470242762114317,0,0,15,5,-1,0,0,0
1470242762135350,1,2,3,-7,-2,-4,-1,0
1470242762135350,-3,-15,4,1,-4,0,-3,-2
1470242762136836,-2,12,-13,0,-2,0,-1,-1
1470242762136836,-1,-9,4,-5,1,0,-2,-1
1470242762149848,0,2,8,4,0,-2,0,-2
1470242762149848,-1,-3,-6,-3,0,-3,1,-2
1470242762163861,-3,-12,-30,-2,-3,-1,0,-1
1470242762163861,-1,-5,-6,8,1,0,-3,-1
1470242762172869,-2,15,8,-9,-1,0,-1,0
1470242762172869,-1,4,-6,0,0,0,0,-1
1470242762174373,-1,-6,-2,-2,-1,-2,-2,-2
1470242762174373,-1,7,-16,3,-2,0,-2,-2
1470242762195389,-2,-19,-1,-1,-1,-2,0,1
1470242762195389,-1,4,16,-8,-3,-2,-3,-2
1470242762196891,-1,-6,5,-5,1,1,-1,0
1470242762196891,0,12,8,1,-4,1,1,0
1470242762217955,-1,-6,-16,-1,0,1,-2,-2
1470242762217955,1,1,-2,8,1,2,-1,-1
1470242762219413,-1,-10,19,-5,-3,-3,0,0
1470242762219413,-3,6,-5,-1,-2,0,-1,-1
1470242762232966,3,-2,-8,1,2,0,-1,-1
1470242762232966,-4,-8,-17,-1,-3,-1,-1,-1
1470242762234424,-1,9,13,5,-1,-2,-2,-1
1470242762234424,3,-5,-4,-4,2,1,0,-1
1470242762255478,-2,-2,-3,3,-4,-1,-1,-2
1470242762255478,2,6,-1,-1,1,-2,-2,-1
1470242762256947,0,4,-12,4,2,-1,0,-2
1470242762256947,-4,-7,11,-4,-1,0,-2,-2
1470242762269955,-1,0,8,4,0,-1,-1,-1
1470242762269955,-4,-5,0,-9,-2,-1,-1,0
1470242762276462,1,4,8,2,0,-1,0,1
1470242762276462,0,-3,-15,5,1,0,0,-1
1470242762292977,0,-1,-9,-9,-3,1,-1,0
1470242762292977,-1,-10,-21,-4,-2,-2,-1,-2
1470242762294478,-2,11,20,2,-5,0,-2,0
1470242762294478,-6,-4,4,-5,-2,-4,-1,-3
1470242762315497,0,-1,-6,2,1,1,-1,1
1470242762315497,-1,3,5,3,0,-2,-3,0
1470242762317046,-2,-15,-11,-11,1,0,-1,-1
1470242762317046,2,4,13,9,0,-2,0,-1
1470242762329565,-4,-12,-65,-19,-5,-3,-3,-2
1470242762329565,0,12,24,6,1,1,2,1
1470242762336518,2,-8,-24,-10,-2,-1,-1,-2
1470242762336518,-4,12,29,0,-2,-1,-2,0
1470242762353031,-2,-2,3,4,3,0,1,0
1470242762353031,-1,-4,0,5,1,-1,1,-1
1470242762354532,1,0,-19,-9,-2,-3,-3,-3
1470242762354532,0,3,-8,-4,0,-1,0,-1
1470242762375551,-1,-2,16,14,0,0,-1,0
1470242762375551,-3,-1,1,-12,-4,-1,-1,0
1470242762377069,0,4,7,4,0,3,-1,-1
1470242762377069,-1,-7,-8,-1,-4,-3,0,-2
1470242762389586,0,4,9,-3,-3,-2,-3,-1
1470242762389586,2,-2,-4,8,2,-2,-1,0
1470242762397071,-6,-2,3,-14,-4,-4,-1,0
1470242762397071,-4,-1,-13,0,-1,0,0,1
1470242762412584,0,0,14,5,-3,-2,-1,-1
1470242762412584,-2,-1,-12,-6,-1,0,-2,1
1470242762414586,-4,1,15,-3,-3,-1,0,-2
1470242762414586,1,-1,2,0,-1,-2,-2,-1
1470242762435186,-4,-9,-24,0,-1,-2,-1,-1
1470242762435186,-1,4,5,-10,-1,1,-1,-2
1470242762437106,0,-8,9,7,1,-2,-3,0
1470242762437106,-1,8,0,5,-3,0,-1,-2
1470242762449719,-2,0,-2,-20,-3,-3,-3,-4
1470242762449719,-3,-12,-9,-3,-6,-3,-1,-3
1470242762456628,1,4,0,8,3,-1,0,-1
1470242762456628,0,-3,5,6,4,2,-1,0
1470242762472637,-1,0,8,0,3,1,0,1
1470242762472637,-4,-2,-5,8,-3,-4,-2,-4
1470242762474639,0,-3,-5,-3,-1,0,-1,-2
1470242762474639,-1,-4,-10,-12,3,1,1,1
1470242762495191,0,1,18,10,0,-2,0,0
1470242762495191,3,-1,8,-5,1,0,-3,0
1470242762497160,-2,7,-1,2,-6,-2,0,-2
1470242762497160,1,-3,-2,-1,0,-2,-2,-2
1470242762509179,-3,-6,-2,-12,-1,2,-1,-4
1470242762509179,0,5,-1,2,-1,-1,0,0
1470242762518178,-4,-16,-12,6,-5,-5,-3,-4
1470242762518178,-1,-2,3,-21,-3,-3,1,0
1470242762532708,-1,11,16,4,-1,2,1,1
1470242762532708,-2,-4,-8,2,-2,-1,-1,-2
1470242762534694,-4,-6,-9,-3,-1,1,0,-2
1470242762534694,2,1,-21,-4,-5,-2,-3,-2
1470242762555256,0,1,16,13,-6,-2,-1,-2
1470242762555256,1,-1,-20,-29,-1,-3,-1,-1
1470242762556715,4,8,-1,2,2,2,0,3
1470242762556715,-2,-9,-1,-12,-1,-1,-3,-2
1470242762568726,-4,-6,6,-3,9,4,0,2
1470242762568726,-2,-7,-6,29,0,0,-1,-1
1470242762577777,-1,14,-4,-27,-5,-4,-1,-3
1470242762577777,1,-2,11,21,-6,-3,-2,-1
1470242762592762,-1,2,-21,-27,-6,-3,-4,-3
1470242762592762,-1,-8,19,4,3,-2,0,0
1470242762594249,-2,-1,-3,17,2,0,0,0
1470242762594249,-2,-6,-20,-4,-2,-1,-2,-1
1470242762615791,3,6,-4,1,-2,-3,-2,-2
1470242762615791,-3,8,9,-7,-5,0,0,0
1470242762617352,-2,-1,-11,0,3,-1,-2,0
1470242762617352,-2,-2,3,-10,-2,-2,-3,-3
1470242762628778,1,-5,8,21,-6,-4,-2,-2
1470242762628778,2,1,-15,-15,9,2,0,1
1470242762637789,-1,1,22,12,3,0,0,0
1470242762637789,-1,-12,-12,3,-1,-2,0,0
1470242762652843,2,0,11,-20,-5,-2,-1,-2
1470242762652843,-4,-8,-24,23,2,1,-2,-4
1470242762654303,1,4,9,-3,-1,0,-1,0
1470242762654303,-4,4,1,11,7,2,0,1
1470242762675320,-2,-12,-5,-12,-7,-1,-1,0
1470242762675320,0,8,5,0,-7,-4,-1,0
1470242762676822,0,-7,6,-10,1,-1,-1,-4
1470242762676822,1,5,-9,-3,-8,-2,-1,-2
1470242762689343,1,-2,-9,6,9,1,-2,0
1470242762689343,-5,1,7,-10,2,1,0,1
1470242762697840,1,-4,-5,12,0,1,-1,-1
1470242762697840,-3,0,5,-7,-2,-3,-2,-2
1470242762712871,-1,-3,-7,3,0,0,0,-1
1470242762712871,2,0,23,4,-3,-1,-1,-1
1470242762714867,-3,-6,-8,3,-4,-1,-2,-1
1470242762714867,0,3,4,-23,-1,-2,0,-2
1470242762735382,2,1,-5,14,1,-2,1,-1
1470242762735382,-2,-2,0,-22,-4,-1,-1,-1
1470242762736911,-2,-9,-13,-3,-3,0,-1,1
1470242762736911,1,3,13,4,5,0,-1,0
1470242762748887,-3,4,18,16,-5,0,-1,-2
1470242762748887,-2,0,-14,-10,-2,-2,-4,-3
1470242762757894,0,5,4,11,0,3,1,-1
1470242762757894,-1,-11,-29,-22,-2,0,-1,0
1470242762772910,0,-4,16,-10,4,2,1,2
1470242762772910,0,12,1,19,-8,-3,-2,-2
1470242762774409,-3,-5,-9,-9,0,-5,-2,-1
1470242762774409,0,-1,7,15,0,0,-1,0
1470242762795429,-7,-16,-1,-22,-14,-5,-3,0
1470242762795429,2,-7,-26,-21,7,2,-3,-2
1470242762796929,-1,9,-6,13,-3,-1,-3,-2
1470242762796929,3,-1,22,0,-3,3,3,-1
1470242762808954,-1,2,-3,-2,16,2,-2,-1
1470242762808954,-3,-4,-3,32,1,-1,1,-1
1470242762817975,-4,0,6,-38,-10,-1,0,-1
1470242762817975,1,-10,-19,0,-2,-5,-3,-3
1470242762832962,-4,6,-4,4,-4,0,0,0
1470242762832962,1,5,33,5,-4,-3,-3,-1
1470242762834465,-2,-7,-8,4,1,-1,-1,-1
1470242762834465,-2,1,-16,-32,5,-2,0,0
1470242762855482,-3,4,12,-1,-22,-6,-3,-4
1470242762855482,-1,0,-22,15,15,1,2,0
1470242762856998,0,2,14,39,7,1,-1,2
1470242762856998,-3,-2,15,-20,-11,-1,-1,-2
1470242762869013,0,4,-7,22,12,4,1,2
1470242762869013,1,-8,1,-11,-5,-1,-2,0
1470242762878004,0,6,8,-37,-7,-5,-3,-3
1470242762878004,1,11,-7,3,-15,-2,0,0
1470242762893017,3,-7,3,-5,13,0,-1,1
1470242762893017,-3,-4,24,-5,-3,0,-1,-3
1470242762894539,-1,-2,-12,19,2,-3,-1,-3
1470242762894539,1,-1,1,-22,-5,-2,-2,-2
1470242762915557,5,13,-9,5,-10,-3,-1,-4
1470242762915557,-8,-8,-15,-51,-10,-3,1,0
1470242762917095,-3,-5,-2,5,7,1,-2,-2
1470242762917095,-6,2,11,33,1,1,2,0
1470242762929048,2,1,-20,4,-4,-1,-2,-2
1470242762929048,3,-2,9,17,-2,-2,-3,1
1470242762938057,-3,-4,-19,-46,-12,-6,-3,-3
1470242762938057,4,2,12,39,-6,-2,-2,-2
1470242762953100,-1,-6,-30,-37,3,0,-1,-2
1470242762953100,0,-6,-15,-9,25,3,1,-1
1470242762954591,-6,-15,12,16,-8,-4,-1,-2
1470242762954591,0,11,0,34,10,1,-2,-2
1470242762975630,-3,5,15,2,7,2,1,-2
1470242762975630,-2,-5,-2,-9,-10,-3,-2,-2
1470242762977092,3,-7,-7,15,9,1,1,2
1470242762977092,-4,-2,-1,-9,-6,-1,2,0
1470242762997616,-2,-13,23,16,10,-1,-4,-4
1470242762997616,2,6,-26,-6,-18,-4,-3,1
1470242762999612,-4,-3,1,-10,-15,-2,-1,-1
1470242762999612,-3,-11,-18,13,47,7,2,2
1470242763013124,-4,4,36,39,-36,-11,-3,-2
1470242763013124,1,2,8,-17,25,5,0,-2
1470242763014626,-7,-10,-21,-2,8,4,3,2
1470242763014626,1,5,-4,-26,-17,-6,-4,-3
1470242763035177,2,3,-28,7,-10,-1,-1,3
1470242763035177,-1,-3,14,4,11,2,2,0
1470242763037145,3,7,-13,9,1,0,1,-1
1470242763037145,1,-3,1,-1,-15,-4,-3,-2
1470242763058169,0,-11,-2,54,34,9,3,1
1470242763058169,-3,7,-2,-14,-24,-4,0,-2
1470242763059665,1,-3,10,9,-9,-2,-3,-2
1470242763059665,-9,-5,-7,-5,6,-2,-1,-3
1470242763072208,-2,-2,3,-58,-29,-7,-3,-3
1470242763072208,0,-9,-22,50,50,9,2,-1
1470242763078694,4,-4,20,-3,-30,-6,-2,0
1470242763078694,-3,-8,-18,-7,31,9,0,-1
1470242763095242,-3,3,4,8,-15,-6,-3,-1
1470242763095242,-4,-7,-13,-20,9,1,1,-1
1470242763096701,-2,4,11,-6,-23,-5,-2,-1
1470242763096701,3,-7,16,-37,8,-2,-1,-1
1470242763117766,-2,-8,-62,15,11,1,0,-1
1470242763117766,0,12,32,-5,-64,-14,-8,-4
1470242763119261,-1,-2,-27,51,63,10,3,2
1470242763119261,-5,-2,11,40,-19,-6,-3,-3
1470242763132291,1,-1,6,-62,18,4,4,2
1470242763132291,-2,2,-7,39,-1,0,-1,-1
1470242763138740,-1,4,29,16,-15,-7,-6,-1
1470242763138740,-2,-17,-44,-12,29,3,0,-1
1470242763155306,-1,8,13,-12,-3,-3,-1,0
1470242763155306,-1,0,2,-3,1,0,-3,0
1470242763156756,2,-9,-10,-106,-2,1,-1,-1
1470242763156756,-4,10,13,33,-24,-2,-2,1
1470242763177771,4,-7,1,-41,0,-4,-2,-1
1470242763177771,1,-3,-18,-22,-10,-3,-3,0
1470242763179274,-6,1,2,-15,5,3,1,1
1470242763179274,2,0,29,38,-25,-8,-4,-3
1470242763192289,0,6,2,-30,-8,0,1,0
1470242763192289,5,-4,21,61,-25,-8,-4,-2
1470242763198845,-6,3,-8,-52,7,2,3,0
1470242763198845,2,-4,8,73,2,-4,-3,-2
1470242763215309,-4,-2,-6,20,-24,-5,-3,-3
1470242763215309,-3,1,9,-4,-10,1,3,1
1470242763216807,-2,8,9,44,2,4,1,0
1470242763216807,3,17,22,-32,-25,-5,-2,-1
1470242763237828,-6,-3,-64,26,34,10,3,1
1470242763237828,-3,-13,22,-14,-9,-6,-5,-2
1470242763239369,2,7,-16,-52,-25,-6,-3,-2
1470242763239369,-5,0,10,-53,-27,-2,0,1
1470242763252383,5,-2,16,-6,-11,-3,-3,-1
1470242763252383,-1,8,19,-6,11,-1,1,2
1470242763259879,-4,-11,2,-5,-4,0,0,-5
1470242763259879,-5,-6,-9,56,0,-3,-1,-1
1470242763274859,1,-1,0,-103,1,-1,-4,-3
1470242763274859,-2,5,-11,38,3,-1,-2,0
1470242763275359,-7,-38,-24,65,30,2,-1,-1
1470242763275359,3,4,4,17,-14,-3,-2,1
1470242763297391,-6,1,9,-3,-10,-2,-2,-1
1470242763297391,3,14,10,-40,-34,-4,0,-1
1470242763297918,2,-9,-1,26,8,-1,-3,-3
1470242763297918,-4,-1,-8,-30,58,11,3,3
1470242763311447,-6,-12,4,105,3,-6,-3,0
1470242763311447,1,-18,-30,33,22,1,-2,-2
1470242763319899,3,24,5,-62,-11,1,0,3
1470242763319899,10,-8,-20,12,13,2,0,-3
1470242763334933,-7,6,23,-69,-25,-6,-3,-2
1470242763334933,-6,-13,-12,22,10,1,1,-1
1470242763335413,2,-2,0,13,0,-6,-3,-6
1470242763335413,3,9,23,-79,-53,-9,-3,-2
1470242763357478,3,-4,-4,46,13,4,1,2
1470242763357478,-15,-14,-53,-104,-1,2,0,-1
1470242763357937,3,12,20,53,-17,-7,-3,-2
1470242763357937,-8,-6,-3,-11,2,2,3,-2
1470242763371506,0,-2,13,54,-16,-6,-4,-4
1470242763371506,13,14,14,-89,6,1,1,1
1470242763379985,-2,-16,-29,94,69,12,1,3
1470242763379985,-11,3,7,5,27,5,2,1
1470242763394966,0,-4,-30,-27,-18,-3,0,-2
1470242763394966,3,-3,12,46,12,0,-1,-3
1470242763395467,5,30,17,-58,-15,0,0,1
1470242763395467,-1,-12,-2,2,19,0,-2,0
1470242763417493,3,4,23,67,33,3,1,-1
1470242763417493,-2,-4,-20,-54,22,7,4,1
1470242763417989,6,-10,16,75,-22,-10,-4,-5
1470242763417989,-9,5,16,12,-15,-1,0,0
1470242763431499,-2,-2,-6,-58,-32,-3,-3,-2
1470242763431499,-6,2,7,28,-7,-2,0,-2
1470242763439532,5,4,-1,-41,-43,-9,-3,-2
1470242763439532,10,0,-4,-49,10,6,0,2
1470242763454546,-9,1,45,0,12,2,2,1
1470242763454546,-6,-1,-16,40,-8,-6,-2,-3
1470242763455522,-5,2,13,-59,-6,-1,0,0
1470242763455522,-1,-8,-20,-16,-33,-9,-5,-2
1470242763477095,-2,27,-20,48,22,4,1,0
1470242763477095,3,-9,25,65,-9,-3,-3,0
1470242763478045,-6,-17,-14,-82,2,2,-2,-3
1470242763478045,-3,8,0,4,-4,2,3,1
1470242763491602,-3,-13,12,39,27,5,2,1
1470242763491602,-4,-5,-23,20,17,3,2,0
1470242763499560,7,16,1,-18,-1,-3,-2,0
1470242763499560,-2,-10,5,19,-5,-4,-5,-4
1470242763516081,0,0,-1,-65,2,0,1,-2
1470242763516081,1,-9,14,-45,-39,-9,-7,-3
1470242763517093,-7,1,15,73,27,7,3,3
1470242763517093,-2,-2,-22,-80,22,0,-1,-3
1470242763537097,3,-10,-13,64,12,0,-1,0
1470242763537097,-7,10,5,-61,4,1,-1,1
1470242763538094,5,7,14,-32,-33,-8,-3,-2
1470242763538094,-5,-7,5,84,26,7,1,-3
1470242763551610,-5,-24,-9,-36,-19,-4,0,1
1470242763551610,3,18,29,-6,-6,-1,-1,-2
1470242763559669,-2,-2,-19,14,8,1,1,0
1470242763559669,0,-16,24,-12,-14,-2,-2,-1
1470242763574653,-2,26,-70,-22,-6,-5,-4,-2
1470242763574653,3,-5,13,12,14,3,3,0
1470242763575629,-6,-1,16,11,2,0,-2,-3
1470242763575629,0,-1,-12,20,-5,-1,0,1
1470242763597191,-2,-6,30,-28,-1,0,-2,-2
1470242763597191,-4,-4,-33,-1,4,-2,-1,-1
1470242763598178,-3,-10,-18,-1,-5,-2,-2,-1
1470242763598178,3,6,4,-18,0,-2,-2,0
1470242763611661,-1,-5,14,7,-4,0,2,1
1470242763611661,-4,3,9,-11,-20,-7,-4,-2
1470242763619723,-3,-4,15,9,12,3,1,-1
1470242763619723,0,5,-60,-13,-9,-3,-2,1
1470242763634681,-4,-5,19,-4,-11,-5,-3,-5
1470242763634681,5,-1,-17,-26,-2,2,0,1
1470242763635690,-2,2,-18,12,-2,-4,-2,-2
1470242763635690,-6,-2,-7,7,-4,1,-1,-3
1470242763657227,0,3,16,-8,-4,0,0,0
1470242763657227,-2,-6,-5,6,-1,-1,-2,0
1470242763657750,0,-5,-32,-15,2,-1,-1,1
1470242763657750,5,10,20,9,2,-3,-1,-1
1470242763679724,-7,-16,29,-3,-8,-5,-3,0
1470242763679724,-1,7,12,25,4,0,0,3
1470242763680223,1,-4,13,-5,0,2,-1,-2
1470242763680223,-1,1,-13,-20,-8,-2,-1,-2
1470242763694735,3,5,-10,-4,2,-2,1,-3
1470242763694735,0,-1,3,11,0,-1,-1,-1
1470242763695236,-2,0,9,-9,-5,-3,-1,1
1470242763695236,1,2,-7,8,2,0,-1,-2
1470242763717256,3,2,8,-5,-3,-1,-2,0
1470242763717256,-5,0,-32,15,9,0,0,-1
1470242763717758,-3,-12,38,9,5,3,1,-3
1470242763717758,0,4,-3,10,-1,0,0,-1
1470242763739852,-2,2,-14,-11,-6,-1,-1,-2
1470242763739852,3,-1,20,5,-2,-1,-2,-1
1470242763740276,-1,-1,-41,-17,-3,0,0,-1
1470242763740276,-1,6,29,13,-2,-2,0,0
1470242763754789,2,-5,-4,5,1,-1,1,0
1470242763754789,-2,-1,-10,-11,-4,1,0,-4
1470242763755289,0,-2,-6,-5,-1,-4,-1,2
1470242763755289,2,-4,14,-1,-2,-1,-4,-1
1470242763777309,-6,-10,-70,-14,-2,0,-3,-5
1470242763777309,2,3,-4,-1,-2,-2,-1,1
1470242763777812,-2,-4,13,5,-1,-1,-1,3
1470242763777812,-1,-8,-21,-11,-3,-2,-1,0
1470242763800833,3,8,12,13,1,-1,-2,-2
1470242763800833,-2,-7,5,-10,-3,1,0,-5
1470242763801832,0,6,-11,3,0,0,-3,-1
1470242763801832,-2,0,21,1,-1,-1,1,-3
1470242763814866,-1,1,-6,-3,1,1,-2,0
1470242763814866,-3,-3,-17,-6,-3,-1,1,-3
1470242763815344,0,4,4,-1,-1,0,1,0
1470242763815344,-2,-4,-2,2,-5,-3,-3,-1
1470242763837377,1,-2,9,-10,2,1,1,-1
1470242763837377,-2,2,31,9,-2,-2,-2,1
1470242763837864,1,3,-4,-8,1,-1,-2,-4
1470242763837864,-4,2,-8,-4,-3,-2,-1,-3
1470242763860402,-1,-6,10,12,1,-1,0,0
1470242763860402,-1,-6,-16,-12,-5,-2,-2,0
1470242763860887,2,2,-6,4,-1,-1,-1,-1
1470242763860887,-1,0,-16,-8,-2,0,-1,-3
1470242763874899,-1,-3,9,1,-1,-1,-1,0
1470242763874899,-1,-1,3,-4,-2,0,-1,-3
1470242763875398,-4,6,9,5,-1,0,2,-2
1470242763875398,-3,-13,-9,-5,0,1,-1,-1
1470242763897417,2,7,12,7,0,0,0,0
1470242763897417,-4,-6,0,-1,-2,0,-3,1
1470242763897918,1,-3,34,4,0,-1,-2,-1
1470242763897918,-1,5,-5,6,0,0,0,-1
1470242763920438,1,-1,-7,-3,-2,-2,0,-1
1470242763920438,-1,-2,10,-8,1,1,-2,-1
1470242763920938,-3,-1,4,0,-2,-2,-1,-2
1470242763920938,1,0,1,-1,3,0,-1,1
1470242763934451,-1,-1,5,-1,-4,-1,-3,-1
1470242763934451,0,-10,-20,-8,2,-1,-1,-1
1470242763935455,-6,1,0,10,-2,-2,-2,-3
1470242763935455,-5,-5,16,-3,-2,-2,-1,0
1470242763957471,-5,10,-18,-2,-3,0,0,-1
1470242763957471,2,-14,1,0,2,0,0,-1
1470242763957972,-2,-5,-3,-4,-1,0,-1,1
1470242763957972,-2,3,3,5,-2,-2,-2,0
1470242763980496,-1,-25,11,-10,0,0,0,-4
1470242763980496,-1,17,16,2,-3,-2,0,1
1470242763981007,-3,-4,-24,-2,0,-2,1,1
1470242763981007,1,2,-4,-2,-1,1,2,0
1470242763995084,-4,-8,0,4,-2,-1,-2,-1
1470242763995084,-1,4,-7,4,-1,0,0,-4
1470242763995507,-3,4,3,-10,-3,-1,-2,-1
1470242763995507,0,3,-1,2,1,-1,0,0
1470242764017588,0,6,-3,-3,0,0,-2,-1
1470242764017588,-1,-3,15,4,-1,-1,-1,0
1470242764018030,-4,-1,-23,-6,-3,1,-3,-1
1470242764018030,2,0,0,-1,-1,-1,-2,-3
1470242764040636,-4,-6,8,7,-3,-1,-2,0
1470242764040636,-2,2,2,3,2,0,0,0
1470242764041048,5,1,14,-8,2,1,2,-2
1470242764041048,-5,-7,-54,-10,-6,-3,0,-4
1470242764054570,-5,4,-14,-2,-3,-2,-1,-1
1470242764054570,1,-3,12,1,-3,-1,0,0
1470242764055580,-4,-1,-17,-1,-1,-3,-2,-3
1470242764055580,1,9,0,-7,2,1,0,-1
1470242764077120,-2,3,21,3,0,0,-1,1
1470242764077120,0,0,-15,0,0,-1,-2,1
1470242764078096,0,-5,-9,-4,-1,-2,-1,-1
1470242764078096,-2,0,14,3,-1,-1,-1,-1
1470242764100600,3,2,-8,-5,-2,1,-1,-2
1470242764100600,0,5,2,-1,-1,-1,-3,-3
1470242764101100,-1,-8,3,-3,-1,-1,0,-2
1470242764101100,0,3,2,1,0,-1,-2,-2
1470242764114613,-3,-7,-2,-4,0,-3,0,-1
1470242764114613,-3,-9,0,-6,-1,-1,0,-2
1470242764115613,-2,2,2,7,-2,-1,-2,-1
1470242764115613,0,-4,-2,-4,-3,-2,-1,-1
1470242764137134,-1,5,10,1,2,-2,-1,-1
1470242764137134,2,7,-3,-3,0,1,-1,-1
1470242764137633,1,-1,3,3,1,-1,-1,-2
1470242764137633,-2,-8,5,-6,-1,1,-1,1
1470242764160209,2,3,-10,-4,0,-3,-1,-1
1470242764160209,-1,0,6,4,-3,-2,-1,0
1470242764161156,-3,-3,11,7,-2,-2,-2,-3
1470242764161156,-2,1,8,0,-1,1,-1,1
1470242764174715,-2,-1,-19,-5,-2,-1,0,-1
1470242764174715,1,1,-3,-2,-3,-2,-2,-1
1470242764175693,-2,-7,-15,-9,-2,-2,-1,-2
1470242764175693,-1,0,11,4,1,-1,0,0
1470242764197726,1,-4,-9,-3,-1,-1,-1,-2
1470242764197726,-3,6,6,-1,1,-1,0,-2
1470242764198231,-2,-2,3,-1,-1,0,0,1
1470242764198231,0,-4,-7,1,0,0,-1,-1
1470242764220707,0,0,9,-2,-1,-2,-2,0
1470242764220707,-3,-8,-20,5,-2,-1,-2,-1
1470242764221253,0,-2,-13,-11,-1,0,-1,1
1470242764221253,-1,4,4,1,0,-1,-2,-2
1470242764234727,0,-13,0,2,-2,0,-3,-2
1470242764234727,-4,7,-6,-4,-2,-2,0,-2
1470242764235221,0,-4,-12,-1,-2,-1,-2,-1
1470242764235221,-3,-9,8,-1,-2,-2,-3,-2
1470242764257281,2,11,9,1,1,1,0,3
1470242764257281,-2,-4,-23,-7,-3,-2,-1,-3
1470242764257741,-2,0,-2,-3,-2,-1,0,-1
1470242764257741,-2,-2,5,2,1,-1,-1,1
1470242764280316,1,-4,-2,-1,-1,-1,0,3
1470242764280316,0,-1,-1,3,0,0,0,0
1470242764281264,-3,3,6,-6,-2,-2,0,-2
1470242764281264,1,-4,-6,1,-2,-1,0,1
1470242764294774,-2,1,-7,-5,-2,-1,0,-1
1470242764294774,-1,2,15,3,0,0,-2,-1
1470242764295775,-3,-21,-23,-4,-1,-1,-2,0
1470242764295775,-3,18,10,0,-2,-2,-1,0
1470242764317294,0,4,-1,0,-1,0,1,-1
1470242764317294,-1,-15,23,4,0,-2,-1,-1
1470242764317795,-1,7,-8,-5,-2,-2,-1,-1
1470242764317795,0,-10,-7,-2,-1,0,-1,0
1470242764340358,0,5,-2,-1,-1,0,0,-1
1470242764340358,-3,-5,-2,-4,-2,-1,-1,-1
1470242764341340,1,-1,9,7,1,0,-1,0
1470242764341340,0,1,-15,-7,-3,-2,-1,-1
1470242764354875,-3,-2,-1,-5,0,0,-2,-2
1470242764354875,-4,-5,-1,0,-3,-1,-2,3
1470242764355331,1,5,4,2,-1,1,-2,1
1470242764355331,-3,-5,-6,-4,-1,-1,-2,-3
1470242764385408,-1,-7,-4,-4,-1,0,0,-2
1470242764385408,1,1,5,-2,-1,1,-1,0
1470242764386356,-4,4,6,6,-1,-1,0,-1
1470242764386356,-2,-2,0,-5,-2,-1,-2,-2
1470242764400402,-2,-3,12,5,-3,-2,-2,-2
1470242764400402,-1,-3,-12,-4,-1,-2,1,0
1470242764401369,2,-1,2,-6,-1,-1,-2,-2
1470242764401369,-2,-6,-2,1,-1,-2,0,0
1470242764414882,-3,0,-2,10,-3,-1,-1,0
1470242764414882,0,9,-8,-14,-2,0,-1,1
1470242764415384,0,-1,-1,0,0,-3,0,0
1470242764415384,-2,0,-3,-3,-1,-1,-1,-3
1470242764437402,-1,-13,-2,-4,-1,0,0,-1
1470242764437402,-1,2,3,4,-1,0,-1,0
1470242764437906,-3,-6,-19,-7,-2,0,-1,0
1470242764437906,1,-3,6,4,1,-2,0,1
1470242764460511,-2,1,2,1,-1,0,-2,-1
1470242764460511,-3,-2,0,0,1,0,-1,-3
1470242764460923,3,9,9,2,0,0,-1,-1
1470242764460923,-4,-25,-13,-3,-2,-1,-1,-1
1470242764473982,-1,2,6,-3,-2,-2,-1,-2
1470242764473982,0,2,7,2,-1,-3,-1,-2
1470242764482459,-1,1,-7,-2,-2,-2,1,0
1470242764482459,-3,-2,6,2,0,-1,0,-1
1470242764497516,1,-2,-6,-5,0,-2,-3,0
1470242764497516,1,-7,5,0,-1,-2,0,-2
1470242764497976,-2,1,15,12,0,0,0,-2
1470242764497976,1,6,-5,-3,0,-1,2,-2
1470242764520477,-1,-3,-6,1,1,0,-3,0
1470242764520477,1,1,-5,-5,-1,-3,-1,-3
1470242764520977,-3,-4,-1,-4,-4,-1,-3,-2
1470242764520977,0,5,6,3,0,1,0,0
1470242764533990,0,8,-10,-2,1,0,1,1
1470242764533990,-3,-2,13,2,-2,1,-2,0
1470242764541996,1,-25,0,-3,0,-1,-1,-2
1470242764541996,1,10,-1,-1,-1,0,-3,-1
1470242764557591,-1,1,-9,-2,-2,0,-3,-3
1470242764557591,3,3,6,3,0,0,-1,-1
1470242764558013,-2,9,-3,0,-2,1,0,0
1470242764558013,-2,-8,-4,-3,0,0,-1,0
1470242764580545,-1,-3,-9,-5,0,-1,0,-1
1470242764580545,-4,-6,-8,-1,-2,-2,1,-2
1470242764581031,-3,-3,-3,-4,0,-1,-2,-2
1470242764581031,0,1,-4,0,0,-1,-1,-2
1470242764594048,2,5,7,0,-1,-2,0,-1
1470242764594048,-2,-7,-6,-5,-3,-3,-2,-1
1470242764602560,0,5,9,7,0,-2,0,-1
1470242764602560,-3,-15,-11,-4,-2,1,-1,-1
1470242764617590,-1,14,3,-1,-1,-4,-1,0
1470242764617590,0,2,-11,-6,-1,0,-1,0
1470242764618064,0,3,4,0,0,0,-2,0
1470242764618064,-1,-4,1,0,0,-3,-3,-2
1470242764640595,0,1,0,-2,0,-1,0,-2
1470242764640595,-1,2,-1,1,-2,1,0,1
1470242764641087,1,5,-2,-3,0,-3,-1,-3
1470242764641087,-1,-4,-2,1,0,0,1,-1
1470242764654096,-1,-9,-2,-1,1,-1,0,0
1470242764654096,3,3,0,4,-1,-4,-3,-2
1470242764662105,-10,-4,-3,-5,0,-1,-1,-4
1470242764662105,3,3,-2,1,-1,-1,2,-1
1470242764677160,-1,-6,-23,-9,-4,0,-1,-2
1470242764677160,-3,7,23,6,1,1,-1,-2
1470242764678118,-3,-16,-22,-5,-7,-3,-3,0
1470242764678118,-3,10,13,-1,-2,-2,-2,-3
1470242764700193,-1,-9,-3,0,0,-1,0,-3
1470242764700193,2,-6,0,0,0,0,-4,0
1470242764701139,-1,4,4,-1,0,-1,-1,1
1470242764701139,3,5,-4,-1,-1,2,4,3
1470242764714242,-2,-11,-2,0,0,2,-1,0
1470242764714242,-5,-2,-3,-3,-2,0,-1,0
1470242764722158,0,-2,-9,-1,-1,0,4,-2
1470242764722158,-2,-5,-5,-4,-3,-4,-3,-1
1470242764737172,-2,4,18,3,0,-2,-1,-2
1470242764737172,-4,-4,-30,3,-2,-1,-1,-1
1470242764738172,1,2,5,-3,0,-2,-2,0
1470242764738172,0,0,-1,-3,-1,1,0,-1
1470242764760193,-3,3,4,-3,-2,-2,0,1
1470242764760193,2,-4,2,-1,0,0,-2,-3
1470242764761199,2,3,-1,-2,-1,-1,-2,-3
1470242764761199,-17,-1,-1,1,0,0,-2,-4
1470242764773703,0,-16,0,0,0,0,-2,0
1470242764773703,-6,20,5,-3,-3,-1,1,1
1470242764782211,3,-9,0,-4,-2,1,1,-1
1470242764782211,-1,-5,4,1,0,-2,-1,2
1470242764797226,4,4,3,0,-1,1,0,-2
1470242764797226,-7,-5,-7,-2,-1,-2,0,1
1470242764797725,5,2,3,2,-1,0,1,0
1470242764797725,3,-1,6,0,-1,-1,-7,1
1470242764820271,-4,-10,-36,-8,-2,-4,-1,0
1470242764820271,3,-4,11,4,-2,0,3,-3
1470242764821251,-4,2,-3,-1,-1,3,-1,0
1470242764821251,6,3,1,-2,-2,0,2,-2
1470242764843337,-6,5,16,4,0,0,0,-1
1470242764843337,-2,-4,-20,-8,-1,-4,-3,-2
1470242764843775,1,0,0,-1,-1,0,1,-2
1470242764843775,0,-5,-6,2,-1,-1,0,0
1470242764857304,0,-4,-1,-2,-2,-2,-3,-1
1470242764857304,-7,-10,0,-5,-1,-2,-1,0
1470242764857782,4,4,16,6,1,-3,-3,2
1470242764857782,-3,0,-6,-7,-2,-1,-1,1
1470242764880351,0,-2,10,1,-3,0,-1,-3
1470242764880351,7,2,-8,0,0,0,0,1
1470242764881301,4,-3,-14,-7,1,-3,-2,1
1470242764881301,2,-2,12,1,0,-2,-4,-1
1470242764902863,-1,-1,-8,1,-3,-2,2,1
1470242764902863,0,4,-9,-2,0,0,-1,0
1470242764903826,-12,-2,6,2,0,-3,-2,-2
1470242764903826,11,-11,-7,-1,0,-1,0,-4
1470242764917346,-4,6,3,0,-1,-1,-2,-3
1470242764917346,1,-6,-5,-7,-3,-1,-1,-2
1470242764917844,1,2,-5,-1,1,1,-2,1
1470242764917844,-9,7,5,2,-1,-3,-2,-2
1470242764940368,-8,-1,9,2,1,0,0,-1
1470242764940368,2,-11,-19,-7,-3,-3,-5,-5
1470242764941355,-4,0,3,-4,-1,0,-1,-2
1470242764941355,10,1,-8,-5,-2,0,-1,1
1470242764962874,-7,10,12,5,-1,1,-2,0
1470242764962874,-3,-2,14,2,1,0,-1,-1
1470242764963894,-1,-2,-1,0,-1,-1,-2,-2
1470242764963894,-1,4,-19,-6,-2,-1,0,0
1470242764977388,-1,-6,-3,-4,-1,-2,0,-1
1470242764977388,-4,-8,-13,4,-2,0,-1,1
1470242764977888,-1,-3,19,-8,-1,0,-1,-3
1470242764977888,-2,6,10,17,1,-2,0,-2
1470242765000440,4,1,5,-11,1,0,-1,4
1470242765000440,2,-6,11,5,-2,0,-2,-2
1470242765000908,1,0,-31,-12,-2,-1,0,0
1470242765000908,-6,-7,-1,0,1,1,-2,1
1470242765030484,0,7,-4,4,-5,-3,-1,-2
1470242765030484,0,0,8,8,4,-2,0,2
1470242765030935,-8,3,9,6,-1,-3,-1,-2
1470242765030935,1,-1,-24,-19,-2,0,-1,-1
1470242765036962,7,-12,-3,-3,-3,-3,-1,-1
1470242765036962,-12,7,11,-5,-2,0,0,-1
1470242765037946,1,-8,-8,3,-2,0,-2,-1
1470242765037946,-9,8,7,4,-1,-1,-1,-1
1470242765060473,1,-9,-10,-3,-1,-1,0,0
1470242765060473,10,2,-1,0,1,0,0,-2
1470242765060962,-19,1,-13,-2,-3,-3,-2,-4
1470242765060962,2,-8,9,1,-3,-2,-3,-2
1470242765082984,1,17,4,8,0,-1,-2,2
1470242765082984,1,-7,-3,-2,-1,-2,1,1
1470242765083485,7,-5,0,14,-2,-1,-1,2
1470242765083485,-15,7,-7,-22,-1,1,0,-4
1470242765097520,11,-1,0,6,-4,-4,-3,-3
1470242765097520,-17,1,-11,-14,-6,-3,-1,0
1470242765098525,10,-4,24,1,0,0,0,-1
1470242765098525,-3,3,-9,2,2,-1,0,1
1470242765120515,3,-20,2,-9,0,-2,0,2
1470242765120515,-10,3,-1,9,-3,-2,-2,-2
1470242765121016,2,7,-9,-15,-2,-1,-2,-2
1470242765121016,-7,-19,9,-2,-1,-1,-1,-1
1470242765143036,-9,-10,-7,2,3,-1,0,-1
1470242765143036,1,0,-2,-4,-4,0,-3,-3
1470242765143539,1,23,1,-1,-1,-2,-2,-1
1470242765143539,2,-25,-6,0,-3,-1,-2,-2
1470242765157153,-16,-5,-1,3,-1,-2,-2,-5
1470242765157153,12,0,12,5,2,0,1,5
1470242765158049,-9,9,-7,4,-1,-1,1,-1
1470242765158049,9,2,6,-5,-4,-3,-1,1
1470242765180069,-3,1,-10,2,-3,-1,-2,-1
1470242765180069,-4,-3,5,-16,1,-1,-3,-4
1470242765181071,4,-21,-1,10,-5,-2,-3,0
1470242765181071,9,5,-2,12,1,0,-2,-2
1470242765203105,-10,11,15,-1,5,6,1,-1
1470242765203105,-13,-11,-37,-18,-6,-2,-1,-3
1470242765203592,5,1,1,9,0,1,-2,-1
1470242765203592,-1,3,11,2,-6,-4,-3,0
1470242765217120,0,-5,-10,0,-5,-5,0,-2
1470242765217120,12,-2,0,-1,0,-1,0,-1
1470242765218141,-11,3,-9,-7,-1,-2,-1,2
1470242765218141,0,1,3,6,0,-1,0,0
1470242765240624,-4,5,-3,-8,1,0,-1,-2
1470242765240624,18,-15,19,3,0,-1,0,4
1470242765241159,-18,-8,-8,-5,-1,0,-3,-8
1470242765241159,-1,-7,-4,-2,-2,0,-1,1
1470242765262649,6,15,9,8,-1,-2,0,1
1470242765262649,1,4,-17,2,1,-2,-1,-2
1470242765263646,-1,-6,-6,-3,2,1,0,1
1470242765263646,2,10,7,-8,2,0,0,-1
1470242765277156,6,-18,-23,0,-5,-2,-1,-2
1470242765277156,-7,12,15,-3,2,-1,-1,-5
1470242765278157,5,-4,-5,4,-3,0,0,3
1470242765278157,-8,6,-1,-17,0,-1,-2,-2
1470242765307685,1,-2,-10,8,3,1,0,1
1470242765307685,-5,4,32,14,-2,0,-2,-2
1470242765308686,-3,-9,-11,-5,-4,-1,-2,-4
1470242765308686,6,5,-10,1,0,0,1,-2
1470242765322833,1,-18,12,-8,-3,-3,-2,-4
1470242765322833,-9,19,-4,-3,0,1,1,1
1470242765323698,18,-19,6,3,1,0,0,1
1470242765323698,-12,7,5,7,-6,-2,-4,-1
1470242765337237,6,2,-7,-2,-2,-2,-5,-2
1470242765337237,-1,-3,-9,-12,-1,-1,0,-1
1470242765337727,-3,10,5,-6,1,-2,3,-1
1470242765337727,-8,-15,-4,4,1,-2,0,-1
1470242765360273,-3,3,-4,-11,0,1,0,0
1470242765360273,9,-2,1,12,-1,-1,-2,1
1470242765361267,-7,3,8,0,0,0,-1,-1
1470242765361267,2,-5,-29,-14,-3,-2,1,-1
1470242765382805,-1,5,16,1,1,1,0,-2
1470242765382805,0,-10,-13,-3,-4,-3,-3,-1
1470242765383752,-18,6,-7,-2,2,-1,-3,-4
1470242765383752,2,-25,5,5,-3,-1,-2,0
1470242765397265,-1,18,-20,-6,-1,-1,1,-1
1470242765397265,0,-8,4,2,1,0,1,-1
1470242765397765,4,-5,-1,-4,-3,-3,-2,-1
1470242765397765,-2,6,5,0,1,0,-2,-1
1470242765420302,0,-2,4,-4,-3,-1,-1,0
1470242765420302,-7,0,-7,-1,0,1,-1,1
1470242765421308,4,2,-3,-5,-2,-1,1,4
1470242765421308,-11,-2,11,5,-2,-2,-3,-11
1470242765442804,0,-4,-3,-4,-2,-2,-2,1
1470242765442804,7,8,2,-10,-1,1,-1,1
1470242765443830,3,-4,-3,-1,-1,-4,-3,-2
1470242765443830,-8,4,-9,7,9,3,1,-1
1470242765456942,-20,-7,8,-3,-5,-3,-2,-9
1470242765456942,-3,-9,-5,5,-1,-1,1,0
1470242765464877,14,-7,4,-25,0,-1,-1,4
1470242765464877,-9,20,2,10,-6,0,0,2
1470242765480357,-5,-1,1,12,-2,0,-3,-6
1470242765480357,3,-10,11,-12,0,-3,-2,-1
1470242765481340,-15,0,6,13,-4,0,-1,-3
1470242765481340,6,-15,0,-4,-3,-5,-1,-1
1470242765502859,15,13,-13,-9,-4,-4,-3,4
1470242765502859,-7,7,-2,3,-3,1,0,-2
1470242765503860,-5,-10,5,2,0,0,-2,-6
1470242765503860,3,2,-26,-9,-3,-1,-1,1
1470242765516933,7,6,13,3,2,0,2,1
1470242765516933,-13,-9,-6,1,0,-1,0,1
1470242765524878,13,9,8,18,1,0,0,-1
1470242765524878,4,-14,10,-12,-1,-1,-3,-3
1470242765540410,-6,-6,-25,-12,1,-1,1,0
1470242765540410,8,1,-2,2,-9,-6,-5,-1
1470242765540904,-1,13,6,6,1,0,1,3
1470242765540904,-2,-7,-7,4,-7,-2,-1,-1
1470242765562913,2,-5,11,-4,2,-2,-3,-2
1470242765562913,-3,-5,-19,-9,-1,0,1,-3
1470242765563916,2,5,7,3,-1,0,-1,1
1470242765563916,0,9,-5,-2,0,2,1,1
1470242765576453,-14,-10,12,1,-3,-1,-3,-2
1470242765576453,-1,3,-15,4,-1,-1,-1,-2
1470242765584963,2,-13,11,-8,-3,-4,-1,-3
1470242765584963,12,9,19,5,1,1,0,1
1470242765600446,-10,2,-42,-5,1,2,3,1
1470242765600446,10,-5,19,3,1,-1,-3,-3
1470242765600949,-3,-2,-4,1,-1,-1,-1,2
1470242765600949,9,-1,-5,0,2,2,2,1
1470242765622984,13,-3,18,-3,-5,-3,-3,3
1470242765622984,-8,-4,-24,-8,1,-1,-3,-3
1470242765623469,-11,-8,-6,-4,0,1,-2,-1
1470242765623469,6,7,-11,9,6,-1,0,0
1470242765636479,-5,0,1,-4,-2,1,1,2
1470242765636479,-6,-1,6,1,-2,-2,0,0
1470242765645077,10,1,-2,-1,-2,-1,-2,-3
1470242765645077,-14,1,11,-1,1,-1,-3,-2
1470242765660504,5,-2,-9,-2,0,0,-1,0
1470242765660504,1,3,6,5,-2,-2,-1,0
1470242765661002,-8,0,-6,-7,-1,-2,-1,-2
1470242765661002,-2,-5,4,-5,-4,-2,-3,-1
1470242765683021,0,3,6,1,0,-1,-1,-4
1470242765683021,-2,-2,2,3,-2,1,-1,-1
1470242765683539,-1,2,-5,-3,0,-1,-1,1
1470242765683539,1,3,-6,-5,-2,-1,0,-1
1470242765696621,-1,-10,-2,1,-4,-2,-2,1
1470242765696621,-4,1,7,1,0,0,-1,-3
1470242765705056,0,0,-9,0,-2,1,0,-1
1470242765705056,-3,-1,-6,-7,-1,-1,-1,-4
1470242765719572,-4,0,14,6,0,1,-1,-1
1470242765719572,1,-4,-22,-5,0,-2,-2,0
1470242765726621,-1,-1,-6,-4,-2,-2,-1,-2
1470242765726621,-1,3,7,-3,-3,-2,1,-1
1470242765742594,1,-6,6,1,1,-1,0,-3
1470242765742594,-7,5,-1,-3,0,0,-2,0
1470242765744592,1,-5,6,2,-1,0,-1,-1
1470242765744592,-2,-5,2,-4,-1,-2,-1,1
1470242765756628,3,3,-4,1,-2,-2,0,1
1470242765756628,0,1,5,-1,-2,0,-1,0
1470242765765595,-4,-1,-3,-2,1,0,-1,-2
1470242765765595,-9,-1,10,3,-1,0,-2,0
1470242765779609,11,0,-2,-3,-1,0,0,-4
1470242765779609,-7,0,-2,0,0,-1,0,-3
1470242765786613,14,-4,-4,-9,-2,-1,-2,1
1470242765786613,-22,-7,-7,1,-5,-3,-1,-1
1470242765802629,-1,2,2,-1,-1,-2,-3,-5
1470242765802629,4,1,-10,-3,0,0,-1,-3
1470242765804634,-1,-4,14,0,-3,-2,0,1
1470242765804634,12,4,-16,-2,-3,0,0,-3
1470242765825699,-11,-5,-9,-1,-2,-2,0,0
1470242765825699,-4,-9,7,-8,-3,-2,0,0
1470242765827242,6,10,2,12,0,1,1,-1
1470242765827242,10,-11,5,-17,0,-1,-1,1
1470242765839661,-35,5,-16,0,-1,-1,-3,-5
1470242765839661,7,4,12,5,-3,-3,-1,-2
1470242765846676,-6,-3,-18,-2,0,0,0,1
1470242765846676,-1,7,21,12,1,-1,1,-2
1470242765862682,15,-3,-6,-12,0,-1,-1,0
1470242765862682,-7,0,7,5,0,1,-1,-1
1470242765864217,-3,3,5,-1,-1,-2,-4,-2
1470242765864217,-13,1,2,1,-3,-2,-1,0
1470242765885244,10,-5,7,2,1,0,0,2
1470242765885244,16,7,-5,3,-2,-1,0,3
1470242765887205,-21,-9,-3,-5,-2,-2,-2,-4
1470242765887205,4,8,11,0,1,0,-2,-6
1470242765899748,-9,-14,5,2,-2,0,-1,1
1470242765899748,0,-2,-5,1,-1,0,-1,1
1470242765906745,7,0,9,-3,0,-2,-1,-1
1470242765906745,-17,-9,-22,0,0,0,0,-3
1470242765922739,10,-2,-1,-8,-2,-1,-1,0
1470242765922739,1,2,8,0,-1,0,0,-1
1470242765924737,0,-5,2,-4,-3,0,-1,-1
1470242765924737,4,-5,0,1,-2,-2,-2,-3
1470242765945279,-2,5,7,2,-4,-2,-2,-1
1470242765945279,0,-9,-6,-6,-1,0,-2,-2
1470242765947258,-8,1,-11,-4,0,-2,-1,-2
1470242765947258,1,-6,15,1,-1,-1,-1,-1
1470242765959794,2,-1,-9,2,-1,0,-2,-1
1470242765959794,-4,0,0,-3,0,-3,-2,0
1470242765966277,-5,8,2,6,-3,-1,-2,0
1470242765966277,-1,-2,-19,-6,-4,1,0,-2
1470242765982879,-2,-4,-10,0,1,-1,0,-3
1470242765982879,-4,-7,-2,-5,-3,-4,-1,0
1470242765984291,2,-5,5,-3,0,0,0,-2
1470242765984291,-4,-7,-30,-9,-3,-4,-3,-1
1470242766005311,-2,7,5,3,0,1,-2,-3
1470242766005311,-1,-8,8,4,0,-1,-1,-2
1470242766006811,2,-1,-15,-5,-1,-3,-1,-3
1470242766006811,0,2,12,0,-2,-1,-2,0
1470242766019822,-1,0,2,5,-2,-2,-1,-1
1470242766019822,-7,1,-3,-7,-2,0,-1,-2
1470242766026345,2,7,-19,-1,-2,-3,-4,1
1470242766026345,3,5,2,-3,2,-1,0,2
1470242766042863,-4,-14,9,-4,-3,-2,-1,-2
1470242766042863,1,6,6,13,1,0,1,12
1470242766044885,1,1,1,-2,2,0,0,-9
1470242766044885,-5,-8,-11,4,-1,-1,-1,0
1470242766065402,3,17,-11,-8,-1,0,-1,3
1470242766065402,-2,0,15,6,-1,-1,0,-4
1470242766066865,-2,-12,4,-1,-3,-2,0,1
1470242766066865,-7,1,2,0,-1,-3,-2,0
1470242766079877,0,-5,-2,-4,2,-1,0,-4
1470242766079877,-2,6,13,7,-5,-3,-2,-1
1470242766086513,-3,3,-8,-6,-1,0,1,1
1470242766086513,9,5,18,-2,0,-1,-1,-2
1470242766102914,0,4,-8,3,2,2,0,2
1470242766102914,-4,0,4,-5,1,-1,-2,-2
1470242766104399,-1,-12,-2,-5,-3,-2,-2,-2
1470242766104399,5,-2,-4,6,1,1,0,1
1470242766125419,-1,3,-2,1,0,-2,0,1
1470242766125419,-1,-7,-10,-3,-1,-1,-1,-6
1470242766126918,-6,-3,-1,7,0,-1,-2,0
1470242766126918,-1,6,-9,-13,-1,1,-1,-2
1470242766139960,1,-9,10,6,-2,-1,2,2
1470242766139960,-2,0,-12,-3,0,-1,-5,-3
1470242766146480,-3,11,0,-1,-1,1,-1,0
1470242766146480,-2,-11,2,1,-3,-2,0,-1
1470242766162965,-3,-22,-11,0,-2,-3,-2,-1
1470242766162965,2,8,9,-2,0,1,-1,0
1470242766164484,-8,-8,-8,-1,-3,-2,-2,-1
1470242766164484,-4,-6,-6,-4,-1,0,-1,-1
1470242766185500,-2,3,12,1,-1,-3,-2,-3
1470242766185500,1,-3,-10,-4,-2,-3,1,-2
1470242766186975,2,-3,-8,2,0,1,-1,0
1470242766186975,2,1,7,2,1,-1,-2,-2
1470242766199530,-4,-10,-4,-6,-4,-1,0,-3
1470242766199530,0,-1,1,4,0,2,0,-3
1470242766206491,2,5,18,1,-1,-2,-1,-2
1470242766206491,-4,-2,-22,-3,0,-2,-1,1
1470242766223005,0,-3,3,4,0,-1,-1,-2
1470242766223005,1,3,-9,-5,-1,-1,0,-1
1470242766224509,3,0,5,2,-2,-2,-1,0
1470242766224509,-12,-4,-6,-3,-2,0,-3,-4
1470242766245532,-4,9,3,1,4,1,0,2
1470242766245532,-5,-13,12,1,-1,-2,-1,0
1470242766247027,9,22,-29,-12,-2,-3,0,1
1470242766247027,-6,-4,5,-7,-4,-2,-1,-3
1470242766259579,9,4,15,10,1,0,-2,-1
1470242766259579,-14,-9,-10,-3,1,0,-1,-4
1470242766266546,-3,1,11,2,0,0,-1,1
1470242766266546,6,2,3,3,0,-2,-1,2
1470242766283108,2,7,-14,-8,-2,-1,-3,-3
1470242766283108,-12,-2,-2,0,-6,-2,-3,-3
1470242766284563,-2,-5,17,-8,-1,-2,2,0
1470242766284563,5,7,3,2,0,1,-1,0
1470242766305580,-8,-8,-7,-13,-6,-2,0,-1
1470242766305580,3,5,-9,-1,2,-1,0,-1
1470242766307081,-9,-8,12,6,-2,0,-2,-3
1470242766307081,1,7,10,6,1,0,0,4
1470242766328101,-2,-4,-2,0,0,-1,0,-1
1470242766328101,6,4,-8,-8,-2,-1,-1,-2
1470242766329648,-6,-17,-3,-6,-1,-2,-1,-4
1470242766329648,5,-5,-6,3,-2,-1,1,0
1470242766343117,2,13,-15,-4,-1,-1,-1,-1
1470242766343117,-4,0,10,4,-2,-2,-3,0
1470242766344646,4,-5,-1,10,2,0,-2,2
1470242766344646,0,-2,-15,0,-2,-1,-1,-1
1470242766365134,2,3,3,-10,-1,-3,-1,-2
1470242766365134,-9,-5,-2,1,0,1,1,1
1470242766366634,-3,-12,5,0,-1,-2,-3,-3
1470242766366634,6,6,-1,3,-1,-2,-1,0
1470242766379146,0,-2,7,-2,-2,-2,-2,1
1470242766379146,3,3,-7,2,1,1,2,2
1470242766388153,-6,-2,-10,-6,-2,-2,-1,-2
1470242766388153,-9,-7,-9,0,-1,-1,-1,-5
1470242766403167,2,-12,9,-2,-1,-3,-3,1
1470242766403167,-3,3,-1,1,0,0,-1,0
1470242766404788,6,7,-18,0,-1,-1,0,1
1470242766404788,10,-2,7,-3,0,-1,0,-1
1470242766425231,-13,-11,2,3,-1,-2,-1,-3
1470242766425231,11,8,-24,-6,-2,-3,0,1
1470242766427188,-10,-6,-2,1,-1,0,0,1
1470242766427188,6,-5,-3,-3,-2,-1,-1,0
1470242766439199,-5,9,18,4,0,1,-1,-1
1470242766439199,-1,-17,-13,-1,-1,-2,-2,-3
1470242766448207,-2,-1,10,-7,-2,-1,-1,-1
1470242766448207,-4,1,-9,-3,-1,-2,-1,1
1470242766462721,2,2,-10,4,-1,-1,0,0
1470242766462721,-2,-14,6,-2,-2,-3,-1,-1
1470242766464222,-1,14,8,-1,1,-1,-1,-5
1470242766464222,-9,-6,-20,-10,1,-2,-1,-2
1470242766485271,3,-19,2,-2,-5,0,-2,-4
1470242766485271,1,13,1,5,2,0,-1,1
1470242766487242,1,-10,2,0,0,-1,-2,-3
1470242766487242,-4,-13,1,-2,0,0,0,-1
1470242766499258,-4,8,-10,-1,0,0,2,-2
1470242766499258,5,-14,10,-8,-3,-3,0,-1
1470242766508261,3,25,-2,4,2,0,-2,1
1470242766508261,-6,-1,7,-5,-3,-2,-1,-2
1470242766522774,0,1,2,3,-1,-2,-1,1
1470242766522774,-2,-4,3,0,-1,-1,-1,-3
1470242766524276,-1,-12,2,-1,-2,0,1,0
1470242766524276,-3,2,2,1,-1,-1,-1,-3
1470242766545295,-1,6,-6,-3,-1,-1,-1,-2
1470242766545295,0,2,-4,0,0,-1,-1,-2
1470242766546796,-6,-6,-2,-4,-4,-2,-1,0
1470242766546796,4,14,22,4,-3,-1,-2,2
1470242766559310,-2,-24,-18,-7,0,-1,1,1
1470242766559310,-6,21,1,1,-1,0,0,-1
1470242766567815,3,-1,-1,-1,-1,0,0,-1
1470242766567815,-2,-9,7,4,-2,-2,-2,-1
1470242766582829,2,-6,4,10,4,0,0,3
1470242766582829,-5,3,4,-7,-1,-2,-1,-3
1470242766584330,0,2,-15,-11,-3,-2,-1,-1
1470242766584330,2,10,-3,2,-3,1,1,-2
1470242766605379,-3,0,9,2,1,-1,-3,-3
1470242766605379,-3,-17,9,-3,-5,-3,-2,0
1470242766606851,-4,-10,-4,4,1,0,-1,0
1470242766606851,-3,-2,0,-6,2,0,0,-3
1470242766619366,-2,0,7,1,-5,-3,-1,0
1470242766619366,4,-2,-8,3,1,1,0,-1
1470242766627871,-11,3,-10,-8,-1,-2,-3,-1
1470242766627871,-2,-12,4,-2,-2,-2,-2,-1
1470242766642882,-7,6,2,2,-1,-1,-2,-2
1470242766642882,6,1,1,-1,0,-2,0,0
1470242766644964,-2,-19,-17,-2,-1,-2,-1,1
1470242766644964,3,3,0,1,2,-1,-1,-1
1470242766665405,0,6,1,-4,-3,-2,-1,-6
1470242766665405,-11,-8,-19,-5,-2,0,-1,-3
1470242766666905,7,-1,7,2,1,-1,-1,2
1470242766666905,-6,1,9,1,-2,0,-2,0
1470242766678914,2,2,-4,-3,-1,-1,-1,-1
1470242766678914,1,-5,-1,-1,-1,-1,-2,0
1470242766687923,-1,-3,-1,2,-2,0,-2,-2
1470242766687923,1,-1,0,-3,-2,-1,0,-2
1470242766702939,-1,1,-3,3,-1,-1,0,-2
1470242766702939,-1,0,16,5,-1,0,0,-2
1470242766704440,-1,3,5,2,-2,-2,0,-2
1470242766704440,0,-1,-13,-3,-1,-2,-2,0
1470242766725457,-2,-11,-5,-4,0,0,1,-1
1470242766725457,3,-1,-5,-3,1,0,0,-1
1470242766726958,2,15,9,0,-2,-1,-2,-2
1470242766726958,-4,-6,-21,-1,0,-2,-3,0
1470242766747993,-4,-10,2,-1,0,-1,-1,-2
1470242766747993,4,13,-1,1,-3,-2,-2,0
1470242766749496,3,-9,-3,2,-4,-2,0,-3
1470242766749496,-3,8,3,1,0,0,-1,1
1470242766762489,-2,-2,-12,-7,-1,-1,-2,-1
1470242766762489,-2,-7,-4,-3,-1,-1,1,-2
1470242766768998,1,3,3,0,0,-1,-1,0
1470242766768998,3,-7,5,1,-2,0,-1,0
1470242766785526,0,6,-3,-1,-2,-1,-1,0
1470242766785526,-10,-9,-7,-2,-2,-3,-1,-2
1470242766787014,2,7,-3,-1,-1,0,-1,1
1470242766787014,-2,-6,-13,-5,-2,0,1,-2
1470242766808031,2,6,-2,-3,0,-2,-2,1
1470242766808031,-4,-6,-5,-1,-2,1,-1,-1
1470242766809532,1,-1,-3,3,-1,-1,-1,-4
1470242766809532,-2,1,8,-9,-3,-2,1,-1
1470242766823048,7,11,-3,-2,-1,-1,-1,1
1470242766823048,-11,-2,-6,-4,-1,-2,-2,-4
1470242766824551,-5,-9,3,3,-2,-3,-1,1
1470242766824551,4,-2,-4,1,1,-1,-1,0
1470242766845565,-8,9,4,2,-1,-2,0,1
1470242766845565,7,-1,8,2,3,1,0,-1
1470242766847068,-2,-2,-5,-8,-1,0,0,-4
1470242766847068,-5,1,1,3,-2,-3,-1,-2
1470242766868084,-5,-5,1,-4,-2,-3,0,-1
1470242766868084,0,1,-4,1,-2,-3,-1,-1
1470242766869587,3,5,7,-3,0,0,0,2
1470242766869587,3,-2,-33,-4,1,2,-1,-3
1470242766882098,1,-11,2,2,-4,-1,-1,-2
1470242766882098,2,5,14,-2,-3,-1,-2,-1
1470242766889105,0,-2,-2,0,-2,-1,-1,-1
1470242766889105,-6,-6,7,4,1,-1,0,1
1470242766905645,1,1,-8,-3,-2,0,-1,-1
1470242766905645,2,-2,-6,-1,-1,-3,0,1
1470242766907122,-2,-1,-1,-5,-1,-1,-1,-1
1470242766907122,-5,-4,9,5,-3,-3,0,-2
1470242766927669,-4,1,0,1,1,2,-1,-1
1470242766927669,1,-3,-4,-3,-2,-1,0,2
1470242766929640,-9,-7,5,-1,-1,-1,0,-4
1470242766929640,-1,0,2,-4,-2,-1,-1,-2
1470242766942207,5,-3,-3,0,-5,-3,0,-2
1470242766942207,1,4,1,-2,-2,-1,-1,1
1470242766949173,-4,2,0,3,0,0,-1,1
1470242766949173,-2,1,18,-2,1,0,-1,0
1470242766965672,-5,0,-28,-3,-1,1,-2,-1
1470242766965672,-6,-7,-3,-5,-4,-3,-2,-1
1470242766967174,0,-3,1,-2,-3,2,-2,-2
1470242766967174,0,2,-3,0,-1,1,-1,-2
1470242766988197,1,-3,14,7,-1,0,-1,-3
1470242766988197,1,12,-4,-4,1,-1,0,2
1470242766989738,1,-5,-5,-3,-3,-2,-2,1
1470242766989738,1,2,-8,-3,1,-1,-1,1
1470242767002224,-3,-1,-1,-2,1,-1,-1,-3
1470242767002224,-1,-4,3,2,-2,0,-1,0
1470242767009297,2,1,4,6,-1,-2,0,-1
1470242767009297,-3,-4,4,-2,-1,-1,0,-1
1470242767025268,9,1,7,1,1,-1,-1,-2
1470242767025268,3,-3,-6,6,0,-1,1,-3
1470242767027234,2,-3,-3,-12,-1,-1,-2,0
1470242767027234,5,3,13,5,-3,-1,0,0
1470242767047801,-4,-3,-1,-3,-5,-3,-2,0
1470242767047801,-1,-1,1,-2,-1,0,0,-3
1470242767049747,-3,1,-2,-1,-2,-2,-2,-2
1470242767049747,0,-6,-19,-8,2,-1,-1,0
1470242767062259,1,5,21,4,1,-2,-1,-2
1470242767062259,-2,1,-7,2,0,1,-1,2
1470242767069265,-5,-18,-5,-4,-4,-1,-2,-2
1470242767069265,6,14,13,6,-2,-3,-1,-2
1470242767085787,2,-10,-33,-21,-2,-1,0,-3
1470242767085787,-14,-9,12,4,-1,-1,-3,-2
1470242767087394,-4,-13,-3,1,1,-1,1,-1
1470242767087394,0,18,-5,-3,-3,0,0,1
1470242767108318,-2,-12,-12,-4,-1,-1,0,0
1470242767108318,3,10,18,1,0,-2,-1,-2
1470242767109302,-2,-10,-19,0,1,-1,0,-1
1470242767109302,-2,-2,6,0,0,-1,0,-1
1470242767122313,-2,1,5,3,-1,0,-2,1
1470242767122313,2,-3,-11,-16,-2,0,-1,-4
1470242767129319,-5,4,1,4,1,0,2,-1
1470242767129319,-2,-8,-1,0,-1,-2,-3,-4
1470242767145350,1,-1,-1,-1,0,1,0,1
1470242767145350,4,-5,1,6,-2,-2,-1,1
1470242767146835,-9,-3,3,-9,-2,-1,-1,-1
1470242767146835,-4,9,-10,2,-3,-1,-1,-1
1470242767167881,1,3,5,-2,-1,-2,0,0
1470242767167881,0,-5,-11,-6,-2,0,0,0
1470242767169360,-1,11,14,7,-1,-1,-2,-2
1470242767169360,-4,1,0,1,-3,-3,-1,0
1470242767182392,-2,-13,3,-1,-1,-1,-1,2
1470242767182392,-5,2,-4,-3,-1,0,0,-1
1470242767189448,-1,3,-2,-3,0,-1,-1,-3
1470242767189448,-2,-5,-3,0,3,1,-1,-1
1470242767205416,4,6,2,4,-2,-1,-2,0
1470242767205416,-1,-6,-3,-2,-3,-3,-1,-1
1470242767206889,2,0,2,-5,-3,-2,-3,-1
1470242767206889,0,-7,6,-1,-1,-1,-2,-1
1470242767227933,-6,-1,-12,-6,0,0,1,0
1470242767227933,-2,-16,-3,1,1,-1,-3,-2
1470242767229428,5,17,-6,-2,-2,-2,-2,0
1470242767229428,1,-13,-39,-8,-6,-3,-3,-3
1470242767241445,-7,-3,10,6,-1,0,0,1
1470242767241445,-4,-10,1,-6,-3,-3,-1,-1
1470242767250435,11,6,5,5,1,0,0,1
1470242767250435,-3,-7,-3,-8,-3,0,-2,0
1470242767265444,2,-4,-2,-4,-2,-2,-1,-2
1470242767265444,-8,2,-13,3,0,0,-2,0
1470242767266943,2,-6,-1,-1,-1,0,1,-1
1470242767266943,5,4,6,0,1,-1,0,-1
1470242767288005,-6,-6,0,6,-1,-2,-1,-1
1470242767288005,4,24,8,-3,-1,0,0,2
1470242767289507,2,-3,-12,-9,-3,0,-2,0
1470242767289507,-3,-5,23,7,0,-3,0,-2
1470242767301483,-3,1,0,-1,-3,-3,-2,-2
1470242767301483,4,0,-13,-6,-2,1,-1,-1
1470242767310482,-9,-7,-4,1,1,0,-1,0
1470242767310482,-2,8,9,3,1,0,0,1
1470242767325495,8,0,2,0,-3,-1,0,-3
1470242767325495,-5,1,-10,-1,0,-2,0,1
1470242767326996,2,1,6,1,-3,-2,-2,-3
1470242767326996,-4,-2,10,5,0,0,0,1
1470242767348048,2,7,-15,-9,0,-2,-1,0
1470242767348048,7,-6,1,1,-1,0,-2,-1
1470242767349559,-6,15,5,6,1,-2,-2,0
1470242767349559,-7,-16,-3,1,-3,0,-1,-1
1470242767361583,1,8,-1,-1,-2,-1,0,1
1470242767361583,3,8,4,-5,-1,-1,1,-1
1470242767370564,0,-21,5,-2,0,-1,1,0
1470242767370564,-4,2,-7,-2,-2,-3,-2,-5
1470242767385633,-11,-15,-4,-2,-1,-2,0,-1
1470242767385633,-3,-6,7,-1,0,-2,-2,-1
1470242767387051,-1,2,-4,4,0,0,0,1
1470242767387051,-2,5,-6,-9,-2,-1,0,-1
1470242767408101,-1,-4,13,6,-3,0,-2,-1
1470242767408101,-4,-1,7,4,-1,0,-1,-3
1470242767409571,-1,3,-5,-4,-3,-2,0,-1
1470242767409571,2,-8,-12,-9,-1,-2,0,-1
1470242767421582,-5,-1,4,-2,0,-1,-4,2
1470242767421582,-1,-4,-6,2,0,-2,-2,0
1470242767430589,5,5,2,0,-1,-2,-2,-2
1470242767430589,-6,-4,-4,1,-1,-1,-1,-4
1470242767445606,3,-4,4,-7,-1,-3,0,-2
1470242767445606,7,14,-2,3,0,-1,0,3
1470242767447105,0,-15,-7,-7,-1,0,1,2
1470242767447105,2,4,2,9,-2,0,-2,1
1470242767467722,1,8,-18,-5,0,0,-1,-3
1470242767467722,-2,-8,7,0,-1,1,0,-1
1470242767469628,-12,6,-4,2,-4,-3,-2,-3
1470242767469628,11,-8,-8,-3,3,0,0,-2
1470242767481660,7,8,20,7,0,-1,1,0
1470242767481660,-6,-17,-12,-10,-2,-1,-2,-1
1470242767490643,0,27,-3,0,1,0,-1,-2
1470242767490643,-3,-9,17,-3,-4,-1,-2,-1
1470242767505662,-8,-10,-5,-1,2,-1,-3,-1
1470242767505662,5,10,1,0,0,-2,-2,-1
1470242767507222,2,-8,-4,-1,-1,-1,-1,-2
1470242767507222,-15,-8,6,5,-2,-2,-4,-4
1470242767527692,7,3,-19,-7,-2,0,1,-2
1470242767527692,0,-2,-3,-2,-2,-1,-1,-1
1470242767529679,2,2,-1,-1,-2,-1,-1,0
1470242767529679,3,12,-16,-2,0,0,0,2
1470242767541711,-3,-7,6,0,-3,-1,-3,-1
1470242767541711,-5,-7,3,15,1,-1,-1,-4
1470242767556703,1,-24,-3,-13,-3,0,0,-2
1470242767556703,5,-2,-9,-13,-2,-2,-1,-1
1470242767565213,-6,11,9,4,-1,1,-1,-3
1470242767565213,-2,-8,-8,-3,-1,-2,-2,0
1470242767567214,-1,1,12,10,1,-1,-1,1
1470242767567214,-3,-9,2,-3,0,-1,-1,-1
1470242767588236,-5,-3,-4,-6,-2,-2,0,-1
1470242767588236,-4,5,0,-4,-3,0,-3,-3
1470242767589735,8,17,10,9,2,-1,-1,0
1470242767589735,3,2,0,-1,-1,-1,1,0
1470242767601747,-2,-12,-13,1,0,-1,-1,2
1470242767601747,-2,-13,0,-7,-3,-1,-2,-2
1470242767610251,-7,11,-12,-11,-1,-1,-1,-2
1470242767610251,5,-15,8,2,-3,-2,-3,0
1470242767625319,4,16,11,0,-2,1,-2,-1
1470242767625319,-7,-10,10,3,1,-2,-1,-4
1470242767627279,-2,-7,-25,-8,0,-2,-3,2
1470242767627279,-2,0,4,-4,2,0,2,1
1470242767646806,-1,3,27,8,-1,-3,-1,-1
1470242767646806,-2,2,-15,-5,-3,0,0,-1
1470242767655298,-1,-19,-5,0,-3,-1,-1,-1
1470242767655298,-2,22,7,1,0,-2,1,0
1470242767661797,-5,-9,-19,-4,-3,-1,-2,-3
1470242767661797,3,1,9,1,-1,-1,1,0
1470242767670307,-4,-5,10,5,3,0,0,-1
1470242767670307,0,6,3,-2,-1,0,-2,-3
1470242767685335,-1,-2,-8,-4,-1,-1,0,0
1470242767685335,-5,-3,2,-1,-3,-2,-1,0
1470242767686820,0,-7,-12,-4,-3,-1,-1,-2
1470242767686820,-4,9,-1,-2,-2,-1,-3,-2
1470242767715345,2,0,-10,-7,-3,-3,1,0
1470242767715345,2,3,6,4,0,0,-1,-1
1470242767716849,-12,-1,-1,-2,-1,-1,1,0
1470242767716849,3,-3,3,3,-2,-4,-2,0
1470242767730377,-2,-1,-3,1,1,1,0,0
1470242767730377,-1,10,11,0,-1,-2,-2,0
1470242767731860,-3,-21,9,-1,0,-1,-2,-4
1470242767731860,-3,2,-8,-3,0,1,-1,-1
1470242767745397,-2,2,-17,-4,2,0,-3,-2
1470242767745397,2,3,-1,0,-1,-1,0,-1
1470242767746873,-3,-1,2,1,-2,0,-1,0
1470242767746873,-1,-5,0,0,-2,-1,-1,-2
1470242767767893,3,-5,6,1,-1,0,-4,1
1470242767767893,-2,4,-3,-5,-1,-1,-1,1
1470242767769394,-1,-2,4,-2,-3,-3,-2,-5
1470242767769394,-2,-7,-6,-1,-1,-1,0,-1
1470242767790412,0,6,11,6,-1,-3,1,-1
1470242767790412,-7,-15,-13,-2,-1,-3,-2,-2
1470242767791914,4,3,1,-1,-1,0,1,-1
1470242767791914,-2,2,-8,-6,-1,0,-3,2
1470242767805443,-4,-17,3,10,0,-1,-1,0
1470242767805443,2,15,-3,-10,-2,-3,-1,-1
1470242767806936,-10,-8,2,-2,-4,-1,-1,-1
1470242767806936,4,2,0,4,1,-1,1,0
1470242767827968,3,2,4,3,-1,0,0,-3
1470242767827968,-5,-28,-6,1,-1,-1,-2,-1
1470242767829448,4,12,-5,-8,-2,0,-1,0
1470242767829448,-4,-3,0,3,-2,-1,-1,-2
1470242767850501,2,0,-4,-13,3,-1,0,-1
1470242767850501,-1,-4,18,5,-3,0,-1,0
1470242767851968,-1,4,-32,-1,-2,-3,0,-1
1470242767851968,-6,-26,2,-6,-4,-3,-2,-3
1470242767865008,2,19,3,3,-1,-1,-1,0
1470242767865008,3,5,2,-3,2,-2,0,0
1470242767871572,8,1,10,3,-1,-2,0,1
1470242767871572,-13,-3,-8,-19,-3,-2,-1,-4
1470242767888120,1,-5,-2,1,-3,-1,-2,0
1470242767888120,-1,5,1,-1,0,0,1,-1
1470242767889548,0,3,6,0,1,-2,-1,-1
1470242767889548,3,15,2,8,1,1,1,2
1470242767910605,-6,-14,-1,-11,-5,0,-1,-2
1470242767910605,2,1,-6,-1,-3,-2,0,-3
1470242767912082,-5,-5,5,5,-1,0,-2,0
1470242767912082,7,-3,-3,-5,-2,-3,-3,-1
1470242767933069,-6,5,1,1,-3,-2,-1,-4
1470242767933069,4,-11,-9,3,-1,-1,0,-2
1470242767934586,-1,6,6,-2,0,-2,-1,0
1470242767934586,-5,-10,0,1,1,4,-1,0
1470242767948083,4,17,11,4,-1,0,-3,-1
1470242767948083,10,6,2,3,-1,-1,0,0
1470242767949616,-16,-9,-1,-7,-3,-1,-1,-3
1470242767949616,3,-15,-2,-2,0,0,-2,1
1470242767970107,5,34,7,1,2,-1,0,1
1470242767970107,-5,-7,-4,6,-2,0,-2,1
1470242767972121,0,-3,17,-10,0,0,-1,-1
1470242767972121,7,10,-8,5,-1,-1,-1,0
1470242767985115,-7,-25,-4,-2,-3,0,1,-2
1470242767985115,-1,27,1,-3,2,-3,-1,0
1470242767991622,2,-1,-12,4,-1,-1,-1,-4
1470242767991622,0,9,17,4,-1,-2,-1,-2
1470242768008136,-3,-12,3,-2,-1,-1,-2,0
1470242768008136,-3,-13,-34,-9,-4,1,-1,-2
1470242768009664,-2,12,22,3,-1,0,-3,-2
1470242768009664,-3,-5,-20,-3,-1,-1,0,-2
1470242768030657,2,5,9,0,-3,-2,-2,-1
1470242768030657,-7,-17,5,-4,0,-2,0,-4
1470242768031658,6,-3,-10,-4,0,-1,2,2
1470242768031658,-1,3,11,8,-1,-2,-2,0
1470242768044689,1,-4,-7,-2,-2,-3,0,-2
1470242768044689,0,-5,2,1,-2,0,-1,0
1470242768051690,-3,2,-10,-2,-3,-1,0,-2
1470242768051690,-3,1,-5,-8,1,-1,-1,-1
1470242768075697,-5,-12,-1,4,0,0,2,-1
1470242768075697,4,1,1,-2,-2,0,-3,2
1470242768077202,3,8,-15,-2,1,-1,-2,0
1470242768077202,0,-3,1,1,-1,-2,0,-2
1470242768090712,-1,1,-13,-8,1,-1,1,-1
1470242768090712,-10,-22,8,2,-2,-3,-2,0
1470242768092229,-1,-1,-6,0,-3,-1,-1,-2
1470242768092229,-2,6,-6,-6,-4,-2,1,0
1470242768104727,-1,-5,-2,2,1,1,-1,-1
1470242768104727,-2,11,0,9,-2,1,0,-1
1470242768111729,-3,-9,6,-5,-1,0,-2,1
1470242768111729,1,2,11,1,-2,-2,0,-1
1470242768127766,-2,-3,-9,-6,-1,0,-2,1
1470242768127766,1,12,-4,0,2,0,-1,-2
1470242768129746,1,-9,2,3,-2,-3,-2,0
1470242768129746,4,3,-6,-2,-1,-1,-2,-2
1470242768157775,-5,-9,-5,-2,-3,-4,-3,-3
1470242768157775,-10,5,3,-8,-1,-2,-1,-2
1470242768159272,-9,-13,-1,2,0,-1,-3,-4
1470242768159272,7,-13,-13,-6,0,0,-2,0
1470242768164277,-9,-2,15,2,-3,-1,-2,-2
1470242768164277,9,19,-7,-2,-1,2,0,-1
1470242768173286,1,-1,3,-5,-1,2,0,2
1470242768173286,-8,-4,2,-1,-1,0,-2,-1
1470242768187797,-2,0,-8,5,0,-1,-1,-2
1470242768187797,-7,-27,-3,-2,-2,0,1,-1
1470242768189299,4,4,6,2,0,0,-1,-2
1470242768189299,2,12,-3,-1,-1,0,-1,1
1470242768210350,1,-4,6,-4,0,-1,0,1
1470242768210350,-2,-2,-24,-11,-1,-3,-1,-2
1470242768212320,5,-6,-2,9,1,-1,-1,1
1470242768212320,-11,-12,16,5,-2,-1,-1,-4
1470242768223832,-1,0,-15,-7,-2,-1,-2,-3
1470242768223832,2,3,18,2,0,0,-1,-2
1470242768239389,2,1,-21,-6,1,-1,-1,0
1470242768239389,-5,-1,-4,-3,-3,-2,-1,1
1470242768247878,2,1,6,1,0,-2,0,-1
1470242768247878,-3,-3,-3,-2,-2,-2,-1,-1
1470242768249353,-4,-12,-7,-2,-2,-1,0,-1
1470242768249353,1,5,7,2,-1,-2,-2,-3
1470242768270437,-4,-17,-8,-5,-2,0,-1,2
1470242768270437,1,3,5,-2,0,0,0,-3
1470242768271873,1,0,2,-1,-1,-1,0,-2
1470242768271873,-1,-4,1,-2,-1,-3,-1,-2
1470242768283939,-15,8,-3,1,-1,-2,-2,-4
1470242768283939,-8,2,5,-3,0,-2,-1,2
1470242768300399,4,-16,-3,-2,-1,-1,-2,0
1470242768300399,1,1,-10,-4,-2,-1,-3,-2
1470242768307961,5,14,3,3,-2,-1,-2,-2
1470242768307961,-4,-15,-16,-8,-1,-3,-2,0
1470242768309470,-8,17,7,2,-2,-2,-1,-3
1470242768309470,0,0,-2,2,2,0,1,2
1470242768330426,0,-16,-5,-2,-3,0,-3,-1
1470242768330426,-1,7,0,2,0,-1,0,-1
1470242768331927,-1,1,-1,-3,-1,-2,-1,0
1470242768331927,2,-3,-7,-2,1,0,-1,0
1470242768344465,-1,0,-7,-2,-3,-2,-2,-1
1470242768344465,-1,-6,-4,-1,-1,-1,-1,-1
1470242768352946,-2,8,-5,-2,-2,1,1,1
1470242768352946,1,12,7,3,0,1,0,-1
1470242768368003,5,20,2,0,2,2,2,-2
1470242768368003,-3,-7,-22,-8,-3,-3,-3,2
1470242768369461,2,-2,15,4,-2,-1,-3,-3
1470242768369461,-18,-3,-3,1,2,2,2,-2
1470242768390524,-1,-7,1,-3,-2,0,1,1
1470242768390524,4,-4,-3,4,-1,0,1,1
1470242768391983,1,4,-14,-9,-2,-3,-2,-1
1470242768391983,-1,-29,-7,-5,-1,-2,1,0
1470242768403993,0,-2,14,0,-2,-1,-2,0
1470242768403993,-2,-17,3,7,-1,-1,-1,-3
1470242768413000,-1,17,2,5,-1,-1,2,1
1470242768413000,0,4,-27,-9,-3,-2,-2,1
1470242768427514,1,-11,-12,-9,-1,-2,-2,-1
1470242768427514,-1,14,13,10,0,0,-3,-2
1470242768434019,-6,-23,7,-6,0,0,-2,1
1470242768434019,-7,-3,10,3,-3,-3,-1,-2
1470242768450533,-2,21,2,-4,2,-3,-1,-1
1470242768450533,1,10,5,3,-2,-1,0,0
1470242768452035,-8,-25,-5,-2,-3,-2,-1,0
1470242768452035,8,10,1,-6,0,0,-2,-1
1470242768464051,-10,-18,6,8,-5,-2,-3,-3
1470242768464051,-1,-10,-2,-5,-2,-1,-1,1
1470242768473056,-3,6,-4,-3,-2,-4,-3,-1
1470242768473056,2,-10,-1,0,-1,-1,3,2
1470242768488069,3,-4,0,-2,0,1,-2,-4
1470242768488069,-20,15,6,-4,0,-2,-1,-5
1470242768489569,0,-14,-27,-14,-3,-1,-2,-2
1470242768489569,-4,-5,6,3,-4,-1,-2,-2
1470242768510591,4,4,7,8,3,2,2,3
1470242768510591,3,-1,-1,13,1,1,0,-1
1470242768512091,-1,7,0,-7,-6,-3,0,-1
1470242768512091,0,6,9,2,1,-1,-1,-1
1470242768524100,0,-6,-12,-6,-2,-2,0,0
1470242768524100,3,1,-1,-12,1,2,-1,-1
1470242768533108,0,10,10,10,2,1,0,-4
1470242768533108,2,-6,-8,1,-1,0,-4,0
1470242768548121,-2,-1,-9,1,3,-1,-2,1
1470242768548121,-6,-25,-5,6,-3,-3,-2,1
1470242768549623,-2,31,10,0,-2,0,-1,-1
1470242768549623,-3,16,16,0,1,0,0,-1
1470242768570642,6,0,-2,-3,-3,-1,-3,-1
1470242768570642,-12,1,-27,-3,0,-1,0,-1
1470242768572163,1,-18,21,12,3,1,0,1
1470242768572163,-6,-1,-17,-10,-3,-2,-2,-2
1470242768584250,2,-3,-4,11,-3,-2,-1,0
1470242768584250,0,-1,8,-17,-1,0,1,-3
1470242768593204,9,-16,-15,1,-1,-3,-2,0
1470242768593204,-7,0,13,14,-2,-3,-3,-1
1470242768608175,-6,-5,-9,-7,-1,0,0,-2
1470242768608175,1,-17,17,3,-1,-3,-3,-3
1470242768609790,-2,-20,-30,-7,4,2,1,1
1470242768609790,9,33,22,4,-4,-3,-2,-5
1470242768630195,-7,3,1,-3,0,1,0,2
1470242768630195,14,9,13,-2,0,-2,0,-1
1470242768632196,-7,0,19,0,-1,0,-1,-1
1470242768632196,2,-21,-9,-6,-1,-2,0,0
1470242768653216,-1,-9,-10,-10,-3,-1,-2,-2
1470242768653216,2,9,5,6,-2,1,0,0
1470242768654717,2,11,-7,-3,1,1,3,1
1470242768654717,9,-3,-8,1,-1,-1,-3,-3
1470242768668289,-3,4,-7,0,-1,-1,-1,-1
1470242768668289,-6,-13,-15,-11,-2,-1,-4,-1
1470242768669730,-4,-1,2,6,-2,-2,-3,-2
1470242768669730,-4,-8,-8,-6,-1,2,2,1
1470242768690775,6,11,-13,0,0,-4,-1,2
1470242768690775,-10,-10,-37,-11,-5,-2,-1,-1
1470242768692273,7,9,30,6,-5,-1,-3,-2
1470242768692273,1,-6,-19,-6,-2,-1,0,0
1470242768713327,-2,-10,12,3,1,-1,-1,-3
1470242768713327,3,11,9,-5,-4,-4,-3,0
1470242768714805,-12,7,-14,0,0,-1,-1,-3
1470242768714805,1,10,8,-6,1,0,0,-2
1470242768727796,1,-18,5,1,-2,-3,-1,-2
1470242768727796,5,10,-23,-5,0,-1,1,2
1470242768729785,-5,-9,18,-1,-2,-1,-1,-3
1470242768729785,5,3,-5,8,0,0,-2,0
1470242768750399,1,17,9,-10,-2,-3,-2,-2
1470242768750399,0,-5,-21,-5,0,-2,0,-1
1470242768751806,-10,-7,-10,-5,-4,-3,0,-1
1470242768751806,4,-9,1,5,3,0,-1,0
1470242768772825,-4,3,8,-3,-4,-2,-1,1
1470242768772825,3,-8,1,0,-3,0,-1,-1
1470242768774326,-3,8,-6,-2,-2,0,-1,-3
1470242768774326,-8,-6,0,-1,1,0,0,1
1470242768787352,-3,-26,-13,0,2,1,-1,0
1470242768787352,2,9,30,8,1,0,-3,0
1470242768794346,5,-1,0,4,-1,1,-1,0
1470242768794346,-10,-11,-8,-12,-2,1,-1,-1
1470242768810412,4,8,9,8,-2,-1,0,-1
1470242768810412,-3,7,0,-3,1,0,1,0
1470242768811860,3,-7,-10,-3,-4,-4,-1,1
1470242768811860,-6,-6,8,5,-4,-2,-1,-2
1470242768832878,-6,-3,-13,-2,-2,-1,-2,-2
1470242768832878,1,-4,16,-12,0,-1,-1,-1
1470242768834379,-3,0,4,10,2,0,-2,-4
1470242768834379,2,1,-9,-6,-3,-3,-1,-1
1470242768847390,-1,-11,17,3,-4,-2,0,-1
1470242768847390,-1,-1,-4,3,-1,0,-2,0
1470242768853896,0,4,-12,-16,-5,-3,-1,0
1470242768853896,4,-5,3,4,2,0,0,0
1470242768870429,-3,5,1,-4,0,-1,-1,-3
1470242768870429,-3,-2,8,4,-3,-3,-2,-2
1470242768871914,3,5,-9,-2,3,-1,0,0
1470242768871914,-2,-4,0,5,-2,-2,-1,-1
1470242768892940,0,-4,-13,-14,-2,0,-1,2
1470242768892940,-1,0,5,7,-2,-1,-1,-1
1470242768894569,-3,-1,16,-2,0,2,0,1
1470242768894569,-4,1,-15,-2,1,-1,-1,0
1470242768907443,2,9,9,6,-1,-1,-1,-1
1470242768907443,0,-7,0,0,1,-1,1,-2
1470242768914012,-5,-6,-3,-1,-5,-2,-1,-2
1470242768914012,-4,-4,5,-3,-2,-1,-1,-1
1470242768930482,6,1,-12,-10,-2,-3,-2,0
1470242768930482,-4,1,3,3,-2,0,0,-4
1470242768931966,0,-1,-4,1,2,-1,0,0
1470242768931966,3,10,10,-3,-1,-1,0,-2
1470242768953028,-3,-1,-4,-3,1,0,-1,-1
1470242768953028,1,-11,-2,5,0,-1,-1,0
1470242768954488,-1,-10,11,-6,-2,-2,-2,-2
1470242768954488,2,21,-10,3,-4,-2,-1,1
1470242768967498,-2,-9,-4,-1,0,-1,1,-1
1470242768967498,-14,4,2,-1,0,0,0,-3
1470242768974066,4,-2,-9,4,0,-1,0,-1
1470242768974066,-3,-8,-3,-8,-2,-1,-4,-3
1470242768990540,-1,1,3,4,1,0,1,-2
1470242768990540,4,10,-5,2,-1,0,-1,-1
1470242768992022,-1,-3,2,3,-2,-2,-1,0
1470242768992022,-2,-1,0,-7,-2,-1,-2,-1
1470242769013068,-2,1,-6,5,-2,-1,-2,0
1470242769013068,3,-6,2,-3,-2,-1,-2,-1
1470242769014539,-3,3,-12,-8,-3,-1,0,-3
1470242769014539,-1,-18,3,-2,-1,-1,-2,-2
1470242769027083,4,8,-4,9,-1,-1,-1,-3
1470242769027083,-5,-18,-6,-4,-2,-1,-3,-1
1470242769034058,-1,-9,1,-1,-1,-2,0,0
1470242769034058,-3,3,5,6,0,-1,-1,-6
1470242769050572,-6,-7,-3,-7,-1,-1,-1,1
1470242769050572,0,10,1,0,-2,-2,0,-1
1470242769052074,3,-7,-1,0,-3,-1,0,1
1470242769052074,5,6,3,5,0,-2,-1,-2
1470242769073093,-11,-15,0,1,-2,-1,0,-4
1470242769073093,-2,11,-4,-9,-5,-1,-2,-1
1470242769074594,1,9,4,-5,1,-2,-2,-1
1470242769074594,-4,3,4,2,-1,-1,0,-2
1470242769087607,-1,-8,-15,-12,-1,0,0,0
1470242769087607,2,-1,4,4,1,0,-1,-2
1470242769094128,0,14,-3,-2,-2,2,-1,0
1470242769094128,-3,-2,5,-3,-2,-2,-2,0
1470242769110626,1,5,-1,0,0,-1,-2,-5
1470242769110626,0,-6,0,0,1,-2,2,3
1470242769112127,-3,-4,-3,-1,-1,0,-1,0
1470242769112127,-2,-6,1,-1,-2,-1,-1,2
1470242769133151,3,14,-1,-3,-2,-2,-1,2
1470242769133151,1,1,-6,-4,-3,-1,-2,0
1470242769134648,1,4,4,-1,2,0,-1,0
1470242769134648,-5,-12,-14,-5,0,-2,-1,-3
1470242769146658,-6,-1,0,3,-1,1,-2,-3
1470242769146658,-4,-14,-1,3,-1,0,-2,-1
1470242769155668,3,1,-2,2,1,-1,-1,-2
1470242769155668,0,-5,-16,-3,-1,0,1,0
1470242769170680,1,-2,8,3,-2,-3,0,0
1470242769170680,-1,-2,-3,0,0,-1,-1,-2
1470242769172182,-1,-4,-5,-1,-1,-2,-2,0
1470242769172182,-5,-4,1,-1,-1,1,1,-3
1470242769193204,0,3,6,1,-1,0,-1,0
1470242769193204,5,-6,-12,-4,-3,-1,-1,-1
1470242769194705,-2,0,5,1,-1,-1,-2,-1
1470242769194705,0,1,8,1,-1,-1,0,0
1470242769206712,-4,-3,-6,-2,-1,-1,-1,0
1470242769206712,-14,-2,16,1,0,1,-1,-6
1470242769215721,-1,-1,-12,-4,-3,-3,-1,-1
1470242769215721,0,-7,0,0,0,-2,-1,2
1470242769230820,-4,7,-4,3,-1,1,-1,-3
1470242769230820,3,-2,10,-2,-1,-3,-2,1
1470242769232236,1,19,2,5,-1,-1,1,1
1470242769232236,-3,10,-6,-12,-4,-2,-1,-1
1470242769252787,0,-20,-3,-3,-1,0,0,-1
1470242769252787,2,11,14,4,0,0,-3,-1
1470242769254255,-4,-4,-6,0,0,1,-1,-2
1470242769254255,4,-8,1,2,-1,-2,-2,-1
1470242769266767,-6,14,-5,-2,1,-1,-1,-1
1470242769266767,-2,-10,-9,-11,-3,-1,-1,0
1470242769275274,2,-7,4,-1,1,2,-2,-1
1470242769275274,-3,-8,-5,1,-5,-2,-1,0
1470242769297796,5,14,20,1,-1,-2,-1,1
1470242769297796,-5,-12,-34,-12,-4,-3,-1,-1
1470242769299296,-6,-4,11,5,0,-1,-2,-3
1470242769299296,-3,8,-4,2,1,-1,0,-2
1470242769312808,3,-11,10,-2,0,-2,-1,-3
1470242769312808,3,9,-1,1,1,0,-1,1
1470242769314314,-3,-10,-4,-5,-3,-3,0,-3
1470242769314314,-1,5,1,-4,-3,-1,-2,1
1470242769326879,3,-1,0,-1,-1,-2,0,-3
1470242769326879,0,-5,2,5,-2,1,0,-2
1470242769335333,-3,1,-15,-2,-1,1,1,0
1470242769335333,2,-4,4,2,0,-1,-1,-2
1470242769350372,-2,-8,-13,-5,-2,0,-1,0
1470242769350372,-2,3,-1,-1,-1,-1,-2,-1
1470242769351843,1,1,12,-2,-4,-4,-1,0
1470242769351843,1,1,-15,3,-1,1,-2,-1
1470242769380368,-1,0,-4,-3,-3,-2,-2,-2
1470242769380368,0,17,12,3,3,-1,1,0
1470242769381889,3,-17,-20,-5,-3,-2,-1,-4
1470242769381889,-2,-4,17,-1,-1,-1,-1,-1
1470242769386875,-6,-5,3,4,-3,-1,0,-1
1470242769386875,3,0,1,-3,0,-2,-1,0
1470242769395383,-2,-11,-13,-8,0,-3,0,-1
1470242769395383,-7,-3,2,-3,-2,-3,-1,0
1470242769410423,-2,4,3,5,0,-2,-1,0
1470242769410423,-2,-1,-12,-2,0,-2,-1,0
1470242769411899,-2,-7,19,3,-2,0,-2,2
1470242769411899,0,3,-8,1,-2,0,-1,-3
1470242769432928,-3,-4,-11,-10,-1,-1,-2,-1
1470242769432928,-1,6,8,-4,-3,-3,0,-1
1470242769434417,1,0,1,-4,-1,0,-1,0
1470242769434417,-1,0,-9,0,0,-1,-2,1
1470242769446443,-3,-13,3,-2,0,-2,-1,-1
1470242769446443,5,14,6,3,-1,0,0,-1
1470242769455436,-7,-13,-31,-7,-3,-2,-1,-3
1470242769455436,-5,-1,26,3,0,-1,-1,-3
1470242769470456,1,-3,-19,-1,-1,-1,-1,-1
1470242769470456,-4,-5,2,-6,-2,-2,-1,-1
1470242769471951,1,9,7,9,-1,0,-4,1
1470242769471951,4,-8,-6,0,-1,-1,0,-2
1470242769492971,-6,30,-7,-3,0,-1,-2,1
1470242769492971,2,-1,-4,1,-1,-3,-1,0
1470242769494490,-6,2,15,1,-2,-1,-1,-1
1470242769494490,6,-2,-11,-3,-1,1,2,2
1470242769506482,-10,5,1,3,0,1,0,-2
1470242769506482,4,-10,-2,6,0,-1,-1,0
1470242769515494,-8,-11,-10,-23,-1,-1,-2,-3
1470242769515494,-5,3,12,3,-2,0,-2,-3
1470242769530505,3,9,15,10,0,-3,-1,0
1470242769530505,-6,-10,-27,-3,-2,-1,0,-2
1470242769532005,-2,5,6,0,-2,-1,0,0
1470242769532005,3,4,2,-7,0,-2,0,-1
1470242769553025,1,-8,-11,-1,-2,0,-2,-1
1470242769553025,-7,-13,-2,-5,-1,1,-1,1
1470242769554525,8,19,8,5,1,-1,1,-3
1470242769554525,-8,-28,-15,-9,0,-1,0,-3
1470242769575564,5,14,9,-1,-2,-2,-1,1
1470242769575564,-2,0,8,5,-2,-1,-2,-1
1470242769577064,-1,7,-2,1,3,2,1,-3
1470242769577064,-2,3,13,3,-2,-2,-2,0
1470242769590188,-1,-17,2,-6,-1,-1,0,-3
1470242769590188,-3,0,-8,-1,0,-1,-1,-2
1470242769596639,0,14,0,3,-2,0,-2,-1
1470242769596639,1,8,-12,-1,2,-1,-1,1
1470242769613079,-2,-14,-17,-4,-1,-1,-1,-1
1470242769613079,-3,-3,11,-2,-1,1,0,-2
1470242769614578,-1,-9,-3,2,0,-2,-2,0
1470242769614578,4,5,0,0,-2,-1,-3,-2
1470242769635597,-3,2,-6,-6,-1,-2,-1,0
1470242769635597,-1,0,1,1,1,1,0,0
1470242769637100,-2,-14,-4,-2,-1,-1,0,0
1470242769637100,0,4,-4,-2,0,-2,0,-2
1470242769650611,-1,-8,6,3,-1,1,0,-1
1470242769650611,-1,1,-2,-8,-1,0,-3,0
1470242769652128,-2,1,5,4,-2,-2,-2,-1
1470242769652128,-13,-8,-11,-5,-3,-1,-2,-3
1470242769673135,2,-3,-2,-2,-3,-2,-4,0
1470242769673135,3,-1,18,-2,2,0,-1,-1
1470242769674633,-4,-6,-13,-6,-5,-5,-3,-3
1470242769674633,0,-1,-8,1,-4,0,1,1
1470242769695651,-12,-2,8,0,-1,1,1,-3
1470242769695651,7,4,3,0,-1,-2,-3,1
1470242769697154,2,-3,-9,-1,2,1,1,3
1470242769697154,1,2,3,1,-1,0,-2,-1
1470242769710665,2,3,0,-1,-4,-1,-1,-1
1470242769710665,-3,-1,-5,-2,-1,-1,-1,-1
1470242769712181,1,7,20,5,0,1,0,1
1470242769712181,-16,-19,-11,-7,-3,-3,-3,-1
1470242769733185,6,9,1,2,2,1,0,0
1470242769733185,-3,-1,-6,1,-3,0,-1,-1
1470242769734686,-1,6,9,7,1,-2,-3,0
1470242769734686,6,-1,3,-4,2,-1,-3,-1
1470242769755218,1,5,0,-3,-1,-1,-1,-2
1470242769755218,-6,-9,-1,2,0,-1,-1,-1
1470242769757207,-2,5,-16,-5,0,0,-3,-3
1470242769757207,2,1,0,0,-1,0,0,0
1470242769769720,0,-9,-5,-2,-2,0,-2,-4
1470242769769720,3,14,26,10,1,-1,1,-1
1470242769776724,0,-4,-38,-11,-5,-1,-1,0
1470242769776724,-8,-21,-1,-1,2,0,-1,-1
1470242769792794,-2,-5,-3,-2,-2,-1,-3,-1
1470242769792794,0,-1,4,-4,-2,-1,-1,-2
1470242769794777,1,1,21,7,0,-1,-1,1
1470242769794777,-4,-4,-15,-5,-3,-3,-2,-3
1470242769815315,0,-2,3,-2,1,-3,1,0
1470242769815315,-4,-4,-7,-1,-3,0,-2,-2
1470242769817275,-2,-12,-5,-4,-1,1,-1,-1
1470242769817275,8,19,5,3,1,-1,-1,-1
1470242769829797,-2,-3,4,2,0,-2,0,-2
1470242769829797,-3,-28,-17,-6,-3,-2,-1,-1
1470242769836778,-7,4,9,-1,-2,-1,-3,-3
1470242769836778,8,37,-3,3,-1,0,0,0
1470242769853322,-7,4,0,-2,-1,-2,-2,-3
1470242769853322,4,-14,5,0,1,-1,-2,1
1470242769854948,-4,-18,-1,0,-1,-3,0,0
1470242769854948,1,-3,5,0,0,-3,-1,1
1470242769875357,-4,-9,-15,-7,-1,0,0,0
1470242769875357,5,18,10,1,-2,-3,-4,-4
1470242769876814,2,11,3,1,0,0,2,2
1470242769876814,0,-10,-1,1,-1,0,-3,-1
1470242769889878,-6,-15,-5,-1,0,1,1,0
1470242769889878,-2,13,-13,-2,0,-1,-3,1
1470242769896833,-4,-13,-3,-5,-3,2,2,-2
1470242769896833,3,7,4,-3,-3,-2,-3,6
1470242769912883,7,10,-2,7,-1,1,6,-5
1470242769912883,-9,-5,-9,0,1,6,2,-3
1470242769914350,-1,-9,4,-6,-2,-5,-2,0
1470242769914350,-1,5,-7,-1,0,-3,-3,1
1470242769935393,2,-6,6,-1,-2,-3,-2,1
1470242769935393,-2,5,-3,-1,-4,-3,-1,-4
1470242769936868,2,2,-5,1,0,2,-2,-2
1470242769936868,-2,-2,3,-1,-2,-2,-1,-5
1470242769949894,-2,1,1,-1,0,-2,-4,3
1470242769949894,1,0,4,-5,-1,-1,2,1
1470242769956401,0,5,-4,0,-1,-3,-4,-4
1470242769956401,-3,-3,-3,-2,-1,-1,1,-1
1470242769972932,-3,1,6,1,0,0,0,-1
1470242769972932,-3,-3,4,7,-6,-3,-1,0
1470242769974402,1,-1,6,-11,-2,-2,-1,-1
1470242769974402,-3,-6,-16,-3,0,0,-2,-5
1470242769995460,3,0,14,4,1,0,-2,0
1470242769995460,-3,-3,1,16,-1,-1,1,1
1470242769996922,-3,4,-8,-14,-2,-3,-2,-1
1470242769996922,-2,-9,11,13,-3,0,0,-3
1470242770009935,2,-3,-16,-20,2,-2,-3,0
1470242770009935,-6,-2,-9,-7,2,1,0,-1
1470242770016441,-1,-5,7,9,-2,-5,0,0
1470242770016441,-3,-5,-2,-4,0,0,2,-1
1470242770032956,-1,-8,3,3,-2,-1,-2,-1
1470242770032956,1,19,-6,-6,0,0,-2,-1
1470242770034456,-3,-4,0,0,-1,1,0,-2
1470242770034456,3,7,0,-3,0,-1,0,-1
1470242770055474,-2,-2,23,8,-2,-1,-2,-1
1470242770055474,0,-12,-36,-13,-2,-1,-1,-1
1470242770056977,2,3,0,4,1,0,-1,-1
1470242770056977,-3,-1,0,-5,-2,0,-1,-1
1470242770069022,0,5,-13,-2,-1,-3,0,0
1470242770069022,1,6,8,1,-1,-5,-3,-1
1470242770077995,-4,-13,-7,5,-2,-2,-1,0
1470242770077995,-3,-2,-1,-5,-3,-1,-1,0
1470242770093010,-1,-5,-5,1,-2,-2,-2,-1
1470242770093010,1,-3,-6,-7,0,-1,-2,-2
1470242770094509,-9,3,-3,1,-1,1,0,-3
1470242770094509,-3,-10,2,-3,0,-1,1,-1
1470242770115613,1,8,-6,-2,-3,-3,-2,-1
1470242770115613,0,-7,6,2,-1,-1,1,2
1470242770117032,1,3,0,-4,0,0,-1,-1
1470242770117032,-9,2,-1,-1,0,-2,-1,-2
1470242770129040,-3,-20,-11,-1,-1,-2,-2,-1
1470242770129040,-1,2,8,4,-1,-2,-1,-2
1470242770138049,2,1,-9,-3,-1,-1,0,-1
1470242770138049,2,-8,5,1,0,0,-3,1
1470242770153062,-1,2,2,2,-1,0,-1,-1
1470242770153062,-4,2,8,-3,-1,-1,0,-2
1470242770154580,7,-2,-4,-3,-1,-2,-2,2
1470242770154580,4,8,19,7,-1,0,-4,1
1470242770175613,2,5,-16,-14,-1,-1,-2,-1
1470242770175613,-3,-12,-9,1,0,0,-3,-4
1470242770177084,-14,0,3,5,0,1,-1,-2
1470242770177084,3,2,-13,-4,-1,-2,1,-1
1470242770189135,0,5,16,-3,-3,-1,1,1
1470242770189135,4,-2,-13,1,-3,-3,0,0
1470242770198105,-7,8,8,-1,1,-2,-1,-2
1470242770198105,-1,-14,-1,-2,1,-1,1,1
1470242770213116,4,10,-7,8,-4,-1,0,-2
1470242770213116,1,-7,-8,-32,-5,-2,-1,-2
1470242770214652,2,2,2,6,-1,-1,-1,-2
1470242770214652,-5,-2,-4,0,-2,0,-1,-1
1470242770235637,-6,-13,1,4,1,-2,-1,-1
1470242770235637,-2,-4,8,-1,0,0,0,2
1470242770237170,0,-7,-12,-2,-1,-3,-1,-1
1470242770237170,5,18,2,-3,1,1,-1,-2
1470242770249193,1,-4,-2,0,2,2,1,1
1470242770249193,-5,3,7,12,-1,0,-1,-1
1470242770258156,7,4,-4,-9,-2,-1,-2,0
1470242770258156,-4,-6,-6,3,0,-1,0,-4
1470242770273170,-10,15,4,1,-2,-2,-1,0
1470242770273170,-4,10,-2,-1,4,1,0,0
1470242770274685,3,9,10,4,-4,-2,0,1
1470242770274685,11,-6,0,0,-5,-2,-1,-1
1470242770295691,-13,3,-7,-5,1,-1,-1,-5
1470242770295691,12,-5,14,13,4,1,0,0
1470242770297191,-10,-11,-39,-20,-3,0,1,3
1470242770297191,3,-18,5,8,-4,-2,-1,0
1470242770309202,1,14,-5,-6,-2,-1,-1,-2
1470242770309202,-8,-11,6,7,3,-2,-2,-5
1470242770318215,2,8,32,1,3,0,-2,-1
1470242770318215,4,9,-26,3,3,0,-1,2
1470242770333225,1,-22,-5,-3,-1,1,2,1
1470242770333225,-29,11,-1,-4,-6,-3,-2,-5
1470242770334264,9,3,-3,4,1,1,0,-1
1470242770334264,1,7,3,-10,-1,1,-2,2
1470242770355253,-2,3,16,12,-3,2,-4,0
1470242770355253,-6,0,-11,-7,-3,-2,-1,0
1470242770357245,0,-12,-16,-11,-2,0,0,-4
1470242770357245,-4,12,18,2,-1,-1,1,-2
1470242770369257,-4,-26,-6,5,-3,-3,-1,-2
1470242770369257,8,-11,1,2,-2,-2,-1,-1
1470242770378265,-2,16,-7,-4,-3,-2,1,-1
1470242770378265,-7,-16,-4,-16,-1,-1,-2,-6
1470242770393282,0,-5,-9,-5,1,-1,-1,1
1470242770393282,-14,8,6,5,2,1,0,-2
1470242770394279,14,36,39,17,-2,-2,-1,2
1470242770394279,-14,-26,-35,-12,-4,0,-2,-2
1470242770415300,-2,10,18,-7,-1,-1,-2,0
1470242770415300,-1,-38,2,1,-4,-2,-2,-2
1470242770417357,-7,-3,-2,-1,-3,-1,-2,-3
1470242770417357,8,0,13,9,0,0,-1,-1
1470242770428837,-6,29,-9,-3,-2,-3,-2,-5
1470242770428837,9,-5,-7,-9,-2,-1,0,5
1470242770437833,-9,-23,7,4,-2,-1,-2,-3
1470242770437833,-1,26,12,12,-2,-3,0,1
1470242770452847,-14,-45,-18,-19,-1,0,0,-5
1470242770452847,13,16,-1,11,0,-1,0,0
1470242770454358,-7,-31,-12,-2,3,-2,-1,-1
1470242770454358,-1,4,-5,-2,-3,-1,-2,1
1470242770475366,-4,5,5,8,-5,-2,-1,3
1470242770475366,11,13,-8,-9,-1,-1,-3,1
1470242770476853,5,-8,9,-4,-3,-3,-2,-2
1470242770476853,7,10,1,19,8,2,0,-2
1470242770489446,-8,11,-9,-2,1,-3,-3,-2
1470242770489446,15,1,4,-15,-2,-1,-1,2
1470242770497872,-28,-3,-18,-8,-1,0,0,-4
1470242770497872,0,-8,0,2,-4,-3,0,-1
1470242770512901,11,8,8,-4,-2,0,-1,-3
1470242770512901,-6,3,8,11,2,-2,0,1
1470242770514387,7,-2,2,-8,6,2,-3,-3
1470242770514387,-14,-3,-7,-10,-6,-1,0,-3
1470242770535422,2,1,1,0,1,-3,1,1
1470242770535422,-5,-6,6,7,-3,-2,-4,-3
1470242770536924,7,-14,-11,-10,5,-2,-2,1
1470242770536924,-10,-6,9,-1,0,1,1,-1
1470242770557942,6,-10,-11,19,4,-1,-1,0
1470242770557942,-6,4,4,-20,-5,-3,-1,-3
1470242770559429,1,-4,2,13,-1,0,-2,-3
1470242770559429,-1,7,-7,-19,-4,-3,-3,-3
1470242770572955,1,-7,-4,3,-6,-1,1,1
1470242770572955,-1,0,-7,4,-2,-2,-2,-1
1470242770574440,-2,23,4,6,-7,-2,-2,0
1470242770574440,5,-11,-8,-2,5,2,1,0
1470242770595460,-13,-1,6,-20,2,2,-1,-4
1470242770595460,0,5,-2,12,5,2,2,0
1470242770596961,-3,-12,-9,-5,-5,0,1,-1
1470242770596961,-6,4,10,3,-4,-1,-2,-2
1470242770617493,9,0,-9,11,0,-1,-3,-3
1470242770617493,-6,-9,-2,-21,-1,1,1,0
1470242770623985,-3,-6,4,0,-4,-2,-1,0
1470242770623985,1,0,-23,-4,-3,-2,0,-1
1470242770633009,4,-2,11,5,-1,-2,-1,-2
1470242770633009,-2,-7,-8,-10,-2,-1,-1,-2
1470242770634496,2,0,5,6,-1,0,-1,1
1470242770634496,-1,0,-1,-7,1,-2,-2,-1
1470242770655541,-2,-3,5,-1,0,2,-1,1
1470242770655541,0,-4,-5,3,-1,-2,-3,-4
1470242770657017,-15,3,-1,-6,-1,-2,1,1
1470242770657017,4,-2,15,4,-1,-3,0,0
1470242770678034,-4,-5,-5,-9,-3,-1,0,1
1470242770678034,-2,-1,-3,1,-1,-1,-2,-3
1470242770679535,-1,-2,-6,-1,-2,-1,-2,-1
1470242770679535,0,-1,4,1,1,-2,1,-1
1470242770692628,6,2,-5,-5,-3,0,-1,3
1470242770692628,5,-1,-3,1,-1,-2,0,0
1470242770699071,-4,-2,-7,-4,1,-1,-3,-1
1470242770699071,-4,-2,8,1,-1,0,-3,-3
1470242770715584,2,-3,-2,-1,-1,0,-1,-6
1470242770715584,-17,-2,-1,2,1,0,0,-1
1470242770717104,3,1,-5,1,-3,-2,-1,0
1470242770717104,-3,-3,-14,-10,-5,-1,-1,-1
1470242770738087,-1,-3,-2,3,1,0,-1,-3
1470242770738087,6,1,-8,-3,3,1,-1,3
1470242770739591,23,-3,-6,0,-2,-2,0,2
1470242770739591,-24,-5,3,-5,-1,-1,-4,-4
1470242770751655,-3,3,2,2,-5,-2,0,1
1470242770751655,-9,-3,-5,1,0,1,-2,-4
1470242770760651,5,1,15,-1,-2,1,2,3
1470242770760651,5,5,-5,2,0,-2,0,5
1470242770775621,0,-6,-4,-6,-2,-2,-1,-3
1470242770775621,-2,1,-2,6,-4,-3,-1,0
1470242770777124,-6,2,3,-2,2,0,1,-4
1470242770777124,-7,-7,10,1,-3,-2,-1,-4
1470242770798141,14,6,4,-3,0,-2,-2,2
1470242770798141,2,1,8,-10,-3,-3,-1,3
1470242770799643,-3,-5,-10,3,-1,-2,-2,-5
1470242770799643,1,5,6,12,3,-1,-4,0
1470242770811691,-4,-3,-2,-16,-3,0,1,1
1470242770811691,-5,-3,0,1,-3,-1,-1,-4
1470242770820662,-8,-5,-4,0,0,-2,0,-3
1470242770820662,-3,0,7,5,0,2,1,4
1470242770835676,-3,-2,-12,0,3,-1,-3,-5
1470242770835676,6,4,-2,-6,-3,-2,-1,1
1470242770837180,-4,-2,5,-3,-1,1,-2,-2
1470242770837180,4,-2,-4,4,-4,-3,-1,-4
1470242770858197,-3,6,0,-3,6,1,1,2
1470242770858197,-5,-3,-1,-2,-4,-2,-1,1
1470242770859698,7,-7,6,1,-3,-3,-3,-2
1470242770859698,4,1,3,-4,0,0,0,1
1470242770879726,2,-1,18,12,-1,0,-2,-1
1470242770879726,-3,-8,-53,-11,1,1,-2,-3
1470242770880215,-9,1,14,-10,-1,0,-1,0
1470242770880215,13,-6,-9,-7,-3,-4,-3,-4
1470242770902737,-2,-2,-8,3,1,-1,-2,1
1470242770902737,-2,-2,16,10,0,-2,-2,0
1470242770903736,2,15,-1,8,1,-1,-1,0
1470242770903736,-10,-3,-10,-14,-2,0,0,0
1470242770917275,6,-1,-2,5,1,0,-1,-2
1470242770917275,-3,-5,8,0,-1,-6,-3,-3
1470242770917749,-2,-6,-9,4,-2,2,2,-2
1470242770917749,3,4,3,2,3,4,-2,0
1470242770939784,0,-5,-1,-7,-5,-7,-4,3
1470242770939784,0,4,12,3,-2,1,7,-1
1470242770940821,-1,-1,-9,-3,-2,-5,-4,-3
1470242770940821,1,-2,0,-2,-3,0,0,1
1470242770954821,-8,-1,-6,-4,-3,-6,-4,-3
1470242770954821,1,-2,3,0,-1,2,-2,0
1470242770955283,3,1,-2,0,0,-2,1,1
1470242770955283,-10,-2,0,1,-1,-3,-4,-4
1470242770977319,-3,0,-9,-4,-3,-3,0,-3
1470242770977319,2,4,25,8,-1,2,-2,0
1470242770977803,-1,-3,-12,-4,-3,1,0,2
1470242770977803,2,-3,-6,-4,-2,-1,0,1
1470242770999823,0,2,1,0,1,-2,-2,-1
1470242770999823,-3,-6,-7,-4,0,-2,-1,-1
1470242771000324,-4,-6,5,-4,-2,2,-1,-2
1470242771000324,-2,-7,-2,1,0,-2,1,-1
1470242771016338,-5,2,0,6,-1,1,1,-5
1470242771016338,-1,-3,1,-2,-2,0,1,0
1470242771016841,-2,4,-7,1,0,-2,-3,0
1470242771016841,-1,-4,-13,-3,-1,-2,-1,-2
1470242771045384,2,-3,9,-5,-3,-1,-1,1
1470242771045384,0,-5,-10,-3,-1,-4,-3,-3
1470242771046365,-18,6,-5,-4,-3,-3,-4,-5
1470242771046365,2,-11,6,-2,-1,-1,-1,0
1470242771059891,-8,17,4,2,1,2,2,2
1470242771059891,2,-5,-25,-10,-2,-1,-2,-4
1470242771060381,3,-2,21,4,3,-3,-2,0
1470242771060381,-3,2,-4,3,-4,1,1,0
1470242771074916,2,1,1,-3,-1,-1,-1,-2
1470242771074916,1,2,3,-4,0,-2,1,0
1470242771075391,1,-13,6,2,-1,0,-1,-3
1470242771075391,0,20,-3,-1,-1,-1,-1,-2
1470242771097496,1,-11,-18,-4,-3,-1,-1,-1
1470242771097496,-2,4,5,1,0,0,-2,-1
1470242771097927,4,-6,-6,-1,0,0,-1,-1
1470242771097927,0,-1,14,2,0,0,-2,0
1470242771119930,-2,-4,0,2,-4,-1,-2,0
1470242771119930,1,1,-5,-2,-2,-1,-1,-1
1470242771120431,1,6,4,1,-1,-2,0,0
1470242771120431,0,-7,-7,-3,-1,-1,-2,0
1470242771134944,-3,-4,-6,-4,1,-2,1,-1
1470242771134944,-3,-1,4,1,-2,-3,-2,1
1470242771135444,2,3,3,-1,1,-1,-2,-2
1470242771135444,-3,-2,-5,-1,-2,-3,-1,-2
1470242771157466,-6,-5,5,3,1,-1,-3,2
1470242771157466,8,0,3,-5,1,2,4,0
1470242771157998,-8,2,-1,0,-1,-3,-1,-1
1470242771157998,-15,1,3,1,-2,-2,-2,-6
1470242771171476,1,-1,1,1,-2,-1,-1,1
1470242771171476,0,1,-5,1,0,-3,-2,1
1470242771179007,5,2,-2,-5,-3,-2,-2,2
1470242771179007,1,-17,-7,-5,-1,-1,0,-1
1470242771194999,-5,2,6,4,-1,-3,-1,-4
1470242771194999,-6,-2,-6,-1,0,0,-1,-3
1470242771195500,1,-3,-3,-2,-1,0,1,-1
1470242771195500,3,0,6,5,0,-1,-1,0
1470242771217518,2,-2,-3,-4,-3,1,-1,1
1470242771217518,-1,-3,-1,-1,0,-1,-1,-1
1470242771218023,0,-2,-8,2,-1,0,0,-1
1470242771218023,2,7,6,2,0,0,-1,1
1470242771240038,1,-4,-4,-5,-2,-1,-1,-2
1470242771240038,-4,1,4,3,-2,0,-3,-2
1470242771240539,1,-2,-4,-2,1,-2,-2,-2
1470242771240539,2,-1,-9,-2,1,-2,-1,0
1470242771255051,-2,-5,5,-4,-2,-1,0,0
1470242771255051,-2,-1,-6,4,1,0,-1,0
1470242771255552,-5,-1,4,-2,-3,0,0,0
1470242771255552,1,-5,-6,-4,-2,-2,-1,-2
1470242771277072,-1,-1,3,-3,-1,-2,-1,-3
1470242771277072,1,10,2,6,1,0,0,-1
1470242771278073,-4,6,1,-5,-1,-1,-2,-2
1470242771278073,0,2,-6,-6,0,0,-1,0
1470242771300592,1,1,3,4,1,1,0,-2
1470242771300592,-3,-4,-4,-5,-3,-1,-2,-2
1470242771301100,0,-2,3,3,1,-1,0,-2
1470242771301100,1,-1,-1,-1,-1,-3,-1,-1
1470242771323114,-2,-5,-16,-5,-2,-1,-2,-1
1470242771323114,-4,-1,7,-1,-2,1,-1,-3
1470242771323613,2,6,-5,2,-2,0,-1,1
1470242771323613,1,0,4,2,0,-1,1,-2
1470242771337697,-3,-7,1,1,-1,-3,-1,-1
1470242771337697,1,7,-3,0,0,-1,0,-1
1470242771338129,3,-4,-5,-4,1,-1,1,-1
1470242771338129,-2,1,12,2,-1,0,0,0
1470242771351638,5,-1,-6,0,-2,1,0,0
1470242771351638,-5,-6,4,-3,-3,-1,-2,-1
1470242771359645,-2,-7,-15,-6,-1,0,-3,1
1470242771359645,-2,3,5,0,-3,-1,-2,0
1470242771374660,7,1,0,2,2,-1,2,1
1470242771374660,4,-7,-7,-3,0,-2,-1,2
1470242771375659,-13,-9,1,0,-1,-2,0,-3
1470242771375659,-1,-5,-5,-5,-3,-1,-3,-3
1470242771397224,-1,4,-2,-6,0,1,-2,-1
1470242771397224,-1,-4,11,4,0,-1,-2,-2
1470242771398180,2,-2,-6,-2,-2,-2,-1,-1
1470242771398180,-2,-2,0,0,-1,0,-2,-2
1470242771411715,-4,4,4,-2,-1,0,-1,-1
1470242771411715,-3,-14,-1,-6,-4,-3,-3,-3
1470242771419702,8,5,5,3,-3,-1,0,-1
1470242771419702,-1,1,-3,-1,-1,-2,1,-3
1470242771434714,4,-1,0,-2,-1,-1,-2,-1
1470242771434714,-6,2,-2,-1,-1,1,-2,-1
1470242771435714,2,-5,-2,1,0,-2,-2,-1
1470242771435714,-2,2,-2,-1,-2,-1,1,0
1470242771457235,-5,0,-9,-1,-1,-1,0,0
1470242771457235,3,-2,6,0,1,-1,-2,0
1470242771458234,-5,-6,-1,-1,-2,2,-1,-2
1470242771458234,-3,-2,-9,-1,1,-1,-1,-2
1470242771480755,-2,-2,-7,-3,-1,0,-1,-1
1470242771480755,5,11,6,2,-2,0,0,0
1470242771481255,-8,4,3,1,0,-2,-1,-1
1470242771481255,3,-3,-3,-1,-2,1,0,0
1470242771494854,-2,4,-4,-3,-2,-2,0,-3
1470242771494854,0,-5,-10,-4,0,-1,-1,-1
1470242771495768,-4,1,4,0,-2,0,1,-1
1470242771495768,0,5,4,0,-1,-2,-2,0
1470242771517305,-3,-1,3,-1,0,0,-1,0
1470242771517305,-7,-5,-5,-2,-1,-2,0,-1
1470242771517790,0,2,0,-3,0,0,-2,1
1470242771517790,-4,-8,-8,-4,0,-1,-1,-1
1470242771540324,4,21,9,5,-1,-1,-1,0
1470242771540324,-5,-13,-1,-2,0,-2,-1,-3
1470242771541311,4,-1,7,3,-1,-1,-1,-1
1470242771541311,0,-2,-1,-1,-1,-3,0,2
1470242771554826,-5,-11,-3,-3,0,0,-2,-1
1470242771554826,0,1,-8,-4,-3,-3,-1,2
1470242771555321,-1,-1,3,1,-2,-1,-1,0
1470242771555321,2,-1,-5,-1,-2,0,-1,-2
1470242771577386,-17,-3,2,0,-2,-1,-1,-2
1470242771577386,0,0,1,3,0,-2,-1,-2
1470242771577886,-1,-9,-7,-6,-2,-1,-3,-2
1470242771577886,-4,-2,3,0,-2,0,-2,-2
1470242771600895,4,-7,-1,-1,-1,-3,0,-1
1470242771600895,-1,1,-12,-2,0,-1,0,-1
1470242771601863,-1,-1,2,-1,1,-2,-3,1
1470242771601863,2,0,-18,-7,-1,-1,-1,-2
1470242771614920,-1,-3,42,12,-2,-1,0,-2
1470242771614920,-5,-2,-14,-1,-6,-1,-1,-2
1470242771615422,2,-1,-5,0,-1,1,2,-2
1470242771615422,-1,0,-4,-3,-1,-1,1,3
1470242771637411,5,0,-8,-7,1,0,0,1
1470242771637411,-2,0,7,0,0,0,-1,-2
1470242771637895,1,-4,-4,0,-1,-2,-2,-2
1470242771637895,-1,1,6,-1,0,-1,-2,-4
1470242771660416,-4,-6,-5,-3,-3,-2,-3,-3
1470242771660416,5,7,3,1,-1,-1,-1,0
1470242771661418,6,12,-9,-5,-1,-2,-2,-1
1470242771661418,-1,5,12,4,0,0,1,-1
1470242771674928,0,-2,-8,-1,-3,-2,-3,1
1470242771674928,-3,-4,0,-2,0,-1,-2,-1
1470242771675429,-3,-6,-3,-4,-1,-3,-1,1
1470242771675429,-1,4,3,-2,-1,-1,-1,-1
1470242771697463,1,-5,-8,0,-1,-2,2,0
1470242771697463,0,1,0,-1,0,-1,0,-1
1470242771697952,-5,-7,0,-3,-1,-1,-1,0
1470242771697952,1,3,0,0,-1,-2,-2,0
1470242771720525,-3,-1,-4,-1,-1,-2,-1,-1
1470242771720525,-2,-5,-1,-2,-1,0,-1,-2
1470242771721470,-2,-5,-4,-1,0,-1,-2,-2
1470242771721470,-1,-4,-1,0,-1,1,-1,0
1470242771734983,-7,-14,-3,-3,-2,0,-3,-4
1470242771734983,1,7,2,0,-2,0,-1,-1
1470242771735518,0,0,1,1,-2,-1,0,-3
1470242771735518,-1,-4,1,-3,-1,-2,-1,0
1470242771757503,-3,-6,-7,-1,1,-2,-1,-1
1470242771757503,3,0,2,3,2,-1,-1,-2
1470242771758020,-3,0,2,0,-1,-1,-3,-2
1470242771758020,-2,-8,-6,1,-2,-1,-1,0
1470242771780606,2,2,-3,-3,-2,-1,0,0
1470242771780606,2,0,-2,-2,-2,-2,-1,-1
1470242771781527,0,0,4,0,2,-2,0,-2
1470242771781527,-4,0,-2,1,-1,1,-2,-1
1470242771795080,-1,-2,-15,-8,-1,0,0,0
1470242771795080,1,-3,12,1,0,0,-1,1
1470242771795540,-3,-2,-4,8,-5,-2,1,0
1470242771795540,-1,-2,4,-2,-2,-1,-2,-1
1470242771817587,2,2,-6,-4,-2,1,0,-2
1470242771817587,-3,-4,-4,-3,-1,-2,-1,-2
1470242771818059,2,2,-4,-2,-1,-2,-1,-1
1470242771818059,-3,0,1,0,0,-2,-1,-3
1470242771840587,2,-6,-5,-1,-1,-1,-2,1
1470242771840587,-3,4,2,-2,-1,0,-1,0
1470242771841078,1,8,5,0,-1,-1,-2,-1
1470242771841078,-1,-7,-11,-2,-2,-1,0,0
1470242771855158,-1,2,9,-2,-1,1,-1,1
1470242771855158,-2,-4,0,5,-3,-1,-1,-3
1470242771855593,2,3,1,-1,0,0,2,0
1470242771855593,-5,-8,-3,-1,-3,0,0,0
1470242771877679,1,0,-3,-2,1,1,0,1
1470242771877679,-6,-4,5,2,-1,-1,-2,-2
1470242771878111,3,-1,-3,-2,-1,0,-2,-1
1470242771878111,1,0,0,-2,-1,0,0,-2
1470242771900631,0,4,0,4,0,-1,-1,-1
1470242771900631,-7,-8,-3,-4,-2,-1,0,1
1470242771901132,-2,-11,-7,-5,-1,-1,-2,-1
1470242771901132,4,6,-4,-1,-1,-2,-1,0
1470242771915186,-2,-12,4,0,-2,0,-1,-1
1470242771915186,7,0,-7,-4,-1,-1,-1,-3
1470242771915667,-6,-7,4,3,-1,-3,-3,1
1470242771915667,-1,6,-3,-1,0,-1,-2,0
1470242771937184,-1,0,-2,-3,-1,0,0,-2
1470242771937184,1,2,-1,1,-1,-2,-2,-3
1470242771938190,-1,2,2,3,-2,2,0,0
1470242771938190,-3,-11,0,-4,2,0,0,1
1470242771960753,-1,5,-2,-1,-2,-4,-2,0
1470242771960753,-6,-5,-4,-2,0,-2,0,-1
1470242771961185,-2,1,-2,-2,-2,-1,0,-2
1470242771961185,-2,-1,3,-1,-1,0,-3,0
1470242771974698,-1,-2,-1,1,-2,1,-1,-2
1470242771974698,-3,-4,-1,0,-1,0,-1,1
1470242771975698,1,-1,-2,-4,-1,1,1,-2
1470242771975698,3,7,-1,0,-3,-1,-1,0
1470242771997220,0,4,0,-1,0,-3,-1,-2
1470242771997220,0,4,19,1,-2,-2,1,-1
1470242771998219,-1,-3,-18,-2,-1,-1,-2,-2
1470242771998219,1,0,2,1,0,-3,0,-2
1470242772020794,-3,1,6,2,-1,0,1,0
1470242772020794,-2,0,-7,-4,0,0,-1,-1
1470242772021267,2,-2,-1,-5,0,-1,-1,0
1470242772021267,-5,-1,0,1,-2,0,-1,-1
1470242772034768,-2,-3,5,0,0,-3,-1,-2
1470242772034768,1,-3,-11,-3,-3,-1,0,1
1470242772035252,0,-6,-12,-3,-1,0,0,-3
1470242772035252,-1,-3,5,0,-1,-1,-3,-2
1470242772057309,-5,-4,-7,-1,-2,0,0,0
1470242772057309,1,-4,-2,0,-1,1,-2,0
1470242772057788,-5,5,1,2,0,-1,-2,0
1470242772057788,0,-2,-5,-2,0,0,0,1
1470242772080793,-1,-7,-3,-3,0,-1,-2,-2
1470242772080793,-4,-1,-4,-4,0,-2,-2,0
1470242772081295,-3,-6,5,-1,0,-2,-2,-3
1470242772081295,0,-1,-3,-2,-2,-3,-1,-2
1470242772094314,0,3,0,2,-1,-1,-3,0
1470242772094314,-1,3,-4,-1,-1,-1,-1,-1
1470242772102327,-2,6,5,-2,-3,1,-1,0
1470242772102327,0,-2,-4,-2,-1,0,-1,-3
1470242772117341,-2,1,-1,-4,0,-2,-1,0
1470242772117341,-2,-1,6,9,-1,0,-2,-3
1470242772117839,-1,-2,-3,-1,0,-3,-2,0
1470242772117839,0,-6,8,1,0,-2,0,3
1470242772140346,0,3,-11,-5,-1,2,-2,0
1470242772140346,1,2,-2,0,-2,0,0,1
1470242772141350,-1,-1,5,0,-1,-1,0,-2
1470242772141350,0,0,-4,-1,-2,-1,0,-2
1470242772153876,-3,-11,5,-2,-1,-1,-1,-2
1470242772153876,0,3,-12,-5,-1,-2,-2,-1
1470242772162409,-1,-6,7,3,-1,0,-1,1
1470242772162409,-3,0,2,1,-1,-2,-1,0
1470242772177475,2,0,-1,0,-2,-1,-1,-4
1470242772177475,-4,-4,-3,2,-1,0,0,-4
1470242772177889,-1,-2,-9,-3,-1,-1,-1,-1
1470242772177889,1,0,-2,-1,-1,-1,-2,1
1470242772207907,0,2,3,3,-2,-2,-2,0
1470242772207907,-3,1,-2,-5,0,-1,0,1
1470242772208925,-7,4,1,3,0,-1,1,-1
1470242772208925,1,2,1,-2,0,1,0,-3
1470242772214412,0,2,4,5,-1,1,-2,1
1470242772214412,0,-1,0,-2,-2,-1,-1,0
1470242772222443,0,-4,-3,-11,-3,0,-1,-3
1470242772222443,-6,-1,-3,-3,-2,-1,-1,-1
1470242772237472,-2,2,-1,0,1,-1,-1,-1
1470242772237472,2,-2,2,1,-1,0,0,-2
1470242772237954,-4,-3,0,-1,0,-1,-1,0
1470242772237954,1,-5,-3,-3,-1,-2,-2,0
1470242772260494,3,4,0,-1,-3,-2,0,-1
1470242772260494,0,1,-2,0,-1,-2,-2,-4
1470242772261455,-2,-2,-6,0,-2,0,-1,-1
1470242772261455,-1,0,0,1,-1,2,-1,-1
1470242772273998,0,2,-1,-6,-3,-3,-1,-1
1470242772273998,-3,-6,0,-4,-2,-1,0,1
1470242772282474,1,0,1,0,0,-1,-1,-2
1470242772282474,-1,0,-3,-3,1,0,0,1
1470242772297487,-2,-2,-2,0,-1,-2,0,-1
1470242772297487,0,-1,1,1,-1,-1,0,0
1470242772297988,0,-1,0,-4,-1,-2,-3,0
1470242772297988,-1,-1,-2,1,-3,-1,0,-2
1470242772320597,-4,-1,-2,-1,0,0,-1,1
1470242772320597,-3,-3,-1,-2,-1,1,-2,0
1470242772321511,3,-1,0,3,-1,-2,-2,-2
1470242772321511,-2,-3,-3,-1,-1,-1,-1,-2
1470242772334045,-2,-2,-2,-1,-2,-1,-1,-1
1470242772334045,3,0,1,-3,-1,0,-2,2
1470242772342551,-4,0,-2,-1,0,0,1,-1
1470242772342551,-1,-4,0,-2,-2,-1,-2,-1
1470242772357541,-4,6,-1,-2,-1,0,0,-3
1470242772357541,-1,-1,-3,-2,-1,-2,0,-4
1470242772358049,1,-6,1,-2,-2,0,-1,0
1470242772358049,-5,4,1,0,-3,-2,-1,-1
1470242772380562,2,-1,-5,1,0,-1,-3,-1
1470242772380562,-3,-2,3,-3,-2,-1,-1,-2
1470242772381063,-1,0,2,2,-1,-1,-1,1
1470242772381063,0,-2,-19,-8,0,0,-2,-2
1470242772394130,-3,-6,18,3,-2,-2,1,-2
1470242772394130,-2,0,-6,2,-3,-3,-2,0
1470242772402610,2,0,-9,-4,0,1,-2,-1
1470242772402610,-2,-6,14,1,-3,-2,-2,-2
1470242772417679,1,4,-15,-8,0,0,-1,-1
1470242772417679,-4,-3,3,-4,-1,-1,0,-1
1470242772418097,-3,-5,-6,3,1,-2,0,-2
1470242772418097,-1,5,10,0,-2,-2,2,-1
1470242772440616,0,-6,-9,0,-1,-1,-1,-1
1470242772440616,-1,-8,5,-1,0,-1,-2,-3
1470242772441117,-1,2,-6,2,-3,-2,0,-2
1470242772441117,-5,-4,-3,-1,-1,-1,0,-3
1470242772463229,1,-2,0,-1,-2,1,0,-1
1470242772463229,1,-1,-5,0,1,0,-2,-1
1470242772463637,-3,-4,0,-7,-1,-2,0,-3
1470242772463637,-2,-1,3,1,0,0,-1,-1
1470242772477193,0,5,-5,1,0,-1,-1,-1
1470242772477193,-1,2,-8,-3,-1,0,0,-2
1470242772478152,-1,1,10,0,-1,0,-2,0
1470242772478152,1,2,-1,3,-1,-3,0,1
1470242772500171,-3,-5,4,-3,-1,-1,-2,1
1470242772500171,-1,-1,0,1,-1,-3,-1,-1
1470242772501171,0,3,-6,-3,-3,-1,-2,-1
1470242772501171,0,-2,-2,0,0,0,-3,0
1470242772523194,0,-1,1,-2,-1,0,1,0
1470242772523194,-3,0,1,-2,-2,-3,-1,-1
1470242772523691,0,1,3,1,-1,-2,-1,-1
1470242772523691,1,-1,-6,-3,-1,0,0,-2
1470242772537222,-4,-3,0,-5,-4,-1,0,-1
1470242772537222,1,-2,-5,-2,0,-1,-1,-2
1470242772538221,-6,-5,16,8,-1,-1,0,0
1470242772538221,2,2,1,-1,0,-2,-2,1
1470242772560725,3,5,-4,1,-1,-2,-1,1
1470242772560725,0,-1,-6,-3,2,-1,0,1
1470242772561267,-2,0,-1,-6,1,-2,-1,1
1470242772561267,-3,-4,-1,0,-1,0,-1,-2
1470242772582800,0,-3,-1,-2,0,0,-1,1
1470242772582800,-1,3,3,-1,-2,1,0,0
1470242772583788,1,0,-4,-3,-3,0,-1,-1
1470242772583788,-1,-2,0,0,-1,0,0,-3
1470242772597259,-6,-10,-1,-3,1,1,-1,1
1470242772597259,2,0,-1,2,-2,0,1,1
1470242772598257,-4,-6,-3,-1,-3,-1,0,-4
1470242772598257,0,-2,-9,-5,0,0,-1,0
1470242772620798,-2,-6,-1,-2,-1,-1,-3,-5
1470242772620798,-4,0,13,11,-3,-1,-1,-2
1470242772621302,-3,-2,-9,-5,-1,-2,-1,-1
1470242772621302,-3,-1,1,-2,0,-1,-1,0
1470242772643300,-1,4,-9,-2,1,-2,-1,-2
1470242772643300,0,0,-3,-4,0,0,0,0
1470242772644801,1,0,2,0,-1,0,0,0
1470242772644801,-2,-1,-5,0,-1,-1,-1,3
1470242772657387,-2,1,4,2,-1,-1,-1,-3
1470242772657387,0,-2,-4,-1,-2,0,-1,-1
1470242772657859,-1,0,-4,0,-2,-1,-1,-2
1470242772657859,-2,-6,-1,-3,-1,-1,1,-1
1470242772680350,0,-1,0,3,-1,-5,-2,0
1470242772680350,-1,-3,-1,-3,-2,-1,-1,-1
1470242772681334,-1,2,-1,-2,0,-1,1,0
1470242772681334,1,3,-1,0,-3,0,-1,-2
1470242772702851,-1,0,-2,0,-3,-2,-2,-1
1470242772702851,1,-3,-3,-2,-1,-1,-2,1
1470242772703852,6,18,0,0,-4,-1,-1,0
1470242772703852,2,-3,1,0,-1,-3,-1,-1
1470242772717381,-2,-3,2,0,-1,1,0,-1
1470242772717381,-4,0,-6,-4,-1,-2,-1,-3
1470242772717883,-1,-11,-1,-1,0,-1,-2,-1
1470242772717883,-2,9,1,0,-1,-2,-1,-2
1470242772740386,0,-1,-3,-1,-2,-1,-1,0
1470242772740386,-1,-2,-2,1,1,-1,-2,-2
1470242772741386,-3,-5,1,-1,-1,-1,0,-2
1470242772741386,-1,-2,-2,-1,-2,-2,-2,-2
1470242772762906,0,-2,-2,-2,0,0,1,-1
1470242772762906,-3,1,-2,-2,-2,-1,-3,-1
1470242772763906,-4,-2,-3,-2,-1,-1,-1,-2
1470242772763906,0,2,-1,-2,0,1,-1,1
1470242772777418,2,1,-2,1,-1,-2,0,-3
1470242772777418,-1,1,3,-1,-3,-1,-1,0
1470242772777919,-2,0,-6,0,0,0,-1,1
1470242772777919,1,1,0,-1,-3,-2,-1,-1
1470242772800442,-8,-1,5,4,1,-3,0,-1
1470242772800442,1,-1,-4,-2,0,-2,-2,0
1470242772801439,-1,-2,0,-3,-2,-1,1,-1
1470242772801439,-2,-3,-2,-2,0,-1,-1,0
1470242772823013,-2,-2,-2,-3,-1,0,-2,-2
1470242772823013,-1,0,3,1,1,-1,-1,-1
1470242772823962,0,-3,-2,3,1,-2,-4,-1
1470242772823962,-1,-6,-1,-3,-2,0,2,0
1470242772837473,1,0,0,-2,-1,0,-1,-1
1470242772837473,0,-1,-3,-3,-1,-2,0,-1
1470242772837974,-2,-3,2,-3,0,-2,-1,0
1470242772837974,0,-1,-1,0,-1,-2,0,-2
1470242772860528,0,-1,-4,-2,-2,0,-1,-1
1470242772860528,-3,-3,7,1,-2,-2,-3,-2
1470242772860994,-1,-1,1,1,-2,-1,0,-1
1470242772860994,-2,1,-4,-5,0,0,-1,-2
1470242772883016,1,1,1,-2,1,2,-2,1
1470242772883016,-3,-1,-1,-4,-2,0,0,1
1470242772883515,-3,-1,7,2,-2,-2,-2,-1
1470242772883515,2,-5,-6,-1,-3,-2,-2,-2
1470242772897526,-4,1,-8,-4,-2,-2,0,-1
1470242772897526,0,-5,-4,-4,1,-2,0,-4
1470242772898027,1,1,-2,-1,-3,0,0,-1
1470242772898027,-1,-2,1,0,1,0,1,0
1470242772920549,0,0,-4,-2,-2,-1,1,1
1470242772920549,-1,0,1,-1,-2,0,-1,-1
1470242772921050,0,-1,-2,-3,0,-1,0,1
1470242772921050,-2,-2,10,6,-2,1,-2,0
1470242772943067,-2,-3,1,-1,-3,0,-2,-3
1470242772943067,2,2,-5,1,0,-1,-1,-1
1470242772943569,-1,-4,-5,-3,-2,-1,-2,-2
1470242772943569,-3,-3,-3,-3,-1,0,-2,0
1470242772957080,0,-2,3,1,-1,0,0,2
1470242772957080,-5,-2,-4,0,-1,0,1,-1
1470242772958081,1,1,-2,-1,0,0,-1,1
1470242772958081,-2,-4,0,-1,-3,-2,-2,0
1470242772980635,0,-4,0,0,-1,0,-1,-2
1470242772980635,-1,1,-3,-2,-2,-2,0,-2
1470242772981107,-1,-2,-1,-1,-1,-1,-2,-2
1470242772981107,-2,0,-1,0,-1,-1,-2,-2
1470242773003121,1,-1,0,-2,-1,-3,0,0
1470242773003121,-2,-1,-10,-3,-1,-1,0,-1
1470242773003621,-4,-4,12,-1,-2,-3,-2,-3
1470242773003621,-4,1,-6,0,0,-3,0,-1
1470242773016692,-1,-3,0,-3,-2,0,-1,-1
1470242773016692,0,-3,-1,0,-2,0,0,-1
1470242773024693,-1,-1,-2,-3,-1,1,-2,0
1470242773024693,2,-3,0,0,-2,1,-1,-1
1470242773040691,-3,-1,1,0,0,-2,0,0
1470242773040691,1,3,2,0,-1,0,-2,-2
1470242773041158,0,-1,-6,-1,-1,0,-2,0
1470242773041158,-1,0,-2,-1,-3,-1,0,2
1470242773063175,0,-1,-2,0,0,-1,1,-4
1470242773063175,0,-1,2,1,-1,-1,1,-1
1470242773063689,-2,-1,-3,0,-1,0,-1,-3
1470242773063689,-2,-2,-2,-3,-2,-2,-3,-3
1470242773076731,1,4,-2,-3,0,-2,-1,1
1470242773076731,-3,-3,9,1,-1,1,0,-1
1470242773084744,-2,-8,-13,-3,-1,-1,-1,0
1470242773084744,2,0,5,2,-1,-1,0,-1
1470242773100242,-3,-2,0,1,-3,0,-1,3
1470242773100242,3,4,1,-1,-1,-1,-2,-1
1470242773101245,1,1,-1,-1,-2,-1,-2,0
1470242773101245,-4,-1,-2,0,0,-2,-1,-5
1470242773123229,0,0,-1,-3,-1,-1,-3,-1
1470242773123229,-2,-2,-1,-2,0,-2,-1,0
1470242773123730,2,1,0,-1,1,0,0,-1
1470242773123730,-1,1,-4,-3,0,0,-1,0
1470242773136741,-4,0,1,0,-1,-1,0,-2
1470242773136741,-1,-5,-9,-3,-2,-1,0,0
1470242773144748,-2,3,5,3,0,-2,0,1
1470242773144748,-3,-4,-1,-1,-2,1,-2,-2
1470242773160263,1,2,-3,-2,-1,-2,-1,0
1470242773160263,-2,-2,-2,2,1,0,-2,-2
1470242773161264,0,2,-1,-3,-1,0,0,1
1470242773161264,-1,-2,-5,-1,-1,-1,-1,-1
1470242773183283,0,-1,3,1,-1,-1,-2,2
1470242773183283,0,-3,12,-1,-2,-3,-2,-1
1470242773183785,-4,-5,-7,-1,-1,0,0,-3
1470242773183785,3,7,0,-4,-3,-1,-1,-1
1470242773196795,-1,-2,-3,-3,-2,-1,-3,0
1470242773196795,-1,4,-3,-4,-2,-1,-2,-1
1470242773204818,1,-3,3,1,-1,-1,-1,-2
1470242773204818,-5,-1,-2,-1,0,-1,0,-1
1470242773220816,0,-2,-4,-4,-1,-2,-2,-2
1470242773220816,1,-2,-2,2,-2,-1,0,-1
1470242773221317,0,1,4,2,2,-1,-1,0
1470242773221317,-4,-2,-7,0,-1,-1,-2,-1
1470242773242867,-2,-2,11,3,-2,-1,-1,0
1470242773242867,-2,-3,16,9,-3,-2,-1,-1
1470242773243840,-1,0,-33,-13,-1,-1,-1,0
1470242773243840,-1,0,12,2,-1,-2,-2,-1
1470242773256849,1,0,-21,-5,3,2,0,1
1470242773256849,-4,-2,12,-4,-1,-1,0,2
1470242773264914,-3,2,-5,1,-2,-3,-4,-2
1470242773264914,-1,-2,5,-3,-2,0,-1,-1
1470242773280887,-3,0,-4,-1,-3,-1,-2,-2
1470242773280887,-2,2,-6,-3,1,-1,0,1
1470242773281371,0,-2,4,-1,-2,-1,0,1
1470242773281371,2,0,-7,2,1,1,-1,0
1470242773302978,-2,-3,-1,-2,-3,-2,2,-6
1470242773302978,-2,-1,-6,-2,0,0,-1,-1
1470242773303891,-2,0,2,2,-4,-2,0,-2
1470242773303891,-2,-2,1,-1,1,-2,0,0
1470242773316933,-2,-2,1,-2,-2,-1,-1,-1
1470242773316933,0,0,-9,-3,0,-2,1,-1
1470242773325415,0,7,2,1,-1,-1,0,-1
1470242773325415,1,1,0,-3,-2,-1,-4,-1
1470242773339952,-4,-1,2,0,-2,0,-1,0
1470242773339952,4,-2,-7,-1,-2,1,0,-2
1470242773347025,-2,-2,5,-1,-1,-1,-2,-1
1470242773347025,-5,-5,1,-6,-1,-2,0,-2
1470242773362950,-2,-1,8,5,-3,-3,-1,-3
1470242773362950,-1,-2,-9,-3,-2,1,0,0
1470242773364446,-2,-3,0,-4,-2,1,-2,-1
1470242773364446,1,1,-4,0,0,0,-1,-2
1470242773385465,-4,-5,-3,-2,0,0,-2,0
1470242773385465,-4,0,0,0,-1,-3,0,-1
1470242773386968,-1,-2,2,-2,-3,-1,0,-2
1470242773386968,1,0,-2,-1,0,-1,0,0
1470242773399977,0,0,2,-3,0,0,-1,-1
1470242773399977,-3,-1,-1,1,-2,0,-3,-1
1470242773406499,-1,1,0,1,2,-1,1,-3
1470242773406499,-6,-3,-4,-2,-2,-2,0,-1
1470242773423042,0,1,-4,1,-2,-1,-1,-3
1470242773423042,-2,-4,-5,-5,-1,-2,-1,-1
1470242773424504,-1,-3,3,-1,0,-3,-1,3
1470242773424504,-1,-2,3,-1,-3,-1,1,-2
1470242773445521,-4,-3,-7,-1,0,-1,-1,-1
1470242773445521,3,3,-2,-3,1,-1,-2,-3
1470242773447020,-1,-5,0,-1,-1,0,0,-1
1470242773447020,-1,2,0,-3,0,-2,-1,-1
1470242773460153,1,3,7,0,-1,-1,0,0
1470242773460153,-3,-2,5,4,-2,-1,-2,-1
1470242773466538,-2,-2,-5,-3,-1,1,-1,-2
1470242773466538,0,-1,-3,1,-1,-1,-1,0
1470242773483071,1,-1,0,0,-1,-2,-3,-2
1470242773483071,0,-3,-5,-2,-1,-1,-2,-2
1470242773484553,-2,2,5,-1,-1,0,-2,0
1470242773484553,2,-8,-13,-4,0,0,-1,-1
1470242773505618,-2,1,7,3,-2,-1,0,-2
1470242773505618,-2,-1,0,-1,-3,-1,-1,1
1470242773511619,1,3,-2,-1,-2,-2,-2,0
1470242773511619,1,0,-1,-3,-1,0,-1,-1
1470242773520171,-1,-2,2,0,-1,1,0,-1
1470242773520171,-1,1,-3,-2,0,0,0,-2
1470242773526650,-1,-2,-1,-2,0,-1,1,-1
1470242773526650,-4,0,0,0,0,-1,-1,-1
1470242773543162,1,-5,-5,-5,0,-1,-2,-1
1470242773543162,2,7,-3,0,1,0,-1,-1
1470242773544650,-2,-3,2,0,-1,-1,-2,-2
1470242773544650,-2,5,2,3,-3,-1,-1,0
1470242773565626,0,-3,-2,1,-2,-1,-1,-2
1470242773565626,-1,-1,1,-2,-1,-1,-2,-3
1470242773567130,1,-4,-13,-7,-2,0,1,0
1470242773567130,0,-1,5,2,0,-2,-3,-1
1470242773579640,-3,0,-3,-1,-1,0,-3,0
1470242773579640,-2,-4,0,-4,0,1,-1,-2
1470242773586670,-1,1,7,3,-2,-3,-3,-2
1470242773586670,-2,-5,-6,0,-1,-2,0,0
1470242773602660,0,-1,-11,-2,-1,-2,-1,1
1470242773602660,-6,-3,6,-2,-1,-2,1,0
1470242773604662,-1,0,4,1,0,-1,-1,-3
1470242773604662,-3,0,7,-3,-2,-1,0,-1
1470242773625707,-2,-2,-19,-6,-2,-2,-2,0
1470242773625707,1,-3,7,1,-1,0,-1,-2
1470242773627224,-3,0,-6,-3,-2,-3,-2,0
1470242773627224,-1,-1,2,-1,-1,0,0,-1
1470242773639693,0,2,1,2,-2,-2,-1,0
1470242773639693,0,-6,-5,-3,-1,-2,-1,1
1470242773646701,2,-1,-5,-2,0,-1,-1,0
1470242773646701,-2,-2,1,-1,1,0,0,0
1470242773662714,1,-2,8,3,0,1,-2,-2
1470242773662714,-3,1,0,0,-3,-2,1,-2
1470242773664717,-4,-1,-8,-2,0,0,1,0
1470242773664717,-2,0,-4,2,-1,1,0,-2
1470242773685734,-2,0,-1,-1,0,1,-1,-2
1470242773685734,-1,0,-1,-3,1,1,-1,-1
1470242773687278,0,-1,-5,-4,-1,0,0,0
1470242773687278,1,-2,-5,-3,1,-3,-2,0
1470242773699770,-3,-4,6,0,-2,0,1,-2
1470242773699770,-2,-2,-6,-1,-2,-3,-1,0
1470242773706844,-1,5,-2,2,-1,-1,-2,1
1470242773706844,-2,-2,-1,-1,-3,0,-1,-2
1470242773723268,-1,-2,1,-2,0,0,0,-2
1470242773723268,0,1,-2,0,-1,0,-1,-1
1470242773724796,-2,-4,4,0,-1,0,0,-2
1470242773724796,1,2,1,-1,-1,1,-1,-2
1470242773745331,2,0,-7,-6,-2,-2,-1,0
1470242773745331,0,-1,2,-1,0,-2,-2,-1
1470242773746831,-3,-1,0,2,-1,-2,-1,-3
1470242773746831,-3,0,-2,-1,1,-1,-1,-1
1470242773759845,-1,0,2,-3,-1,-2,-1,-2
1470242773759845,-4,2,-6,-4,-1,0,-2,-1
1470242773766807,-2,-4,3,0,-2,-1,0,-1
1470242773766807,-1,-1,2,0,-1,0,-1,-2
1470242773790328,0,3,-6,0,1,-2,-1,-2
1470242773790328,-1,-1,-3,-1,0,-1,-3,-3
1470242773792330,1,-1,1,-1,0,-1,-1,-2
1470242773792330,0,-1,-4,-3,-2,-2,0,-2
1470242773805343,-4,-2,1,-2,-2,-2,-2,-2
1470242773805343,-5,-6,-9,-5,-3,-1,-1,2
1470242773807343,-2,-2,18,6,-2,0,-2,-3
1470242773807343,-3,-1,-1,0,0,-1,-1,0
1470242773819869,-2,-3,-1,-3,-1,1,0,1
1470242773819869,1,-2,-1,-1,-1,0,-3,-3
1470242773826976,-1,-2,-6,-4,2,-1,-2,-1
1470242773826976,-2,-3,0,-1,-2,-2,0,-2
1470242773842931,-1,0,3,1,0,-2,0,1
1470242773842931,0,1,-3,1,1,-3,0,-1
1470242773844877,0,-2,-3,-1,-1,-1,-2,0
1470242773844877,1,-3,0,-3,-2,0,-2,-3
1470242773865441,-1,0,-5,3,-2,-3,-3,-4
1470242773865441,-1,-1,0,0,-1,-1,1,0
1470242773867397,1,-2,2,-1,0,1,-1,-1
1470242773867397,0,1,-3,-1,-1,-1,-2,-1
1470242773879408,-2,-2,-3,-4,0,0,0,0
1470242773879408,-2,0,2,1,-3,-1,-2,1
1470242773887916,1,-1,-5,-1,-1,-1,-1,1
1470242773887916,-2,0,-6,-3,-1,-1,1,1
1470242773902974,-3,-8,1,0,-1,-2,-1,-4
1470242773902974,1,3,1,-1,-1,-1,1,1
1470242773904433,-1,-1,-5,-3,0,-1,0,-4
1470242773904433,-2,-2,3,2,-1,-2,-1,1
1470242773925506,-1,-2,-1,-1,-1,0,-1,-2
1470242773925506,-4,0,-5,-2,-1,-1,0,-2
1470242773927470,0,-1,-1,-1,-2,1,0,0
1470242773927470,2,-1,-1,-2,-2,-1,-1,1
1470242773939475,-1,2,1,0,-3,0,-2,-1
1470242773939475,-2,-8,-3,0,-1,0,-3,-4
1470242773947971,0,3,1,-1,-1,0,-1,0
1470242773947971,-3,0,2,0,-1,-1,0,-2
1470242773962985,2,0,-6,0,-2,1,0,-1
1470242773962985,-3,-3,4,-2,-1,0,-1,0
1470242773964537,-3,-2,0,0,-1,-3,-1,-2
1470242773964537,2,0,-3,4,-1,-3,0,-3
1470242773985593,-4,-2,0,-2,-1,-1,-2,-1
1470242773985593,0,-1,-7,-2,0,-1,0,-2
1470242773987004,-1,-1,-2,-1,1,-1,-1,-1
1470242773987004,0,-1,-4,-2,0,0,-2,-1
1470242773999033,-2,1,-3,-2,-2,-1,1,-1
1470242773999033,0,0,1,-2,-2,0,-1,0
1470242774008024,4,9,-2,0,0,-2,0,-1
1470242774008024,-2,-2,-3,-2,0,-1,-1,-1
1470242774023037,-3,1,12,1,-2,-2,-1,-1
1470242774023037,1,4,-1,5,-1,-1,-1,0
1470242774024539,-6,-6,-1,-4,-2,-2,-3,-2
1470242774024539,-4,-2,-4,-4,-5,-1,-2,-2
1470242774045575,1,-3,2,1,1,-1,-1,-1
1470242774045575,1,5,-2,-1,0,1,2,1
1470242774047059,-1,-1,-2,1,-3,-1,-2,0
1470242774047059,0,-1,3,-3,0,-2,0,1
1470242774059101,1,-1,13,6,0,-3,0,0
1470242774059101,-4,-3,-6,1,-3,-3,-2,-1
1470242774068097,-1,-5,-1,-5,-1,0,1,0
1470242774068097,1,-3,-13,-5,-1,-1,0,-3
1470242774083093,-2,-1,4,-1,-2,1,-1,1
1470242774083093,-1,0,2,2,1,-1,0,-1
1470242774084592,-2,-2,1,-1,-4,-2,-1,-2
1470242774084592,-1,0,-2,-1,-1,-1,-2,-1
1470242774105624,-2,-3,-4,-3,0,-2,0,-2
1470242774105624,-2,-5,2,-2,-1,-1,-2,0
1470242774107112,-2,-6,-9,-2,-1,0,-1,-2
1470242774107112,-1,3,3,3,1,0,1,1
1470242774119166,0,1,-6,-4,-3,1,-1,-1
1470242774119166,3,-2,-11,-3,-1,-1,-3,-1
1470242774128179,-4,-3,10,6,-2,-2,-1,0
1470242774128179,-5,-3,-2,-1,-2,0,0,-2
1470242774143145,-2,-4,-1,1,-1,-2,-2,1
1470242774143145,-1,-1,-3,-3,-2,-1,1,-1
1470242774144684,0,1,-2,-2,-2,-2,-1,-1
1470242774144684,-3,0,1,-1,-1,0,-1,-2
1470242774165705,2,0,-8,-2,1,-2,-1,1
1470242774165705,-2,-3,4,-3,-3,-3,0,-2
1470242774167207,1,-2,-2,-4,-1,-1,-1,2
1470242774167207,2,-1,8,4,-1,-1,-2,-4
1470242774179194,-2,2,-7,-2,0,-2,-1,-1
1470242774179194,-2,-2,-5,-5,-3,1,-3,-4
1470242774188185,2,-2,-5,-1,-1,0,-1,-4
1470242774188185,-4,-2,0,-1,-3,-1,-1,1
1470242774202198,-1,1,-3,-2,-2,-1,-1,-2
1470242774202198,-2,-3,2,1,-1,-2,-1,-2
1470242774210706,-1,1,-6,-3,-2,-2,-1,-1
1470242774210706,0,-4,4,-2,0,-1,-1,0
1470242774225718,0,1,-2,0,-1,0,0,-3
1470242774225718,-2,-4,7,1,1,-2,-1,0
1470242774227287,-2,3,-9,-1,0,0,1,-1
1470242774227287,0,0,0,-1,-1,-2,-2,-1
1470242774239231,0,-1,-13,-5,-2,-2,-3,1
1470242774239231,-2,0,3,-1,0,-2,-2,-1
1470242774248240,1,1,0,1,2,-2,-2,0
1470242774248240,-2,0,-7,-3,-2,-1,1,0
1470242774262286,-2,-7,6,-1,-1,-1,1,-1
1470242774262286,-2,4,-4,0,-3,-1,-2,-1
1470242774269342,-2,-3,0,1,-2,-2,-2,-1
1470242774269342,3,1,-2,-1,1,-1,-2,-1
1470242774285773,-5,-1,-2,-3,-1,1,-1,-3
1470242774285773,-1,1,0,-2,-1,-1,0,1
1470242774287296,-3,-3,4,-2,-2,-2,-1,-1
1470242774287296,-1,-3,4,5,-3,0,-1,-1
1470242774299325,-1,0,-5,-3,-1,-3,0,-4
1470242774299325,0,-1,7,-2,0,0,-1,-1
1470242774315802,2,5,-14,-3,-1,-2,-2,-1
1470242774315802,-2,-1,1,-3,-1,0,0,-2
1470242774323316,-1,-3,5,1,-1,-3,-3,0
1470242774323316,1,0,-13,-3,-3,-2,-1,-1
1470242774324829,-2,-6,7,-1,1,-1,-1,-2
1470242774324829,-1,5,-4,2,1,-2,-2,0
1470242774345840,2,0,-2,0,0,1,-1,0
1470242774345840,-1,-3,2,1,0,0,1,-2
1470242774347327,-2,-2,-3,-1,-2,-2,-1,0
1470242774347327,-1,-2,0,-2,-2,-2,-1,-1
1470242774368403,0,1,-1,0,0,1,0,-3
1470242774368403,0,-3,1,-3,0,1,-2,-1
1470242774369851,-3,-1,4,0,-4,-1,-1,-1
1470242774369851,1,-1,-7,-3,-1,-1,-1,0
1470242774382876,-2,-2,8,-1,0,-2,-2,0
1470242774382876,-3,-1,0,0,-2,-1,-2,-2
1470242774384862,1,1,3,2,-1,1,-2,-1
1470242774384862,-3,-5,-11,-4,-2,-2,-2,-1
1470242774405436,0,0,-4,-1,-1,-1,-1,-2
1470242774405436,0,-4,1,-3,0,-2,1,-3
1470242774407408,-3,1,-1,-1,0,0,0,0
1470242774407408,1,1,-7,-3,0,0,-1,-2
1470242774427902,-3,-10,2,-2,-2,0,0,1
1470242774427902,2,3,-4,0,0,-2,-3,-1
1470242774429902,0,-1,-1,-2,1,0,1,0
1470242774429902,-4,-2,17,6,-3,-2,-2,-1
1470242774442942,0,1,-24,-8,-2,-3,-1,2
1470242774442942,-2,-3,2,2,-2,-1,0,0
1470242774444415,-4,1,-4,-3,-2,-1,-2,0
1470242774444415,1,1,6,0,2,1,0,0
1470242774465435,-2,3,-7,2,0,-1,0,-3
1470242774465435,-1,0,1,-3,-2,0,1,0
1470242774466936,-3,-2,-3,-3,0,1,-1,-2
1470242774466936,2,-2,8,-1,0,-1,-1,-1
1470242774487973,0,0,-23,-8,-4,1,-1,-2
1470242774487973,-1,-2,10,1,0,-1,-1,-2
1470242774489456,0,-3,4,5,-1,-2,-3,-2
1470242774489456,-6,-2,4,-2,-2,-2,0,0
1470242774502477,-1,1,5,-1,0,-2,-1,-3
1470242774502477,-1,0,-10,-5,-1,1,-1,-3
1470242774509473,-4,-6,-7,-4,-2,1,-1,-2
1470242774509473,-3,0,-6,-2,-2,0,0,0
1470242774525488,-1,-1,11,-2,-2,-1,-1,0
1470242774525488,0,-2,-2,3,-1,-2,-1,-1
1470242774526990,-2,-1,-13,-6,-1,-2,-1,0
1470242774526990,-2,-3,-5,-1,-2,-1,-2,-2
1470242774548064,-2,-4,12,4,0,-1,0,-2
1470242774548064,-3,-2,-6,-3,-1,-1,-1,-2
1470242774550029,-1,-2,14,-2,-1,0,-1,-2
1470242774550029,-1,-5,-8,1,-2,-3,-3,0
1470242774562023,0,1,5,3,-2,-2,-3,-1
1470242774562023,0,-1,-3,-2,0,-1,0,1
1470242774569047,1,0,6,-1,-1,0,0,-3
1470242774569047,0,-2,-17,-8,1,-1,-1,0
1470242774585577,-5,-2,11,7,-2,1,-2,-2
1470242774585577,-2,0,-11,-4,0,1,-1,-3
1470242774587056,3,3,9,3,-2,-1,-2,-1
1470242774587056,3,-1,-1,-2,-2,0,0,-2
1470242774608062,-1,0,-4,-2,-1,-1,0,1
1470242774608062,2,-3,-4,-3,-1,-2,-1,2
1470242774609565,-1,-1,0,0,-2,-1,1,-2
1470242774609565,0,-1,-2,0,-2,-1,0,-2
1470242774622682,0,5,-2,-2,-1,0,-1,-1
1470242774622682,-1,-2,-7,-5,-2,-2,-2,0
1470242774629081,-3,-1,3,4,1,-3,-1,-2
1470242774629081,-1,-1,-5,-2,-2,0,-1,-2
1470242774645597,3,-2,-1,-1,1,-1,-1,-1
1470242774645597,-2,-2,3,-2,-3,-1,0,0
1470242774647098,-3,1,-8,-2,-2,-1,0,-1
1470242774647098,-2,-2,1,-2,-2,-3,-2,-2
1470242774668123,1,-2,-5,-2,1,-1,-1,1
1470242774668123,-1,-2,5,0,-1,-2,-2,0
1470242774669634,-1,9,8,4,0,0,-1,-1
1470242774669634,-1,1,0,0,-1,0,-1,-1
1470242774682669,-3,-3,2,-3,-3,-1,0,-1
1470242774682669,-2,-2,-13,-1,0,-1,-2,-2
1470242774689158,2,-2,-7,-2,0,-2,-2,-2
1470242774689158,-2,-1,0,-1,0,0,-1,-2
1470242774705713,-4,-1,5,2,-4,-2,0,-1
1470242774705713,-1,1,-1,1,-2,-2,1,-1
1470242774707184,-3,-5,-3,-3,-1,0,-2,0
1470242774707184,1,-1,-4,-2,-1,0,-2,1
1470242774728170,-2,-2,-2,-2,-1,-4,-1,1
1470242774728170,0,5,9,3,-1,0,-1,-1
1470242774729672,-2,-4,-5,-5,-1,-2,-1,1
1470242774729672,-2,0,-3,1,-1,-2,0,-1
1470242774742796,2,-2,2,-1,-1,-1,-1,0
1470242774742796,-4,-2,5,2,0,0,-2,-3
1470242774749208,-1,-2,-6,-3,-2,-2,0,-3
1470242774749208,1,-1,2,-2,0,-1,0,-1
1470242774765704,0,0,1,0,1,0,-2,-1
1470242774765704,0,0,-11,-4,0,-1,-2,0
1470242774767205,-1,-3,1,2,-1,-2,0,1
1470242774767205,1,-2,3,1,0,-1,0,-1
1470242774788223,1,-1,-2,-3,0,0,-1,-1
1470242774788223,0,-1,5,-4,-1,-1,-1,0
1470242774789726,3,0,-5,-1,0,-2,1,1
1470242774789726,-5,-2,-2,-1,-1,-2,-1,0
1470242774802254,-3,-1,-7,-5,-2,-1,-1,0
1470242774802254,-1,0,1,1,-1,-1,-2,-1
1470242774809335,-4,-4,6,0,-2,-1,-1,-3
1470242774809335,0,1,-2,-4,0,0,0,-1
1470242774825758,-3,-7,-2,-1,-1,-1,0,-2
1470242774825758,2,-4,-2,-1,-1,0,-2,-2
1470242774827259,1,7,-1,-3,-1,0,-1,-1
1470242774827259,-6,-1,-13,-3,-2,-1,-2,-1
1470242774848279,-1,1,3,3,-2,0,-2,-4
1470242774848279,-3,-2,-1,0,0,-1,1,1
1470242774849834,-4,-5,-1,-1,-2,-1,0,-1
1470242774849834,2,-2,-1,-1,-2,-1,-2,0
1470242774861790,-3,2,-5,-1,-1,0,0,-3
1470242774861790,-3,1,6,-1,0,-1,-1,-2
1470242774870798,-3,-3,0,-1,1,1,-1,-1
1470242774870798,-1,1,-6,-1,0,-2,1,-4
1470242774885312,-2,0,1,-1,0,-2,-2,0
1470242774885312,-4,-1,-2,-3,-1,0,-2,1
1470242774887313,-1,-3,4,1,-1,-3,-3,-1
1470242774887313,1,-3,-2,-2,-3,-2,-1,0
1470242774908403,-1,1,-1,-1,-2,-1,-1,-2
