timestamp,emg1,emg2,emg3,emg4,emg5,emg6,emg7,emg8
1472088305997919,-1,-4,13,-1,0,-3,0,-1
1472088305997919,-2,-1,-23,-5,-2,-4,-1,0
1472088305999921,0,-1,0,0,0,0,-1,1
1472088305999921,-6,-17,-7,-5,0,0,-1,-3
1472088306000921,1,12,4,-1,0,-3,0,2
1472088306000921,-1,-16,26,3,-1,1,0,-3
1472088306001923,0,12,-24,-7,-4,-4,-2,-1
1472088306001923,0,13,15,2,1,-2,0,1
1472088306010944,-1,1,-7,1,-4,-1,-2,-4
1472088306010944,-2,-8,-23,-5,0,-1,-2,0
1472088306016950,0,-9,12,-4,-1,0,1,-2
1472088306016950,0,7,12,6,-3,-2,-2,-3
1472088306028472,1,18,3,1,-1,-1,0,1
1472088306028472,0,8,9,-3,-1,-1,1,-1
1472088306040495,-2,-4,-31,-4,-1,-2,-2,-1
1472088306040495,-2,-5,-7,-3,-1,2,-3,0
1472088306048502,-1,-9,-3,-2,0,0,-1,-2
1472088306048502,-2,10,2,5,0,-2,-2,-3
1472088306063516,-1,-3,6,-3,1,-1,-1,1
1472088306063516,-2,-3,-20,-1,-1,-2,0,-1
1472088306071023,-1,-4,11,-2,0,-2,-1,1
1472088306071023,3,3,6,-9,-2,-1,0,-2
1472088306085546,-3,-27,-16,5,1,0,-2,-1
1472088306085546,1,-1,3,3,0,0,-1,0
1472088306125595,-1,-7,14,4,-1,0,0,0
1472088306125595,0,-12,-14,-2,1,-1,0,1
1472088306127096,-1,-2,6,-2,-2,-2,-1,0
1472088306127096,0,-2,-1,4,0,2,0,-2
1472088306130099,-2,-2,-7,-6,-1,0,0,0
1472088306130099,-4,-18,9,1,-2,-4,1,0
1472088306130599,2,5,-6,1,2,1,-2,-3
1472088306130599,-3,-7,11,-2,-3,-1,-2,-3
1472088306137106,1,7,-1,-3,2,-2,1,0
1472088306137106,1,6,4,-1,-2,4,-3,-2
1472088306146128,-1,0,-11,-1,0,-2,1,-1
1472088306146128,2,13,0,-1,1,-3,0,3
1472088306152143,-4,-17,-1,3,-2,-2,-2,-1
1472088306152143,0,11,3,-3,-1,0,-2,-1
1472088306168659,0,0,7,1,-3,-4,0,-2
1472088306168659,-4,-9,-21,-10,-1,-3,-1,-1
1472088306174664,2,3,-12,-2,-1,1,0,-2
1472088306174664,-1,8,33,2,-2,0,-1,-2
1472088306197693,-2,-14,-11,-8,-1,-4,-2,1
1472088306197693,0,2,10,7,-4,0,-1,-1
1472088306198195,-3,0,-16,-4,1,0,1,0
1472088306198195,-1,-2,-2,-3,-2,-2,-1,-1
1472088306212723,0,9,8,-1,-3,0,-3,0
1472088306212723,-2,-7,6,2,1,0,-2,0
1472088306213224,1,5,3,2,-3,0,-3,0
1472088306213224,-1,12,-5,-1,0,0,0,-1
1472088306235258,-1,-7,23,4,1,2,1,-1
1472088306235258,-1,-21,-49,-4,-2,-2,1,-2
1472088306235759,-4,-7,0,-5,-1,-3,0,-4
1472088306235759,0,-1,4,-5,-3,-1,-2,0
1472088306257802,-1,7,16,4,-1,-2,-2,-4
1472088306257802,1,-1,4,1,-1,-2,-1,0
1472088306258303,3,0,-7,0,1,1,-1,1
1472088306258303,-2,-16,-4,-1,-1,-1,-1,-3
1472088306272816,-2,16,-8,-5,-2,0,-1,0
1472088306272816,-1,-9,0,3,0,-3,-1,-2
1472088306273317,1,20,-1,-3,-2,-2,-4,-1
1472088306273317,-3,-4,-11,0,1,-2,1,3
1472088306295358,-1,-9,7,0,-2,0,-2,0
1472088306295358,-1,7,-25,-5,-1,0,-2,-5
1472088306295860,2,5,14,1,2,-3,-1,-1
1472088306295860,-4,-25,-9,1,-1,-1,0,-5
1472088306317395,1,10,-5,-2,-2,0,-2,-1
1472088306317395,-4,-12,-7,-2,-1,-3,-3,0
1472088306318396,0,-1,15,2,-2,-2,0,-1
1472088306318396,-1,28,-12,-3,-3,-3,-1,0
1472088306332423,1,-6,5,-1,1,1,1,-1
1472088306332423,-1,-1,5,-1,-1,-2,0,-1
1472088306333424,-2,-4,16,3,-2,-2,-2,1
1472088306333424,2,-2,-22,-1,0,1,-2,0
1472088306354954,-4,-14,-13,0,0,-1,0,1
1472088306354954,3,46,17,-3,-2,1,0,0
1472088306355955,-3,-22,10,-1,-3,-2,2,-1
1472088306355955,0,5,-28,0,-1,-3,-1,-2
1472088306377474,-3,-14,-10,-1,1,-1,0,-1
1472088306377474,2,6,21,5,0,1,-2,-2
1472088306378475,-4,-2,-20,-2,-1,-1,-1,1
1472088306378475,0,-3,7,-5,0,0,-1,-1
1472088306392507,-4,16,-3,-2,-4,-1,0,-2
1472088306392507,2,-14,11,2,0,1,1,2
1472088306393514,0,-1,-21,-4,-4,-2,-2,-4
1472088306393514,0,-5,7,1,-1,-1,-2,2
1472088306415045,2,-1,-13,3,0,1,-1,0
1472088306415045,-4,-5,13,-3,-1,1,0,0
1472088306416047,-4,3,12,-3,-1,-2,-3,-2
1472088306416047,-1,3,10,6,-1,0,-1,1
1472088306437583,1,-4,-6,-2,-1,-1,0,-3
1472088306437583,-1,-1,-15,-6,-2,-2,0,-1
1472088306438584,0,7,-4,4,-2,2,-1,1
1472088306438584,-3,-4,-13,-5,0,-2,-1,-3
1472088306452597,-1,1,21,5,-1,0,-1,0
1472088306452597,-1,1,-4,-5,-1,-1,-1,-1
1472088306453605,-3,-6,-2,0,0,2,-1,-2
1472088306453605,0,4,14,1,1,0,0,1
1472088306475131,-3,-11,-19,-2,-2,-3,-2,-2
1472088306475131,-1,-5,20,2,1,0,0,-1
1472088306476131,-1,5,-20,-3,-2,-1,-1,-1
1472088306476131,1,2,7,1,0,-1,-1,-2
1472088306497675,0,1,8,-1,0,-1,-1,0
1472088306497675,-3,1,7,-3,-3,-3,-3,-2
1472088306498675,1,2,14,1,0,1,0,1
1472088306498675,-2,-8,-13,-1,-1,-1,0,1
1472088306511703,1,3,8,0,-3,-2,-2,-2
1472088306511703,-3,-16,-10,-1,-2,-1,-2,0
1472088306520210,0,-4,-1,-1,-1,-3,-2,-2
1472088306520210,-2,0,1,-8,-3,1,-1,-2
1472088306535247,-3,-8,-14,-4,-1,0,-1,-1
1472088306535247,-1,2,2,1,1,-1,-1,-1
1472088306535748,2,-5,-2,3,-2,-1,-2,1
1472088306535748,-5,-2,0,-7,0,-1,-1,-4
1472088306557466,-3,-8,-2,-1,-1,-1,1,-2
1472088306557466,0,-5,-6,-2,-3,-1,0,1
1472088306558467,0,0,7,0,-1,0,-1,-2
1472088306558467,2,14,5,7,-1,-1,-1,-1
1472088306571980,-3,-15,-2,-8,-3,-4,-2,-3
1472088306571980,1,3,13,0,-1,0,0,0
1472088306579987,-6,8,-12,0,1,0,-1,1
1472088306579987,-1,-14,-3,-1,-4,0,-1,0
1472088306594910,-1,13,2,-1,1,0,-2,-1
1472088306594910,-1,-11,-5,0,-1,-1,-3,-3
1472088306595912,1,4,9,-1,1,0,0,0
1472088306595912,-1,-18,-17,-4,0,-2,-1,-1
1472088306617454,-2,-3,9,1,-2,-1,-1,1
1472088306617454,3,4,-1,3,1,0,0,1
1472088306618456,0,-2,9,-4,-1,0,-1,-4
1472088306618456,0,-3,-24,2,-1,3,0,-1
1472088306631968,0,0,11,2,-2,-2,-3,-1
1472088306631968,1,18,-18,-10,-1,0,-2,-1
1472088306639988,-4,-7,-2,2,0,-2,-2,0
1472088306639988,2,3,9,4,0,-1,0,0
1472088306655011,-2,-7,-23,-5,1,-1,-1,0
1472088306655011,-3,-2,2,-7,-3,-2,0,-3
1472088306655511,2,10,1,5,0,1,0,-1
1472088306655511,-2,-2,6,-9,-2,-1,-2,-2
1472088306677562,0,2,15,8,0,1,-3,-1
1472088306677562,-2,-2,-2,-4,-4,0,0,-1
1472088306678562,-4,-20,-11,-9,-3,-1,0,-3
1472088306678562,0,12,14,6,1,-1,1,-1
1472088306692085,0,3,-18,-3,0,-1,1,0
1472088306692085,-4,-4,0,-1,-1,-2,-3,0
1472088306699924,0,2,10,1,-3,-3,-2,1
1472088306699924,0,0,-1,0,0,0,-1,-3
1472088306714953,-2,-20,-9,-6,-2,0,-1,-1
1472088306714953,-3,2,2,2,0,0,0,-1
1472088306715954,-1,3,-9,-4,-3,-2,1,1
1472088306715954,-3,-2,12,1,1,0,-2,-2
1472088306736995,-2,3,1,5,0,0,-2,0
1472088306736995,1,1,-6,-6,1,-1,0,0
1472088306738502,-1,-4,-2,-5,0,-1,0,-2
1472088306738502,-1,0,-26,-3,-1,-3,0,2
1472088306752025,-1,10,8,3,-2,-2,1,1
1472088306752025,2,4,-5,3,-3,-3,-1,-1
1472088306760032,1,1,-4,2,0,0,1,0
1472088306760032,-1,-2,11,-5,0,0,-2,1
1472088306775046,0,-2,-6,-1,-1,-3,-1,-1
1472088306775046,-5,-2,0,5,0,0,-2,-2
1472088306776046,-2,2,-14,-3,-3,-1,-2,-3
1472088306776046,-2,-9,-2,-5,-3,-2,-1,-1
1472088306797571,3,-5,-2,0,0,1,-1,-1
1472088306797571,-3,10,4,-2,-2,-1,-1,-2
1472088306797571,-1,-16,11,1,0,-1,-2,-1
1472088306797571,0,-2,4,2,0,-1,-3,0
1472088306811916,2,1,6,-6,-1,1,0,0
1472088306811916,-3,-9,3,1,1,0,0,-1
1472088306819429,-1,7,1,3,1,-1,-1,0
1472088306819429,-1,10,-2,-1,-1,-3,-1,-2
1472088306834956,-3,7,6,-1,-1,-1,0,0
1472088306834956,1,1,-7,1,1,-1,-3,-1
1472088306835957,1,1,35,-2,-3,-2,-3,2
1472088306835957,-2,-9,-46,-4,-1,-3,0,1
1472088306857489,-1,-4,-4,-4,-1,-2,-1,-5
1472088306857489,0,2,5,7,-1,0,-1,-2
1472088306858489,1,0,-11,-9,0,0,0,1
1472088306858489,-2,6,7,-4,-3,-1,1,-2
1472088306872261,1,1,-14,-1,0,-1,-1,3
1472088306872261,0,-6,-3,8,1,-1,-2,0
1472088306878767,-3,-4,-6,-3,0,1,0,-3
1472088306878767,-2,-1,8,-2,-2,-1,-1,-1
1472088306895167,-3,2,-1,-5,-2,-2,0,-2
1472088306895167,1,-2,19,0,-1,-4,1,0
1472088306896167,-1,-1,-16,5,-2,-2,-3,-2
1472088306896167,3,2,2,2,-1,-1,-2,-1
1472088306917372,0,0,3,-2,0,-1,-3,-1
1472088306917372,-1,4,12,-2,0,-1,-3,-2
1472088306918373,-2,-7,4,-2,-2,-1,2,-1
1472088306918373,0,9,6,1,-1,1,-2,-2
1472088306939995,1,-2,-16,0,-2,-1,-2,0
1472088306939995,-5,-11,5,-4,-2,-3,-1,-2
1472088306940997,2,15,-16,2,0,-3,-2,-2
1472088306940997,-7,-25,7,2,0,-1,-2,1
1472088306955016,2,-2,1,-5,0,0,1,-2
1472088306955016,1,23,-17,-2,-2,0,1,-2
1472088306956016,-3,-11,20,4,-1,-1,-1,-1
1472088306956016,-1,0,1,-2,0,-1,-2,-2
1472088306977536,-3,-3,-21,-2,-1,-3,-2,-2
1472088306977536,-1,-8,-7,-8,0,1,-1,0
1472088306978537,-1,4,-3,5,-1,-2,-1,0
1472088306978537,-2,4,27,-1,-2,-4,0,-2
1472088307000068,0,4,-5,1,-3,0,-2,-1
1472088307000068,-1,-8,-4,-2,-1,0,0,0
1472088307000568,-3,-2,3,-2,-1,-3,-2,-1
1472088307000568,0,-13,-3,1,-1,0,-3,0
1472088307023530,1,23,4,-4,-1,-2,-1,-1
1472088307023530,-2,-11,-17,1,-1,-1,0,0
1472088307024032,1,-9,-17,-7,-1,1,1,-3
1472088307024032,-1,2,8,2,1,0,0,-3
1472088307037558,0,3,16,0,0,-4,0,-1
1472088307037558,0,-1,0,0,-1,-1,-1,-1
1472088307038559,-1,-7,-32,-6,0,1,-2,-1
1472088307038559,2,18,11,3,0,-1,0,1
1472088307060091,-3,-21,12,0,0,0,0,0
1472088307060091,0,16,-35,-2,-2,-1,-3,0
1472088307061092,0,5,17,1,0,0,-1,0
1472088307061092,-1,-8,-2,-1,-3,1,0,-3
1472088307075105,-1,-4,1,1,0,-1,-2,-1
1472088307075105,-2,-4,14,-1,-1,-1,0,-1
1472088307076105,-1,9,4,-4,-1,-2,1,-1
1472088307076105,-1,-4,-10,0,0,-1,1,0
1472088307097140,1,-3,8,0,-1,0,-2,1
1472088307097140,1,-7,-9,-1,-2,0,-1,-2
1472088307105160,-5,-6,-19,0,0,-1,-1,-2
1472088307105160,2,3,35,0,1,-1,-1,-3
1472088307120188,-2,-1,-16,-3,-3,-2,-2,0
1472088307120188,4,4,3,-3,-1,-1,-1,2
1472088307121189,-1,-3,1,4,-3,-1,0,-2
1472088307121189,-4,-16,-11,-8,-1,1,-2,-1
1472088307143224,1,10,10,3,2,1,0,1
1472088307143224,0,-3,-4,1,3,2,1,-1
1472088307144225,-4,-4,35,-5,-4,-3,-2,-3
1472088307144225,-2,4,-4,0,1,-2,-1,1
1472088307157247,-1,-12,-44,-3,0,-1,0,1
1472088307157247,-5,3,4,1,0,-1,-1,-2
1472088307165256,2,-2,-15,-7,2,0,-1,2
1472088307165256,2,5,25,0,-4,-2,-1,-1
1472088307180269,-1,-3,-6,-4,-1,-1,-1,-2
1472088307180269,-1,-5,9,2,-2,-2,1,-2
1472088307180769,-1,-2,-3,0,0,-2,0,-2
1472088307180769,-4,0,-31,-7,-2,-2,0,-2
1472088307203303,-2,-4,8,2,0,3,0,0
1472088307203303,0,-9,0,-8,-2,-1,-3,-1
1472088307203803,0,8,3,-4,-2,-2,-3,2
1472088307203803,2,1,-20,1,1,1,0,0
1472088307217341,-6,-8,22,4,-1,0,0,-4
1472088307217341,-5,-18,23,1,-3,-2,-1,-1
1472088307225331,-2,2,-17,-1,0,0,0,-1
1472088307225331,-1,-1,-17,-1,-1,-1,-1,0
1472088307240451,-5,-24,-12,-5,0,-3,-2,-1
1472088307240451,1,-1,8,0,0,-1,0,2
1472088307240914,-1,-1,2,3,-1,-2,-4,-2
1472088307240914,0,21,6,3,1,-1,-1,1
1472088307263583,-2,1,-3,-8,-1,-2,1,0
1472088307263583,0,-8,-11,1,0,-1,-4,-3
1472088307264030,0,-15,-12,-2,-3,-1,0,1
1472088307264030,-1,-7,9,2,0,0,0,-1
1472088307277043,-2,22,17,-1,-2,-2,0,0
1472088307277043,4,9,3,1,-1,1,1,-2
1472088307285050,1,-2,-2,1,-2,0,1,-1
1472088307285050,-3,-7,5,0,-2,-3,-3,-1
1472088307300087,0,9,-11,2,-1,2,0,-3
1472088307300087,-2,-2,-14,-11,0,-2,0,-1
1472088307301088,1,9,9,2,0,-1,-1,0
1472088307301088,-1,-4,-6,-3,0,-1,0,0
1472088307323620,3,0,-10,-7,-3,-1,-2,0
1472088307323620,-3,5,5,2,0,0,-2,0
1472088307324121,-4,-9,-10,2,-1,-1,-1,0
1472088307324121,4,14,4,-2,-1,0,0,-2
1472088307337145,0,-2,21,-1,-2,1,1,-1
1472088307337145,-4,-19,-20,-8,-3,-1,-1,-3
1472088307345157,-3,-10,27,3,-1,-1,-2,-2
1472088307345157,-2,-2,-21,1,-1,-4,0,0
1472088307360017,0,2,18,2,1,-1,-2,1
1472088307360017,2,0,16,0,-2,1,-1,0
1472088307361003,0,1,-2,-6,-3,-2,1,0
1472088307361003,-1,6,-3,1,0,0,-1,-2
1472088307383544,-3,-27,2,0,0,-2,-1,-2
1472088307383544,0,0,16,0,0,-2,-1,0
1472088307384047,0,18,3,-1,0,-1,-1,-2
1472088307384047,0,-3,17,-1,-1,2,0,0
1472088307406106,-1,-10,-29,-4,-1,0,-2,-2
1472088307406106,-3,5,2,2,-2,0,-1,-2
1472088307406608,-5,-22,16,-2,-1,-1,1,-1
1472088307406608,3,23,0,-2,-1,-1,-2,0
1472088307420027,0,8,8,3,0,-3,-1,0
1472088307420027,-3,-6,-20,0,1,-2,-1,0
1472088307421013,3,6,-5,4,2,-1,-2,0
1472088307421013,-1,-9,-13,3,-2,0,-2,-1
1472088307443543,-1,-1,-13,-13,1,-2,0,-1
1472088307443543,-2,5,-2,-1,-5,-1,-1,0
1472088307444044,0,2,2,-2,0,0,0,-1
1472088307444044,-3,-12,12,2,-1,-2,0,-1
1472088307465770,-1,7,5,8,1,0,2,2
1472088307465770,-2,-17,-41,-10,0,0,0,-2
1472088307466711,0,-13,-9,-4,-2,-2,1,-2
1472088307466711,-1,-5,-5,-3,-1,-1,-1,-1
1472088307480292,-1,4,23,4,-1,-3,-4,-1
1472088307480292,-2,-19,-10,-2,-1,0,0,-1
1472088307480800,-3,0,-3,-1,-2,0,-2,0
1472088307480800,-3,-4,-5,-9,-3,-2,0,-2
1472088307503191,0,-8,-15,6,0,2,0,0
1472088307503191,1,19,0,-3,2,-3,-1,-1
1472088307504189,0,3,11,-3,1,0,1,-1
1472088307504189,-2,-9,-46,-2,-2,-1,0,0
1472088307525721,-4,0,21,2,-3,-1,-2,1
1472088307525721,0,10,4,2,1,-4,-1,-1
1472088307526722,1,-6,-22,-5,-4,-1,-2,1
1472088307526722,2,14,20,5,0,-1,0,-1
1472088307540270,0,0,-11,-1,-3,0,0,-3
1472088307540270,-1,4,21,5,-1,-1,-1,-1
1472088307540770,-2,2,-33,-6,-1,0,-2,-1
1472088307540770,-1,-9,18,0,-2,-1,-2,-1
1472088307570777,2,3,0,-1,0,-1,-1,-1
1472088307570777,-1,0,4,0,1,1,0,-2
1472088307571278,2,3,6,4,0,-2,-1,0
1472088307571278,-2,-7,-9,-7,3,-1,-2,-1
1472088307585874,0,6,8,-2,-2,0,0,-1
1472088307585874,-2,-3,-30,0,-2,0,0,-1
1472088307586849,-3,-1,6,4,-2,-1,0,-1
1472088307586849,1,3,-1,0,0,-2,-1,1
1472088307599861,3,-8,-6,-7,-1,-2,-2,0
1472088307599861,0,6,17,4,-2,0,0,-1
1472088307600360,-1,-3,-25,-1,0,-4,-3,-3
1472088307600360,2,-3,3,-4,-2,-2,-1,-2
1472088307623425,-2,11,3,1,0,-2,-2,-2
1472088307623425,-2,-5,8,-1,-2,-1,-1,0
1472088307623928,-2,0,0,1,1,-1,1,1
1472088307623928,-4,-18,-9,-8,-4,1,0,-2
1472088307646108,1,-8,4,2,-2,1,0,0
1472088307646108,4,31,-36,-2,-2,0,-1,1
1472088307646608,-5,11,13,2,0,-1,-2,0
1472088307646608,-2,-4,1,4,3,-1,1,1
1472088307660260,-5,-11,-18,-5,-2,-1,-2,-1
1472088307660260,1,1,20,-3,0,2,-1,-2
1472088307660779,2,8,3,-1,-2,-2,-2,0
1472088307660779,-6,-35,-6,-4,-2,-2,-2,-1
1472088307683573,1,22,0,3,0,-1,0,1
1472088307683573,-3,-19,0,-2,-3,-2,-1,-1
1472088307684077,3,6,2,-2,-1,0,0,-1
1472088307684077,0,-7,10,-4,1,1,-1,-3
1472088307706154,-3,3,-7,-1,-1,1,-2,-2
1472088307706154,-1,-8,-3,-3,-3,-2,-1,0
1472088307706668,0,-4,2,0,-1,1,1,1
1472088307706668,0,19,3,4,-2,-1,-3,1
1472088307720358,-6,-28,-14,-5,-1,-3,-2,0
1472088307720358,2,9,-10,-2,-2,0,-2,-3
1472088307720859,-1,-1,10,-1,0,-1,0,-1
1472088307720859,0,6,-3,1,-2,-1,-3,-1
1472088307742503,5,9,3,-8,0,-2,0,-4
1472088307742503,-2,3,8,3,-3,-2,-2,0
1472088307744309,-1,-13,1,-2,-1,0,-1,0
1472088307744309,0,-5,-5,2,-2,-2,1,-1
1472088307765884,-2,0,-4,3,-1,0,1,-2
1472088307765884,0,12,12,-3,2,0,-2,1
1472088307766382,-2,-23,5,-3,-2,-3,-2,-1
1472088307766382,-2,3,-23,-2,0,-1,1,0
1472088307780353,1,1,5,2,2,1,-1,0
1472088307780353,2,-2,2,5,1,0,0,-1
1472088307780853,-3,3,14,-2,-1,-2,0,-4
1472088307780853,-3,-2,0,-5,-4,-1,-1,-2
1472088307803651,-3,-6,-7,8,0,1,-2,1
1472088307803651,-2,-10,-10,-10,-1,-2,-1,-2
1472088307803651,2,21,-7,0,-1,0,-1,0
1472088307803651,2,-15,12,8,0,1,-1,-2
1472088307826024,1,16,-9,-5,-1,0,1,0
1472088307826024,-3,-12,6,-7,1,0,-2,-2
1472088307826512,0,-3,11,1,-2,1,-1,-1
1472088307826512,2,8,6,-2,-1,-1,-1,1
1472088307840013,1,-5,19,7,-1,0,-3,-1
1472088307840013,-3,-15,-25,-2,1,0,-1,1
1472088307840984,3,4,-36,-4,-2,0,-2,-3
1472088307840984,0,8,9,1,-1,-1,0,-1
1472088307863571,-3,-16,-9,-7,-2,-2,0,-2
1472088307863571,3,3,11,7,-1,-1,-2,0
1472088307864068,-3,2,-12,-5,0,-3,-1,-1
1472088307864068,-2,-2,8,-4,-3,-3,-1,0
1472088307886113,0,1,-3,-4,-2,0,1,0
1472088307886113,-4,-8,-4,-3,-1,-1,1,0
1472088307886655,0,1,7,3,0,0,-1,-1
1472088307886655,-1,4,1,4,0,-4,-2,-1
1472088307908440,-1,3,3,-10,1,1,-1,0
1472088307908440,1,-1,-3,-5,-2,-2,0,-1
1472088307908949,-2,-8,-22,-1,-1,-1,-2,0
1472088307908949,-2,2,10,-2,-3,0,-1,-1
1472088307930751,-2,-5,-4,7,-3,-1,0,-2
1472088307930751,1,2,7,3,-1,-3,-2,1
1472088307931752,3,-1,-2,-3,1,2,-1,-2
1472088307931752,0,6,-7,-1,-1,1,-1,0
1472088307945806,-1,-15,0,3,-1,-2,-2,0
1472088307945806,1,-6,8,-5,-2,-1,2,-1
1472088307945806,-2,0,-4,-6,-3,-1,-1,-3
1472088307945806,0,4,-10,1,1,0,-1,2
1472088307960536,1,6,21,-1,-3,-3,0,1
1472088307960536,-1,2,8,4,-2,0,0,1
1472088307961037,-2,-5,11,2,0,-2,-1,-2
1472088307961037,-1,-5,-14,-10,-1,0,0,-1
1472088307982570,0,9,-8,0,0,-1,-1,1
1472088307982570,-4,-9,0,2,-2,-3,-2,-1
1472088307983541,-1,-3,7,-2,-2,-2,-1,-1
1472088307983541,-1,8,-18,-4,1,-2,0,-2
1472088308006079,-3,-7,-7,-6,-1,1,1,-2
1472088308006079,1,14,3,2,-2,-1,-2,-2
1472088308006580,-1,-18,-18,-1,-3,-1,-1,1
1472088308006580,-1,1,1,-4,-3,0,-2,-1
1472088308019648,-1,-8,-9,-1,-1,-2,-1,-1
1472088308019648,-1,17,7,2,0,0,-2,-2
1472088308027200,0,-2,-26,1,1,2,0,0
1472088308027200,0,-2,18,-2,-2,-2,-1,-1
1472088308043002,-2,12,-10,-3,-2,-1,-1,-1
1472088308043002,-2,-14,-41,-4,-1,0,-1,0
1472088308043381,0,-4,28,0,-2,-3,-2,0
1472088308043381,0,4,-9,-2,1,-2,-2,1
1472088308066088,0,12,8,1,-1,0,0,-1
1472088308066088,-3,-18,16,4,1,1,-2,-3
1472088308066627,0,30,-5,-8,-1,-1,-1,1
1472088308066627,-4,-13,5,-1,-2,-1,0,1
1472088308079602,2,11,-6,-4,1,1,-2,0
1472088308079602,-2,1,6,3,0,0,0,1
1472088308087608,2,5,1,6,-1,0,-1,-1
1472088308087608,-5,-12,8,2,0,-2,-2,-5
1472088308102544,-2,4,6,-6,-2,1,0,-1
1472088308102544,0,-7,-33,1,1,-1,-1,0
1472088308103598,0,9,41,-2,-1,-3,-1,-2
1472088308103598,0,-6,-52,-1,-1,1,-1,-2
1472088308125762,-3,-14,-10,2,0,-2,-1,-2
1472088308125762,0,5,12,-6,-4,-2,0,-2
1472088308126746,-5,-14,-2,-2,0,-1,-3,-1
1472088308126746,2,20,21,3,4,-2,1,-1
1472088308139747,-2,-14,-9,3,0,-2,-1,-1
1472088308139747,-2,11,2,-9,-1,0,-1,0
1472088308147773,1,-2,-9,3,-2,-1,-1,-2
1472088308147773,1,3,7,1,-1,0,1,1
1472088308162811,0,-11,-4,2,1,-2,1,-2
1472088308162811,3,19,15,4,0,0,0,2
1472088308163311,-3,-12,-4,-5,0,1,0,0
1472088308163311,0,-3,8,0,-2,0,0,1
1472088308185977,1,0,15,-1,-2,1,-2,-1
1472088308185977,-1,-4,-19,-2,-2,-3,-3,0
1472088308186472,-1,2,9,0,-1,1,-1,-3
1472088308186472,-1,-14,-10,2,-1,-1,-1,0
1472088308199535,-5,4,-4,-4,1,-1,-1,0
1472088308199535,0,-5,18,2,0,0,-2,-2
1472088308207583,-2,-8,-12,-5,-1,-1,0,0
1472088308207583,2,7,-7,-5,-1,0,-1,-4
1472088308222660,1,-4,2,6,-1,0,-2,0
1472088308222660,-2,5,-5,-2,1,-3,0,1
1472088308223146,-1,-14,-7,0,-2,-1,0,0
1472088308223146,0,8,13,3,-1,-2,0,-1
1472088308246298,-4,0,-5,-6,0,-3,0,-2
1472088308246298,-1,-3,7,1,-4,-1,-1,-2
1472088308246779,2,-1,-12,2,-1,0,0,2
1472088308246779,-5,-11,9,-4,-2,-1,-2,-2
1472088308259906,2,0,-5,0,0,-1,-1,2
1472088308259906,-1,-8,2,-2,1,0,-1,0
1472088308267366,0,-6,2,1,-1,-2,0,-2
1472088308267366,-5,8,-11,4,1,-1,-3,-4
1472088308282999,0,8,8,-5,-4,-1,-2,0
1472088308282999,-2,-7,-7,-5,0,1,1,-1
1472088308283419,-2,3,1,0,-1,-2,-2,0
1472088308283419,-1,1,2,0,-1,0,1,0
1472088308306172,0,7,-5,-2,-1,-2,0,-1
1472088308306172,-2,-14,-1,0,1,-2,-3,-4
1472088308306647,2,28,2,1,0,-3,-2,-3
1472088308306647,3,-7,-34,-3,-2,-4,-2,1
1472088308319716,-1,6,22,0,-1,-1,-1,0
1472088308319716,-4,-8,-17,-4,-2,-3,-1,0
1472088308327786,-3,-2,8,3,1,0,-1,0
1472088308327786,-1,-11,5,3,-2,-3,-2,-1
1472088308342940,-1,10,-13,-9,0,-2,-2,-3
1472088308342940,0,-3,2,0,-1,1,-1,-1
1472088308343439,-3,-5,4,0,-1,-1,0,0
1472088308343439,1,1,13,2,-2,1,0,-2
1472088308366058,-2,-13,-27,3,-1,0,0,-2
1472088308366058,-1,5,7,-2,-1,0,-1,-1
1472088308366580,-1,3,-5,-3,-1,-3,-1,-1
1472088308366580,2,-6,-4,-3,-2,0,-1,-2
1472088308388591,-2,5,1,0,-2,0,-2,-2
1472088308388591,-2,-4,-5,-3,-2,0,0,-1
1472088308389093,-3,-4,-16,1,-1,0,-1,-2
1472088308389093,-2,-2,8,-6,-1,-1,-1,-1
1472088308402671,-3,-10,9,4,-2,-2,-3,-1
1472088308402671,0,-2,-11,-3,-3,-3,1,-1
1472088308402671,0,-4,12,0,0,-2,-1,-1
1472088308402671,2,5,-2,4,-1,1,0,-2
1472088308425910,-6,-17,6,2,-1,-3,0,0
1472088308425910,-5,-3,-10,-6,-2,-2,-1,0
1472088308426432,-1,-2,-15,-3,-2,1,-1,1
1472088308426432,-2,-13,12,-1,0,-2,-1,2
1472088308448559,0,11,3,0,-1,1,1,-2
1472088308448559,1,7,-2,2,-3,-1,-1,-1
1472088308449018,-7,-13,-1,-3,-3,-1,-2,-1
1472088308449018,-1,3,-3,-2,-2,-3,-2,0
1472088308462759,-1,-6,-3,3,-2,-3,-3,0
1472088308462759,-1,-4,18,-2,-1,1,0,-1
1472088308463712,1,2,1,-1,-3,-1,1,0
1472088308463712,-3,1,3,-4,-1,-2,-1,-3
1472088308485891,0,13,-5,-1,-1,-1,-1,-1
1472088308485891,0,-3,9,1,0,0,-1,-1
1472088308486372,0,-4,-8,-6,-1,-1,-2,-2
1472088308486372,-3,-5,2,2,1,2,0,0
1472088308508520,0,0,1,3,0,-2,2,0
1472088308508520,-1,9,-5,2,1,-1,-3,0
1472088308509003,3,-5,0,-1,0,-1,-1,1
1472088308509003,0,7,-3,-2,-1,-3,-2,-1
1472088308522542,0,-1,-7,-4,-4,-1,-2,1
1472088308522542,0,-9,7,2,1,-1,-2,0
1472088308523538,0,3,1,0,-2,0,-3,-2
1472088308523538,-1,-5,-36,-6,-2,1,0,0
1472088308546083,-2,-12,12,-5,0,1,0,-1
1472088308546083,-1,-6,16,1,-1,-2,-1,0
1472088308546583,-1,23,-15,0,-2,-2,-2,-1
1472088308546583,1,-8,6,1,0,0,1,1
1472088308568330,0,-4,-8,-2,-1,0,-2,-1
1472088308568330,-1,-11,2,-2,-1,0,-1,-3
1472088308569326,-1,0,2,2,1,-1,1,-1
1472088308569326,2,35,8,4,-1,0,0,-1
1472088308582888,-9,-61,-11,3,1,-2,0,-3
1472088308582888,0,19,-6,-4,0,-2,-2,-1
1472088308583339,-1,-6,5,0,0,-2,-2,0
1472088308583339,-1,1,-2,0,-2,-2,-2,1
1472088308605898,3,4,5,2,-1,0,-2,-1
1472088308605898,-2,9,-12,3,-2,-1,-1,0
1472088308605898,-2,-15,-4,-3,-1,-2,-1,-2
1472088308605898,-3,-3,10,0,-1,-1,-1,-1
1472088308628693,1,9,-9,-3,-1,0,1,0
1472088308628693,-2,-12,-26,-8,-1,-3,-2,-1
1472088308629102,2,11,12,2,-1,1,-1,-2
1472088308629102,0,-19,3,-1,-3,-2,-1,-1
1472088308642658,0,11,-23,-2,-2,-2,0,-1
1472088308642658,1,-3,5,0,-1,0,0,0
1472088308643641,0,-6,4,-6,-1,-2,0,0
1472088308643641,-2,4,-1,-2,-1,-1,-3,0
1472088308673270,0,3,16,5,-1,-1,-2,-1
1472088308673270,-2,5,4,1,-1,-2,-1,0
1472088308674254,-2,-8,-15,-4,0,-2,1,-2
1472088308674254,-2,-6,-7,-2,0,0,-2,-2
1472088308688296,1,9,-1,-3,-1,0,-1,-1
1472088308688296,0,2,2,4,-2,-3,1,-3
1472088308689267,-1,-1,4,3,0,0,0,0
1472088308689267,-1,4,12,-3,-2,2,-1,-2
1472088308702865,0,-1,4,0,-1,-1,1,1
1472088308702865,0,0,-12,0,-1,0,0,2
1472088308703865,-2,-1,12,2,-1,-1,0,0
1472088308703865,-1,-4,-37,-5,-1,-2,0,-2
1472088308741211,-1,-8,7,0,1,-2,1,1
1472088308741211,5,3,2,1,-1,-1,-1,-2
1472088308741636,0,10,-3,-3,-2,0,-1,0
1472088308741636,-3,-4,8,0,-2,-1,-1,0
1472088308748141,0,3,-6,-7,0,0,-2,-1
1472088308748141,0,3,-2,1,-2,0,-2,-2
1472088308748141,0,-5,-21,-1,-1,-2,-2,0
1472088308748141,-1,1,13,2,1,0,0,-1
1472088308762787,-3,3,12,0,-1,-3,-1,-2
1472088308762787,5,-2,-21,-6,-3,0,2,0
1472088308763739,-9,-3,8,1,0,-1,4,-1
1472088308763739,1,2,3,-1,-1,-2,-9,1
1472088308786272,0,-1,-4,-1,1,1,0,-2
1472088308786272,-4,-10,7,2,0,0,-3,2
1472088308786759,-2,-12,-19,-4,0,-3,1,-3
1472088308786759,0,12,12,0,-3,-3,0,-2
1472088308808761,-3,-4,-6,-5,-1,-1,-1,0
1472088308808761,-1,3,5,1,0,-3,-1,-3
1472088308809227,-2,-28,3,2,-3,-1,-2,-1
1472088308809227,1,8,6,-1,-2,0,-1,0
1472088308822411,-1,-4,-10,1,-1,-1,-3,-3
1472088308822411,-2,11,28,0,0,1,-1,-3
1472088308823411,0,-4,-10,-3,-1,0,-2,1
1472088308823411,-2,-9,-8,-2,1,-2,0,0
1472088308845821,1,-4,-9,1,-1,0,0,1
1472088308845821,-1,-4,0,-6,-1,0,-1,-1
1472088308846820,1,8,17,-2,-2,-5,-1,-1
1472088308846820,-4,-11,-3,-4,0,-3,0,-3
1472088308868558,0,11,-3,0,-1,-1,-1,-1
1472088308868558,-3,1,10,1,-2,-1,-2,1
1472088308869009,-1,-5,4,-6,0,0,-3,-2
1472088308869009,-1,2,-9,-1,1,-1,3,0
1472088308882714,-2,-3,15,1,-4,0,-3,-1
1472088308882714,-3,-11,-7,-3,-1,0,0,-1
1472088308883659,2,15,11,5,-1,0,0,1
1472088308883659,5,-3,-6,1,-1,2,-1,-2
1472088308905999,-8,-5,-2,3,1,1,-1,-2
1472088308905999,-1,-1,-4,-2,-1,-2,-1,-1
1472088308906491,0,-2,-12,-2,0,0,-2,-1
1472088308906491,-3,11,9,-2,-2,-1,0,-1
1472088308928584,2,-7,-1,1,-1,-1,1,3
1472088308928584,0,10,25,1,1,-1,-1,-1
1472088308928998,1,7,-6,1,-2,0,-3,0
1472088308928998,0,-10,-7,-1,0,-3,1,0
1472088308941578,-1,6,1,-3,-1,-2,0,-2
1472088308941578,1,0,-1,2,-2,1,-1,0
1472088308950147,-1,-3,-2,-2,-2,0,-2,-2
1472088308950147,0,-3,6,3,-3,-1,0,-2
1472088308965865,0,-4,-21,-8,-2,-3,-3,-2
1472088308965865,-2,-13,-9,-4,-1,0,-2,0
1472088308966339,0,17,2,1,-1,-1,-2,0
1472088308966339,-2,-17,10,1,0,0,-1,3
1472088308988434,-1,13,-7,-1,-1,2,-2,-3
1472088308988434,0,4,-8,-4,-1,-1,0,-2
1472088308988926,-1,-7,-7,-1,0,2,-1,-2
1472088308988926,-4,-8,-20,-5,-4,-1,-2,0
1472088309002009,0,4,6,3,-1,-1,0,1
1472088309002009,-1,-8,5,-2,-1,-2,0,-2
1472088309010492,-2,0,3,0,0,-2,1,-1
1472088309010492,-2,0,-4,4,-2,-2,-1,-1
1472088309026062,1,9,-1,-8,0,0,-3,2
1472088309026062,-7,-13,-12,2,0,0,-1,-2
1472088309026562,1,-4,-16,0,0,-2,-2,-2
1472088309026562,3,-5,11,3,-1,-2,0,-2
1472088309048639,-6,-6,3,-3,-3,-4,-2,-2
1472088309048639,3,4,-9,0,0,0,0,-1
1472088309049139,-1,3,11,-1,0,0,1,1
1472088309049139,0,-3,-8,-3,2,0,-1,1
1472088309062202,2,6,-1,8,0,1,1,-2
1472088309062202,0,-11,2,-6,-3,-1,0,-1
1472088309070310,-1,14,-3,1,-1,-2,-1,-2
1472088309070310,1,8,5,-2,-1,0,-1,-1
1472088309085866,0,-8,21,-2,0,-1,0,-1
1472088309085866,0,7,-17,1,-1,2,-1,-1
1472088309086866,-1,-6,13,-1,0,-2,-2,-3
1472088309086866,-1,2,-6,0,-3,-1,-1,-1
1472088309108596,-1,-1,-1,-7,-1,-3,-1,0
1472088309108596,-3,-6,-10,-5,-2,-2,0,0
1472088309109096,-1,-1,8,1,-2,-1,-1,-2
1472088309109096,-2,0,-6,-3,-1,1,-1,-1
1472088309122241,-1,-8,-6,4,-1,-1,-1,-2
1472088309122241,1,6,4,-1,0,-2,-2,-1
1472088309130319,1,0,-2,0,-1,0,1,1
1472088309130319,-2,-4,-4,-1,-3,-3,-1,2
1472088309144557,1,-2,2,-2,0,-4,1,-1
1472088309144557,0,2,11,0,-1,-1,-2,0
1472088309146147,-2,-2,-8,-2,0,-2,-1,-1
1472088309146147,1,-12,2,3,0,0,0,0
1472088309168778,0,0,-6,-3,-1,0,1,-2
1472088309168778,0,5,-4,2,-1,-2,-1,0
1472088309169216,-1,3,6,-3,-2,-2,2,0
1472088309169216,2,-9,-2,-6,-1,1,-2,-1
1472088309182228,0,8,-20,0,-2,-2,0,-1
1472088309182228,-6,-6,-3,-1,0,-2,-2,-1
1472088309190409,0,-14,-12,-9,-1,-1,0,0
1472088309190409,-3,5,10,0,0,0,-2,-4
1472088309205082,-1,-18,-27,0,-1,0,-2,-1
1472088309205082,-4,4,13,0,1,-2,1,-1
1472088309205082,-2,-10,-6,-1,-4,-4,-1,-1
1472088309205082,-1,5,-1,-2,-1,-2,0,0
1472088309228499,-3,-18,24,-1,-2,-1,-3,-1
1472088309228499,0,-1,-15,-1,-1,0,0,0
1472088309228999,0,7,6,3,0,0,-1,0
1472088309228999,0,1,-8,-1,0,-3,0,1
1472088309242047,0,0,7,3,-1,-1,1,-2
1472088309242047,-1,-6,-14,-1,-2,1,-1,1
1472088309250622,-1,-5,2,-2,-2,0,0,0
1472088309250622,-4,2,-5,-2,-1,0,0,-3
1472088309265087,0,-8,4,-2,0,-1,-3,-3
1472088309265087,0,-3,-14,-6,0,0,1,0
1472088309266088,4,5,3,3,-1,-1,-1,-4
1472088309266088,-3,8,30,1,0,-1,0,0
1472088309288147,-6,-28,-20,-13,-2,-2,-1,-3
1472088309288147,0,3,6,-4,-3,-2,-2,-2
1472088309289149,0,15,-10,1,-1,-1,-1,-1
1472088309289149,3,3,8,6,1,0,-1,0
1472088309310949,1,8,10,-13,1,0,2,1
1472088309310949,-2,2,-2,4,0,-4,-1,-2
1472088309311449,0,-7,7,-2,-2,0,-2,2
1472088309311449,-3,13,-19,-2,0,-2,-1,-1
1472088309325524,2,13,1,7,0,0,-2,0
1472088309325524,1,0,-3,0,-1,0,-2,-2
1472088309326016,-2,-5,-4,-10,-1,-3,-2,-1
1472088309326016,-2,-9,-5,-1,-2,-1,-2,-2
1472088309348717,-2,4,-25,3,-2,-1,-1,0
1472088309348717,-2,3,9,-2,-2,-1,1,-1
1472088309349222,0,3,13,6,1,1,-1,0
1472088309349222,-1,-5,-8,-7,-1,-1,-1,1
1472088309370977,-2,9,6,2,0,0,-2,-1
1472088309370977,1,-2,11,4,1,-1,0,-2
1472088309371952,-2,-10,-14,3,-3,0,-1,-3
1472088309371952,-3,-9,4,-3,1,1,-1,-3
1472088309385019,-1,9,0,-1,0,-2,0,-1
1472088309385019,0,-7,-2,1,0,0,1,-1
1472088309385982,0,2,9,-1,-2,-2,0,0
1472088309385982,1,12,39,0,-4,-3,-1,-2
1472088309408650,0,-8,-29,-5,-5,-2,0,-2
1472088309408650,1,-10,13,2,-1,-1,0,1
1472088309408650,-1,-3,-19,-5,0,0,-1,1
1472088309408650,-1,1,-12,0,-1,-2,2,1
1472088309431056,-2,5,14,-1,2,-1,0,-1
1472088309431056,-3,0,-16,-1,-2,-2,-3,-2
1472088309431577,-3,-4,-1,5,2,0,-2,-3
1472088309431577,-2,-2,5,3,-1,-1,-1,-3
1472088309445142,-1,2,-8,-5,-1,-3,-1,-1
1472088309445142,-4,-6,-7,-3,-3,1,0,0
1472088309446144,-1,7,9,1,-1,-1,0,0
1472088309446144,0,-3,-16,-3,2,-2,-2,-2
1472088309468274,0,-5,7,9,-2,0,-1,-1
1472088309468274,-1,0,3,-12,-3,-3,-2,-2
1472088309469219,3,-9,2,-7,-3,-1,-1,-1
1472088309469219,-6,-5,-14,-3,-5,-1,0,-1
1472088309490781,2,-5,5,4,2,1,0,3
1472088309490781,1,6,-3,1,-1,-3,-3,-2
1472088309491792,-5,-2,6,-1,-1,-1,0,0
1472088309491792,0,-3,0,-3,-3,1,0,-2
1472088309505312,-2,-3,11,5,0,-1,0,-1
1472088309505312,1,18,-1,5,0,2,1,2
1472088309506314,-3,-5,0,2,-1,-1,-2,-1
1472088309506314,0,-16,-10,-10,-2,0,-2,1
1472088309528488,-1,25,11,-1,-2,-2,-1,-2
1472088309528488,0,-11,4,0,0,-2,-1,-1
1472088309528956,1,2,-8,4,2,-1,-1,0
1472088309528956,-3,-2,17,1,-2,-1,0,0
1472088309550690,2,-4,-4,-4,-3,-2,-1,-1
1472088309550690,-1,0,4,-2,-1,1,-1,-1
1472088309551692,0,2,1,1,0,-2,1,-1
1472088309551692,-3,2,2,3,2,-2,0,-2
1472088309565444,0,-7,-1,-6,-3,3,0,-2
1472088309565444,1,-4,-9,3,-1,-2,0,0
1472088309565858,0,9,3,-9,-1,-1,-4,0
1472088309565858,0,3,-25,0,-2,-2,-3,-1
1472088309588379,-2,1,-1,-4,-2,-2,-2,-2
1472088309588379,-2,6,11,1,-2,-1,-2,0
1472088309588896,-2,-13,-6,1,-1,-2,0,-1
1472088309588896,0,-3,-9,-1,0,-1,0,-1
1472088309610931,-5,-3,17,3,-2,-2,-3,-2
1472088309610931,0,1,-10,-8,-1,-2,-1,-1
1472088309611894,-3,-4,-6,-1,-1,1,-2,0
1472088309611894,5,13,11,-2,0,-1,-2,-2
1472088309625103,-7,-8,-8,1,0,-1,0,1
1472088309625103,1,8,2,-1,-2,-2,-1,-1
1472088309626102,-1,2,2,-4,-2,-1,0,0
1472088309626102,-1,-21,-11,0,0,0,0,-2
1472088309648277,3,9,15,4,-2,-2,-2,-3
1472088309648277,-1,-8,-20,-3,-1,0,0,0
1472088309649256,-3,1,9,2,1,-1,1,-3
1472088309649256,-1,-3,7,2,-3,-1,0,-1
1472088309670801,2,19,-12,0,1,-1,0,1
1472088309670801,-4,-11,10,0,-1,-5,0,-2
1472088309671776,1,2,-14,-2,-3,0,0,0
1472088309671776,-5,-10,1,-4,-1,-1,-1,0
1472088309685296,-1,2,-1,4,0,-1,0,-1
1472088309685296,-1,-12,-28,-3,-1,0,-2,-1
1472088309685798,0,-1,-4,-5,-3,-1,-1,-1
1472088309685798,-2,8,-8,-3,-1,-1,-1,-1
1472088309708427,-2,-2,12,-2,-2,-1,-1,-2
1472088309708427,-2,5,-7,-3,0,1,1,2
1472088309709398,1,-7,0,0,-2,-2,-1,-2
1472088309709398,-1,-3,-12,0,-2,-2,-1,1
1472088309731204,1,11,-1,-10,-4,0,-1,0
1472088309731204,-4,-10,32,5,0,0,-1,0
1472088309731691,-2,1,-10,-7,0,-2,-1,0
1472088309731691,2,-2,-9,-1,-1,-1,0,-2
1472088309745351,2,-4,-6,-2,0,-2,-1,-1
1472088309745351,1,7,15,4,-1,-1,-1,1
1472088309745856,-3,-3,-33,0,-2,-2,-1,-1
1472088309745856,-2,-5,14,2,1,-1,0,0
1472088309768558,-3,-13,-7,-1,-1,1,-2,1
1472088309768558,4,11,-13,-7,-3,1,0,-1
1472088309769468,-4,-17,16,5,0,-1,0,-4
1472088309769468,2,12,-8,-6,1,1,-1,-1
1472088309798545,-4,-10,7,1,-4,-3,1,-1
1472088309798545,-1,-8,-16,-4,1,-4,0,-1
1472088309799078,-1,11,1,-9,-4,-1,-1,-1
1472088309799078,-2,0,-5,2,0,2,-1,1
1472088309804580,2,-8,3,2,2,-1,1,1
1472088309804580,-4,6,-2,2,0,-1,-2,-2
1472088309812467,-2,-5,-4,-1,0,0,-2,1
1472088309812467,3,0,8,-3,0,-2,1,1
1472088309828588,0,-2,-10,-5,-2,-1,-1,-2
1472088309828588,-4,-13,-2,2,-1,0,0,-1
1472088309829088,1,16,6,5,1,-2,-1,-4
1472088309829088,-2,5,0,-3,-4,-1,-1,-2
1472088309851113,2,-3,7,0,1,0,-1,-1
1472088309851113,-3,-6,-5,3,-1,-1,-1,-1
1472088309851613,-2,1,15,0,-1,0,-1,-1
1472088309851613,-3,-4,2,-5,-2,-4,0,-2
1472088309865243,-2,-2,-3,0,-1,0,0,0
1472088309865243,0,7,-16,-2,0,-1,-2,-1
1472088309865677,0,-8,4,5,-1,-1,-1,1
1472088309865677,-4,1,-6,-3,0,-1,-1,0
1472088309888255,-2,-9,2,0,0,-1,1,0
1472088309888255,-1,-6,-13,-3,-2,-3,-1,-1
1472088309889256,-1,2,-1,-2,-1,0,0,0
1472088309889256,-2,-1,-9,-6,-2,0,0,0
1472088309911067,0,6,3,3,-1,1,1,0
1472088309911067,1,1,18,4,0,1,-1,0
1472088309911557,-1,1,6,0,-1,-2,-1,0
1472088309911557,-1,-8,-42,0,0,-2,0,0
1472088309924623,0,-9,-9,0,0,-2,0,2
1472088309924623,-2,3,6,-5,-4,-1,0,-3
1472088309932970,-1,-2,-8,-4,0,1,-1,1
1472088309932970,2,1,16,3,0,-1,1,-1
1472088309948696,3,-8,-12,2,-1,-2,-3,-3
1472088309948696,-5,7,5,5,-1,-1,-1,-3
1472088309949169,1,-7,8,-1,1,-2,0,0
1472088309949169,-1,-2,-33,-8,-3,-1,-3,0
1472088309970735,-1,-2,8,0,-1,0,-1,0
1472088309970735,0,-4,20,0,-1,-2,1,0
1472088309971736,0,5,-1,-1,-2,-2,0,-1
1472088309971736,0,-1,7,-1,-3,0,0,0
1472088309984782,0,8,-18,-4,-2,0,-1,1
1472088309984782,-1,-7,-5,-2,1,-1,-1,-1
1472088309993413,-2,-4,-8,-1,-1,-3,-1,-1
1472088309993413,0,-2,19,9,1,-1,0,0
1472088310007905,-2,2,5,5,1,-1,-1,-1
1472088310007905,-3,-9,-18,-10,-3,-2,-3,-6
1472088310009451,0,-11,11,-1,-1,2,-1,0
1472088310009451,-3,2,-10,-2,-3,-2,-1,0
1472088310031134,-3,1,9,2,-3,-1,0,-1
1472088310031134,1,-3,-2,0,0,2,0,0
1472088310031633,1,1,-6,-3,-2,-3,0,-1
1472088310031633,1,-4,-7,3,-1,-2,-1,-3
1472088310044683,-1,6,-3,-2,-1,-1,-2,-1
1472088310044683,2,-1,6,-6,0,-2,-1,0
1472088310060224,-4,0,-1,-1,-2,-2,0,-2
1472088310060224,0,-2,8,3,0,0,-1,2
1472088310068191,-2,-1,-2,-3,0,2,-1,0
1472088310068191,4,4,-4,0,0,0,-1,0
1472088310069180,-6,1,-2,-1,-1,-3,0,0
1472088310069180,-1,1,8,1,-2,0,-1,-3
1472088310090721,-1,-4,-12,-5,0,-2,-3,-2
1472088310090721,0,5,3,1,-1,1,-1,0
1472088310091723,2,-2,-5,-1,0,0,-3,-2
1472088310091723,-1,14,11,-7,-4,0,-1,-1
1472088310104675,-4,-5,-2,0,-1,-4,1,-2
1472088310104675,1,0,2,-3,-3,-2,-2,-2
1472088310112616,3,10,-8,1,-3,0,-1,0
1472088310112616,-1,-5,2,3,0,-1,0,-2
1472088310128196,-1,-1,2,-2,0,-1,-3,-1
1472088310128196,-1,1,-9,-3,1,-2,1,-1
1472088310129182,-1,-3,-2,1,1,0,0,-1
1472088310129182,-2,7,21,-4,-3,-4,0,-3
1472088310151246,0,-5,-6,-1,-3,-1,2,2
1472088310151246,-1,-3,0,4,-1,-4,0,1
1472088310151787,0,-4,-4,-1,-2,-1,-2,-2
1472088310151787,0,-1,0,-1,0,2,-1,1
1472088310164590,-4,-1,-2,-3,0,0,-3,1
1472088310164590,-2,-7,-4,-5,-1,1,-2,-2
1472088310172625,0,12,3,1,0,-2,-1,-1
1472088310172625,1,-7,19,3,1,0,-1,-2
1472088310188654,-5,3,-56,-6,-5,-3,-1,-2
1472088310188654,-2,-19,9,3,0,-1,-1,1
1472088310189114,-3,-6,-7,1,-3,-2,-2,-1
1472088310189114,-3,-6,5,-6,0,0,-3,-3
1472088310210844,4,11,8,-3,-2,-2,-3,-2
1472088310210844,-4,-8,4,-6,-1,-1,1,0
1472088310210844,-1,2,-4,4,1,0,0,-4
1472088310210844,-2,-8,-19,-1,-1,-2,0,1
1472088310233497,1,-2,15,-1,1,-1,2,-1
1472088310233497,1,7,3,3,-2,-1,-4,-3
1472088310233989,0,-6,-2,-2,-2,-2,-1,2
1472088310233989,2,-5,-36,-6,0,-1,0,1
1472088310248575,-2,-3,15,2,-1,0,0,-1
1472088310248575,-1,2,-9,-1,-2,-2,-1,-1
1472088310248988,-2,3,10,-1,-3,1,0,-1
1472088310248988,-2,0,-6,2,-2,-2,-1,-1
1472088310271135,1,9,6,-4,0,-2,1,-2
1472088310271135,0,9,1,-6,-4,-3,2,0
1472088310271636,-3,-23,-4,0,1,-3,-1,2
1472088310271636,0,7,17,1,-1,2,0,1
1472088310300856,-1,1,-4,0,-2,0,-1,-2
1472088310300856,-3,-3,-9,2,1,0,-1,0
1472088310301845,-1,3,1,-3,0,0,-3,-1
1472088310301845,-1,-5,3,1,1,-1,-1,-1
1472088310307688,-4,-5,0,4,-2,-2,-2,-1
1472088310307688,0,-3,-10,-4,1,1,0,-2
1472088310308670,0,-1,-5,-4,-2,-1,0,-2
1472088310308670,-1,-7,6,4,0,-1,0,0
1472088310330732,3,-7,3,0,0,1,0,-2
1472088310330732,-3,-5,-2,4,-2,-2,-3,-2
1472088310331743,-6,6,5,-7,0,-3,0,-1
1472088310331743,1,2,14,2,0,-2,1,-1
1472088310353248,0,-16,-18,0,-1,-2,-3,-1
1472088310353248,-1,-2,8,-1,-2,-2,2,0
1472088310353248,1,-2,-7,-1,-3,-1,-2,0
1472088310353248,2,12,10,-2,-2,-1,-3,-1
1472088310367708,-7,-17,-21,-3,-1,-3,-2,0
1472088310367708,3,10,3,1,0,1,-1,-1
1472088310368628,-1,0,-14,-1,-2,-2,0,-1
1472088310368628,-1,-1,0,2,-1,-1,-1,-1
1472088310391270,1,3,9,-1,0,-1,0,-1
1472088310391270,0,-3,-7,-2,0,-2,-2,0
1472088310391691,0,1,10,1,-2,0,-1,-3
1472088310391691,-3,-5,-15,-2,-2,-1,0,-3
1472088310413270,0,0,16,-1,-1,-1,-2,-2
1472088310413270,1,7,-2,1,0,-2,-2,1
1472088310414252,-3,-3,0,-4,1,1,-1,1
1472088310414252,-1,-8,-5,-2,-1,-1,-3,-1
1472088310428054,-3,6,-1,0,-2,0,-1,-1
1472088310428054,1,2,16,-2,-1,0,-1,-1
1472088310428556,1,6,-9,0,0,0,-3,-1
1472088310428556,-2,-2,-6,-6,-2,0,-1,1
1472088310450986,-2,-6,7,2,-2,-2,0,0
1472088310450986,0,8,-12,1,0,-3,0,1
1472088310451490,1,-11,10,1,0,-1,0,-2
1472088310451490,-3,2,-7,-3,-1,-1,-2,-2
1472088310473597,0,7,-8,3,1,2,0,0
1472088310473597,-4,-11,20,-3,-3,-1,0,-1
1472088310474097,-2,-4,-7,-2,0,-2,-2,-1
1472088310474097,1,7,1,3,0,-1,-1,-2
1472088310487618,0,-6,-4,-6,-4,-1,0,-2
1472088310487618,-3,-7,-15,1,0,-1,-2,-4
1472088310488644,1,4,-6,-8,-1,0,-3,0
1472088310488644,1,-6,7,9,0,-2,0,-1
1472088310511178,-1,10,-15,-5,-1,-2,-2,-1
1472088310511178,0,-1,-2,-3,0,0,-1,0
1472088310511679,1,5,11,5,-1,2,-2,1
1472088310511679,0,-1,-23,-3,1,-2,-2,-1
1472088310533288,-2,1,4,3,0,-2,-1,-2
1472088310533288,-2,-9,0,3,-1,0,0,-1
1472088310534244,-4,-8,-4,-3,-2,-3,0,0
1472088310534244,0,8,3,-1,-2,-1,1,1
1472088310547774,0,2,4,-1,-2,1,-2,1
1472088310547774,2,5,-5,-2,1,-1,1,-1
1472088310548305,-3,-8,3,0,-2,-1,-1,-4
1472088310548305,2,6,-2,0,-1,0,-1,-2
1472088310570846,-1,-8,-3,-1,0,0,0,0
1472088310570846,1,11,17,-2,-3,0,0,1
1472088310571846,-2,-13,-32,-4,-4,-1,0,-1
1472088310571846,-4,-2,-4,-5,-2,-1,-2,0
1472088310593365,0,1,-1,-7,-1,-1,0,-1
1472088310593365,1,-5,16,11,-1,-2,-1,0
1472088310593873,1,9,19,4,0,-2,0,-2
1472088310593873,-2,0,-14,-18,-3,-2,0,0
1472088310606991,-1,-4,7,3,2,-1,0,-1
1472088310606991,0,-8,-12,-4,-3,-2,-1,-1
1472088310608379,-2,1,12,6,-1,-3,1,1
1472088310608379,-2,-2,8,3,0,-2,-1,-2
1472088310631058,1,2,-2,-2,-1,0,0,-1
1472088310631058,-1,1,0,-4,-1,-2,-1,-1
1472088310631518,2,-3,-11,0,2,1,-1,-1
1472088310631518,0,6,25,6,-1,-1,-1,0
1472088310653796,-1,-7,-5,-6,-2,-1,-2,-1
1472088310653796,-3,-7,-5,2,-2,1,-1,0
1472088310654294,0,10,1,0,0,-1,-1,-1
1472088310654294,-3,-4,1,-2,0,-1,0,0
1472088310667940,2,5,13,-1,-1,-1,-1,0
1472088310667940,-3,-5,-38,-5,-2,-2,0,-2
1472088310667940,1,10,1,-6,-1,1,1,0
1472088310667940,-2,-14,6,9,3,0,-1,-1
1472088310690713,-1,10,-2,-10,-3,-3,-2,-2
1472088310690713,-2,7,1,2,-1,-1,-1,-1
1472088310691747,0,-5,5,0,-1,-1,-2,-2
1472088310691747,2,20,-9,-1,-2,-2,1,-2
1472088310713372,-3,-12,-1,3,-1,-1,0,1
1472088310713372,-1,3,6,-3,-1,0,0,2
1472088310714317,-1,-12,2,2,-1,-2,-1,-2
1472088310714317,-3,-11,-5,-3,-3,0,-1,2
1472088310727448,-1,-9,1,0,-1,0,-2,0
1472088310727448,3,18,8,2,0,0,-2,-2
1472088310728448,-4,1,-17,-1,-3,-2,0,-2
1472088310728448,2,-3,13,-3,-2,-2,1,0
1472088310750902,-4,-7,-22,0,0,-2,-1,-2
1472088310750902,2,-1,-8,-2,1,0,-1,-1
1472088310751403,-2,-7,17,-1,-2,-1,-2,2
1472088310751403,-1,0,-3,-3,-2,0,-1,-1
1472088310773515,-1,5,2,5,-2,0,1,-1
1472088310773515,-1,-9,5,-3,0,-2,0,-3
1472088310774018,0,10,-20,-6,1,-1,0,-3
1472088310774018,-2,-9,4,-1,-2,-2,-1,1
1472088310787585,0,0,-2,-4,-2,-1,-1,0
1472088310787585,-1,8,-10,1,1,0,-2,-1
1472088310788530,-1,0,7,0,-4,-2,-2,-2
1472088310788530,1,-4,9,2,0,2,-1,-3
1472088310810269,-2,4,-13,-1,-1,-2,-2,-2
1472088310810269,-4,-6,11,-1,0,-2,-1,0
1472088310811494,-1,1,6,-1,1,-3,-1,0
1472088310811494,2,9,-29,-3,0,-1,-2,1
1472088310833554,-2,-14,-18,-6,-2,-1,1,1
1472088310833554,0,-1,6,-4,-1,1,1,-1
1472088310834055,-1,-3,1,1,-1,-3,-2,2
1472088310834055,-4,-2,-5,-1,-1,-2,-2,-1
1472088310846815,1,4,19,1,-1,2,-2,1
1472088310846815,-1,1,-12,-1,-3,0,-1,0
1472088310855493,-1,-6,-9,-4,-1,-2,-1,-2
1472088310855493,0,-7,-5,-3,0,-1,-1,-1
1472088310871153,-3,3,11,5,1,-2,0,-2
1472088310871153,0,5,13,-3,-1,-2,-2,-2
1472088310871654,1,-10,1,3,1,1,-2,0
1472088310871654,-1,21,5,-5,-3,0,-2,-1
1472088310893761,0,-5,17,0,1,-2,0,-1
1472088310893761,-1,-12,-59,-4,-3,-4,0,0
1472088310894225,-4,-8,8,4,-1,0,0,-3
1472088310894225,-1,-4,-1,0,1,1,-1,0
1472088310906837,-1,4,4,-1,-3,1,-2,-2
1472088310906837,-2,-6,10,9,-1,0,-1,0
1472088310915499,-1,-5,-9,-10,-2,-1,-1,-2
1472088310915499,2,1,-4,-3,-3,-2,-2,-1
1472088310930970,-2,-4,2,8,3,-2,-1,1
1472088310930970,-2,-11,-3,-4,0,1,-2,1
1472088310931477,0,5,12,1,-1,-1,-1,1
1472088310931477,1,2,3,4,2,-1,0,0
1472088310952656,-1,-6,-12,-7,-5,-1,-2,-2
1472088310952656,1,12,4,0,-2,-1,-1,-2
1472088310954168,-7,4,2,2,-2,-1,-1,-1
1472088310954168,0,-8,-10,-4,-3,-1,0,-2
1472088310967202,3,4,-2,2,0,-2,-1,-1
1472088310967202,-3,-10,7,2,2,1,0,1
1472088310975208,2,6,-13,-6,0,1,-1,0
1472088310975208,-1,-5,29,4,-1,0,0,-2
1472088310991244,-1,2,-40,-5,-1,-2,1,0
1472088310991244,1,0,13,-2,-1,-3,-1,-2
1472088310991724,-2,-2,-1,2,-1,-1,-1,-1
1472088310991724,-3,-7,-10,0,1,-2,-2,1
1472088311013331,0,5,10,-4,-2,-1,-1,1
1472088311013331,-3,-15,-1,-5,-1,-1,-1,-2
1472088311013804,-1,-11,-9,-2,0,-2,0,-2
1472088311013804,-2,11,3,4,-1,-2,-3,0
1472088311026933,-2,0,0,0,-1,0,-4,-1
1472088311026933,-3,1,-2,-3,0,-1,-1,0
1472088311035965,-3,-11,-11,-6,-4,-5,-3,0
1472088311035965,0,0,-5,-3,-2,-3,0,0
1472088311051108,-1,-15,5,2,-1,-2,-3,-3
1472088311051108,-4,-6,1,-6,-2,0,-1,-1
1472088311051608,4,12,1,2,0,1,-2,-1
1472088311051608,-3,-8,-5,-2,-1,1,0,-3
1472088311074257,-1,-1,-8,-1,1,-2,2,-2
1472088311074257,3,4,10,2,-2,-2,0,-3
1472088311074735,-4,1,5,0,-1,0,-1,1
1472088311074735,-4,-9,-32,-6,-3,-2,-3,-2
1472088311087213,-2,3,14,6,-1,-2,-1,0
1472088311087213,-1,-3,-2,-2,-1,0,-3,-2
1472088311095239,2,20,4,4,0,-1,1,0
1472088311095239,-3,-12,2,0,0,-1,0,0
1472088311111279,-1,-1,-1,-3,-2,-2,0,-1
1472088311111279,0,3,4,2,-2,1,-2,0
1472088311111737,-2,-6,-26,-1,-1,-3,0,0
1472088311111737,-1,-5,11,-3,0,1,0,-4
1472088311133374,-2,-9,1,-5,-2,-1,-1,-2
1472088311133374,1,6,0,6,-3,-2,0,-2
1472088311134866,1,-9,10,-4,-2,1,-1,-1
1472088311134866,2,2,-4,1,-1,-1,-1,0
1472088311146871,-1,-5,-5,-4,0,-1,-1,1
1472088311146871,0,4,1,-1,-1,0,-2,-1
1472088311155925,-1,-4,-20,-4,-1,-3,-1,-3
1472088311155925,-1,-2,6,0,-2,-1,-2,-1
1472088311170458,2,8,6,-5,-3,0,1,0
1472088311170458,-1,-10,-15,0,0,-3,-1,1
1472088311184511,1,10,13,0,-2,0,0,0
1472088311184511,-2,-2,-11,-2,0,-1,0,-1
1472088311193464,2,-1,3,3,0,-1,0,0
1472088311193464,-4,8,2,-2,0,0,-1,-2
1472088311194967,-2,8,21,0,-1,1,0,-1
1472088311194967,0,-5,7,0,-1,-2,1,-1
1472088311216045,0,4,-1,-3,-1,-1,-1,0
1472088311216045,2,1,-28,-5,-3,-2,-2,-3
1472088311216522,-3,-12,6,3,-1,0,-1,-1
1472088311216522,-2,15,-5,-1,-3,1,-2,0
1472088311229499,-2,-19,2,-1,1,0,-1,-1
1472088311229499,-1,-8,5,0,1,-3,-1,0
1472088311238544,2,-1,-7,-4,-1,-3,0,1
1472088311238544,0,-4,-1,2,-2,-2,-1,0
1472088311253588,0,3,7,4,1,0,0,1
1472088311253588,-3,-1,-4,-2,-1,-1,0,-1
1472088311255111,-1,-1,8,0,-1,-1,-1,-3
1472088311255111,2,-6,-29,2,-1,-3,0,-2
1472088311276171,-1,11,5,-4,-1,1,-2,0
1472088311276171,0,-12,16,0,1,-1,0,-2
1472088311277663,-1,8,1,-2,0,0,-2,-2
1472088311277663,-2,0,0,-2,-1,0,-2,0
1472088311289711,-3,0,-20,3,0,-2,0,0
1472088311289711,4,-4,2,1,-2,0,-1,0
1472088311298212,-6,-2,8,0,-1,-1,-1,-1
1472088311298212,-3,0,14,-3,-1,0,-1,1
1472088311313409,-1,6,-5,-4,-1,-2,0,-4
1472088311313409,-2,-16,3,0,-2,0,0,-1
1472088311314912,3,0,-11,-1,2,-2,1,1
1472088311314912,-2,-3,-6,-3,0,0,-1,-2
1472088311336154,1,0,7,1,-2,-2,-1,-1
1472088311336154,-2,10,-6,-2,-2,-1,-1,-2
1472088311337639,-4,-13,-11,-5,-2,-1,-1,-2
1472088311337639,1,-5,13,-1,1,-2,-1,-1
1472088311349272,0,0,1,-1,-2,-1,-2,2
1472088311349272,0,17,2,-1,0,0,-1,-2
1472088311358336,0,-9,-6,1,2,-1,0,0
1472088311358336,1,16,3,0,-1,-1,0,-2
1472088311373358,-1,-3,-2,1,-1,-1,1,-2
1472088311373358,-1,11,8,0,0,1,0,2
1472088311374862,-1,-10,-35,-4,-1,-1,-2,-1
1472088311374862,0,1,16,-1,-2,-1,-2,-1
1472088311396170,-3,-3,-6,-10,1,0,-1,-1
1472088311396170,-4,1,-3,1,-3,0,-1,-1
1472088311397661,2,12,1,1,-2,-1,0,0
1472088311397661,1,-16,-5,1,1,-2,0,1
1472088311409698,-3,-3,-4,-1,-3,-1,-1,-2
1472088311409698,0,-2,-3,1,3,0,-1,0
1472088311418547,1,1,19,-2,-2,-4,-1,-2
1472088311418547,-3,-4,0,-1,-2,-2,-1,-1
1472088311433576,-1,1,2,0,0,1,-1,-3
1472088311433576,-1,-13,-11,-10,-1,-2,-1,-1
1472088311435077,2,9,-5,-1,-1,0,-2,-1
1472088311435077,-3,-5,2,1,0,1,0,0
1472088311455891,0,9,3,3,0,-1,-2,0
1472088311455891,0,6,-15,0,-1,-3,0,0
1472088311457336,-1,-3,17,0,-1,-1,0,0
1472088311457336,0,-4,-18,-2,-1,-1,0,0
1472088311469354,-3,-2,12,-1,-2,-2,-3,1
1472088311469354,-2,-7,-15,-5,-2,-1,0,-1
1472088311478392,-3,1,0,-2,-1,0,-1,-1
1472088311478392,-2,-15,-3,-2,-2,-1,-1,-2
1472088311493511,3,15,5,4,-1,-2,0,-1
1472088311493511,-4,-5,11,-4,-1,-1,0,-4
1472088311494966,-2,-11,1,2,0,0,-1,-1
1472088311494966,0,4,3,-1,0,0,0,-1
1472088311516133,-1,-5,5,-2,0,-1,-2,0
1472088311516133,0,-2,-5,-3,-2,-1,-1,-2
1472088311517679,1,-2,-6,0,0,-1,0,0
1472088311517679,-4,1,-2,-3,-1,-2,0,0
1472088311529633,0,-5,6,2,-2,1,-2,-1
1472088311529633,-4,1,-36,-2,-1,-1,-2,1
1472088311538664,-1,-4,19,0,0,-2,0,-2
1472088311538664,0,0,4,4,1,-1,0,1
1472088311553385,-3,-7,-7,-9,-2,-4,0,-3
1472088311553385,0,-2,10,0,1,0,0,1
1472088311554971,-2,5,-11,2,-2,-1,-2,-2
1472088311554971,-1,4,7,-2,-2,1,-1,0
1472088311576039,-2,-6,-1,2,-1,-1,0,-2
1472088311576039,-1,-4,-4,1,-1,-2,-1,0
1472088311577541,1,1,9,0,-2,1,-2,-3
1472088311577541,0,6,-17,0,-2,-4,-2,-1
1472088311589553,-2,0,-1,1,0,1,-1,-1
1472088311589553,-2,4,9,-1,-2,-1,-2,1
1472088311598571,-1,8,-3,2,-1,1,-1,0
1472088311598571,0,-1,1,-1,-2,-1,0,-2
1472088311613158,-1,2,-7,-3,-2,-1,-1,-2
1472088311613158,0,-5,-5,-3,0,0,0,-2
1472088311615163,-3,-3,5,-6,0,-1,-1,0
1472088311615163,2,2,7,0,-1,-1,-1,-1
1472088311636143,1,0,-26,-2,-1,-3,-1,-1
1472088311636143,-5,-13,12,4,0,-2,-2,-1
1472088311637676,0,6,-5,-3,-3,0,0,0
1472088311637676,-1,2,-26,-5,-3,0,-3,-1
1472088311649806,-2,-4,24,1,-2,-3,1,-3
1472088311649806,0,-1,1,2,-1,0,-2,-1
1472088311658368,0,3,-8,2,-1,-1,0,1
1472088311658368,-3,-35,4,-5,1,-1,0,-1
1472088311673462,0,22,-8,-6,0,-1,-1,0
1472088311673462,0,-6,-2,-2,-1,-3,-1,0
1472088311674922,-1,2,0,0,1,-1,-1,3
1472088311674922,-1,0,6,-1,0,-1,0,-5
1472088311696082,0,-10,-25,2,1,-2,-2,0
1472088311696082,-4,-4,21,3,-2,1,-1,-3
1472088311697562,0,-3,-9,-4,-1,-1,-1,-2
1472088311697562,0,16,10,-2,-2,0,-2,2
1472088311709634,-1,-23,-19,5,0,-2,0,-1
1472088311709634,1,4,-2,-1,-2,-2,-1,-2
1472088311718692,-1,-3,4,-2,-1,-2,0,-2
1472088311718692,-5,2,13,-3,-1,0,-1,0
1472088311733290,-4,-3,7,0,0,1,-2,-1
1472088311733290,2,-11,-1,-2,-3,-2,-1,1
1472088311734744,-1,-2,3,3,0,0,0,-1
1472088311734744,1,2,-30,-9,-2,-4,-1,-1
1472088311755004,-1,-2,8,1,-2,0,-1,-2
1472088311755004,2,16,-3,1,1,-2,-1,-1
1472088311757288,2,-9,0,-1,-3,-2,0,-1
1472088311757288,-7,8,17,4,-1,0,0,2
1472088311769402,0,-14,-46,-2,0,0,-1,-2
1472088311769402,1,8,31,-4,-2,-3,0,1
1472088311778355,-2,-6,-3,1,-1,-2,-1,-3
1472088311778355,3,-4,-8,1,0,0,-1,-1
1472088311793884,1,7,-7,-2,1,0,0,-1
1472088311793884,-1,-2,7,0,-1,1,0,0
1472088311795474,-2,-5,-3,-1,-1,0,0,-1
1472088311795474,2,6,2,-8,-2,-1,-2,-1
1472088311815992,-4,-5,8,2,-1,-1,-1,0
1472088311815992,1,0,-14,-2,2,1,-1,0
1472088311817446,-2,-1,3,2,-2,-1,-2,-2
1472088311817446,1,10,3,2,0,-2,0,-2
1472088311829629,-1,-6,4,-3,-1,-1,1,-3
1472088311829629,-1,5,6,4,-2,-1,-1,-2
1472088311838628,-2,-9,-7,-8,-1,-3,-2,1
1472088311838628,-1,-6,-2,1,-4,-1,-2,-1
1472088311853732,3,8,6,-3,0,0,0,0
1472088311853732,-3,-10,6,3,0,-1,-1,-1
1472088311855149,5,-4,-8,-2,-1,0,-3,-2
1472088311855149,-6,-4,-11,2,-1,0,-1,-2
1472088311876004,1,11,27,-2,-3,-2,-1,-1
1472088311876004,-2,-5,-19,-3,-1,1,0,0
1472088311877483,-3,1,2,-1,-2,0,-2,1
1472088311877483,-1,-1,2,5,1,-1,0,0
1472088311889464,-1,6,4,-8,-2,-1,-1,0
1472088311889464,-4,-18,-12,0,-2,-2,-2,1
1472088311898487,0,11,-4,-4,0,-2,0,-1
1472088311898487,0,4,-7,0,-1,-2,-2,-2
1472088311913627,-2,-1,7,-3,-3,-2,-1,0
1472088311913627,0,3,5,-1,-1,-2,0,0
1472088311915176,-4,-2,-4,3,-1,1,-2,-3
1472088311915176,-1,-1,1,1,0,-1,0,1
1472088311935835,3,-12,5,0,-1,1,-1,0
1472088311935835,-5,9,3,0,-3,-1,0,-2
1472088311937792,-1,-5,-14,-1,-2,-2,-2,-2
1472088311937792,1,0,-2,3,0,2,-1,-1
1472088311949867,-5,-11,2,0,-1,-2,0,0
1472088311949867,0,4,2,-6,-5,-5,-2,-3
1472088311958363,0,1,5,1,0,3,1,-2
1472088311958363,-1,-8,-1,-4,-2,-2,0,-1
1472088311973352,-2,-5,-36,-3,-2,-1,-1,0
1472088311973352,-1,6,5,0,-1,0,-2,-2
1472088311974810,-4,-12,-4,-2,-1,-4,1,0
1472088311974810,2,5,5,2,0,-1,1,0
1472088311995966,-3,-7,0,2,0,0,0,1
1472088311995966,3,-2,-5,-7,-1,-1,-2,-1
1472088311997443,0,2,0,-1,-1,-1,-1,-1
1472088311997443,-4,-2,0,-3,-2,-1,-1,1
1472088312009453,-1,5,16,1,-3,0,-2,-3
1472088312009453,0,-7,-32,-1,-1,-1,0,0
1472088312018494,1,2,0,-3,1,0,-1,0
1472088312018494,0,-3,1,1,-2,-2,0,-1
1472088312033648,-5,-4,9,-11,-2,-1,-2,-1
1472088312033648,3,13,-14,3,0,1,-2,1
1472088312035174,-1,6,23,-1,-2,-2,0,-1
1472088312035174,-3,2,16,-2,-3,-2,0,-3
1472088312055728,-5,-4,-6,3,-2,-2,1,0
1472088312055728,1,1,2,2,1,0,0,-3
1472088312057281,-2,-1,-8,-2,-1,0,-1,-1
1472088312057281,1,-4,6,1,0,-1,0,-1
1472088312069861,2,10,6,-1,1,-1,-1,-2
1472088312069861,-3,-4,8,-5,-2,1,0,-1
1472088312078376,-1,-1,-19,1,-1,0,-2,-2
1472088312078376,0,-9,6,-4,0,-3,-1,-1
1472088312093482,-2,-10,-33,2,-1,-2,-1,0
1472088312093482,0,9,-3,0,0,1,-1,0
1472088312094940,-2,5,15,1,-2,-2,-1,-1
1472088312094940,2,-9,-3,-4,1,0,0,-1
1472088312115737,1,0,2,1,-1,-3,-1,-2
1472088312115737,-2,-11,3,1,-1,0,-3,-1
1472088312117737,-1,-7,-12,-1,0,-2,0,0
1472088312117737,-1,15,-1,0,-2,-1,0,0
1472088312138646,1,9,11,0,0,2,-1,0
1472088312138646,-2,-1,1,-2,-2,-1,-1,1
1472088312140189,-1,-8,-7,-4,-1,0,0,-1
1472088312140189,-3,-3,1,0,-1,0,-3,-2
1472088312153364,-1,-2,10,0,1,0,-3,-1
1472088312153364,-2,5,-4,-1,0,-4,-1,-1
1472088312155350,0,-1,-25,-3,-1,-1,0,0
1472088312155350,0,1,11,0,-1,-2,-1,-1
1472088312176067,1,5,-5,-3,-1,0,-1,-1
1472088312176067,-1,-7,11,0,-2,-4,-1,-2
1472088312177569,-2,-4,0,1,0,0,-1,-2
1472088312177569,-3,-3,-13,-2,-1,2,0,0
1472088312198193,1,6,5,2,0,-1,0,-2
1472088312198193,-3,-9,-9,-5,-1,-1,0,-2
1472088312200195,-1,-3,7,0,-2,0,-2,-3
1472088312200195,-1,1,-18,1,-1,-4,-2,-2
1472088312213276,1,-1,6,3,0,-1,-2,0
1472088312213276,0,-11,-8,-6,0,-1,1,-1
1472088312215277,-6,12,3,1,-2,-2,-1,0
1472088312215277,2,1,1,-3,-1,-2,-1,0
1472088312235832,-3,-2,-3,-1,0,-1,-2,0
1472088312235832,2,5,-1,2,-3,0,-1,0
1472088312237323,-1,-10,-2,-4,1,-4,-1,-2
1472088312237323,0,4,2,-1,0,0,0,-1
1472088312258499,-2,-2,-28,-1,-2,-2,2,-3
1472088312258499,-2,6,18,-4,1,-3,-3,-1
1472088312259994,2,-1,-1,-2,-4,1,-1,1
1472088312259994,-2,-10,-4,0,-2,-2,-2,-1
1472088312273085,-1,-3,1,-5,-3,-2,-2,-1
1472088312273085,-1,4,1,-3,-2,-1,0,-2
1472088312279406,0,10,23,3,-1,-2,-1,-1
1472088312279406,-1,0,-9,-5,-1,-1,0,-1
1472088312296071,-1,-10,-20,-1,-1,-1,-1,0
1472088312296071,-3,2,-2,2,-1,-1,-1,-2
1472088312297550,-3,3,6,-1,-1,-1,-1,2
1472088312297550,-3,-15,-5,0,-3,-2,0,-2
1472088312318672,3,13,8,2,-1,-1,-1,1
1472088312318672,-1,-6,8,0,0,-2,-1,-1
1472088312320189,-5,6,-5,-1,1,0,-1,-2
1472088312320189,-3,-5,-36,-3,0,0,-2,-4
1472088312332808,-3,-2,8,-4,-2,-1,-1,-1
1472088312332808,0,-7,-4,0,-1,-2,-2,0
1472088312339599,0,0,0,-2,-2,-2,-1,-2
1472088312339599,-1,-1,10,2,-1,-1,-3,0
1472088312355773,-2,-2,-4,3,-1,-2,-1,-2
1472088312355773,-2,6,-3,-5,-1,-1,-1,-2
1472088312357827,-1,-19,8,-3,-1,-1,-3,0
1472088312357827,1,9,-9,0,-1,-1,-3,0
1472088312378415,1,-4,3,-3,-1,-2,0,0
1472088312378415,0,0,5,2,-1,0,-1,0
1472088312379876,-4,-8,-4,-1,0,0,0,-3
1472088312379876,1,2,-4,-6,-3,-1,1,-1
1472088312392988,-3,-13,11,2,0,-2,-2,0
1472088312392988,0,28,-3,-3,-2,-1,-1,-1
1472088312400057,3,-3,-6,-2,-1,0,0,0
1472088312400057,-2,-1,6,0,-2,0,0,0
1472088312415507,0,0,3,5,-1,0,-2,-3
1472088312415507,1,-14,-7,1,1,0,1,0
1472088312417692,-5,10,18,-3,0,1,-2,-1
1472088312417692,-2,-11,-4,-3,-2,-3,0,-1
1472088312438512,1,13,-4,0,-1,-3,0,-1
1472088312438512,0,-6,-3,-5,-2,0,-1,-1
1472088312440013,-1,-3,-12,1,-2,1,1,-2
1472088312440013,-1,2,20,1,2,2,-1,1
1472088312453051,-1,0,8,-2,-2,-2,0,-1
1472088312453051,0,0,-3,2,-2,-2,-1,0
1472088312459568,1,-2,-5,-1,0,0,0,1
1472088312459568,0,4,-4,-1,-1,0,-1,-1
1472088312476118,0,-2,2,-4,0,0,-2,-2
1472088312476118,-1,-3,-3,0,-3,1,0,-1
1472088312477625,0,0,5,0,-1,-3,-1,-1
1472088312477625,1,1,-22,0,-2,-2,-1,0
1472088312498293,-2,-1,1,1,-1,2,-1,0
1472088312498293,-6,-15,-6,-3,0,-1,-1,-1
1472088312500291,2,1,8,0,0,-1,-2,1
1472088312500291,5,15,0,0,-1,0,-2,-1
1472088312512591,-4,-4,3,-1,-1,-3,-3,-3
1472088312512591,-2,-8,-11,3,-1,-4,-3,1
1472088312519679,-3,-2,-4,-6,-3,-1,0,0
1472088312519679,-2,3,14,2,0,-1,-1,-2
1472088312535782,2,-3,-11,-5,-1,0,1,-1
1472088312535782,0,2,4,-2,0,-1,-1,-1
1472088312537240,-3,-1,-11,2,-1,-2,1,-3
1472088312537240,-3,-3,4,2,-1,0,-2,0
1472088312558859,-2,-4,8,3,-3,-2,-2,-2
1472088312558859,0,18,-4,-2,-1,-1,-1,0
1472088312560365,3,6,-1,-2,-2,0,0,2
1472088312560365,-3,-21,-20,-4,-2,-2,1,-1
1472088312571967,-2,8,3,-5,-3,-2,-2,0
1472088312571967,0,-6,8,0,0,-2,-2,-1
1472088312580935,2,-2,-17,0,-1,-1,-3,-4
1472088312580935,-1,7,26,2,-2,0,-2,0
1472088312595961,3,3,1,2,1,-1,-2,0
1472088312595961,-4,-26,-16,-4,-3,-2,0,-2
1472088312597448,-4,29,8,5,0,-1,-2,0
1472088312597448,-1,14,-2,-9,0,-3,-3,0
1472088312618557,-1,0,-14,-2,0,-2,-1,-1
1472088312618557,-1,-10,2,0,-2,-1,-1,-1
1472088312619954,-4,-21,-4,0,0,0,0,-2
1472088312619954,2,2,9,4,0,-1,-2,-1
1472088312632177,-2,-1,-15,-7,-2,-3,-2,0
1472088312632177,3,2,21,4,2,-1,-2,0
1472088312641254,-2,15,-49,-5,-2,-1,-2,-1
1472088312641254,0,-9,8,1,-1,-1,-1,-1
1472088312656338,0,-5,8,-1,-2,-2,1,-3
1472088312656338,-3,-2,-3,-1,-2,-3,-1,0
1472088312657813,0,8,6,1,0,-1,-1,-2
1472088312657813,0,4,1,-1,-1,-2,2,-2
1472088312678566,-2,2,-1,2,3,1,-1,0
1472088312678566,-1,-16,-6,-5,-3,-1,0,-2
1472088312680069,-2,-8,-20,-5,0,-2,-2,-2
1472088312680069,-2,-10,-13,-3,-2,-1,0,0
1472088312692096,-3,1,15,1,-1,0,-1,0
1472088312692096,2,6,6,5,0,1,0,-3
1472088312701114,-6,-7,8,-5,-3,-1,-2,0
1472088312701114,0,-11,3,4,2,-2,-1,-2
1472088312716168,2,24,-11,-1,-2,-1,-1,1
1472088312716168,-6,-28,15,2,1,-1,-1,-2
1472088312717673,5,1,-2,-4,-2,-3,0,0
1472088312717673,-2,6,1,-5,-3,-1,0,-2
1472088312738467,-4,-5,10,4,-1,-1,0,-1
1472088312738467,-1,10,0,-3,1,0,0,-1
1472088312740543,0,-11,-6,3,0,-1,-1,-1
1472088312740543,-4,-8,16,-5,-3,-1,-1,-1
1472088312751877,2,-1,-26,1,-2,1,-1,0
1472088312751877,-2,17,8,1,-3,-2,-1,-1
1472088312760935,-1,-25,6,1,-2,-1,1,3
1472088312760935,1,11,-3,1,0,-1,1,0
1472088312776219,-1,-9,11,1,1,1,-2,-1
1472088312776219,-1,-13,-13,-1,0,3,1,0
1472088312777726,3,23,9,1,-4,-2,-2,0
1472088312777726,-8,-19,-16,-9,-3,1,-1,-4
1472088312798294,2,18,24,-1,-3,1,0,2
1472088312798294,0,7,-23,-5,4,0,-1,0
1472088312800296,-2,-6,5,-3,0,-2,-2,-3
1472088312800296,-3,-34,-9,5,-2,-3,-3,-1
1472088312811381,-8,6,0,-10,-4,-2,-3,-3
1472088312811381,4,4,1,-3,0,-1,-1,-2
1472088312821294,-6,-60,-6,0,-2,-3,-1,-2
1472088312821294,4,25,-2,-2,1,0,-1,0
1472088312835854,-4,-21,-12,-4,0,-1,1,0
1472088312835854,1,16,2,1,-3,-2,0,0
1472088312837357,-4,-8,-19,-6,2,0,0,-1
1472088312837357,0,12,-2,3,1,0,0,0
1472088312858662,1,-17,-6,-1,-1,0,-1,-2
1472088312858662,-5,-13,-2,0,-5,-4,0,-3
1472088312860193,1,18,11,2,1,-3,-1,-2
1472088312860193,-2,2,2,3,-1,-2,-1,-1
1472088312872198,1,-2,-9,-12,-1,0,-1,-1
1472088312872198,-1,-2,0,2,0,3,-1,0
1472088312881246,3,23,10,2,-12,-1,-1,-1
1472088312881246,-5,-19,7,-2,-2,0,-1,0
1472088312895373,4,10,-4,2,-1,-3,-1,-2
1472088312895373,-10,-39,-17,-9,-3,-4,-2,-3
1472088312902315,3,5,11,-2,3,1,0,0
1472088312902315,-5,-7,13,2,-2,-1,-1,-3
1472088312926156,2,12,14,4,-2,3,1,1
1472088312926156,-3,2,0,-1,2,-4,-2,-2
1472088312927657,-1,-5,-2,-4,2,2,0,1
1472088312927657,5,23,-10,-5,1,-1,2,1
1472088312932219,-6,5,3,2,10,-3,1,-1
1472088312932219,2,5,-7,-1,-13,1,0,-1
1472088312941270,0,5,2,-3,2,-2,-2,-1
1472088312941270,3,2,2,1,-5,-3,0,0
1472088312955914,-1,-13,-20,0,-1,0,-3,-2
1472088312955914,3,22,8,-7,0,-2,-1,-1
1472088312957868,-2,-2,-7,2,0,3,-1,-1
1472088312957868,1,1,-6,3,1,-1,-1,0
1472088312978654,-3,-9,3,-4,-2,-1,-1,0
1472088312978654,1,-3,1,1,-1,-1,-2,-1
1472088312980156,-1,6,7,-2,-3,0,1,-1
1472088312980156,-7,-19,-12,-1,-3,-1,-3,-2
1472088312992167,2,6,15,4,-7,-3,-3,0
1472088312992167,3,8,-31,-3,4,5,-1,0
1472088313001285,0,-2,7,3,0,-1,1,1
1472088313001285,2,-11,-1,4,-2,0,0,0
1472088313015417,-4,7,-2,-3,-3,-1,-1,-3
1472088313015417,-2,2,9,-4,0,-2,-2,0
1472088313021986,-1,-9,-1,0,-1,-3,-3,-1
1472088313021986,0,19,-5,-2,-1,-2,-2,0
1472088313038572,2,6,10,1,1,0,1,1
1472088313038572,3,12,7,9,1,-1,-1,2
1472088313040075,-4,-11,-2,-1,0,2,-1,-2
1472088313040075,-1,23,-13,-8,-4,-4,-3,-3
1472088313052521,-2,-15,-17,-6,-1,1,1,-1
1472088313052521,1,14,19,5,1,0,1,-1
1472088313060983,0,3,4,5,-1,-1,-1,-1
1472088313060983,0,-17,-2,-8,0,0,-1,-3
1472088313075541,-5,9,1,-1,-3,-3,0,1
1472088313075541,-2,-30,-9,-2,-5,0,-2,-1
1472088313081934,-4,-2,-4,-9,-3,-6,-2,0
1472088313081934,0,-4,-3,6,3,1,1,-1
1472088313098619,0,-28,5,3,-3,-2,0,-1
1472088313098619,0,8,-18,-4,-5,-4,-1,0
1472088313100103,1,-5,-14,-8,-2,0,-1,0
1472088313100103,-3,-1,16,-1,1,1,-2,-2
1472088313121233,0,-1,-9,-5,0,-3,-3,-3
1472088313121233,-2,8,4,7,1,-1,0,-2
1472088313122238,0,19,15,-6,0,-2,0,-2
1472088313122238,0,-1,-30,-8,-1,2,-2,1
1472088313135381,-2,-7,-9,3,-2,-1,0,0
1472088313135381,0,1,7,0,-2,0,-1,0
1472088313142469,4,30,6,7,-4,0,-3,-1
1472088313142469,-3,4,15,-10,-1,-2,1,1
1472088313158887,1,-3,5,3,3,0,0,-1
1472088313158887,0,1,-8,-1,0,0,0,1
1472088313160372,-6,-12,-4,-1,-1,-2,-1,-1
1472088313160372,3,10,-2,3,-2,1,-2,-2
1472088313181063,-2,-10,5,-6,-2,-1,-2,-2
1472088313181063,-3,6,-14,-10,-2,-4,0,-3
1472088313182482,1,-5,12,4,-2,-2,1,1
1472088313182482,-2,-10,-36,-5,-2,-1,-1,-2
1472088313195494,3,-1,3,4,-1,1,-2,-3
1472088313195494,-2,-6,8,1,-2,1,0,1
1472088313202083,-7,4,-12,-4,-3,-4,-2,-3
1472088313202083,3,-1,10,1,3,4,1,2
1472088313218242,-1,-10,2,-2,-3,-4,1,0
1472088313218242,0,6,-6,-9,-2,-1,1,-1
1472088313220276,3,0,-4,1,2,2,1,0
1472088313220276,-5,-16,12,4,0,-2,-2,0
1472088313240944,3,5,1,0,2,-2,0,1
1472088313240944,-2,-2,4,-2,-2,-2,-2,1
1472088313242448,1,-3,-3,3,0,3,0,-2
1472088313242448,-3,0,5,0,-2,-3,1,0
1472088313255053,-2,14,4,-2,-1,-1,-3,-1
1472088313255053,0,-8,-16,0,0,0,1,-2
1472088313262104,-3,-17,-5,-2,0,-2,-2,-1
1472088313262104,0,5,14,-4,-5,-3,-1,-2
1472088313278642,-1,8,-23,0,-4,0,1,-2
1472088313278642,-2,-9,15,0,5,0,-1,2
1472088313280100,-2,22,-17,-10,-5,-2,0,-4
1472088313280100,-1,-6,13,5,0,-1,-2,0
1472088313301161,-3,-7,1,-2,-2,-1,-1,0
1472088313301161,0,0,5,3,1,-4,0,0
1472088313302662,0,-13,-10,-5,0,-1,1,1
1472088313302662,-1,-7,3,-4,-4,-1,-1,-2
1472088313315283,0,20,-7,-3,-2,0,-1,-1
1472088313315283,-2,-21,-13,3,-3,-1,0,-1
1472088313322255,2,-7,11,8,2,-1,-3,2
1472088313322255,-1,17,-17,-7,-2,-2,0,-1
1472088313338320,1,-15,0,1,-1,1,-1,0
1472088313338320,0,4,5,-2,-2,-2,-4,-4
1472088313340352,1,-2,-1,0,-2,-1,0,0
1472088313340352,-5,2,-4,3,1,0,0,-4
1472088313360451,-2,-5,1,-2,-1,-1,-2,-1
1472088313360451,-1,3,0,-3,-2,-3,-1,-2
1472088313362496,0,-10,9,-3,1,0,-1,-3
1472088313362496,-2,-15,-19,-1,-1,-1,-3,-1
1472088313374571,-4,13,4,-1,-3,-5,0,-3
1472088313374571,-2,-23,17,-1,1,0,3,5
1472088313383538,-10,4,-5,-2,-1,0,0,-1
1472088313383538,3,-4,17,5,0,0,-1,0
1472088313398567,-4,-5,-14,-8,0,-2,-2,-1
1472088313398567,2,25,5,-2,0,0,0,0
1472088313400050,1,0,8,7,-1,2,-1,-1
1472088313400050,0,5,-4,-3,-2,-2,-2,-3
1472088313421134,4,9,2,0,-1,2,-2,-1
1472088313421134,-2,0,-6,2,1,1,-3,0
1472088313422638,2,-5,-7,-6,-2,-3,1,2
1472088313422638,-1,-1,-5,4,0,-2,1,-1
1472088313434692,-1,-13,3,1,-1,-2,-2,-3
1472088313434692,1,4,-23,-4,-2,0,1,-4
1472088313443721,-4,-3,6,0,0,-3,-2,-3
1472088313443721,7,4,14,-1,-2,1,-2,4
1472088313458239,-3,-1,-11,-7,-1,-3,-1,-3
1472088313458239,0,-5,1,-2,-4,-1,-3,-3
1472088313459740,0,13,-3,2,0,1,1,0
1472088313459740,0,-2,-3,-1,-2,-1,-2,2
1472088313481204,-1,-11,18,1,0,2,-1,1
1472088313481204,0,5,3,3,-1,0,0,-1
1472088313482749,-3,-6,-29,-7,-4,-3,-2,-3
1472088313482749,1,2,9,-4,-2,-3,1,-2
1472088313494716,0,12,-9,-5,1,-8,-1,0
1472088313494716,-8,-34,1,-7,-1,-6,-1,-2
1472088313503733,7,2,4,-3,-2,-3,3,5
1472088313503733,-14,-11,-10,3,-1,3,-3,-7
1472088313518785,12,-2,-3,3,-1,10,-1,-4
1472088313518785,2,7,3,2,-2,6,-4,-2
1472088313520317,-8,-7,15,6,3,4,-4,-7
1472088313520317,3,-12,1,0,-2,1,-1,-2
1472088313541115,-3,-3,-3,-1,-4,-1,-2,0
1472088313541115,0,12,6,1,-2,1,-2,-2
1472088313542635,2,-8,11,2,0,1,-1,-1
1472088313542635,2,11,-2,-1,-1,0,-1,-1
1472088313554474,-9,-13,-7,-2,0,-2,1,-3
1472088313554474,2,8,1,-6,-2,-8,0,2
1472088313563487,-7,1,-10,-2,-2,-2,-1,-1
1472088313563487,-3,-17,-2,1,1,-2,0,0
1472088313578568,1,2,3,-3,-3,-6,2,1
1472088313578568,-4,-1,-8,0,-1,1,-4,-5
1472088313580056,-2,-3,3,-1,-1,-1,-3,2
1472088313580056,3,3,-5,0,0,-1,-4,1
1472088313601137,3,4,1,2,0,-1,1,0
1472088313601137,-19,0,3,1,-1,1,1,-4
1472088313602607,7,12,-6,0,-2,-2,0,-1
1472088313602607,-8,-14,0,-3,-1,-5,0,-1
1472088313614716,3,25,-11,-1,0,1,-5,-1
1472088313614716,2,-12,-23,-3,0,-3,0,-3
1472088313623833,0,11,1,-3,0,-1,0,-3
1472088313623833,-1,-15,2,-1,-1,-1,-2,-1
1472088313638273,1,2,8,3,1,-1,0,-2
1472088313638273,-4,-25,-2,1,-2,-2,0,-2
1472088313640275,-1,1,-5,-4,-2,-2,-1,-2
1472088313640275,3,-1,-4,-3,1,-1,1,0
1472088313660920,-5,-20,-15,-3,-1,-1,-1,-2
1472088313660920,3,2,3,-1,-3,-2,-1,1
1472088313662410,-3,-4,2,0,-2,-1,1,-2
1472088313662410,2,20,1,-3,-2,-1,1,-1
1472088313674461,-3,-16,-2,-4,-2,-3,-1,0
1472088313674461,-1,12,3,-1,0,-1,0,0
1472088313683408,0,-10,5,-1,-2,-2,-3,3
1472088313683408,-2,7,-13,-1,1,-1,4,-1
1472088313698485,1,-6,4,2,1,1,-1,4
1472088313698485,0,4,-5,-2,0,-2,-1,0
1472088313699966,8,0,0,0,1,-2,1,-1
1472088313699966,-1,3,2,-2,-1,-1,-4,2
1472088313720948,1,-25,0,-1,-1,0,0,-2
1472088313720948,-4,9,-2,0,-2,-1,-1,0
1472088313722446,2,-6,-4,-3,-3,-1,0,2
1472088313722446,2,3,0,0,-1,-1,1,-3
1472088313734476,2,2,1,-3,-2,-1,1,-1
1472088313734476,6,13,1,-1,-1,-1,0,0
1472088313743489,-2,-9,-4,1,0,1,-1,5
1472088313743489,-4,6,0,-1,0,-1,-1,-6
1472088313758537,-6,3,0,-1,-2,-3,-3,0
1472088313758537,-1,-2,6,1,-1,1,-4,-3
1472088313760049,-2,1,-5,-1,-2,-1,-1,-1
1472088313760049,-7,-1,-3,-2,-1,0,-2,-1
1472088313781194,-1,3,8,-2,-3,-2,-6,1
1472088313781194,3,0,-7,0,1,-1,4,1
1472088313782645,-3,5,3,-2,0,-2,-1,-5
1472088313782645,1,-10,-1,-3,0,-3,1,2
1472088313794712,-1,2,-8,0,-1,2,-2,-5
1472088313794712,-2,-8,6,1,-1,-1,-2,2
1472088313803696,-1,-1,0,-2,-1,0,-2,-2
1472088313803696,1,1,-2,0,-2,-2,0,-2
1472088313818508,-2,5,5,-1,-1,-2,-1,0
1472088313818508,1,0,-1,-1,-1,-1,0,0
1472088313819983,-3,-6,-6,-2,0,-2,0,-3
1472088313819983,1,-4,2,-2,0,1,-3,-1
1472088313840990,-1,11,-7,1,1,-3,-1,1
1472088313840990,-2,0,1,-2,0,-2,1,0
1472088313842484,-2,-4,0,1,0,1,0,-5
1472088313842484,-2,-9,-4,-1,-4,-3,-2,-2
1472088313854482,-4,-7,0,-1,0,-1,0,1
1472088313854482,2,7,1,-1,-1,4,-3,-4
1472088313863529,-1,6,0,-2,-1,-1,0,0
1472088313863529,0,-7,1,2,0,-1,-1,-1
1472088313878654,3,-6,-10,1,-2,-1,2,-1
1472088313878654,3,2,1,0,-3,0,-2,-3
1472088313880196,-3,-25,-6,0,-1,-1,-2,-2
1472088313880196,-1,12,2,0,-1,-2,-2,1
1472088313900867,-3,-5,-13,-1,-1,0,-1,0
1472088313900867,5,0,5,0,0,-2,0,0
1472088313902868,-4,1,-3,0,-3,-1,-2,-2
1472088313902868,1,-2,4,-1,-1,0,-1,-1
1472088313914461,-2,4,9,-2,0,0,-3,-3
1472088313914461,-6,-7,-6,0,1,-3,3,1
1472088313923581,2,2,0,0,0,-1,0,0
1472088313923581,1,6,-2,1,0,0,-1,-5
1472088313938080,0,-5,2,-2,-1,0,2,-1
1472088313938080,-1,4,-1,-2,-1,-3,-1,1
1472088313944980,1,-1,-1,3,0,1,-2,-3
1472088313944980,-3,-14,-5,-1,-1,-2,0,0
1472088313961215,1,-2,2,-1,2,0,0,-3
1472088313961215,-1,-4,-8,-3,-1,-1,0,3
1472088313962718,-1,10,2,-3,-1,-2,0,-3
1472088313962718,0,-1,-1,-2,-1,0,-1,-1
1472088313974727,-4,-6,0,2,0,1,0,-1
1472088313974727,-3,0,3,1,-1,0,-3,-1
1472088313983735,2,1,-4,-1,-1,-2,-2,5
1472088313983735,-1,4,-2,-2,-3,0,0,2
1472088313998263,-1,-6,3,0,-1,-2,0,-2
1472088313998263,-4,11,-3,0,-3,-1,-3,-2
1472088314004782,2,3,1,0,-1,-3,0,-1
1472088314004782,1,2,-3,-1,-1,0,-1,-1
1472088314020932,-1,0,-2,-1,-1,-1,0,2
1472088314020932,-1,-5,2,-3,0,-1,-1,-2
1472088314022439,-2,-1,-2,0,1,-1,-3,-3
1472088314022439,2,-1,0,-2,0,-2,1,-1
1472088314043917,2,-3,-1,-1,-1,0,1,-2
1472088314043917,-1,7,-1,-1,-1,-3,-2,1
1472088314045523,-2,-5,-2,-2,-2,3,-1,-1
1472088314045523,0,-1,-1,-1,0,-1,-1,-2
1472088314057989,-1,0,1,0,0,-2,0,3
1472088314057989,1,-5,0,-2,-2,0,-1,-1
1472088314064548,-1,-3,-2,-2,0,-4,0,-1
1472088314064548,-4,-2,-2,0,-1,-1,1,-2
1472088314081076,-2,1,2,-1,0,-2,-3,-2
1472088314081076,0,-1,0,0,1,0,-1,3
1472088314082577,-2,1,1,-2,-1,0,-2,-2
1472088314082577,0,0,-3,-4,-1,-3,-3,1
1472088314103161,-3,-4,-3,0,-3,0,-1,-3
1472088314103161,-3,-3,0,-1,-1,-2,-2,0
1472088314105216,-2,-6,-3,-3,-3,-1,-1,0
1472088314105216,-3,5,-2,1,-2,0,-2,-1
1472088314117945,8,13,-1,-2,-1,0,0,-2
1472088314117945,-3,-12,-2,-2,1,1,-1,0
1472088314124882,-7,3,0,0,-2,1,-2,-1
1472088314124882,0,-3,3,0,-1,-2,-1,1
1472088314140943,0,3,-16,-1,-2,1,0,0
1472088314140943,1,-3,3,-1,-2,0,1,-3
1472088314142423,0,1,-1,-2,-1,0,-2,-1
1472088314142423,-1,-7,-2,-2,-1,-2,-1,-1
1472088314162844,-4,-4,1,-1,-2,-1,-1,1
1472088314162844,0,-1,1,0,0,1,-1,2
1472088314165236,0,0,-1,0,-2,-1,-1,-3
1472088314165236,1,0,-1,-1,-1,0,-3,-1
1472088314177286,2,-4,3,-1,-1,0,-1,-2
1472088314177286,-2,2,-3,-1,-1,0,0,-2
1472088314186295,-1,-1,3,1,0,-1,0,2
1472088314186295,0,-3,-2,0,-1,2,-1,-1
1472088314201400,-2,-5,-3,0,-1,1,-1,-4
1472088314201400,0,3,1,-2,-1,-1,-2,-3
1472088314202810,2,-2,-2,-1,0,0,-2,-2
1472088314202810,-1,1,-2,1,-1,0,-2,-4
1472088314223457,-1,-4,1,-2,-1,2,-1,1
1472088314223457,-1,-6,-1,0,-2,1,-2,-2
1472088314225351,1,0,-1,1,-1,3,-2,2
1472088314225351,-2,-2,-2,0,-1,-2,0,-2
1472088314237930,6,4,4,0,0,-1,-3,-1
1472088314237930,-4,-6,-3,2,-1,2,-1,-3
1472088314244441,3,-2,-1,0,-2,0,-1,0
1472088314244441,4,1,1,2,0,3,-2,0
1472088314261018,-1,-5,2,-1,-4,4,0,0
1472088314261018,0,1,-7,4,5,-7,0,-1
1472088314262463,-2,5,-3,-8,1,-8,2,0
1472088314262463,-7,-8,-4,-8,-6,-7,3,0
1472088314283646,0,0,-3,-5,17,-3,1,-2
1472088314283646,0,2,1,-9,-17,-3,1,0
1472088314285075,-5,-1,2,4,8,-5,1,1
1472088314285075,-2,0,-6,-18,-3,-9,1,0
1472088314297282,-6,4,0,2,-2,-4,-1,-1
1472088314297282,-5,-9,-6,-12,16,-4,1,0
1472088314306065,0,-7,-5,-3,-14,-5,2,2
1472088314306065,-1,7,3,5,13,-2,-2,-1
1472088314320819,-5,-1,-9,-10,-17,-6,0,-1
1472088314320819,2,9,6,12,7,3,-1,0
1472088314322820,0,-7,13,3,2,10,-4,-2
1472088314322820,2,0,-29,-11,-9,1,-2,-1
1472088314343927,1,-1,13,14,6,5,-4,-3
1472088314343927,0,-17,-6,-5,-6,3,-5,-1
1472088314345517,5,23,1,-8,-11,2,-2,0
1472088314345517,-2,-7,9,12,-10,-6,0,0
1472088314357040,-4,-1,-3,-9,13,7,0,1
1472088314357040,1,-3,13,13,-5,-4,1,-1
1472088314366094,-4,-8,14,-5,0,-5,1,0
1472088314366094,2,9,-17,4,-3,0,2,1
1472088314381164,-3,0,13,-3,-6,-6,0,-2
1472088314381164,-5,-10,-11,-12,-2,-1,2,0
1472088314382666,2,2,9,8,2,0,-1,-3
1472088314382666,3,12,-1,-16,-1,2,-2,0
1472088314403299,-3,1,-5,9,2,-2,-2,1
1472088314403299,-1,-5,2,-11,2,1,1,0
1472088314405258,0,18,5,3,5,-1,0,-1
1472088314405258,1,-3,5,7,-22,3,-3,-2
1472088314417280,-5,-28,-4,-4,0,3,1,2
1472088314417280,0,-4,-5,2,-7,-2,-3,-3
1472088314426289,-2,4,-5,4,6,5,-2,-1
1472088314426289,-3,-11,21,-3,-4,-1,1,-2
1472088314440948,5,34,-17,1,6,-5,-3,0
1472088314440948,-3,-23,15,0,-27,1,-1,-1
1472088314442433,-1,-9,-20,-4,5,4,1,1
1472088314442433,-6,-3,12,-1,22,-3,0,-1
1472088314463626,-2,6,10,-6,-46,-3,1,1
1472088314463626,5,7,-16,-2,15,1,-3,2
1472088314465143,-2,-3,-19,6,-5,-6,-4,-2
1472088314465143,6,25,13,-1,4,-1,0,3
1472088314477181,-3,0,28,8,8,-1,0,-4
1472088314477181,2,5,-4,1,3,-2,1,0
1472088314486226,-17,-82,-39,-17,-22,-17,-5,-7
1472088314486226,-1,16,0,-2,5,2,0,2
1472088314500800,1,-1,-1,-3,4,-8,-4,-2
1472088314500800,5,19,27,18,14,8,0,-2
1472088314502768,-4,-23,-17,-13,-2,3,2,-1
1472088314502768,-3,11,14,18,-2,3,-2,0
1472088314523793,-5,-42,-44,-11,-7,-3,-1,-2
1472088314523793,1,-4,7,-2,0,-1,0,2
1472088314525294,1,36,-5,1,2,0,-1,-1
1472088314525294,3,5,6,2,13,1,0,0
1472088314537406,4,15,-6,0,0,3,1,1
1472088314537406,-2,-4,-10,3,-3,-3,1,-2
1472088314545963,7,9,7,4,2,4,1,-1
1472088314545963,-1,-21,18,-5,-8,1,-1,-4
1472088314561113,-3,3,-6,-1,2,-1,-6,-3
1472088314561113,-2,-11,4,-6,3,2,-2,-1
1472088314562562,-3,6,8,-3,-25,-4,-1,-1
1472088314562562,0,-5,-42,1,6,0,-1,-2
1472088314583421,2,-1,8,4,7,-3,2,2
1472088314583421,-4,-8,-40,-4,-9,-5,-1,-2
1472088314584923,-3,-9,32,-7,3,-3,0,-2
1472088314584923,-3,-1,1,-2,0,-6,-1,-2
1472088314597436,0,-9,-29,-4,-3,1,0,-2
1472088314597436,1,10,-1,-1,4,1,0,-1
1472088314605949,1,16,4,4,10,2,1,1
1472088314605949,-4,-18,-6,-8,-7,-1,-2,-4
1472088314621205,0,3,14,-2,1,-4,2,1
1472088314621205,0,14,-5,-2,-5,-5,0,-3
1472088314622712,5,-2,-1,-2,4,0,-1,1
1472088314622712,-9,-9,-4,-11,-6,-4,-1,0
1472088314643398,-1,-2,18,-9,-5,0,-2,0
1472088314643398,-1,9,-18,5,-1,-2,1,0
1472088314645376,4,3,16,5,2,1,0,0
1472088314645376,-3,-7,-29,-2,1,2,-1,0
1472088314657387,-3,3,18,1,-2,-3,0,-2
1472088314657387,-5,-21,-7,-11,-7,-1,-2,-1
1472088314665948,0,-5,-3,3,2,-1,-1,0
1472088314665948,4,8,23,1,-2,-1,0,0
1472088314680882,-5,1,-16,-2,-2,1,-4,-1
1472088314680882,0,-10,8,3,-2,0,-2,-2
1472088314682880,-1,3,-11,0,1,1,-1,0
1472088314682880,3,-2,-6,2,-3,0,-1,-2
1472088314703525,3,-9,-5,5,0,1,0,0
1472088314703525,-1,9,9,0,-2,-1,-1,0
1472088314704972,3,5,-20,-9,0,-3,-1,-1
1472088314704972,-5,-2,-3,0,-3,-1,-2,-2
1472088314717137,2,11,15,2,2,-2,0,0
1472088314717137,-4,1,-1,-6,-1,-2,0,1
1472088314726251,-3,1,1,1,-1,-3,1,1
1472088314726251,2,-7,1,3,-1,-1,-1,-2
1472088314741310,-4,-4,-11,0,1,0,0,-1
1472088314741310,3,4,0,-5,-4,-2,-2,2
1472088314741796,4,-2,10,-1,-2,-3,-1,-3
1472088314741796,-3,-2,2,3,0,2,-2,0
1472088314763886,-3,-6,-11,7,5,3,1,-1
1472088314763886,8,4,13,-2,0,1,0,-1
1472088314765383,-6,0,-19,5,1,0,0,2
1472088314765383,-2,-6,9,-11,-4,-2,-1,-1
1472088314786043,2,17,-15,-10,-4,-1,-1,0
1472088314786043,-2,-16,6,8,-1,-2,-3,0
1472088314787560,2,9,-5,-3,-2,-1,-2,-1
1472088314787560,-3,-12,-6,3,0,-1,-2,-3
1472088314801055,6,-5,0,0,-2,0,-1,0
1472088314801055,-11,11,-2,-2,-1,-1,-2,-2
1472088314802557,-1,-6,-2,-2,0,-2,-1,0
1472088314802557,1,6,1,1,-1,0,-3,0
1472088314824243,-1,-13,10,-2,-2,-5,2,0
1472088314824243,4,18,-17,-3,-1,-1,0,-2
1472088314825751,-8,-6,25,-4,-3,-1,-4,5
1472088314825751,-2,-1,-6,0,1,-2,1,1
1472088314837295,2,-10,9,-2,-2,-2,0,-2
1472088314837295,-4,18,11,3,1,-1,0,0
1472088314846174,1,-19,-75,-5,-1,-1,-1,-4
1472088314846174,-7,-9,-6,-21,1,0,1,-2
1472088314860694,2,3,12,5,-1,-1,-3,0
1472088314860694,-3,-15,-6,-4,-2,1,-2,-1
1472088314867299,-1,29,15,6,-2,-2,-1,-4
1472088314867299,9,-21,24,2,-4,-4,0,1
1472088314883387,-8,7,-18,-2,1,-1,-1,2
1472088314883387,-15,-8,1,-2,0,-2,-4,-9
1472088314885359,1,-2,7,4,-1,1,-2,-1
1472088314885359,-7,3,-17,-1,-2,1,-3,-5
1472088314897372,5,-2,4,-2,0,2,-1,-1
1472088314897372,6,9,13,2,0,0,0,2
1472088314906034,-1,-18,9,-8,1,-1,-1,-2
1472088314906034,3,4,-29,2,-1,0,-2,0
1472088314920198,-3,-8,0,-4,-1,-1,0,1
1472088314920198,0,-4,-10,-2,-1,-2,0,-3
1472088314927203,2,5,11,-2,-1,-1,0,-1
1472088314927203,-1,2,-4,3,-1,-3,0,2
1472088314943758,0,5,-2,6,0,-2,-2,-3
1472088314943758,2,-10,4,-16,-6,-5,-1,0
1472088314945289,-4,-5,-29,-7,-1,-2,0,0
1472088314945289,-3,9,24,4,-2,0,0,0
1472088314957387,1,-2,-8,-3,-2,0,-1,-2
1472088314957387,0,2,6,6,-2,2,0,0
1472088314965386,2,-3,10,1,-1,2,0,1
1472088314965386,-2,9,-5,2,2,2,-2,-1
1472088314980310,-3,-5,32,0,-2,1,-5,-7
1472088314980310,-1,-6,-4,3,1,1,-2,4
1472088314987235,-2,2,2,-3,-2,1,-2,-3
1472088314987235,3,-1,-3,-2,0,-1,-2,-1
1472088315003248,-5,-7,-3,-1,-1,-3,0,-1
1472088315003248,2,2,13,4,0,-2,0,-3
1472088315005751,-2,-3,-16,1,1,-3,1,-2
1472088315005751,1,5,2,7,-1,-2,-1,-2
1472088315025859,-2,-8,-7,-14,-1,-4,0,-1
1472088315025859,-3,0,-21,-1,-1,-1,0,-2
1472088315027360,1,2,6,-4,0,0,0,-1
1472088315027360,1,2,1,1,-1,-2,2,-1
1472088315040427,-1,-2,0,0,-1,-3,-1,-2
1472088315040427,-1,-9,-14,-1,0,2,-2,1
1472088315046977,0,20,49,2,-2,-2,0,2
1472088315046977,-3,-6,-36,-3,0,-2,-1,-3
1472088315063549,0,8,-4,-2,1,1,-1,-1
1472088315063549,-1,-4,0,2,0,-2,1,-2
1472088315065066,0,-15,5,-3,-2,-1,1,-1
1472088315065066,-4,3,18,-3,-2,-3,-1,-2
1472088315086042,1,0,-7,-1,-2,2,0,-2
1472088315086042,2,3,-6,-5,-2,-1,-2,-2
1472088315087512,-9,-14,-7,7,1,1,-1,0
1472088315087512,1,-1,3,-8,-4,-2,-1,-1
1472088315100630,-6,-6,1,-1,-1,-2,-2,-6
1472088315100630,-1,3,-3,2,0,1,0,0
1472088315107136,1,-7,13,4,-1,1,-3,-2
1472088315107136,-1,-7,-17,-6,-3,-3,-1,-1
1472088315123907,-1,-1,-1,-1,-3,-2,-2,1
1472088315123907,1,-6,13,8,1,-2,0,-2
1472088315125318,-5,14,-16,-10,2,2,-1,0
1472088315125318,-1,-4,14,4,1,-1,0,-2
1472088315145897,3,-21,-11,-15,-3,-1,-1,2
1472088315145897,-3,8,-12,3,-1,-2,-1,-4
1472088315147962,3,4,12,3,-1,-1,-1,5
1472088315147962,2,-2,10,3,0,-1,0,-1
1472088315160341,-8,3,-3,7,-2,-2,-1,-1
1472088315160341,4,2,16,-5,-1,-1,-2,2
1472088315167347,-1,-7,5,2,-2,-2,1,-3
1472088315167347,-1,-7,-12,-5,0,-1,1,0
1472088315183402,2,20,-1,3,-1,-1,-1,-2
1472088315183402,-7,-16,-6,-5,-1,-1,-2,0
1472088315184853,0,1,-10,-2,-4,-1,-2,-3
1472088315184853,0,-10,-6,0,0,0,-2,0
1472088315205985,-3,-2,-11,2,1,0,-1,1
1472088315205985,-2,4,19,3,-2,-1,0,-4
1472088315207933,-4,-6,-26,-11,-1,-3,-1,-1
1472088315207933,-1,-1,14,5,-1,-1,0,-1
1472088315220434,4,10,1,1,-1,1,0,0
1472088315220434,-5,-9,-26,-6,-2,-3,0,0
1472088315227446,0,-3,11,2,-1,-1,-1,0
1472088315227446,-4,5,-10,-3,0,1,-3,1
1472088315243278,5,8,7,9,2,0,0,3
1472088315243278,-4,-4,-19,-15,-5,-3,-3,-2
1472088315245279,2,-6,12,4,-2,-4,0,-3
1472088315245279,-2,-6,0,-3,-3,1,-1,-1
1472088315266220,-3,-3,2,-6,-3,-1,-2,-1
1472088315266220,7,5,4,1,3,-1,-1,0
1472088315267735,-6,-2,1,-2,-2,1,-1,-1
1472088315267735,2,-3,-18,-5,-3,-2,-2,-2
1472088315280302,-1,2,-2,3,-1,2,2,-1
1472088315280302,1,-1,10,0,-1,-3,-1,1
1472088315287129,-4,9,2,1,1,1,0,-3
1472088315287129,-5,1,-20,0,-2,1,-1,1
1472088315303688,-3,5,-15,-3,-2,-2,-2,-4
1472088315303688,0,-9,-12,-4,-1,1,0,0
1472088315305137,-1,1,8,0,-1,0,0,2
1472088315305137,3,1,-5,3,0,-1,-2,-1
1472088315333844,-7,6,6,-6,-1,-1,-1,-2
1472088315333844,-2,-11,2,2,-2,0,-2,-1
1472088315335320,5,0,-16,3,0,0,-2,-1
1472088315335320,-7,-4,7,-10,-1,-1,1,-1
1472088315340326,7,3,1,-4,-1,-2,0,-1
1472088315340326,-4,10,9,0,-2,1,-1,-1
1472088315347342,-2,-4,2,4,0,-1,2,-3
1472088315347342,2,2,5,2,-1,-2,-1,-3
1472088315363530,2,-9,10,-3,-1,-2,-4,2
1472088315363530,-7,2,4,0,-1,-2,0,-2
1472088315365032,5,12,5,4,-1,0,-3,0
1472088315365032,-3,1,-8,-1,-1,-1,0,0
1472088315386093,2,-13,-5,-9,-2,1,0,0
1472088315386093,1,9,2,1,0,-2,-1,-1
1472088315387612,-1,3,1,-2,-1,-3,0,0
1472088315387612,-5,-18,7,4,0,2,-1,-2
1472088315400590,4,1,-3,3,0,0,-2,-1
1472088315400590,-3,-1,-5,3,-1,-2,1,1
1472088315407556,2,-1,4,-8,-1,1,-1,-2
1472088315407556,-2,10,-10,2,0,-2,-1,1
1472088315423696,-1,-12,-14,2,-1,0,-4,0
1472088315423696,-3,8,28,-12,-5,-3,0,-1
1472088315425229,6,-15,6,6,4,0,1,3
1472088315425229,-2,3,11,-2,-4,-2,-1,-1
1472088315445887,0,3,-9,4,0,-1,0,-1
1472088315445887,3,-1,-4,2,1,3,4,1
1472088315447387,-6,-13,-6,-2,-2,-2,-4,2
1472088315447387,4,15,5,-12,-2,0,-2,-2
1472088315459497,-3,-4,5,3,0,0,0,-4
1472088315459497,-2,0,-6,-1,0,0,-3,-1
1472088315468521,0,2,-10,-1,-1,-3,-1,-2
1472088315468521,-1,5,4,4,2,1,-1,0
1472088315483514,-2,-5,23,-2,-5,-4,-2,-3
1472088315483514,-3,-2,3,-1,-2,-3,-1,-1
1472088315485035,1,2,-15,-3,-3,-1,-2,-1
1472088315485035,2,1,-3,0,-2,-2,-2,-3
1472088315506046,-10,2,-7,-2,2,0,1,-1
1472088315506046,3,-7,-5,-1,-1,-3,-1,0
1472088315507546,-3,-6,-6,-2,-4,-3,-3,-3
1472088315507546,-1,-2,-6,2,0,0,2,1
1472088315519628,0,2,-14,-4,1,-1,-1,-2
1472088315519628,-5,-10,3,-1,-2,0,-2,-4
1472088315528739,1,10,4,-5,0,0,-6,0
1472088315528739,0,-6,-6,4,-3,-4,-1,-2
1472088315543763,-3,-5,-1,3,-1,-1,-1,2
1472088315543763,-2,5,1,4,0,0,-2,-2
1472088315544264,-5,-7,-16,-2,0,-3,1,-2
1472088315544264,3,-8,13,-2,-1,1,-3,-1
1472088315566146,-1,0,4,2,-2,0,2,0
1472088315566146,1,1,8,-2,1,0,-4,1
1472088315567626,-6,2,2,-2,-1,-1,-3,-5
1472088315567626,5,3,-5,-2,0,-2,-1,-2
1472088315579796,-5,-4,-2,-3,-1,-1,2,0
1472088315579796,3,-3,-11,-2,0,-1,-1,1
1472088315588734,-6,2,14,1,-1,-2,-1,0
1472088315588734,0,2,-4,3,0,1,-1,1
1472088315603748,0,-1,-16,-5,-1,-1,-1,-3
1472088315603748,0,-1,7,-3,-1,-2,-1,0
1472088315605255,1,3,-26,0,-2,-1,-1,-2
1472088315605255,-2,-4,1,-4,-1,-2,0,1
1472088315626040,-1,-1,13,9,-2,-2,-2,0
1472088315626040,2,3,-13,-6,-3,-2,-2,1
1472088315627543,-2,-5,-8,3,-1,1,1,-1
1472088315627543,-3,4,-6,-11,-3,-2,-3,-5
1472088315639686,-4,-16,15,-2,-2,-1,-2,-2
1472088315639686,0,-3,-16,4,0,0,-1,-3
1472088315648677,2,-1,3,0,0,1,0,-1
1472088315648677,-4,-3,-10,0,-1,-2,0,1
1472088315663714,1,6,-1,-2,0,0,0,-1
1472088315663714,1,0,-2,-1,0,-2,1,-2
1472088315665314,-3,-4,-15,-3,-2,-1,0,1
1472088315665314,-1,-4,14,6,-2,0,4,3
1472088315686185,3,0,-16,-8,-2,-3,-1,3
1472088315686185,0,2,-2,2,-1,0,-4,-1
1472088315687686,-7,-1,6,1,1,-1,1,-1
1472088315687686,-1,-1,-6,-1,-1,0,-1,-2
1472088315699752,-1,-3,12,3,-1,-1,-2,-2
1472088315699752,2,2,5,-3,-2,-2,2,0
1472088315708776,3,-1,-8,-1,-1,-1,0,-4
1472088315708776,-1,-2,11,-1,-1,-1,-1,0
1472088315723534,-2,2,-2,-3,-2,-3,-2,-3
1472088315723534,-1,-2,-11,-1,-1,-1,-1,-1
1472088315724936,2,0,8,-3,0,0,0,2
1472088315724936,-3,-2,10,1,-1,-2,-1,-1
1472088315746026,1,7,-11,-3,0,-1,-1,-3
1472088315746026,2,7,-1,-1,-2,0,0,0
1472088315747512,-1,-4,7,1,-1,2,-1,0
1472088315747512,-2,0,-7,-4,-3,-3,-2,-1
1472088315759942,-3,3,4,-2,-1,-3,-2,-1
1472088315759942,-4,-5,12,-1,-1,-4,-2,-1
1472088315767944,1,0,-4,0,1,0,1,-2
1472088315767944,0,0,-17,2,0,-1,-2,-1
1472088315783595,-2,-1,7,-1,-2,0,-1,1
1472088315783595,1,-7,-13,-4,-2,-1,-1,0
1472088315785097,-1,4,14,1,-1,-2,0,2
1472088315785097,-2,-4,-8,0,0,0,0,-1
1472088315806104,-2,2,-3,-1,0,-1,-2,-1
1472088315806104,1,-9,-4,-3,-1,-2,-1,-1
1472088315807574,-4,4,-20,-3,-2,-2,-1,0
1472088315807574,-2,1,0,-2,0,-2,1,0
1472088315819667,3,-6,-10,0,-1,-1,-1,-1
1472088315819667,-2,4,13,8,1,2,3,0
1472088315828649,4,0,-28,-8,-3,-2,0,0
1472088315828649,-2,-5,7,-3,-2,-1,1,-1
1472088315843356,-7,0,-14,-2,-2,-1,-4,-6
1472088315843356,-3,0,8,-1,0,0,-2,0
1472088315844859,-1,1,27,-2,-2,-3,-2,0
1472088315844859,-7,5,-1,1,1,1,-1,-1
1472088315866041,2,-17,1,1,1,-1,1,0
1472088315866041,-5,-1,-2,-2,-3,-1,-1,-1
1472088315867543,-4,-5,5,-2,-4,-3,-1,-2
1472088315867543,11,4,7,1,-2,0,-5,-1
1472088315879611,-8,2,6,-1,-2,-2,0,-1
1472088315879611,2,-17,-74,-7,-1,-1,-1,2
1472088315888620,-4,12,42,-1,-1,-3,-2,-4
1472088315888620,-3,-10,-6,-3,-2,-3,-2,1
1472088315903708,3,15,7,2,0,0,-3,-5
1472088315903708,-7,-10,-7,0,1,-2,-2,-5
1472088315905215,-1,8,-6,0,3,2,2,1
1472088315905215,2,-8,-15,-3,-1,0,-1,-2
1472088315925856,3,7,12,-1,-4,-2,2,1
1472088315925856,-3,2,8,0,-1,2,3,3
1472088315927814,11,-4,-8,1,-1,-6,-2,0
1472088315927814,-15,5,4,2,2,-3,0,-7
1472088315948658,2,-9,-16,-2,0,1,2,0
1472088315948658,-1,5,14,-2,-2,-2,-4,-7
1472088315950066,-1,-1,4,3,0,4,6,0
1472088315950066,5,-4,17,-4,0,0,-1,0
1472088315963210,5,-1,1,0,0,-4,0,3
1472088315963210,-15,10,7,-2,-3,4,-2,-6
1472088315969757,-4,-5,0,2,-1,-11,-6,2
1472088315969757,8,2,-11,-1,-2,3,1,-5
1472088315986354,-11,-18,-2,-3,-3,-1,0,7
1472088315986354,11,2,10,4,1,-3,2,-1
1472088315987798,-7,-1,-9,-2,0,1,-1,-2
1472088315987798,2,2,-6,2,0,-1,-1,2
1472088316008431,-2,4,18,-1,-1,-1,-1,-3
1472088316008431,2,1,7,-1,-1,-3,-2,2
1472088316010417,-1,-5,-33,-2,-2,2,-3,-2
1472088316010417,-3,-6,-7,-1,-2,-3,-4,0
1472088316023529,0,2,4,1,-1,0,-2,-3
1472088316023529,1,-1,4,-1,-2,-2,-1,2
1472088316025028,2,-2,-6,-1,0,1,-2,-2
1472088316025028,-2,-1,18,2,0,0,0,-1
1472088316046206,0,1,-11,-5,-1,-1,-2,-1
1472088316046206,-4,-6,-1,-1,-4,-2,0,2
1472088316047657,1,-7,-5,-1,-3,1,0,-2
1472088316047657,-2,0,7,1,-1,-2,-2,-1
1472088316068724,2,1,-8,-5,-1,-1,0,1
1472088316068724,2,0,-3,-1,-4,-2,-2,-3
1472088316070337,1,-3,-1,-2,0,0,0,-1
1472088316070337,-2,-1,3,4,-2,1,-2,0
1472088316082839,1,2,2,10,-1,0,-1,0
1472088316082839,0,1,3,-6,0,0,0,2
1472088316089850,-1,-2,10,-9,-3,-1,1,-1
1472088316089850,1,1,-12,-5,-3,-2,1,0
1472088316105909,0,3,12,3,2,1,-1,-1
1472088316105909,-3,-14,-19,-6,-2,-3,0,-4
1472088316107411,-2,9,14,6,0,2,-2,2
1472088316107411,-3,-13,5,1,-2,-4,-1,-2
1472088316128704,-7,-1,3,-1,-1,-3,-2,-2
1472088316128704,-2,0,-9,1,1,-1,-2,-2
1472088316130157,0,-1,8,-2,-1,-1,1,-1
1472088316130157,-5,0,-12,-3,-3,-3,0,0
1472088316143216,1,0,-3,0,-1,-2,-1,1
1472088316143216,0,2,7,0,-2,-1,-2,0
1472088316149581,-4,-4,-12,-4,-2,-2,0,-1
1472088316149581,0,2,-4,0,-1,1,-1,0
1472088316166247,2,-1,-5,-3,-2,0,1,-2
1472088316166247,-1,2,2,-3,0,-1,0,-3
1472088316167761,0,0,-8,1,-2,-2,-1,-1
1472088316167761,-3,-1,20,0,0,0,-2,1
1472088316188752,1,-2,-46,-9,-2,-2,-1,-1
1472088316188752,-6,-1,2,1,0,2,-1,0
1472088316190273,1,-12,3,-1,-1,0,-2,-3
1472088316190273,-3,0,-12,0,1,-1,0,1
1472088316202807,-1,4,3,0,0,0,1,-2
1472088316202807,3,3,2,0,-2,-4,-3,0
1472088316209915,-2,-6,-3,3,0,1,-1,0
1472088316209915,1,6,3,-5,-1,-1,0,-1
1472088316226095,-2,-8,-7,1,-1,-1,-1,-1
1472088316226095,-2,6,41,1,-1,-1,1,0
1472088316227597,-2,-3,-14,-2,-1,-2,-2,2
1472088316227597,0,0,-6,-4,0,1,1,-1
1472088316248735,-5,8,1,0,-1,0,-2,-1
1472088316248735,-1,-14,-5,0,0,-1,-1,-2
1472088316250328,2,7,6,2,-1,-1,-1,0
1472088316250328,2,-2,-3,-2,-1,-2,-1,-2
1472088316262758,2,-4,-1,1,0,1,0,-1
1472088316262758,0,6,-12,-1,-1,0,0,-1
1472088316269805,-3,-3,-15,-1,-2,-2,1,-2
1472088316269805,-3,0,12,-2,-2,-1,0,-3
1472088316285956,-3,-4,17,-1,0,-3,0,-1
1472088316285956,7,-1,-15,-2,-1,0,1,0
1472088316287367,-7,-8,-7,-4,-4,-3,-4,-5
1472088316287367,1,3,-12,-2,-1,-1,0,-2
1472088316308895,2,1,-2,1,-1,0,0,-1
1472088316308895,-3,-1,13,0,0,-2,0,-1
1472088316310897,1,2,-2,0,1,0,0,1
1472088316310897,0,-7,-2,-2,-2,-2,0,0
1472088316331350,-5,-4,4,1,-2,-2,-1,1
1472088316331350,1,3,-12,-2,0,-1,-3,1
1472088316332847,1,-5,22,3,0,-2,-2,-1
1472088316332847,-2,-6,-31,4,-1,-3,-2,0
1472088316345872,-6,5,-2,-7,0,1,0,-1
1472088316345872,-4,-1,-1,-4,-3,-4,-2,-5
1472088316346873,2,3,7,-5,-1,-1,-1,2
1472088316346873,1,1,15,3,-2,0,-4,-4
1472088316368889,-3,-7,-20,-5,-1,-1,-2,-1
1472088316368889,-1,-4,-3,3,0,0,-1,-1
1472088316370478,-5,4,10,2,1,-1,2,1
1472088316370478,0,8,-11,-6,-2,-1,-2,0
1472088316383040,5,-15,16,5,1,0,1,-2
1472088316383040,-2,-4,-33,-12,-2,-2,1,-1
1472088316389505,2,2,2,0,-3,-1,-2,-3
1472088316389505,0,4,7,5,0,0,-2,1
1472088316406060,4,3,0,-5,-2,0,-3,-3
1472088316406060,-2,-3,-18,2,0,-3,-1,1
1472088316407521,-1,-2,-3,-1,1,-1,0,0
1472088316407521,0,2,4,-1,0,-2,-1,0
1472088316427912,2,0,9,-5,-2,-1,0,-1
1472088316427912,-4,1,-2,4,-1,1,0,0
1472088316430335,-2,-2,0,-4,0,-2,-2,0
1472088316430335,-3,-1,8,0,-1,-1,0,-1
1472088316442481,1,-1,-13,0,-3,0,-1,2
1472088316442481,-2,5,13,0,-1,1,-1,1
1472088316451010,3,1,6,0,-2,-2,0,-3
1472088316451010,-4,-3,-1,-2,0,0,-1,0
1472088316466168,-3,-7,-14,2,-1,0,-2,-2
1472088316466168,2,3,11,-1,0,-2,-1,1
1472088316467674,-6,-3,-5,-3,-1,1,0,-3
1472088316467674,2,1,4,-2,0,0,0,0
1472088316488583,-3,1,-4,-1,-2,-3,-1,-2
1472088316488583,-2,-2,-5,0,0,0,-1,-2
1472088316490083,3,-2,12,2,0,-1,-1,-1
1472088316490083,-6,-5,-11,-5,-2,0,-2,0
1472088316511176,-3,0,1,-2,0,-2,-1,-1
1472088316511176,0,8,6,0,1,0,0,-3
1472088316512628,0,-8,-12,2,-1,-2,-1,0
1472088316512628,-3,-5,-4,-9,-3,-1,-1,0
1472088316526176,-2,-3,1,1,-1,-1,-2,0
1472088316526176,-2,3,21,2,0,1,-2,1
1472088316527667,3,7,0,-2,-1,0,1,0
1472088316527667,3,-12,-31,-7,-2,-1,0,-2
1472088316548786,-5,-1,-5,3,0,-1,-1,0
1472088316548786,0,-3,-4,-1,-1,-3,0,-1
1472088316550273,-4,1,4,5,-1,-1,-2,-1
1472088316550273,0,1,19,0,-3,-2,0,0
1472088316562355,3,5,12,0,1,2,-2,-3
1472088316562355,-2,-7,-41,-5,-2,1,1,-2
1472088316570869,-7,-2,1,-5,-3,-1,1,-1
1472088316570869,2,1,15,5,0,-1,-3,-2
1472088316586083,-1,0,1,0,-1,-2,0,-2
1472088316586083,-1,-4,7,4,0,-1,-1,1
1472088316587533,2,3,-5,-3,0,1,-3,-1
1472088316587533,-2,2,0,3,1,-1,-1,0
1472088316608707,0,-5,7,0,0,-1,0,-1
1472088316608707,0,-3,6,0,-3,-2,-2,2
1472088316610188,-2,-3,-11,-4,0,0,-1,-2
1472088316610188,-3,-5,-3,-2,-1,-3,-2,0
1472088316630931,1,3,0,-3,-1,-1,-1,0
1472088316630931,-2,-3,7,-1,-3,0,-1,-4
1472088316632528,2,-4,-6,-4,-2,1,-2,0
1472088316632528,-3,2,3,3,1,1,2,-1
1472088316646196,1,3,-1,-2,-3,-1,-3,1
1472088316646196,1,-5,-8,0,-2,-1,-1,0
1472088316647646,-4,5,18,-4,-1,-3,-1,-1
1472088316647646,0,-1,-16,-8,-1,-3,0,-2
1472088316668817,1,-3,-7,2,-1,0,0,1
1472088316668817,-5,1,2,-4,-2,-1,-3,-2
1472088316670304,0,-1,6,7,1,0,-1,3
1472088316670304,3,-4,-12,-5,-2,1,0,-2
1472088316682344,-2,-2,-15,-2,-1,-3,-2,-2
1472088316682344,1,0,19,4,-2,-2,-1,-2
1472088316690885,0,1,5,-3,-1,0,-1,1
1472088316690885,-2,-1,-2,-2,-1,0,-3,1
1472088316704946,1,9,-8,-1,0,0,2,2
1472088316704946,1,-7,3,-4,-2,-2,-3,-4
1472088316712454,-1,2,-1,2,-2,0,1,-3
1472088316712454,0,3,8,1,1,-2,-1,-1
1472088316728505,-3,-4,-16,-1,-2,-3,-1,-2
1472088316728505,1,3,25,-1,0,1,0,2
1472088316729987,0,-6,-29,-4,0,-3,-1,-2
1472088316729987,3,5,14,2,0,2,0,-2
1472088316742068,-8,-3,9,-1,-1,1,-3,-3
1472088316742068,1,-2,-21,-3,0,1,-1,-1
1472088316751138,-6,4,5,0,1,-2,-1,-1
1472088316751138,-1,-6,-1,-4,-4,-2,-1,2
1472088316766206,-5,-3,7,2,-2,-1,-1,-3
1472088316766206,1,3,2,-3,-2,0,-1,-1
1472088316767709,-1,-9,-9,1,-1,-1,0,-6
1472088316767709,3,3,3,5,0,1,1,0
1472088316788282,-2,-5,8,0,1,0,0,-1
1472088316788282,1,-7,-16,-2,0,0,0,0
1472088316790284,4,1,-15,-7,-1,0,-2,0
1472088316790284,-12,-4,2,0,-1,-2,-1,-3
1472088316802307,13,2,10,-4,-2,-2,-3,0
1472088316802307,-8,12,-1,3,0,-2,-1,-5
1472088316811177,3,-3,3,2,-1,1,1,2
1472088316811177,1,-6,-2,0,-1,-2,-1,-3
1472088316826345,-1,5,4,-3,-1,-1,-1,2
1472088316826345,-2,-6,3,-3,-1,2,-1,-1
1472088316827863,-1,1,9,-1,-4,-4,-2,2
1472088316827863,1,-2,-36,-1,-1,-1,0,-2
1472088316848379,-1,-3,3,-2,-1,1,-3,-1
1472088316848379,-1,4,0,1,-2,-3,0,1
1472088316849880,-7,-7,-11,-2,-2,-3,1,-2
1472088316849880,2,5,17,2,-1,-2,-2,-2
1472088316862399,-1,-9,-15,-2,-3,-3,2,-1
1472088316862399,4,12,-2,1,1,0,3,4
1472088316871010,-2,-8,11,-1,-3,2,4,-7
1472088316871010,-3,8,-3,-2,-1,1,-5,3
1472088316885088,-4,-13,-8,-3,-1,4,-7,-5
1472088316885088,-4,-2,2,-3,-1,0,-3,-2
1472088316887540,-1,7,-3,1,-2,-15,-4,-3
1472088316887540,1,-17,-2,0,-1,-1,3,1
1472088316908611,-8,2,3,-2,-2,1,3,1
1472088316908611,4,-3,1,3,0,-3,-2,0
1472088316910070,-4,0,-13,-4,1,3,-1,0
1472088316910070,-5,2,0,-5,-1,-1,0,-1
1472088316930984,0,-1,-4,-2,-3,-5,-5,-1
1472088316930984,-2,-1,1,0,0,0,-1,-3
1472088316932447,-1,-2,-5,-2,-1,1,-1,0
1472088316932447,-1,-4,-1,1,-1,-1,0,-3
1472088316946029,1,8,12,1,-2,0,0,-2
1472088316946029,-3,-14,-1,-5,-4,-2,0,0
1472088316947527,1,-6,-16,-2,0,3,-1,2
1472088316947527,-3,-3,4,2,-2,0,-3,-3
1472088316968699,1,13,-6,-1,-1,-3,1,1
1472088316968699,-3,-12,-5,-1,-1,1,1,-1
1472088316970151,-1,6,12,2,0,0,-3,-1
1472088316970151,-1,-17,-5,-1,-1,-2,2,-1
1472088316991134,0,-2,3,1,0,3,2,0
1472088316991134,-2,-24,1,-2,-3,-7,-4,-3
1472088316992651,-2,14,-9,-6,-4,-1,-1,-4
1472088316992651,-7,26,15,-1,-2,-3,-3,-1
1472088317006148,4,-7,2,1,0,-4,-4,2
1472088317006148,-2,-11,-1,1,3,17,-5,-3
1472088317007650,0,-10,5,-1,-4,-11,0,-3
1472088317007650,2,5,-2,-4,-1,-3,-1,6
1472088317028750,-3,3,0,-1,-2,-4,-1,-9
1472088317028750,1,-1,0,-2,-2,3,9,0
1472088317030274,4,7,7,3,1,2,-6,5
1472088317030274,-1,-10,0,0,-1,8,0,-3
1472088317050953,-4,-9,-6,-3,-3,-6,0,0
1472088317050953,1,6,-9,0,1,-3,-3,1
1472088317052949,-1,0,-3,-3,-1,-1,3,0
1472088317052949,0,2,4,2,-2,-3,-3,-2
1472088317065476,1,-2,33,4,-1,6,0,3
1472088317065476,-5,8,-21,-5,-3,-10,-4,-4
1472088317071991,-2,-7,-18,2,-1,2,0,1
1472088317071991,0,-3,17,-4,-1,-3,-4,1
1472088317088638,2,-2,-22,-1,-1,-3,-1,-2
1472088317088638,-1,3,9,-2,-5,-3,1,-1
1472088317090110,1,-4,-4,-1,1,1,0,0
1472088317090110,-2,-9,-3,-1,-1,0,2,-2
