timestamp,emg1,emg2,emg3,emg4,emg5,emg6,emg7,emg8
1470262319418257,-1,-2,-2,-6,0,-1,-2,-2
1470262319418257,-1,-1,-3,-1,-3,-4,-1,5
1470262319419758,-1,-1,-9,-6,-1,3,1,-2
1470262319419758,-2,-5,3,0,0,0,-1,2
1470262319432770,-1,-4,-6,1,1,-2,-2,-7
1470262319432770,-2,1,2,1,-2,-3,1,0
1470262319439275,-1,-3,-4,-1,-3,-2,-3,-2
1470262319439275,-1,-1,0,-1,1,-2,-1,0
1470262319455790,-3,-2,0,0,-1,1,1,0
1470262319455790,1,-2,1,1,0,1,1,0
1470262319457291,0,2,1,2,-1,0,0,-3
1470262319457291,-2,1,-2,0,-3,-2,0,1
1470262319478311,1,-2,-1,-3,0,0,-1,2
1470262319478311,0,-1,-4,0,0,-1,1,1
1470262319479812,-6,1,1,-2,-2,-2,-4,-1
1470262319479812,4,0,-2,1,2,-1,1,1
1470262319491823,-4,-2,3,0,-2,-2,0,0
1470262319491823,3,-1,-2,-1,-1,-2,0,0
1470262319500832,0,-5,-3,0,-1,0,1,4
1470262319500832,-1,0,-6,-1,-2,0,-1,-5
1470262319515843,1,1,-2,0,1,-3,-5,-4
1470262319515843,-5,-3,-2,-2,-2,0,1,2
1470262319517347,-3,5,0,0,0,0,3,0
1470262319517347,0,1,8,-1,-3,1,0,0
1470262319538364,0,1,0,4,-1,-3,-1,-1
1470262319538364,-3,3,2,-2,0,0,-1,-2
1470262319539866,0,-3,0,1,0,3,-2,1
1470262319539866,-5,-3,-1,1,-3,-1,1,-1
1470262319551876,-1,3,-1,2,-1,-2,-2,1
1470262319551876,-1,-3,0,0,-2,-3,1,0
1470262319561885,-1,2,-6,-4,2,-1,-3,2
1470262319561885,-3,-5,0,0,1,-1,1,-1
1470262319575397,-3,-2,5,0,-1,-2,1,0
1470262319575397,-2,2,4,3,2,0,-4,-1
1470262319581903,-1,-2,-4,-3,-1,-1,1,-3
1470262319581903,1,-3,-8,-3,-2,-1,-2,0
1470262319598419,-1,0,-1,1,-1,-1,2,-2
1470262319598419,-1,-3,-1,-1,-2,-2,-2,0
1470262319599920,-1,-1,-6,0,1,1,-2,-5
1470262319599920,0,0,1,-2,0,-1,-3,-1
1470262319611930,0,0,2,0,-1,-3,0,-3
1470262319611930,1,-2,-8,-3,-1,1,-1,-1
1470262319620938,1,-4,5,2,-3,-1,-3,-1
1470262319620938,3,0,-3,1,-1,-1,0,-3
1470262319635951,-1,0,-6,-5,0,1,2,-2
1470262319635951,-2,1,7,0,-1,-2,0,-4
1470262319637453,-2,-4,-3,-1,0,-1,-4,2
1470262319637453,-1,-1,2,0,3,-2,0,1
1470262319658472,-2,1,-6,-3,-2,-3,-3,0
1470262319658472,-4,-2,-2,3,-2,-1,-2,-3
1470262319659973,-1,-4,-2,-3,-2,-1,-2,-1
1470262319659973,-4,-7,2,-1,-3,-2,1,0
1470262319671985,1,0,4,2,0,1,-2,1
1470262319671985,-3,-8,-16,-4,-2,-4,0,-4
1470262319680992,-2,4,9,1,-1,-3,-2,-3
1470262319680992,-3,-3,-7,-2,-2,-1,-2,1
1470262319696005,-1,-2,1,-2,-3,1,0,0
1470262319696005,1,-5,-1,-2,-4,-3,0,2
1470262319697507,-1,-1,5,0,1,0,0,-4
1470262319697507,0,3,8,1,1,1,0,0
1470262319718527,-1,-4,-12,0,-2,3,-1,0
1470262319718527,-1,0,2,0,-1,-1,-1,3
1470262319720027,-1,0,3,-5,-1,-3,3,-3
1470262319720027,-4,-2,-3,-1,0,-1,2,0
1470262319732038,0,2,-4,1,-1,-2,-7,2
1470262319732038,-1,2,4,1,-2,-2,0,-4
1470262319741046,1,1,-6,1,0,-3,-3,-2
1470262319741046,-5,-2,-2,-1,-5,0,-3,-6
1470262319755559,-1,-6,2,-3,-1,-2,3,2
1470262319755559,-1,-1,-12,-3,2,-1,-5,-5
1470262319757562,-3,3,7,-1,-1,1,-2,0
1470262319757562,-2,-2,-1,-2,-3,-3,-3,-2
1470262319778079,0,-3,0,0,-1,-2,-1,-2
1470262319778079,-1,1,-6,-2,2,0,1,0
1470262319780081,-1,-1,2,2,-4,-2,2,-1
1470262319780081,2,-1,-15,-2,-1,-2,-2,0
1470262319792091,-3,3,4,2,-1,2,1,-3
1470262319792091,-2,0,-2,-2,-1,0,0,-1
1470262319801099,-2,-2,-9,-1,-1,-2,-3,1
1470262319801099,0,6,1,-2,-1,1,-4,-1
1470262319815613,2,-2,-1,-1,-2,-2,-1,0
1470262319815613,-2,-4,2,2,-2,-3,1,-2
1470262319817115,2,0,-8,0,-4,1,-1,-2
1470262319817115,-6,-1,7,0,0,-3,-5,-5
1470262319838134,2,-1,-8,-1,-1,-2,-3,-2
1470262319838134,2,1,4,1,-1,-1,4,3
1470262319839635,-1,-4,-4,-2,-1,-1,-2,-3
1470262319839635,1,-1,-2,-1,1,-1,0,3
1470262319852146,-2,4,2,0,-2,-1,-2,-3
1470262319852146,-1,3,8,1,-3,-4,-5,0
1470262319860654,-2,5,-7,-2,-1,-2,-1,1
1470262319860654,-2,-1,-1,-1,-1,-1,1,0
1470262319875667,-1,-2,-1,0,-2,-4,1,-2
1470262319875667,0,2,-1,-1,2,1,-4,0
1470262319877168,0,0,3,-1,-3,-3,0,0
1470262319877168,-1,1,-2,-1,1,-1,2,1
1470262319898187,-2,-2,5,-4,-2,0,0,-3
1470262319898187,-3,-2,0,-1,1,0,-3,1
1470262319900188,-3,-3,-3,-3,-4,-1,-2,1
1470262319900188,3,-4,2,1,2,1,-3,1
1470262319911699,1,-4,-11,-2,-3,-1,-1,-2
1470262319911699,1,-4,4,0,-2,-1,0,-2
1470262319920708,-6,-4,-1,-3,-3,-2,-2,1
1470262319920708,-2,-1,0,-2,-4,-1,0,-2
1470262319935721,-1,-4,2,-1,2,-2,1,6
1470262319935721,-3,2,-3,-4,-3,-1,-9,0
1470262319937222,3,-5,1,2,1,-1,0,-6
1470262319937222,0,-2,-8,-1,-3,0,-2,-1
1470262319958241,-1,-1,8,0,0,-2,-4,-2
1470262319958241,-3,2,-7,-2,0,1,5,2
1470262319959742,-2,-2,0,-3,-1,-1,-4,-3
1470262319959742,-1,-1,-1,2,-1,-1,-1,-1
1470262319980762,-2,-3,-4,3,-1,0,-3,2
1470262319980762,-1,-6,2,-3,-3,-1,2,-1
1470262319982263,0,0,-3,-1,-1,0,1,3
1470262319982263,2,-5,7,-3,0,-1,-1,-3
1470262319995774,1,0,-20,-5,0,4,2,-1
1470262319995774,-1,7,12,4,2,-2,-2,-2
1470262319997276,1,0,-3,-2,-3,-2,2,3
1470262319997276,-3,-1,0,0,-5,-2,-1,-4
1470262320018295,-2,-2,1,-3,-1,-3,-1,2
1470262320018295,1,-3,-5,-2,0,0,0,-2
1470262320019797,-3,-4,1,1,0,-3,-2,-1
1470262320019797,-1,0,-1,-1,-2,0,-2,-5
1470262320040816,-2,0,-5,-2,0,0,1,1
1470262320040816,3,-2,-4,-1,-1,0,-1,-2
1470262320042317,-3,2,2,-1,0,-2,-3,0
1470262320042317,-4,-6,-3,-4,-2,0,-2,3
1470262320055829,-1,-5,1,2,-1,-2,-3,0
1470262320055829,0,1,-4,-3,0,-3,-4,-1
1470262320057330,1,-3,-3,1,2,2,2,1
1470262320057330,-1,4,-4,-2,-2,-3,-1,-3
1470262320078349,0,-2,5,-1,0,-2,1,-2
1470262320078349,-4,-4,1,2,-2,-2,1,1
1470262320079851,-2,-3,5,1,-2,0,-2,-3
1470262320079851,-4,-3,-14,-4,-2,-2,-1,0
1470262320100871,0,-2,3,1,-1,-2,-2,-2
1470262320100871,-2,-2,-26,-7,-1,0,-2,-2
1470262320102370,1,4,9,1,1,0,-1,-2
1470262320102370,-2,-2,0,-3,0,0,0,1
1470262320115382,-3,1,4,1,-3,-1,-1,0
1470262320115382,0,4,10,1,-1,-4,-5,-2
1470262320121888,-5,-2,-14,-2,-3,-2,1,0
1470262320121888,3,-3,-1,-2,0,0,-1,-2
1470262320138402,-3,1,-2,0,0,1,0,-6
1470262320138402,0,1,4,3,0,2,1,0
1470262320139904,0,-1,-10,-5,-2,-2,0,-1
1470262320139904,-2,-3,9,3,0,0,-1,2
1470262320160922,-1,0,-1,-1,-1,-2,0,0
1470262320160922,-1,0,-3,-1,-1,1,0,-1
1470262320162424,-1,-2,2,-1,-1,0,-2,-5
1470262320162424,0,3,-5,-2,0,-1,-4,-2
1470262320175436,1,1,3,0,-3,-1,-2,1
1470262320175436,-1,-3,0,1,-1,-1,-1,3
1470262320181943,-6,0,-9,-1,-1,-4,-1,-5
1470262320181943,1,4,3,0,-3,1,1,-4
1470262320198456,-3,-4,2,-1,0,0,-1,2
1470262320198456,-1,-1,0,2,-1,-2,-7,-2
1470262320199958,0,-4,4,1,-1,0,2,-2
1470262320199958,0,-1,-2,1,0,-2,0,0
1470262320220976,-2,1,-4,1,-1,-1,-1,-4
1470262320220976,0,-4,0,-5,-1,1,4,-5
1470262320222478,-3,-1,2,2,0,0,-3,-3
1470262320222478,-1,3,-6,-2,2,-3,1,-2
1470262320234990,-3,-2,-2,-1,-2,-2,-1,-2
1470262320234990,-1,2,-3,-1,-2,-2,1,3
1470262320241997,3,1,5,0,0,2,1,2
1470262320241997,2,1,4,0,0,-3,-3,-1
1470262320258511,0,0,-9,-1,-2,-2,-4,-3
1470262320258511,0,-2,3,-3,-4,0,-3,-6
1470262320260012,-2,-2,-1,0,0,-2,0,1
1470262320260012,0,-3,-2,0,-2,0,0,-1
1470262320281031,-1,2,6,-1,0,-3,0,-1
1470262320281031,3,-4,-9,0,2,0,2,0
1470262320282531,-2,-1,1,-1,-1,1,-2,-1
1470262320282531,-2,0,-1,0,-4,-1,-2,-1
1470262320295043,-4,-2,0,-4,0,-1,-4,-4
1470262320295043,-1,-2,3,3,-1,2,3,1
1470262320302049,-2,2,0,-1,3,0,1,5
1470262320302049,0,-3,1,-3,0,0,-2,2
1470262320319568,-2,0,-9,1,0,-1,-1,-3
1470262320319568,-2,-5,14,0,0,-1,-1,-1
1470262320320067,1,0,-17,-3,-4,-2,-3,-5
1470262320320067,-4,-1,6,0,-2,-2,2,-1
1470262320340584,2,-5,3,-2,0,1,-2,-3
1470262320340584,-3,0,-7,-3,-2,-1,-2,3
1470262320342587,0,0,3,1,0,-1,-3,1
1470262320342587,-4,-4,-3,0,-1,0,-1,0
1470262320355097,-1,-1,-4,-1,-1,-1,0,-5
1470262320355097,-3,-2,1,-3,-2,-3,-1,-3
1470262320362104,0,2,-1,-1,-1,-1,0,0
1470262320362104,-3,0,-6,0,0,-2,2,0
1470262320378118,-4,0,0,-1,-3,1,0,3
1470262320378118,-2,-3,-2,0,0,-1,-5,-4
1470262320380120,0,-3,1,-3,-2,-1,0,-3
1470262320380120,0,-6,-5,-2,0,-2,-4,-4
1470262320400639,-2,1,4,0,0,0,1,1
1470262320400639,-1,-1,-6,0,-2,-3,-3,0
1470262320402640,-1,2,8,-2,-3,-1,-2,0
1470262320402640,-1,-1,-11,-1,-1,0,0,-2
1470262320414152,0,-3,2,1,1,-1,0,-2
1470262320414152,1,3,-1,0,0,-4,0,0
1470262320423158,-1,-5,1,1,-2,-2,0,0
1470262320423158,-2,-3,1,0,-1,0,1,0
1470262320438172,-3,3,0,-2,-3,-2,-5,-1
1470262320438172,-1,-2,-5,-3,-1,0,-1,-1
1470262320439673,-1,-1,0,-1,-1,0,-2,1
1470262320439673,-1,3,0,-3,0,-1,0,-1
1470262320460694,-2,-2,-5,-4,-2,-3,1,2
1470262320460694,0,1,4,0,-2,0,2,-3
1470262320462194,-6,-3,-4,-3,-2,-2,-1,-4
1470262320462194,-2,1,1,0,-1,0,-5,3
1470262320474205,1,-4,-6,0,-4,-2,0,1
1470262320474205,-4,0,1,2,2,-1,-3,-1
1470262320483213,1,-1,-9,-2,1,-3,0,-1
1470262320483213,-2,3,-4,4,0,1,0,2
1470262320498727,0,-3,-2,1,0,2,0,1
1470262320498727,0,0,8,-2,-3,-5,-4,2
1470262320499728,-4,-5,-8,-4,-1,0,1,-1
1470262320499728,0,-3,5,-3,0,-3,0,-3
1470262320520746,-3,-3,-3,1,0,-2,-4,-1
1470262320520746,2,-1,-6,-3,-2,0,-1,0
1470262320522248,3,1,9,4,2,1,1,-2
1470262320522248,-3,-2,-1,-2,-4,-1,-2,-2
1470262320534759,-1,2,1,-4,-1,-2,-1,-1
1470262320534759,0,3,-9,-3,1,1,0,-5
1470262320543267,0,1,4,0,-2,-3,0,-2
1470262320543267,-2,-1,-4,-1,-2,0,0,0
1470262320558280,1,3,0,-2,1,3,0,0
1470262320558280,-2,1,-4,1,1,0,-1,-3
1470262320559781,0,-1,-1,1,-1,0,-2,1
1470262320559781,-2,2,4,-1,0,-2,-5,-4
1470262320580801,-1,-3,0,0,-1,-1,-1,3
1470262320580801,-1,-2,-7,-3,-4,-2,2,2
1470262320582303,0,0,-4,-5,-3,-1,-1,0
1470262320582303,-1,-5,-1,-4,-3,-2,-1,-1
1470262320594312,3,-3,-1,2,-1,1,-1,0
1470262320594312,-1,-2,2,1,0,-1,-3,-1
1470262320603320,-3,1,5,1,1,-1,-2,-2
1470262320603320,-2,0,1,2,-2,0,0,-1
1470262320618334,-2,-1,-1,0,-1,-2,-2,-4
1470262320618334,-2,-3,1,-3,0,0,-2,0
1470262320619835,-1,1,2,0,-1,-2,1,-2
1470262320619835,-1,3,-14,-6,-2,-2,-1,1
1470262320640854,0,-1,11,1,0,-3,2,-1
1470262320640854,-2,-2,-3,1,-1,-2,0,1
1470262320642356,1,0,1,0,0,-1,0,0
1470262320642356,2,-5,-2,-1,-2,-2,-3,-4
1470262320654366,2,-1,-7,2,-1,-2,-2,-3
1470262320654366,-2,-4,-4,-1,-3,0,0,-3
1470262320663375,4,-3,-6,-1,-2,-1,-3,-1
1470262320663375,-1,-2,-1,1,-1,-2,1,-2
1470262320678388,-3,-5,1,-4,-2,2,-3,2
1470262320678388,1,0,2,-3,-1,-1,0,-4
1470262320679889,-2,1,12,0,-3,-4,-1,2
1470262320679889,-1,-2,-17,0,1,0,3,-1
1470262320700908,3,4,7,-1,-3,-3,-4,-1
1470262320700908,-2,-3,-2,2,1,1,0,0
1470262320702409,-4,-3,-10,-4,2,1,-1,-2
1470262320702409,2,2,10,1,1,0,-3,3
1470262320714420,-2,-2,-12,0,-3,-1,1,-2
1470262320714420,-2,1,5,-2,-3,0,-1,0
1470262320723428,-4,-6,-8,-1,-2,-1,-4,-4
1470262320723428,0,-3,-2,-1,-2,0,2,2
1470262320738441,-1,-1,1,1,2,0,1,-3
1470262320738441,0,0,4,1,0,-4,-3,0
1470262320739943,-1,-6,2,0,0,-1,-3,-4
1470262320739943,5,-4,-3,-2,1,2,0,-1
1470262320760962,-5,-3,2,0,-3,-2,0,1
1470262320760962,-1,0,3,1,0,-3,-3,-2
1470262320762463,0,-1,-9,-2,-1,-1,-1,-1
1470262320762463,-4,-8,-9,-1,0,-3,-5,-6
1470262320774474,1,2,9,-3,-2,-4,0,-1
1470262320774474,-4,-1,2,2,-1,-1,2,-4
1470262320783482,1,-1,-8,-4,-2,-1,-3,-2
1470262320783482,0,-1,12,1,-3,3,1,2
1470262320798495,-2,-1,-8,-2,0,-1,-3,-2
1470262320798495,-5,-6,-4,-1,-3,1,2,2
1470262320799997,2,1,0,-1,-1,0,0,4
1470262320799997,-2,2,2,-5,2,1,-1,0
1470262320821015,-7,-1,-2,0,0,2,-2,-2
1470262320821015,5,3,0,0,-1,-2,3,-1
1470262320822517,-1,1,-5,-3,-1,-1,-3,-2
1470262320822517,-5,0,4,0,0,-4,-1,0
1470262320834528,-3,3,2,0,0,0,0,0
1470262320834528,0,2,-12,-3,-1,0,-5,-2
1470262320843535,-3,-1,4,-1,-3,-2,-4,1
1470262320843535,-2,-3,-7,-3,-1,-2,-2,-5
1470262320858549,2,-3,-1,-4,-2,-2,1,-1
1470262320858549,4,-4,-8,-3,-1,0,1,3
1470262320860050,-2,1,0,0,-2,0,1,1
1470262320860050,-2,2,8,-1,-1,-2,-2,2
1470262320880569,1,1,-6,-3,-1,-2,-2,-1
1470262320880569,-2,1,-2,0,-1,-1,0,-1
1470262320882571,0,-1,-1,-2,0,0,0,-5
1470262320882571,-3,-3,-2,0,-2,-3,-2,-2
1470262320903089,-2,-5,-5,0,-1,0,-1,-1
1470262320903089,2,2,3,-1,2,-1,0,-1
1470262320904591,-1,0,4,-3,-2,-2,1,-1
1470262320904591,0,2,-1,-1,-2,-1,1,2
1470262320918604,2,-2,-2,-5,-1,-2,-4,-2
1470262320918604,-5,-1,2,-1,-2,0,-2,-3
1470262320919605,-4,0,-3,1,-1,-1,-4,-5
1470262320919605,1,-1,4,-1,-1,-2,-2,-2
1470262320940623,2,1,1,-3,-1,2,1,-2
1470262320940623,-5,-4,-4,-3,-2,-4,-3,-7
1470262320942624,2,-5,-3,-4,-4,-2,0,0
1470262320942624,-1,3,5,-1,-2,-2,-3,-4
1470262320963143,-2,-2,0,1,1,-2,-2,-2
1470262320963143,-2,-2,-1,2,1,1,0,1
1470262320964645,0,3,4,0,2,-1,-1,1
1470262320964645,0,-2,-2,0,-1,-1,-2,-3
1470262320978157,1,1,-1,0,-2,-1,-1,0
1470262320978157,2,3,8,-1,-1,-1,2,3
1470262320979658,-3,-5,-10,0,-1,2,-2,-2
1470262320979658,1,-5,-2,-1,0,0,2,-1
1470262321000678,-3,1,-10,-3,-1,-5,-4,-2
1470262321000678,-2,1,5,-2,0,-2,-4,1
1470262321002181,1,-2,-2,2,-3,-1,0,-3
1470262321002181,-1,-6,-2,-3,0,0,-3,2
1470262321023198,1,0,1,1,-1,1,2,-3
1470262321023198,-1,-5,-2,-3,-3,-1,-2,-2
1470262321024698,-1,-2,-7,-4,-2,-2,-1,-1
1470262321024698,1,0,5,4,0,-1,1,-2
1470262321037710,-1,1,-6,-1,-2,-2,0,0
1470262321037710,1,1,-3,0,-3,-1,0,-1
1470262321044216,1,-1,3,-2,1,1,0,0
1470262321044216,-2,2,-2,0,0,-2,-3,1
1470262321060731,-3,-1,1,-3,0,0,-1,1
1470262321060731,-2,-1,-6,-3,1,0,-2,-2
1470262321062232,0,-7,0,-1,-2,-1,-2,-1
1470262321062232,3,-3,-2,0,-2,-1,1,3
1470262321082751,-1,-3,5,-1,-1,-1,-1,-2
1470262321082751,1,-3,-2,0,1,-5,-1,-3
1470262321090758,-3,1,-2,-1,-1,-3,-2,-1
1470262321090758,-4,0,0,-4,0,1,0,0
1470262321097764,1,-3,-3,0,0,-1,-2,-1
1470262321097764,3,2,0,-1,-4,0,1,0
1470262321104269,-1,-1,-3,-2,0,-3,1,-2
1470262321104269,-3,0,4,-1,-3,0,0,-1
1470262321120785,1,-3,-9,-3,-2,-1,-5,5
1470262321120785,-6,0,1,-2,-1,-2,0,1
1470262321122287,0,-2,-1,0,-1,-1,-2,1
1470262321122287,1,-1,0,1,2,0,1,-1
1470262321143305,-2,-3,-7,-1,1,0,2,1
1470262321143305,0,-5,-1,-2,-3,-2,0,0
1470262321144808,0,3,3,-1,-3,-2,-3,1
1470262321144808,-1,-4,-8,1,0,0,-1,-3
1470262321157819,-3,-1,5,-1,-2,-1,0,0
1470262321157819,-2,0,-4,1,0,-1,0,-1
1470262321164324,0,2,-1,0,0,-1,0,1
1470262321164324,-3,-2,0,-3,-1,-3,-3,1
1470262321180839,-1,0,3,-1,3,-1,0,-2
1470262321180839,-1,-3,-10,2,-2,-3,-1,1
1470262321182340,-1,-1,5,-5,-3,0,0,-3
1470262321182340,-4,-3,3,2,1,-1,2,2
1470262321203358,-2,-3,-6,2,-5,-2,-1,-9
1470262321203358,-5,-2,3,-5,-2,0,0,2
1470262321204861,-2,-4,-10,-2,1,-1,-1,2
1470262321204861,3,1,-4,-5,-4,-3,-3,-4
1470262321217872,-2,1,7,1,-2,1,-1,2
1470262321217872,3,-1,-4,-1,0,0,-1,-2
1470262321224378,-2,-3,5,2,1,-1,-1,0
1470262321224378,-2,2,-6,-1,-2,-4,-1,-5
1470262321241393,0,1,3,0,-3,-2,-2,1
1470262321241393,0,0,1,-1,-1,-1,-4,-4
1470262321242895,-3,-3,-3,0,1,0,-4,-2
1470262321242895,-2,-1,5,-2,-3,-2,-1,-4
1470262321262412,0,0,-1,-2,0,-2,-1,0
1470262321262412,1,2,-1,-4,-3,-3,0,0
1470262321263413,-1,3,-2,-2,0,0,2,0
1470262321263413,-3,-1,-5,-2,-1,-2,-5,-2
1470262321276925,-1,-1,1,-1,-1,0,0,-3
1470262321276925,-1,0,5,1,1,1,-4,0
1470262321285432,-3,3,-2,0,-1,0,0,0
1470262321285432,3,1,-2,-2,-1,1,1,2
1470262321300446,0,-2,-1,2,2,-2,-4,-1
1470262321300446,-1,5,-5,-5,-1,-2,-2,-1
1470262321300947,1,-3,-6,-2,-2,-4,-3,-1
1470262321300947,1,-2,2,0,-1,1,-3,2
1470262321322966,0,1,-5,-3,-1,-3,-3,-1
1470262321322966,0,-5,4,-1,1,-2,0,0
1470262321323467,-2,-2,-6,1,-1,1,2,0
1470262321323467,-3,2,1,-3,-3,-4,0,0
1470262321336978,2,-3,1,0,1,-1,1,-4
1470262321336978,-2,-4,-7,0,2,0,0,0
1470262321344986,0,1,-5,-1,-5,-2,-3,-2
1470262321344986,1,6,3,0,0,-1,1,-2
1470262321360000,-4,0,-5,-1,-4,-1,-6,-4
1470262321360000,-3,1,-1,-1,0,-1,-1,-2
1470262321361000,-1,-5,4,0,2,0,1,0
1470262321361000,-1,-4,-4,0,0,-2,-2,0
1470262321382520,1,4,0,-1,-2,0,-1,1
1470262321382520,1,0,0,0,-1,-2,-2,-1
1470262321383521,-4,3,0,-1,-1,-2,-1,-1
1470262321383521,1,0,0,1,-2,1,1,-3
1470262321397034,1,5,-1,-1,-3,0,0,-1
1470262321397034,0,-4,-4,1,-2,0,-2,2
1470262321405039,-1,-1,10,-1,1,-3,-2,2
1470262321405039,-1,-2,-11,-2,0,-1,-1,-2
1470262321420054,-3,-4,7,-1,0,2,-2,-1
1470262321420054,-4,-1,-7,-4,0,-1,-1,-6
1470262321421055,1,3,5,1,-1,-2,0,-3
1470262321421055,-1,-3,5,0,-2,-1,-4,0
1470262321442574,0,2,-4,1,0,0,2,0
1470262321442574,-3,-2,2,0,-3,-3,0,0
1470262321443575,-4,-3,-3,-2,0,0,-1,-2
1470262321443575,0,3,-4,-5,-3,0,-2,-4
1470262321457087,-1,-3,-3,1,-2,-2,-2,1
1470262321457087,-1,2,4,0,-1,0,-1,-2
1470262321465094,2,-1,-5,-2,-2,-2,-2,-3
1470262321465094,-1,-1,2,-1,-1,-2,0,1
1470262321480107,-2,-6,-2,-1,1,0,-1,-1
1470262321480107,0,-1,-3,-1,-1,-3,-3,0
1470262321481108,1,2,2,2,-1,1,-1,-2
1470262321481108,-3,-1,2,3,-1,-2,0,0
1470262321502627,-1,-1,-6,-3,-4,-3,-2,2
1470262321502627,1,-2,1,1,-3,2,-2,0
1470262321503128,-6,-1,-13,-6,0,-2,0,1
1470262321503128,2,-6,-8,0,0,-1,3,1
1470262321517142,-2,-4,-6,-2,-1,-3,-3,-2
1470262321517142,1,2,6,1,0,2,1,0
1470262321525147,1,1,9,0,-2,-1,0,-4
1470262321525147,-2,-2,-8,2,0,0,-2,1
1470262321540161,-3,0,0,-2,0,-1,1,-5
1470262321540161,-3,-3,-6,-5,-1,0,-1,-2
1470262321540662,-1,-2,2,0,-2,-1,-3,-2
1470262321540662,-4,-1,3,-2,0,1,-1,1
1470262321562682,-1,1,-1,-2,1,0,0,-1
1470262321562682,0,-3,3,2,0,-2,-3,-1
1470262321563182,-1,-3,1,0,-1,-2,0,-3
1470262321563182,-4,-7,-3,-3,-2,-3,-5,-7
1470262321576695,2,0,-2,1,0,0,1,0
1470262321576695,0,0,2,-4,0,0,0,-1
1470262321585201,1,-2,-4,-1,0,-5,-1,2
1470262321585201,1,-4,-4,-4,1,1,2,-1
1470262321600215,-1,2,1,-2,-3,-2,-1,2
1470262321600215,-3,-2,7,0,-2,-1,0,-3
1470262321600715,0,0,-9,1,-1,0,-3,-1
1470262321600715,0,-1,7,-3,-1,0,2,2
1470262321622736,3,-4,-6,1,0,0,-5,-3
1470262321622736,-1,1,-3,2,-2,-3,-1,-1
1470262321623235,-4,0,2,1,-2,-2,-5,-1
1470262321623235,-1,7,0,0,-3,1,-1,-2
1470262321636750,-3,0,-2,-2,0,-1,2,0
1470262321636750,-1,-2,-6,0,-1,-2,-1,-5
1470262321645256,0,0,4,-4,1,-2,0,1
1470262321645256,-4,-3,-2,-2,-3,-1,-2,-1
1470262321659769,-2,1,2,-2,-4,-2,-3,2
1470262321659769,-1,-1,-4,0,-1,1,1,1
1470262321660770,4,-1,3,1,2,0,2,3
1470262321660770,-1,1,0,0,0,-2,-1,0
1470262321682789,-1,1,-2,3,-1,0,1,-6
1470262321682789,-1,0,-5,-1,-3,-2,-1,1
1470262321683291,-3,-3,-1,-3,-2,-2,0,0
1470262321683291,1,3,-4,0,-1,-4,0,0
1470262321705810,0,1,-1,-1,0,-3,2,1
1470262321705810,-1,-6,1,0,0,-3,-3,-1
1470262321706310,0,3,-9,-4,-3,-2,-6,-5
1470262321706310,3,-1,0,-2,0,1,-1,-2
1470262321720322,-2,5,9,-3,0,1,-1,1
1470262321720322,4,0,-1,0,0,1,0,-2
1470262321720824,0,-2,2,1,0,0,2,-4
1470262321720824,0,-3,-1,-4,-1,-1,-1,1
1470262321742842,-3,-4,-4,2,0,-1,-2,-1
1470262321742842,-1,1,2,-2,0,0,2,2
1470262321743344,2,0,0,-2,-3,-1,-2,-1
1470262321743344,-2,2,5,0,-1,-1,1,-1
1470262321756856,-2,-1,0,2,0,0,1,0
1470262321756856,-1,1,-5,-3,-1,1,-1,-1
1470262321765363,-2,-5,-3,1,-1,-1,-1,0
1470262321765363,-5,2,-2,3,0,-1,-2,1
1470262321780377,1,-2,-11,0,-2,-1,-1,-2
1470262321780377,0,2,4,-3,-2,0,0,0
1470262321780877,-2,-1,0,-1,-3,-1,-3,-2
1470262321780877,-5,1,-1,-4,-2,-1,-3,-3
1470262321802396,0,-1,3,-1,1,0,-2,-1
1470262321802396,0,-2,-5,1,-2,-3,-1,0
1470262321803398,-1,-1,0,1,0,0,-1,4
1470262321803398,1,-7,0,-2,-1,-2,-1,-2
1470262321816910,-1,5,0,-2,-5,-3,-4,-2
1470262321816910,-2,-1,-9,-3,-1,-2,-1,-3
1470262321825417,-1,0,-3,-1,0,0,-1,-2
1470262321825417,2,-1,3,3,0,1,-1,1
1470262321840430,-3,-2,0,-1,1,-1,-2,-2
1470262321840430,-4,-2,-2,0,-1,0,-2,-3
1470262321840932,-2,-2,-3,0,1,-1,2,-3
1470262321840932,0,0,-4,0,-2,-1,-2,-1
1470262321862951,0,-5,-6,-2,-2,0,2,-1
1470262321862951,-3,-2,-7,-2,-1,-4,-2,0
1470262321863452,-1,1,0,1,-1,-1,1,-6
1470262321863452,-1,0,-7,-2,-2,-1,-1,-2
1470262321885971,-3,-2,9,0,-2,-1,-1,-5
1470262321885971,-1,-3,-2,-1,-2,0,-3,5
1470262321886472,-2,2,-3,-2,-1,-2,2,0
1470262321886472,1,-1,3,-4,1,-2,0,1
1470262321899984,1,-5,-1,0,0,1,1,2
1470262321899984,-3,-2,1,0,-2,-1,-3,0
1470262321900988,2,-1,2,-1,-2,0,1,3
1470262321900988,-1,-3,-4,0,1,0,-1,-2
1470262321922504,-3,1,6,1,-3,-1,-4,-1
1470262321922504,1,0,-7,-2,-1,-1,-2,-5
1470262321923505,-6,-4,5,-2,-4,-3,-2,-2
1470262321923505,0,-1,-7,-2,-1,-4,2,-4
1470262321946026,3,-1,-2,-2,-1,-3,-2,0
1470262321946026,-1,-3,1,3,-1,-1,2,-2
1470262321946526,1,-3,-3,-3,0,-1,-1,1
1470262321946526,-1,-1,-1,-1,-2,-1,-2,-4
1470262321960038,-5,-8,-3,-4,-4,-3,2,-1
1470262321960038,2,0,2,-3,-1,-2,-4,1
1470262321961039,0,-4,-11,1,2,3,1,0
1470262321961039,-1,-2,6,0,-3,1,0,2
1470262321982559,-1,-3,-3,-1,-1,-2,1,-2
1470262321982559,-4,1,2,-2,-1,0,0,2
1470262321983559,0,0,0,2,-2,-1,-1,-2
1470262321983559,-2,-5,-3,0,0,1,-2,-3
1470262322005579,-4,1,-7,0,-1,0,-3,2
1470262322005579,1,0,10,-2,-1,0,-2,-5
1470262322006580,-2,-1,-11,-2,-1,-1,-1,-2
1470262322006580,-3,-3,0,-2,-1,-2,-1,2
1470262322020092,-2,-5,-3,-3,0,-2,0,-4
1470262322020092,-2,0,0,0,-1,-2,0,-1
1470262322021093,1,-3,3,1,1,-1,-1,1
1470262322021093,-1,2,-3,-4,-2,-2,-1,2
1470262322042612,-2,0,-3,-3,-1,0,-1,0
1470262322042612,-2,1,-15,1,0,-3,-1,0
1470262322043113,-4,-5,13,-2,-2,-1,-1,-2
1470262322043113,-2,3,-11,-1,-1,-2,-6,-6
1470262322065634,3,1,7,3,1,0,0,2
1470262322065634,0,2,-2,-2,-2,-1,-3,-5
1470262322066634,0,-2,0,-3,-4,-2,-4,1
1470262322066634,-2,0,3,0,0,-1,-2,-2
1470262322080146,-1,1,-2,3,0,0,-1,-1
1470262322080146,-1,1,-4,-1,-1,-2,2,-1
1470262322081147,1,2,-3,-3,1,0,-3,0
1470262322081147,0,0,0,2,-2,-1,-1,1
1470262322102668,-1,5,-2,-4,2,1,-5,-5
1470262322102668,-1,0,-1,-1,0,2,1,2
1470262322103168,-2,0,1,1,-1,-1,1,-2
1470262322103168,0,0,-2,-1,-2,-4,0,2
1470262322125686,7,-3,0,0,-1,-1,-4,3
1470262322125686,0,0,-7,-2,-3,0,-2,-3
1470262322126687,-2,1,-1,-3,-1,-1,0,-2
1470262322126687,0,-2,4,-2,1,1,0,-3
1470262322140201,-3,2,-7,-2,-2,-4,1,0
1470262322140201,-2,-1,11,0,0,1,0,0
1470262322140701,1,-3,-2,-1,1,-1,-2,-3
1470262322140701,0,2,-3,3,-1,-3,-3,5
1470262322162720,-1,-1,7,0,0,1,3,-2
1470262322162720,-1,0,-4,-1,0,0,-3,-2
1470262322163221,-3,1,1,0,-3,0,-2,-6
1470262322163221,-2,-5,-3,0,1,0,1,-1
1470262322185740,1,0,-1,-3,-2,-1,-4,-2
1470262322185740,1,-5,6,1,-2,-2,-1,4
1470262322186741,-1,-5,-6,-6,-2,-1,1,1
1470262322186741,0,1,2,-3,-3,1,1,1
1470262322200754,0,-5,1,0,0,-1,1,0
1470262322200754,-3,-2,0,0,-3,-4,-2,-7
1470262322201255,-3,2,1,-1,-2,-2,2,0
1470262322201255,-3,-4,4,-1,0,0,-5,-3
1470262322222774,3,4,-11,0,-1,-1,0,-2
1470262322222774,-3,-2,7,-5,0,-3,0,2
1470262322223274,1,-3,-3,1,-1,0,0,-4
1470262322223274,-1,-2,4,-5,-1,-3,-6,-6
1470262322245794,-3,-5,-6,-1,0,-3,2,-3
1470262322245794,-2,-5,-6,2,-2,-2,0,-1
1470262322246795,-2,-1,2,-5,-1,-1,-3,-2
1470262322246795,-1,-3,-4,-1,-1,2,-1,0
1470262322260307,-4,-2,10,-2,0,-2,-3,-1
1470262322260307,-2,-1,-5,-2,-3,-3,1,-3
1470262322260808,-1,3,-15,-1,-3,2,-1,-2
1470262322260808,-2,-3,1,1,0,-1,0,2
1470262322282828,-4,2,-13,-5,-2,-1,-1,-1
1470262322282828,-1,1,-3,-3,0,0,-2,0
1470262322283329,-6,-5,1,0,-2,-1,-1,0
1470262322283329,1,-3,-2,2,1,0,3,-1
1470262322305848,0,0,5,0,-2,2,-4,2
1470262322305848,-3,0,-4,0,0,0,1,-5
1470262322306349,-1,-1,6,-1,0,-2,-3,0
1470262322306349,-1,2,-4,2,-2,1,-1,-2
1470262322320362,-3,-5,1,0,-2,-3,-2,-4
1470262322320362,4,-1,-4,-4,0,0,1,-1
1470262322320862,-1,-1,-5,-2,-1,-4,-1,-5
1470262322320862,-6,1,-3,-3,-3,-1,-1,-4
1470262322342382,-1,3,2,0,-2,1,-2,2
1470262322342382,-3,-4,0,-3,-2,-2,0,-4
1470262322343382,-1,0,-8,-1,-3,-3,-5,-1
1470262322343382,1,-5,0,-4,1,-2,0,0
1470262322365902,-4,3,-4,-3,-1,-1,0,0
1470262322365902,4,2,0,1,0,-1,1,1
1470262322366404,-1,1,5,2,-1,0,-1,4
1470262322366404,0,-2,1,0,-2,-2,-1,-3
1470262322379915,-1,-4,-10,-3,-3,-3,-1,2
1470262322379915,1,-3,1,0,-2,-1,-5,1
1470262322380916,1,-1,3,2,0,0,1,-2
1470262322380916,-1,-3,-2,-1,1,0,1,0
1470262322402435,1,-8,0,-2,1,-4,-3,-2
1470262322402435,-3,-2,2,1,-3,-1,1,1
1470262322403436,-2,-4,1,1,-1,-1,-2,-4
1470262322403436,0,1,-15,-1,-2,-3,-1,-1
1470262322425957,-1,0,3,1,-1,-1,0,0
1470262322425957,0,4,1,-2,-1,3,3,-3
1470262322426457,0,-9,-1,-1,-2,1,-2,-2
1470262322426457,-3,4,12,-4,-2,-2,1,-1
1470262322439468,1,-1,-10,0,1,1,2,-2
1470262322439468,-5,0,1,0,-2,-2,-2,3
1470262322447976,0,3,-2,-2,0,-3,0,3
1470262322447976,2,-2,3,1,-2,-2,2,-1
1470262322462490,-2,-3,1,-3,-4,-2,0,-4
1470262322462490,0,0,1,-1,1,-1,1,-2
1470262322463490,0,0,-2,-2,-3,-1,-5,-1
1470262322463490,2,-2,-8,-2,-3,-1,-3,-2
1470262322486011,-2,-1,0,-2,0,-2,1,0
1470262322486011,4,-1,-8,-1,0,2,2,0
1470262322486511,-2,1,-1,-4,-1,-3,-7,-3
1470262322486511,-1,-1,1,-2,0,1,-2,1
1470262322499523,0,2,-6,0,-3,-1,2,-4
1470262322499523,-2,0,2,-3,-3,0,2,2
1470262322507529,0,-2,-5,3,2,-1,2,1
1470262322507529,2,-1,1,-1,0,-3,-1,0
1470262322522543,-1,3,2,0,0,3,-4,-2
1470262322522543,-4,2,1,-1,0,-1,-1,1
1470262322523544,-1,-2,-4,0,-1,0,0,0
1470262322523544,-1,-1,4,0,0,0,-1,-2
1470262322545564,-5,-4,-5,-1,-3,-2,1,-3
1470262322545564,-1,-6,2,-1,-1,-1,-2,-6
1470262322546565,2,-1,1,-4,-1,4,1,2
1470262322546565,1,1,-2,2,-1,-1,-1,1
1470262322559577,1,-4,1,1,1,-1,-4,1
1470262322559577,-3,-5,1,-1,-2,-3,-6,-4
1470262322567584,-1,-2,-8,-3,-2,-2,3,-7
1470262322567584,-4,-1,2,0,-3,0,3,-1
1470262322582599,1,-2,-1,-2,-1,1,-1,-3
1470262322582599,3,-3,-1,0,-1,-3,-4,1
1470262322583098,-3,1,-3,0,0,-2,0,0
1470262322583098,0,1,-1,-1,1,0,-1,-1
1470262322605617,-1,-3,-3,-3,2,-2,-4,-1
1470262322605617,-2,-2,-2,-3,-3,0,-1,-4
1470262322606619,1,-4,4,2,-3,-2,-1,-1
1470262322606619,-1,-3,-9,-3,-1,0,-3,1
1470262322619631,-1,-2,5,1,-2,2,-1,4
1470262322619631,-4,-2,-11,-4,1,-3,-1,-5
1470262322635144,-1,1,11,-1,0,-3,0,0
1470262322635144,-2,-2,-11,-3,-5,-4,-5,1
1470262322642651,-3,0,3,-1,-2,-3,-1,-2
1470262322642651,0,0,-1,-1,-1,3,-1,3
1470262322643151,2,-1,-2,-3,1,2,1,-3
1470262322643151,-2,-2,1,-1,1,-1,-2,-2
1470262322665671,-2,-2,-2,-2,0,-3,-2,-1
1470262322665671,-3,-1,0,0,-1,1,-1,1
1470262322666674,-2,-4,-8,-2,-4,-3,-1,2
1470262322666674,0,0,6,0,0,1,-2,0
1470262322679684,1,0,-11,2,-1,1,3,1
1470262322679684,-1,1,3,-3,0,-2,-2,2
1470262322687693,0,0,-4,-1,-2,0,-1,0
1470262322687693,2,-3,6,0,-1,1,1,-2
1470262322702706,2,2,-3,1,-1,-3,-2,2
1470262322702706,1,-5,-1,0,-1,-4,-1,-4
1470262322703206,-3,2,-2,-2,-2,-3,-6,-1
1470262322703206,-1,-3,-5,1,1,-1,2,1
1470262322725725,-1,0,10,-5,-2,-3,0,-2
1470262322725725,1,-3,-19,-4,-1,-2,-1,2
1470262322726727,0,-3,1,-3,-1,0,-1,0
1470262322726727,-1,0,-2,1,-1,0,-3,-1
1470262322739739,-1,-3,1,-4,0,-1,-2,-2
1470262322739739,-2,-1,0,-3,-3,1,-3,2
1470262322747745,-2,-4,-9,-3,-2,1,3,-1
1470262322747745,-1,-2,-2,-3,-2,-4,-1,-3
1470262322762759,1,-2,0,-3,0,1,3,-3
1470262322762759,-1,0,0,-1,-3,-1,-1,-2
1470262322763259,-2,1,5,1,-1,-2,-1,-1
1470262322763259,-3,-4,-1,-2,-2,0,-1,-5
1470262322785780,-1,1,0,0,1,-1,-2,1
1470262322785780,1,0,-5,1,0,-1,-1,-2
1470262322786781,-2,1,-1,-1,-2,-1,-3,-1
1470262322786781,1,-3,-2,-2,-1,-4,1,1
1470262322808300,-3,-5,8,3,-3,-2,-2,0
1470262322808300,-1,0,-10,1,-1,-5,-1,-1
1470262322808800,-2,-2,1,-3,-1,3,-1,2
1470262322808800,2,1,-3,0,-1,1,-1,-1
1470262322822813,-1,-1,0,-1,-4,1,0,-1
1470262322822813,-1,-4,2,0,-1,-2,-5,-1
1470262322823314,-2,4,-4,1,1,-2,1,0
1470262322823314,-6,1,1,0,0,-2,0,-3
1470262322845834,-1,-7,-8,-2,-2,1,-2,-3
1470262322845834,-1,0,6,1,0,0,2,-5
1470262322846834,0,1,4,-1,1,-2,-2,-1
1470262322846834,-2,-2,-11,-2,0,1,-1,1
1470262322868354,-1,0,6,1,-3,-2,-3,1
1470262322868354,0,5,-13,-3,-3,0,-1,-3
1470262322868854,-1,-2,7,2,1,-1,0,-6
1470262322868854,-1,1,5,0,-4,-1,-2,1
1470262322882867,1,-6,-10,-5,-2,-2,-2,-6
1470262322882867,-2,-2,6,2,2,-1,1,5
1470262322883367,2,0,-2,1,-1,-1,-3,-1
1470262322883367,-2,0,-3,-4,-2,-3,-2,-2
1470262322905887,-1,-1,0,0,-1,0,-2,3
1470262322905887,-1,-2,0,1,1,1,1,0
1470262322906388,-2,-2,-2,-1,-2,0,-1,-2
1470262322906388,-3,1,5,-3,-2,-4,1,2
1470262322928408,0,2,-6,1,0,-1,0,-2
1470262322928408,0,3,7,-3,-2,-1,-4,-3
1470262322928908,-3,-5,-4,-2,-1,-2,-1,0
1470262322928908,-2,-1,-2,2,0,0,-3,-1
1470262322942420,-5,0,-7,-4,-2,-5,-1,-3
1470262322942420,0,1,2,1,-1,-2,-2,2
1470262322943421,-1,0,-3,-3,2,0,-1,-1
1470262322943421,-2,-1,5,0,-2,-2,-2,-1
1470262322965941,1,-6,-6,-1,-1,-1,-1,0
1470262322965941,-3,-5,2,2,-2,-2,2,-2
1470262322966441,2,-2,-3,-3,0,-3,2,0
1470262322966441,2,-4,3,-2,-1,0,-1,-3
1470262322995969,-4,2,-9,-3,0,-2,-3,5
1470262322995969,-2,-2,7,-2,-1,-1,-1,-1
1470262322996469,2,-4,-10,-1,-4,0,0,-1
1470262322996469,-1,3,5,-1,-1,0,-2,1
1470262323002475,0,1,2,-3,-1,0,0,0
1470262323002475,-2,-2,-3,1,0,-2,0,-3
1470262323003475,-2,-1,-3,0,0,0,-2,4
1470262323003475,0,-2,-5,-2,1,0,-3,-1
1470262323024994,1,3,2,-1,-1,0,-3,-1
1470262323024994,-2,-3,3,-1,-1,-1,-1,1
1470262323032502,-2,-2,0,-1,-2,-4,-3,3
1470262323032502,1,-1,-5,0,1,-2,-1,-3
1470262323048516,-1,0,1,-1,-3,-1,1,-1
1470262323048516,0,-5,-5,-1,-1,-1,-1,-2
1470262323049017,-2,-5,1,0,-1,1,-2,-2
1470262323049017,0,-4,-2,-1,-3,1,-1,-1
1470262323062528,-2,-7,-2,0,0,-3,0,2
1470262323062528,0,-1,-4,-5,-1,0,-1,-1
1470262323063529,-4,-4,5,-2,-5,-3,0,-3
1470262323063529,0,-3,-12,-2,1,0,-1,-1
1470262323085549,-1,2,5,-2,0,-3,-3,-1
1470262323085549,0,-1,0,1,-2,1,-1,0
1470262323086550,-3,0,-3,0,1,-2,1,-4
1470262323086550,-2,-5,-3,0,-3,-3,0,-3
1470262323108569,0,4,8,-3,-2,-1,-1,0
1470262323108569,-3,-1,0,-4,-4,-3,-7,-3
1470262323109070,-1,-1,-6,0,0,1,2,-2
1470262323109070,-3,-4,-1,-2,-2,-3,-2,0
1470262323122581,1,-1,-4,1,0,0,0,-1
1470262323122581,-4,-4,-2,-1,1,0,1,-3
1470262323123583,0,1,-1,-3,-2,-3,-3,-1
1470262323123583,0,3,-2,-4,-2,0,1,-1
1470262323145602,-2,-2,-2,-3,1,-2,-2,-1
1470262323145602,2,0,6,0,0,-1,-1,3
1470262323146604,0,-3,-8,-1,0,0,-2,-1
1470262323146604,-1,-1,-1,0,-1,-1,-1,-3
1470262323168122,-1,-4,4,0,-1,0,0,-4
1470262323168122,-1,-3,-2,-2,-1,-1,0,0
1470262323169124,-1,-2,1,0,-2,-3,-5,-2
1470262323169124,2,0,-4,-2,-3,-1,-2,-3
1470262323182636,-1,7,6,-1,-3,-1,1,-1
1470262323182636,-1,3,-1,-1,-1,-2,-1,-3
1470262323183138,0,1,2,-1,0,0,-1,-2
1470262323183138,0,1,-1,1,-2,0,-2,3
1470262323205658,-1,-2,-5,0,-1,-1,0,0
1470262323205658,-2,-2,-5,-2,-4,-2,-6,-6
1470262323206660,1,1,2,0,-1,-1,3,1
1470262323206660,-5,-4,-1,0,-1,0,2,2
1470262323228177,0,0,-5,1,-2,-1,-3,0
1470262323228177,-2,2,1,-1,-1,-2,0,3
1470262323229178,0,1,-6,-1,0,-1,-2,0
1470262323229178,-1,1,4,-3,-4,-4,-1,-2
1470262323241688,0,-1,-1,2,3,2,0,0
1470262323241688,3,-1,-2,-3,-1,-1,0,-5
1470262323250199,0,2,1,-2,-3,0,-3,0
1470262323250199,-6,-1,-2,-1,-2,-1,-2,-3
1470262323265711,-2,-6,-8,-6,-1,2,-1,-2
1470262323265711,2,1,1,-1,0,0,-2,0
1470262323266711,-3,-3,-6,-1,-1,-3,-1,-2
1470262323266711,-2,-1,8,1,-3,-2,-3,1
1470262323288231,-2,-6,-2,1,0,0,-1,-2
1470262323288231,-1,-3,-7,-1,-2,-1,1,-2
1470262323289231,2,-3,3,3,1,0,1,1
1470262323289231,2,-2,-2,-4,-1,-1,-1,-1
1470262323302244,-1,-1,-1,2,-1,-1,-2,-1
1470262323302244,0,3,-3,0,-2,1,3,2
1470262323310250,0,3,9,1,-2,1,-2,-1
1470262323310250,1,-1,-5,0,1,-3,-1,-5
1470262323325764,0,2,-3,-1,-1,0,0,2
1470262323325764,-2,-3,1,-2,1,-2,-1,0
1470262323326765,-1,0,-4,-1,-2,-3,-1,2
1470262323326765,1,-1,3,1,-1,0,0,0
1470262323348284,-1,3,-4,-4,-6,-3,0,-4
1470262323348284,0,-2,3,1,-1,-3,-1,1
1470262323349285,-5,-3,-2,-3,0,-1,-1,-4
1470262323349285,2,-2,-1,-2,1,0,1,1
1470262323362797,-2,-5,-1,0,0,-3,-1,-3
1470262323362797,-2,-4,0,-5,-1,0,-1,-4
1470262323363298,-3,-4,0,-1,-4,-2,-1,0
1470262323363298,0,0,-8,-2,-2,-1,0,0
1470262323385818,0,-3,2,-1,0,-1,0,-1
1470262323385818,0,3,0,1,0,1,2,3
1470262323386819,-2,-1,2,-1,-1,0,-1,-3
1470262323386819,-1,-1,4,0,0,-1,-1,0
1470262323408338,0,-1,-26,-3,-2,-4,2,-3
1470262323408338,-3,-5,9,1,0,-1,-5,0
1470262323409340,-2,0,-8,-3,-1,0,2,-3
1470262323409340,-2,0,4,-4,0,-2,-2,-1
1470262323421853,1,-3,2,-1,-3,-1,-2,0
1470262323421853,0,-1,-9,0,-4,0,-2,2
1470262323430358,2,0,3,-3,1,-3,-6,-3
1470262323430358,-6,-4,-2,1,0,0,-1,0
1470262323445871,-1,1,10,3,-2,-1,-1,-2
1470262323445871,-2,-2,-12,-5,-3,-4,-2,-5
1470262323446372,-1,-1,4,0,0,1,0,1
1470262323446372,-4,0,-3,-1,0,-1,-1,-1
1470262323468393,-4,-4,3,0,2,1,-4,-1
1470262323468393,-3,-1,-2,1,0,-2,2,-3
1470262323468893,-5,-2,-4,-1,-1,-1,0,-5
1470262323468893,-1,0,-6,-3,-1,-4,-3,-3
1470262323481906,-4,1,13,-2,-3,-3,0,0
1470262323481906,-1,1,-14,-4,-2,0,0,-1
1470262323490412,-1,4,1,1,0,-1,-1,0
1470262323490412,0,-3,0,-3,-2,-2,-2,3
1470262323505926,2,-1,-5,1,0,0,-1,0
1470262323505926,1,3,7,-1,1,0,-2,-1
1470262323506427,2,-2,-7,-2,-2,-2,-1,3
1470262323506427,-1,2,1,0,-1,0,0,-2
1470262323528446,-2,-2,-1,-1,-2,-2,-1,-4
1470262323528446,-2,-7,-4,-3,-3,-1,1,0
1470262323528947,-2,-1,-1,-3,-2,0,0,1
1470262323528947,1,0,9,1,-2,1,-1,-1
1470262323550966,-1,1,-4,-2,-1,-3,-3,1
1470262323550966,-2,-6,-4,-1,-1,-1,0,0
1470262323551467,1,-1,-4,-1,-3,0,1,-2
1470262323551467,-1,-2,-1,-2,-2,-4,-2,-2
1470262323565980,-3,-2,-3,0,-1,0,2,-5
1470262323565980,0,1,3,0,1,-1,-2,1
1470262323566481,0,-2,-1,-3,-2,-2,-1,2
1470262323566481,-2,-1,-4,2,3,1,1,-1
1470262323588500,3,1,0,1,1,-1,-2,3
1470262323588500,-3,0,-1,-1,-1,-2,0,-4
1470262323589501,-4,-3,-1,-2,-2,-2,-1,-5
1470262323589501,1,-2,-5,-2,0,0,0,0
1470262323603013,1,2,4,1,-2,0,2,-1
1470262323603013,-1,-2,-3,1,1,2,-3,2
1470262323610020,0,0,4,-1,0,-2,0,0
1470262323610020,-1,-5,-1,0,-1,0,3,-2
1470262323625534,-2,-2,-6,-5,-1,-3,-3,-3
1470262323625534,-2,1,-1,0,-2,0,2,-2
1470262323626535,0,-1,-4,1,-1,0,-1,-3
1470262323626535,1,-4,-5,1,-3,-1,-4,-1
1470262323648554,1,-3,6,-2,-1,-2,-1,-4
1470262323648554,-2,-4,-5,-1,-2,-1,0,-4
1470262323650055,-2,5,3,-4,1,-3,-2,-2
1470262323650055,-1,-2,2,-1,-2,-3,0,1
1470262323662067,-3,-4,-19,-1,-2,-3,-3,1
1470262323662067,-2,4,9,1,-1,1,-3,-2
1470262323670075,-1,-6,-2,-1,1,0,1,1
1470262323670075,-1,1,-4,-1,0,0,0,0
1470262323685087,-4,-1,5,-1,0,0,-1,0
1470262323685087,-2,-3,-3,-4,-2,-2,0,-1
1470262323692093,0,-2,-2,2,-1,0,0,-3
1470262323692093,0,0,5,1,0,-3,-4,-2
1470262323708608,-3,1,-5,0,0,0,2,3
1470262323708608,-2,-6,2,-1,0,-2,3,-2
1470262323710111,-1,0,-1,-2,-2,0,-1,6
1470262323710111,0,0,-4,-3,-4,-1,-1,-1
1470262323721620,-2,2,3,-2,2,1,0,1
1470262323721620,2,0,-3,-1,-2,-2,-2,-4
1470262323731130,-1,-2,-12,-1,-2,0,-2,-2
1470262323731130,-2,1,6,-2,0,1,0,1
1470262323744140,2,-1,4,-1,-3,-2,0,0
1470262323744140,-4,-4,-5,0,-3,0,-1,-3
1470262323753648,-1,-6,-3,0,-2,-1,-2,2
1470262323753648,-3,0,-9,-3,1,-1,-2,-3
1470262323775668,-1,0,1,0,0,0,-1,0
1470262323775668,1,-2,-4,2,2,-1,-2,4
1470262323777670,-3,-1,6,0,-2,-3,0,0
1470262323777670,0,-6,-7,-1,0,1,-3,-3
1470262323791182,0,2,-2,-1,-3,-2,-2,-2
1470262323791182,-3,-2,-10,-3,-1,0,-1,1
1470262323792685,-4,1,-1,2,1,-1,-3,-4
1470262323792685,-1,1,5,-3,-2,-2,3,2
1470262323805695,0,-1,-6,-2,-2,-2,-3,-7
1470262323805695,0,5,6,1,0,0,-2,-4
1470262323807697,0,-3,-11,-4,-1,0,0,-1
1470262323807697,-4,4,5,1,-2,-1,-2,0
1470262323828216,-4,-3,-5,0,-1,0,-1,-3
1470262323828216,1,0,5,-2,-2,-2,-3,0
1470262323830217,0,-1,-1,-1,-2,-1,-1,-4
1470262323830217,0,-2,-2,-2,-1,-1,-2,-4
1470262323850736,-2,-1,-9,0,1,0,0,1
1470262323850736,-3,0,6,-2,-3,-5,-2,-2
1470262323852238,-2,-2,3,-2,-3,-3,-2,2
1470262323852238,-1,-5,-10,-2,-1,0,0,1
1470262323865748,1,-3,11,1,-2,1,-1,-2
1470262323865748,-1,-2,2,0,-1,0,-1,0
1470262323871754,-2,-4,-9,-4,-2,-2,0,-4
1470262323871754,-3,-3,3,-1,0,-4,-7,-5
1470262323888270,0,1,-3,-2,1,-2,-1,0
1470262323888270,-1,2,-6,0,1,-3,2,-2
1470262323889771,-2,-5,4,-1,-2,0,-1,-3
1470262323889771,1,2,-9,-3,-4,-2,-1,-3
1470262323910790,-2,0,9,0,-2,1,-2,0
1470262323910790,-2,0,-3,-4,-1,-3,-1,-2
1470262323912292,-2,-3,2,-1,-1,-1,-2,2
1470262323912292,-1,-1,-7,1,0,-2,1,-2
1470262323925302,1,-4,0,-1,-3,-2,0,2
1470262323925302,4,-2,-5,-1,-2,-2,1,0
1470262323931808,-1,2,6,-2,-3,-1,-2,-1
1470262323931808,-1,-1,0,3,0,-1,4,-2
1470262323948323,-4,-1,-1,-5,-2,0,2,0
1470262323948323,4,2,-3,-1,0,-2,-4,1
1470262323949825,-1,2,-2,1,-2,-1,-1,1
1470262323949825,-4,2,-1,-3,-2,0,-1,-5
1470262323970844,-3,1,-4,-2,-1,-2,0,-3
1470262323970844,-2,-3,1,0,-1,-1,-1,1
1470262323972345,1,4,-6,0,0,1,0,-1
1470262323972345,-1,2,4,0,-1,-1,-5,3
1470262323985356,0,0,-3,1,1,-2,-3,-1
1470262323985356,-2,0,5,-2,-1,0,2,0
1470262323991862,0,-3,-4,0,0,0,-2,0
1470262323991862,-2,2,-4,-1,-1,-1,3,3
1470262324008377,-1,-2,4,1,-1,-2,-1,-2
1470262324008377,2,-3,-3,3,-2,1,-3,-5
1470262324009880,-7,-2,-3,-2,-1,-2,-2,-2
1470262324009880,-1,-6,-1,-4,-2,-1,0,1
1470262324030897,0,4,2,-2,-1,-2,-1,3
1470262324030897,-3,-1,-4,0,0,0,2,-1
1470262324032399,2,4,7,0,0,2,1,-3
1470262324032399,-5,-7,-9,0,1,-2,1,-3
1470262324044909,1,1,2,-1,-3,-1,-1,1
1470262324044909,1,-5,-7,-2,-2,0,0,0
1470262324051916,-1,-2,4,0,0,-2,-2,0
1470262324051916,1,3,8,2,0,0,-1,-2
1470262324068431,-3,-8,-14,-4,-1,-1,-1,-1
1470262324068431,-3,2,2,-2,1,0,-2,-1
1470262324070433,2,-1,-3,1,-3,0,2,-2
1470262324070433,0,0,1,-2,-2,0,-3,-4
1470262324090951,0,-1,-1,-1,0,-2,-1,0
1470262324090951,-2,-2,-5,-5,-4,-3,1,-1
1470262324092453,-3,-7,0,0,-2,-2,-3,0
1470262324092453,-1,-1,-5,-2,-4,-1,-2,4
1470262324104965,6,-2,8,2,0,1,2,-3
1470262324104965,-1,1,-8,-1,-2,0,-2,-1
1470262324111970,0,-3,2,-2,-2,-3,-3,-5
1470262324111970,0,0,2,0,1,3,4,-2
1470262324127984,-1,0,-16,-1,-3,-2,-2,-1
1470262324127984,-2,1,19,-1,-4,-1,-1,1
1470262324129987,0,-3,-7,-2,-1,-2,0,-3
1470262324129987,0,-1,-3,-3,-2,0,-4,0
1470262324151005,1,-1,4,1,0,1,1,-1
1470262324151005,-2,-3,-3,0,1,-2,1,0
1470262324152508,-2,0,-4,-3,-1,-1,0,-2
1470262324152508,-1,-6,-2,-1,-1,-3,-2,-4
1470262324165018,-1,-2,-1,-1,-2,0,-1,1
1470262324165018,-2,-3,-4,-2,1,0,-3,-3
1470262324172024,-1,3,2,-2,0,0,0,1
1470262324172024,1,-4,-1,-1,-1,-4,1,1
1470262324188039,-1,1,-2,-2,-1,-3,-3,-2
1470262324188039,-2,-4,-2,-2,0,-1,1,2
1470262324190041,-2,-1,1,0,-1,3,-1,2
1470262324190041,-3,2,3,2,-5,-2,1,-2
1470262324218067,-2,2,-3,-2,-2,-2,-3,1
1470262324218067,0,0,5,-3,-3,-2,-1,-2
1470262324220069,-2,0,-15,-2,1,-1,-2,2
1470262324220069,0,-2,6,-1,-3,-1,-5,-1
1470262324225073,0,-3,4,0,0,-1,2,-4
1470262324225073,-3,-2,-7,0,-2,-3,-4,-1
1470262324232080,-2,-3,5,-2,0,0,1,0
1470262324232080,2,4,-17,-4,-1,-1,-1,0
1470262324248593,-3,1,3,1,0,-3,-2,3
1470262324248593,2,2,1,0,0,0,-1,-3
1470262324250094,-1,1,-5,1,0,-1,-1,-4
1470262324250094,-1,-4,0,-4,-1,-3,-2,1
1470262324270612,-1,-1,-8,-2,-1,-2,-2,0
1470262324270612,-1,4,0,0,1,-5,0,0
1470262324272114,1,-3,-2,0,-2,-1,-3,-4
1470262324272114,-2,0,-1,-3,-4,-1,0,-1
1470262324284625,0,-5,2,-3,-1,-1,-1,-4
1470262324284625,3,-2,-5,0,-2,-3,-4,-2
1470262324293633,0,1,-2,0,-1,-2,1,1
1470262324293633,0,-2,-4,1,-1,-1,-1,0
1470262324308147,-3,-3,0,0,-2,-1,1,-1
1470262324308147,-2,-2,1,-1,0,1,-1,-1
1470262324310148,-2,-3,3,-1,-1,-2,0,-4
1470262324310148,0,-2,-3,2,1,-2,-1,0
1470262324330667,0,2,-4,-4,-4,-3,0,-1
1470262324330667,0,1,-1,-1,0,1,-2,-2
1470262324332668,-1,1,-1,0,-1,-3,-2,0
1470262324332668,-2,0,0,-1,0,-1,2,2
1470262324344679,1,-3,2,-1,0,1,-3,-4
1470262324344679,-4,1,-14,-5,-6,-2,-1,-3
1470262324353200,0,0,1,-3,1,1,-2,1
1470262324353200,-3,-1,4,0,0,-3,-2,-1
1470262324368201,0,0,-2,-3,1,1,1,-4
1470262324368201,1,-1,10,-3,0,0,-1,0
1470262324369702,-2,2,-5,3,-1,-1,-1,-2
1470262324369702,2,-2,-2,-3,-3,0,0,-1
1470262324390721,0,1,1,4,-1,-2,-2,-4
1470262324390721,0,-3,-3,1,-2,0,0,4
1470262324392222,0,-2,2,-4,0,0,-1,-1
1470262324392222,0,2,6,1,0,1,1,-1
1470262324404759,-5,1,-2,-3,-2,-1,-1,0
1470262324404759,-2,1,2,-1,-1,-2,0,-2
1470262324413240,3,-3,0,-2,-3,-4,-1,-1
1470262324413240,2,-4,-5,2,-3,-2,-4,-1
1470262324428282,-1,-1,0,-3,1,-1,2,3
1470262324428282,2,0,-2,4,-2,-1,-1,-2
1470262324429756,-3,-1,-1,-1,-1,-1,0,-3
1470262324429756,0,1,0,-4,-1,-1,0,-5
1470262324451277,0,1,-3,3,-3,0,-2,3
1470262324451277,-3,-1,-6,-4,-1,-3,-3,-2
1470262324452871,-2,-5,-1,-2,-2,1,-2,0
1470262324452871,-2,-2,2,0,-2,-1,-2,-1
1470262324464787,-4,-1,-8,-1,-1,-1,0,-1
1470262324464787,-1,-4,4,0,0,-3,1,-1
1470262324473295,-3,-3,-9,-3,-1,-1,2,3
1470262324473295,0,-1,1,0,1,0,-1,-4
1470262324488310,-2,-2,-7,-2,0,-2,0,0
1470262324488310,0,-1,-2,-1,0,0,-2,-2
1470262324489810,1,2,5,0,-2,-1,0,-5
1470262324489810,-5,-1,-6,-2,0,-1,1,-2
1470262324510845,-2,-3,2,-4,-2,0,-1,-3
1470262324510845,1,-3,-2,-2,-3,-2,2,2
1470262324512330,-1,-2,-1,-3,-2,-2,-3,2
1470262324512330,1,1,-2,-3,0,1,1,2
1470262324533382,1,-4,-2,2,-1,0,-1,0
1470262324533382,-1,-3,4,0,1,-1,0,0
1470262324534851,1,-5,-7,-1,-3,0,0,0
1470262324534851,-1,-1,-7,-4,0,-2,-4,-2
1470262324548366,-3,-3,3,1,-2,-2,-2,-2
1470262324548366,-1,1,2,0,-1,0,-2,-3
1470262324549864,3,-1,-3,0,0,-1,5,2
1470262324549864,-2,-2,-3,-4,-3,-1,-2,-1
1470262324570883,-1,1,4,-4,-1,-2,-2,-2
1470262324570883,-1,-2,-4,-1,0,0,-1,0
1470262324572383,-1,5,4,-1,-3,0,1,-1
1470262324572383,-8,-3,-6,0,-2,1,-3,2
1470262324584394,0,3,0,1,0,-2,0,0
1470262324584394,-1,3,-1,-3,-3,0,0,-1
1470262324593429,-3,-2,-6,-2,-1,0,-3,0
1470262324593429,4,-1,5,0,-1,-2,2,2
1470262324608422,2,-2,-1,0,-1,0,-2,-2
1470262324608422,0,0,-3,0,-1,-2,-4,-1
1470262324609944,-4,-2,-1,0,-1,-2,1,1
1470262324609944,-2,-1,0,-2,-2,-3,-1,-4
1470262324630936,0,0,-3,-1,-3,0,1,-2
1470262324630936,1,0,3,-3,-2,-1,-1,1
1470262324632439,1,-1,-5,-2,0,-1,-2,-6
1470262324632439,0,-3,6,3,-1,-1,1,0
1470262324644475,-1,1,-11,-2,-1,0,-1,-2
1470262324644475,0,2,2,-2,0,0,0,-1
1470262324660963,0,-1,2,0,0,-2,-2,1
1470262324660963,-2,-2,-1,0,-1,0,-1,-1
1470262324668471,-3,-1,-2,-1,-2,1,0,1
1470262324668471,-2,-1,3,1,-1,1,0,0
1470262324669972,-2,2,0,-4,-2,-4,-1,-4
1470262324669972,-1,-1,8,0,-2,-3,-2,-3
1470262324691018,-1,-3,-10,-2,0,-1,-2,1
1470262324691018,-2,-5,-7,0,1,-1,-1,-3
1470262324692493,1,1,6,1,-3,-1,2,1
1470262324692493,-2,-4,1,-2,-2,-1,-3,1
1470262324713010,-1,2,-5,-4,-2,-3,-3,0
1470262324713010,-1,-2,-3,-3,-2,-1,-1,-2
1470262324715512,-3,-3,4,0,1,2,0,-1
1470262324715512,1,1,-8,-1,-2,0,0,3
1470262324728524,0,-3,-3,-2,-2,-5,0,-2
1470262324728524,0,-2,1,-1,-2,-2,0,0
1470262324730024,-1,2,-3,-2,-2,-2,-4,-1
1470262324730024,2,0,-6,-5,2,0,0,0
1470262324751062,-1,0,10,3,-1,0,-1,0
1470262324751062,-1,-4,-10,-3,-2,1,1,-1
1470262324752546,0,-1,-1,-2,-3,2,-5,-1
1470262324752546,-2,-1,0,-2,-2,-2,0,-1
1470262324773064,-1,-2,5,-3,0,-1,0,0
1470262324773064,-4,-2,-1,0,-1,-2,-1,-4
1470262324775065,0,-1,1,1,-1,1,-2,0
1470262324775065,-6,1,-5,-3,-2,-2,-1,-3
1470262324788113,0,1,7,1,1,-3,-1,0
1470262324788113,1,3,2,3,-3,0,1,3
1470262324789614,-1,-2,-11,-2,0,-2,-1,-2
1470262324789614,-1,0,4,0,-2,-3,-3,-1
1470262324810633,-2,-4,-1,-2,-4,0,1,1
1470262324810633,-2,-1,1,-1,-1,-1,-2,1
1470262324812635,-3,-1,0,-1,-1,-3,0,1
1470262324812635,0,-5,-1,-2,-2,0,2,-1
1470262324833654,-2,-1,-1,-1,1,1,-5,-6
1470262324833654,-1,-4,-7,1,-2,0,1,-3
1470262324834655,4,0,-3,-1,-1,-4,-3,0
1470262324834655,-1,-2,-1,-2,0,1,0,3
1470262324847669,1,-1,2,-1,0,-1,-2,-3
1470262324847669,0,4,3,0,0,-2,-2,-3
1470262324854673,-4,-4,-1,-3,-2,-2,1,3
1470262324854673,-1,0,-5,3,-1,1,-2,-2
1470262324870689,-2,-1,-7,-1,0,0,0,0
1470262324870689,-2,2,3,-3,-3,-3,-3,-2
1470262324872691,-2,-5,-5,-3,1,-1,1,1
1470262324872691,0,0,1,0,-1,-1,0,-4
1470262324893209,-4,0,-2,-2,-4,-3,1,-1
1470262324893209,0,1,-6,0,-2,0,-1,-1
1470262324895209,1,1,-2,-5,0,2,-2,-1
1470262324895209,-1,1,1,2,-1,0,1,-1
1470262324907720,-1,-2,2,1,2,-1,-1,-2
1470262324907720,-1,-1,-1,-2,-2,-2,-2,-2
1470262324914727,-2,-1,-2,-2,-1,0,-1,-1
1470262324914727,-1,-2,0,-2,-1,-3,-2,-2
1470262324930741,0,1,-6,-3,-3,-2,0,-1
1470262324930741,0,-1,4,-1,-1,0,3,6
1470262324932243,0,0,-10,0,-4,-3,-2,-3
1470262324932243,1,-2,5,1,2,-1,-5,-2
1470262324953262,-1,-1,4,-3,-3,-2,-1,0
1470262324953262,-3,-1,-3,-3,-2,-4,-4,-1
1470262324955266,1,-4,1,-3,-1,-3,-1,-3
1470262324955266,-3,4,-7,0,0,-1,-2,0
1470262324975783,1,-3,4,0,1,2,-1,3
1470262324975783,1,-1,2,-2,-2,1,2,-1
1470262324977285,-2,-1,1,-3,-2,-1,-2,-3
1470262324977285,2,0,1,-3,-3,-5,1,-4
1470262324990797,0,1,-12,0,-2,0,0,-2
1470262324990797,0,2,0,-1,2,-1,-3,-1
1470262324992297,-4,0,0,3,-2,-2,-3,0
1470262324992297,-1,-6,-3,-3,0,-1,-2,-1
1470262325013316,0,0,1,-3,0,0,0,-1
1470262325013316,-2,-7,-9,-3,0,-2,0,0
1470262325014817,1,-2,6,-1,0,-1,-2,-3
1470262325014817,-2,-1,1,-2,-3,0,0,1
1470262325027829,-2,-2,-7,-1,-2,-5,-3,2
1470262325027829,1,-1,2,-2,-2,-1,-3,-2
1470262325034847,-4,2,4,1,-1,0,0,2
1470262325034847,-1,4,-4,0,0,-3,-1,0
1470262325050888,-1,-4,0,-2,-1,-3,-3,0
1470262325050888,0,-4,-4,0,-2,0,1,-1
1470262325052351,-4,0,0,-4,-1,-1,3,-6
1470262325052351,0,-3,-6,0,-4,-2,-2,1
1470262325073373,-2,-2,-1,-1,-1,-3,-2,-2
1470262325073373,-3,0,-3,-1,1,-3,-2,-1
1470262325074873,-2,2,7,1,-2,0,-1,-1
1470262325074873,-1,2,-5,1,-4,-1,-3,1
1470262325087882,-3,3,1,2,-1,1,0,6
1470262325087882,1,-3,-5,0,0,1,1,0
1470262325094388,-2,0,-8,-3,-2,-2,-6,-2
1470262325094388,1,-1,1,-3,-2,-1,1,-4
1470262325110913,1,-1,4,-2,-2,0,-4,-2
1470262325110913,-1,4,-3,-3,-1,-1,-2,0
1470262325112914,0,-1,4,-1,-1,-3,0,0
1470262325112914,-2,-3,-3,-1,0,0,1,3
1470262325133428,0,1,2,-1,-4,-2,-3,2
1470262325133428,0,-5,2,2,-3,-1,-2,-3
1470262325134924,-2,0,2,-3,-2,-1,0,-1
1470262325134924,-2,-2,-7,1,2,2,0,-1
1470262325147936,0,4,-4,-1,0,0,3,-1
1470262325147936,0,-4,5,0,-1,-2,-2,1
1470262325154471,-1,-5,-1,1,1,0,-2,-5
1470262325154471,-3,-2,0,1,0,-3,0,0
1470262325170957,-1,0,0,-1,-1,-1,-2,-4
1470262325170957,0,1,-3,-1,0,-2,-1,-2
1470262325172458,-2,4,-9,-3,-3,0,-2,0
1470262325172458,0,0,9,0,-2,-2,-1,-4
1470262325193477,0,0,-9,0,-1,-1,0,3
1470262325193477,-2,-2,7,0,-2,-3,0,1
1470262325195039,-1,-6,-1,-3,-1,0,-2,0
1470262325195039,0,0,-4,-2,2,2,-1,-1
1470262325207014,0,-6,-1,-1,-4,-3,-2,-4
1470262325207014,-2,-1,-1,-1,0,0,-2,0
1470262325215998,0,-1,-1,1,0,0,0,-1
1470262325215998,-2,-3,-7,-1,-2,-2,3,0
1470262325231010,3,3,6,0,1,0,2,-3
1470262325231010,-1,-2,-4,-3,1,-1,-2,-4
1470262325232513,2,1,-4,0,-1,-2,0,0
1470262325232513,-2,-3,2,-3,-2,-1,-3,-2
1470262325253030,3,-4,9,-3,0,-1,-4,0
1470262325253030,-1,4,-12,-5,-2,-4,-2,-2
1470262325255033,-2,1,9,2,-1,-1,0,3
1470262325255033,-2,-2,-9,-1,-2,-1,0,-2
1470262325267078,-6,4,-3,0,-1,1,-2,-4
1470262325267078,0,1,7,0,-2,-1,2,4
1470262325276052,1,-3,-3,-1,-1,-3,-2,-4
1470262325276052,-1,-2,3,0,0,-3,1,-1
1470262325291068,-1,-4,-5,-1,-2,0,0,-3
1470262325291068,-2,0,2,-1,0,-1,-2,-2
1470262325292592,0,2,-10,-1,-3,0,1,2
1470262325292592,-4,-4,2,-1,-2,-4,-5,-4
1470262325313585,-2,-2,0,-3,-1,-1,0,-2
1470262325313585,-2,-4,-5,-3,-2,-3,-3,-2
1470262325315089,-1,-2,-1,-1,-1,1,-3,0
1470262325315089,1,2,0,0,-1,-2,0,2
1470262325327174,-3,1,-8,-3,-3,-1,-3,-2
1470262325327174,-4,-4,-1,-1,-4,-2,0,0
1470262325336105,0,-2,-3,-4,0,-1,1,-2
1470262325336105,-1,-1,-2,-2,-3,2,-3,1
1470262325350618,-3,-1,-3,-1,-2,-1,-2,1
1470262325350618,-2,1,-12,-2,-4,-4,-4,-1
1470262325352620,1,1,13,-2,-2,-4,1,-1
1470262325352620,0,-4,-4,0,0,-2,-4,-2
1470262325373639,0,0,4,4,1,-3,3,0
1470262325373639,0,-5,-4,-3,1,-2,-1,0
1470262325375163,-2,-2,-5,-2,-1,0,0,-6
1470262325375163,-2,1,2,-4,0,-1,-4,-1
1470262325387154,-2,1,5,-2,-1,-5,-2,2
1470262325387154,-2,1,0,-2,-1,-1,5,-2
1470262325395691,-2,-4,-10,-2,-3,-3,-5,-3
1470262325395691,-1,-1,1,-1,-2,-1,0,-2
1470262325411262,-1,-5,-2,3,-3,1,-1,-2
1470262325411262,1,4,4,2,-1,0,-2,2
1470262325412673,1,0,3,0,-2,-1,0,0
1470262325412673,0,1,-1,-5,-3,-2,-3,2
1470262325433747,-3,-4,1,-3,-3,-1,-3,2
1470262325433747,-1,-2,-1,-2,-1,0,-2,2
1470262325435219,-4,-5,-5,-3,-4,-2,-1,-3
1470262325435219,0,1,-7,1,0,-2,0,-4
1470262325447204,-5,-2,0,0,2,-1,-1,0
1470262325447204,-1,0,2,-1,-2,-2,0,-2
1470262325455752,2,-2,5,5,1,0,3,2
1470262325455752,-1,1,-8,0,-1,-1,-2,-8
1470262325470777,-1,-3,-14,-2,-1,-2,-3,-2
1470262325470777,-4,2,7,-2,-3,-2,0,0
1470262325472728,-2,1,2,0,0,-3,0,0
1470262325472728,2,1,3,-2,-1,-1,0,-2
1470262325493290,1,0,-2,1,-1,-1,0,-2
1470262325493290,3,-4,-4,1,0,-2,-3,-1
1470262325494748,-6,1,0,-3,-3,-2,-3,1
1470262325494748,3,0,-2,0,0,2,0,1
1470262325507258,-1,0,4,-1,1,-2,-1,-4
1470262325507258,-4,-5,-4,0,-1,1,0,-5
1470262325515772,0,-2,0,-1,0,-1,0,-1
1470262325515772,-5,-4,0,-4,-2,0,1,2
1470262325530794,5,5,2,-1,-1,4,1,0
1470262325530794,2,4,-5,-1,0,0,-5,-3
1470262325532783,-2,-6,-6,1,1,-1,-3,-2
1470262325532783,-2,1,-1,-3,-4,-5,-1,-1
1470262325554302,1,-4,4,2,0,-3,-3,0
1470262325554302,-3,-1,-2,1,0,-1,0,0
1470262325557805,-2,1,-5,0,0,2,-1,1
1470262325557805,-1,1,1,2,0,-3,-2,3
1470262325566813,-1,1,1,-3,-2,1,0,0
1470262325566813,0,1,3,-1,-2,-3,-2,1
1470262325575821,1,-5,-6,0,0,-2,-1,-1
1470262325575821,-4,-3,-6,-2,-3,-1,0,-3
1470262325590836,3,5,3,-3,-4,0,-4,-3
1470262325590836,-3,-4,-2,-3,1,0,0,0
1470262325592336,1,-1,0,-2,0,-2,-2,-3
1470262325592336,0,0,-6,1,1,2,1,-1
1470262325613356,-3,-3,2,0,-1,-1,0,-3
1470262325613356,0,1,-3,0,-2,0,1,2
1470262325614855,-1,-1,1,-1,-2,0,2,-4
1470262325614855,-2,-1,11,1,-1,-2,-4,1
1470262325626867,-4,-3,-4,-3,2,-2,-1,0
1470262325626867,0,0,3,0,-3,0,1,1
1470262325635875,2,-2,2,-3,-1,-1,1,1
1470262325635875,-2,-1,-3,-3,1,-2,0,1
1470262325650889,-2,-1,-7,0,1,-2,-1,-3
1470262325650889,-3,-6,-2,-4,1,-2,-6,-6
1470262325652391,-1,0,-5,0,-3,-1,0,1
1470262325652391,-4,-1,0,0,-1,-1,-1,1
1470262325673408,0,1,-1,-3,-3,1,3,1
1470262325673408,0,-4,-7,-1,-4,-1,-3,1
1470262325674910,-1,-1,0,-1,2,0,-1,-4
1470262325674910,0,-5,0,-2,-3,-3,-3,0
1470262325695929,-2,-1,-3,-2,-2,-1,0,-2
1470262325695929,-2,0,5,-2,-1,-1,-1,-4
1470262325697431,-3,1,-11,0,1,-1,0,-1
1470262325697431,6,-6,0,0,0,0,-2,1
1470262325710942,2,1,-1,-1,-2,-2,0,-1
1470262325710942,-4,-3,5,-3,-2,-1,-2,-2
1470262325712445,-4,2,-1,-1,0,-5,-5,-2
1470262325712445,-2,-3,6,-2,1,-1,-3,-4
1470262325733466,-4,-2,-16,-3,-3,1,0,3
1470262325733466,2,1,3,1,-1,-1,1,-4
1470262325734963,-2,-4,5,-3,-2,-4,-3,6
1470262325734963,-3,1,-5,0,-3,0,4,-1
1470262325756067,2,-6,1,0,1,-2,-2,-2
1470262325756067,0,-4,-2,-2,-2,0,-1,1
1470262325757483,-3,-1,-8,-2,-2,-1,-2,1
1470262325757483,-2,0,3,-3,-1,0,-2,-1
1470262325770995,-2,-5,0,-1,1,-1,1,0
1470262325770995,-1,0,-11,1,0,-2,1,-1
1470262325772497,-1,-5,8,-3,-3,-1,0,0
1470262325772497,0,-2,-1,-1,-3,-1,1,1
1470262325793515,-4,0,-3,1,-2,1,0,1
1470262325793515,-1,1,1,0,-1,-2,-6,-2
1470262325795017,0,1,-1,-3,0,-3,-4,-2
1470262325795017,-8,3,1,0,0,0,0,-2
1470262325816051,-2,-4,0,-4,-5,-6,0,-1
1470262325816051,0,1,-5,-2,0,3,3,3
1470262325817554,-1,-2,-1,2,-4,0,-4,0
1470262325817554,-6,-2,-2,1,0,-1,-1,-4
1470262325830066,-3,-2,1,0,-1,-2,-3,-6
1470262325830066,-2,-5,0,-4,-1,-1,0,3
1470262325837074,0,1,-3,-2,1,-1,1,-2
1470262325837074,-2,-2,-9,-4,-1,-3,-2,-1
1470262325853585,1,4,-4,0,0,-1,0,1
1470262325853585,-1,1,6,1,0,0,-1,-3
1470262325855087,-2,-2,-2,-2,-2,-2,1,3
1470262325855087,-3,-2,-5,-2,-1,-2,-3,-3
1470262325876106,3,4,-1,4,1,1,2,1
1470262325876106,-1,0,-3,-2,-2,-3,-3,-6
1470262325877607,-2,-3,-8,-2,2,1,0,-3
1470262325877607,-4,1,1,-1,-1,-5,-5,-3
1470262325890120,-3,-1,4,-1,-3,-1,-5,-3
1470262325890120,1,-3,-2,0,-1,2,-2,0
1470262325897124,1,2,1,0,-1,0,0,-2
1470262325897124,3,-1,-1,-2,-1,-4,-4,0
1470262325913140,0,-4,1,-1,-3,-1,-4,-2
1470262325913140,-1,0,0,-3,-2,-2,3,4
1470262325915140,-3,-4,4,1,-3,2,6,-2
1470262325915140,1,0,-6,0,-2,-1,-2,-1
1470262325935659,0,1,0,-2,-1,-1,-2,-3
1470262325935659,-1,-3,2,0,-3,-4,-1,2
1470262325937662,-1,-3,-2,-4,-1,0,-3,-3
1470262325937662,1,-3,2,-3,0,0,0,-3
1470262325950172,0,2,-2,-2,-1,-1,3,1
1470262325950172,-3,-7,-7,0,-1,0,1,-2
1470262325957178,-3,-3,-3,2,-2,-3,2,1
1470262325957178,3,-2,0,-3,-2,0,-4,-1
1470262325973192,-1,-1,5,-2,1,1,-1,0
1470262325973192,1,5,-10,-3,0,0,0,-2
1470262325974695,3,0,5,1,-1,-2,-5,2
1470262325974695,-1,-1,-5,-1,-1,1,0,0
1470262325995713,1,-1,3,-3,-4,-3,1,1
1470262325995713,0,0,9,5,0,-3,-4,1
1470262325997716,1,-2,-20,-3,-2,-2,-2,-5
1470262325997716,-4,-3,2,-1,0,1,3,3
1470262326010225,-4,-5,-1,-1,-3,-1,-2,-1
1470262326010225,-5,-1,3,-1,0,-1,-1,-3
1470262326017232,-2,1,3,-1,-3,-2,-4,0
1470262326017232,3,-1,2,-4,-1,0,-1,1
1470262326033248,-2,-2,-8,0,0,-2,1,2
1470262326033248,0,-3,0,-1,1,0,-2,-1
1470262326034748,-2,0,1,-1,1,0,0,2
1470262326034748,2,-1,2,0,-1,0,-1,-1
1470262326055768,-1,0,1,-1,0,0,-4,0
1470262326055768,0,0,-4,-4,-2,-2,0,-1
1470262326057269,-1,3,9,-2,-1,-3,-3,-1
1470262326057269,2,-5,-4,-1,-3,-1,-1,0
1470262326070281,-2,-2,-11,-2,2,-3,-2,-1
1470262326070281,-4,-3,-5,2,-1,-2,-2,-1
1470262326077286,0,-2,-7,-4,-1,-1,-2,-2
1470262326077286,1,-1,2,2,1,0,3,0
1470262326093301,-4,-4,-1,-5,-2,-2,-7,-5
1470262326093301,1,1,-4,-1,-1,1,2,1
1470262326094805,-1,-1,5,0,-3,-1,1,-1
1470262326094805,-3,1,-7,-1,-5,0,0,-3
1470262326115820,2,-2,0,-1,-2,-2,0,-1
1470262326115820,0,-2,-1,0,-1,0,-1,-3
1470262326117323,0,-2,-3,0,-1,-2,0,0
1470262326117323,0,-1,7,1,0,-3,-1,-1
1470262326130334,-1,-2,-7,1,0,-1,1,1
1470262326130334,-2,2,5,-5,-4,-3,-4,-3
1470262326137398,-3,-7,-5,-3,-2,-1,-1,-6
1470262326137398,-6,-1,-6,0,0,-1,0,-3
1470262326153381,-4,2,4,-3,-1,0,1,0
1470262326153381,2,0,-6,-2,-2,-3,4,-4
1470262326154856,1,-2,2,1,2,1,-3,0
1470262326154856,-3,-1,4,0,-1,-2,-2,0
1470262326175936,2,-1,-4,-1,-1,-1,1,-2
1470262326175936,-2,-2,-2,-4,-3,-1,0,2
1470262326177376,-4,2,-7,0,-2,-1,0,2
1470262326177376,0,-1,5,0,-3,-2,-1,-3
1470262326189896,-2,-1,-1,4,1,-1,-4,1
1470262326189896,-3,-3,-1,1,-1,-3,-1,-4
1470262326198395,2,1,0,3,-1,-2,-1,-1
1470262326198395,0,1,-3,-4,0,-1,-4,1
1470262326213409,0,2,-8,-3,-1,-3,0,-2
1470262326213409,-2,-3,1,0,1,-3,0,1
1470262326214912,-3,0,7,-2,-3,-3,-5,-3
1470262326214912,0,-4,-11,1,-1,0,0,1
1470262326235928,1,3,8,0,-2,0,1,-3
1470262326235928,-1,2,0,-1,0,0,-4,0
1470262326237430,0,2,-7,0,-2,-1,1,-1
1470262326237430,1,2,-5,-1,-3,-1,0,-1
1470262326249442,-3,0,3,0,0,-2,0,-5
1470262326249442,2,3,-7,0,-2,-2,-2,-2
1470262326258449,-1,-1,5,-2,0,-1,1,1
1470262326258449,-3,-2,-1,-3,-1,-2,-4,0
1470262326273522,-1,-5,-6,0,-2,1,1,4
1470262326273522,-2,0,7,2,0,0,-3,-5
1470262326274965,0,-2,-11,-4,1,0,-1,1
1470262326274965,0,0,-1,-1,-1,-1,3,-1
1470262326296019,3,-3,1,0,-2,-2,-2,-2
1470262326296019,1,-5,-2,-3,2,-2,-4,2
1470262326297484,-2,-4,3,0,-2,-2,0,-1
1470262326297484,1,0,-5,1,0,0,-2,-5
1470262326309523,0,0,-2,-1,-4,1,-2,0
1470262326309523,-1,0,-8,-1,-5,-2,-1,-5
1470262326318504,-2,-5,-4,-3,-1,2,1,-1
1470262326318504,-2,-1,1,2,-3,-3,2,0
1470262326333539,-1,-1,4,-2,-1,0,-1,-4
1470262326333539,1,-2,-5,-1,-1,-1,0,-1
1470262326335017,1,0,-10,-4,0,-1,-3,1
1470262326335017,-4,-1,0,-1,-1,0,-4,-4
1470262326355555,-1,-3,10,3,-1,-3,-5,2
1470262326355555,-5,-4,-3,0,0,-1,2,3
1470262326362044,-2,-1,2,0,-2,-4,-2,-2
1470262326362044,-1,-1,-2,-2,1,2,-1,-3
1470262326369575,0,0,0,0,-2,2,-1,0
1470262326369575,-1,0,8,2,-2,0,-2,0
1470262326378557,-2,-6,-9,-3,-2,1,-3,-2
1470262326378557,0,-3,3,-4,1,-2,-1,0
1470262326392628,0,0,-8,-3,-2,-1,1,-4
1470262326392628,-1,-5,-5,0,-3,-1,-2,-3
1470262326399593,-1,-1,5,0,-2,-3,1,-2
1470262326399593,0,-4,-2,-2,-1,-1,-2,0
1470262326416091,1,-1,-4,-4,-1,1,-1,-3
1470262326416091,-2,3,-4,-2,0,-4,0,0
1470262326417605,-4,0,7,4,0,-1,3,0
1470262326417605,-2,-2,-1,-5,-1,-2,1,-3
1470262326438630,-4,3,2,0,2,0,-3,-2
1470262326438630,-1,1,-12,-1,-1,0,1,2
1470262326440112,-3,1,12,3,-1,-3,-5,-4
1470262326440112,-1,0,-5,-2,-1,-2,2,-1
1470262326452662,-1,0,-7,-1,-2,-3,-1,1
1470262326452662,2,1,6,-1,-2,0,-1,-2
1470262326459630,1,0,-10,-5,-1,0,-4,-3
1470262326459630,-1,1,-1,-2,-3,-1,-2,0
1470262326476193,-1,-4,0,-2,-4,-1,-5,-2
1470262326476193,-1,0,0,-3,1,-1,1,2
1470262326477645,-1,-5,-3,-3,-1,-2,0,-1
1470262326477645,-2,-1,-4,2,-1,-2,-3,-2
1470262326489660,-4,-1,-2,-2,-3,-4,0,0
1470262326489660,0,-3,-2,-7,1,-1,-3,-3
1470262326498665,-1,3,3,0,-2,-1,0,-3
1470262326498665,-6,-2,-4,3,-1,-2,0,-1
1470262326512692,-3,-3,-1,1,0,-1,0,-2
1470262326512692,-1,0,-4,-3,-1,-2,-2,-1
1470262326519684,-1,2,-7,-3,-2,-2,-1,2
1470262326519684,1,-1,1,-3,-2,-3,-4,-1
1470262326535697,-3,1,-1,-2,-2,-2,-3,1
1470262326535697,0,-2,-4,-2,-1,1,-2,0
1470262326537699,0,0,7,-6,-3,-3,-3,-2
1470262326537699,1,-4,-8,-3,1,2,1,2
1470262326549710,1,0,-4,0,-1,0,-2,-1
1470262326549710,-1,1,1,2,1,-1,0,-1
1470262326558719,2,-3,-1,0,0,-1,0,1
1470262326558719,-1,1,8,1,0,-2,-2,0
1470262326572731,-1,0,-7,-2,1,-1,-1,-1
1470262326572731,0,-4,-1,-1,-3,-2,-1,0
1470262326579737,-2,-2,1,2,-1,0,-1,-1
1470262326579737,1,1,0,-3,-4,-3,1,-3
1470262326596753,-1,3,-3,-3,-3,-3,-3,-1
1470262326596753,-1,3,2,3,-1,1,-1,0
1470262326598254,-1,-2,-4,-2,0,0,1,1
1470262326598254,-1,-2,-5,-2,-4,-2,-2,1
1470262326618272,0,1,7,0,-2,0,2,1
1470262326618272,-1,-2,3,0,-2,-1,-1,-4
1470262326619774,1,0,-1,0,0,0,-2,0
1470262326619774,1,2,3,-1,-1,0,-3,0
1470262326632287,2,0,1,0,-2,0,1,1
1470262326632287,-1,-3,0,-1,-1,0,-2,1
1470262326640792,-2,-1,-5,2,0,-3,1,-1
1470262326640792,0,-2,2,1,-1,1,-1,-4
1470262326663313,0,-1,10,0,-1,-1,-1,4
1470262326663313,0,-1,-12,-2,-3,1,-1,-3
1470262326665314,-1,2,-1,0,-1,2,-1,0
1470262326665314,0,1,-6,1,0,-1,0,-1
1470262326678327,-1,-4,-2,2,-1,-4,-4,-2
1470262326678327,-3,-1,6,-2,-1,0,2,-2
1470262326679827,-4,-3,-7,-3,-1,-3,-1,-3
1470262326679827,-5,-1,-2,-4,-3,-2,-1,-1
1470262326692838,0,0,-2,-1,0,0,2,-1
1470262326692838,-1,-2,0,0,-1,-2,-5,2
1470262326699345,2,-4,4,1,-2,-2,-5,3
1470262326699345,-1,-3,2,2,2,1,2,-2
1470262326715860,-3,0,-11,-5,-2,0,-3,-2
1470262326715860,-4,-3,0,-2,-1,-3,-1,3
1470262326717361,-2,-4,-1,-3,1,-3,1,-2
1470262326717361,1,-1,-3,-1,0,-2,-2,-3
1470262326738396,0,-2,6,2,0,-2,0,-3
1470262326738396,-1,1,-2,-1,-1,1,-2,-1
1470262326739935,1,5,-8,2,-3,-2,-3,-2
1470262326739935,-2,-1,4,0,-1,-1,-1,2
1470262326751921,-3,-5,7,-2,0,-1,1,-3
1470262326751921,3,-1,-9,-3,-1,0,0,-3
1470262326760900,-1,-1,2,0,-4,-4,-1,-2
1470262326760900,-6,-3,-15,-5,0,-1,-1,-3
1470262326775913,1,0,2,-2,-3,1,-4,-3
1470262326775913,-4,-4,-13,-5,-2,-5,-1,-2
1470262326777415,-1,1,3,-2,-1,0,0,2
1470262326777415,3,0,3,0,1,-2,-2,-2
1470262326798438,-2,-3,-5,1,0,-2,0,-3
1470262326798438,3,4,3,-2,1,2,-1,-1
1470262326799964,0,-1,-4,-5,-3,-1,-2,-1
1470262326799964,-2,0,-3,1,-2,1,1,-2
1470262326811972,-1,3,-5,0,1,0,-1,4
1470262326811972,1,0,4,-1,-3,-2,-3,1
1470262326820956,-4,-5,-3,-1,-1,-3,-1,0
1470262326820956,-1,-2,0,-2,-1,0,0,-1
1470262326835971,-1,-3,-10,-3,-3,-2,0,2
1470262326835971,-4,-4,-2,1,-1,-2,1,-5
1470262326837483,1,0,1,-4,-1,-1,-1,0
1470262326837483,-5,-4,-5,0,-2,-3,-2,-1
1470262326858501,1,3,-5,-3,-3,-1,0,-2
1470262326858501,0,-3,5,0,-3,-8,0,-2
1470262326860004,-1,3,7,5,-1,1,-2,-3
1470262326860004,0,-3,-10,-1,-1,2,-3,1
1470262326872500,0,2,-3,4,2,3,2,-2
1470262326872500,-3,-5,-8,-5,-2,2,-4,-1
1470262326879534,2,4,1,-3,-1,1,1,-2
1470262326879534,0,3,8,-2,-4,-1,0,-1
1470262326896021,1,-5,0,-2,-2,-3,-1,-2
1470262326896021,-2,3,-4,-2,1,-1,2,-1
1470262326897522,-5,-1,-1,1,-1,0,-2,-6
1470262326897522,-1,2,3,0,-3,0,-4,-1
1470262326918541,1,0,5,-1,-1,-3,4,-1
1470262326918541,-1,1,3,1,1,-1,-3,-1
1470262326920044,-1,-2,-11,-7,-2,-3,0,-1
1470262326920044,0,1,11,-3,-2,-1,-1,-2
1470262326933054,0,-1,-4,0,-3,-4,-3,0
1470262326933054,1,3,0,2,-3,-1,0,2
1470262326939562,-4,0,-5,0,-1,-2,-2,-1
1470262326939562,1,-1,-5,-2,-2,-5,-2,0
1470262326956075,-2,0,-2,-3,-1,-1,-3,-2
1470262326956075,2,3,8,2,-6,0,0,3
1470262326957593,-1,-6,5,-2,-1,-1,-2,-1
1470262326957593,-2,-1,-16,0,-1,-2,-1,2
1470262326978612,-1,0,5,-1,-2,-1,-3,-2
1470262326978612,1,0,-1,-2,0,-2,1,1
1470262326980096,-3,0,-2,1,-1,-1,0,3
1470262326980096,0,-3,9,2,1,0,-1,-1
1470262326992621,0,3,-3,-4,-3,-3,-2,-1
1470262326992621,-2,-6,3,-2,-3,-2,-2,-2
1470262326999628,1,-2,-4,-2,0,1,2,4
1470262326999628,3,-2,0,-1,1,1,2,-1
1470262327016129,-3,1,0,1,0,1,-2,2
1470262327016129,1,1,1,2,0,1,-2,-2
1470262327017630,0,-1,8,0,1,2,0,-1
1470262327017630,0,0,0,-2,-3,-1,0,0
1470262327038709,-4,-7,-5,-2,0,-1,-2,-3
1470262327038709,1,-1,8,1,1,0,0,-1
1470262327040170,0,-2,-10,-1,0,-2,-2,-3
1470262327040170,-3,0,-5,-4,-1,-3,-2,-6
1470262327052697,-1,-5,7,2,-1,-1,0,-1
1470262327052697,-3,0,-11,-2,1,-1,0,0
1470262327059670,1,-3,-3,-1,-2,-1,0,0
1470262327059670,-1,-3,9,1,-1,1,-1,1
1470262327076234,-4,-2,-13,-5,-2,-3,-3,-2
1470262327076234,-3,-2,9,3,0,1,1,0
1470262327077685,-1,-6,-16,-3,-1,-3,4,1
1470262327077685,0,-1,5,-2,0,-2,-11,-2
1470262327098204,-2,-2,1,1,-2,2,3,1
1470262327098204,-2,-4,0,-2,-2,-4,-3,-5
1470262327100204,0,-1,13,0,-3,0,-1,0
1470262327100204,-2,-3,-5,0,-1,-2,3,-1
1470262327112218,-2,-1,-5,-2,-1,-3,-4,-4
1470262327112218,0,0,9,-2,-3,0,-2,-3
1470262327121224,-2,-1,3,-1,0,1,-2,-3
1470262327121224,-4,-1,-6,-2,-2,-3,0,-3
1470262327135754,5,2,7,-1,-2,-1,1,0
1470262327135754,0,-3,-10,-3,0,-4,0,1
1470262327137239,-1,-2,7,2,-2,-2,-3,1
1470262327137239,-1,0,-2,1,-1,-1,2,1
1470262327157761,-2,2,0,1,-1,-2,2,-3
1470262327157761,-1,-4,-4,-2,-1,0,-7,1
1470262327165764,-1,-3,-2,-5,-3,0,-3,-1
1470262327165764,-2,-6,-5,-1,-2,0,-3,-3
1470262327172309,0,0,-1,-1,-1,-5,-2,1
1470262327172309,-4,-1,-9,-4,0,-2,0,0
1470262327180777,-1,1,3,-1,1,1,-2,2
1470262327180777,-2,-3,-12,-3,0,0,-3,0
1470262327195806,0,-2,-3,0,-1,1,1,0
1470262327195806,-1,0,-3,-1,0,0,-3,-1
1470262327197292,-5,-1,4,1,-3,-3,0,-5
1470262327197292,0,0,4,-2,-1,-3,0,2
1470262327218836,-1,0,-12,-3,-1,-1,-1,-3
1470262327218836,0,-1,-3,0,-1,-2,1,-2
1470262327219817,0,1,0,0,-1,0,-1,-1
1470262327219817,-4,1,-3,-1,-3,-2,3,0
1470262327232326,-2,-3,7,0,-2,2,-8,-5
1470262327232326,2,-2,-14,-1,-2,2,1,1
1470262327240856,-1,-1,9,0,-2,-4,-5,-5
1470262327240856,2,-2,-6,-3,-2,-1,0,0
1470262327255889,-5,2,8,0,2,0,-1,0
1470262327255889,-2,-2,1,-1,-3,0,5,-5
1470262327257885,-1,2,-4,-1,-3,-1,0,1
1470262327257885,-1,0,-6,-5,-2,0,-3,0
1470262327278381,2,-2,5,1,0,-1,-3,1
1470262327278381,-1,0,-4,-1,1,-3,-1,0
1470262327279866,-1,-1,3,-2,0,-2,1,-2
1470262327279866,-1,-2,4,1,-2,-2,-2,2
1470262327292394,1,-3,-6,-3,1,2,-2,1
1470262327292394,-2,0,12,0,-2,-2,-3,0
1470262327300885,0,-5,-25,-3,-1,-2,0,4
1470262327300885,-1,0,4,-1,-1,0,-1,-4
1470262327316399,-3,-4,-3,-1,-2,-2,0,-3
1470262327316399,2,1,2,-1,-2,-2,-4,-2
1470262327317402,-1,-3,-7,-4,-1,-2,-1,-4
1470262327317402,-2,1,4,0,0,0,2,-1
1470262327338431,0,-2,-13,-2,-3,-1,0,0
1470262327338431,-5,2,-1,-1,-1,-2,-2,0
1470262327339921,2,-1,2,0,-2,1,1,3
1470262327339921,-1,-2,-5,-1,-3,-3,-4,2
1470262327351953,-2,-6,3,0,-1,-2,-1,-5
1470262327351953,-1,2,-10,-2,0,-1,-1,2
1470262327360939,0,1,0,1,1,1,-3,-1
1470262327360939,-1,3,5,3,-3,0,-4,0
1470262327375952,-2,-1,-14,-2,0,-2,1,0
1470262327375952,6,-5,4,-1,-1,-2,-2,1
1470262327377482,0,-2,2,0,-1,0,-1,0
1470262327377482,1,-2,2,0,0,0,2,-1
1470262327398473,-2,-1,-5,-5,-3,-4,-7,3
1470262327398473,-5,2,5,-2,-2,0,1,-5
1470262327399974,-3,-5,-3,0,-1,0,-3,-1
1470262327399974,3,-1,-7,-1,-3,-2,-2,-1
1470262327412027,0,4,5,-1,-1,-1,2,0
1470262327412027,-2,-3,-9,0,-1,-1,-3,-3
1470262327420992,-1,1,0,-2,-2,-2,-2,-1
1470262327420992,-2,-2,3,1,0,-1,-2,-2
1470262327436006,0,2,-2,2,1,0,1,-2
1470262327436006,1,-2,0,-1,1,0,-2,1
1470262327437556,0,-2,-7,-3,-1,0,2,-1
1470262327437556,-2,0,3,-4,2,-1,-7,-6
1470262327458537,-2,6,-4,0,-1,-1,3,2
1470262327458537,1,0,6,-1,-1,-2,0,-4
1470262327460028,1,-2,3,2,0,0,-1,-2
1470262327460028,-3,0,-1,-1,-2,-1,-1,0
1470262327472063,-1,2,1,-2,-1,0,-6,-4
1470262327472063,0,0,3,1,0,0,0,-3
1470262327481047,1,0,5,-1,-1,-4,-1,-2
1470262327481047,1,-3,-8,-2,-1,-1,2,-2
1470262327496059,1,-4,4,-1,-1,0,2,-1
1470262327496059,-3,-1,-6,-1,-2,0,1,1
1470262327497562,1,4,-7,-2,-1,-2,-2,0
1470262327497562,-3,-6,8,0,-1,0,1,0
1470262327518581,2,1,-9,-5,-3,-3,0,-3
1470262327518581,-4,0,6,0,-3,-1,-3,0
1470262327520082,-1,-3,-5,-4,-1,-1,-2,-4
1470262327520082,0,1,-2,-1,0,-1,-2,4
1470262327532093,-1,-1,1,2,-2,-2,0,0
1470262327532093,0,1,-4,-2,0,-1,0,-5
1470262327541100,-5,-3,0,-1,-4,0,0,1
1470262327541100,1,1,-1,-4,1,-2,-5,-1
1470262327557115,0,-6,2,-1,-3,-1,0,3
1470262327557115,0,-1,-10,-1,1,1,2,-1
1470262327560619,-2,-3,1,4,2,0,-3,-5
1470262327560619,-3,-2,-6,-5,-4,-2,-5,-3
1470262327578133,0,0,7,2,-1,-1,3,-2
1470262327578133,-1,-1,1,0,-2,-3,-1,1
1470262327580135,-2,-6,-3,-4,0,-1,1,0
1470262327580135,-3,0,-7,0,0,2,1,-5
1470262327600654,-5,-1,2,-3,0,-3,-6,-4
1470262327600654,4,-2,2,0,-1,-1,0,2
1470262327602655,-3,-1,3,-1,-4,-1,-3,0
1470262327602655,-1,-3,0,-2,0,0,3,-2
1470262327616168,-4,0,-3,-2,-2,-4,-2,-4
1470262327616168,-4,-2,-6,-2,0,-4,-2,0
1470262327618171,-1,-2,6,2,-1,-2,-1,1
1470262327618171,1,1,2,-1,-4,-2,-1,0
1470262327638189,0,-3,-6,2,0,2,1,-4
1470262327638189,-2,-2,1,-2,-1,0,-3,-1
1470262327640191,-2,-2,-5,-1,0,-1,-3,0
1470262327640191,-2,-4,0,0,-2,-2,1,-1
1470262327660709,0,6,-3,-1,-1,-1,-3,-3
1470262327660709,0,0,8,1,-2,-3,1,-4
1470262327662210,0,-1,-3,-3,-1,0,0,1
1470262327662210,1,6,-3,-2,-1,0,2,0
1470262327675722,3,-5,-5,-2,-2,-4,-7,0
1470262327675722,-2,-2,1,-3,-1,-1,1,-3
1470262327677223,0,-1,4,-1,0,0,-1,-5
1470262327677223,-4,-4,-1,3,-2,-1,1,0
1470262327698244,-1,-2,-1,0,-2,-2,0,1
1470262327698244,-4,0,-3,-3,-2,-2,-6,0
1470262327699743,0,-3,-3,-4,-2,-6,-6,-2
1470262327699743,-2,0,3,-2,-1,2,3,-1
1470262327720797,-1,-6,-4,-2,-1,-1,0,0
1470262327720797,2,3,3,1,-2,2,-1,1
1470262327722263,-1,1,1,-3,-3,-4,2,-1
1470262327722263,0,-1,-2,0,0,-2,-3,-2
1470262327735372,-2,3,7,0,-3,-4,0,3
1470262327735372,0,3,-10,-3,0,-1,0,-1
1470262327742281,-1,-3,-3,2,-1,0,5,0
1470262327742281,2,-2,4,2,1,-3,-4,-1
1470262327758304,-1,4,-6,-2,0,0,2,2
1470262327758304,-2,-4,-1,1,-2,-2,-4,1
1470262327759797,0,1,-4,-1,-2,-2,4,-3
1470262327759797,-1,-2,3,-2,-3,-2,-6,-2
1470262327780830,3,0,5,-1,0,-1,1,-2
1470262327780830,-1,-1,-4,-1,0,0,1,3
1470262327782318,-2,4,4,0,-2,-1,-11,-3
1470262327782318,-1,-5,-22,-4,-3,-1,2,0
1470262327795421,-1,0,8,2,-1,-2,-1,-4
1470262327795421,-3,-1,-3,-1,0,-2,-5,-1
1470262327801955,0,-3,7,0,0,3,3,4
1470262327801955,1,7,-3,-3,-1,-4,-2,-2
1470262327825953,-1,0,-8,-2,-1,1,-1,3
1470262327825953,-1,-4,9,-1,-4,-1,0,-5
1470262327827455,-3,-2,-14,-2,-1,-1,0,-4
1470262327827455,1,-1,16,2,-4,-1,-1,-2
1470262327841030,-3,-2,-6,-3,-1,-3,-2,1
1470262327841030,0,-5,4,-1,-1,-4,-4,-4
1470262327842497,-1,2,-3,0,-1,2,1,2
1470262327842497,2,-3,-5,-3,0,-1,4,0
1470262327855479,-1,-1,7,1,-2,-1,-5,-4
1470262327855479,-1,-5,-8,-3,-2,-4,-4,1
1470262327861997,-6,4,-1,0,1,-2,1,-2
1470262327861997,-2,4,4,4,2,-1,-3,2
1470262327878501,-2,-6,0,-3,-2,0,-3,-6
1470262327878501,-1,-1,-8,-2,-1,-1,-3,-1
1470262327880001,-1,-6,-4,-3,-2,-2,-1,-1
1470262327880001,-1,-1,-2,-2,-1,-1,-4,2
1470262327901025,-2,2,1,-3,0,1,0,-2
1470262327901025,-1,4,-4,1,-2,0,-3,-3
1470262327902523,0,-3,5,0,0,-3,2,0
1470262327902523,-2,-1,-1,1,-2,0,-2,-4
1470262327915533,-4,-2,-7,1,-2,1,-1,4
1470262327915533,0,-4,-2,-2,-4,-2,4,-2
1470262327922055,-2,0,-2,0,-2,-3,-6,1
1470262327922055,-2,0,2,0,-1,-3,2,-2
1470262327938557,1,-4,-9,-1,0,-2,2,-4
1470262327938557,0,4,8,0,0,2,8,1
1470262327940056,1,-3,-1,2,2,-1,-2,3
1470262327940056,-1,-1,-2,-1,-1,-3,-3,-4
1470262327961074,-1,3,4,-2,-2,-2,4,-3
1470262327961074,-2,-3,-5,-1,-3,-2,-2,2
1470262327962575,-1,-3,3,-1,-1,-2,-3,-2
1470262327962575,-5,-2,-1,-1,-3,-3,1,-3
1470262327975086,0,0,1,-1,-3,-1,-5,-1
1470262327975086,-4,-3,-5,-1,-1,-1,0,-4
1470262327982092,0,-1,-4,-2,-1,-1,-1,-1
1470262327982092,1,-2,3,0,1,1,2,0
1470262327998607,-3,-3,-3,0,-1,-3,-4,2
1470262327998607,0,-1,-5,-2,0,-1,-3,2
1470262328000108,-1,2,3,-2,-3,0,-1,-3
1470262328000108,-2,-6,-6,-2,0,0,-2,1
1470262328020627,1,-2,5,1,-1,-3,-1,0
1470262328020627,0,-2,-2,0,1,-2,-1,0
1470262328027133,-2,4,0,-4,-1,-2,0,1
1470262328027133,-1,-3,1,-1,-3,-2,-2,-1
1470262328034654,-3,-3,-6,-1,2,0,0,-2
1470262328034654,2,-2,2,1,-3,-1,-9,-3
1470262328043648,-3,0,2,-2,-2,-1,1,-2
1470262328043648,0,3,-9,-1,0,1,-1,1
1470262328058160,-3,-4,0,-3,-2,-3,1,2
1470262328058160,-2,3,0,-3,1,-1,4,-3
1470262328059661,-2,1,-8,-1,-3,-3,-4,0
1470262328059661,-3,-3,1,-3,-1,1,2,1
1470262328080680,-2,-3,-2,2,-2,0,-3,-1
1470262328080680,-1,-2,0,-3,0,-1,-3,-2
1470262328082683,-1,-3,-4,-4,-1,-1,2,-2
1470262328082683,-2,1,-2,-3,-2,0,-2,2
1470262328094693,3,-2,1,-2,-3,2,-1,-6
1470262328094693,0,2,1,1,-2,-1,1,-3
1470262328103701,0,-2,2,2,1,-1,-1,-2
1470262328103701,3,-3,5,0,-1,-3,-3,-1
1470262328118214,-1,0,-13,-1,2,-2,-2,1
1470262328118214,-2,-3,3,-1,-2,-2,1,-1
1470262328119716,-2,-1,-11,-1,-3,0,-2,-3
1470262328119716,-2,-1,1,1,-2,-1,-2,1
1470262328140736,2,4,-6,-4,0,0,0,2
1470262328140736,1,-2,0,-2,-1,-1,-4,-3
1470262328142736,2,-4,-6,-1,-2,0,-1,-3
1470262328142736,-1,-2,3,-2,-1,-4,-6,-5
1470262328154247,1,0,2,1,1,-1,3,3
1470262328154247,0,-3,-9,0,0,-3,3,-4
1470262328163756,-3,-4,-10,-5,-4,0,-2,-1
1470262328163756,-2,3,-4,0,0,-1,-5,-6
1470262328185778,-1,-4,-11,-4,-1,-2,0,-1
1470262328185778,-4,3,8,1,-2,-1,-5,0
1470262328187276,-1,-1,3,3,1,0,1,0
1470262328187276,-2,-2,-4,-1,-2,-1,0,0
1470262328200789,0,0,5,-2,-1,-2,-3,1
1470262328200789,0,-3,-6,-7,-1,0,0,1
1470262328202790,-1,-2,2,2,-1,-2,0,-1
1470262328202790,-1,-2,3,-1,-1,-1,3,3
1470262328214803,-4,-4,5,0,-2,-1,-3,-3
1470262328214803,3,-6,-5,-2,-2,-1,-6,2
1470262328223308,-1,-1,5,0,-2,-1,-1,-5
1470262328223308,-1,0,-5,-3,0,0,1,-4
1470262328238357,2,1,-2,2,1,0,0,-2
1470262328238357,-2,1,6,2,1,-2,0,1
1470262328239824,0,2,-1,-1,0,0,0,1
1470262328239824,-2,-6,-9,-1,-2,-1,3,-1
1470262328260872,-1,0,2,4,1,-3,-3,0
1470262328260872,0,0,-2,1,0,-2,1,-3
1470262328262345,-1,-4,1,-5,1,1,-3,-2
1470262328262345,-1,2,3,0,-4,-5,-6,-1
1470262328274857,1,-2,1,-1,-1,1,2,-2
1470262328274857,0,0,-3,-2,-3,-2,-2,-4
1470262328283362,-2,-3,-1,1,-1,0,-3,2
1470262328283362,-2,-2,-5,-1,0,-1,1,0
1470262328298377,-5,-1,0,-3,-1,-3,-2,-3
1470262328298377,1,-3,-4,0,0,0,1,0
1470262328299883,-2,-4,-2,-1,-2,0,3,-1
1470262328299883,3,-2,1,-1,0,-5,-6,-2
1470262328320924,-3,-2,10,0,-2,0,0,0
1470262328320924,-3,0,-8,0,-3,-3,1,0
1470262328322398,0,-1,-3,-5,-2,-4,-1,1
1470262328322398,0,-3,9,-2,-1,-3,-2,-1
1470262328334909,1,-3,-9,-1,-1,0,-2,-2
1470262328334909,-3,-1,6,3,1,0,2,0
1470262328343417,1,-3,-2,-3,0,-1,-4,0
1470262328343417,3,2,-6,1,-2,-1,5,2
1470262328358432,-2,2,3,-2,0,2,-2,1
1470262328358432,-1,1,-3,-4,-3,-1,0,-1
1470262328359932,-1,1,-3,0,2,-2,-1,-3
1470262328359932,-3,-1,-3,-1,-2,-1,-3,-3
1470262328380951,1,0,-6,-3,-1,-2,0,1
1470262328380951,-2,-2,-1,0,0,-2,2,1
1470262328382452,0,0,2,0,-1,0,0,-3
1470262328382452,0,-1,-6,-1,-1,-1,-3,-1
1470262328394463,-3,-4,0,0,-1,-2,-3,-1
1470262328394463,-1,3,3,-2,-1,-1,-2,0
1470262328403472,-2,-1,0,0,-2,-3,-2,-4
1470262328403472,2,-2,-1,-4,-1,0,-5,2
1470262328418484,-3,-1,-3,-2,-2,-1,2,-2
1470262328418484,-2,1,-2,-2,-1,1,2,1
1470262328419985,2,1,9,1,-2,-2,0,-2
1470262328419985,0,-1,-4,0,1,5,2,0
1470262328441003,0,0,8,0,-3,-3,-3,-4
1470262328441003,-1,1,-13,-2,-1,-3,-8,-5
1470262328442507,1,0,-10,-2,-4,-1,0,-1
1470262328442507,-5,-1,2,0,-2,-2,0,0
1470262328454545,0,-2,-1,1,-1,3,-2,1
1470262328454545,-4,-4,0,-2,-2,-3,-2,-4
1470262328463526,-3,-1,3,-1,2,-2,-3,2
1470262328463526,1,-2,-3,-1,-2,-1,3,0
1470262328478538,-3,1,-3,-1,0,-1,-7,-2
1470262328478538,1,-4,1,1,0,-7,-3,-3
1470262328480041,-1,-2,-4,1,-1,4,-3,5
1470262328480041,-2,-2,0,-2,-3,1,1,-4
1470262328501058,-3,-2,1,0,0,-6,-1,0
1470262328501058,1,5,3,0,-5,-3,-2,0
1470262328502588,1,0,-1,2,-1,-3,0,-2
1470262328502588,-4,-4,-1,0,2,-1,-1,-3
1470262328523578,-1,6,0,-1,-2,0,1,0
1470262328523578,1,0,1,-1,-2,-1,-1,-3
1470262328525127,-3,-1,-4,-3,-1,-1,-2,-1
1470262328525127,0,2,2,0,-1,0,-1,2
1470262328538592,-4,-3,-6,-3,0,-2,-3,-4
1470262328538592,-2,-1,2,-3,-1,1,7,5
1470262328540122,2,0,-1,0,0,-6,-10,-4
1470262328540122,-2,-2,-4,2,1,10,-3,-2
1470262328561112,1,-5,-3,-3,-4,-6,-3,4
1470262328561112,-1,2,-1,-1,0,7,2,-2
1470262328562613,-2,-2,5,-1,0,4,1,-1
1470262328562613,-4,-4,-2,0,-3,0,0,-2
1470262328583132,0,1,-2,1,-3,-4,-5,-1
1470262328583132,-4,-3,-1,-1,0,0,3,3
1470262328585133,-2,0,1,-3,-2,-5,-7,-1
1470262328585133,-2,2,3,-3,-1,-2,-3,2
1470262328598646,-1,-1,-1,-2,0,3,5,-2
1470262328598646,2,-2,-3,1,0,-1,-1,-2
1470262328600147,-2,-5,-4,-3,-2,-2,0,-6
1470262328600147,0,-3,0,-3,-1,-1,-1,-1
1470262328620666,1,-2,1,0,-3,-4,-1,2
1470262328620666,1,-2,-10,-4,-1,0,-4,0
1470262328622667,0,0,9,-3,-3,0,2,-1
1470262328622667,0,1,-1,-1,-3,-6,-4,0
1470262328643187,-3,-5,-10,1,-1,0,1,-3
1470262328643187,-3,-1,1,0,-2,-1,-3,0
1470262328644687,-1,-3,-7,-1,0,4,1,2
1470262328644687,0,1,2,0,-1,-4,1,-2
1470262328657699,0,-1,3,0,-1,-1,-2,-4
1470262328657699,-3,-1,1,1,-1,-3,1,-2
1470262328664705,-3,2,-6,-1,-1,-2,2,3
1470262328664705,-4,-3,0,1,-1,-3,4,-2
1470262328680720,2,2,-2,-1,1,1,-2,-1
1470262328680720,3,-5,-2,1,-2,-3,0,-4
1470262328682221,-1,-6,3,-2,-2,-1,0,-2
1470262328682221,1,1,-7,-3,0,0,0,1
1470262328703255,-5,2,3,-2,-3,-1,4,2
1470262328703255,1,-6,1,-1,1,0,-4,-1
1470262328704741,-1,0,-2,-1,-3,-1,1,5
1470262328704741,-3,-2,-1,-4,-4,-2,-5,3
1470262328717754,0,-3,0,-2,-1,0,-4,-2
1470262328717754,0,1,1,-3,0,-2,-1,-3
1470262328724760,-3,0,-2,-1,-2,-3,0,-3
1470262328724760,1,-3,-2,2,-1,-3,-4,-1
1470262328740775,-3,0,-6,-4,0,-2,1,-3
1470262328740775,-4,-5,-2,-4,-2,-2,-7,1
1470262328742774,-1,-3,-1,-4,-1,-2,-4,-3
1470262328742774,-2,0,-1,-2,1,1,0,-4
1470262328763293,-1,2,0,1,0,2,-3,-2
1470262328763293,-3,-2,-2,-1,0,3,2,-3
1470262328764795,-2,1,0,-2,-2,-12,-6,-2
1470262328764795,-3,-1,-3,0,-1,0,1,1
1470262328777806,1,0,-5,-2,0,-2,-1,1
1470262328777806,-1,-2,-1,-1,-3,-2,-3,-1
1470262328784813,0,0,0,0,0,2,0,0
1470262328784813,0,-2,2,-1,-1,-2,-3,-2
1470262328800827,-1,1,-4,-3,0,-1,3,-1
1470262328800827,1,0,0,0,-1,-2,-2,0
1470262328802329,0,3,-3,2,-1,-1,3,-2
1470262328802329,0,-3,-2,-1,-2,-1,-5,1
1470262328823348,-1,-1,-2,-2,-4,-3,0,-2
1470262328823348,-1,-1,0,-1,1,-1,-4,-3
1470262328824849,1,-1,-6,-3,-1,2,1,-1
1470262328824849,-3,1,10,-3,-2,-2,-2,-1
1470262328837861,0,-1,-14,-3,-4,-3,0,1
1470262328837861,0,2,4,-1,-2,-1,-2,-2
1470262328844367,-5,-7,6,-1,-2,-2,-1,2
1470262328844367,1,-1,-16,-1,0,-2,3,-2
1470262328860881,2,0,15,2,0,-1,0,0
1470262328860881,0,3,-9,-2,-2,-3,-9,-2
1470262328862384,-3,-1,2,1,0,5,1,-2
1470262328862384,-5,4,3,0,-2,-5,-2,-2
1470262328883402,-2,-3,-1,0,2,1,-2,2
1470262328883402,-3,-3,-5,0,1,0,1,-1
1470262328884904,-1,-1,2,0,-2,-3,-4,-3
1470262328884904,0,-4,-3,-3,-3,-3,0,-1
1470262328897915,3,-6,-6,-2,-4,-4,-5,-1
1470262328897915,1,2,4,2,0,-2,2,0
1470262328904420,-1,0,-6,-2,-1,0,-1,-1
1470262328904420,1,0,-3,1,0,1,1,1
1470262328920935,-5,3,7,-1,-2,0,-1,-3
1470262328920935,-3,-6,-12,-4,-1,-1,0,-2
1470262328922937,2,4,0,-1,-2,-1,-1,-1
1470262328922937,-3,-2,2,-1,-3,-1,-2,0
1470262328943457,3,-5,-4,-2,-2,0,-3,-1
1470262328943457,-1,-1,-1,1,-4,-1,-2,0
1470262328944957,-1,-1,-1,0,0,0,-2,-4
1470262328944957,0,-2,-4,0,-1,-1,0,1
1470262328957469,-1,0,6,2,2,4,2,-2
1470262328957469,-1,1,-3,-1,-3,-3,1,1
1470262328964975,2,-6,-11,-4,-1,-2,-2,-2
1470262328964975,-1,-6,8,-2,-3,0,-4,-1
1470262328980990,-2,-4,-9,-2,-2,-4,0,-1
1470262328980990,-2,0,7,-1,-1,0,-1,5
1470262328982491,-1,0,-3,-1,-3,-3,-3,-2
1470262328982491,1,-1,-4,-2,2,2,4,-1
1470262329002508,-2,0,3,1,-3,-4,0,0
1470262329002508,1,-1,-1,-2,-1,0,-2,-1
1470262329003509,-2,-2,-1,1,-1,-1,0,4
1470262329003509,2,5,-2,-2,-2,0,3,-2
1470262329026029,-5,-2,1,-1,-1,-2,-7,-2
1470262329026029,1,-3,1,-1,0,0,2,1
1470262329026530,1,-1,0,-2,1,0,-7,-3
1470262329026530,-2,-3,1,3,-1,0,0,-3
1470262329040042,1,-2,-4,-2,-1,0,2,1
1470262329040042,2,-2,3,-1,-1,-4,-1,0
1470262329041044,-4,-3,-3,0,0,-2,1,1
1470262329041044,-5,-3,-2,-3,-4,0,-5,-3
1470262329062563,-1,-1,-6,-2,-2,-4,0,-3
1470262329062563,-2,0,10,0,-2,0,-4,-2
1470262329063563,-1,-2,-11,-2,0,-5,6,-1
1470262329063563,-1,-1,0,-2,-1,-1,-9,0
1470262329086085,-1,-2,-3,-1,0,-3,-3,1
1470262329086085,-1,-1,-2,-4,-1,-1,-1,-1
1470262329086584,-1,2,2,0,0,-2,-2,3
1470262329086584,-2,-3,-4,-3,-1,-4,-3,0
1470262329100597,1,3,0,2,1,3,1,-4
1470262329100597,-2,3,1,-2,0,-3,-1,-3
1470262329101097,-1,0,3,0,-2,1,-2,-4
1470262329101097,-1,-3,-1,-2,-2,0,0,-1
1470262329122617,0,0,1,0,-1,0,2,0
1470262329122617,-4,2,-1,-2,-2,-2,-2,0
1470262329123618,-3,-2,-4,-4,1,2,9,0
1470262329123618,-2,3,3,-2,-2,-3,-1,0
1470262329145637,-1,-7,1,0,-2,0,-4,1
1470262329145637,-4,2,-3,-2,-2,-1,3,-2
1470262329146638,0,-5,-1,-2,-1,-2,-6,0
1470262329146638,1,-1,-6,-1,-1,-1,0,1
1470262329160150,-1,1,3,-1,-1,-3,1,-4
1470262329160150,-4,-1,-3,1,-3,-1,-5,1
1470262329161150,-2,-1,1,-3,-3,1,-2,-1
1470262329161150,1,2,-4,-1,1,-6,-1,-1
1470262329182671,1,4,-1,-2,2,6,-2,1
1470262329182671,0,-1,-1,0,0,2,3,-6
1470262329183672,-3,-2,1,-2,-3,-6,-2,-3
1470262329183672,-2,0,-4,-2,-2,-2,-4,-4
1470262329205690,-1,-2,-2,-1,-3,0,-1,1
1470262329205690,-1,-3,-7,0,1,0,-1,2
1470262329206692,-2,-1,6,1,-2,0,-1,2
1470262329206692,-3,0,1,2,1,0,-1,-1
1470262329220203,0,0,-1,-2,-1,-4,-3,-3
1470262329220203,-3,0,-3,-1,-2,-1,1,1
1470262329220705,3,-2,-4,-2,-1,-2,-1,1
1470262329220705,5,-2,-2,2,1,0,5,1
1470262329242724,-3,0,1,-2,0,-2,-11,-3
1470262329242724,2,-1,-3,0,0,-1,-3,-3
1470262329243225,-1,2,2,-1,1,-1,-1,-2
1470262329243225,-2,0,1,-3,-1,0,-2,-1
1470262329266245,-1,4,2,1,0,-1,1,1
1470262329266245,0,-5,0,-2,-1,1,3,0
1470262329266747,0,3,-1,2,-3,1,-1,-3
1470262329266747,-3,-2,0,0,0,0,4,0
1470262329280271,-5,-4,-9,-4,-4,-4,-12,-5
1470262329280271,-6,0,2,-3,-1,-2,2,-2
1470262329280758,1,-2,1,-1,2,-1,1,0
1470262329280758,0,1,0,1,0,0,-4,0
1470262329302777,-1,-2,0,1,-2,-1,8,3
1470262329302777,-2,-1,-1,1,-2,-1,-8,-6
1470262329303779,0,-4,-1,-3,-4,-3,-3,-4
1470262329303779,-1,0,1,0,-5,-2,0,-1
1470262329325798,-4,-3,-1,-1,-1,0,3,-4
1470262329325798,3,-2,-2,-2,1,0,-1,0
1470262329326799,1,1,1,0,1,3,0,-2
1470262329326799,1,-2,4,-1,2,1,-1,-1
1470262329340312,1,-1,-6,1,-1,1,1,0
1470262329340312,-1,2,3,0,0,-1,0,4
1470262329340812,-3,0,-8,1,0,-1,-2,3
1470262329340812,-2,-5,2,-1,-1,-2,-7,-1
1470262329362832,3,-1,-4,0,2,0,3,1
1470262329362832,-4,0,-1,1,0,-2,-9,-2
1470262329363834,-2,-5,-3,-3,-1,1,3,-3
1470262329363834,2,-3,-6,-1,-1,0,4,-1
1470262329385865,0,1,3,1,1,1,-2,-3
1470262329385865,0,-2,-3,-1,-1,0,1,-3
1470262329386854,-2,-3,0,1,-1,-3,-5,-2
1470262329386854,-3,1,-3,-1,-2,-1,0,-2
1470262329400366,1,0,3,0,1,0,2,-2
1470262329400366,-3,-5,-3,-3,1,-1,2,-2
1470262329400867,6,1,-2,-1,-2,1,-2,2
1470262329400867,-4,-2,-2,-4,-1,0,1,0
1470262329422386,0,5,3,1,-2,-3,-4,3
1470262329422386,-1,-4,1,0,0,1,3,-1
1470262329423388,1,5,0,0,1,-2,0,-3
1470262329423388,-2,-2,-3,-1,-3,-1,-3,-3
1470262329445919,-2,-3,-4,-2,-1,-3,2,0
1470262329445919,-2,-5,-5,0,-3,-3,-4,-4
1470262329446907,-1,-1,-2,-2,-2,1,2,-1
1470262329446907,-1,0,3,-1,-2,-1,0,-3
1470262329460424,-2,0,0,-1,-1,1,3,4
1470262329460424,5,1,-1,-1,-1,0,-3,-2
1470262329460920,-3,-2,1,1,1,1,3,2
1470262329460920,1,-2,-2,-2,-2,-5,-3,-1
1470262329482939,-4,-3,-3,-2,-2,-1,1,-1
1470262329482939,-2,1,2,-1,-2,-2,5,0
1470262329483441,-2,-2,0,-3,1,-3,-4,1
1470262329483441,1,-2,-3,1,0,2,-1,-1
1470262329505972,-1,5,3,1,-1,-1,-1,-2
1470262329505972,2,0,-3,-2,-3,0,1,0
1470262329506461,0,1,-2,0,-4,-2,-1,-4
1470262329506461,-1,-1,-2,-4,0,-1,-2,2
1470262329520474,-4,-4,-3,-5,-2,-4,-1,-3
1470262329520474,-3,-2,1,0,-3,0,-3,0
1470262329520974,-3,1,4,-2,-1,-1,0,3
1470262329520974,0,-3,-4,0,0,-3,-2,-3
1470262329542493,2,-3,2,-3,-3,1,-4,-3
1470262329542493,-4,-3,-6,-3,1,-2,-1,-2
1470262329543494,1,-1,-6,1,-1,-2,-3,-4
1470262329543494,0,3,8,0,-1,-3,-4,1
1470262329566014,0,-1,1,-3,-2,-1,-6,-1
1470262329566014,1,-4,-3,0,-2,-4,1,-2
1470262329566516,-5,-5,-7,-1,-1,-2,-2,1
1470262329566516,-3,-2,-3,-2,0,2,-1,1
1470262329580027,-4,-5,-1,0,-1,-2,0,1
1470262329580027,1,-1,-1,-2,-2,0,-3,-2
1470262329581028,1,0,-1,-1,-2,-1,-2,-1
1470262329581028,1,-6,-2,-1,-1,1,1,0
1470262329602547,0,1,-1,-2,0,2,-1,0
1470262329602547,-2,0,4,-1,-2,-1,-2,-2
1470262329603549,-4,-2,-1,-1,0,-2,-1,-4
1470262329603549,1,4,-6,0,0,-1,1,1
1470262329626068,0,-2,-1,-1,-3,-3,-5,-5
1470262329626068,1,2,0,-2,1,-3,-1,3
1470262329626569,2,5,-2,-2,-2,-2,-4,-2
1470262329626569,-6,-4,1,-1,-1,1,-1,-1
1470262329640581,1,-3,-2,0,2,1,2,1
1470262329640581,-1,-3,-4,-2,-1,-2,-9,-2
1470262329641082,-3,-1,0,-1,-1,1,2,-4
1470262329641082,-3,4,-3,0,-2,-3,2,-4
1470262329662602,2,1,0,2,-1,-1,-1,-1
1470262329662602,-2,-4,-2,0,-2,-3,0,-4
1470262329663602,-1,-1,1,-2,-4,-1,2,3
1470262329663602,-2,-1,1,-4,-1,-2,-7,-3
1470262329685121,1,0,-4,1,-1,0,1,-2
1470262329685121,0,3,-4,1,2,-1,3,2
1470262329692628,2,-2,0,-1,1,0,1,-3
1470262329692628,0,-3,-3,0,-1,-2,0,4
1470262329700137,-4,-2,0,-2,-3,0,-1,-2
1470262329700137,1,-4,-3,0,-3,-1,-2,-1
1470262329701135,-4,0,-3,-3,0,-2,-2,1
1470262329701135,0,-1,-2,-4,0,-3,-2,-3
1470262329722655,-3,-3,-4,-1,1,-2,-1,-1
1470262329722655,-2,-2,-2,-1,-2,-1,2,4
1470262329723656,0,-4,4,0,-2,1,-3,-3
1470262329723656,0,-6,-5,-1,-1,-2,3,-4
1470262329745677,-1,5,3,-1,-1,-2,-2,-1
1470262329745677,-2,3,-1,1,0,-2,-2,0
1470262329746677,1,-4,-2,0,-1,-2,0,-2
1470262329746677,-2,1,1,-1,2,2,-1,-4
1470262329760189,-3,-7,-4,-2,-3,-3,2,-2
1470262329760189,-2,-3,4,-2,1,1,0,-1
1470262329760690,-3,-2,-4,0,-1,2,1,2
1470262329760690,0,2,-1,1,-1,1,-3,1
1470262329782710,-1,0,0,0,-2,-1,-1,-2
1470262329782710,-3,0,-3,-5,0,0,0,2
1470262329783711,-1,-3,-6,-1,-2,-1,-4,-5
1470262329783711,-2,0,3,1,-2,-4,-1,-4
1470262329805730,2,0,-6,-2,0,0,-1,1
1470262329805730,-2,1,0,0,-2,-1,1,-1
1470262329806731,-2,-2,2,-2,-2,-2,-4,1
1470262329806731,-4,-3,1,1,-1,0,2,1
1470262329820243,0,-3,3,0,-1,0,-3,1
1470262329820243,-1,-2,-4,-2,-1,-3,-8,-5
1470262329821244,-2,-1,-3,-3,0,-2,1,1
1470262329821244,-1,-3,-5,0,-1,-1,-2,0
1470262329842762,-4,2,2,-2,-3,-1,-9,-3
1470262329842762,-3,-4,-3,2,0,1,5,-1
1470262329843764,-4,1,-5,-1,-1,0,-3,-2
1470262329843764,-3,-7,0,-3,-1,-3,-3,0
1470262329865784,-1,-3,-9,-3,1,0,2,-2
1470262329865784,-3,2,6,-2,-1,-1,-1,5
1470262329866784,2,0,-1,-3,1,-2,-2,-4
1470262329866784,-1,5,-6,-1,-2,-2,-2,1
1470262329880297,0,-1,2,2,-1,1,2,3
1470262329880297,-1,1,-3,0,-2,-2,0,-2
1470262329880797,0,-3,2,1,-1,-1,2,0
1470262329880797,-3,2,-1,-2,-3,-3,-8,-2
1470262329902816,-2,-1,1,-1,-1,-3,0,-2
1470262329902816,1,-2,0,-2,1,2,-1,0
1470262329903318,-3,2,-1,-4,-2,-4,2,2
1470262329903318,0,-1,0,0,-1,0,-4,0
1470262329924837,-5,-4,-2,-1,0,-3,-2,2
1470262329924837,0,4,1,-2,-4,0,2,-3
1470262329932845,-5,-3,0,-1,1,-1,-2,-1
1470262329932845,2,-3,0,-3,-2,2,1,-4
1470262329940351,2,3,-1,2,-1,0,-1,1
1470262329940351,1,2,2,0,-2,-3,-1,2
1470262329940851,0,-5,-4,-2,-4,0,-1,-1
1470262329940851,1,3,2,-2,-1,-1,3,0
1470262329962872,-3,1,1,0,-3,-1,-2,-3
1470262329962872,-1,-6,-5,-2,0,0,-2,-4
1470262329963371,-1,2,4,1,-1,0,-2,0
1470262329963371,-1,-3,-3,0,-1,-1,0,-1
1470262329985891,-1,1,1,-4,-1,-2,-1,-1
1470262329985891,-2,-6,-4,-1,0,-2,-3,-1
1470262329986892,-4,-4,-6,-1,-2,-1,0,0
1470262329986892,-1,0,5,-2,1,-1,-1,0
1470262330000404,0,0,-2,-1,-1,1,-3,-3
1470262330000404,1,5,-4,-2,-3,-1,0,-5
1470262330000905,2,-8,0,2,0,0,1,0
1470262330000905,-1,0,-1,-1,-3,-2,-4,2
1470262330022925,1,1,5,-1,0,-2,0,-2
1470262330022925,-3,0,-1,-2,-1,-3,-6,-4
1470262330023426,-1,0,-1,1,-3,0,3,2
1470262330023426,-1,-3,-4,-2,-1,1,1,-2
1470262330045944,-2,0,2,-1,-1,0,-4,0
1470262330045944,-1,-3,-1,0,0,-2,2,0
1470262330046445,3,4,1,-1,-3,0,0,-2
1470262330046445,1,-2,-7,2,-1,-1,-1,-7
1470262330059458,-2,-1,1,-2,-2,-3,2,-1
1470262330059458,0,1,1,1,-2,-3,1,4
1470262330067465,-1,-2,-3,-2,-1,0,-3,-3
1470262330067465,0,-3,1,0,0,-1,1,2
1470262330082979,-1,-6,-5,-1,2,-1,-3,-1
1470262330082979,-1,-4,2,-4,0,-2,-2,-5
1470262330083480,-1,1,3,-1,-1,1,0,-1
1470262330083480,-4,1,-3,2,-3,-2,-1,-2
1470262330106000,0,-1,-6,0,-2,-2,1,-3
1470262330106000,4,-2,-1,-3,0,4,2,7
1470262330106499,-2,-4,-2,-1,-3,-9,-4,-1
1470262330106499,-1,-1,2,1,1,5,2,-2
1470262330119511,-1,-4,-2,0,1,1,0,2
1470262330119511,-3,-1,-2,0,-5,-3,-4,-3
1470262330128019,0,3,-4,0,3,1,1,-2
1470262330128019,-3,2,2,-1,0,2,-1,3
1470262330142531,-1,2,0,-1,0,-2,0,0
1470262330142531,0,-6,-3,0,-1,0,5,3
1470262330143533,-1,-1,1,1,-3,-3,-7,-3
1470262330143533,0,-4,-3,0,-2,-3,1,2
1470262330166055,0,-5,-3,-2,-1,0,-1,-10
1470262330166055,0,0,-1,-2,0,3,1,-4
1470262330166554,-6,-4,-1,-4,0,-1,-1,1
1470262330166554,-2,2,1,-3,-3,-7,3,-4
1470262330179565,1,-2,0,-1,-3,-1,-2,2
1470262330179565,0,-4,2,-2,-1,-1,-1,0
1470262330188073,0,0,0,0,-1,1,-1,-3
1470262330188073,0,-7,-9,-2,-1,0,-2,1
1470262330210592,-2,-2,-2,-1,-1,-1,-3,2
1470262330210592,-2,4,-5,3,-1,-4,1,-3
1470262330211594,-1,3,-3,-1,-2,0,-2,-1
1470262330211594,-1,1,4,-1,0,-1,0,0
1470262330226108,2,1,2,0,-1,-3,0,2
1470262330226108,-2,-3,-3,0,-2,-1,1,-1
1470262330226608,-1,0,1,-2,-3,-1,-2,-1
1470262330226608,-3,-1,-2,-1,0,-1,-3,0
1470262330239622,0,3,-4,-2,-3,-2,-3,0
1470262330239622,2,7,2,1,1,2,-1,-2
1470262330247626,0,1,-1,-1,-2,-2,-3,0
1470262330247626,-1,-2,1,-1,-1,-3,-5,0
1470262330262639,-3,-3,-2,-2,-1,3,1,-5
1470262330262639,-3,1,0,0,-2,1,-4,2
1470262330263641,0,-4,-3,-4,-2,0,1,-3
1470262330263641,0,0,0,-1,-1,1,-2,-2
1470262330285660,1,-1,-4,1,0,0,1,-5
1470262330285660,-4,-4,1,-3,-3,-4,-3,-3
1470262330286661,-3,2,1,2,0,0,0,-3
1470262330286661,3,-3,-1,-3,-1,0,2,2
1470262330299673,-2,-5,-3,-1,-3,-1,0,-1
1470262330299673,2,3,-1,-1,2,-2,-3,-1
1470262330307682,-2,-2,2,0,-1,-3,-2,0
1470262330307682,2,1,3,-3,-1,-2,-1,-1
1470262330322693,-1,4,-1,-1,-4,-4,-5,-3
1470262330322693,-3,-1,2,-2,0,6,2,1
1470262330323695,-2,-1,-3,-1,-3,-7,1,1
1470262330323695,-5,-1,-4,0,-2,-2,-3,-2
1470262330345714,0,2,1,-2,0,0,-4,0
1470262330345714,-2,0,-5,1,-2,0,-1,-4
1470262330346715,2,3,0,-2,1,1,1,0
1470262330346715,-2,1,-4,-1,-3,-1,0,-5
1470262330359726,2,1,0,2,-1,0,4,2
1470262330359726,1,-3,-3,1,-1,0,-9,-1
1470262330367738,0,1,-3,-2,-2,-3,-2,-2
1470262330367738,0,-1,3,-1,-2,-1,3,0
1470262330382748,0,-2,2,2,2,-1,-2,-2
1470262330382748,-4,-1,-1,-1,-2,-3,0,-1
1470262330383750,1,-3,2,1,-1,2,-2,4
1470262330383750,0,2,-1,-1,-1,0,-1,0
1470262330405769,-1,-3,-5,-2,-1,1,-2,1
1470262330405769,-5,-5,-1,-5,-3,-3,-1,1
1470262330406770,1,-1,0,1,-2,1,1,-4
1470262330406770,-1,0,-5,-1,-1,-2,-1,1
1470262330428288,0,0,2,1,-1,-1,0,-1
1470262330428288,2,-3,-3,0,0,-3,5,2
1470262330429290,-2,0,-3,-4,0,-3,-8,-7
1470262330429290,-1,-3,0,-2,0,0,-2,-2
1470262330442801,-2,-5,-5,-4,-3,-2,-1,1
1470262330442801,1,1,3,3,-2,-1,-2,1
1470262330443803,0,-4,-4,1,-1,-3,1,-1
1470262330443803,-1,-3,0,-1,-1,-1,-3,-1
1470262330465824,-3,-1,-1,-2,0,1,-1,-4
1470262330465824,0,-1,-4,-1,1,-4,0,-2
1470262330466824,-5,0,-2,-2,0,-2,3,1
1470262330466824,0,-2,-2,0,-1,-1,-7,-2
1470262330488344,-4,3,-1,-1,-1,0,1,2
1470262330488344,-3,-3,1,0,-3,0,0,0
1470262330489343,-2,-3,0,3,0,2,2,2
1470262330489343,0,-2,-1,1,0,0,0,-5
1470262330502859,-1,-3,-6,-4,-2,-4,0,-4
1470262330502859,-1,1,0,-4,0,1,-1,1
1470262330503356,-5,-3,0,0,-1,-2,-6,1
1470262330503356,-2,0,1,1,1,1,1,0
1470262330525876,2,-1,-3,-6,0,-2,-1,3
1470262330525876,-1,-1,2,4,1,-3,1,-2
1470262330526877,-1,-7,2,-1,-1,0,0,-5
1470262330526877,1,-2,-5,-2,-4,-2,-1,-2
1470262330548399,-2,-2,-1,-2,-4,-2,-1,-2
1470262330548399,-1,1,-5,-4,0,0,-3,1
1470262330549397,-5,1,3,2,0,-1,-3,-4
1470262330549397,-2,-2,-3,1,0,1,3,1
1470262330562909,-1,-1,2,0,-2,0,6,-1
1470262330562909,2,-2,-3,-2,-1,0,-4,-3
1470262330563410,4,-6,-4,-5,-3,-2,-2,2
1470262330563410,-1,0,3,2,4,-1,0,-3
1470262330585930,-2,0,0,-1,-3,2,1,1
1470262330585930,-3,-1,-3,-2,-2,-5,-4,0
1470262330586431,0,-5,-3,-1,-1,2,-1,-2
1470262330586431,-1,-1,1,0,-1,-2,1,0
1470262330608450,2,-2,0,0,0,-2,-1,3
1470262330608450,0,-1,-1,-4,-2,-3,-4,-8
1470262330608951,0,2,-5,-1,0,1,1,0
1470262330608951,1,0,0,-4,-1,-3,-1,0
1470262330630971,-4,-5,0,2,0,0,-2,2
1470262330630971,-1,-1,-1,-2,-3,-2,0,0
1470262330631471,-2,1,1,0,-4,-1,3,1
1470262330631471,-3,0,-4,0,0,1,2,0
1470262330645984,1,2,-1,-2,-2,0,-4,-3
1470262330645984,1,-1,-1,-3,-2,-1,-2,-2
1470262330646985,-3,0,2,0,-1,-1,1,1
1470262330646985,-4,-2,-3,-2,-2,-1,-3,-1
1470262330668505,-1,-1,1,-1,1,-1,0,1
1470262330668505,-2,-2,-4,0,-1,-3,-4,-1
1470262330669005,0,0,-1,-1,-1,0,-1,0
1470262330669005,-4,0,-1,-4,-4,-4,-9,-6
1470262330683018,-4,-4,-1,2,1,2,1,-1
1470262330683018,0,-2,0,-1,-1,-3,2,0
1470262330683517,-1,0,-2,1,0,-1,0,-1
1470262330683517,-2,0,-1,0,-3,0,-7,-1
1470262330706038,1,-2,1,-2,-2,0,-4,-2
1470262330706038,-2,-2,-2,0,0,1,0,-1
1470262330706539,2,1,-1,-2,-1,0,2,0
1470262330706539,2,-2,-2,0,-2,-1,1,0
1470262330728558,1,1,-4,-3,-2,-2,-4,-1
1470262330728558,-1,3,3,1,0,0,0,-4
1470262330729059,-1,-2,-5,-2,-2,-1,-2,-4
1470262330729059,1,-1,0,-4,-2,-2,1,0
1470262330742570,-4,-1,6,4,1,-4,1,0
1470262330742570,-3,-2,-7,-1,-4,-2,0,-2
1470262330743571,-3,-2,-1,0,0,0,-4,-2
1470262330743571,-3,2,2,-4,-1,-5,0,3
1470262330766091,-1,-1,-4,-2,1,-3,-3,-3
1470262330766091,2,0,3,3,3,3,-1,-4
1470262330766592,1,-2,-2,-1,-3,-2,-1,0
1470262330766592,1,2,3,0,-3,1,2,-3
1470262330788611,-1,1,-3,-3,-2,-2,-3,-1
1470262330788611,0,-4,-2,0,-1,-1,2,1
1470262330789113,-1,-5,-2,-1,0,0,-1,1
1470262330789113,0,-2,-3,2,0,1,-1,0
1470262330802624,0,0,1,-1,-3,0,-1,1
1470262330802624,0,4,0,1,-1,-5,-3,0
1470262330803627,1,1,-2,-2,-1,-4,-3,-3
1470262330803627,-1,-5,-2,-2,1,0,1,-1
1470262330825645,1,-1,-2,1,-4,0,0,-7
1470262330825645,-1,2,0,-1,-3,2,-3,2
1470262330826646,-1,0,1,-3,-1,-2,5,2
1470262330826646,-3,-4,0,2,0,1,1,-3
1470262330849167,-2,0,-2,-3,-1,-3,-1,-3
1470262330849167,1,5,2,-1,-2,1,-4,1
1470262330849167,-2,-2,-2,0,0,-1,2,1
1470262330849167,0,-2,-6,-2,-2,-2,-2,-6
1470262330862678,1,0,-2,-1,1,-1,2,2
1470262330862678,-1,1,-1,-2,-1,-3,2,0
1470262330863680,-3,-2,-4,-2,-1,-3,-2,-3
1470262330863680,1,-2,2,-2,0,-2,0,-1
1470262330885700,-2,2,-1,0,-3,-1,-5,-3
1470262330885700,0,-3,-4,-2,-1,-1,1,-2
1470262330886700,0,1,1,2,1,-2,-2,-2
1470262330886700,0,-5,0,-1,-1,1,-1,0
1470262330908219,-2,-2,-4,-2,-2,-1,0,-1
1470262330908219,-4,-1,1,-3,-3,0,1,-2
1470262330909220,-1,-3,-2,-2,-3,-3,-3,-1
1470262330909220,-2,0,0,0,0,-2,1,1
1470262330922733,0,-5,0,1,1,2,-6,1
1470262330922733,-4,-1,-6,0,-3,0,1,-2
1470262330923733,-3,1,1,-2,-2,0,-4,0
1470262330923733,1,-2,0,-1,-2,0,0,-1
1470262330945754,-1,-1,-5,-4,-1,-2,0,-1
1470262330945754,0,-6,0,0,0,-3,-1,-3
1470262330946754,1,1,0,-1,0,-1,0,-1
1470262330946754,-1,-2,-3,-1,0,1,-3,-2
1470262330968273,-2,-3,-3,-2,-1,-3,0,-4
1470262330968273,-1,-2,-2,0,0,-1,-1,0
1470262330969275,0,-1,1,-2,-4,0,-3,0
1470262330969275,-3,3,1,-1,2,-1,-5,-1
1470262330982786,-3,-4,-4,0,0,0,2,-3
1470262330982786,-1,-1,-1,-3,-3,-1,1,-2
1470262330983789,-4,-4,-3,1,-1,-1,0,-2
1470262330983789,-1,4,1,-2,-3,2,-3,-2
1470262331005808,0,0,-1,2,-1,-1,-1,-1
1470262331005808,1,-1,-1,2,0,-2,-2,2
1470262331006810,-2,2,2,-3,-1,2,-1,2
1470262331006810,-3,-6,-4,-1,-1,-5,1,1
1470262331028328,0,3,-3,-2,-1,0,0,-3
1470262331028328,-2,-4,1,0,-1,-2,0,2
1470262331029330,1,-2,-6,-1,-3,-3,-3,-3
1470262331029330,-2,6,5,0,-1,0,1,-1
1470262331041841,-2,-3,3,0,-3,-3,0,-2
1470262331041841,-5,-1,-1,0,-1,-1,-1,-2
1470262331050346,-2,-6,-2,-4,0,-2,-4,-3
1470262331050346,0,-3,-5,-3,-5,0,8,4
1470262331065861,1,0,-1,1,3,2,-5,-2
1470262331065861,2,0,-1,-2,-4,-3,-4,2
1470262331066863,-1,-2,-1,0,-3,1,-3,-1
1470262331066863,1,-3,-6,0,-2,-3,-3,-2
1470262331088882,-2,-3,2,1,-1,-4,-3,-1
1470262331088882,-3,0,0,-3,1,-1,0,0
1470262331089382,0,0,0,-1,1,-3,0,-2
1470262331089382,0,-2,-3,1,-1,-3,-4,-3
1470262331102394,-1,-3,-2,-1,-2,2,-1,-1
1470262331102394,0,0,1,-4,-3,-3,-5,-3
1470262331110402,2,2,0,2,0,0,-1,1
1470262331110402,-3,1,-4,-1,-1,-1,-4,-3
1470262331125915,-1,-4,0,-3,-2,-1,5,5
1470262331125915,-1,-1,1,-2,1,4,0,-2
1470262331126916,1,5,2,-3,-2,-2,-2,-1
1470262331126916,0,-3,-4,-4,0,0,1,0
1470262331148435,3,8,3,0,-2,0,-1,-5
1470262331148435,0,0,-3,1,-1,-4,-1,0
1470262331149437,0,-1,-2,1,-1,0,2,-1
1470262331149437,0,1,-2,0,-1,-2,-3,-2
1470262331161947,-2,-2,-2,-2,-3,1,-3,-1
1470262331161947,0,-4,-3,1,0,-3,1,-5
1470262331170455,-2,-1,-2,2,-1,-1,2,-1
1470262331170455,-3,2,1,3,-1,1,-2,-1
1470262331185970,-3,1,-2,-4,-3,-4,-2,-1
1470262331185970,1,0,-1,0,-2,1,0,0
1470262331186469,-5,-3,-1,-1,-1,-2,-3,-2
1470262331186469,0,-4,-5,0,-1,-1,2,-1
1470262331208488,-1,3,0,-1,-1,-2,0,-1
1470262331208488,0,2,1,0,-2,0,0,-3
1470262331208989,-1,-1,-1,-3,-2,-3,-4,-1
1470262331208989,2,-1,-1,-3,-1,0,-1,-3
1470262331222001,-4,-2,-1,3,-1,-3,0,3
1470262331222001,0,-3,-1,-3,0,1,-2,-3
1470262331230512,-4,3,2,1,-2,-2,-2,-2
1470262331230512,1,-5,-2,-2,-2,-2,-1,-1
1470262331246022,6,1,1,1,4,0,2,3
1470262331246022,-1,-3,-3,-5,-1,-1,-2,1
1470262331246524,-2,-2,-4,0,-1,-2,0,-3
1470262331246524,-5,-1,-1,-3,-3,-2,-5,0
1470262331268544,-4,-4,-1,-1,-1,-2,-1,-1
1470262331268544,-2,-6,2,-2,0,0,1,1
1470262331269044,2,-1,-1,-1,0,-3,-3,2
1470262331269044,0,-5,3,-1,-1,0,4,-2
1470262331282056,-3,-2,-2,1,0,-1,-3,-3
1470262331282056,-2,-3,-2,-1,-2,-3,0,0
1470262331290062,1,0,1,-3,0,-1,0,-2
1470262331290062,-1,1,1,1,-3,-4,-1,-1
1470262331306077,-2,2,-1,-6,-2,-1,-2,0
1470262331306077,-2,-1,-6,1,1,-1,-1,0
1470262331306577,0,-4,-2,1,0,3,-1,2
1470262331306577,-1,1,1,1,-1,-1,1,0
1470262331328597,1,-2,-2,-3,0,-1,0,0
1470262331328597,-3,4,2,-1,-4,-2,-3,0
1470262331329098,-2,-2,-4,1,2,2,2,-2
1470262331329098,-3,1,-2,-2,0,-1,-4,-1
1470262331351118,-1,-1,-2,2,-1,-2,0,-1
1470262331351118,1,-2,-1,-2,0,-4,0,1
1470262331351618,1,-7,-1,1,-4,-5,-2,0
1470262331351618,-2,0,0,-4,-3,0,-4,-3
1470262331366132,-2,-2,-1,1,0,-2,0,0
1470262331366132,-4,4,0,-2,-1,-1,-1,-3
1470262331366632,-5,1,-1,-5,-3,-4,-3,-4
1470262331366632,0,-3,-1,-2,0,0,1,-1
1470262331388651,-3,-2,-1,0,-2,1,-2,-1
1470262331388651,0,-3,-2,-1,-2,-6,1,-2
1470262331389151,0,1,-1,-1,-2,2,1,-1
1470262331389151,-1,-1,-3,-4,-1,-3,-5,2
1470262331410670,0,-1,1,-2,-2,0,2,1
1470262331410670,1,-1,1,-3,-3,-1,-1,1
1470262331411673,-2,-3,0,0,3,2,1,2
1470262331411673,2,-3,-2,5,-1,-1,-2,3
1470262331426185,0,-2,-2,0,0,-1,-1,-5
1470262331426185,2,-2,-1,1,-1,1,-1,1
1470262331426685,-3,-3,0,-2,-2,0,-3,-4
1470262331426685,-3,-2,-4,-1,0,-5,5,-5
1470262331455712,0,-8,-1,-3,-3,-6,-11,-3
1470262331455712,-4,-4,-3,-2,-2,0,-2,-4
1470262331457714,1,-3,-2,2,0,0,-3,-2
1470262331457714,-2,-6,0,-1,-2,1,0,4
1470262331471225,-2,-1,-1,-1,-2,0,3,1
1470262331471225,-2,4,-3,2,-1,-4,-3,-2
1470262331472726,-2,-2,-1,-5,-3,-3,-2,0
1470262331472726,-1,2,1,-1,-2,1,2,-1
1470262331484736,-1,-2,-2,-4,2,1,1,0
1470262331484736,-1,-1,-4,-2,1,1,-1,-2
1470262331493745,3,-2,1,1,-3,-1,2,1
1470262331493745,1,0,-2,0,0,1,-1,1
1470262331508258,-1,3,-1,1,-2,0,-1,-3
1470262331508258,1,1,-2,-1,-3,0,1,-1
1470262331510261,-2,-2,-1,0,0,-3,-3,-4
1470262331510261,-2,-2,1,1,0,-1,-2,1
1470262331530779,0,2,0,-1,-2,1,-1,1
1470262331530779,-1,-2,0,-2,2,1,-4,2
1470262331532781,1,4,-1,1,0,0,3,-2
1470262331532781,-1,-1,-3,0,-1,-1,-2,-3
1470262331544793,1,-1,-3,1,0,-2,0,1
1470262331544793,-2,-3,0,1,-2,-1,-3,-2
1470262331553799,-1,1,-4,-2,-2,0,5,1
1470262331553799,-3,1,0,-2,-3,-1,-3,1
1470262331568319,2,-3,-1,1,-1,-3,-2,-2
1470262331568319,3,1,-1,1,0,1,1,-1
1470262331570315,-3,-2,0,0,0,-3,-6,-2
1470262331570315,3,1,0,-4,-2,3,0,-1
1470262331590833,1,4,2,-1,-1,-1,2,4
1470262331590833,-2,-4,1,1,-1,-1,-4,0
1470262331592334,-2,1,-2,-3,-1,-4,0,-1
1470262331592334,1,-3,-2,-1,-3,-3,-1,-4
1470262331605345,-6,1,-3,-1,-2,-3,-3,-3
1470262331605345,-2,-4,1,-1,-2,0,-2,1
1470262331611852,-4,1,0,-3,-2,-1,-1,-4
1470262331611852,1,0,-1,-1,0,-3,-5,-2
1470262331628366,-1,1,0,-3,-1,1,-2,-3
1470262331628366,-1,-4,0,-1,-2,0,-1,-1
1470262331630368,2,0,-4,0,-2,0,2,2
1470262331630368,0,-1,0,2,-1,-3,-2,0
1470262331650886,-1,1,-1,-1,-3,-2,-1,1
1470262331650886,-2,-1,-5,-3,-1,-1,0,-2
1470262331652888,0,-1,-1,-5,-1,-2,0,-1
1470262331652888,-5,-1,-1,1,0,-3,2,-1
1470262331665400,1,-3,-1,0,2,1,-2,-1
1470262331665400,-1,3,2,-5,-2,-2,0,-3
1470262331671906,-4,-1,-1,-2,-1,-2,1,-2
1470262331671906,-1,-2,-4,-1,0,-1,-3,-3
1470262331688420,-3,2,-1,-2,-1,-2,0,-1
1470262331688420,-2,1,5,0,-2,-1,-3,1
1470262331689923,4,-1,-3,0,-1,1,-1,2
1470262331689923,-3,1,-1,-3,-1,-1,-3,-4
1470262331710939,1,-5,-3,-1,-1,-1,-1,2
1470262331710939,-1,-3,-5,0,1,2,1,2
1470262331712442,-1,1,1,1,0,1,-4,1
1470262331712442,-2,3,2,-5,1,0,-3,0
1470262331724955,1,-2,0,-2,-2,-1,1,-1
1470262331724955,-3,0,-1,0,-1,-1,2,-1
1470262331731959,-2,1,-3,-2,-1,-2,-2,3
1470262331731959,0,-2,0,2,2,0,0,1
1470262331748474,0,2,3,-4,-3,-1,-3,-3
1470262331748474,-2,-1,-2,-2,-1,-4,0,-4
1470262331749976,-2,-4,-4,-2,1,-3,-2,-5
1470262331749976,1,0,0,0,-3,-1,1,4
1470262331770994,-3,0,-1,0,1,0,-1,-1
1470262331770994,3,0,-2,1,-1,-3,0,-1
1470262331772496,-4,-2,2,-2,1,-2,-1,1
1470262331772496,0,-2,-2,-1,-2,-1,-2,-1
1470262331785507,-2,2,-1,-1,-3,3,2,-1
1470262331785507,0,-2,-2,-2,0,0,-3,-4
1470262331792013,0,-4,1,-1,-1,-2,-1,-2
1470262331792013,-3,-2,-4,1,-1,0,1,-3
1470262331808529,-3,4,3,-2,-1,-3,1,0
1470262331808529,-2,-3,0,1,-1,-2,-2,-3
1470262331810030,-4,-1,-3,0,-1,-2,-2,-1
1470262331810030,3,-4,-3,-2,2,-2,0,-1
1470262331831049,-1,-3,-5,-2,0,-3,-3,-6
1470262331831049,-1,-2,-4,-3,0,2,4,-2
1470262331832550,-2,-1,1,-4,-2,0,-3,-6
1470262331832550,-2,-1,0,-2,-4,-1,1,0
1470262331844560,0,-6,1,0,-1,-2,1,1
1470262331844560,-3,0,0,1,-2,0,-5,1
1470262331853569,0,2,0,1,-1,0,-2,1
1470262331853569,-1,-2,0,-1,-1,0,0,1
1470262331868583,-2,-5,-4,-4,-2,-3,1,-3
1470262331868583,-1,1,1,3,-1,-3,-3,-1
1470262331870085,1,-2,-3,0,-3,-1,1,-1
1470262331870085,-2,1,1,-1,-1,-2,-7,0
1470262331891102,-1,-2,-3,-3,-3,-3,-1,0
1470262331891102,-1,0,0,-1,-2,-2,-3,-2
1470262331892620,-1,5,-1,-2,-1,-1,-1,2
1470262331892620,-1,-1,-2,-1,-3,-1,1,-3
1470262331904614,-3,-1,-4,1,-3,-2,-1,0
1470262331904614,-2,0,-1,-1,-1,1,1,-1
1470262331913622,4,-3,0,-1,1,-1,-1,-5
1470262331913622,-4,1,1,1,-1,-2,-3,-1
1470262331928636,1,-4,-5,-1,-1,0,-2,-1
1470262331928636,-1,5,1,1,0,0,1,1
1470262331930638,0,-5,-4,-1,0,-1,-7,-2
1470262331930638,1,-1,2,-1,0,-2,0,-1
1470262331951157,0,-2,1,-2,-1,-3,-6,-3
1470262331951157,3,-1,0,-5,-3,0,2,2
1470262331952657,-1,1,-1,0,1,-1,0,-2
1470262331952657,-2,1,-3,-2,0,-3,1,-1
1470262331964668,-2,-2,0,-1,-2,-3,-1,-2
1470262331964668,-3,-7,-3,-1,-2,-3,0,-2
1470262331973676,-1,0,-3,1,0,0,-5,-4
1470262331973676,-1,-3,1,-2,1,-2,-1,-1
1470262331988690,0,3,-1,2,3,2,2,-1
1470262331988690,0,-3,-4,-2,-2,-3,-1,-1
1470262331990192,-1,-1,-1,3,-2,-2,3,4
1470262331990192,-2,-2,-3,2,-2,-1,-1,-4
1470262332010709,1,0,-1,-1,-1,-2,-5,-3
1470262332010709,-1,-3,-3,0,-1,-1,-1,-2
1470262332012710,-5,-1,-4,-4,-1,-2,2,0
1470262332012710,-1,-3,-4,-2,-3,-2,-5,-4
1470262332024722,-3,2,4,-1,-3,-1,-2,3
1470262332024722,1,-3,0,-4,1,6,5,1
1470262332033731,-1,-1,2,2,-4,-5,-7,-1
1470262332033731,-1,-3,-2,0,0,-9,-9,-3
1470262332048244,-2,-7,-3,-2,-2,4,3,1
1470262332048244,-3,6,1,0,-1,-6,-7,1
1470262332050247,2,-4,-1,0,-1,-2,-4,-1
1470262332050247,-1,-1,1,-2,-2,-2,8,1
1470262332070762,-2,-1,-3,0,4,21,10,1
1470262332070762,-1,-4,-1,-1,-5,-25,-5,-4
1470262332072766,-4,-3,-1,-4,2,7,-3,1
1470262332072766,-3,-4,-2,-4,-2,-10,-13,-1
1470262332084775,0,-2,-1,0,-3,-8,-1,0
1470262332084775,-1,-7,-5,-3,0,5,-1,0
1470262332093284,-2,0,0,3,-1,-5,8,-1
1470262332093284,1,5,-2,-1,-3,3,3,3
1470262332108298,-4,2,0,-3,-1,-3,-7,0
1470262332108298,-3,-2,-2,-3,-1,1,-4,-2
1470262332109799,-2,-4,0,-4,-1,-1,4,-6
1470262332109799,-1,-2,-3,0,0,3,2,-2
1470262332130816,-2,-1,-4,-1,-1,-5,2,1
1470262332130816,-2,2,2,4,0,2,1,-4
1470262332132318,0,-1,-1,-4,0,-1,-1,-1
1470262332132318,2,1,-3,1,-3,2,5,2
1470262332144830,0,-3,0,-2,-2,0,-6,-5
1470262332144830,-3,-2,-4,1,-2,2,1,0
1470262332153338,-2,-1,-1,-3,-1,-1,0,3
1470262332153338,-3,3,3,-1,0,0,-3,3
1470262332168351,-1,-1,-3,1,1,-7,-2,-5
1470262332168351,3,0,-1,-1,0,5,1,2
1470262332169852,1,-2,1,0,-2,-2,-1,-4
1470262332169852,-5,-1,-3,-3,0,-2,-1,-1
1470262332190871,-1,0,0,-2,-3,-4,-2,-1
1470262332190871,0,1,-3,-1,-1,2,1,0
1470262332192373,-1,-2,-3,-2,-1,-7,-9,1
1470262332192373,-1,2,1,-6,-1,3,-1,-5
1470262332204384,1,1,0,0,-2,-3,-3,1
1470262332204384,-3,0,1,-2,-2,-2,-5,-1
1470262332213392,-2,2,-1,-1,-1,0,4,0
1470262332213392,-1,-2,-2,0,-2,-1,-3,-1
1470262332228906,0,-3,-2,-2,-3,-3,-2,1
1470262332228906,-2,4,-2,-5,-3,0,0,1
1470262332230406,1,-1,-4,-1,-3,-1,-1,0
1470262332230406,1,-2,1,1,2,-1,2,-1
1470262332250925,-3,-1,-2,1,0,-1,0,-5
1470262332250925,-1,2,-2,-2,0,-2,0,1
1470262332252426,0,-2,-1,-2,-1,0,-2,-1
1470262332252426,0,-4,-2,-2,0,2,5,0
1470262332264437,3,2,1,-1,1,-2,2,-1
1470262332264437,-2,-3,0,-3,-3,-3,-4,-2
1470262332273445,-1,2,-4,1,-1,1,5,-3
1470262332273445,-3,-2,-3,1,-1,1,-4,0
1470262332288458,-2,-1,-4,0,-1,0,4,3
1470262332288458,-2,1,-3,-2,-2,-5,2,-6
1470262332289960,1,0,-2,-2,0,0,-1,3
1470262332289960,4,-2,-1,3,-2,0,-2,1
1470262332310978,-1,-3,3,-1,-2,-2,-2,1
1470262332310978,-1,0,0,-1,-2,-2,-5,-1
1470262332312480,-4,0,1,2,-1,2,0,0
1470262332312480,-1,-4,-3,0,1,0,-5,-3
1470262332333499,-1,5,-1,-5,-1,0,-3,-2
1470262332333499,0,-4,3,0,1,-2,7,-5
1470262332335000,-2,-1,-3,-1,0,-2,-6,-1
1470262332335000,0,-2,0,-1,-1,2,1,-4
1470262332348512,1,0,2,0,-1,-8,-3,-1
1470262332348512,1,-4,1,-1,0,10,0,3
1470262332350015,1,-2,-2,-1,-3,-13,-4,0
1470262332350015,-4,2,0,0,1,5,3,2
1470262332371033,-1,-1,-5,-2,-1,-4,1,1
1470262332371033,-4,-1,-3,0,1,0,-5,-2
1470262332372534,-1,-6,1,-3,-3,0,0,-4
1470262332372534,-1,-2,-4,-1,-3,-6,-4,-1
1470262332393553,-4,-3,-2,-4,-1,1,0,-5
1470262332393553,-2,-1,-1,-1,-2,-4,1,0
1470262332395055,-1,-2,2,-1,-2,2,-2,-1
1470262332395055,-2,0,-4,-1,-2,-5,-1,1
1470262332408566,-2,-4,-4,-2,1,2,-2,1
1470262332408566,1,3,-3,-1,-2,-1,-1,-4
1470262332410068,0,-4,-6,-2,0,-3,-2,0
1470262332410068,2,5,0,-2,0,-1,1,0
1470262332430587,0,-2,-2,0,-2,-1,-1,3
1470262332430587,2,-3,-5,0,-2,-3,-2,1
1470262332432588,-4,-2,1,-2,-2,-2,1,1
1470262332432588,-2,-4,-1,0,0,0,0,-3
1470262332453607,-4,-3,-1,-2,-1,0,-4,-2
1470262332453607,0,-7,-1,-2,0,-7,-3,-1
1470262332455108,0,1,-3,-4,-1,2,3,0
1470262332455108,-2,-3,1,-1,-1,-4,-2,-2
1470262332468120,-2,0,1,0,-2,1,-2,-3
1470262332468120,1,-1,-1,1,-2,-2,-1,-2
1470262332474625,0,2,2,-1,-3,1,-2,-1
1470262332474625,-3,0,-2,-2,-3,-6,-5,-1
1470262332491140,2,-1,3,1,0,-1,2,3
1470262332491140,0,-2,-4,1,-2,4,-1,-3
1470262332492645,-1,0,-1,-3,1,-3,1,-2
1470262332492645,-2,0,-1,-3,-3,-1,-3,-1
1470262332513661,-5,0,-4,-3,1,-2,5,-1
1470262332513661,-3,-3,0,-1,-4,-2,1,3
1470262332515178,0,3,3,0,-1,-1,-1,-4
1470262332515178,-2,-2,-5,1,1,-1,-4,-1
1470262332527691,1,0,0,-1,-1,-2,-1,-3
1470262332527691,1,2,-1,-1,0,0,0,-2
1470262332534739,-4,0,-3,-2,-4,-1,1,-3
1470262332534739,0,-2,-3,-5,-1,0,2,1
1470262332551196,3,4,5,-3,0,-2,-4,0
1470262332551196,-2,0,-5,-1,0,0,2,1
1470262332554697,0,0,7,-6,-4,-2,-7,-1
1470262332554697,2,-5,-1,2,1,2,2,-3
1470262332573715,0,-3,-5,-1,-3,0,-1,-1
1470262332573715,-4,-3,1,-1,1,0,-3,1
1470262332575216,-3,1,0,0,-1,-2,-2,-1
1470262332575216,-1,1,-2,-2,-3,-1,0,-3
1470262332587727,0,-2,1,1,-3,-2,-2,-1
1470262332587727,0,0,-2,-1,0,-3,-2,-3
1470262332594734,-3,-1,-7,1,1,1,3,1
1470262332594734,-3,0,4,-2,-5,-6,-9,-2
1470262332610749,-3,0,-2,1,-2,-1,4,0
1470262332610749,1,1,2,2,-1,-1,-3,-6
1470262332612750,1,4,3,2,2,2,0,2
1470262332612750,-1,3,1,1,-1,0,1,-1
1470262332633770,1,-1,1,-2,-1,-1,-2,1
1470262332633770,-5,-2,1,-2,-4,-4,-5,-2
1470262332635271,0,-1,-2,-2,0,0,2,-1
1470262332635271,0,2,4,0,-2,-1,0,-2
1470262332647782,1,0,-1,1,0,-2,-4,-5
1470262332647782,-3,-2,-3,-2,-3,-2,-2,0
1470262332654788,1,-1,-1,1,0,0,-2,2
1470262332654788,-2,0,-1,1,-1,-2,1,4
1470262332670802,-1,1,3,1,-4,0,-5,-3
1470262332670802,2,1,1,-3,0,-1,0,-1
1470262332672304,1,-4,-3,-1,-3,-3,-6,-2
1470262332672304,0,-7,-2,-1,1,0,3,0
1470262332693322,0,1,-5,-4,-1,2,-1,0
1470262332693322,-2,-2,-4,1,-2,-4,2,-1
1470262332694823,-1,0,3,0,-1,0,-1,-5
1470262332694823,1,2,0,-3,0,0,-2,-3
1470262332707836,-4,-1,-1,2,1,-1,-3,1
1470262332707836,-3,-2,-4,-1,-2,-2,0,0
1470262332714340,2,-5,-7,-1,-1,-1,1,-3
1470262332714340,2,4,1,-2,-2,-3,-6,-2
1470262332730856,-5,1,1,3,-1,-3,-2,-1
1470262332730856,1,4,3,-1,0,1,0,-1
1470262332732858,1,-5,-5,0,-1,-1,2,4
1470262332732858,-2,3,1,-2,-1,0,0,-2
1470262332753377,-4,-2,-6,0,0,-1,-4,-3
1470262332753377,3,0,2,-3,-3,-2,-1,-2
1470262332754878,1,-4,-3,-1,-2,-2,-4,-2
1470262332754878,-4,-9,-8,-4,-1,0,-1,-2
1470262332767889,1,-2,-3,-1,-1,-1,7,3
1470262332767889,-3,-8,-7,-1,-1,1,0,-1
1470262332774394,-5,-4,0,0,0,-6,-6,-2
1470262332774394,-3,-1,-2,0,-1,-4,0,2
1470262332790910,0,-3,-2,-2,-1,-2,0,-3
1470262332790910,1,0,2,-1,2,-1,-5,-2
1470262332792912,1,3,-2,0,-2,-1,0,1
1470262332792912,-3,0,-3,-2,1,-1,-1,-2
1470262332813430,-5,-3,-6,-2,-1,-1,0,1
1470262332813430,-2,2,4,-1,-4,-4,-2,1
1470262332814931,-1,-5,0,-2,0,-2,0,-3
1470262332814931,-2,3,0,0,0,2,1,2
1470262332827442,1,-7,-1,-4,-3,-1,-2,-3
1470262332827442,-2,-1,-1,-1,-1,0,-4,-1
1470262332835950,-4,1,-4,-5,0,1,3,-2
1470262332835950,2,-4,2,3,-1,-3,-2,2
1470262332850964,0,4,1,-2,-1,-1,-3,-2
1470262332850964,0,-3,-5,-2,-2,1,-2,0
1470262332852465,-2,-4,-2,-2,-2,-3,-3,3
1470262332852465,-1,-1,0,1,-1,3,4,-5
1470262332873484,-1,3,-2,0,-1,-3,-2,-1
1470262332873484,-4,-4,-2,0,-1,-1,-1,-1
1470262332874985,1,-1,-1,-1,-1,0,3,-2
1470262332874985,-1,-5,1,-1,-2,-1,-4,-1
1470262332886995,-3,-4,-1,-1,-3,-2,-3,-1
1470262332886995,0,0,-3,-1,0,3,0,0
1470262332896005,-4,-2,-3,-3,0,-5,-2,0
1470262332896005,1,0,-3,-1,-1,-2,0,-2
1470262332911017,-2,1,2,0,0,0,-2,-1
1470262332911017,-1,0,-2,0,-2,-3,2,-1
1470262332912518,-2,-1,-1,-1,-1,3,-3,-1
1470262332912518,-2,-2,-3,-4,-1,-1,5,-2
1470262332933538,-1,0,-3,0,-2,-1,-9,-2
1470262332933538,0,4,3,0,-2,-2,-1,-2
1470262332935040,-2,0,-1,1,-2,-1,1,-1
1470262332935040,-1,-6,-2,-3,-2,0,0,-1
1470262332947050,1,-4,-1,-3,0,0,-4,1
1470262332947050,-1,0,-2,-2,1,1,-1,-1
1470262332956059,0,-4,2,-1,-1,-2,-2,0
1470262332956059,0,1,2,1,-1,0,-3,0
1470262332971071,1,4,1,-1,-1,0,2,-3
1470262332971071,-2,0,0,-1,0,0,4,2
1470262332972574,-3,4,0,-2,-3,-2,-4,-1
1470262332972574,1,-3,-3,0,0,-2,-3,1
1470262332993592,-1,1,-1,1,0,-1,-1,1
1470262332993592,-1,0,-3,-1,-1,-2,-3,-1
1470262332995095,0,-2,-2,0,-3,5,7,0
1470262332995095,-2,-4,0,-1,-2,-5,-8,-3
1470262333007104,-1,-3,1,-1,0,4,3,-5
1470262333007104,-2,-3,0,0,0,-1,-2,2
1470262333023619,-1,-4,-2,2,1,-1,-4,-2
1470262333023619,0,3,-5,-2,-1,-2,-3,0
1470262333031125,-3,-2,2,-2,-3,-3,4,0
1470262333031125,-1,-1,-3,-1,-2,-1,-1,0
1470262333032628,-2,2,-2,1,-4,0,-3,-2
1470262333032628,2,-3,-2,-3,-1,0,3,1
1470262333053645,0,4,-4,1,-1,-3,-3,-2
1470262333053645,-1,-2,0,-2,0,2,-5,0
1470262333055147,1,2,0,-1,0,-5,1,-3
1470262333055147,0,1,-4,1,-3,1,1,-2
1470262333067159,-2,-2,-2,-1,1,1,2,0
1470262333067159,2,-3,-3,-2,-4,1,1,-2
1470262333076166,2,-1,-3,0,1,-2,-7,-4
1470262333076166,-4,2,1,-1,0,-1,2,0
1470262333091179,0,-4,2,0,0,-4,-3,-3
1470262333091179,-2,-5,-4,-3,-2,-2,3,2
1470262333092681,0,-3,0,-2,-2,1,-6,1
1470262333092681,-3,1,-2,1,0,2,1,2
1470262333113700,-1,-2,-2,-4,-2,-5,0,0
1470262333113700,-2,-3,-2,-1,-1,-3,-3,-3
1470262333115202,-2,-2,-2,1,-1,0,2,-4
1470262333115202,-1,-3,1,-2,0,-2,-2,-1
1470262333127212,0,1,-2,-3,-2,-1,-1,1
1470262333127212,1,-4,6,-1,-2,-3,0,2
1470262333136220,-2,1,0,-1,-1,2,0,3
1470262333136220,-2,-2,-2,1,0,-1,-4,-1
1470262333151234,-2,-4,-3,-1,-1,-2,-1,-2
1470262333151234,-2,6,1,1,0,-2,0,-6
1470262333152735,0,0,-2,-5,-1,-1,-4,-1
1470262333152735,-3,-1,-1,0,-4,-1,-1,0
1470262333173272,0,0,-4,-2,-2,-2,1,-1
1470262333173272,-1,-3,-4,-2,1,-2,-2,0
1470262333175255,-2,2,2,-4,-2,0,2,-3
1470262333175255,1,-2,-1,0,-1,-3,-1,-3
1470262333187266,0,-5,-1,2,-1,0,-2,-1
1470262333187266,-3,0,0,-1,-2,-1,-1,-2
1470262333196273,0,-3,-1,1,1,0,-2,-3
1470262333196273,-2,-3,0,-3,-2,-1,0,-1
1470262333211306,-5,-3,-3,-3,-2,-1,-1,2
1470262333211306,1,-4,-6,0,1,-1,0,2
1470262333212789,-4,-1,1,-2,-1,-4,0,2
1470262333212789,0,2,0,-1,-2,-1,-2,-2
1470262333233342,-2,-2,-3,-3,-1,-1,1,-3
1470262333233342,-1,3,3,-2,-1,0,0,-1
1470262333234809,-2,-2,-4,3,-1,-3,0,-2
1470262333234809,-2,-1,-4,-2,1,3,-3,-1
1470262333255862,0,1,1,-1,-3,-1,-2,0
1470262333255862,-2,1,3,0,-1,-2,0,-1
1470262333257329,-2,1,-2,-4,-4,1,-3,2
1470262333257329,-1,-2,-5,-3,-1,-3,2,-3
1470262333271358,-1,0,-4,2,0,-1,-7,-2
1470262333271358,1,-5,-1,-1,1,1,1,0
1470262333272343,1,1,-2,-3,0,-5,-1,-4
1470262333272343,-1,-2,-3,-1,-2,0,-5,0
1470262333292920,-2,2,0,0,-1,-1,0,1
1470262333292920,-1,-1,-1,-1,-1,-2,-2,-3
1470262333300893,-1,-4,0,-1,1,0,-2,1
1470262333300893,0,3,-1,-1,-1,0,0,-3
1470262333315881,-2,-1,2,1,-2,-1,-2,-2
1470262333315881,-2,1,-4,-1,-1,-1,0,3
1470262333317383,-3,-3,-3,-3,-2,1,0,-2
1470262333317383,1,2,0,1,-1,-4,0,1
1470262333330897,-1,0,-1,-1,-3,1,2,2
1470262333330897,-3,0,2,0,-3,-1,-1,-4
1470262333332397,-2,-4,-1,-1,-1,-1,-2,0
1470262333332397,-3,2,-1,-1,-2,0,0,0
1470262333353445,-3,-3,-2,-1,0,1,1,-1
1470262333353445,0,-5,-6,0,0,-1,-1,-3
1470262333354917,0,-4,1,-1,-1,-2,-1,-1
1470262333354917,1,0,0,1,-1,1,-1,-2
1470262333375939,0,2,-2,-3,0,-3,-2,-6
1470262333375939,-3,1,-2,0,-4,-3,-1,0
1470262333377481,-1,1,0,-2,-1,-2,2,-1
1470262333377481,-1,-2,-1,-2,-1,-1,-1,-2
1470262333390966,0,-3,2,1,-2,-1,-1,-1
1470262333390966,1,0,1,-1,-2,1,1,-3
1470262333392450,-1,-1,-4,-2,0,-5,-8,-1
1470262333392450,-2,-4,-3,-1,0,-2,1,-1
1470262333413487,-4,-2,-1,-1,0,-2,-3,-2
1470262333413487,-2,0,3,0,-1,0,1,-6
1470262333414975,0,-1,-2,0,-2,-1,0,3
1470262333414975,-2,0,1,0,-3,-2,-2,0
1470262333436004,-1,1,4,-3,-2,-3,-2,-2
1470262333436004,-3,1,-2,-1,0,-1,-2,1
1470262333437490,-1,-1,-3,-2,-2,-1,-2,-5
1470262333437490,-1,-4,-1,0,-2,0,-1,0
1470262333450507,-1,2,-5,1,-2,-1,2,1
1470262333450507,-1,1,-4,0,0,-3,-1,-2
1470262333457008,2,-3,-2,2,-3,-1,1,0
1470262333457008,0,-1,2,-1,-1,-1,-5,-2
1470262333473526,-2,-6,-1,-1,0,-4,-3,0
1470262333473526,0,-2,-4,-4,-2,-1,-3,1
1470262333475025,-3,-3,2,0,0,-4,0,-1
1470262333475025,-1,-1,1,1,0,-1,0,-1
1470262333496045,1,-2,-1,1,-2,-1,6,1
1470262333496045,0,-2,-2,-4,-3,-2,-4,-1
1470262333497547,-5,1,1,1,-2,1,-2,-8
1470262333497547,-1,-3,-3,-1,-1,-4,-5,0
1470262333510056,-1,-1,-3,-2,1,1,-2,-2
1470262333510056,-3,-1,-3,-1,-1,-1,-1,0
1470262333517062,0,-2,-2,-1,-1,0,-2,0
1470262333517062,-3,-2,0,-1,-2,-3,1,-1
1470262333533576,3,-4,-2,-1,0,1,-1,1
1470262333533576,1,-4,0,0,1,-1,-5,0
1470262333535081,-1,-1,0,0,0,2,0,-1
1470262333535081,3,-3,0,-3,-1,-4,3,-3
1470262333556598,-2,2,1,-3,0,-3,-3,0
1470262333556598,-3,0,-2,-1,-1,-1,2,-3
1470262333558099,-1,1,-3,0,-2,2,2,0
1470262333558099,-4,-3,-1,-3,1,-6,-5,-3
1470262333578620,0,1,1,-1,0,2,1,0
1470262333578620,3,-3,-1,-1,-3,-2,-1,0
1470262333580120,-1,0,2,-3,-3,-1,-2,-1
1470262333580120,2,0,-5,-2,-2,2,-1,-1
1470262333593631,0,0,1,-3,-2,-3,2,0
1470262333593631,-3,-4,2,0,2,-1,-2,1
1470262333595133,-1,0,-4,-2,0,0,1,3
1470262333595133,0,0,0,-3,-2,-5,-2,-1
1470262333616150,-4,1,-3,-1,-4,-2,-4,-1
1470262333616150,-2,-1,-1,-2,-1,0,2,0
1470262333617653,0,-6,-3,-3,-2,-5,-7,0
1470262333617653,-4,-1,0,0,-1,2,-6,-2
1470262333630163,3,-2,-2,-1,-1,-3,3,1
1470262333630163,-1,-2,2,-2,-1,-1,2,0
1470262333637671,-1,0,-4,-2,-1,-1,-2,-1
1470262333637671,-1,0,1,-3,-4,-2,1,1
1470262333653685,-2,-4,-3,0,-1,4,-3,0
1470262333653685,-1,5,2,-1,0,-2,-2,-4
1470262333655186,-1,-3,1,3,-2,-2,1,-3
1470262333655186,2,-1,-1,-2,-1,0,-2,-1
1470262333676205,0,4,-1,2,-1,-3,1,-1
1470262333676205,2,-3,-3,0,0,-2,-1,1
1470262333677707,0,-2,0,-2,-1,-2,-1,2
1470262333677707,-2,-2,-3,3,-2,-1,1,0
1470262333690217,0,-3,-2,-1,-2,-2,-2,-1
1470262333690217,-3,-3,-2,-4,-4,-1,-1,-1
1470262333697226,-2,5,-1,-1,-1,1,-4,-1
1470262333697226,-2,-8,-2,1,0,2,3,-1
1470262333713739,0,1,-3,-2,0,-1,-2,-1
1470262333713739,2,2,0,-1,-3,-1,-1,-2
1470262333714740,0,-3,-2,-3,-3,-2,0,-2
1470262333714740,-4,0,-1,-1,1,-2,0,-1
1470262333735757,0,1,-2,-1,-1,1,-6,-6
1470262333735757,0,-2,-3,-1,-1,-3,-2,-1
1470262333737760,-2,-1,1,-2,-1,0,3,-2
1470262333737760,0,4,-2,1,-2,-1,-3,-4
1470262333749771,-1,-5,0,-1,-1,-1,0,-3
1470262333749771,-4,1,0,-2,-3,-1,-2,-2
1470262333758278,2,-2,-1,-2,0,-1,1,4
1470262333758278,0,-1,-1,0,-3,0,0,0
1470262333773292,-4,-4,-4,-1,-2,-4,0,1
1470262333773292,-1,1,0,-1,0,3,0,-1
1470262333775294,-4,-2,-2,1,-1,-4,-4,-2
1470262333775294,-2,0,-1,-3,1,0,0,-1
1470262333795813,-2,-1,-2,1,-2,-1,-3,0
1470262333795813,-1,-4,-2,3,-3,-2,-3,-3
1470262333797313,-4,1,3,-1,1,-2,-3,-3
1470262333797313,1,-2,-1,1,0,1,-1,3
1470262333809323,-1,2,1,-4,0,-1,1,-1
1470262333809323,-1,-5,-2,1,-2,-1,-1,1
1470262333818333,1,2,-2,2,1,1,1,2
1470262333818333,-2,-2,0,-4,-5,-2,-1,-2
1470262333833346,-2,1,0,-3,-2,0,0,-2
1470262333833346,2,-3,-5,-3,-1,-2,-1,0
1470262333834848,-5,-3,0,-1,-2,-2,-4,-1
1470262333834848,1,1,3,1,2,-1,3,2
1470262333855866,-2,-4,0,-1,1,-2,-4,-3
1470262333855866,-2,3,-1,-2,-3,-1,0,0
1470262333857368,0,-2,0,-1,-1,-1,-1,-1
1470262333857368,-1,-1,-6,-1,0,0,-1,-1
1470262333869377,-3,1,3,-1,-1,-2,1,-1
1470262333869377,-2,0,1,-2,0,-1,-1,-2
1470262333878887,0,2,-3,2,-2,-2,0,-2
1470262333878887,-2,1,-1,-3,0,-2,-9,-3
1470262333893399,0,-1,-2,-1,0,-2,3,-1
1470262333893399,-1,0,-4,0,1,-1,-1,1
1470262333899407,0,1,-2,-1,-2,-1,0,-1
1470262333899407,-1,0,-2,0,-1,0,0,2
1470262333915920,3,1,0,-1,-3,0,-2,-5
1470262333915920,-4,-2,-1,0,-1,-3,-2,-3
1470262333917421,0,-2,1,-2,-3,-1,-1,0
1470262333917421,-2,-3,-3,-1,-1,-3,-2,-3
1470262333929432,0,-2,-1,-1,-2,1,-3,4
1470262333929432,-1,-3,-2,-1,0,1,-1,2
1470262333938440,1,-1,-2,-1,2,2,3,-2
1470262333938440,0,-4,-3,-3,-2,-2,-3,0
1470262333953955,-2,-2,-5,2,-1,-1,-1,1
1470262333953955,-2,-3,-2,-3,-1,-1,2,-3
1470262333954955,-3,-3,-2,-1,0,-3,-1,-2
1470262333954955,0,-1,-1,-2,1,-1,-1,3
1470262333975974,1,0,-5,-3,-2,-3,-2,-2
1470262333975974,-2,1,-2,0,-3,-2,-2,-2
1470262333977475,1,0,-3,-1,-2,-1,1,-2
1470262333977475,-2,3,1,-1,-2,-2,1,-3
1470262333989486,1,-4,-1,2,0,-1,-7,1
1470262333989486,-1,-1,-3,0,1,-1,1,-2
1470262333998495,-4,-5,-2,-2,-1,-2,-3,-2
1470262333998495,2,0,-1,-4,-1,0,5,0
1470262334013508,0,2,-2,-2,-1,0,2,2
1470262334013508,0,1,1,2,-2,-1,-2,2
1470262334015009,0,-1,-2,-1,-3,3,-3,-4
1470262334015009,-1,-1,-1,2,-1,0,-1,1
1470262334036028,-4,-6,0,-1,-1,-1,0,-2
1470262334036028,0,0,0,-3,0,-2,1,-2
1470262334037530,0,-2,-3,-3,1,-2,0,1
1470262334037530,-2,2,1,2,0,0,-3,0
1470262334050041,1,3,2,-4,-1,-1,0,-5
1470262334050041,-4,-1,-4,-3,-4,-1,-2,-1
1470262334058548,-1,-1,4,-5,-3,-3,-4,2
1470262334058548,-1,-6,-2,1,1,4,7,-7
1470262334073564,-5,-2,0,1,0,-2,-3,-1
1470262334073564,0,-3,0,-4,-2,0,-2,0
1470262334075062,-1,0,0,-1,-2,-3,-3,-4
1470262334075062,0,-2,-3,0,-4,-3,-6,2
1470262334096083,1,1,-1,-2,-2,2,1,1
1470262334096083,2,-1,-1,-1,1,-2,1,-1
1470262334097584,-1,2,-2,-2,0,-1,0,-1
1470262334097584,-2,0,-1,0,-1,-4,-3,-4
1470262334109595,-1,1,-3,1,-1,0,0,-4
1470262334109595,2,0,-4,0,-2,-2,-3,1
1470262334118603,0,0,2,4,-2,3,0,1
1470262334118603,1,1,-3,-3,-1,-4,-4,-1
1470262334133617,1,2,0,0,1,1,2,-2
1470262334133617,-5,-5,0,-4,2,-1,-1,-4
1470262334135117,0,-1,-4,-5,0,-4,-2,0
1470262334135117,-2,-2,0,0,-3,-2,-3,-5
1470262334156136,-3,0,1,-2,-2,0,-1,0
1470262334156136,1,0,1,1,-1,-2,-3,0
1470262334157637,1,2,-3,-1,0,1,-3,-2
1470262334157637,-2,0,1,-1,-1,0,-4,0
1470262334169647,-1,-4,0,-2,0,-3,-1,-2
1470262334169647,0,0,0,-1,-2,-2,-1,-4
1470262334178656,-3,-1,-1,-2,0,-2,0,-1
1470262334178656,0,5,-2,-4,-2,0,-1,0
1470262334193669,-2,-3,-2,-4,-1,0,-1,1
1470262334193669,2,3,1,-2,1,0,1,-4
1470262334195171,-1,-2,1,0,-2,-1,0,0
1470262334195171,-2,-3,-1,-3,-3,-2,-1,0
1470262334216190,-1,-1,0,1,-2,-4,-3,2
1470262334216190,1,0,-1,2,-1,1,4,2
1470262334217692,-1,-1,-3,2,-1,-3,-10,-4
1470262334217692,0,-1,2,-1,-1,-2,0,-1
1470262334238710,-7,-3,-1,-2,-2,0,-3,1
1470262334238710,-4,-2,-3,0,-1,-1,0,2
1470262334240210,0,-1,-4,-3,-2,2,3,-4
1470262334240210,0,-3,1,2,0,-1,-2,0
1470262334253223,2,-1,-1,-3,1,-2,-1,-2
1470262334253223,-6,-1,0,1,0,1,-2,-4
1470262334255225,-3,0,-3,0,-2,-1,-1,1
1470262334255225,-2,-2,-1,-5,0,-1,-1,1
1470262334275742,2,-2,1,2,-2,-4,-1,-4
1470262334275742,1,-2,-1,-2,0,-3,0,0
1470262334277745,-3,-3,1,-2,-3,-4,-2,-3
1470262334277745,-2,-3,-4,1,-1,1,-1,-3
1470262334298764,-3,1,1,3,1,-2,-1,1
1470262334298764,1,-5,-1,0,-2,-1,-1,0
1470262334300265,1,-1,-2,0,-1,0,1,-1
1470262334300265,-3,-1,-2,-3,-2,-1,-1,-2
1470262334313277,3,2,-5,-2,1,0,0,-2
1470262334313277,-3,-1,-2,-2,-3,-3,-2,3
1470262334315279,-1,-3,-1,4,2,1,4,0
1470262334315279,-2,-5,-1,0,-2,-3,0,-2
1470262334335815,-1,-2,-4,-2,-4,0,2,1
1470262334335815,-3,-5,-2,-5,-3,-3,-5,-4
1470262334337798,-3,-4,2,-2,-2,-4,-2,0
1470262334337798,-7,-1,0,-2,-1,1,0,-3
1470262334358318,-1,-1,1,1,-1,-1,-1,-2
1470262334358318,0,0,-3,-2,-2,-3,-2,-2
1470262334359819,-3,-5,-3,-3,-1,-1,-1,3
1470262334359819,-1,-1,-2,-2,-2,-3,-5,2
1470262334372830,0,-4,-1,-4,-2,0,4,1
1470262334372830,1,0,1,2,-2,0,2,-1
1470262334379337,-2,0,-1,-1,-2,1,-2,-2
1470262334379337,1,-1,-3,0,1,0,0,-1
1470262334395851,0,-3,-4,0,0,0,0,-3
1470262334395851,0,-6,-2,-2,-3,-3,-3,1
1470262334397352,1,0,0,-1,0,-4,1,-1
1470262334397352,-2,-2,3,-2,-1,1,0,-2
1470262334418373,-7,2,0,0,-1,-4,-4,-1
1470262334418373,-1,1,-2,0,0,0,0,-3
1470262334419873,-1,-5,-2,-3,-2,2,0,0
1470262334419873,-3,2,-2,-1,0,-1,-5,-1
1470262334432885,2,-2,0,-1,-2,-1,-2,2
1470262334432885,-4,-2,1,-2,-3,-3,-2,-1
1470262334439390,0,-3,-9,-3,-1,-3,-1,-3
1470262334439390,3,5,-2,-2,1,-2,0,-3
1470262334455905,-2,0,1,-4,0,1,-3,-1
1470262334455905,-2,3,-3,0,-1,0,0,-1
1470262334457407,-3,0,1,-1,-2,2,-2,0
1470262334457407,-3,-8,-5,0,-1,0,1,-2
1470262334478424,-1,5,0,0,0,-5,-1,-6
1470262334478424,0,-1,1,-3,0,-3,-1,-1
1470262334479927,0,-3,0,0,-1,-1,-2,-3
1470262334479927,1,0,2,2,0,0,1,0
1470262334492954,-2,-1,-4,-2,-2,0,-3,-1
1470262334492954,0,1,0,-2,-1,-1,0,0
1470262334499962,-1,1,4,-1,-4,-2,0,-2
1470262334499962,1,-2,-4,-2,0,-2,-4,1
1470262334515959,-2,1,0,4,-3,-2,1,-1
1470262334515959,-1,1,-3,-2,-1,0,-4,-2
1470262334517461,-1,0,-5,-2,1,0,-5,1
1470262334517461,1,0,-1,-3,-1,-2,0,2
1470262334538478,-2,0,-2,0,-3,1,0,-1
1470262334538478,4,4,2,1,-2,-2,-9,0
1470262334539997,1,1,-4,-4,0,-1,2,2
1470262334539997,-2,0,1,2,-1,-1,1,-2
1470262334552994,2,0,-4,-3,-1,-1,0,1
1470262334552994,-2,-3,0,0,-3,0,3,-4
1470262334560499,3,-2,0,-2,-1,-1,-1,-4
1470262334560499,0,-2,-2,1,-2,-1,-2,1
1470262334576026,-1,-2,-2,-3,-3,-4,0,1
1470262334576026,-3,-1,0,-1,-1,2,2,-2
1470262334577515,-2,2,6,-2,1,-4,-2,-2
1470262334577515,-3,-3,-10,-2,0,-3,1,-1
1470262334606040,-2,-2,3,-1,-2,-2,-3,-1
1470262334606040,-1,-2,-5,0,-1,-1,1,2
1470262334607543,-1,-3,3,2,0,-1,0,0
1470262334607543,-2,1,3,-2,-2,-1,-1,2
1470262334613046,0,-4,-5,0,-1,-2,-3,-2
1470262334613046,-5,-5,-6,0,-1,-4,-2,1
1470262334619553,-3,-1,1,0,-1,-1,1,-1
1470262334619553,-1,-2,-2,-4,-4,-2,0,-2
1470262334636067,1,-4,4,-1,-2,1,-4,-1
1470262334636067,0,0,0,-1,1,-1,4,-3
1470262334637568,2,-3,4,-3,-2,-1,-7,1
1470262334637568,-1,0,-5,-2,-2,0,1,-4
1470262334658587,1,0,5,1,0,0,0,-2
1470262334658587,-2,-4,8,1,-1,-2,-2,-2
1470262334660090,-1,3,-5,2,-2,-3,0,-1
1470262334660090,1,-1,-1,-2,1,1,2,-2
1470262334673101,-1,-2,-8,-1,-1,-2,-2,-2
1470262334673101,-2,-1,4,1,-1,-3,-5,-3
1470262334679605,0,-2,1,3,-1,-1,4,-1
1470262334679605,-5,-4,-1,-1,-1,-3,-4,1
1470262334696123,-1,-1,-2,-3,-1,-2,-2,-2
1470262334696123,0,2,-4,0,-3,-1,2,2
1470262334697622,-2,1,0,-2,-1,2,-1,-1
1470262334697622,0,0,-6,2,1,-1,-1,-3
1470262334718642,-1,1,1,0,-1,-1,0,1
1470262334718642,-1,-2,-3,-1,0,-1,-2,-2
1470262334720143,-2,-3,-9,-2,-4,0,-5,-1
1470262334720143,-1,3,8,1,-3,0,-1,-1
1470262334732155,0,-2,1,-4,1,-1,2,0
1470262334732155,0,-3,-2,-3,1,-4,-3,-2
1470262334741190,-3,0,2,2,-1,0,2,-1
1470262334741190,1,-4,-3,-4,-3,-1,3,-1
1470262334756174,-2,0,0,-1,-3,-1,-4,-1
1470262334756174,0,-4,0,-1,-2,-2,-1,1
1470262334757676,-1,1,-3,-5,2,-2,-2,1
1470262334757676,1,2,-1,0,0,-2,-3,0
1470262334778694,-2,-4,-7,0,0,0,-1,-2
1470262334778694,-1,5,-1,-1,-2,-1,-3,0
1470262334780196,-1,-2,-1,2,-3,-3,1,2
1470262334780196,0,2,9,3,2,0,0,-1
1470262334792208,0,-3,-19,-3,-1,0,-4,0
1470262334792208,-1,0,2,-4,0,0,0,0
1470262334801214,-4,-1,-3,-5,-1,-2,-1,-1
1470262334801214,-2,2,3,-3,-3,-3,-3,2
1470262334816228,2,2,6,3,-1,-1,2,0
1470262334816228,-3,0,-24,-4,-2,-2,-2,-3
1470262334817730,-1,-3,3,1,-1,-1,2,-1
1470262334817730,-1,-5,-6,-3,-1,-1,0,0
1470262334838748,-4,-2,2,-3,-3,-4,-2,-5
1470262334838748,-1,-1,-3,0,-2,0,-5,2
1470262334840250,-2,-3,-6,-1,0,-2,-1,-4
1470262334840250,-2,0,4,0,-2,-3,-3,-5
1470262334852261,-3,3,-6,1,0,0,-2,4
1470262334852261,0,-3,4,-2,-1,0,-3,-7
1470262334860787,-1,-5,0,-1,0,1,-1,-1
1470262334860787,0,-1,-2,2,-1,-1,2,-3
1470262334876342,1,2,4,-1,0,0,1,0
1470262334876342,-2,0,9,1,-3,-1,3,3
1470262334877784,-2,1,-5,-3,-2,-1,-2,-1
1470262334877784,0,-1,1,1,0,1,3,0
1470262334898808,-2,0,-7,-1,-2,-2,-4,0
1470262334898808,-2,0,-2,-1,1,-1,-4,0
1470262334900304,0,1,-3,0,-3,-2,-2,-2
1470262334900304,-3,-3,0,-1,-2,-1,-1,-3
1470262334912315,-1,1,2,-1,0,-1,-1,1
1470262334912315,1,0,1,-1,0,-1,-2,-1
1470262334921322,0,2,1,-4,0,0,0,4
1470262334921322,2,-7,-8,-3,-3,-2,-5,-2
1470262334935837,-1,0,6,0,1,0,-3,-5
1470262334935837,0,-4,1,-1,-1,-3,-2,-2
1470262334937337,-1,0,-3,-3,0,-2,3,0
1470262334937337,-3,-1,-2,-3,-2,-1,-1,2
1470262334958358,-6,-2,-11,-2,-2,-1,-4,-5
1470262334958358,-2,-3,-1,4,0,1,4,2
1470262334959857,2,-1,1,1,-3,-1,-2,0
1470262334959857,0,1,1,-2,2,-2,-3,-3
1470262334972369,-1,-1,-3,-1,-2,-1,0,-1
1470262334972369,-1,1,-1,-1,0,-1,2,-1
1470262334981376,-3,-3,-1,-5,0,-2,-7,-6
1470262334981376,0,-4,-1,2,-1,-1,1,0
1470262334995889,2,-2,-3,-2,0,-1,-1,-1
1470262334995889,-2,-1,-2,-2,-2,-2,-4,-1
1470262334997391,-1,-2,-4,1,-2,-2,1,0
1470262334997391,-3,3,-4,-4,-1,-3,-4,-5
1470262335018411,-2,0,7,0,-2,-2,3,2
1470262335018411,-3,-4,-3,0,-3,1,-3,-1
1470262335019912,-1,-1,-1,0,0,0,0,-1
1470262335019912,0,-1,-2,-2,-3,-1,1,1
1470262335031937,1,-7,7,-1,-3,-2,-3,0
1470262335031937,-1,-3,-2,-1,-1,0,0,-2
1470262335040932,-2,0,-18,-4,1,0,-2,0
1470262335040932,0,-3,4,2,-2,-3,-3,-1
1470262335055946,-4,0,-3,1,-1,-2,1,-2
1470262335055946,0,-2,4,-2,0,1,4,1
1470262335057445,0,-1,3,-2,-2,0,-3,-1
1470262335057445,-1,-2,-7,-2,0,-1,1,1
1470262335078467,1,-2,1,1,0,-2,-8,-1
1470262335078467,-2,1,-7,1,-2,-1,0,-3
1470262335079966,-5,-1,6,1,-1,-1,1,-3
1470262335079966,0,-4,-2,-1,0,-1,-3,2
1470262335092003,0,-5,10,2,0,-2,1,-3
1470262335092003,-2,0,-24,-7,-3,-1,2,-1
1470262335101003,-1,-3,6,1,-1,-1,-4,1
1470262335101003,3,0,3,-1,-4,-1,-2,-2
1470262335116014,-2,-3,2,-1,-1,-2,0,0
1470262335116014,-2,-4,5,0,-2,-2,-1,1
1470262335117501,-1,0,-6,-3,0,-2,1,-1
1470262335117501,-3,-1,0,0,1,-3,-3,0
1470262335139018,-3,1,0,-2,-2,0,2,0
1470262335139018,-2,2,-7,-1,-2,-2,-4,1
1470262335140556,4,-2,-2,-1,-2,-2,-2,-1
1470262335140556,-1,0,-2,-1,0,0,-1,0
1470262335161055,-1,4,-4,-1,-3,-2,1,0
1470262335161055,-4,0,6,2,2,-2,-3,-3
1470262335162539,-4,1,1,-1,-1,-2,1,-4
1470262335162539,-2,-2,-18,-6,0,1,-2,-2
1470262335176072,1,0,-1,-6,-2,-3,1,1
1470262335176072,-2,0,-1,2,-2,-2,-3,-4
1470262335177685,-1,-1,-6,-1,-1,-3,-1,3
1470262335177685,-1,-1,5,1,0,0,0,-1
1470262335198572,1,0,-6,2,-1,-1,-3,0
1470262335198572,1,2,11,-1,-1,0,1,2
1470262335200073,-2,-3,-3,0,1,-1,0,-1
1470262335200073,0,-4,-6,1,-2,-2,-6,0
1470262335221092,-2,-2,-2,-5,-2,2,1,-5
1470262335221092,1,3,3,0,0,-2,-4,-1
1470262335222593,0,-3,2,0,-2,-1,-1,-1
1470262335222593,-3,0,-1,3,-1,-1,4,-3
1470262335236105,-1,-1,2,0,0,-3,-5,-4
1470262335236105,1,-2,-4,-1,1,1,0,-1
1470262335237606,-1,0,5,-1,-2,0,-1,1
1470262335237606,-3,-1,-2,-3,-3,-2,-6,-3
1470262335258625,-2,2,-5,0,-1,1,-2,0
1470262335258625,-2,-2,-1,-2,-4,-5,-1,-2
1470262335260129,1,-3,3,2,1,0,0,-1
1470262335260129,1,2,-2,1,-1,0,2,2
1470262335281147,2,3,2,-1,-2,-1,-2,-2
1470262335281147,0,-2,-12,-1,0,0,0,0
1470262335282648,-3,-1,0,0,-2,-1,1,-3
1470262335282648,-2,-2,2,-1,-1,0,-2,-1
1470262335295197,1,2,0,-4,0,-3,1,2
