timestamp,emg1,emg2,emg3,emg4,emg5,emg6,emg7,emg8
1470261223756609,-10,-34,-38,0,-14,-7,-6,-8
1470261223756609,10,34,55,-5,-4,6,3,3
1470261223758110,-7,-36,-84,-48,-33,1,-3,-5
1470261223758110,15,54,96,107,1,5,4,10
1470261223770121,-14,-50,0,-32,16,-12,-9,-8
1470261223770121,-14,-49,-78,51,48,-2,-5,-7
1470261223779128,-1,25,127,-87,-67,-9,-5,-4
1470261223779128,4,11,30,79,35,6,2,1
1470261223794141,-8,-15,-33,54,21,5,-1,-7
1470261223794141,1,-24,-58,-2,-13,-8,1,3
1470261223795643,-4,-19,-73,-59,-3,-4,-5,-3
1470261223795643,2,19,59,113,49,7,4,1
1470261223816671,-1,7,20,-44,-22,-15,-8,-3
1470261223816671,-3,-7,-15,-128,-86,-1,3,-1
1470261223818168,4,3,-39,31,-3,-10,0,0
1470261223818168,-4,-23,-19,-128,-62,-4,-3,-1
1470261223839182,1,28,102,12,-24,-1,0,-3
1470261223839182,4,19,-4,106,26,-9,-1,3
1470261223840684,19,75,127,7,-15,0,10,10
1470261223840684,-9,-50,-116,-62,68,16,4,-2
1470261223854195,-7,-17,-14,0,7,3,-1,-2
1470261223854195,1,12,95,-108,-57,-23,-7,-1
1470261223855698,6,48,127,18,32,4,-1,1
1470261223855698,-3,19,12,41,-46,-18,-9,-6
1470261223876716,-15,-95,-128,67,57,15,3,-2
1470261223876716,2,23,127,-81,7,-3,-2,-1
1470261223878217,6,7,-3,-49,39,-10,-4,0
1470261223878217,-5,-13,-8,5,-34,-2,-2,-2
1470261223890228,3,34,69,-19,-63,-14,-5,-2
1470261223890228,15,45,82,-13,5,15,8,10
1470261223899237,-27,-81,-128,-17,-59,-25,-17,-13
1470261223899237,-1,-24,-128,121,89,30,4,0
1470261223914251,11,39,-2,-118,-28,-10,0,1
1470261223914251,-6,-44,-88,62,54,26,12,2
1470261223915752,8,28,97,33,-11,-3,-2,3
1470261223915752,-7,-19,0,-74,0,-9,-1,-4
1470261223936772,6,21,36,-27,-11,-10,-1,2
1470261223936772,6,19,-35,15,-42,8,4,3
1470261223938271,-14,-24,-66,78,122,27,-3,-9
1470261223938271,3,22,55,-88,-78,-21,-3,1
1470261223950285,-1,-25,-128,127,126,42,11,4
1470261223950285,12,61,127,-110,-69,-13,1,5
1470261223959291,-19,-71,-107,27,0,-8,-9,-8
1470261223959291,-3,-1,108,68,51,1,-2,-4
1470261223974303,6,14,-31,-128,-65,-5,1,4
1470261223974303,-4,10,127,79,52,-7,-8,-5
1470261223975805,3,11,-6,-92,22,2,3,4
1470261223975805,-4,8,70,49,-32,-18,-6,-3
1470261223996323,2,20,90,-76,23,14,2,1
1470261223996323,-12,-43,-63,115,19,-2,-5,-9
1470261223998325,7,52,127,-79,-22,-10,-7,-3
1470261223998325,-16,-90,-73,99,93,0,-2,-7
1470261224010336,-1,-10,-126,-66,-4,7,-1,0
1470261224010336,6,17,25,10,3,11,4,2
1470261224019344,-7,3,101,-48,-27,-14,-4,-7
1470261224019344,16,30,-34,13,5,22,10,13
1470261224034359,-3,32,127,-82,-37,-16,-5,-4
1470261224034359,-15,-52,-128,110,19,-5,-7,-8
1470261224035859,-6,-41,-87,54,-2,10,-1,-2
1470261224035859,8,20,-63,-81,-37,-4,3,4
1470261224056377,8,14,-17,18,-7,10,8,7
1470261224056377,-12,-7,53,-60,-66,-5,-7,-10
1470261224057879,15,48,122,-21,-34,-11,9,7
1470261224057879,7,5,-51,-54,75,45,11,9
1470261224078899,-8,4,127,22,-30,-13,-10,-9
1470261224078899,13,31,24,9,-1,6,7,8
1470261224080900,-17,-57,-96,61,30,-2,-6,-6
1470261224080900,13,53,73,-104,-4,-20,-3,3
1470261224093911,-6,-61,-128,107,87,31,8,2
1470261224093911,-5,-14,11,-68,49,21,5,-2
1470261224095413,12,41,82,-62,-17,-14,-4,1
1470261224095413,-17,-47,-52,1,-46,-9,-7,-8
1470261224116433,4,12,83,106,-14,4,6,3
1470261224116433,-4,8,57,26,-14,-10,-9,-8
1470261224118435,-8,-71,-127,13,5,19,6,3
1470261224118435,0,38,120,29,22,0,-7,-5
1470261224138952,-6,-32,77,-37,-22,-9,-3,-1
1470261224138952,-9,-15,29,-104,-18,-10,-4,-8
1470261224140455,14,47,127,38,56,18,9,7
1470261224140455,-11,-37,-108,94,-12,-5,-5,-6
1470261224153968,-5,1,49,-21,-1,-6,-5,-6
1470261224153968,4,-4,-70,112,41,6,-2,5
1470261224155466,-5,-26,-92,-66,-9,19,11,2
1470261224155466,-4,-2,77,2,19,-18,-9,-7
1470261224176485,3,26,60,-2,-6,-5,-9,-5
1470261224176485,-11,-51,-110,-53,-29,-10,0,-5
1470261224177987,7,48,123,-33,-13,-15,-7,0
1470261224177987,-21,-86,-28,27,17,15,4,-7
1470261224199005,0,9,62,83,11,-14,-7,-1
1470261224199005,7,19,55,-35,36,3,0,4
1470261224200510,-11,-27,-54,23,11,-2,-4,-5
1470261224200510,10,17,-89,-128,-43,1,5,7
1470261224213518,3,18,-46,66,-14,-9,-1,0
1470261224213518,-6,-26,-61,22,-63,-8,-1,-4
1470261224220026,5,31,54,90,60,10,-1,2
1470261224220026,-10,-23,18,2,-16,-16,-10,-5
1470261224244046,-7,-26,-75,-128,-51,-1,2,-5
1470261224244046,5,9,-3,9,32,-2,-4,2
1470261224245548,-5,-32,-94,77,-51,0,0,-2
1470261224245548,10,42,127,63,47,20,11,4
1470261224259060,3,5,57,-21,-5,-3,1,4
1470261224259060,-12,-12,40,-9,-67,-24,-10,-12
1470261224260561,-9,-62,-84,31,8,-4,-2,-2
1470261224260561,13,43,22,-70,-5,9,6,6
1470261224273575,-9,-17,23,18,47,8,2,-5
1470261224273575,13,44,127,-46,27,-4,-1,4
1470261224280078,-19,-80,-113,-29,-27,-7,-10,-9
1470261224280078,-3,18,107,-28,-3,-10,-7,-4
1470261224304101,2,5,43,-23,-31,-25,-3,-1
1470261224304101,1,17,63,7,28,18,2,1
1470261224305602,4,41,127,-48,-10,-19,-8,-1
1470261224305602,1,3,20,-27,-2,-3,-3,1
1470261224318115,-5,-8,-61,-36,-14,-13,-9,-3
1470261224318115,-4,-14,-31,44,36,8,5,1
1470261224326620,5,26,107,-35,-5,5,5,0
1470261224326620,2,-2,30,55,-44,-2,0,0
1470261224333627,5,34,5,-46,-28,-4,-2,1
1470261224333627,6,-4,-85,5,46,2,6,4
1470261224340133,-8,-3,-29,-15,-14,0,-8,-5
1470261224340133,-2,14,-62,-24,-17,-5,-4,-3
1470261224356661,1,6,43,-35,-20,3,3,1
1470261224356661,-5,-25,-128,17,-28,-11,-6,-2
1470261224358162,4,25,76,-76,-6,8,3,1
1470261224358162,3,9,86,41,-47,-17,-7,-1
1470261224379180,-6,-27,-83,32,49,7,-2,-3
1470261224379180,-1,-9,43,-63,21,7,8,3
1470261224380682,0,0,10,69,28,3,0,-2
1470261224380682,-2,0,-38,-37,-7,-7,-3,-1
1470261224392693,5,0,-60,31,33,14,5,4
1470261224392693,-1,13,76,50,-10,-6,-7,-3
1470261224401702,-1,-2,-40,-18,-11,0,3,0
1470261224401702,-4,-12,-37,-1,38,-1,-1,-3
1470261224416716,5,16,52,-41,-17,-3,-1,2
1470261224416716,-6,-15,-38,2,-26,-2,-4,-4
1470261224418220,2,8,11,-79,-44,-3,4,2
1470261224418220,-3,-12,-32,123,79,14,5,1
1470261224439234,-1,-2,-21,9,3,-6,-4,-1
1470261224439234,-4,-1,3,13,-28,-7,-4,-4
1470261224440737,-1,-11,-59,91,-5,12,-1,-1
1470261224440737,-3,-6,-27,-80,-19,-7,-2,-3
1470261224453247,-5,-16,-127,32,-13,1,-1,-3
1470261224453247,0,5,12,-20,-23,-4,-3,0
1470261224460254,-1,5,37,18,-8,-6,-6,-2
1470261224460254,2,-5,-34,-2,-16,2,-2,1
1470261224476768,-5,-15,-11,48,-1,-1,0,-4
1470261224476768,4,13,57,-4,4,2,1,1
1470261224478270,0,4,-17,3,24,-15,-5,-1
1470261224478270,-8,-16,11,54,-2,2,-5,-5
1470261224499289,-1,5,20,-110,-3,-3,2,0
1470261224499289,-2,1,-2,68,-5,9,3,-2
1470261224500793,5,15,53,-13,10,2,2,1
1470261224500793,1,-1,-14,14,-4,-5,-3,-1
1470261224513302,-1,-5,15,11,11,-1,-4,-1
1470261224513302,1,6,9,12,13,0,1,0
1470261224520307,-4,-6,0,-10,-4,-4,0,-1
1470261224520307,-1,-3,-58,-35,11,5,1,-1
1470261224536822,-3,-5,-4,27,-2,-5,-3,-2
1470261224536822,-1,0,4,-10,-5,-1,-1,0
1470261224538323,-3,-5,18,-19,9,4,-3,-2
1470261224538323,3,7,-31,12,-13,-1,2,2
1470261224558842,-2,-7,-17,1,7,3,2,-2
1470261224558842,-3,-3,-1,-21,-9,-5,-4,-3
1470261224560844,-1,-1,-3,-40,-22,-4,-2,-1
1470261224560844,1,7,27,25,-15,-4,-2,0
1470261224572854,-1,-3,9,4,7,0,0,-1
1470261224572854,-2,-3,-7,0,4,-4,-3,-2
1470261224588869,0,0,-8,-1,-16,-5,2,0
1470261224588869,-1,-8,-8,-27,-5,4,0,-2
1470261224596376,0,0,10,11,-2,-3,-2,-2
1470261224596376,0,-6,-8,20,9,0,-3,-1
1470261224597877,0,2,-7,-27,-12,-5,-2,-2
1470261224597877,-1,-2,5,5,14,-2,-3,-2
1470261224618897,-2,-1,11,37,-4,4,-1,-1
1470261224618897,-2,-1,-11,-57,-8,-4,-2,0
1470261224620398,0,1,-10,-20,-10,-1,-1,1
1470261224620398,-2,-2,11,54,-1,-1,-3,-2
1470261224632909,-2,0,6,-14,-2,0,-2,-3
1470261224632909,-1,-2,-24,-21,0,-1,0,0
1470261224641416,-1,-3,-7,23,8,-2,-1,-3
1470261224641416,0,-3,9,-52,-13,-1,0,1
1470261224656430,-1,0,17,-11,1,-4,-2,-2
1470261224656430,-1,-3,-27,3,-4,-1,-4,-3
1470261224657932,-2,-1,-2,14,0,-2,-2,-1
1470261224657932,-1,1,1,-12,-8,5,1,-1
1470261224678950,0,2,-1,-22,1,-1,-3,0
1470261224678950,0,-2,4,20,1,2,-1,-1
1470261224680452,-2,-2,-5,10,-13,0,-2,-1
1470261224680452,-3,-4,1,-6,-3,-6,-4,-3
1470261224692462,-1,1,0,41,13,5,1,0
1470261224692462,2,-1,4,-29,5,4,1,1
1470261224701972,-1,-1,-4,-2,-17,-6,-1,-1
1470261224701972,-1,-1,3,-1,-4,-3,-4,-1
1470261224716986,-1,-1,0,-17,-8,0,0,-1
1470261224716986,-1,-2,1,37,4,-3,-2,-1
1470261224718487,-2,-1,3,7,1,2,-1,-1
1470261224718487,-1,-2,-5,-53,-4,-4,-1,-1
1470261224739005,0,1,-2,33,-1,0,0,0
1470261224739005,-3,-4,-2,-1,-3,0,-2,-3
1470261224740505,1,0,-4,4,1,0,-1,1
1470261224740505,-3,-1,-1,6,-4,-1,-2,-2
1470261224752532,-3,-2,-4,-1,1,-2,-1,-3
1470261224752532,-1,0,1,-11,-4,-3,0,-2
1470261224761524,1,-1,-2,-29,1,0,0,-1
1470261224761524,-1,0,2,32,6,-4,-1,-1
1470261224776539,0,-3,1,7,0,0,-2,-2
1470261224776539,0,-4,-12,-21,-13,5,-1,0
1470261224778039,-2,-3,0,-38,-7,-3,-1,-2
1470261224778039,1,-1,4,18,23,-2,-1,-2
1470261224799059,-1,-1,-3,-12,-6,-4,-1,0
1470261224799059,0,0,5,13,5,1,2,0
1470261224801061,-1,0,1,-16,7,2,0,0
1470261224801061,-2,-2,-1,-5,-3,-2,-1,0
1470261224812570,0,0,2,-1,-1,-1,-2,-1
1470261224812570,-3,-2,1,-10,-7,-4,-3,-3
1470261224821580,0,0,0,21,17,2,0,0
1470261224821580,2,1,3,-9,0,1,3,1
1470261224837095,-2,-2,-3,1,-1,-1,0,0
1470261224837095,-1,0,-1,-9,-5,-3,-1,0
1470261224843600,-2,3,-2,8,-8,-3,-3,-1
1470261224843600,-5,-7,-9,-1,-3,-2,-5,-2
1470261224858112,-1,0,4,35,1,4,2,0
1470261224858112,-1,0,-3,-28,-8,-4,-2,0
1470261224859112,0,-1,0,14,5,0,-2,0
1470261224859112,-1,-1,-2,-11,-7,1,0,-1
1470261224880632,-1,0,-3,-11,-5,-2,0,1
1470261224880632,-1,-3,-1,7,-2,-2,-2,-2
1470261224881632,1,2,4,18,11,3,2,1
1470261224881632,-2,0,1,23,-8,-2,0,-1
1470261224895145,1,0,-3,-46,-1,-1,-1,-1
1470261224895145,-2,-3,-4,-17,-5,-1,-3,-3
1470261224903651,0,-5,-5,-26,-12,-2,-3,-2
1470261224903651,2,1,4,38,8,2,2,1
1470261224918186,-1,-1,-2,-8,-9,-4,-2,0
1470261224918186,-2,-1,1,15,3,0,0,0
1470261224919167,-3,-2,-2,0,0,-2,-3,-2
1470261224919167,-3,1,1,6,7,-1,-2,-1
1470261224941191,-1,0,-2,-9,-3,-1,-2,-2
1470261224941191,-1,-1,0,-6,3,-2,-2,-1
1470261224941688,-1,-2,-1,7,-5,-4,0,-2
1470261224941688,0,3,-1,-8,-3,0,-1,0
1470261224955199,-3,-4,0,3,3,-1,-1,-2
1470261224955199,1,-2,-5,-9,-5,-1,0,-1
1470261224963808,-1,2,-7,-1,3,-5,1,0
1470261224963808,0,-1,7,26,2,2,0,-1
1470261224978721,-3,-2,-7,-14,-8,-3,-2,-3
1470261224978721,-1,1,1,-13,-2,-1,1,0
1470261224979222,-1,-4,-1,19,6,0,-3,-2
1470261224979222,0,0,-8,-23,-10,-2,-2,-1
1470261225001242,1,1,-2,-1,9,-1,-1,2
1470261225001242,-1,1,8,26,3,1,-2,-1
1470261225001741,-2,-1,-7,-11,-11,-5,-1,-2
1470261225001741,-2,-2,3,14,6,1,1,-2
1470261225015293,0,-2,1,5,-8,-1,-2,-2
1470261225015293,0,-1,-7,-14,1,-2,-3,0
1470261225023821,-1,-1,3,-6,-1,-1,0,1
1470261225023821,0,-3,-6,-22,-8,-4,-2,-2
1470261225038363,-1,-2,-3,-10,1,0,-1,0
1470261225038363,-3,0,2,11,6,0,1,0
1470261225039274,-1,0,1,8,-4,5,-1,-3
1470261225039274,-2,1,-1,-12,-3,-4,-4,-2
1470261225060795,-1,-1,-3,-1,-1,-1,0,-2
1470261225060795,-1,0,1,23,7,-1,0,-1
1470261225061794,0,-1,-4,-21,-9,0,-1,0
1470261225061794,-1,-4,-13,-2,-3,-2,0,-3
1470261225076807,-1,1,4,-12,0,-1,-2,-2
1470261225076807,-1,-2,3,0,-2,-2,0,-2
1470261225083316,-2,2,3,-2,0,-2,1,-1
1470261225083316,-1,-2,-3,4,-8,-2,-3,0
1470261225098339,-2,-3,-8,14,9,-1,-1,-1
1470261225098339,1,-1,-7,-16,-5,-2,-2,-2
1470261225105893,0,0,2,14,-5,-4,-1,0
1470261225105893,-1,0,2,8,-3,-1,-1,0
1470261225120881,0,-1,-2,-6,-9,-4,-3,-1
1470261225120881,-2,0,2,2,0,2,-1,-1
1470261225121847,-1,-2,-4,2,-1,-3,-3,-1
1470261225121847,-2,0,2,-14,-1,0,0,0
1470261225135359,0,-4,-1,11,6,0,0,0
1470261225135359,0,-1,-2,-2,-2,0,-2,-2
1470261225143381,-1,2,2,6,-2,-1,-2,-2
1470261225143381,-1,-1,0,-8,1,-2,0,0
1470261225158416,0,-1,2,11,4,1,2,0
1470261225158416,-3,-2,-5,-25,-4,0,-2,0
1470261225158883,-3,-3,-9,-4,3,-3,-3,-3
1470261225158883,1,0,4,-1,-1,1,0,0
1470261225180903,-1,2,-5,-26,-1,0,0,-1
1470261225180903,-1,-4,3,19,-4,-2,0,-1
1470261225181401,-1,0,1,15,5,0,-1,-1
1470261225181401,-1,0,-4,-10,-1,-1,0,-1
1470261225195954,-2,-1,-4,-12,-3,-2,-2,0
1470261225195954,-3,-3,0,4,-1,-1,1,-2
1470261225196423,1,0,-4,-1,0,1,2,1
1470261225196423,0,-2,4,11,-1,-1,-2,-1
1470261225218454,-1,-1,-1,-9,-3,0,-2,-2
1470261225218454,-2,-1,1,19,2,-1,-2,-2
1470261225219435,-2,-2,-1,-12,2,0,0,1
1470261225219435,-2,-1,-4,-5,-2,-2,-3,-1
1470261225241455,0,-1,1,22,-6,0,-2,-1
1470261225241455,-3,-1,-5,-37,-4,-2,-1,-1
1470261225243489,-1,-2,0,19,2,-2,0,-2
1470261225243489,-1,0,-1,1,1,1,0,-2
1470261225255468,-2,0,2,8,-3,-1,0,-1
1470261225255468,-2,-2,-4,-26,-11,-1,-2,-3
1470261225263474,-1,0,4,41,15,2,0,-1
1470261225263474,-3,-1,0,-8,0,-1,-2,-3
1470261225278487,-1,0,0,-3,-2,-2,-1,-3
1470261225278487,-2,1,-2,-9,-5,-2,0,1
1470261225278989,1,-2,4,-22,-7,-1,-3,-2
1470261225278989,-1,-2,-7,-2,1,-2,-1,-1
1470261225301009,-3,-3,6,7,-2,0,-1,1
1470261225301009,1,0,0,25,7,-2,-3,-1
1470261225301512,-1,-1,4,-34,-5,1,0,-1
1470261225301512,0,1,0,-21,-7,-2,-1,1
1470261225316022,-1,-2,-7,4,5,0,0,-2
1470261225316022,-2,-3,-2,11,2,-1,-1,-1
1470261225317024,1,1,2,17,1,-1,-1,0
1470261225317024,-2,-4,-2,-19,-2,0,-2,0
1470261225338041,-1,1,-3,-3,-6,-2,-1,-2
1470261225338041,0,-1,1,-8,1,0,-1,-1
1470261225339043,-1,-2,-10,-4,-6,-3,1,-1
1470261225339043,-3,-2,5,-5,-3,-1,0,-1
1470261225361062,-2,-1,-3,3,-2,0,-2,-2
1470261225361062,1,0,-1,-1,-3,1,0,-1
1470261225361565,-2,-1,-2,-10,-4,-1,-4,-1
1470261225361565,0,0,-4,-8,-7,-4,-2,-3
1470261225384087,-1,-1,0,5,0,-2,-2,0
1470261225384087,0,0,0,7,4,-2,-1,1
1470261225385086,-5,0,-1,-5,-7,-1,-1,-2
1470261225385086,0,-1,-2,9,3,0,2,-2
1470261225398097,-1,-1,4,16,4,-2,-1,-1
1470261225398097,0,-1,-6,-16,-7,-3,-1,-1
1470261225399097,-1,-1,-2,-15,-2,-1,-1,-1
1470261225399097,-1,-1,-1,-16,0,0,0,-1
1470261225420615,-2,0,1,9,-1,1,-2,-1
1470261225420615,-1,-1,-2,-18,-1,-2,-1,-1
1470261225421617,0,-5,-6,-5,4,-1,-1,-3
1470261225421617,-2,-3,-3,14,2,-2,-3,0
1470261225436130,0,2,10,-22,-7,3,1,1
1470261225436130,-2,-3,2,21,10,0,-3,-2
1470261225436631,-1,0,-1,0,-3,2,-2,0
1470261225436631,-1,0,-3,12,0,-1,-1,-3
1470261225458150,0,-2,-6,-10,0,-3,0,-1
1470261225458150,-3,1,-1,5,0,-1,-2,-1
1470261225459151,1,-2,-2,-5,-7,-2,0,2
1470261225459151,0,0,0,2,2,1,1,-1
1470261225480669,-3,-1,-5,2,1,-1,-1,1
1470261225480669,0,1,2,14,-1,-3,0,-2
1470261225481671,0,-2,-4,-26,-7,-3,-3,0
1470261225481671,1,1,-1,11,1,1,0,0
1470261225495684,0,-1,-3,-3,-3,-1,-2,-2
1470261225495684,-2,-4,-5,-4,-4,-2,-3,-2
1470261225496685,-2,-2,3,22,9,0,-2,-1
1470261225496685,-1,0,2,12,-9,-1,0,-1
1470261225518208,0,-4,-5,-35,4,0,-2,-2
1470261225518208,-2,-1,5,13,-3,0,-1,0
1470261225519205,-1,-1,-12,-16,-8,-3,1,-1
1470261225519205,1,-4,4,-2,3,-2,-2,-1
1470261225540723,-2,-2,12,21,2,-7,-1,-1
1470261225540723,-1,0,-3,-7,-3,4,-2,-3
1470261225541725,-1,1,5,18,5,1,0,-1
1470261225541725,-2,-2,-8,-9,-4,-3,-2,0
1470261225555737,-2,-1,-1,-6,-6,-1,-1,-2
1470261225555737,0,2,1,-9,0,-5,-1,0
1470261225556739,1,0,-1,0,-3,1,-3,-1
1470261225556739,-1,-2,-3,5,1,0,1,-2
1470261225578257,0,-2,0,11,0,-2,0,-2
1470261225578257,-2,0,-2,0,2,-4,0,0
1470261225579259,-1,-1,-2,-15,-8,0,0,-2
1470261225579259,-2,0,5,2,4,5,-4,-1
1470261225600780,-2,-2,-7,-2,2,-3,-1,-1
1470261225600780,-2,-2,4,14,-2,0,1,-2
1470261225601782,-1,-1,1,4,-2,-10,-3,-2
1470261225601782,-1,-1,-3,-12,0,2,0,0
1470261225615292,-1,1,-2,15,1,1,-2,-1
1470261225615292,0,-1,-10,-31,-5,-7,-3,0
1470261225623298,0,1,7,-5,-3,2,-1,0
1470261225623298,-1,-2,1,10,-1,-1,-2,-3
1470261225638311,-2,-1,-6,-2,-3,0,1,0
1470261225638311,0,0,-2,3,2,-2,0,-3
1470261225639312,-2,1,-1,1,2,3,-1,-2
1470261225639312,0,1,-2,-4,-4,-8,-2,-3
1470261225660832,-2,-2,-3,-7,-3,8,1,-1
1470261225660832,-1,-2,-5,-22,-1,-1,-1,1
1470261225661832,-1,-2,0,24,-2,-2,0,-1
1470261225661832,-2,1,3,-19,2,-4,-4,0
1470261225683353,-1,-2,-2,-5,-1,3,-2,-4
1470261225683353,-2,-4,0,7,1,3,-2,-1
1470261225690858,0,1,-2,-4,0,-2,-1,-2
1470261225690858,0,-1,-4,-3,-5,-4,0,0
1470261225698364,0,0,2,18,3,-4,-3,-1
1470261225698364,-1,-1,7,7,-4,6,-1,-1
1470261225699366,-2,-1,-8,-2,4,-3,-2,1
1470261225699366,0,-1,1,-5,-5,-5,-3,1
1470261225720886,-1,-3,-3,7,-5,-1,-3,-1
1470261225720886,-1,1,1,-1,3,1,-1,-1
1470261225721386,-2,-3,0,7,-3,-1,-1,-1
1470261225721386,-1,0,-2,-9,2,2,2,0
1470261225735402,-2,-1,-1,-14,-9,-4,0,1
1470261225735402,-1,-2,-10,2,1,-1,-1,-1
1470261225743406,0,0,5,-5,0,0,0,-2
1470261225743406,-2,-2,-6,0,0,0,-3,-3
1470261225758419,-1,0,1,-10,-2,0,-1,0
1470261225758419,-1,-2,-4,-3,-4,-4,-1,-1
1470261225758920,1,-2,-2,-9,2,1,-2,0
1470261225758920,-2,-2,1,10,7,2,2,0
1470261225780939,0,0,0,8,-1,-4,-1,-1
1470261225780939,0,-1,-2,-8,-5,-4,-2,0
1470261225781941,-2,-2,-2,9,-1,-1,-3,-1
1470261225781941,0,0,-5,-60,-9,0,-1,0
1470261225794952,0,2,-1,7,0,-1,0,0
1470261225794952,-1,-3,-4,-7,-3,-1,-1,-1
1470261225803460,-1,-2,2,24,1,-2,-3,-1
1470261225803460,-2,-1,2,11,-5,-2,-1,-3
1470261225818475,0,-2,-2,-23,2,1,-2,0
1470261225818475,-1,0,2,26,5,2,0,-2
1470261225818978,-1,-1,-2,-10,-2,-1,1,0
1470261225818978,-1,-2,-4,6,-3,-1,0,0
1470261225840993,-1,-1,-3,-3,-2,0,-1,-1
1470261225840993,0,0,2,6,1,-1,0,-1
1470261225841494,-1,0,3,-11,-1,-1,0,-1
1470261225841494,-1,0,-3,23,-1,-1,-1,0
1470261225855007,-1,-4,2,-3,-1,-3,-2,-3
1470261225855007,1,1,0,-10,0,-3,0,1
1470261225863514,-1,-2,-1,3,1,0,-1,-1
1470261225863514,0,0,-1,-13,-6,-2,-1,-1
1470261225878527,-1,1,0,6,-3,-1,-3,0
1470261225878527,-1,-2,-2,-13,-6,-2,-1,-2
1470261225879028,-1,1,-1,-1,9,0,1,-2
1470261225879028,-1,-2,-2,15,2,0,-1,-1
1470261225901049,-2,-3,-6,9,-3,-2,-2,-1
1470261225901049,0,-1,7,-20,-2,2,1,0
1470261225901550,-2,-1,-1,-4,-8,-2,-1,-2
1470261225901550,-2,-4,-2,12,3,-1,0,-3
1470261225915060,0,2,3,10,-2,-1,0,0
1470261225915060,-1,-3,-5,-14,-4,-1,-2,-3
1470261225923567,-1,-1,-1,4,2,-1,0,-3
1470261225923567,-2,0,1,-20,-5,-2,-4,0
1470261225938081,-1,-3,-5,-19,-6,-2,-1,0
1470261225938081,0,1,2,13,6,1,1,-1
1470261225939082,2,0,0,2,-2,-3,-1,0
1470261225939082,-1,-1,-1,18,0,-1,-2,-3
1470261225960602,-1,-1,-2,-32,-3,-1,-3,-1
1470261225960602,-1,-3,-2,10,-5,-2,0,-2
1470261225961602,-2,-2,-2,-3,-2,-1,0,-2
1470261225961602,1,0,1,6,2,3,-1,-1
1470261225984626,-1,1,0,5,2,-1,-1,-2
1470261225984626,-2,0,1,-1,-1,-4,-3,-1
1470261225985626,0,-4,-3,7,0,-1,0,1
1470261225985626,-2,-2,-1,-10,-3,1,0,-1
1470261225998634,1,2,-3,4,5,0,0,0
1470261225998634,0,-2,-5,-7,-5,-2,-1,-4
1470261225999135,-2,-2,4,-4,3,0,0,-1
1470261225999135,1,1,7,37,-1,0,-2,-1
1470261226021155,-1,-3,3,5,-1,0,-2,-1
1470261226021155,-2,1,-8,-14,-1,-1,-4,-1
1470261226021656,0,0,0,-16,-2,0,-1,-1
1470261226021656,-2,-2,-4,-12,-6,-3,1,-2
1470261226044176,-2,-3,-2,1,-1,-1,0,-1
1470261226044176,-1,-1,1,13,4,-1,0,-2
1470261226044676,-2,0,-3,4,-6,-3,-2,-1
1470261226044676,-1,0,-4,-30,0,-2,-2,0
1470261226058188,-1,-1,-4,-18,-6,-1,1,-2
1470261226058188,0,-2,0,4,-1,-2,-3,-1
1470261226059190,0,-1,-3,-12,-4,-4,-1,-1
1470261226059190,-3,-1,0,6,8,6,1,-2
1470261226080708,-2,-2,0,3,-3,-1,1,1
1470261226080708,-1,-3,-3,7,2,-2,0,-1
1470261226081710,-1,0,-1,-7,-5,0,0,0
1470261226081710,-1,-2,2,13,0,-5,0,-1
1470261226104229,-2,-2,0,-13,-1,1,-1,-1
1470261226104229,-3,0,-2,5,-4,-3,-3,1
1470261226104731,-2,-1,0,9,3,-2,-3,-1
1470261226104731,-2,-3,-2,-10,-2,-2,1,-1
1470261226118744,-1,0,0,4,3,0,-1,-3
1470261226118744,-1,-1,-2,5,-4,-2,0,0
1470261226119244,-1,-2,-4,-9,-2,0,-1,-2
1470261226119244,0,-2,-3,-35,-4,-2,-1,-1
1470261226140763,1,0,5,46,1,-1,-1,0
1470261226140763,-3,-1,-1,-16,2,-2,0,-3
1470261226141764,-3,-3,-5,4,-3,-1,-1,-3
1470261226141764,0,0,0,-8,-2,-1,-1,-1
1470261226164284,-1,-2,-1,5,-7,-2,-1,0
1470261226164284,-1,0,-1,4,1,0,-1,0
1470261226164785,0,-2,-1,5,1,-2,-1,-1
1470261226164785,0,-2,-3,0,1,-3,-1,-1
1470261226178297,-2,-1,-3,-2,4,-2,-1,-1
1470261226178297,-1,-2,0,1,-3,1,-1,0
1470261226179297,-2,-2,3,0,-5,-2,-2,-3
1470261226179297,-1,-2,-2,-19,-6,1,0,0
1470261226200819,1,1,-2,-23,-2,-2,-1,-2
1470261226200819,-1,-2,4,9,-1,2,-3,1
1470261226201818,0,0,-3,9,3,-1,-2,-1
1470261226201818,-1,1,1,13,-1,-4,-2,-1
1470261226223838,-2,0,-7,-10,-1,-1,0,-1
1470261226223838,0,0,0,-3,-2,-1,-2,-1
1470261226224839,-1,0,1,7,-3,-2,-1,-1
1470261226224839,0,1,-2,-7,1,0,-1,2
1470261226238351,-3,-1,1,1,-1,1,0,-1
1470261226238351,-2,-3,-2,5,-1,2,-2,-1
1470261226239351,0,0,2,2,-3,0,0,-1
1470261226239351,-1,-2,-2,16,0,-3,-1,-2
1470261226260871,-2,-2,0,-3,0,-3,-2,-1
1470261226260871,-1,0,1,-5,-5,-3,1,-1
1470261226261371,-2,-2,-5,9,2,-1,-2,-1
1470261226261371,0,-3,-2,-10,-1,-1,-3,-1
1470261226284395,0,-1,4,18,5,1,-1,2
1470261226284395,1,0,-8,-33,-5,-1,-1,0
1470261226284896,-2,-2,5,-1,-1,0,2,0
1470261226284896,0,-1,0,11,1,0,0,-1
1470261226298404,-2,0,-3,-6,-2,-3,-2,-5
1470261226298404,-2,-1,3,13,1,-1,-1,0
1470261226299406,0,0,-3,-11,2,1,0,0
1470261226299406,-1,-3,-1,3,-5,-2,-2,-1
1470261226328932,0,-1,-7,11,3,0,-1,0
1470261226328932,0,-1,3,-20,-2,2,0,2
1470261226329932,-1,0,10,3,1,1,-1,-1
1470261226329932,-2,0,-2,4,-2,-1,-3,-2
1470261226343945,-1,-1,1,-8,-5,-2,0,0
1470261226343945,-2,0,-6,7,3,-1,-1,-2
1470261226344946,-2,-2,-6,-9,-5,-2,0,-1
1470261226344946,-3,0,5,27,10,-1,0,-2
1470261226358458,-2,-1,-4,-36,-2,-2,-2,-1
1470261226358458,0,-2,7,4,-4,-5,-1,-3
1470261226358958,1,0,-5,6,0,-1,-2,-2
1470261226358958,-1,-2,-5,-5,-2,7,-2,-1
1470261226388985,-1,-2,4,-6,2,-2,-2,-2
1470261226388985,-1,-2,2,-4,-2,-2,1,0
1470261226389488,-2,-2,-2,-7,2,-3,0,-4
1470261226389488,0,-1,0,11,1,-5,0,-2
1470261226403998,-1,-1,0,6,-2,0,-2,0
1470261226403998,0,-1,-3,-1,-5,-3,-2,-1
1470261226405000,-1,-1,-3,-8,-2,-2,-1,1
1470261226405000,0,-2,-1,-13,0,0,1,1
1470261226418514,-1,-1,-1,-2,-5,1,0,-1
1470261226418514,-1,1,-6,2,0,-1,-2,-1
1470261226419017,0,-1,-1,3,0,0,-1,0
1470261226419017,-2,-1,4,-1,-3,-1,-1,-1
1470261226441032,-1,-6,-12,-18,-2,-3,-1,0
1470261226441032,-1,1,10,26,3,3,1,1
1470261226441533,-1,0,-3,4,4,-1,-3,0
1470261226441533,-1,0,-1,-27,-8,-1,1,-2
1470261226464054,-2,0,-3,13,-1,-1,-1,-1
1470261226464054,-2,-3,-7,-10,-1,-1,0,-2
1470261226465053,0,-3,-2,-4,-3,-1,-1,0
1470261226465053,-2,-2,-1,12,-5,-4,-2,-2
1470261226478565,3,1,6,-4,14,1,1,1
1470261226478565,-2,-4,-10,-19,-7,-3,0,-1
1470261226479067,-3,0,7,4,-3,4,-2,-2
1470261226479067,-2,0,-7,-17,-1,1,-1,1
1470261226501089,-4,-3,2,11,-6,-5,-2,-2
1470261226501089,0,-1,-1,3,4,-3,-3,-2
1470261226502090,-1,-2,-3,0,1,-1,0,0
1470261226502090,-1,-2,0,-4,-3,0,-2,1
1470261226524106,-1,-2,-1,-2,2,1,0,-1
1470261226524106,0,-1,2,3,-3,-2,-1,1
1470261226524608,-1,0,-4,-10,-6,-3,-1,-1
1470261226524608,0,-1,0,5,3,-2,0,-1
1470261226537619,-1,-1,-1,9,-1,-1,0,-1
1470261226537619,0,-3,-3,3,0,0,0,1
1470261226546126,-1,-1,-4,-12,-3,-1,-4,0
1470261226546126,0,-1,-3,-4,0,-1,1,-1
1470261226560639,0,0,0,-4,0,0,1,-2
1470261226560639,-3,-2,-3,0,-1,-2,-1,-1
1470261226568649,-2,-3,2,5,1,1,-2,-1
1470261226568649,2,0,0,7,4,-2,-2,-2
1470261226584166,-1,0,-2,10,-9,-1,-2,-2
1470261226584166,-1,0,0,-15,-1,1,-1,-2
1470261226585164,1,0,-2,1,-3,-2,0,-1
1470261226585164,-4,-2,-1,8,2,-6,-1,-1
1470261226597674,-1,0,-1,-24,-9,-1,-1,-1
1470261226597674,-1,1,-1,25,12,8,-2,-2
1470261226605680,0,-1,-4,-11,-2,-4,-1,-1
1470261226605680,-2,-3,-1,0,-2,1,-2,-1
1470261226620693,-1,-1,1,20,1,-3,-1,0
1470261226620693,-2,0,1,-17,-4,-2,-1,-3
1470261226621695,-1,-1,-2,-10,-1,0,2,1
1470261226621695,-1,1,0,0,-3,0,-1,0
1470261226644214,-2,-1,-1,-4,-3,-2,-3,0
1470261226644214,0,-1,-2,1,0,-2,0,-1
1470261226644715,-1,-2,-1,11,4,-3,-2,0
1470261226644715,-1,-1,4,-19,-5,-2,-1,-1
1470261226657726,-2,-1,-1,5,6,1,-1,0
1470261226657726,-2,0,-3,-5,-5,-2,-1,-2
1470261226665748,-1,-2,0,-6,-4,-2,-2,-1
1470261226665748,-1,-2,4,14,2,0,-1,-1
1470261226680749,-1,-1,-5,-20,-2,0,-1,0
1470261226680749,-1,-1,-2,2,-2,-4,-1,-2
1470261226681749,-1,0,-3,-3,1,0,0,-1
1470261226681749,1,0,-3,-21,-5,2,-1,0
1470261226704268,-1,-2,1,8,1,-1,-1,-2
1470261226704268,-1,0,-4,1,-5,-3,1,-1
1470261226704770,-2,-2,1,5,0,1,-1,-2
1470261226704770,-1,-2,-9,1,-3,-2,-2,-1
1470261226717784,0,0,3,-10,-4,-1,-1,0
1470261226717784,-1,0,-3,1,5,0,-1,-1
1470261226725788,-2,-1,3,16,0,0,0,-2
1470261226725788,0,-1,-2,-8,0,0,-1,0
1470261226740802,-1,-1,-3,11,3,0,-1,-3
1470261226740802,-1,-2,0,-15,-9,-2,-1,0
1470261226741802,-1,-1,-2,-8,0,-1,2,-2
1470261226741802,-1,-1,-1,13,5,1,0,0
1470261226763823,-1,0,-5,-41,-8,-1,1,0
1470261226763823,0,-3,1,5,-5,-1,0,0
1470261226764823,-2,0,-1,-1,1,1,-1,-1
1470261226764823,-2,-1,-1,0,-6,-3,0,-3
1470261226777834,-2,-3,0,16,5,2,-2,-2
1470261226777834,-1,0,-1,-11,-1,0,0,1
1470261226785842,-2,-1,-7,-21,-5,-4,-2,0
1470261226785842,-2,1,7,17,2,0,-1,0
1470261226800859,0,-2,-2,17,-3,0,-3,-1
1470261226800859,-1,-2,-1,5,-1,1,0,-1
1470261226801859,2,-1,-2,-6,-5,-1,-1,-1
1470261226801859,-2,-3,-10,-13,-5,-3,-2,-1
1470261226823876,-2,0,5,2,2,-5,0,-1
1470261226823876,-1,0,0,9,1,1,-2,0
1470261226824877,1,0,1,-3,-2,4,-2,-1
1470261226824877,-1,-1,-5,-2,0,-5,2,-1
1470261226837888,-2,0,-2,-7,-4,-2,-1,0
1470261226837888,-1,-1,-2,-13,-4,-4,1,-2
1470261226845896,-2,-2,1,-5,-4,1,0,0
1470261226845896,0,-1,0,7,4,0,-3,-2
1470261226860910,0,-1,3,7,-3,-2,-1,-2
1470261226860910,0,-1,-5,-9,0,-2,-1,-2
1470261226861410,-2,2,-1,7,5,-1,-1,-1
1470261226861410,-1,0,3,4,2,0,0,0
1470261226883940,-1,-1,-2,2,-2,1,2,0
1470261226883940,-2,-2,-2,3,-2,-1,-2,0
1470261226884933,0,0,0,-10,-1,-1,0,-2
1470261226884933,-2,-2,0,11,2,-2,-1,-1
1470261226906449,0,-1,0,2,2,-1,0,-3
1470261226906449,1,2,0,-11,-4,-1,-1,-1
1470261226907451,-1,-3,-5,-12,-3,-4,-1,-1
1470261226907451,-3,-1,1,15,-3,-1,-2,-1
1470261226920963,-2,1,-3,-15,-3,0,-1,0
1470261226920963,-3,-1,-1,4,5,1,-1,-2
1470261226921464,0,0,1,3,-2,0,0,0
1470261226921464,0,-2,-2,-18,-4,1,0,0
1470261226943984,-3,-2,-1,8,1,-1,0,-1
1470261226943984,-3,-2,0,5,1,0,-1,1
1470261226944985,-1,0,-2,8,-1,-2,-2,0
1470261226944985,-1,-3,-1,-4,1,-1,-1,-3
1470261226965505,0,0,-4,-16,0,0,-1,-1
1470261226965505,-1,-4,-3,-11,-4,-3,0,-2
1470261226973511,-3,-1,0,11,-1,0,-1,-3
1470261226973511,-1,-3,1,7,-1,0,-1,0
1470261226981018,-1,-2,-2,-1,0,-1,-2,-1
1470261226981018,-2,-1,0,0,1,1,-1,-1
1470261226981518,1,0,-4,-15,-5,0,0,0
1470261226981518,-2,0,-2,-3,-6,-1,-1,-1
1470261227004038,-1,-1,-1,8,-4,-1,-2,-3
1470261227004038,1,-1,1,7,2,-1,-1,-1
1470261227004538,0,-1,2,20,8,2,1,-1
1470261227004538,0,1,-2,-16,-3,-1,-1,1
1470261227026559,-1,-2,-3,-6,-1,-2,0,1
1470261227026559,-1,1,1,-1,-3,-1,-1,-3
1470261227027559,-1,-4,-6,7,-4,-1,-2,-3
1470261227027559,1,-1,1,2,2,1,-2,-1
1470261227049078,1,-2,-4,-11,-2,-4,-2,-3
1470261227049078,0,-2,3,1,-2,-1,0,0
1470261227050080,-1,-3,-3,-4,-1,-3,-1,-1
1470261227050080,0,-1,-1,-7,-3,-1,2,-2
1470261227064092,-1,-2,1,6,1,0,-2,-1
1470261227064092,-1,0,-3,3,-1,-7,-3,-1
1470261227065092,0,-2,-5,-5,-1,5,1,-1
1470261227065092,0,1,4,-5,0,4,-1,0
1470261227086612,-2,-1,0,26,1,-1,0,-1
1470261227086612,-1,-3,-2,-7,-4,0,-3,-1
1470261227087613,0,0,-7,-46,-8,-6,-3,0
1470261227087613,0,-2,-5,0,-4,-1,-1,-1
1470261227101126,-3,-3,-2,-6,0,0,-1,-2
1470261227101126,-2,-1,1,18,2,-2,-2,0
1470261227101629,-3,-2,2,12,3,-3,-1,-1
1470261227101629,-1,-2,-1,-7,-3,-1,-2,-1
1470261227124146,0,0,-2,-19,-8,-2,-3,-1
1470261227124146,0,-1,-1,7,5,3,-1,-1
1470261227124646,-1,-2,2,6,4,1,0,-1
1470261227124646,0,0,-3,1,0,-1,0,-1
1470261227146666,-2,-1,-3,-8,-4,-2,1,1
1470261227146666,-1,0,-4,-5,-3,-1,0,0
1470261227147167,-1,-1,2,3,-4,-2,-1,-2
1470261227147167,-3,-1,-2,4,0,-3,-1,-2
1470261227160678,-1,-1,-2,2,1,1,-1,-1
1470261227160678,-2,0,-1,-13,-1,1,-1,-1
1470261227161680,-1,-1,2,23,-3,0,-2,-2
1470261227161680,0,-1,-6,-26,-8,-2,-1,-1
1470261227184201,1,0,-5,-5,2,1,0,-1
1470261227184201,-2,-2,-3,-4,-3,-2,0,0
1470261227184702,-2,-1,3,2,2,-3,-2,-2
1470261227184702,-1,-1,-2,10,0,-2,0,-1
1470261227206721,-1,-1,0,-7,-3,-1,1,-1
1470261227206721,1,-1,-4,4,0,1,-1,-2
1470261227207223,0,-1,-4,1,0,-1,-1,1
1470261227207223,-1,-1,1,3,-1,1,1,-2
1470261227220232,1,-1,-1,-2,0,-1,-1,0
1470261227220232,-2,-2,0,-1,0,1,0,-1
1470261227229240,1,0,6,-2,-4,1,-1,-2
1470261227229240,-1,-1,-1,7,1,-2,-4,0
1470261227244254,-1,-1,-1,-4,-1,0,-1,0
1470261227244254,-1,-2,1,10,4,-1,-1,-1
1470261227244755,-1,-1,-2,-12,0,-1,0,-3
1470261227244755,-1,-1,0,3,0,-2,-1,-1
1470261227266774,-1,0,-4,3,-5,-3,-2,-3
1470261227266774,-2,0,0,-2,-7,-1,-2,0
1470261227267777,-2,0,-1,2,0,1,1,-1
1470261227267777,0,-1,-2,15,2,-5,-3,-2
1470261227280787,-2,0,6,-8,3,1,0,-1
1470261227280787,0,-1,-2,-8,-2,5,-1,-2
1470261227281789,0,0,0,11,-1,-3,0,-1
1470261227281789,-1,-2,-4,-16,-2,0,-1,-1
1470261227304308,0,0,-1,4,-1,-3,-1,0
1470261227304308,-2,-1,0,4,-1,-1,-1,-3
1470261227304808,-2,1,-3,-6,-2,0,-2,1
1470261227304808,-1,1,0,-18,-5,1,-1,-2
1470261227326327,-1,-1,-2,9,1,1,-2,-2
1470261227326327,0,-1,-3,-10,-1,0,0,-1
1470261227327328,0,-2,-1,9,3,-1,0,-2
1470261227327328,-2,0,2,5,-2,-2,-2,-3
1470261227340840,0,-1,-1,-18,-2,0,-2,-1
1470261227340840,1,-1,-4,-2,-2,-4,-2,-2
1470261227341841,-1,-3,3,8,1,-1,-1,0
1470261227341841,-2,0,-2,-8,-1,0,0,0
1470261227363862,-1,-1,1,9,-1,0,-1,0
1470261227363862,-1,0,0,6,2,-3,-1,0
1470261227365362,-2,-3,-5,-16,0,0,1,0
1470261227365362,-1,-2,1,4,1,-1,-1,-2
1470261227386385,-1,-1,2,3,-1,-1,-1,-1
1470261227386385,1,-1,-6,-13,-3,-1,2,-1
1470261227388383,-4,0,-3,8,-3,-2,-4,-1
1470261227388383,-2,-1,-1,8,1,1,-2,0
1470261227400394,-2,-2,-1,-14,-3,-4,-2,-3
1470261227400394,-3,-1,0,3,-4,-5,-2,-1
1470261227409402,-1,-1,0,-4,-1,5,0,-2
1470261227409402,-2,-2,-2,18,-2,1,-1,0
1470261227423915,-2,-3,-7,-20,-3,-3,1,-1
1470261227423915,1,2,-2,-16,-4,0,2,1
1470261227425417,-3,-3,4,5,-4,-6,0,-1
1470261227425417,-1,-1,-3,-2,3,-1,-2,0
1470261227446436,-3,-2,1,10,-3,1,-1,-3
1470261227446436,-2,-2,-4,-1,2,0,-1,-1
1470261227447937,2,0,-4,-8,1,-1,-1,-1
1470261227447937,-1,-2,-2,3,-4,-2,2,-1
1470261227459947,-2,-1,-1,3,0,-1,0,1
1470261227459947,0,-2,1,8,2,1,-1,-2
1470261227469456,-1,-1,-2,-1,0,-2,-3,-3
1470261227469456,-1,1,2,-6,-3,0,-1,-2
1470261227483972,2,0,1,-15,-5,-4,-1,0
1470261227483972,-2,-5,-3,2,3,-1,-1,0
1470261227485472,0,-2,0,1,1,0,2,0
1470261227485472,0,-3,-1,3,-4,-2,-1,0
1470261227506489,-1,1,0,7,1,-1,-1,0
1470261227506489,-2,-1,2,4,-3,-2,-2,0
1470261227507990,-1,0,-4,-7,-1,-1,-3,-1
1470261227507990,0,0,-3,-6,1,0,-2,-2
1470261227520003,0,-1,-3,5,-1,-3,-1,-3
1470261227520003,1,-1,-1,-24,-5,-5,0,-1
1470261227529010,-1,0,-1,11,1,8,1,-1
1470261227529010,0,0,3,-12,1,0,-2,-1
1470261227544022,-2,-3,3,16,2,-1,-2,-2
1470261227544022,-1,1,-4,-2,-3,-2,-2,-2
1470261227545524,-1,-2,-3,-5,-2,-4,-1,-1
1470261227545524,0,-2,-2,2,0,0,0,-1
1470261227574050,-3,-1,-2,-3,-2,-1,-1,0
1470261227574050,-2,-2,-1,24,3,-3,-1,-1
1470261227575551,0,1,-2,-36,-6,-2,-1,-1
1470261227575551,-2,-1,0,-3,-3,-2,-1,0
1470261227580555,-1,-2,0,11,1,-2,-1,-1
1470261227580555,-2,-2,3,-6,-1,1,-1,-1
1470261227589063,-2,-2,-2,7,-1,-3,-1,0
1470261227589063,-1,0,2,6,3,-3,0,-2
1470261227604078,-1,-1,0,-3,-1,-1,1,-1
1470261227604078,-2,-3,-1,3,0,0,1,1
1470261227605579,-1,0,-1,0,2,-3,-2,2
1470261227605579,-2,-2,-2,-7,-3,-2,-1,0
1470261227626597,0,0,-2,2,-2,-5,-2,1
1470261227626597,0,0,0,5,0,1,-2,-2
1470261227628098,-2,-2,-4,-7,-5,4,0,-2
1470261227628098,-1,-1,-3,1,-1,-3,0,-2
1470261227640109,0,0,-1,0,2,2,-2,-1
1470261227640109,-1,-1,-4,-17,-6,-5,-1,-1
1470261227655123,-1,-1,-3,-1,-2,-4,-2,-1
1470261227655123,-1,-2,-1,7,1,1,-2,-1
1470261227664131,-1,-2,-3,14,2,-2,0,-1
1470261227664131,-1,-2,-2,-29,-4,0,-1,0
1470261227665632,-2,-2,-2,-1,-1,-1,-1,-2
1470261227665632,-1,0,-3,-7,-5,0,0,0
1470261227694157,0,1,1,15,2,0,-3,-1
1470261227694157,-1,1,1,8,2,1,2,-4
1470261227695659,0,-1,-4,2,-2,-2,1,-1
1470261227695659,-1,-2,0,-10,0,-4,-2,-1
1470261227700167,0,0,0,-5,0,2,-2,-1
1470261227700167,-1,-1,0,14,0,-1,-1,-2
1470261227709172,0,-1,-2,-9,-3,-4,-3,-2
1470261227709172,-2,-1,-2,5,-1,-3,-2,-1
1470261227724184,-2,-2,-2,-14,-1,4,0,-1
1470261227724184,-1,-1,-1,-2,-2,2,-1,1
1470261227725687,-2,-3,-3,0,0,-6,-2,-1
1470261227725687,-2,-2,1,18,1,0,-2,-2
1470261227746704,-1,-1,-2,10,-3,-2,0,-1
1470261227746704,-1,-1,0,-19,-2,-2,0,-1
1470261227748206,-1,-1,1,13,-1,-2,-1,-1
1470261227748206,-2,-1,-2,-14,0,-1,-1,-1
1470261227769729,-2,-2,-2,-17,-1,-1,0,-2
1470261227769729,-1,-1,-1,20,0,1,-1,-2
1470261227770726,0,-1,0,1,2,-1,-1,-1
1470261227770726,-1,1,0,-2,-2,-1,0,-1
1470261227786242,0,-4,-4,-3,-4,0,-1,0
1470261227786242,-1,-1,-1,-1,1,0,-1,0
1470261227786242,-2,-2,3,5,0,0,0,0
1470261227786242,-2,-1,-2,-13,-4,1,0,-2
1470261227806758,-2,-2,0,-10,-2,0,-2,0
1470261227806758,1,-1,-2,6,0,-2,-2,-2
1470261227808260,-1,-1,-2,-2,-3,-3,-2,-3
1470261227808260,1,-1,0,0,1,0,-1,-2
1470261227820270,-1,0,-2,-1,-5,-2,-1,1
1470261227820270,-1,0,1,-18,0,-2,-2,0
1470261227829279,-1,0,-8,-4,-4,-1,0,-2
1470261227829279,0,0,1,-5,-4,0,1,-1
1470261227844292,-3,-1,-2,11,1,-1,0,-3
1470261227844292,-2,-2,0,-5,1,-2,-1,0
1470261227845793,-1,0,-3,-6,-1,-2,-3,0
1470261227845793,-2,-2,3,22,2,0,-2,-2
1470261227866813,0,0,-3,-18,-4,-1,0,-1
1470261227866813,0,0,-1,2,-3,-1,-2,0
1470261227868314,-2,-1,1,5,3,4,0,-1
1470261227868314,-1,-2,-5,-14,-7,2,-2,-1
1470261227888832,-2,-2,0,12,4,-4,0,-2
1470261227888832,-3,-1,-2,9,-1,0,-1,-2
1470261227890833,0,-2,1,0,-3,-6,-1,-1
1470261227890833,-2,-1,-1,-1,1,-1,-1,2
1470261227903847,-1,-2,-3,-13,-3,-2,1,-1
1470261227903847,0,-1,-3,3,2,-2,-2,-2
1470261227905847,-1,-2,-1,-2,-2,0,-2,-1
1470261227905847,1,1,1,21,3,-1,0,-3
1470261227926366,0,-2,-3,-25,-4,-1,-1,-1
1470261227926366,-1,-1,-4,-19,-6,-2,0,1
1470261227927868,-2,0,0,8,1,1,-1,-3
1470261227927868,-1,-1,-4,-22,-1,-2,-3,-2
1470261227948886,-2,-1,1,19,2,1,0,-2
1470261227948886,-2,-1,-1,11,-3,-2,0,-1
1470261227950890,-2,0,0,-13,1,1,0,0
1470261227950890,0,0,-2,3,0,-2,-1,-1
1470261227963899,1,-1,-2,7,4,0,-3,-2
1470261227963899,-1,-2,1,-12,-1,2,2,-1
1470261227965902,-2,-1,-2,7,0,-1,0,0
1470261227965902,-1,-1,-1,-9,-8,-3,0,-2
1470261227986420,-2,-1,0,6,-3,-3,-3,-1
1470261227986420,-2,-1,0,3,-1,-2,-1,-1
1470261227987921,-3,-1,-2,-15,-1,-2,0,-2
1470261227987921,1,-2,2,22,5,1,0,-3
1470261228008941,-2,-1,-6,-29,-8,0,-1,-1
1470261228008941,-1,-1,-3,15,0,-3,0,0
1470261228010941,0,-1,2,-13,1,-1,0,-1
1470261228010941,-3,-2,-1,-12,-2,1,-2,0
1470261228023453,-1,-1,1,20,-1,-2,-1,-2
1470261228023453,0,0,-2,1,3,1,-2,-2
1470261228029959,-1,-1,-1,-1,-2,-3,-2,1
1470261228029959,-1,-2,-4,-1,-2,-3,-2,-2
1470261228046475,1,1,0,-4,2,0,1,-1
1470261228046475,1,1,1,2,0,1,-1,0
1470261228047975,0,-1,-2,0,-3,0,-2,-2
1470261228047975,-2,0,-2,-8,-2,-1,0,-2
1470261228069010,-1,-1,0,4,-5,-1,0,1
1470261228069010,-2,0,0,-12,-2,-2,-2,0
1470261228070496,-2,-2,2,15,1,-4,-1,-3
1470261228070496,-2,-1,-2,1,2,-4,-1,-1
1470261228083507,-1,-1,-4,-20,-3,4,0,-2
1470261228083507,0,-1,0,-7,-4,-1,-3,-1
1470261228090514,0,0,-2,7,5,0,0,-1
1470261228090514,-2,-1,5,4,3,-1,-1,-1
1470261228106560,0,-1,1,13,-2,-3,-3,0
1470261228106560,-3,-2,-2,1,-3,0,-1,-1
1470261228108029,-1,-1,-3,6,-4,0,-1,-1
1470261228108029,1,-1,-4,-18,-3,-3,-3,-1
1470261228129090,0,-1,-1,0,3,0,-1,-1
1470261228129090,-1,0,2,15,-3,-1,1,0
1470261228130550,-2,-1,-3,-4,-1,-1,-1,-1
1470261228130550,-1,0,-2,6,2,1,-1,-1
1470261228143601,-1,0,1,3,-2,-1,-2,-2
1470261228143601,-1,-4,-4,-17,-3,-2,-2,-1
1470261228150567,0,-1,-4,-10,-3,-2,0,-1
1470261228150567,0,-1,2,21,3,0,0,-1
1470261228166583,-1,0,-3,-5,-3,-3,0,-2
1470261228166583,0,0,-1,18,4,-2,-1,-3
1470261228168087,0,1,2,-13,-6,1,-2,0
1470261228168087,-1,-4,-6,-13,-4,-1,-1,0
1470261228189102,-1,-2,0,6,3,-2,0,0
1470261228189102,-1,-1,1,8,-2,-1,-1,-3
1470261228190603,0,-2,1,0,1,-2,-1,0
1470261228190603,-2,0,-6,-22,-9,-1,-2,-1
1470261228211623,1,-2,0,3,-2,0,-1,1
1470261228211623,-2,-1,-4,-3,1,-1,-3,-1
1470261228213124,-1,-1,-4,-3,1,0,-2,-1
1470261228213124,0,-1,-2,2,-3,0,4,0
1470261228226638,-2,1,-3,-22,-4,-2,-2,-2
1470261228226638,0,1,3,0,0,-1,0,1
1470261228228137,-2,-3,-3,7,-1,-1,-4,-1
1470261228228137,-2,-1,0,-5,1,0,-2,-1
1470261228249156,-2,-2,-3,1,3,1,-1,-1
1470261228249156,-1,-1,-1,-1,-2,-1,0,-1
1470261228250660,-2,-1,2,13,2,-3,0,-1
1470261228250660,-1,-1,-2,-17,-4,-1,0,-2
1470261228263672,-2,-1,3,11,0,-2,-1,-1
1470261228263672,-3,0,-1,0,1,-1,-2,-2
1470261228270176,0,-2,-2,-13,-5,-1,-2,0
1470261228270176,-2,-4,-4,-10,-3,-1,-2,-2
1470261228286689,0,0,3,14,2,-1,-2,-2
1470261228286689,0,-2,-4,-7,0,-3,-2,-1
1470261228288191,0,-1,-1,-20,-5,1,1,0
1470261228288191,0,0,0,21,4,-2,-3,0
1470261228309209,-1,-1,-4,-13,-5,-1,0,-2
1470261228309209,-1,0,-1,-1,-2,-1,0,-1
1470261228310713,-1,-1,3,11,-1,-1,0,-1
1470261228310713,-1,-1,2,-2,-1,0,-2,0
1470261228323726,1,-1,-4,1,-1,-3,-1,0
1470261228323726,-2,0,-2,-1,-3,-1,0,-2
1470261228330246,0,0,-2,-7,-3,-1,-2,-2
1470261228330246,1,0,-1,6,0,-1,0,0
1470261228346747,-3,-2,3,10,2,-2,0,0
1470261228346747,0,-1,3,-1,-2,-1,-1,-1
1470261228348245,-1,0,-1,3,1,-2,-2,-2
1470261228348245,-1,0,-5,19,-1,-2,-1,-1
1470261228369263,0,-3,3,-13,-6,1,-1,-2
1470261228369263,0,0,-2,-10,1,-2,-1,0
1470261228370764,-3,-1,0,1,-2,1,-2,-1
1470261228370764,-1,-2,0,1,0,0,0,0
1470261228382778,0,-1,-4,-1,0,-2,-1,0
1470261228382778,-1,-2,1,14,2,1,1,0
1470261228391785,-2,-2,-3,-13,-1,-1,1,-2
1470261228391785,-1,-1,-2,5,-2,-1,-2,-2
1470261228406797,-1,1,-3,-4,0,-1,-2,-1
1470261228406797,-1,0,-2,-13,-3,-1,-1,0
1470261228408303,0,0,0,0,2,0,1,-2
1470261228408303,-1,-1,3,-1,-2,-1,-2,-1
1470261228436324,-1,-1,-2,6,0,-1,-2,-2
1470261228436324,-1,-2,-6,-5,-1,0,-2,-1
1470261228444831,0,-1,1,10,1,-1,-1,-1
1470261228444831,1,0,0,-4,-3,-1,0,1
1470261228445832,0,1,1,-18,-4,-2,-1,1
1470261228445832,-3,-2,-6,6,0,-1,-1,0
1470261228452342,-1,-1,1,-4,-1,0,-1,-3
1470261228452342,-2,-1,-2,-3,-1,-3,-1,-3
1470261228466351,-2,-2,1,4,-2,-2,0,-1
1470261228466351,-1,0,0,-5,1,-1,-2,-2
1470261228468353,-1,-1,-1,3,0,-2,-3,0
1470261228468353,-2,-1,-3,2,-1,-3,-3,-1
1470261228488871,0,0,0,19,5,8,0,0
1470261228488871,1,-2,7,-12,-4,2,1,0
1470261228490373,-2,-2,-4,24,1,-3,0,-2
1470261228490373,0,-3,-2,-20,-3,-2,-2,-1
1470261228502885,-3,-2,-5,-8,-3,-3,-1,-2
1470261228502885,0,-1,-1,1,2,1,-1,-3
1470261228511892,0,-1,0,-1,-4,0,-1,-2
1470261228511892,-2,1,2,0,0,1,-2,1
1470261228526434,-1,1,-4,4,0,-3,1,-2
1470261228526434,0,1,1,-9,-1,-2,-2,-2
1470261228527906,0,-5,-5,-15,-3,-2,-2,0
1470261228527906,-3,-2,1,7,-1,0,1,0
1470261228548938,-2,-2,0,-8,-1,0,-1,0
1470261228548938,0,1,-2,2,-2,-3,-2,0
1470261228550928,0,-3,-1,14,-1,-5,-2,-1
1470261228550928,1,1,-5,-37,-4,4,-2,0
1470261228562456,1,0,3,-4,2,0,1,0
1470261228562456,-2,-1,-3,-2,-4,-2,-1,-2
1470261228571945,-2,0,2,5,0,1,-1,-1
1470261228571945,-1,-5,-1,11,0,-2,-1,-3
1470261228586476,-1,-1,-3,-2,-2,-2,-1,-3
1470261228586476,1,0,0,3,3,1,-1,-1
1470261228587960,-1,-1,-4,-12,-2,0,1,0
1470261228587960,0,0,1,5,1,0,-1,1
1470261228607978,-1,-2,0,-6,-2,-1,-2,-3
1470261228607978,-1,-2,1,11,1,-2,-1,-2
1470261228617492,-1,-1,2,-7,-1,-2,-1,-4
1470261228617492,-2,-1,-4,2,0,2,-1,0
1470261228622992,-2,-1,-3,2,0,-1,-2,-2
1470261228622992,0,-3,-6,-12,-1,-1,-1,-1
1470261228639507,0,1,3,19,2,0,-1,0
1470261228639507,-1,0,1,-2,2,-3,0,-1
1470261228646578,1,-1,-3,-22,-6,-2,-1,0
1470261228646578,-1,-2,1,17,1,0,-1,-2
1470261228648014,0,2,0,-38,-8,-1,3,1
1470261228648014,0,0,2,22,5,1,-1,-3
1470261228669033,-1,-3,-2,9,0,-2,-3,-1
1470261228669033,-2,-2,-3,0,-4,-2,-2,1
1470261228670534,-2,-2,-1,17,3,-1,-3,-2
1470261228670534,-1,0,-4,-13,-2,-1,0,0
1470261228683045,-1,0,-2,-14,-2,-3,-1,-1
1470261228683045,-1,-1,-1,-2,-5,-3,-2,-1
1470261228691553,0,-2,-1,-1,1,-1,-1,-1
1470261228691553,-2,-1,0,5,-3,0,0,0
1470261228706597,-2,-1,-5,5,-1,0,0,-2
1470261228706597,0,-1,-1,-9,-3,-3,0,-1
1470261228708068,-2,0,-2,-5,-1,0,-2,-1
1470261228708068,0,-2,0,10,0,-2,-3,-2
1470261228729145,-2,0,-1,-15,-1,0,-3,-2
1470261228729145,0,-2,-4,2,0,-1,0,-1
1470261228730628,1,1,-1,-9,1,1,1,0
1470261228730628,-2,-4,-3,-3,-4,-2,-2,0
1470261228742626,-1,0,0,-3,-2,-1,1,1
1470261228742626,-1,-2,0,2,-6,-3,-2,-1
1470261228751643,0,-2,0,5,5,1,-1,-1
1470261228751643,0,-1,-2,-6,-4,0,0,1
1470261228766621,-1,-4,1,2,-3,0,-1,-2
1470261228766621,-2,-1,-2,-5,1,-1,-1,-2
1470261228769123,-3,-1,-3,2,-3,-2,-1,0
1470261228769123,0,-1,-2,-5,-3,-1,-1,-1
1470261228789143,-1,-1,-3,-4,-1,0,-1,-1
1470261228789143,-1,0,1,7,5,0,0,-1
1470261228790642,-1,-2,-2,2,-1,-1,0,-1
1470261228790642,-1,-1,-1,8,0,-2,-1,-1
1470261228811660,-1,-1,-2,-21,-1,-1,-2,-1
1470261228811660,-1,-1,2,10,-1,-2,-2,0
1470261228813163,-3,-2,0,-16,-1,0,-2,-1
1470261228813163,-2,0,0,3,-2,-2,0,-2
1470261228826674,0,0,-2,14,1,-4,-1,0
1470261228826674,-2,-2,-3,-17,-2,0,-1,-1
1470261228828176,1,-1,0,12,-3,0,-1,0
1470261228828176,-1,0,0,-8,-1,-1,-1,-2
1470261228849196,-1,0,0,2,5,0,0,-1
1470261228849196,0,-1,-1,3,-1,0,0,0
1470261228850699,0,-1,-5,-2,-4,-2,-2,-3
1470261228850699,0,-1,1,-2,2,-1,-2,-1
1470261228871714,-1,-3,-3,-5,-5,-1,-2,-2
1470261228871714,-1,1,0,1,7,4,3,0
1470261228873216,0,0,-4,3,-4,0,0,-1
1470261228873216,-2,-1,0,-9,-2,-2,0,-1
1470261228886728,-2,0,3,9,-3,-2,-1,-2
1470261228886728,-2,-2,-5,-7,-2,-2,-2,0
1470261228888230,-1,-4,2,-1,0,-1,0,-1
1470261228888230,-1,-3,-2,-10,2,-1,-1,-3
1470261228908249,-1,-2,-2,4,-2,-1,0,1
1470261228908249,-1,-1,-3,-1,-2,-1,-1,-1
1470261228916758,-1,0,-2,5,1,-1,-3,-1
1470261228916758,-1,0,2,1,-2,0,0,1
1470261228931768,0,-2,-1,-11,1,0,1,-1
1470261228931768,0,2,2,0,0,-2,1,0
1470261228933272,-3,-1,-1,-4,2,-2,-2,-2
1470261228933272,-1,-1,-5,-3,-4,-1,-1,-1
1470261228945800,-1,-1,5,11,0,-1,0,0
1470261228945800,0,-2,-2,-6,0,-1,-1,-2
1470261228960312,-1,-1,-1,-3,-1,-2,0,-1
1470261228960312,-1,-1,0,-1,-5,-1,-1,-1
1470261228969302,0,0,1,21,9,-1,1,-1
1470261228969302,-1,-2,-5,-7,-2,-1,0,-1
1470261228970803,-1,-1,4,-1,-2,0,-1,-1
1470261228970803,0,-1,-1,9,-1,0,-1,-1
1470261228991825,-1,1,-2,-13,-2,0,-1,-2
1470261228991825,-2,-4,-1,9,2,-2,-2,-3
1470261228993324,-1,0,-5,-16,-6,-1,-1,0
1470261228993324,-2,-1,-2,-8,0,0,0,0
1470261229005841,-1,-1,-3,8,-3,-2,-2,0
1470261229005841,-3,0,1,-3,-1,-1,-1,-2
1470261229012842,0,-1,0,3,-1,-2,4,1
1470261229012842,-1,-4,-1,2,0,-2,-1,-1
1470261229028860,-1,0,-3,2,0,0,-2,-1
1470261229028860,-2,-2,1,32,-2,-3,-2,-3
1470261229030358,1,1,2,-41,-4,-2,-2,0
1470261229030358,0,-1,-4,-8,-8,-1,0,-1
1470261229051878,-2,-4,1,3,1,-1,-2,1
1470261229051878,0,0,-1,2,-1,-1,-1,0
1470261229053378,-2,-5,2,21,2,-1,-2,-1
1470261229053378,-1,-1,0,0,3,0,-1,0
1470261229073897,0,-3,-3,-13,-5,-2,0,0
1470261229073897,0,-1,-1,-4,-4,0,0,0
1470261229075398,1,0,-1,0,2,1,-1,-3
1470261229075398,-2,-2,-1,-10,-3,-1,-1,-1
1470261229088910,0,-1,-2,3,0,-3,0,-2
1470261229088910,-2,-1,2,-3,-1,-1,-2,0
1470261229090411,-2,0,-4,-17,0,-2,-2,1
1470261229090411,0,-1,3,17,0,-1,-1,-2
1470261229112005,-4,-1,-2,-4,-1,0,-1,-3
1470261229112005,-1,0,-1,-7,0,0,-1,-1
1470261229113431,-3,-4,-2,18,0,-2,-3,-3
1470261229113431,0,-1,0,-24,-5,0,-2,1
1470261229126018,-1,-2,-1,1,1,0,-2,1
1470261229126018,-3,-2,-3,-22,-3,-1,-1,-1
1470261229132950,-2,0,-1,5,-2,1,-1,-2
1470261229132950,-2,-2,-2,13,4,-2,-1,0
1470261229148963,2,0,0,-13,-1,1,0,-2
1470261229148963,0,0,0,3,-2,-1,-1,0
1470261229150967,-3,-2,1,12,1,-2,0,-1
1470261229150967,0,1,-3,-8,-4,-1,0,-1
1470261229171485,-1,-1,-3,-10,-5,-2,-3,-2
1470261229171485,-1,-1,-1,19,1,-2,0,0
1470261229172985,1,-1,-2,-20,-4,-1,0,-1
1470261229172985,-1,-1,-1,9,0,-3,-1,-3
1470261229186007,0,0,0,-8,-2,-2,0,0
1470261229186007,-1,-1,1,6,-1,-1,-1,1
1470261229193003,-3,-3,-8,-5,-2,-1,1,-1
1470261229193003,-1,-1,-2,3,3,0,1,-1
1470261229209541,-1,-2,-3,-9,-6,-2,-1,-4
1470261229209541,0,0,1,-17,0,1,0,0
1470261229211019,-1,0,2,10,-3,-1,-4,0
1470261229211019,-1,-1,-3,0,1,-1,-3,-2
1470261229232041,-2,-2,0,13,-1,-2,0,-1
1470261229232041,-1,-2,-2,-9,-3,1,-1,-1
1470261229238118,1,1,0,10,2,-1,-1,-4
1470261229238118,-1,-1,1,5,3,-1,-1,-2
1470261229246051,-2,0,-2,-10,-7,0,0,0
1470261229246051,-1,0,-5,-16,4,1,-2,-3
1470261229253057,-2,0,3,8,-10,-4,-1,0
1470261229253057,-1,-1,-1,3,-1,0,-1,0
1470261229268072,-2,-3,-1,7,0,-3,-2,-1
1470261229268072,1,-1,-2,-10,-3,-4,-1,0
1470261229276578,1,-1,-5,10,4,0,0,0
1470261229276578,0,-1,3,-7,-2,5,-2,-1
1470261229291592,0,0,2,-6,0,-2,-1,0
1470261229291592,0,0,-2,1,-3,-3,-2,0
1470261229293094,-1,-3,-3,0,-2,-1,1,-2
1470261229293094,-1,-1,-2,-2,-1,-2,0,-1
1470261229305105,-1,0,1,10,5,2,0,0
1470261229305105,0,-1,1,-3,-3,-1,-1,-1
1470261229314117,0,-1,0,-4,0,-1,-2,0
1470261229314117,-1,0,-5,-2,3,-2,-1,1
1470261229329125,-2,0,1,11,0,-1,-3,-1
1470261229329125,-2,-3,-3,-13,-4,-1,-2,0
1470261229330627,-1,-2,-2,-1,-1,-2,0,0
1470261229330627,-2,-2,-3,-2,-1,-3,1,0
1470261229351651,-1,2,0,-9,-4,-2,0,-2
1470261229351651,0,-2,5,19,-1,1,0,-3
1470261229353648,0,-1,-8,-25,-3,0,1,-1
1470261229353648,-1,-4,-3,0,1,-3,-3,-1
1470261229365159,-1,-3,-2,3,2,-4,-3,0
1470261229365159,-2,0,-1,-5,-5,-2,-1,-2
1470261229374168,0,0,2,0,2,9,-1,1
1470261229374168,-2,-2,-1,7,0,-4,-3,-2
1470261229389179,0,-2,-5,-10,-5,-1,2,0
1470261229389179,-1,-2,-4,-6,-3,-1,-1,-1
1470261229390682,-1,-1,-4,-4,3,-4,-1,1
1470261229390682,-1,1,1,-2,-4,0,-1,-2
1470261229411699,-2,-2,-3,12,3,1,-2,-2
1470261229411699,0,0,2,-12,1,-1,-1,0
1470261229413201,-2,-1,1,1,-2,0,-2,-2
1470261229413201,-2,-1,-2,-11,-2,0,-1,-2
1470261229425211,-2,-1,2,12,1,-1,-1,-2
1470261229425211,-2,-3,-6,-7,-3,-3,0,0
1470261229434224,-1,-1,-2,-3,0,1,-3,-2
1470261229434224,0,0,6,0,-1,1,0,1
1470261229449233,1,-1,-1,3,0,-2,0,0
1470261229449233,-2,-2,-1,11,2,1,-1,-2
1470261229451237,1,-1,0,-4,-5,-6,-1,-1
1470261229451237,-1,-3,-1,-7,-2,-3,-2,-2
1470261229471753,1,0,1,-4,3,9,-1,-1
1470261229471753,-2,-1,-4,-2,-5,-2,0,-1
1470261229473255,-2,2,2,0,3,-4,-2,-1
1470261229473255,-2,-1,-4,2,-2,-1,2,-1
1470261229485267,-1,-3,-3,0,-2,-3,-1,-1
1470261229485267,0,0,1,2,-1,2,-1,-2
1470261229494274,-2,-2,1,-3,-4,-3,-2,-2
1470261229494274,-1,-1,-5,-22,-6,-3,0,0
1470261229509321,-2,0,2,18,1,0,-1,-2
1470261229509321,0,-2,-2,5,-1,-1,0,1
1470261229510790,-2,-2,-4,-9,-5,-4,-1,-2
1470261229510790,-2,1,0,-1,5,0,-2,0
1470261229531859,1,-1,2,-4,1,-1,-1,0
1470261229531859,-2,-3,-4,-16,-6,-2,-4,-2
1470261229533311,0,-2,1,21,0,1,-1,0
1470261229533311,0,0,-5,-12,-5,-1,1,-2
1470261229545348,-1,0,-1,5,4,-2,0,-1
1470261229545348,-1,0,0,-4,-3,-1,0,0
1470261229554829,0,-2,1,-1,3,0,0,-1
1470261229554829,-1,-4,-4,1,-2,-3,-1,1
1470261229569344,0,-2,0,-11,-6,-2,-2,-1
1470261229569344,0,-2,0,6,4,0,-1,-1
1470261229570933,0,-1,-3,-5,-2,1,-1,-2
1470261229570933,-2,-2,-1,6,-1,-1,-1,-2
1470261229591376,-2,-2,-2,-8,-6,-4,-1,-1
1470261229591376,-1,-3,-8,-11,3,-2,-2,-1
1470261229593362,-1,0,6,18,-3,1,-1,-2
1470261229593362,0,1,0,-38,-4,-2,-1,1
1470261229605408,-2,1,-4,-5,-4,-2,-2,-4
1470261229605408,-1,1,-1,-3,-3,-2,-1,1
1470261229614383,-2,-1,-4,5,1,-1,1,-1
1470261229614383,-1,-1,2,19,4,0,-2,-1
1470261229629422,0,-2,-4,-18,-2,1,0,0
1470261229629422,0,1,6,19,0,0,0,-1
1470261229630396,-2,-1,0,-3,-1,-1,-2,-2
1470261229630396,-1,0,-2,6,-7,-2,1,-1
1470261229659428,-1,-1,-2,1,1,1,1,0
1470261229659428,-1,0,0,6,3,0,-1,-2
1470261229660924,-3,-2,-3,-8,-3,-2,-1,-1
1470261229660924,-1,-1,2,13,3,-1,-4,-1
1470261229665458,-2,-1,-5,-10,-4,-3,-3,-1
1470261229665458,1,-2,3,18,0,1,1,0
1470261229674435,0,0,-3,-26,-1,-1,0,-1
1470261229674435,-1,1,5,10,0,1,-1,-1
1470261229689001,-1,-1,1,22,5,0,-1,-2
1470261229689001,-3,-1,1,-13,-1,1,-2,-2
1470261229690951,-1,0,-1,-3,-1,-1,0,0
1470261229690951,-2,-3,0,13,-1,-2,1,-2
1470261229711973,-1,-1,-5,-20,-2,-2,-1,-1
1470261229711973,-1,-1,1,-6,-3,-1,-2,-2
1470261229713471,-1,-1,-1,1,-1,1,-2,1
1470261229713471,-1,-2,1,25,5,1,-2,0
1470261229725481,-2,0,0,-30,-7,-3,-1,1
1470261229725481,0,-1,-5,-1,2,-1,0,0
1470261229734490,-1,-1,3,5,2,-1,-2,-3
1470261229734490,-1,-1,-1,6,-3,-1,0,-3
1470261229749021,1,-1,1,-1,2,0,0,-1
1470261229749021,-1,-1,3,33,1,0,-1,-1
1470261229751006,-1,0,-3,-32,0,0,-2,0
1470261229751006,-2,-1,-5,3,-6,-1,-1,-2
1470261229772023,-2,-2,0,-1,-3,0,-1,-1
1470261229772023,-1,1,-1,-11,-1,-2,2,-2
1470261229773024,-2,-1,0,20,0,-2,-2,-1
1470261229773024,-1,-1,-2,-16,2,-2,-3,-1
1470261229794046,0,-3,0,1,-3,-3,-2,-2
1470261229794046,0,-2,-3,0,-1,-3,0,0
1470261229795544,-1,-1,4,7,1,7,2,-1
1470261229795544,0,0,-1,-12,-1,0,-1,-2
1470261229809056,-1,0,-7,-25,-5,-3,-2,0
1470261229809056,-2,-2,2,9,2,-2,-3,-2
1470261229810558,-2,0,4,19,3,-6,-1,-1
1470261229810558,-1,-2,-3,-14,-1,-1,1,-1
1470261229831577,-1,-1,0,9,-3,0,0,1
1470261229831577,-1,0,-7,-18,-5,-2,0,0
1470261229833580,-1,-2,-2,0,-2,-2,0,-1
1470261229833580,-1,0,0,-5,-5,1,-3,-1
1470261229854115,-1,-1,-2,11,3,-4,-2,-2
1470261229854115,0,-1,-4,-19,-3,0,-1,-2
1470261229855598,0,-3,1,9,-3,-2,-2,-1
1470261229855598,-1,-2,-2,-1,-3,-2,-2,-1
1470261229869122,0,0,-2,-15,-3,0,2,-1
1470261229869122,-1,-3,-1,5,3,1,0,-1
1470261229871113,1,0,-6,-11,-3,-2,-1,0
1470261229871113,-1,-2,-1,5,2,-3,-2,-3
1470261229891663,-1,-2,2,9,0,1,-1,0
1470261229891663,-2,-3,1,-3,1,-1,-1,-2
1470261229893164,-1,-1,-3,-7,-5,-2,-2,0
1470261229893164,1,1,0,-12,-1,-1,1,-1
1470261229914180,-2,-3,-3,12,1,0,-2,-2
1470261229914180,-1,0,0,0,0,-3,-2,-3
1470261229915652,-2,-2,0,6,0,-1,1,-1
1470261229915652,0,-1,-1,0,0,1,0,1
1470261229928664,-1,1,2,-5,-2,-1,0,-2
1470261229928664,-2,-2,-6,-10,-1,1,0,1
1470261229935187,0,-1,-4,-3,-5,-4,-2,-2
1470261229935187,-3,-1,0,5,-2,-1,-2,1
1470261229951687,-1,-1,0,21,6,-1,-3,-2
1470261229951687,-1,-1,-1,-17,-1,1,0,-1
1470261229953186,-1,-2,-3,-7,-1,-1,1,-2
1470261229953186,0,-3,0,3,1,-1,-1,0
1470261229974225,-1,-1,-1,-9,-1,-2,-1,-1
1470261229974225,0,0,5,23,2,-2,-1,0
1470261229975710,-1,-1,-5,-24,-3,-1,-1,-2
1470261229975710,0,-1,-5,-7,-1,-2,-1,-2
1470261229988717,-1,-2,0,8,-1,0,0,-1
1470261229988717,0,-2,1,1,-2,-2,0,-2
1470261229995223,-1,-2,1,10,3,-1,-1,-1
1470261229995223,-2,-4,-3,-4,-1,-1,-1,0
1470261230019280,-2,-1,-2,12,5,1,0,0
1470261230019280,-2,0,-5,-4,-3,-1,-1,-2
1470261230020746,0,1,4,-23,-4,1,0,-1
1470261230020746,0,3,3,7,-2,0,0,-1
1470261230034260,-2,1,2,-7,-4,-1,-1,-2
1470261230034260,-1,-3,-5,5,-2,-2,-4,-1
1470261230035764,-2,-2,-3,7,2,-1,-1,1
1470261230035764,-1,-1,-1,-2,-3,-2,0,0
1470261230048772,-2,-2,-1,-3,-2,0,-1,-1
1470261230048772,-1,-1,1,1,-2,1,0,1
1470261230055281,-2,-1,0,23,0,-1,-3,-2
1470261230055281,0,-2,-2,-42,2,0,-1,0
1470261230071841,0,0,-1,6,-7,-4,0,-2
1470261230071841,0,1,2,11,6,0,0,1
1470261230073295,-1,0,1,0,-3,0,-1,-1
1470261230073295,-3,-1,1,12,-2,-2,0,-3
1470261230094412,0,-1,-3,-5,-1,-1,-1,-2
1470261230094412,-1,-3,-5,-5,-1,-1,0,-2
1470261230095813,-2,-2,-1,-4,0,-3,-3,-2
1470261230095813,-1,-1,2,7,1,-1,-3,-2
1470261230108927,0,-3,-1,-6,-2,0,1,0
1470261230108927,-1,-2,-2,-1,-3,-2,-1,0
1470261230115362,0,-1,-8,1,1,-2,-1,-1
1470261230115362,-1,-3,2,10,-1,-1,-3,-2
1470261230131362,-2,-2,3,6,-3,-2,-2,-1
1470261230131362,-2,-1,-1,-63,-11,0,0,-1
1470261230137852,-1,-1,-5,-6,2,-3,0,0
1470261230137852,-3,-3,-2,9,1,0,1,0
1470261230154376,-1,-1,-3,22,4,-2,-1,-2
1470261230154376,-2,-1,1,14,-2,-3,-1,-2
1470261230155869,-1,-1,-1,-17,-5,-1,0,0
1470261230155869,1,-1,0,17,3,0,1,0
1470261230168881,0,-2,-2,-11,-1,0,-1,0
1470261230168881,-2,-1,-1,8,-1,-1,-2,-1
1470261230175388,0,0,-1,-9,-1,0,-1,-2
1470261230175388,-2,0,-1,0,-3,-1,-1,-2
1470261230191401,-2,0,-2,-7,-2,-1,0,-2
1470261230191401,1,-2,-2,2,1,-2,-3,-1
1470261230193401,-1,0,0,5,-1,-1,-1,0
1470261230193401,0,-2,-4,-5,-3,-2,-2,-1
1470261230214502,0,0,-5,9,3,0,-2,-1
1470261230214502,-1,-2,4,-4,-4,0,-2,-1
1470261230215921,0,1,-1,1,-3,1,1,0
1470261230215921,0,0,0,-6,0,-1,-3,-2
1470261230227933,-1,-1,-1,-5,-3,-3,-2,-2
1470261230227933,-1,-2,-3,13,7,-2,-1,-1
1470261230237941,-1,-2,2,7,-1,-2,-2,-2
1470261230237941,-2,-2,-3,-13,-3,0,-1,-1
1470261230251956,0,-4,1,10,-2,-3,-2,0
1470261230251956,0,0,-3,4,-1,-2,-4,-1
1470261230253455,-1,-1,-1,-9,-1,-2,-1,-1
1470261230253455,-1,0,-1,1,-1,-3,-2,-2
1470261230274473,-1,0,-1,-19,-4,0,1,0
1470261230274473,-2,-1,-5,-8,-4,0,-1,-1
1470261230275975,-3,-1,2,13,3,-1,-1,0
1470261230275975,0,-2,-3,17,0,-3,0,-1
1470261230296494,-3,0,2,-21,-5,-2,-3,-1
1470261230296494,1,1,0,-10,-1,1,3,2
1470261230303000,0,-3,-3,-1,-5,-3,-2,-2
1470261230303000,-1,-1,3,-4,0,-1,-1,-1
1470261230311509,-1,0,-1,20,7,0,-2,0
1470261230311509,-1,-1,0,-12,1,0,-1,-1
1470261230313009,-2,-2,-4,1,1,1,-1,-1
1470261230313009,-2,-1,-7,-4,-2,0,-2,-1
1470261230334532,0,0,2,-14,-3,0,0,0
1470261230334532,-2,0,0,21,0,-1,0,-2
1470261230336031,0,-2,-2,-12,-2,0,0,0
1470261230336031,0,-1,-2,0,1,-1,-2,-3
1470261230348040,0,-1,-1,5,0,1,-1,-1
1470261230348040,-1,0,-5,-11,-3,0,-1,-1
1470261230356549,-1,-1,0,7,-2,-4,0,-1
1470261230356549,-1,0,0,-14,-5,-1,-2,-2
1470261230379067,-1,-4,-7,2,0,-2,-1,0
1470261230379067,-2,0,-1,-6,-5,-2,0,-2
1470261230380569,-3,1,-1,11,6,0,-3,-2
1470261230380569,-1,1,1,5,-1,0,-1,1
1470261230394081,1,1,0,10,4,-2,-1,-1
1470261230394081,0,-2,1,-14,-5,-1,-1,-1
1470261230395583,-2,-1,-2,-15,-4,-3,-1,-1
1470261230395583,-2,-1,-1,4,2,-1,-1,0
1470261230407594,-3,-1,-3,-11,-1,-2,0,0
1470261230407594,-2,-2,1,28,-2,-2,-1,-1
1470261230416603,1,-1,1,-6,-2,-1,-1,1
1470261230416603,0,1,3,-14,0,2,0,-1
1470261230431616,-2,-2,0,-3,-3,-1,0,-1
1470261230431616,0,-1,-3,-3,2,-1,-2,-1
1470261230433117,-3,-2,4,18,-1,1,-1,-1
1470261230433117,0,-1,-5,-15,-5,0,2,1
1470261230454140,-2,-2,-2,-3,0,-1,-2,-1
1470261230454140,-2,-1,-1,-10,-2,-1,-1,-1
1470261230455637,0,-1,0,25,1,0,-2,-1
1470261230455637,-1,-2,0,-13,-4,-3,-2,0
1470261230467650,-2,0,3,11,4,1,-1,-2
1470261230467650,0,0,-3,-3,-3,-3,0,0
1470261230476656,-1,-3,-3,-24,-5,-1,-1,-1
1470261230476656,-3,0,-1,13,0,-3,-2,-1
1470261230491669,0,-2,0,9,-2,-1,-1,-2
1470261230491669,-3,-2,2,0,4,0,0,-2
1470261230493171,0,1,-1,-23,0,2,1,0
1470261230493171,-2,-2,-6,-8,-7,-3,-2,-4
1470261230514189,-1,-1,-3,-13,-5,-2,1,1
1470261230514189,-2,-3,-1,21,3,-1,0,-2
1470261230515692,0,-1,-2,1,-1,-3,-1,-3
1470261230515692,0,-2,0,4,4,0,1,1
1470261230527703,0,-1,0,2,-3,-5,-2,-3
1470261230527703,-1,-2,-4,-2,-2,-2,-1,0
1470261230536710,0,-1,-4,-5,0,6,-1,-2
1470261230536710,-2,-3,-1,-7,2,-2,-2,0
1470261230551724,-1,0,2,10,-7,1,-1,0
1470261230551724,0,-1,0,14,8,-2,-2,-1
1470261230553227,-2,-1,-3,-5,-2,-2,2,1
1470261230553227,-1,0,-4,-5,-1,0,-2,-1
1470261230581749,0,-1,-2,-25,-3,-1,0,-2
1470261230581749,-1,-2,-1,-6,-4,-2,-3,-2
1470261230583754,0,-1,0,9,-2,-1,-1,0
1470261230583754,-1,-2,-1,13,2,1,-1,-2
1470261230587755,-1,0,0,1,0,-2,-1,1
1470261230587755,0,0,-1,-11,-5,0,-1,-1
1470261230596764,-1,-1,0,4,2,-3,1,0
1470261230596764,-2,1,0,-6,-10,-1,1,-3
1470261230611776,0,0,-1,0,4,-1,-1,-1
1470261230611776,-2,-3,1,9,-1,-2,0,-1
1470261230613280,0,0,-2,-20,-5,0,-1,0
1470261230613280,-1,-1,1,16,7,-4,-2,-2
1470261230634298,-2,-2,-5,2,-2,-2,-1,-2
1470261230634298,-2,-1,-2,-15,-3,8,2,-1
1470261230635799,-3,-1,-2,-2,0,-4,-1,-3
1470261230635799,-2,0,1,3,0,-1,-1,-1
1470261230647852,-1,-2,-2,2,0,-1,-1,-1
1470261230647852,0,1,-1,-3,-1,-4,0,-2
1470261230656819,0,-2,-2,-9,-1,-1,-2,-2
1470261230656819,0,-2,-2,-3,-2,-1,-2,0
1470261230671831,-3,-2,-1,7,1,0,-1,-2
1470261230671831,-1,-1,-1,-18,-5,0,-2,-1
1470261230673333,-1,0,5,14,-1,1,1,0
1470261230673333,-1,-2,-2,-2,0,-1,1,0
1470261230694351,0,-1,-3,-17,-2,0,-2,-2
1470261230694351,0,2,-5,10,0,-5,-3,1
1470261230695853,-3,-2,1,4,0,-1,-1,-1
1470261230695853,-1,0,0,-7,-2,9,0,1
1470261230716873,-1,0,-3,1,1,-3,0,0
1470261230716873,-1,-3,-1,2,1,-2,-2,-2
1470261230718387,0,0,0,4,-4,-5,-3,-2
1470261230718387,-1,-1,-4,-3,-1,-4,1,-1
1470261230739391,-1,-2,2,-11,-6,5,1,1
1470261230739391,0,0,-1,11,4,-1,-1,-1
1470261230740894,-1,0,-3,-20,-4,-2,-2,-1
1470261230740894,-2,-2,-1,9,-1,-10,-5,-3
1470261230754405,-1,-2,-3,-4,1,3,4,-1
1470261230754405,-1,-1,1,-7,1,8,0,-2
1470261230755912,-1,0,-4,11,-1,2,0,-1
1470261230755912,-1,-3,5,-1,2,1,4,-1
1470261230776426,-1,-1,-1,-16,-6,-7,-2,1
1470261230776426,-2,-2,2,20,0,-1,-2,-2
1470261230778426,0,-2,-4,-14,8,2,-6,-1
1470261230778426,1,0,-5,-3,-8,-6,-6,-1
1470261230791440,0,-2,2,12,-3,-4,-2,-1
1470261230791440,-2,-2,-2,-9,-2,-3,-1,0
1470261230793440,-3,-1,-1,11,1,4,3,0
1470261230793440,-1,-2,-4,-11,-1,10,0,1
1470261230821467,-2,-2,1,-1,-1,-4,-2,0
1470261230821467,-1,0,-3,-5,-2,1,-2,-2
1470261230823467,-2,-1,-1,2,0,-9,-1,-3
1470261230823467,-1,-1,-7,-15,-6,-3,1,0
1470261230835980,-1,-1,4,11,0,2,-2,-1
1470261230835980,-2,-1,1,-5,-4,-4,-2,0
1470261230853494,0,1,-2,14,0,-3,-2,-3
1470261230853494,-3,0,-1,-13,-1,-2,0,-1
1470261230853994,-2,2,-4,-8,1,4,0,-1
1470261230853994,0,-2,-2,-1,-1,-4,-1,-1
1470261230857998,0,-1,-3,-7,-7,2,1,1
1470261230857998,0,-2,0,18,3,-7,-4,-2
1470261230874031,-2,-2,-3,-2,-6,-1,-2,-2
1470261230874031,0,-2,-2,-12,2,10,1,-1
1470261230876014,-2,-2,2,12,3,-1,-2,-2
1470261230876014,-1,0,-1,-13,-6,0,0,-1
1470261230904041,-1,0,-1,-4,0,-3,0,-1
1470261230904041,0,0,-1,10,-5,-2,-1,-1
1470261230905541,-3,-5,-4,-19,-3,-3,-1,-3
1470261230905541,0,2,2,12,2,3,-1,-2
1470261230911073,0,0,-8,1,0,-7,1,-3
1470261230911073,-9,-5,1,-19,-5,4,-2,-3
1470261230918055,-3,-2,-2,-11,-4,-1,-1,-2
1470261230918055,-2,-1,-2,3,-1,-2,-2,-1
1470261230934068,0,0,4,7,1,2,-2,-2
1470261230934068,4,2,-3,27,3,-6,0,0
1470261230935570,-1,-2,-3,-30,-11,-1,-1,0
1470261230935570,-3,-3,-3,-16,-6,0,0,-4
1470261230956586,1,-4,-4,-7,-3,-2,-4,-1
1470261230956586,-3,1,4,8,18,-1,1,-2
1470261230958721,5,0,-2,2,-23,0,-2,-1
1470261230958721,-3,-4,-6,6,10,-1,0,-2
1470261230970638,-2,-5,-3,-1,1,3,-3,-2
1470261230970638,2,1,4,10,-2,-4,-1,-1
1470261230979156,-2,0,-3,-22,-9,-4,-1,0
1470261230979156,0,0,-2,2,8,1,2,-1
1470261230994176,2,3,8,-2,7,3,3,3
1470261230994176,-1,-5,-8,0,-7,-2,-1,0
1470261230995672,-5,-6,3,5,7,-4,-4,-6
1470261230995672,2,1,2,7,-11,0,-1,0
1470261231016675,-5,-4,-5,-37,-16,-5,-3,-3
1470261231016675,4,5,9,49,30,8,4,3
1470261231018646,0,-1,-2,-4,1,-2,0,1
1470261231018646,-2,1,6,1,12,1,-2,-1
1470261231030161,-4,0,-1,0,-11,-1,-2,-3
1470261231030161,-4,-3,-4,-24,-12,-4,-2,-4
1470261231039161,0,0,-3,0,-2,-2,-2,1
1470261231039161,-1,-2,-3,-4,-2,2,-1,0
1470261231054237,0,0,-1,10,8,0,-1,1
1470261231054237,-2,0,-3,-11,-1,-2,0,-1
1470261231055677,-4,-2,0,23,9,3,0,-2
1470261231055677,2,2,0,23,2,-1,-1,-1
1470261231076738,1,0,1,-26,-13,-2,0,1
1470261231076738,-2,-5,-4,-25,-6,-2,-2,-1
1470261231078196,0,3,-4,9,1,-1,2,2
1470261231078196,-9,-9,-4,-5,-8,-2,-2,-3
1470261231090248,2,-1,-1,21,11,-1,1,0
1470261231090248,1,-1,-4,-16,-14,-3,-3,-2
1470261231099262,-2,0,-5,-24,-4,-3,-3,-3
1470261231099262,-2,-1,6,35,20,5,2,0
1470261231114324,-4,-6,-1,18,7,0,0,0
1470261231114324,0,-1,-5,-19,-10,-4,-2,-1
1470261231115733,0,2,-1,2,-7,-2,0,0
1470261231115733,4,1,-4,-8,-6,-2,-1,0
1470261231136808,-2,-1,-3,-21,-5,1,-2,1
1470261231136808,-1,-1,4,4,10,-2,2,-2
1470261231138250,-4,-3,-4,4,2,1,-2,-2
1470261231138250,0,1,4,-14,-8,-3,-1,1
1470261231150262,0,-2,-5,9,3,0,-1,-3
1470261231150262,-2,-7,-12,2,-7,-2,-1,1
1470261231159271,5,3,13,10,0,2,1,2
1470261231159271,-2,-1,-5,-18,3,-3,-3,-1
1470261231174338,-3,0,-3,3,-5,-1,1,0
1470261231174338,-1,3,-1,-10,-1,-2,-2,0
1470261231175785,-2,-4,3,22,5,2,0,1
1470261231175785,0,-6,3,0,-8,-1,-1,-2
1470261231196839,0,-1,-3,6,1,-5,-2,-4
1470261231196839,-3,0,-5,-7,-1,-2,1,1
1470261231198327,-3,3,6,1,1,5,-2,-4
1470261231198327,-3,1,-6,-12,-9,-1,1,-1
1470261231210434,-3,0,1,9,1,-3,0,3
1470261231210434,6,0,-5,0,-6,-4,-2,-8
1470261231219400,-6,-5,-3,-5,1,-5,-2,-2
1470261231219400,0,-2,3,-5,1,2,2,-2
1470261231234915,0,0,6,1,-4,-1,-5,-2
1470261231234915,0,1,4,6,2,-1,-2,0
1470261231236916,0,-2,4,10,0,-2,-1,-1
1470261231236916,-1,-1,-16,-22,-6,-2,-2,0
1470261231256933,0,-2,5,9,6,-2,1,-1
1470261231256933,-1,2,7,7,-3,1,-1,2
1470261231258434,2,3,-16,-20,-2,-1,1,0
1470261231258434,-3,-5,7,11,-2,-3,-2,-1
1470261231270492,-2,-4,-10,-17,-7,-1,-2,-4
1470261231270492,-4,0,8,16,6,2,-1,0
1470261231279457,-1,-2,-10,-12,3,0,1,-1
1470261231279457,2,6,6,6,-5,-7,-3,5
1470261231293971,2,1,-5,-4,2,3,-1,-4
1470261231293971,-5,-7,-2,0,-3,7,1,0
1470261231295982,2,3,2,3,2,-3,1,-1
1470261231295982,6,6,-1,0,-4,-2,-3,0
1470261231323995,-15,-5,-4,-1,-3,-6,0,-5
1470261231323995,-5,-16,-5,-15,-5,-2,0,-1
1470261231325495,-3,10,-1,7,-1,-1,-1,2
1470261231325495,-4,-22,-3,0,2,-3,-3,-8
1470261231330503,1,10,-4,0,-1,-2,-1,0
1470261231330503,-1,5,-3,-5,-4,-1,1,2
1470261231346513,-2,-2,-2,12,3,0,-1,0
1470261231346513,-4,-4,4,-7,0,-1,-2,0
1470261231354562,4,7,5,4,-3,2,-2,1
1470261231354562,1,3,-3,1,-2,-2,0,-4
1470261231355523,2,-7,4,-7,1,1,0,2
1470261231355523,3,6,3,5,2,2,1,3
1470261231376543,-1,-11,-3,1,0,1,-2,-1
1470261231376543,0,6,-2,-9,-1,-3,-1,1
1470261231378043,3,-5,-5,0,-3,-3,-2,0
1470261231378043,-5,1,1,-2,-1,2,0,-6
1470261231390053,-4,-3,-7,-11,-4,-2,-2,2
1470261231390053,0,-8,-1,5,-2,-6,-5,0
1470261231399062,-6,-1,5,3,-2,3,2,-5
1470261231399062,13,7,-4,0,0,5,1,-1
1470261231414108,-7,-2,3,-2,-1,-5,-1,-3
1470261231414108,-1,-1,-6,-6,0,0,0,-5
1470261231415576,-5,-5,-2,0,-1,-3,1,3
1470261231415576,7,2,-1,-2,-2,-1,3,3
1470261231436609,-9,-7,-7,-8,-1,-1,-1,4
1470261231436609,4,6,4,8,-1,-2,-2,-1
1470261231438097,-2,2,0,0,2,-4,0,1
1470261231438097,-10,-1,-3,-7,-4,0,-1,-3
1470261231450609,6,0,3,7,2,0,-2,-2
1470261231450609,-7,-6,-3,-3,-3,0,-1,5
1470261231459615,-7,-2,-5,-4,-3,1,-2,-11
1470261231459615,9,1,-2,3,-1,-5,-4,5
1470261231474184,-9,-2,-2,-3,3,-1,1,-6
1470261231474184,4,-1,6,5,-3,-4,-2,1
1470261231475630,3,0,-1,5,2,1,0,-5
1470261231475630,-18,-2,-6,5,-1,-2,-3,-7
1470261231496682,5,-8,-3,-6,-5,2,0,4
1470261231496682,-2,0,-2,-4,0,-4,-1,-3
1470261231498150,9,0,-1,2,4,5,1,2
1470261231498150,-12,-2,-4,-14,-4,-3,-1,1
1470261231518171,0,4,6,7,-1,-5,-2,-14
1470261231518171,-2,-2,-3,4,3,1,-3,-1
1470261231526676,3,-1,-1,-8,-4,-5,-2,3
1470261231526676,0,-3,-4,-7,-1,0,-2,-7
1470261231534183,-2,-1,4,7,3,0,0,-4
1470261231534183,0,1,-2,2,0,-1,-1,0
1470261231541690,1,0,4,-22,-8,0,-1,2
1470261231541690,-5,-2,0,1,0,-3,-1,-4
1470261231556703,7,3,-6,8,-1,3,2,3
1470261231556703,-5,-7,2,-7,1,0,-1,-3
1470261231558204,-3,0,6,7,2,-1,-3,2
1470261231558204,2,-3,-5,-4,-3,-5,-1,2
1470261231570218,1,2,8,7,-3,7,0,0
1470261231570218,0,3,-11,10,2,1,1,2
1470261231579224,-4,0,0,5,0,-8,-2,-3
1470261231579224,-2,-3,3,-2,-2,-2,-2,0
1470261231593736,-2,-2,-2,-14,-3,-6,-1,-1
1470261231593736,3,-4,0,-3,-3,3,-1,-7
1470261231600261,-9,-3,-4,15,1,-2,-3,-9
1470261231600261,-1,1,2,3,2,-2,-3,-6
1470261231616772,3,3,-6,-5,-1,-5,1,13
1470261231616772,-15,-7,0,-16,-4,-10,4,2
1470261231618262,6,-2,-3,5,0,10,0,2
1470261231618262,-2,-1,-5,5,1,10,0,10
1470261231639307,2,-1,-1,-5,0,2,-5,-17
1470261231639307,15,9,7,11,2,-4,0,8
1470261231640779,1,-1,-5,-7,-1,-5,-1,0
1470261231640779,-22,-4,-3,-21,-4,-7,-3,-1
1470261231653790,2,-7,-4,5,-1,1,0,-1
1470261231653790,-2,0,-6,-9,-2,-1,-1,-4
1470261231660313,4,-2,-1,5,1,-3,-2,2
1470261231660313,7,12,7,3,-2,2,1,-1
1470261231676851,2,-20,-8,-18,-2,-4,-1,-2
1470261231676851,-20,2,-1,11,-1,1,-2,-1
1470261231678311,2,-3,-2,-21,-4,0,-4,-3
1470261231678311,-1,2,-9,5,2,-3,-2,-13
1470261231699347,7,3,11,14,1,-1,2,6
1470261231699347,-6,-2,-2,-7,-1,0,-2,1
1470261231700838,-2,4,6,8,-1,1,-1,5
1470261231700838,2,-7,-5,7,4,1,0,-2
1470261231713343,-6,1,-5,-25,-10,-1,-4,-8
1470261231713343,3,0,0,2,-3,3,-4,-6
1470261231721851,0,2,-4,-18,-5,-1,2,0
1470261231721851,-1,-5,6,18,1,-3,-1,-1
1470261231736865,-13,-4,-2,17,4,1,-2,5
1470261231736865,1,1,-4,-21,-4,-6,-1,-7
1470261231738371,-1,-4,-3,12,0,-1,0,6
1470261231738371,23,-3,1,-8,-2,3,-1,1
1470261231759385,-17,6,-4,-7,-1,-5,1,-2
1470261231759385,1,-1,0,-11,-5,-1,-4,-8
1470261231760919,-8,-5,-3,3,6,-4,1,12
1470261231760919,5,-4,-3,-2,-4,0,-2,7
1470261231773399,-4,4,1,4,-2,0,-2,-18
1470261231773399,-5,-2,-1,-1,-1,0,0,-2
1470261231780406,1,-4,-4,-9,-4,-2,-3,-10
1470261231780406,-13,0,4,7,1,0,-1,3
1470261231796918,12,0,-3,-5,0,0,1,8
1470261231796918,3,-1,1,6,-1,0,0,-4
1470261231798420,-6,-3,-2,-8,-2,1,-3,0
1470261231798420,-1,1,1,6,-3,-3,-1,2
1470261231818940,3,0,-1,5,1,0,-1,0
1470261231818940,-4,-3,-1,1,0,1,0,-2
1470261231820939,5,1,-2,-2,-2,-3,-3,-2
1470261231820939,-1,-2,-1,-6,-1,-3,-2,-3
1470261231833953,1,0,1,11,3,-2,-1,6
1470261231833953,6,0,-5,-14,-2,1,2,0
1470261231840457,-20,-1,5,3,-4,-6,-4,-11
1470261231840457,-3,-3,-5,-4,-1,-2,1,6
1470261231856993,-1,0,-1,0,1,7,1,4
1470261231856993,6,0,-2,0,2,-4,-3,2
1470261231858474,10,0,0,9,0,-1,2,0
1470261231858474,-1,0,-2,-8,-5,-3,-1,-10
1470261231878992,6,1,0,7,0,-3,-2,4
1470261231878992,-8,0,0,-2,-1,-1,2,3
1470261231880994,-4,-3,-1,3,-1,4,0,-3
1470261231880994,7,2,0,-2,0,0,0,-5
1470261231893510,-5,-5,-6,-8,-1,-1,-2,-4
1470261231893510,0,1,2,1,-1,-1,-2,1
1470261231900511,3,-1,-3,-3,-3,-4,1,-1
1470261231900511,0,-3,-1,-3,0,-2,-3,-5
1470261231917029,-4,-1,-1,-3,-1,1,-1,-3
1470261231917029,-3,-2,0,4,0,-1,-2,0
1470261231918529,0,-1,-2,-1,0,0,-2,0
1470261231918529,-2,2,-2,-4,-2,0,1,-2
1470261231939563,0,1,0,-1,-2,-4,-1,2
1470261231939563,-3,-3,-3,-1,-1,-4,-1,-5
1470261231940548,2,0,-3,-9,0,1,-2,-4
1470261231940548,3,-1,-1,2,1,7,1,4
1470261231953590,-3,5,7,-2,1,-2,1,-2
1470261231953590,1,1,-1,4,-1,-1,0,0
1470261231960077,3,-2,0,-4,-1,-2,-2,-3
1470261231960077,0,-2,-1,-5,-2,-5,-1,5
1470261231976643,-3,1,-2,-4,-1,-1,-2,0
1470261231976643,7,-1,-3,-2,1,-1,-1,2
1470261231978081,-10,0,-1,1,0,-1,-1,-5
1470261231978081,2,-1,1,-2,-1,0,-1,-4
1470261231999195,2,0,0,0,-1,0,0,0
1470261231999195,4,-2,0,1,-2,-3,-1,1
1470261232001103,-1,-3,-2,0,1,2,-1,-4
1470261232001103,-1,0,-1,1,0,1,-1,5
1470261232013614,-1,-3,-4,-13,-3,-3,-2,-4
1470261232013614,-2,1,4,21,2,3,0,1
1470261232020666,-1,-4,-4,3,0,-1,-1,-1
1470261232020666,-1,1,-1,-4,0,-3,0,0
1470261232036634,-7,-1,-2,-3,-1,-3,-1,0
1470261232036634,2,-2,-1,-4,-3,-2,-2,-2
1470261232038135,-1,1,0,-3,-1,-1,0,0
1470261232038135,-7,-2,-3,0,-1,-5,-1,-4
1470261232059201,15,0,-2,3,2,0,-1,1
1470261232059201,-15,-3,-2,-7,-1,9,1,-5
1470261232060656,5,-1,0,1,-3,-4,2,19
1470261232060656,-1,-2,3,-1,-1,-2,-3,-9
1470261232073718,-2,-1,0,-2,-3,-4,2,10
1470261232073718,7,2,0,-4,-1,-1,-3,6
1470261232080175,-3,-2,-2,-3,-3,-1,-5,-11
1470261232080175,-10,-4,-3,-2,-1,0,-1,-2
1470261232096687,15,-2,-1,-2,0,-1,0,0
1470261232096687,-30,-2,-2,-3,-2,-3,-1,-9
1470261232098190,4,-1,0,0,-1,0,0,7
1470261232098190,2,-1,-1,-3,-1,-1,1,-6
1470261232119210,-3,-3,-2,-7,-2,1,-3,-5
1470261232119210,4,-1,-2,-6,-2,-4,-1,-1
1470261232121210,-5,-2,1,10,-1,-1,-1,-8
1470261232121210,-2,-1,-3,-3,-1,0,-1,5
1470261232132752,6,-1,1,3,0,0,-1,-1
1470261232132752,-4,-4,-2,3,1,-1,-1,2
1470261232141728,2,2,2,-15,-3,-2,1,-6
1470261232141728,4,0,-3,4,-1,0,-2,-1
1470261232156806,2,0,-3,-5,-2,8,-1,-3
1470261232156806,-11,-2,1,11,1,1,-3,1
1470261232158245,0,-1,0,0,0,-4,-1,-1
1470261232158245,-1,-1,-2,-4,-1,-1,-4,-2
1470261232179354,-4,-1,0,0,-1,-3,-1,-9
1470261232179354,5,-1,-1,-5,0,1,3,7
1470261232180780,-7,-4,-4,-6,-2,0,-2,-7
1470261232180780,2,0,3,8,0,-4,0,13
1470261232192774,-15,-5,-2,1,-2,-3,-3,3
1470261232192774,6,-2,-2,-5,-3,0,-3,-8
1470261232201783,1,-1,-1,-3,-1,0,-2,1
1470261232201783,-6,-2,-1,-4,-1,-1,-2,-2
1470261232216800,-3,1,0,2,-2,3,1,0
1470261232216800,6,1,-1,-4,-2,-3,1,1
1470261232218300,1,0,-4,-3,1,-5,0,9
1470261232218300,4,-3,-2,-7,-1,3,-3,-12
1470261232239315,-17,0,5,16,2,0,-2,0
1470261232239315,3,-1,-2,-3,-2,-9,-3,-2
1470261232240819,7,0,-1,-6,-1,6,-2,-3
1470261232240819,-7,-1,-1,2,-2,-3,-1,-1
1470261232252848,1,-1,-3,-5,-1,-3,-2,-3
1470261232252848,1,-2,-1,-1,-2,2,0,2
1470261232261840,-4,0,1,5,-1,-2,-1,-10
1470261232261840,1,-3,-2,-4,-1,-1,-2,5
1470261232276849,-2,-1,-2,-1,-2,-2,-2,-4
1470261232276849,2,0,-1,-1,0,1,-2,-2
1470261232278351,0,-2,-3,-2,-1,0,0,0
1470261232278351,-3,-1,-1,-2,-1,1,0,-2
1470261232299369,2,-1,0,-2,-1,-3,-2,1
1470261232299369,13,-2,-3,-3,-2,-1,1,16
1470261232300873,-21,-2,0,-1,-1,-3,-3,-7
1470261232300873,-1,-1,-2,-11,0,-3,-2,-3
1470261232312885,0,1,6,24,1,3,2,3
1470261232312885,1,-1,-2,-4,0,-2,1,-5
1470261232321905,5,1,1,-1,-2,1,1,3
1470261232321905,-3,-1,-3,-2,-3,-3,-1,2
1470261232336906,-2,-3,-6,-10,-1,-4,-2,-7
1470261232336906,4,0,-1,-1,0,1,-3,-16
1470261232338405,3,1,-1,0,1,3,-2,-5
1470261232338405,-7,0,2,-1,-2,-2,0,-4
1470261232359424,0,1,-2,-6,-3,-1,1,1
1470261232359424,1,-2,-3,2,-1,-1,-3,-4
1470261232360967,7,0,-2,-3,0,1,1,8
1470261232360967,-7,-1,-1,5,0,0,-2,-8
1470261232372935,0,-1,-4,-20,-1,-2,0,0
1470261232372935,-2,0,3,9,0,-3,-1,-4
1470261232381943,-1,-2,-1,2,-2,-6,-1,-1
1470261232381943,3,1,-2,-2,0,8,2,2
1470261232403996,-1,-3,0,9,1,0,0,-1
1470261232403996,-2,0,-1,-8,-1,-3,-5,-19
1470261232405965,-3,-2,0,0,-1,1,-2,9
1470261232405965,-3,0,-1,6,-1,-6,-5,-4
1470261232418979,0,-3,-2,-5,-1,-5,-2,3
1470261232418979,-6,-2,-2,-5,-1,4,0,-1
1470261232420479,-2,-3,-2,0,-5,0,0,-1
1470261232420479,2,-1,-2,-2,-1,-7,-2,-3
1470261232432989,3,-1,-1,-1,1,4,-1,4
1470261232432989,3,-1,-4,-4,0,-1,-2,6
1470261232441497,-11,-1,0,10,0,-2,-1,-6
1470261232441497,4,-1,-1,-3,-1,-1,2,4
1470261232457053,-3,-1,-2,-3,-2,1,-1,-2
1470261232457053,-1,1,1,4,-1,-2,0,4
1470261232458013,4,-2,-3,-5,-1,-1,1,10
1470261232458013,-7,-1,-2,3,-2,5,-3,-9
1470261232479074,2,0,1,-8,-2,-5,0,2
1470261232479074,-6,0,-2,-1,-3,-3,-1,-1
1470261232480533,28,0,-2,-4,-2,-3,-1,5
1470261232480533,-23,-2,1,9,1,-4,-1,0
1470261232493102,0,-4,-3,-2,-1,0,-3,-5
1470261232493102,-6,-2,-2,-6,-1,1,1,0
1470261232502054,2,0,-1,-2,0,-2,-2,-4
1470261232502054,9,2,0,-7,1,0,1,1
1470261232517067,-4,-1,-2,2,-2,-1,-2,-2
1470261232517067,-2,-4,-2,-2,-4,-4,-3,1
1470261232518568,-9,-1,0,0,0,-2,-3,-16
1470261232518568,6,-1,-2,-5,1,4,0,11
1470261232539144,-3,-1,0,1,0,-3,-1,-7
1470261232539144,9,0,-1,0,-2,0,1,1
1470261232541144,-18,-2,-2,-1,-2,-4,-2,-15
1470261232541144,-2,-3,-2,-2,-3,-2,4,18
1470261232552600,2,-1,-2,1,-1,5,-2,2
1470261232552600,-4,-3,-1,0,0,-3,-2,-4
1470261232561605,-2,-1,-1,-1,-2,-1,-2,2
1470261232561605,8,1,0,-3,-3,-6,-2,1
1470261232576651,-8,0,2,11,-1,-4,0,-13
1470261232576651,1,-2,-1,-3,0,0,2,13
1470261232578620,-3,0,-2,-1,2,6,-1,-1
1470261232578620,0,-3,-3,-9,-1,0,-3,-9
1470261232599165,2,1,-3,3,0,-2,-2,2
1470261232599165,0,-2,-2,-7,-3,1,-1,-3
1470261232601144,0,0,1,1,0,-1,-1,-3
1470261232601144,-2,-3,-1,-6,-3,-1,-1,-2
1470261232621675,-3,-1,-3,-3,-1,-1,-1,-5
1470261232621675,8,-1,1,3,1,-4,0,-2
1470261232623161,-14,-1,-1,-5,-1,-1,-2,3
1470261232623161,2,0,-1,3,0,8,1,0
1470261232636172,-3,-1,0,-4,-1,-3,-1,-11
1470261232636172,8,-1,-2,0,-1,-2,0,28
1470261232636672,-3,-3,-1,-2,-1,0,1,-3
1470261232636672,-6,-1,1,4,0,-5,-3,-5
1470261232658717,-1,-2,-1,-4,-2,0,-1,4
1470261232658717,-6,0,0,-8,-2,1,0,-6
1470261232659193,8,-1,0,0,-1,-7,1,9
1470261232659193,-2,1,1,4,-1,-2,-1,-3
1470261232681746,1,0,-1,-6,-2,-3,-3,-1
1470261232681746,-7,-1,1,8,0,-1,-2,-4
1470261232682215,1,-2,-3,-5,0,1,-1,0
1470261232682215,-1,0,-1,-2,-2,-7,-2,-8
1470261232696231,6,-1,0,-2,-2,-1,0,0
1470261232696231,-7,0,-2,-1,-1,4,-3,-11
1470261232696726,0,-1,-2,4,1,9,0,-3
1470261232696726,-1,-1,0,-4,-2,-4,-1,2
1470261232718746,10,-1,-4,-7,-3,-4,1,2
1470261232718746,-15,-1,1,0,-1,-1,1,-6
1470261232719251,4,-3,-1,-2,-2,-2,-5,-5
1470261232719251,-17,-2,-4,-9,2,-1,-3,-20
1470261232741278,3,-2,0,1,-2,-1,0,14
1470261232741278,2,2,2,11,0,3,0,-7
1470261232741767,-2,1,-1,-3,-2,-3,-2,-3
1470261232741767,5,-2,-3,-3,-3,1,-2,-1
1470261232756297,-1,0,-1,-5,0,0,-2,0
1470261232756297,-6,-1,-3,-5,2,-1,-2,-5
1470261232756780,-2,-1,-2,0,-1,-3,-3,-1
1470261232756780,6,1,3,3,-2,-5,0,4
1470261232778300,-2,-2,-2,-3,-1,7,-1,1
1470261232778300,-1,-2,-1,0,-1,0,0,0
1470261232779301,-4,-2,1,-1,-3,-8,0,-16
1470261232779301,11,1,-4,-3,-2,1,0,-4
1470261232800821,-17,-2,1,3,0,0,-2,0
1470261232800821,2,-2,-2,-3,-2,0,-4,-1
1470261232801824,-1,-2,-2,-2,-2,0,-3,-2
1470261232801824,-1,-3,-2,1,-3,-4,-1,1
1470261232816426,-1,-1,-1,-8,0,-1,1,-3
1470261232816426,3,0,1,6,-1,-4,-1,5
1470261232816842,-2,-1,-2,-2,0,0,-1,-3
1470261232816842,0,-2,-2,-5,-2,2,1,4
1470261232838859,-2,1,0,0,0,-4,-1,0
1470261232838859,-1,-1,-2,-6,-2,4,0,-1
1470261232839383,6,-1,-3,3,1,-4,0,5
1470261232839383,-19,-2,-3,-2,1,-4,-2,-8
1470261232860905,-3,0,1,0,-2,-1,0,-14
1470261232860905,-3,-3,-4,-3,-1,-6,-2,2
1470261232868381,4,0,2,-2,-2,3,1,4
1470261232868381,15,0,0,6,-1,3,-2,1
1470261232876388,-20,-1,1,-2,-1,-3,-2,1
1470261232876388,-2,-2,-1,-1,-1,-3,-4,-6
1470261232876888,-5,-1,-4,-5,-1,1,1,-1
1470261232876888,-2,-4,-1,-1,0,0,1,5
1470261232898452,0,-1,-3,3,0,0,-3,-2
1470261232898452,2,0,0,-3,-1,1,2,13
1470261232899408,-6,-1,2,0,1,0,-2,-4
1470261232899408,2,0,1,-1,0,-7,-1,-1
1470261232920972,8,-1,0,1,-2,4,-1,7
1470261232920972,-6,-2,-1,-1,-1,0,-2,-7
1470261232921928,0,-2,-1,-5,0,-3,3,4
1470261232921928,-3,0,0,7,-2,0,-2,-4
1470261232935944,4,-1,-4,-5,-1,-4,-1,-4
1470261232935944,-3,-2,-3,-9,-4,-1,-3,-5
1470261232936942,2,2,-2,7,-3,-2,-1,5
1470261232936942,0,-1,-2,-4,1,1,1,1
1470261232958486,-3,-2,0,0,0,2,-1,-2
1470261232958486,-2,-1,-2,-2,-1,-7,-1,1
1470261232958997,-1,-2,-1,-2,-2,0,-1,2
1470261232958997,-1,0,-1,-2,-1,2,2,22
1470261232989055,3,-1,-1,0,0,-2,0,-2
1470261232989055,-3,0,0,-1,-1,0,1,-3
1470261232989991,-3,-2,-1,-3,-3,-8,-3,-10
1470261232989991,2,-2,0,-1,2,3,-3,-2
1470261232996022,-2,-2,-1,0,1,2,0,3
1470261232996022,2,0,1,-3,0,-3,0,-6
1470261232996495,-4,0,2,5,-2,0,-1,-1
1470261232996495,-1,-2,-2,-5,-1,-3,-1,-3
1470261233018523,1,-1,0,4,-2,-3,-1,-1
1470261233018523,-2,-3,1,5,-1,0,-4,-11
1470261233019016,0,-1,-1,4,-1,1,2,14
1470261233019016,0,2,-1,-10,-3,1,0,-8
1470261233041054,-1,-2,-1,-3,-1,-1,0,5
1470261233041054,-1,-1,-1,-1,0,-4,0,-3
1470261233041536,-1,-2,-1,3,-1,1,-2,-3
1470261233041536,-2,-1,0,3,-1,8,-1,1
1470261233056050,5,1,-1,-3,-2,-8,-2,2
1470261233056050,-4,-2,-3,0,-1,-3,0,-1
1470261233056551,1,3,1,-4,-1,3,0,3
1470261233056551,-6,-3,-1,-1,-1,-1,-2,-4
1470261233078569,2,1,0,-4,-3,-5,-2,-10
1470261233078569,6,-1,-1,-5,-1,0,1,10
1470261233079070,-4,-2,0,6,-1,-1,1,13
1470261233079070,5,-2,-4,-3,-3,-3,-3,-11
1470261233101093,-12,-1,1,4,1,-1,-1,-3
1470261233101093,3,-3,-3,-4,-4,0,-1,4
1470261233102091,-2,-2,-2,-6,1,0,0,-5
1470261233102091,3,0,2,13,1,-2,1,4
1470261233115104,-3,-2,-3,-15,-3,-1,-2,-10
1470261233115104,-6,0,1,0,-2,-2,0,7
1470261233123612,-1,-1,-1,-4,-1,-1,-4,-10
1470261233123612,-1,-1,0,1,-1,-2,0,-2
1470261233138623,-3,-4,-2,3,-3,-7,-1,-3
1470261233138623,0,-1,-2,-2,1,3,-2,-5
1470261233139125,2,-1,-2,-2,0,15,0,-5
1470261233139125,-1,0,-1,0,-1,-8,0,12
1470261233161150,2,1,-2,-7,0,0,0,-8
1470261233161150,0,0,0,4,-1,-2,-2,1
1470261233161645,11,-1,-1,3,-4,-6,0,4
1470261233161645,-21,-2,-4,-5,-2,1,0,-13
1470261233175186,15,-1,-1,0,-1,3,1,8
1470261233175186,-17,-2,-3,-3,-1,-1,-3,-5
1470261233183664,5,-1,-1,-11,0,-3,0,-11
1470261233183664,2,0,0,5,-2,0,0,2
1470261233198677,-1,-1,1,4,-1,-3,-2,1
1470261233198677,5,0,-1,0,0,-1,-1,-2
1470261233199177,-5,-3,-4,-6,-2,-1,0,3
1470261233199177,9,-1,-1,5,1,-6,-1,-2
1470261233221197,-14,-4,0,0,-1,2,-1,3
1470261233221197,5,0,-1,0,0,5,-1,-7
1470261233221698,-10,-1,-1,-2,0,-6,0,-4
1470261233221698,1,-1,-3,-9,-1,3,-3,3
1470261233235221,9,-1,0,11,0,1,-1,-1
1470261233235221,-1,-1,0,3,-2,-3,-2,-2
1470261233243220,-7,1,0,-10,-2,-3,-3,-15
1470261233243220,4,-3,-1,-3,-1,-4,0,-2
1470261233258731,0,0,-1,-1,-1,1,0,-4
1470261233258731,2,-2,-1,0,-1,0,0,3
1470261233259232,-6,-2,-1,7,-2,-1,-1,-2
1470261233259232,1,-1,0,-2,-1,0,0,2
1470261233281251,-8,-1,0,-4,0,0,-1,-3
1470261233281251,1,-2,-2,-2,-1,-2,-1,-3
1470261233281752,10,-2,-2,-1,-2,-3,-3,-5
1470261233281752,-18,-2,-1,1,-1,-1,-1,-2
1470261233295263,-7,-3,-1,-1,-1,0,-1,9
1470261233295263,2,1,-1,-4,0,6,1,0
1470261233303773,3,1,-1,-7,0,-3,-1,0
1470261233303773,-2,0,0,3,-1,-4,-2,-8
1470261233318787,11,1,-2,0,-1,-4,-1,1
1470261233318787,-11,-3,0,-2,-3,-5,-1,-4
1470261233319287,-8,-1,-3,-5,-3,2,-1,-3
1470261233319287,6,-2,-1,0,-1,0,0,-4
1470261233341367,-14,-2,-2,0,-1,-3,0,9
1470261233341367,14,-1,0,-2,-1,4,-1,2
1470261233341805,-8,-1,1,5,0,0,-2,-4
1470261233341805,1,-1,0,-3,-1,-5,-2,0
1470261233355318,3,-2,-3,-2,-4,-2,0,-3
1470261233355318,-6,-1,-2,-3,-1,-1,-1,1
1470261233363826,-2,-2,1,4,0,-3,0,4
1470261233363826,1,-1,0,-2,-1,9,2,3
1470261233378356,3,1,-1,-4,0,-2,-1,-5
1470261233378356,-9,-3,-3,0,-1,-6,-3,-3
1470261233379339,-1,-4,-4,0,-1,-3,-3,0
1470261233379339,9,1,1,-10,-1,-4,-2,-2
1470261233401363,-8,-2,1,7,-3,2,-3,-21
1470261233401363,-10,0,-1,-1,-1,-1,2,-4
1470261233402361,3,-1,-1,0,-2,4,-1,4
1470261233402361,0,-1,-2,-6,-1,0,-1,-1
1470261233415372,-2,-2,-1,-4,0,-4,0,0
1470261233415372,3,0,0,1,-1,3,0,0
1470261233430885,3,0,0,0,2,-3,-1,0
1470261233430885,-4,-2,-4,0,-2,0,-1,-1
1470261233438395,3,0,1,-1,0,-3,-2,2
1470261233438395,-3,-1,-1,-3,-2,-7,0,3
1470261233439393,-4,-2,0,0,-2,5,3,4
1470261233439393,-2,-2,-2,0,-1,2,-3,4
1470261233460931,-2,0,-1,-8,-1,-4,-1,-3
1470261233460931,5,-1,-1,1,-1,-6,-2,1
1470261233461913,0,0,0,7,-1,-3,-1,0
1470261233461913,-5,1,0,-1,-1,-3,-1,-5
1470261233475425,3,-3,-2,-4,0,5,2,6
1470261233475425,3,0,-1,-1,-3,0,-4,-15
1470261233483434,-6,-2,-5,-5,-3,-4,-3,-2
1470261233483434,-7,-4,-3,0,-2,-1,-1,-6
1470261233498464,8,1,-1,6,0,-1,0,3
1470261233498464,-11,-1,-1,-7,-1,-4,-2,-4
1470261233499447,11,0,-1,1,0,-2,1,3
1470261233499447,-17,-2,-3,-7,-2,-4,1,-5
1470261233520982,1,-3,-1,4,-1,3,-2,-2
1470261233520982,4,0,2,13,1,9,1,2
1470261233521467,-1,2,-1,-3,-2,-6,-3,0
1470261233521467,6,1,-2,0,1,-1,-2,-3
1470261233544005,-3,-1,-1,-7,0,-5,2,-1
1470261233544005,2,-3,-3,-5,-2,-3,-1,4
1470261233544990,-6,-1,2,5,0,1,-1,-2
1470261233544990,0,-2,1,1,-2,2,-2,-3
1470261233558500,-1,-2,1,0,-2,0,-2,4
1470261233558500,1,1,-2,-3,0,0,-1,-3
1470261233559000,-1,-2,0,-2,-1,-1,0,-5
1470261233559000,6,2,1,3,-1,-3,-5,-15
1470261233581026,-6,-2,-2,-8,-2,3,-2,-1
1470261233581026,1,-4,-1,2,-3,-2,0,2
1470261233581521,-5,-2,0,5,-3,-1,-2,-1
1470261233581521,2,0,-2,1,-1,-3,1,1
1470261233604072,2,2,2,6,-1,2,0,1
1470261233604072,2,-1,-2,-3,0,5,-2,-1
1470261233605041,-3,-2,-2,-6,-3,-7,-3,-1
1470261233605041,-2,-2,-2,-3,-3,-1,-1,6
1470261233626621,-1,-1,0,10,0,0,1,-3
1470261233626621,-3,2,0,-3,0,-3,0,4
1470261233627562,1,0,-1,-4,-1,3,0,1
1470261233627562,5,-3,-3,-3,0,-2,-1,8
1470261233641074,-7,-2,-2,4,2,-1,-1,-3
1470261233641074,-1,-2,2,-11,-1,-1,0,0
1470261233641603,0,-1,-4,-5,-1,0,0,1
1470261233641603,-1,1,1,10,2,-1,2,3
1470261233664125,1,1,1,8,-4,-1,-4,-1
1470261233664125,0,-1,-2,0,2,-5,-6,-3
1470261233665096,-3,-1,-1,-3,-2,1,-1,-2
1470261233665096,0,-1,-2,-9,-2,7,2,2
1470261233678608,0,-1,-1,-6,0,-1,0,-1
1470261233678608,-2,0,-1,-3,-1,-5,3,-1
1470261233679109,0,0,0,11,1,-2,-2,-1
1470261233679109,-1,1,-2,5,0,-2,-1,-2
1470261233701139,-1,-5,-7,-10,-1,1,-1,-1
1470261233701139,-2,-6,-7,-1,1,-2,0,-1
1470261233702131,-2,-2,17,12,0,-3,-2,-2
1470261233702131,-1,6,1,6,0,0,-1,2
1470261233724191,-4,-5,-8,-35,-8,0,1,-1
1470261233724191,1,2,1,-14,-4,-1,0,1
1470261233725149,-4,-16,-23,-11,2,2,-1,-3
1470261233725149,-1,8,8,22,-2,-5,-1,-1
1470261233738662,-2,-7,-16,10,3,-5,-2,-3
1470261233738662,-1,-1,18,36,7,0,-1,-3
1470261233739162,2,6,-2,-17,-3,-2,-1,2
1470261233739162,-2,1,28,-5,-1,6,-2,1
1470261233761186,0,-6,-40,-7,-3,-4,-2,-1
1470261233761186,1,2,-13,-12,-4,-1,1,0
1470261233761682,-3,-6,-3,2,5,-4,0,1
1470261233761682,-4,-17,-22,2,5,-2,-1,0
1470261233784208,-2,8,31,-23,-10,0,-1,-1
1470261233784208,-2,-4,0,17,5,-1,-3,0
1470261233785205,3,11,-7,-39,-17,3,1,0
1470261233785205,-2,-5,-2,-9,-2,-2,-2,-2
1470261233798716,-2,-2,-5,16,9,1,-1,-1
1470261233798716,-3,-12,0,-11,-3,-2,-2,-1
1470261233799216,1,8,9,16,0,0,0,-1
1470261233799216,0,1,-10,1,-3,-2,0,1
1470261233821237,-1,1,-3,1,0,-2,-2,-4
1470261233821237,0,-1,15,-17,-5,-2,-2,-1
1470261233821738,2,-4,-23,7,2,0,0,-1
1470261233821738,-3,1,3,3,-1,-6,-1,-1
1470261233844271,1,3,14,11,3,6,-1,1
1470261233844271,0,2,-17,2,0,6,1,0
1470261233844757,-1,-3,18,-6,2,-3,-2,-3
1470261233844757,2,11,8,9,-1,-3,0,1
1470261233858770,-3,-10,-20,-17,-5,-12,1,-2
1470261233858770,-3,1,16,-8,-6,9,1,0
1470261233859270,-3,3,-4,-1,-5,0,0,0
1470261233859270,-5,-11,-7,2,3,-1,-2,-3
1470261233880790,1,7,-1,10,4,-1,-4,0
1470261233880790,0,-2,-6,-2,-3,-3,-1,0
1470261233881791,2,6,21,-5,2,2,0,-1
1470261233881791,-5,-11,-23,-31,-3,1,1,-2
1470261233904316,-3,-9,7,6,0,1,0,0
1470261233904316,1,1,12,45,4,-8,-3,-2
1470261233904811,1,-1,-39,-32,4,4,0,2
1470261233904811,-2,-6,23,-3,3,-3,-1,-3
1470261233918826,2,6,-11,-20,-7,0,2,0
1470261233918826,-1,0,4,-2,0,0,-1,-2
1470261233919324,1,8,21,9,-1,-6,-1,2
1470261233919324,0,6,7,53,5,4,-1,0
1470261233941404,-3,-7,-15,-3,-1,4,-1,-1
1470261233941404,-2,-1,1,-2,0,-4,-1,-3
1470261233948351,-7,-16,-33,-36,-12,-10,-4,-4
1470261233948351,-3,-10,9,-18,-9,-1,-3,0
1470261233964365,2,3,-3,-4,1,3,-1,1
1470261233964365,1,5,-10,11,1,-1,0,1
1470261233964867,0,1,2,8,-2,-3,-1,-1
1470261233964867,-1,-4,-7,-18,-7,-3,-1,-4
1470261233978889,-1,-3,-2,5,0,0,1,-2
1470261233978889,0,5,41,-9,2,-1,-2,1
1470261233979378,-3,-18,-57,10,3,0,-2,-1
1470261233979378,3,15,-1,-10,-6,0,0,1
1470261234000900,-2,0,23,-6,-6,-3,-2,0
1470261234000900,-5,-26,-46,21,9,0,-1,-4
1470261234001899,1,7,36,-3,2,-1,-1,0
1470261234001899,2,9,-4,-9,-2,2,0,0
1470261234024418,0,2,16,3,-4,0,-3,-2
1470261234024418,-3,5,-11,-17,-2,-3,4,-1
1470261234024919,-1,-2,13,21,-4,-1,-1,0
1470261234024919,-2,-15,-13,4,2,-3,-2,-1
1470261234038933,0,3,11,-16,-3,-5,0,-3
1470261234038933,2,8,-11,-22,-13,1,-1,2
1470261234039431,-5,-5,13,30,4,-3,-1,-2
1470261234039431,-1,-3,-2,11,-2,-4,-1,0
1470261234061014,0,-1,3,20,3,1,-3,0
1470261234061014,-1,3,-8,-16,3,0,0,-1
1470261234061452,-5,-9,15,-31,-13,-1,-5,-4
1470261234061452,0,-4,-19,1,2,-1,-2,-1
1470261234083976,-1,-1,0,-9,-9,2,0,-1
1470261234083976,1,1,7,3,-2,-1,1,1
1470261234085478,2,4,-1,-7,4,2,-2,0
1470261234085478,1,7,9,-12,-2,4,2,0
1470261234098584,-2,-6,-5,-1,2,-5,-1,-2
1470261234098584,0,-2,-3,-13,-5,0,-2,-4
1470261234098986,-2,0,1,22,4,-2,0,-1
1470261234098986,-2,4,1,-6,-7,2,-4,-2
1470261234121006,-1,0,16,2,8,-1,1,1
1470261234121006,-5,-7,-29,-13,-7,-3,0,-2
1470261234122006,-5,-6,-6,11,-5,2,0,-3
1470261234122006,-2,-5,0,-29,-4,-6,-1,-2
1470261234151535,2,7,13,31,1,0,-2,0
1470261234151535,-3,-4,-18,10,10,0,-3,-3
1470261234152536,2,3,-9,-17,-9,0,1,2
1470261234152536,-1,0,11,-1,-2,-3,0,-1
1470261234158039,-2,-2,-16,-10,1,0,0,-2
1470261234158039,0,0,12,0,-2,-2,-2,-2
1470261234166090,1,3,-15,40,12,2,-3,1
1470261234166090,-2,-1,0,1,2,-2,-2,-1
1470261234189096,-1,-1,-2,-16,-12,-4,0,-2
1470261234189096,0,2,15,3,-8,-1,-1,-2
1470261234190067,0,1,-12,-30,2,1,0,0
1470261234190067,-1,-3,-1,34,7,-3,-2,-2
1470261234204094,-2,-1,-19,-1,4,-2,0,0
1470261234204094,1,9,14,-8,-2,-2,-2,1
1470261234205081,-1,-3,6,11,-4,11,4,-2
1470261234205081,-1,-6,-4,-9,-1,-4,-1,-2
1470261234217623,-2,-11,15,-3,-3,-4,-1,-2
1470261234217623,-1,-5,-35,16,11,1,0,-2
1470261234226102,-1,6,18,-14,-9,-7,-4,-2
1470261234226102,0,6,4,-51,-2,1,1,-1
1470261234241115,-7,-13,-38,30,6,-1,-4,-5
1470261234241115,1,4,18,8,-7,6,2,2
1470261234241614,-1,-5,0,-13,-11,-1,-1,-1
1470261234241614,1,5,17,1,10,-3,-1,2
1470261234264185,1,5,17,-26,0,-3,-3,-1
1470261234264185,-5,-4,-2,-1,-1,0,-2,-1
1470261234265137,-1,-6,-24,1,1,-2,-1,0
1470261234265137,-3,-3,-5,7,-6,2,0,0
1470261234277672,0,-2,-10,-8,0,-4,-2,0
1470261234277672,-1,-5,14,-1,0,6,-1,0
1470261234286155,0,-2,8,25,7,-1,1,-1
1470261234286155,-1,-6,-5,-16,-1,-1,-3,1
1470261234301167,0,5,16,25,-4,-3,-1,-2
1470261234301167,-2,-5,-5,-32,-15,-7,-3,0
1470261234302169,0,-3,-26,15,1,-6,-1,-2
1470261234302169,1,9,16,-10,0,2,-1,-1
1470261234324246,2,3,-27,9,-4,11,2,0
1470261234324246,-2,-1,6,10,6,-3,0,-1
1470261234325188,-4,-3,7,-41,-3,0,-1,-1
1470261234325188,2,5,22,54,-1,-1,2,2
1470261234346738,-4,-5,-10,-20,-7,-3,-2,-3
1470261234346738,0,-5,-33,-8,8,1,-2,-1
1470261234347208,1,0,16,14,4,-1,0,1
1470261234347208,-1,-9,-12,-16,-12,-4,-3,-2
1470261234361225,0,1,16,5,5,-1,-2,1
1470261234361225,-1,0,0,5,-7,-4,1,-2
1470261234361723,0,9,8,-12,-1,0,0,0
1470261234361723,-3,-8,-14,3,-3,-1,-5,-4
1470261234384244,0,3,5,2,1,2,0,3
1470261234384244,-3,-1,3,2,-4,-6,-3,-2
1470261234385243,1,6,16,0,1,-1,-2,-2
1470261234385243,-3,3,-21,-11,-3,1,2,-1
1470261234397770,2,-2,5,7,-3,1,0,-1
1470261234397770,0,4,-1,-12,4,-2,2,0
1470261234406261,-4,-7,1,5,-5,-1,-2,-2
1470261234406261,2,3,7,27,4,1,0,0
1470261234421274,-4,-4,-13,-18,-2,-7,-3,-3
1470261234421274,-1,-7,-1,-14,-5,11,2,-2
1470261234421776,-1,-4,1,18,5,-3,-2,-2
1470261234421776,-2,-5,-8,-15,0,-2,-1,-1
1470261234444295,-1,2,11,-2,-4,-4,-3,1
1470261234444295,2,2,3,7,-3,-5,-4,-1
1470261234444796,-1,4,2,-9,1,3,1,0
1470261234444796,-3,-12,-19,4,-1,-1,-2,-3
1470261234457818,-1,-2,0,-1,2,-2,2,-1
1470261234457818,-3,-1,-2,-1,-2,3,-2,-1
1470261234466404,1,1,13,-15,-2,0,-1,0
1470261234466404,0,-1,-21,2,3,-4,1,-2
1470261234481370,0,5,-1,-3,-5,-2,-2,-1
1470261234481370,-2,-3,14,4,-2,-2,2,0
1470261234481831,-1,-3,8,0,-3,-1,-2,-4
1470261234481831,-2,2,-4,-3,4,0,-3,-1
1470261234504349,-1,-5,-11,-5,0,-3,-2,-2
1470261234504349,2,5,19,6,-2,-5,-4,1
1470261234504850,-1,-6,-36,-10,1,6,2,0
1470261234504850,0,4,7,12,-1,-1,0,1
1470261234526878,-4,-7,-3,10,2,1,0,-2
1470261234526878,0,-2,-9,-16,-6,-3,-2,0
1470261234527370,-2,-1,5,11,1,-3,-2,-2
1470261234527370,0,0,0,10,3,1,-2,-1
1470261234540884,-1,1,-3,-11,-3,0,0,-2
1470261234540884,-1,-2,2,0,-4,-6,-1,-1
1470261234541883,-1,-1,-1,2,-1,1,0,-1
1470261234541883,-1,-2,-2,-22,-4,-3,0,0
1470261234570911,-1,-1,1,21,3,10,1,1
1470261234570911,-2,-1,2,1,2,-6,-2,0
1470261234578936,-1,0,7,0,-1,-2,-2,-1
1470261234578936,-3,-3,-13,-3,-5,-2,-2,-1
1470261234586970,0,-4,0,-2,2,-7,-4,-2
1470261234586970,0,-1,-7,-4,-6,2,2,-3
1470261234587426,1,0,-4,-8,-4,-1,0,0
1470261234587426,-1,-2,6,2,0,-1,0,-1
1470261234601439,-2,2,0,-1,0,4,1,-1
1470261234601439,-1,-1,6,10,2,-3,-3,-1
1470261234601939,-1,-2,-9,3,1,-4,-2,-1
1470261234601939,-2,-2,3,-5,-4,-2,0,-2
1470261234624471,-1,-3,3,-1,2,-2,-2,-1
1470261234624471,-3,-3,-2,5,0,-1,-1,-2
1470261234624959,0,0,-1,1,-1,0,1,0
1470261234624959,0,0,0,-4,-3,3,0,0
1470261234646986,0,1,-6,-3,0,-2,1,-1
1470261234646986,0,-2,-3,-3,-1,1,0,0
1470261234647478,-2,-1,-1,1,-1,-1,-4,-1
1470261234647478,-1,-2,-1,-1,-3,-4,-2,-3
1470261234661023,0,0,2,-13,-3,3,2,-1
1470261234661023,0,-2,-4,0,-1,-4,-1,-3
1470261234661505,-2,-2,-2,1,-2,8,-1,0
1470261234661505,-1,0,2,-3,1,-5,0,0
1470261234684014,-3,-2,0,-5,-5,-4,-3,0
1470261234684014,-2,-1,-6,1,3,-2,-2,0
1470261234685014,0,0,2,2,-1,-3,0,-2
1470261234685014,-2,-3,-3,-4,-4,4,0,-1
1470261234706543,1,-1,-2,2,1,-1,0,-1
1470261234706543,0,-3,-5,-1,2,2,-1,-1
1470261234707532,-2,-2,1,1,-2,-3,-1,-3
1470261234707532,1,0,-2,-1,-2,-1,-2,-1
1470261234721045,-2,-1,-1,2,-1,-3,-3,-3
1470261234721045,-1,-1,0,-3,-3,-1,-1,-1
1470261234721544,0,-2,-1,-4,0,-2,-1,0
1470261234721544,-2,-2,-1,0,0,0,0,-1
1470261234744097,1,1,0,-1,-3,-1,4,1
1470261234744097,1,1,-1,0,4,0,-5,-1
1470261234745066,1,-2,-2,-1,-6,-5,0,-1
1470261234745066,-2,-3,-3,-1,-4,0,5,1
1470261234766609,-3,-2,1,-3,2,-1,-9,-4
1470261234766609,1,4,-1,5,1,0,13,0
1470261234767587,1,25,2,-3,-7,-6,-8,-4
1470261234767587,-3,-33,-5,-3,-4,1,2,1
1470261234789107,-2,-9,-3,5,4,0,9,-2
1470261234789107,-4,-3,-3,-6,3,1,-4,1
1470261234790106,-2,0,-1,-3,0,-4,-3,-2
1470261234790106,6,17,5,4,8,2,-6,0
1470261234804154,-5,-14,-3,-5,-8,-1,-5,-1
1470261234804154,-9,-5,-1,5,3,0,0,1
1470261234805119,3,-3,-2,-2,-4,-1,-4,-3
1470261234805119,5,7,-1,-4,-3,-1,-7,0
1470261234826642,0,1,1,9,-2,0,-2,1
1470261234826642,-4,1,-1,1,6,0,-3,-1
1470261234827639,-6,-8,-1,-5,-6,-1,2,1
1470261234827639,2,1,-4,0,0,-1,-3,-1
1470261234841151,3,5,1,-9,4,-1,0,0
1470261234841151,4,0,0,-9,-21,-5,-4,-2
1470261234841652,-3,-5,-3,6,8,1,1,-1
1470261234841652,-3,-3,-1,-13,12,2,2,-2
1470261234864172,0,-2,0,30,3,-5,-3,1
1470261234864172,-1,2,-4,-29,-4,0,2,-1
1470261234865173,-2,-7,8,0,8,-4,-2,0
1470261234865173,-2,0,-18,-9,4,1,-1,-1
1470261234886709,-2,4,25,46,-11,0,2,-3
1470261234886709,1,-10,-21,-39,-2,-1,-4,-2
1470261234887695,-3,-4,2,20,-12,-5,0,-2
1470261234887695,-2,2,0,-7,-8,-2,-1,0
1470261234901206,-2,5,-5,-16,-1,-3,-5,-2
1470261234901206,3,1,3,-5,-11,-4,2,-1
1470261234901709,-3,-8,-4,16,7,0,-2,-1
1470261234901709,-7,-2,1,-2,-12,-4,0,-2
1470261234923726,2,-1,-9,-28,-5,0,-2,-1
1470261234923726,-1,-1,4,11,1,-5,-2,-2
1470261234930806,1,4,-7,-26,-4,4,4,2
1470261234930806,-2,0,8,36,4,2,-2,-2
1470261234946753,3,33,3,-24,4,1,3,1
1470261234946753,-4,-39,-7,13,-2,-3,-3,-2
1470261234947247,1,8,1,-2,1,-3,-1,-1
1470261234947247,-2,-1,0,-18,-8,-5,0,-3
1470261234961260,3,8,6,30,6,4,-1,2
1470261234961260,-2,-2,-8,-57,-13,-4,-1,-1
1470261234961759,-3,-8,-11,30,2,3,-1,-2
1470261234961759,-1,1,8,-5,0,-1,-2,-1
1470261234984281,-3,-5,-5,-2,-2,-5,-4,-3
1470261234984281,1,12,8,9,-3,-1,-2,-1
1470261234985283,-4,-10,-11,-14,-6,-2,-1,-2
1470261234985283,1,2,-5,-9,2,0,-2,-3
1470261235006823,-3,-12,-5,-20,-1,-4,1,-1
1470261235006823,-2,5,7,47,8,2,0,0
1470261235007801,0,-1,-4,-23,-14,-2,-1,-3
1470261235007801,-5,-5,2,10,6,-3,-1,-2
1470261235021414,4,-6,-5,-13,1,0,1,4
1470261235021414,4,10,0,24,9,3,-1,-3
1470261235021816,4,-7,6,15,-1,1,1,1
1470261235021816,-6,27,0,-12,-5,-4,0,-1
1470261235044334,-5,-39,-6,6,2,-2,-1,-2
1470261235044334,-5,9,-8,-17,-8,0,-3,-2
1470261235044839,6,6,6,-6,7,-2,-1,0
1470261235044839,-8,-3,2,27,1,-1,-3,-1
1470261235066891,-1,6,-4,-52,-18,-2,-1,-1
1470261235066891,0,0,-1,8,9,-1,0,1
1470261235067856,-6,-2,2,15,-3,0,0,-1
1470261235067856,3,-7,0,-6,-5,-3,-1,2
1470261235089412,-3,1,-4,13,7,2,-1,-2
1470261235089412,-1,-7,3,-16,-5,-1,0,-1
1470261235089878,0,1,-6,5,2,0,0,0
1470261235089878,1,-10,-4,-2,-7,-4,-1,-1
1470261235104465,-4,1,0,6,-1,-2,-1,-2
1470261235104465,1,2,-6,-8,1,0,-1,-1
1470261235104889,-4,-1,0,-3,3,-3,-2,-1
1470261235104889,1,-4,4,2,-3,-1,1,0
1470261235134426,-2,0,-1,20,7,7,0,-1
1470261235134426,0,-2,-3,1,-9,-1,-1,1
1470261235135918,-2,5,-1,-16,-5,-2,0,0
1470261235135918,2,-3,-5,-9,4,-4,0,0
1470261235140450,-2,-2,-1,18,0,-4,-4,-3
1470261235140450,-5,-2,2,8,2,2,1,-1
1470261235149467,-1,-2,-6,-10,0,2,-1,1
1470261235149467,2,-1,0,3,4,0,-1,-1
1470261235162976,-1,0,3,5,-9,-2,-2,1
1470261235162976,-2,1,1,0,0,0,-1,1
1470261235171949,-3,-2,0,-5,5,-3,-1,-1
1470261235171949,2,3,-5,-1,-2,1,-1,-1
1470261235186464,-1,1,-5,-12,3,-3,0,-1
1470261235186464,1,-6,-2,25,-5,-3,-1,-1
1470261235188466,0,-3,0,-38,-4,3,0,-2
1470261235188466,-2,-2,1,16,0,0,-2,-1
1470261235200475,0,-2,-2,-3,1,1,1,0
1470261235200475,0,3,-2,-3,-2,-3,-2,-2
1470261235209483,-1,1,-6,-19,0,-1,-1,0
1470261235209483,-2,-7,-8,5,-2,-1,0,0
1470261235223528,0,2,3,-17,-3,-5,-3,-3
1470261235223528,-1,-2,1,16,7,0,0,-2
1470261235230501,-2,0,8,14,0,-2,-2,1
1470261235230501,0,-1,-1,-11,-4,0,-1,-2
1470261235248069,-1,-3,-7,4,-2,-1,0,-2
1470261235248069,-3,-2,-1,-1,1,0,-2,-2
1470261235252023,0,0,0,8,0,1,0,-2
1470261235252023,-1,0,2,-11,-4,-2,0,-2
1470261235260528,-1,0,0,8,-1,-1,0,1
1470261235260528,1,3,2,-9,1,-1,-1,1
1470261235269536,1,0,4,15,2,-4,-2,-2
1470261235269536,-4,-3,-8,4,-3,-2,-3,-2
1470261235283082,1,-1,-8,-38,-4,3,-1,-1
1470261235283082,-1,-3,11,15,-2,0,-1,-1
1470261235293060,-2,-3,-3,2,-4,-3,-2,-2
1470261235293060,-1,-1,2,25,1,-1,2,-1
1470261235306596,-1,1,-8,-41,-3,-6,-1,-1
1470261235306596,-1,-2,-2,-1,-5,-1,-3,0
1470261235308071,-2,-2,1,16,0,1,-2,-1
1470261235308071,1,0,2,-3,6,2,0,1
1470261235320600,-2,-2,-3,9,1,0,-2,-1
1470261235320600,1,-1,-4,-18,-2,-2,0,-2
1470261235329090,0,-2,0,14,-2,-2,-2,0
1470261235329090,0,-2,0,-10,-1,0,-3,-1
1470261235344129,0,1,3,7,-5,0,1,-1
1470261235344129,-3,-1,-3,0,2,0,0,-2
1470261235346105,0,-1,-5,1,1,-2,-2,-2
1470261235346105,-4,-3,-5,-23,-7,-3,-3,-2
1470261235366717,-1,0,3,8,1,-2,-1,-1
1470261235366717,1,-1,-1,19,4,-1,-2,-1
1470261235368627,0,0,0,-9,-4,0,-1,0
1470261235368627,0,-1,-3,-17,0,0,1,1
1470261235389144,0,-2,2,3,-3,-3,-3,-4
1470261235389144,-2,-1,-4,3,-1,0,0,-1
1470261235390646,1,-3,-3,-14,-2,1,-2,1
1470261235390646,-1,0,-1,8,-2,1,-2,-3
1470261235406159,-2,-2,-2,7,-2,-2,-2,-1
1470261235406159,-1,0,1,-11,0,0,0,1
1470261235406159,-3,-2,-2,-7,-4,-2,0,-3
1470261235406159,1,-1,-4,-7,-2,-2,-1,-2
1470261235426678,2,-3,0,32,1,0,-2,0
1470261235426678,-4,-1,-6,-27,-4,0,-1,1
1470261235428179,-1,0,2,16,5,0,-1,-4
1470261235428179,-1,1,1,-27,-3,-1,0,-1
1470261235449197,-2,-3,0,8,2,-2,-1,-1
1470261235449197,-1,-1,1,-3,1,-3,-2,-1
1470261235451201,-1,-1,-8,-19,-3,0,0,1
1470261235451201,-2,-1,1,21,2,0,-1,1
1470261235464211,1,1,1,4,2,1,-1,-1
1470261235464211,0,-2,-2,-5,-5,-2,-1,-1
1470261235465713,0,0,-3,-7,0,-2,-2,-1
1470261235465713,2,-1,1,-1,-2,1,-1,-2
1470261235486733,-2,-2,-6,-13,-3,-1,0,0
1470261235486733,-2,-1,4,25,2,-2,-2,-2
1470261235488233,-1,-1,0,-18,-1,0,0,0
1470261235488233,-2,0,1,18,0,-2,-1,-1
1470261235509252,-3,-1,-3,-23,-4,0,1,-1
1470261235509252,0,0,-1,-2,-1,1,0,0
1470261235510753,-1,-3,2,9,-1,0,2,-1
1470261235510753,0,-2,-3,-5,-2,-1,-3,-2
1470261235524267,-1,-2,0,0,1,-2,-3,-3
1470261235524267,0,0,-3,-14,0,-1,0,-1
1470261235525767,-2,-1,0,3,-4,-2,-1,-2
1470261235525767,-2,0,-2,-2,0,-1,1,-1
1470261235546787,-1,-1,1,12,-1,-1,-2,-3
1470261235546787,-1,0,-3,-1,0,-2,0,-1
1470261235548287,-1,-3,-3,-1,0,-2,1,-1
1470261235548287,-1,-3,-3,13,-1,-3,0,-1
1470261235568808,0,0,1,-17,-3,-1,-1,0
1470261235568808,2,-1,-1,-4,-2,2,-1,-1
1470261235575313,-1,2,-2,-17,1,1,0,-1
1470261235575313,-1,0,5,31,1,-1,1,-1
1470261235583819,-1,1,1,-4,-1,-3,-1,-3
1470261235583819,0,-2,-1,6,0,-1,-1,-2
1470261235590326,-2,-2,2,0,-3,-1,-2,-2
1470261235590326,-3,-3,-5,-4,0,-1,-1,-1
1470261235606839,0,0,-3,-10,-2,0,-2,-1
1470261235606839,-2,-2,-4,-19,-8,-2,-2,0
1470261235608349,1,0,2,19,2,-3,-1,0
1470261235608349,-1,-3,-2,-13,-1,-1,-2,-1
1470261235629359,-3,-2,-2,9,1,-3,0,0
1470261235629359,0,-1,-2,-5,-1,-2,0,0
1470261235630862,-1,-3,-3,1,-1,-2,-3,0
1470261235630862,-1,0,1,-7,-3,-1,-2,1
1470261235659387,0,-1,0,-6,-2,0,0,-1
1470261235659387,-3,0,-1,5,0,-1,-2,-1
1470261235660891,1,-1,-1,-5,-4,-2,1,0
1470261235660891,-1,-3,-2,2,-2,-3,-1,-2
1470261235666893,-3,-4,-1,23,2,-2,-1,-2
1470261235666893,-4,2,3,-41,-2,-1,0,0
1470261235668400,-1,-1,2,16,-1,-2,-2,-1
1470261235668400,-3,-1,-3,-17,-4,0,-2,-2
1470261235689506,0,-2,-1,-2,-1,-2,-1,-1
1470261235689506,1,-1,-2,12,-1,-2,-1,-1
1470261235690943,-3,-2,0,9,0,0,-3,-1
1470261235690943,1,0,-5,-4,-4,-1,-1,-1
1470261235703428,1,0,1,-10,4,0,0,-1
1470261235703428,-1,-2,0,10,1,-2,-1,-2
1470261235710459,0,0,-5,-38,-7,0,1,1
1470261235710459,-1,-2,3,28,5,0,-2,0
1470261235741961,-1,-1,-3,-13,-4,-1,-1,-1
1470261235741961,2,-2,-2,14,0,-2,-2,-1
1470261235743489,-3,-2,0,10,1,-1,-2,-3
1470261235743489,-3,0,0,-5,1,-1,-1,-1
1470261235749000,0,0,-3,-14,-6,-1,0,-1
1470261235749000,-1,-1,0,3,-1,-1,-1,-2
1470261235750969,2,-1,-1,27,3,0,-1,-2
1470261235750969,-1,0,-3,-26,-3,0,0,0
1470261235763482,0,1,2,9,1,-2,-2,1
1470261235763482,0,-2,-3,12,1,0,-1,-2
1470261235770519,-4,-1,-1,-6,-1,-2,-1,-2
1470261235770519,-2,-1,0,-3,2,-2,-2,-1
1470261235787001,-2,-2,-3,-1,-5,-1,0,-1
1470261235787001,-2,-1,2,11,0,-2,-1,-2
1470261235788518,1,-1,0,0,3,1,0,-1
1470261235788518,0,-1,1,6,-1,0,0,2
1470261235809532,-2,-1,0,8,-1,-2,-3,-5
1470261235809532,-2,0,-2,-16,-2,-3,0,0
1470261235811035,-3,-2,0,-3,-1,-2,0,-1
1470261235811035,-1,-2,-4,1,0,-1,-4,-2
1470261235823562,1,-2,-4,-19,-6,-2,0,3
1470261235823562,-2,-1,3,17,-1,-1,-2,-2
1470261235830665,0,-1,0,-3,-2,-2,-2,-1
1470261235830665,-1,0,-3,1,-2,-1,-1,-1
1470261235846599,-5,-2,-3,-4,2,-1,-1,-2
1470261235846599,-1,-2,-5,-2,-2,-2,0,-1
1470261235848056,0,-1,-3,-4,-2,-1,-3,1
1470261235848056,-3,-1,2,6,0,-1,-2,-1
1470261235869108,1,0,1,16,-1,0,1,-1
1470261235869108,-6,-1,-2,-21,-3,1,-1,2
1470261235871079,0,0,-2,1,-3,-1,-3,-1
1470261235871079,-1,-2,-3,-7,-2,0,1,-1
1470261235883590,-1,0,2,-9,2,-1,-2,-1
1470261235883590,0,-1,-4,19,2,-1,-1,0
1470261235890594,-1,-1,-1,7,2,-1,1,-1
1470261235890594,0,-2,-1,-5,-4,-4,-1,-3
1470261235907108,0,-2,-3,-8,-2,-1,-1,-1
1470261235907108,0,-2,0,-3,1,0,-4,1
1470261235908110,-2,-1,-1,8,2,1,0,-4
1470261235908110,-1,-1,0,-17,-5,-1,1,0
1470261235936669,-1,0,-2,-3,-3,-3,0,-1
1470261235936669,0,0,-2,-8,-4,5,0,0
1470261235938137,0,-3,-3,-3,-2,-4,-3,1
1470261235938137,-1,-3,-1,0,1,-2,0,0
1470261235942641,-1,-2,-1,6,0,-4,-1,-2
1470261235942641,0,0,0,0,-1,-9,-5,-1
1470261235959156,-1,-2,-2,-8,-2,1,2,-1
1470261235959156,-1,-1,-1,0,-3,1,-5,-2
1470261235966662,-2,-1,-2,2,1,0,0,0
1470261235966662,1,0,1,11,2,10,5,-2
1470261235968667,-1,0,-3,-11,-3,-9,-3,-1
1470261235968667,-1,1,1,-6,-3,2,4,0
1470261235989196,-2,-2,-3,-5,-2,3,-4,0
1470261235989196,1,-1,-1,4,-2,-7,-2,-1
1470261235990684,-3,-2,-3,-4,0,-1,-4,-1
1470261235990684,0,-2,8,-3,-1,-5,-1,0
1470261236003195,-1,0,-4,-2,-3,-1,1,0
1470261236003195,-2,1,1,25,5,-1,-2,-1
1470261236011703,-2,0,0,-32,-1,2,6,0
1470261236011703,0,1,-4,-9,-4,-3,-5,-2
1470261236026772,-1,-3,2,26,8,0,0,-1
1470261236026772,-1,0,-9,-25,-9,-7,-1,-2
1470261236028243,0,0,3,14,2,7,-2,-1
1470261236028243,0,1,-3,13,2,-4,1,-1
1470261236049254,-2,-3,10,-12,-4,4,-1,-2
1470261236049254,-2,-2,-7,0,0,-4,-5,0
1470261236050743,-1,-1,2,2,-3,-5,-1,-3
1470261236050743,-2,-2,-2,-7,-3,8,3,-1
1470261236062774,-1,1,-6,-8,3,-1,-3,0
1470261236062774,0,-2,0,11,5,-4,-1,1
1470261236071756,-1,0,1,-7,-10,4,3,0
1470261236071756,-2,0,-5,20,11,-5,-3,-2
1470261236086804,-1,-3,-4,-7,-5,-5,-2,2
1470261236086804,-1,0,5,-4,3,3,-7,1
1470261236088272,-1,-1,-6,-3,-7,-9,-2,-5
1470261236088272,-2,0,-1,-1,1,4,-1,-1
1470261236109291,-2,0,3,-2,1,2,0,-2
1470261236109291,1,1,-8,-28,-11,-10,2,2
1470261236110792,-4,-9,-3,13,-1,-2,-6,-1
1470261236110792,-2,-5,-4,-4,-2,10,3,-2
1470261236122808,-2,2,-10,-2,2,-9,-5,-1
1470261236122808,-1,-2,-8,-3,-4,1,0,-4
1470261236132311,3,3,10,-1,2,-6,1,1
1470261236132311,0,0,1,-9,-3,2,-1,0
1470261236146824,-1,-3,-9,-2,0,-4,0,1
1470261236146824,-3,-5,-5,11,1,-1,-1,-4
1470261236148326,1,1,-3,4,1,10,4,3
1470261236148326,-1,-1,5,-21,-8,-12,-9,-5
1470261236169345,-2,2,6,19,1,3,-1,-2
1470261236169345,-1,-3,1,4,-1,8,6,0
1470261236170849,-5,-3,-13,19,4,15,5,-3
1470261236170849,0,-2,-6,9,-9,-19,0,0
1470261236182857,-1,-1,0,-21,6,0,-1,-1
1470261236182857,-3,-3,5,5,-4,-14,-11,-6
1470261236191865,-1,1,-2,-23,-5,-4,0,2
1470261236191865,0,0,1,24,-3,2,6,2
1470261236206879,0,-1,-11,-26,-12,-2,-4,-4
1470261236206879,-1,1,7,13,13,8,2,2
1470261236208379,-3,-2,3,14,-2,-3,-4,-3
1470261236208379,-1,-2,-2,13,3,-6,-5,-1
1470261236229400,0,-1,2,3,2,3,2,1
1470261236229400,0,-1,1,-22,-3,4,2,-2
1470261236230900,0,0,-2,11,0,-11,-6,-1
1470261236230900,-2,-2,-3,-4,0,-1,-1,-1
1470261236251919,-1,-2,1,9,-1,7,-5,-1
1470261236251919,-1,-1,0,-7,0,-5,-3,-1
1470261236253422,-2,0,-3,4,0,-9,4,-2
1470261236253422,1,3,3,-12,-1,10,-2,1
1470261236266931,-3,-3,-2,-16,-3,-5,-5,-1
1470261236266931,-2,0,0,12,-4,-1,1,-1
1470261236268435,-3,-1,0,-16,1,-1,-7,-2
1470261236268435,-2,-3,-1,10,0,-4,6,0
1470261236288952,-1,-2,3,19,10,2,-2,0
1470261236288952,-1,0,-3,-48,-12,-2,-4,-1
1470261236290954,0,0,-7,-36,-7,-7,-10,-1
1470261236290954,-2,0,0,20,12,6,7,-1
1470261236303465,-1,-2,1,10,-2,9,0,-1
1470261236303465,-1,-4,-2,5,3,-9,2,1
1470261236311973,1,2,8,21,10,2,-3,0
1470261236311973,-2,-3,-17,-98,-24,-5,-8,-1
1470261236326987,-1,1,11,60,4,-1,-3,-4
1470261236326987,1,1,0,-15,2,10,2,2
1470261236328490,-2,-4,1,-5,-9,-8,0,-2
1470261236328490,-2,-2,-2,-2,6,-1,-2,-1
1470261236349508,0,1,-1,-10,-6,-5,4,1
1470261236349508,-1,-3,-2,15,-4,1,-4,-2
1470261236351009,-1,-2,-5,-18,0,2,2,-2
1470261236351009,-1,-2,-1,13,0,0,-4,0
1470261236362518,-1,0,0,3,6,-1,0,-1
1470261236362518,-1,-1,1,25,1,-1,-3,-3
1470261236372027,-2,0,-5,-16,0,1,1,1
1470261236372027,1,3,-2,-33,-9,2,0,2
1470261236386540,-6,-1,-2,-10,-1,-1,-4,-3
1470261236386540,-7,-3,-4,20,1,1,9,-3
1470261236388541,3,-1,1,1,3,2,-1,0
1470261236388541,-2,-1,-1,14,3,-2,-1,-4
1470261236409060,3,0,-2,-3,-6,-5,0,1
1470261236409060,1,0,-1,-27,-3,-2,-2,-2
1470261236411062,-1,-2,-2,18,-1,3,-2,-1
1470261236411062,2,1,-1,12,4,-5,-4,-1
1470261236431580,0,-1,4,15,-4,-2,1,-1
1470261236431580,0,-2,-4,-20,0,0,-2,1
1470261236433583,-1,-1,-2,13,-2,0,0,-1
1470261236433583,-4,-4,-4,-8,-1,-2,-4,-3
1470261236454100,-1,-3,-5,-10,-10,-4,1,-3
1470261236454100,-1,-1,3,29,-1,-4,-3,2
1470261236455602,-2,-2,-6,-44,-1,1,1,-1
1470261236455602,-2,0,-1,13,-3,-1,-3,-2
1470261236469115,-3,-3,-4,-26,-7,-4,-1,-3
1470261236469115,3,3,1,27,2,0,0,1
1470261236470615,5,-1,-2,12,-1,-2,-1,1
1470261236470615,-11,-1,0,-12,-1,-4,-15,-1
1470261236491650,-4,0,-2,-3,-5,-2,-4,-8
1470261236491650,4,-4,-1,0,1,-1,-1,3
1470261236493137,-6,0,-6,-29,-6,1,0,-2
1470261236493137,4,1,3,6,-2,0,2,2
1470261236506664,2,0,-2,3,2,-3,-3,1
1470261236506664,-4,-1,3,10,1,1,-1,-4
1470261236508149,0,-1,1,16,-1,-1,-2,0
1470261236508149,2,-1,1,-2,1,0,2,-2
1470261236529195,-1,-1,-2,-12,1,0,2,-1
1470261236529195,-1,0,-4,-15,-1,3,1,1
1470261236530685,-1,-2,0,5,-7,-3,-1,0
1470261236530685,-2,0,1,5,2,-1,2,-1
1470261236551691,2,0,0,4,-4,-4,1,1
1470261236551691,-4,0,-2,9,4,0,0,-2
1470261236553193,-3,-1,-5,-28,-1,-3,-2,-2
1470261236553193,-2,-5,-6,4,1,0,-1,-4
1470261236566200,-1,0,-1,0,-14,-9,-2,1
1470261236566200,1,1,2,-1,8,4,-2,-1
1470261236573207,0,0,1,32,13,10,2,1
1470261236573207,-1,-2,3,34,-7,-5,2,-3
1470261236589239,0,0,-6,-56,13,4,3,0
1470261236589239,-4,0,-2,-9,-15,-11,-2,-1
1470261236590737,-3,-2,-2,-5,-2,0,-2,4
1470261236590737,5,1,2,-1,13,6,1,-16
1470261236611758,-4,-3,2,4,-3,0,-1,1
1470261236611758,-1,-1,-1,11,1,-2,-5,0
1470261236613243,0,0,-2,-9,-7,-4,-9,-2
1470261236613243,0,0,-8,-21,-19,2,8,11
1470261236625754,-3,0,-5,10,3,-3,-5,0
1470261236625754,-3,-6,-4,-37,-7,-3,-3,-10
1470261236634769,1,0,6,25,-1,-1,-1,2
1470261236634769,0,0,2,16,2,0,-4,1
1470261236649293,0,0,-5,-15,1,-4,-2,-2
1470261236649293,-2,0,-5,5,-1,0,5,4
1470261236650779,-2,-3,-1,-2,0,-7,-1,-4
1470261236650779,-3,-3,1,-16,-3,0,-2,-1
1470261236671824,1,-2,-1,37,7,3,4,4
1470261236671824,-1,1,-1,-30,-7,-4,-3,-1
1470261236673299,1,-2,-3,-5,0,-11,-1,-5
1470261236673299,-1,0,2,8,7,9,0,-1
1470261236685331,0,-2,3,8,-7,2,2,5
1470261236685331,-2,-4,-2,-3,-1,3,0,-10
1470261236694315,1,2,1,1,2,5,1,1
1470261236694315,0,-1,-1,-2,-5,-8,-12,3
1470261236709329,-2,-3,-4,-23,1,-3,2,-5
1470261236709329,-1,0,7,62,0,-1,-1,-1
1470261236710833,-3,-1,-5,-18,-4,0,2,-2
1470261236710833,0,-1,-5,-24,-2,-4,0,1
1470261236731930,2,1,3,12,6,3,2,-1
1470261236731930,-2,0,-6,-20,-3,-3,-5,-2
1470261236733353,-2,-2,1,17,5,0,-1,-4
1470261236733353,-2,-1,7,20,8,1,-4,0
1470261236745392,-1,-2,-4,-5,-7,-5,-1,-1
1470261236745392,1,0,1,-10,-3,1,4,2
1470261236769883,-1,-2,-7,-26,-6,-2,-3,-1
1470261236769883,-1,-1,-2,16,5,-3,2,-2
1470261236770384,1,-3,-2,-27,-7,2,2,0
1470261236770384,-1,-1,0,0,-1,-2,-6,-2
1470261236772385,-2,-2,-6,-8,-3,1,5,-1
1470261236772385,-2,-1,0,-5,2,0,14,1
1470261236791907,-1,2,6,70,1,1,-3,-2
1470261236791907,-3,-2,-6,-54,-17,-3,10,0
1470261236793404,0,-1,-1,2,-2,-2,-3,-2
1470261236793404,-2,-2,1,-3,-12,-4,-5,-1
1470261236805430,-2,-2,-2,24,-1,4,2,-1
1470261236805430,0,2,4,19,11,3,-7,1
1470261236814423,-1,-1,3,-8,3,-1,-4,-3
1470261236814423,-1,0,-8,-16,-11,-2,-2,-1
1470261236829438,-1,-2,1,15,10,-7,-4,-3
1470261236829438,-2,0,-3,-6,6,5,-3,0
1470261236830939,0,1,4,10,-5,-2,2,-1
1470261236830939,-1,-3,-2,-5,5,-5,-7,0
1470261236851959,-2,-1,-5,-21,-34,-1,-1,-2
1470261236851959,-1,-2,-3,-9,22,4,-3,0
1470261236853459,-2,0,0,8,2,-2,1,0
1470261236853459,0,-2,-3,-2,-4,-2,-2,-2
1470261236865497,0,-2,-2,15,14,-2,-12,-1
1470261236865497,-1,-1,-1,-18,-23,-2,7,1
1470261236874478,-1,0,3,60,57,9,1,1
1470261236874478,0,1,-2,-23,-4,1,-3,-1
1470261236889492,-1,-1,-2,-43,-16,1,1,-1
1470261236889492,0,-2,-1,-5,4,-8,-4,-2
1470261236890992,0,-2,4,45,-6,-3,-4,-1
1470261236890992,0,1,-4,-3,-11,0,5,0
1470261236927551,-2,-2,-4,-11,34,1,0,0
1470261236927551,1,1,1,21,-6,-3,-1,0
1470261236929026,-3,-4,-4,-8,0,-3,-1,-4
1470261236929026,-2,0,-4,-25,-13,-6,-2,-1
1470261236930042,0,3,5,15,3,3,2,0
1470261236930042,-2,-3,-9,-26,0,0,-1,0
1470261236934533,-4,-4,-5,-3,-1,-8,-6,-4
1470261236934533,-1,1,3,4,29,2,0,-2
1470261236949088,1,1,-1,19,-11,2,3,1
1470261236949088,-2,-2,5,58,65,3,0,1
1470261236955550,3,3,-10,-113,-50,3,2,0
1470261236955550,-2,-1,-2,46,-12,-7,-4,-2
1470261236971586,0,0,5,-4,4,3,1,-1
1470261236971586,-3,-5,-6,5,-20,-11,-6,-5
1470261236973566,0,-2,-3,-10,6,0,2,2
1470261236973566,-2,-4,4,9,14,9,1,0
1470261236985577,-2,-3,-4,2,4,-11,-4,-2
1470261236985577,-2,2,6,23,-36,-2,-2,0
1470261236994586,1,3,5,-3,26,15,6,2
1470261236994586,-1,-1,-6,-14,3,-8,0,-2
1470261237009216,-1,-1,-1,-29,9,2,0,-1
1470261237009216,0,-2,-3,-21,-46,1,0,-1
1470261237010599,-3,-3,-2,35,11,-15,-5,-4
1470261237010599,-1,-1,2,-1,0,3,1,-1
1470261237032118,-3,-2,1,-4,-4,-6,-3,-2
1470261237032118,1,2,-8,-1,-10,2,1,0
1470261237033125,-2,0,0,8,-7,-1,-2,0
1470261237033125,0,2,5,5,10,3,1,1
1470261237045725,0,-1,-5,-31,-12,-2,-2,-1
1470261237045725,-1,-1,4,18,9,-6,-3,-1
1470261237054141,-1,-3,4,23,2,-2,-2,0
1470261237054141,0,1,-3,-40,2,16,6,2
1470261237068658,-3,-1,-2,20,-11,-5,-2,-3
1470261237068658,0,0,-6,-21,6,-3,-1,-2
1470261237076659,-1,-2,0,1,1,4,0,0
1470261237076659,-1,2,6,31,-13,-4,-1,-1
1470261237091673,0,-1,1,1,14,3,0,0
1470261237091673,-1,-3,-4,-19,-8,-4,-2,0
1470261237093174,0,-1,-6,-4,-4,8,0,-1
1470261237093174,1,-5,-4,8,-17,-6,-2,0
1470261237105764,-1,1,1,-15,-10,-2,1,0
1470261237105764,-4,-3,-4,-11,-4,-6,-2,-1
1470261237114205,-1,-1,1,-5,-16,-6,0,-2
1470261237114205,-2,-3,-5,-14,-28,-6,-4,-2
1470261237129232,-1,-4,-3,43,6,-6,-4,-2
1470261237129232,-1,-1,4,-32,15,4,3,2
1470261237130708,-2,0,0,-1,-24,-6,-3,-2
1470261237130708,-1,-2,-3,-5,-15,1,1,-1
1470261237151765,-1,-4,-5,-18,1,-1,-2,-1
1470261237151765,-2,0,3,26,5,-4,-3,-3
1470261237153228,0,-1,-6,-22,-12,1,-1,1
1470261237153228,0,-1,-1,21,29,6,1,-1
1470261237165796,-1,-2,-4,-38,-34,-9,-3,0
1470261237165796,0,-2,5,33,14,0,0,-1
1470261237174247,-2,-3,-1,-6,-11,8,2,0
1470261237174247,-1,-2,0,5,17,-9,-5,-2
1470261237188833,3,3,1,-21,-13,2,1,1
1470261237188833,0,0,-2,-7,-19,10,-4,0
1470261237195781,0,-1,2,2,-2,-11,3,-3
1470261237195781,-3,-3,-3,-3,8,-6,-5,-1
1470261237211781,0,-2,-2,-13,14,7,1,2
1470261237211781,1,1,2,39,23,-1,1,-2
1470261237213282,-2,-3,-5,-4,-4,-2,-7,0
1470261237213282,0,-1,2,7,-3,8,3,1
1470261237225293,-1,-1,-3,-10,-19,-6,-5,-4
1470261237225293,1,-1,2,-24,5,-2,-4,0
1470261237234303,0,-1,-1,17,5,2,-3,1
1470261237234303,-1,0,-1,-1,-6,-7,-1,-5
1470261237248321,-2,0,-3,-16,-6,-4,0,0
1470261237248321,0,-1,-2,-9,-11,-3,3,-1
1470261237255354,0,0,4,4,5,-1,0,-2
1470261237255354,-1,-2,1,-24,4,-2,-6,0
1470261237271838,-1,0,0,18,5,-1,5,-1
1470261237271838,-2,-4,-6,-8,1,-1,-5,-4
1470261237273357,1,0,0,-1,-27,-1,5,3
1470261237273357,-2,-2,-6,-21,9,-7,-5,-3
1470261237285356,-2,-3,-1,16,22,11,0,-3
1470261237285356,-1,0,0,7,-17,-2,2,2
1470261237294358,-3,-1,0,-26,5,-3,1,0
1470261237294358,0,-1,-1,27,-18,5,2,0
1470261237315928,-2,-3,-1,22,5,-6,-4,-4
1470261237315928,1,0,-4,-22,22,3,0,-1
1470261237324381,1,-1,-2,-19,9,4,-1,-1
1470261237324381,-3,-2,1,16,5,-15,-4,-2
1470261237331972,-1,0,2,5,8,3,-2,0
1470261237331972,-2,-3,-3,8,12,7,2,-1
1470261237334393,-3,-1,-1,11,-3,-5,-4,-3
1470261237334393,-1,-1,-4,-9,5,-2,-1,0
1470261237354409,-2,-1,-1,3,-12,-5,-1,0
1470261237354409,-1,-3,1,-10,7,1,-1,-2
1470261237356413,1,-1,-1,-12,-10,-2,-1,-4
1470261237356413,-1,0,5,39,6,3,-6,-1
1470261237369925,-2,-1,-1,-10,-8,-2,3,2
1470261237369925,-2,-2,-4,-8,-6,-4,-3,-2
1470261237371424,0,1,2,-16,0,1,0,0
1470261237371424,-1,-2,-4,-7,-16,-3,-1,-3
1470261237390941,1,0,0,-10,-7,-2,0,-1
1470261237390941,-1,-1,-6,-2,-3,-8,-2,0
1470261237399449,-2,-1,1,16,27,-1,-3,-2
1470261237399449,-2,-2,-2,-17,-29,0,1,0
1470261237413962,0,-1,-1,-8,3,2,-1,-2
1470261237413962,-2,-2,-2,-4,-19,-6,0,-2
1470261237415963,-1,-3,-3,-39,8,3,-3,0
1470261237415963,-1,-2,-2,25,6,-5,0,-2
1470261237429009,0,1,2,-13,0,3,1,-1
1470261237429009,1,0,-3,-10,-26,2,2,0
1470261237430977,-3,-5,-5,4,-17,-7,-7,-2
1470261237430977,-3,-2,-3,-22,-9,0,1,-1
1470261237451997,-1,-2,0,-5,1,-5,-4,-2
1470261237451997,-1,-1,1,25,12,1,-1,0
1470261237453501,0,0,-3,8,-1,-7,1,-2
1470261237453501,1,1,1,-22,-3,1,0,0
1470261237482104,-2,-3,-4,18,8,-6,-7,-4
1470261237482104,-2,1,3,23,0,4,1,-1
1470261237483524,-2,0,-7,-39,-11,-8,-2,-1
1470261237483524,1,0,-2,-2,6,5,5,3
1470261237489042,-3,-5,-5,3,-7,-2,-6,-4
1470261237489042,-2,-3,0,-6,11,-2,2,-2
1470261237495572,-1,0,5,59,-4,-1,-4,-1
1470261237495572,-1,0,1,-14,-2,-2,-1,1
1470261237512050,-3,-2,-5,-8,-9,0,-2,-3
1470261237512050,0,-2,1,-20,-18,-1,-2,1
1470261237513551,-1,0,1,15,14,-1,3,-1
1470261237513551,1,0,-1,-7,-1,5,-6,-1
1470261237534070,1,0,1,18,1,-2,9,1
1470261237534070,-1,0,-3,0,9,-2,-2,-1
1470261237536072,-3,-3,1,3,-4,1,-1,-2
1470261237536072,0,-1,-2,-14,2,-1,-1,-1
1470261237548616,-2,-1,-1,25,7,0,-4,-2
1470261237548616,-2,-4,-9,-35,-7,-2,-2,-1
1470261237555588,-2,-1,1,24,3,0,0,-1
1470261237555588,-2,-1,0,34,6,-2,0,-2
1470261237571634,2,0,1,-27,-3,-6,-1,-1
1470261237571634,-1,0,1,7,-6,-3,-2,-1
1470261237573105,-2,-3,3,22,-11,1,-2,0
1470261237573105,0,2,-4,-47,17,1,0,0
1470261237594154,-2,-1,-2,5,4,3,-1,-2
1470261237594154,0,0,0,16,13,0,-2,-2
1470261237595625,-1,-5,-7,-38,-23,-3,-1,-1
1470261237595625,0,-1,3,22,9,-3,2,1
1470261237608638,-1,0,1,2,-7,-1,-4,-1
1470261237608638,-1,-3,-2,-17,5,1,0,0
1470261237615161,1,2,-1,-20,-36,2,10,0
1470261237615161,-2,-3,-3,-8,-18,-2,-3,-1
1470261237631660,1,2,0,-10,-1,1,-3,0
1470261237631660,-2,-1,4,44,5,-2,-5,0
1470261237633659,0,0,1,25,35,-1,-1,-1
1470261237633659,-1,-1,1,-9,-7,1,1,-1
1470261237654178,0,0,-8,-31,-2,-3,-1,-1
1470261237654178,0,-3,-1,3,-10,-6,-4,-3
1470261237655679,0,0,-2,-15,-1,-4,-3,-2
1470261237655679,-3,-5,-5,2,-8,-8,-5,-3
1470261237668697,-2,-2,0,37,17,3,0,-1
1470261237668697,1,0,1,0,-2,0,2,-3
1470261237675777,-2,1,1,6,9,1,-1,0
1470261237675777,0,-3,-2,27,5,-1,-4,-2
1470261237691744,-2,-2,-1,-30,-12,-6,-1,1
1470261237691744,-2,-1,-6,-64,17,-3,2,2
1470261237693231,-1,-3,1,50,24,9,-2,-3
1470261237693231,-1,-1,-2,-14,11,-4,2,-1
1470261237714788,1,0,-6,-38,-4,2,2,0
1470261237714788,-2,-2,8,66,-6,-2,-1,-1
1470261237716233,0,0,-4,-76,-10,-7,-2,-1
1470261237716233,-3,-1,-4,-15,6,-4,-1,-3
1470261237728746,-3,-4,1,24,-1,1,-1,0
1470261237728746,-1,2,-6,-58,-9,1,-1,-1
1470261237735261,-1,1,1,27,2,1,-7,-1
1470261237735261,0,-1,-2,14,-8,1,5,-2
1470261237751777,-2,-2,2,7,-5,-1,2,0
1470261237751777,-3,-2,-2,-1,-16,-1,-2,-1
1470261237753267,0,-1,-4,7,10,2,-1,0
1470261237753267,0,1,2,0,-14,0,-6,0
1470261237774303,0,-2,-5,-6,-2,-2,2,-1
1470261237774303,-2,-1,3,-5,5,-1,-1,0
1470261237775802,-1,-1,-4,-9,-2,-3,3,-2
1470261237775802,-1,0,5,35,16,-2,0,1
1470261237788798,0,0,1,-29,15,-2,1,-1
1470261237788798,1,1,-3,-8,1,10,-1,3
1470261237795317,-1,-1,-2,-22,-17,-1,-2,-3
1470261237795317,-1,-1,-1,-11,-16,-6,-2,-2
1470261237811851,-2,-1,2,29,0,-4,0,1
1470261237811851,-1,-1,-4,2,3,-4,-8,-1
1470261237813320,-4,-5,-3,-15,-14,-2,-6,-1
1470261237813320,-1,0,-2,-5,2,3,4,2
1470261237834344,0,1,5,32,7,4,-3,-2
1470261237834344,-1,0,-1,-2,-7,0,3,-2
1470261237835861,-1,-1,-5,-28,-6,-3,-6,1
1470261237835861,-2,-1,2,15,5,1,1,1
1470261237847851,-2,-3,-5,-22,-14,-2,-8,-4
1470261237847851,-1,-1,0,24,2,-5,1,-1
1470261237856860,-1,-1,6,22,6,-1,1,-1
1470261237856860,1,-1,-4,-12,6,0,0,-2
1470261237871898,-1,2,0,-18,-8,-3,2,4
1470261237871898,-3,-2,-3,9,-1,-5,1,-5
1470261237873374,-1,-4,-3,6,1,-7,-1,-4
1470261237873374,-3,-2,-3,3,0,5,0,-3
1470261237894437,0,2,6,26,0,1,-2,1
1470261237894437,1,-3,-3,-18,9,-2,-4,-1
1470261237895947,1,1,1,6,-6,-1,3,0
1470261237895947,-3,-3,-1,-21,-16,-7,1,1
1470261237907936,-1,-1,-2,15,-7,-1,-4,-5
1470261237907936,-2,-1,1,13,4,-2,-7,-3
1470261237924420,-2,-2,-7,-27,-18,1,3,0
1470261237924420,1,-1,0,-15,2,-1,-5,-1
1470261237931928,-2,-1,1,3,-2,3,1,0
1470261237931928,0,0,-3,-24,-9,0,-2,-1
1470261237933428,0,0,7,73,18,3,0,0
1470261237933428,0,0,-8,-66,-19,-3,-2,-1
1470261237954448,-3,-3,-6,-2,-1,-4,1,-2
1470261237954448,-2,-1,-1,11,5,-3,-1,-3
1470261237955981,-2,-2,0,1,1,6,1,1
1470261237955981,-2,-2,-1,0,-9,-4,3,-3
1470261237967964,0,1,-1,2,4,-2,-5,-1
1470261237967964,0,0,-2,-6,-6,-3,1,-1
1470261237976969,-2,-2,-7,-7,0,-3,-17,-1
1470261237976969,-1,-3,-4,8,9,1,2,0
1470261237991981,0,-1,1,13,-13,1,3,-1
1470261237991981,3,2,2,-18,-9,-5,-2,0
1470261237993484,-2,-2,-5,-11,-2,-2,-3,-3
1470261237993484,-1,-2,-2,4,-3,1,-6,-1
1470261238014501,-2,-3,1,23,8,-4,-2,-3
1470261238014501,0,0,3,18,15,3,5,3
1470261238016003,1,3,1,-27,9,4,4,0
1470261238016003,0,2,1,17,-5,-2,-4,-4
1470261238028075,-1,-5,-3,-7,16,-1,3,1
1470261238028075,-2,-3,1,4,-9,1,-3,-1
1470261238037021,0,-3,-4,2,-1,-6,1,-1
1470261238037021,-1,0,3,8,10,0,-1,-2
1470261238051538,-1,0,0,-10,-12,1,-3,-2
1470261238051538,-1,0,1,-12,0,0,3,-1
1470261238053537,-2,0,-1,30,-1,-6,1,0
1470261238053537,0,-2,-7,-13,0,-2,-6,1
1470261238074653,-1,0,4,-8,-8,1,7,1
1470261238074653,-1,-3,-3,-4,-6,-1,1,-5
1470261238076057,-2,0,1,15,-1,-3,-3,-2
1470261238076057,-1,0,0,-1,-3,1,2,-1
1470261238088067,1,1,-2,21,7,-1,-4,-1
1470261238088067,-3,-4,-9,-33,-8,-4,-5,-3
1470261238096576,0,0,5,13,5,1,2,0
1470261238096576,-1,-1,0,-5,-1,-2,-9,-2
1470261238119109,-2,-3,-9,-29,-7,-2,-3,-2
1470261238119109,-2,1,-1,4,-8,-1,-2,0
1470261238120597,0,-2,1,10,10,-2,1,0
1470261238120597,-1,-2,1,4,-1,4,0,-1
1470261238134112,0,0,2,14,15,-3,0,-1
1470261238134112,-2,-2,-8,4,17,0,-1,-2
1470261238136111,-2,-1,-3,-45,-16,-3,-1,-1
1470261238136111,0,0,5,28,5,0,2,-1
1470261238148121,-3,-3,-4,-2,-4,-3,-1,-3
1470261238148121,0,-1,-3,-4,-3,1,0,-1
1470261238156673,-1,-3,-1,3,-3,-2,0,-2
1470261238156673,-1,-1,2,5,-4,-7,0,-1
1470261238171687,1,0,-2,-13,6,14,-1,0
1470261238171687,-1,0,3,34,0,-5,-2,-2
1470261238173144,0,0,-5,-35,-13,-1,-1,-2
1470261238173144,-2,-1,0,5,-3,0,-2,-1
1470261238194218,-1,-1,-2,-26,-9,-5,-3,0
1470261238194218,1,0,2,10,-4,0,-1,-4
1470261238195664,-2,-1,-2,0,1,1,-2,-1
1470261238195664,0,-1,-2,-13,-1,2,2,-1
1470261238208235,-1,0,4,42,-1,-5,-1,-1
1470261238208235,0,-1,-4,-21,0,0,-1,1
1470261238216683,0,0,0,-24,-12,-2,0,-2
1470261238216683,-1,-2,-10,1,-17,-3,-3,0
1470261238231698,-2,-4,2,-11,1,1,-1,0
1470261238231698,-2,-2,3,11,-2,-1,-2,-1
1470261238234203,-1,-2,-2,-1,7,-2,-1,-1
1470261238234203,-1,2,-4,-4,-2,-3,1,0
1470261238253236,0,0,-4,-11,-9,2,-1,-2
1470261238253236,-1,0,1,-15,-7,-1,0,-1
1470261238261723,-2,-1,3,33,11,-4,0,-1
1470261238261723,-2,-2,-2,0,1,-5,-3,-2
1470261238268232,-3,-4,-4,-30,-8,-8,-1,-2
1470261238268232,2,3,11,48,10,6,4,1
1470261238276737,-2,-4,-11,-46,-12,-1,2,0
1470261238276737,-2,-1,3,22,0,-1,-2,-2
1470261238291763,-1,-1,-7,-21,-15,-2,-2,-2
1470261238291763,-3,-3,-2,-4,1,-4,-3,-1
1470261238293252,1,2,1,17,0,2,-1,4
1470261238293252,-2,-3,0,-19,-5,0,-2,-7
1470261238314298,-2,-1,3,8,8,1,0,1
1470261238314298,0,-3,-5,-2,-9,-6,-3,-1
1470261238315771,-3,-1,-4,-2,-2,1,10,-2
1470261238315771,-1,-1,-3,-13,0,0,-2,1
1470261238344826,-1,0,4,17,22,-1,8,1
1470261238344826,2,0,0,-21,-5,6,-1,-1
1470261238346299,-3,-1,-1,15,-7,0,-3,-2
1470261238346299,-1,0,-4,-14,13,2,1,1
1470261238351807,-2,-1,4,45,-11,-4,-5,-3
1470261238351807,-1,0,-9,-23,-3,-4,-1,1
1470261238353307,2,0,3,15,22,3,-1,-2
1470261238353307,0,-2,0,-13,-6,-1,-5,-2
1470261238374357,0,0,-4,-3,-5,-5,-5,-2
1470261238374357,-3,-4,-2,14,-1,0,1,-2
1470261238375825,-1,-1,-1,-30,-4,-1,-3,-1
1470261238375825,-1,-1,-2,14,1,-4,-2,0
1470261238396844,0,0,-2,-23,-8,-3,-2,-1
1470261238396844,-2,-2,-4,1,3,-2,-3,0
1470261238398347,-2,-3,-2,25,-1,-5,-2,-3
1470261238398347,-3,-1,5,0,22,0,-10,0
1470261238411891,-2,0,-1,-5,-16,8,3,1
1470261238411891,0,-1,-7,-32,-13,-5,0,-1
1470261238413359,-2,-2,1,0,-1,-5,-5,-3
1470261238413359,-1,-1,1,23,6,-4,1,-2
1470261238434378,-1,0,1,-2,1,-1,-2,-1
1470261238434378,-1,-1,-5,0,-6,-1,-3,-1
1470261238435883,0,-1,2,6,-5,-1,-4,0
1470261238435883,-3,-2,2,20,0,-2,4,1
1470261238456898,0,-1,-7,-58,4,0,-1,0
1470261238456898,0,0,4,23,-1,0,2,-2
1470261238458399,0,-1,-6,-20,-9,0,0,-1
1470261238458399,1,-2,3,4,-2,0,-5,-2
1470261238471512,-1,-1,-2,8,6,-3,-4,-4
1470261238471512,-2,-2,1,-6,16,-1,0,-1
1470261238477930,0,-1,1,33,-9,0,-2,-1
1470261238477930,-2,1,-5,-35,8,4,0,0
1470261238494445,-3,-5,-9,-7,-10,-6,2,-2
1470261238494445,-1,0,2,-8,1,-1,-6,-2
1470261238495984,-2,-2,3,12,4,-2,1,-1
1470261238495984,0,-1,0,18,-3,1,1,0
1470261238516955,-1,-1,-1,2,4,-1,-1,1
1470261238516955,-2,-2,-1,19,1,0,1,1
1470261238518456,-2,-2,-3,-30,-8,1,1,-1
1470261238518456,-4,-1,-3,-26,-6,-5,-5,-4
1470261238531525,-2,-3,-3,-7,3,0,0,0
1470261238531525,-1,-1,1,9,-4,1,-1,-2
1470261238537971,-1,1,0,2,12,-6,-5,-1
1470261238537971,1,-1,-3,-7,1,5,6,0
1470261238554486,-1,1,-1,21,-6,-3,-2,-1
1470261238554486,-3,-3,0,16,16,-1,-5,0
1470261238555987,0,-1,-7,-67,-22,0,0,3
1470261238555987,0,1,0,1,-6,-1,2,0
1470261238577017,1,-2,4,16,1,-1,-4,-1
1470261238577017,0,-1,-4,-26,-6,-1,0,0
1470261238578524,-1,-1,2,28,2,-2,1,-2
1470261238578524,0,-3,1,3,-7,0,-1,-1
1470261238591038,-1,-2,0,9,-6,0,-10,-3
1470261238591038,2,1,3,-19,-3,2,6,0
1470261238598047,-1,1,1,16,14,2,1,1
1470261238598047,-2,0,-6,-23,-12,-2,2,-1
1470261238622047,-2,-1,0,7,5,-4,-2,-3
1470261238622047,-1,-2,0,8,-6,-4,-6,-3
1470261238623548,0,0,0,14,-3,-1,0,-2
1470261238623548,1,0,1,4,22,2,-4,3
1470261238636582,-1,1,-3,-11,-3,-1,3,0
1470261238636582,-1,-3,0,-4,1,-2,1,0
1470261238638605,-4,-2,-5,-8,-11,2,-1,-1
1470261238638605,0,-3,0,25,-6,-6,-3,-1
1470261238651110,0,-1,-1,-16,13,-4,-2,2
1470261238651110,-2,0,-2,-9,-25,6,1,0
1470261238658080,-1,-1,1,18,13,-3,-3,-1
1470261238658080,-3,-3,-1,-1,2,-2,0,-1
1470261238674663,-2,-2,-4,-2,-9,-2,-1,-1
1470261238674663,0,0,-2,-7,5,-1,0,-3
1470261238675595,-3,-3,-1,-23,12,0,-1,-2
1470261238675595,-1,0,-2,18,-13,-2,2,-3
1470261238696640,-1,-3,0,24,-1,1,1,-1
1470261238696640,0,1,-3,-22,1,0,-2,-1
1470261238698115,1,0,0,6,-3,0,5,0
1470261238698115,-1,-3,-2,2,2,-1,7,-1
1470261238711146,0,0,1,8,-4,0,-2,0
1470261238711146,-3,-5,-4,-8,-11,-6,-10,-4
1470261238718140,1,0,0,6,11,-2,1,0
1470261238718140,-1,1,-1,-11,-24,-1,-3,-1
1470261238734151,-2,0,-1,-9,-5,-3,1,-2
1470261238734151,-3,0,-2,0,3,-1,5,1
1470261238736151,-2,-3,-3,-5,1,-2,-5,-4
1470261238736151,-1,-1,-2,-3,-15,-4,-4,0
1470261238756740,-2,-3,-2,-7,-5,1,2,-1
1470261238756740,-1,-1,-4,0,6,1,1,-2
1470261238758169,-1,-1,2,10,-9,-3,-3,-2
1470261238758169,-1,-2,-2,12,16,2,1,-1
1470261238770680,2,5,2,-30,-5,3,3,2
1470261238770680,0,-2,-1,10,-1,-2,1,0
1470261238779187,-1,-1,-3,4,-2,-1,-2,-3
1470261238779187,-1,-2,-1,-2,0,-3,-5,-1
1470261238794233,-2,-2,3,14,5,0,-2,-1
1470261238794233,0,0,0,12,-6,0,1,1
1470261238795702,0,2,0,-6,7,6,-1,-2
1470261238795702,-1,-1,-5,-12,3,3,3,-2
1470261238816803,-2,0,-7,-8,-5,-4,-5,-4
1470261238816803,-2,-1,2,1,-4,-2,2,-1
1470261238818725,-3,-2,-3,-4,-13,-6,-3,-1
1470261238818725,-1,-1,0,-7,0,-1,-2,-1
1470261238830269,1,-1,-2,-5,-4,-2,0,1
1470261238830269,0,-1,-3,-6,1,-1,-4,-1
1470261238839243,0,-1,1,3,-7,-1,-1,0
1470261238839243,1,0,1,17,8,0,0,0
1470261238854278,-1,-1,-4,-51,-11,-4,0,1
1470261238854278,-2,1,-1,4,-9,-6,-1,-2
1470261238855757,-3,-1,-2,1,2,4,3,1
1470261238855757,0,-1,2,-2,-2,3,7,1
1470261238876793,-4,-3,-2,19,9,-2,0,-2
1470261238876793,0,0,3,8,2,0,-8,-1
1470261238878278,0,-1,-5,-22,-17,-8,0,-1
1470261238878278,-1,0,-2,4,1,1,-3,0
1470261238890329,0,1,2,11,9,0,3,0
1470261238890329,0,-1,-1,-8,1,-4,6,1
1470261238899295,-2,-1,-4,0,-4,0,-4,-4
1470261238899295,-1,-1,-1,-4,-3,-1,-2,-1
1470261238914322,1,-2,1,-2,2,0,-6,-3
1470261238914322,-2,-1,2,3,7,2,-4,0
1470261238915811,-1,-3,0,9,-9,1,1,2
1470261238915811,-2,0,2,11,-3,-5,-5,-6
1470261238936829,-1,1,-5,-54,-1,1,2,2
1470261238936829,1,1,-2,0,-6,-1,-3,-2
1470261238938331,0,0,-3,-3,2,-2,0,1
1470261238938331,-2,-2,-2,3,1,-1,-6,-1
1470261238950844,0,-2,4,33,-1,-2,-3,-2
1470261238950844,-1,-3,-1,1,6,0,2,-1
1470261238959349,1,1,2,-8,4,-5,0,0
1470261238959349,0,-5,-6,-13,-10,-4,6,1
1470261238974363,-2,-3,3,8,1,9,-3,1
1470261238974363,-1,0,-5,-20,2,-2,-1,-2
1470261238975866,-1,0,6,43,-1,0,1,-1
1470261238975866,1,1,-3,-28,1,-3,-2,-2
1470261238996954,-3,-3,-5,-3,-13,-9,-7,-4
1470261238996954,-2,-3,-2,12,6,1,2,1
1470261238998400,0,-2,-3,-20,4,0,-5,-3
1470261238998400,0,2,3,-1,9,2,6,2
1470261239010437,-1,0,-1,22,-4,-2,4,-1
1470261239010437,-1,-2,0,-13,6,2,-1,-1
1470261239019404,-1,0,-6,-5,3,-1,0,-2
1470261239019404,-2,-1,-1,2,-2,-2,-5,-1
1470261239034418,-2,-2,1,2,5,2,0,-2
1470261239034418,0,-1,-4,-4,-8,1,0,-1
1470261239035921,1,-1,7,6,8,0,4,0
1470261239035921,-1,1,-3,-3,-7,0,-5,-1
1470261239056937,-2,-1,-7,-15,4,2,-2,-1
1470261239056937,0,-3,-1,-4,-11,-6,-6,-4
1470261239058470,0,0,5,8,16,2,-1,-2
1470261239058470,-1,-2,-3,-2,-27,-2,0,0
1470261239070523,1,0,-3,-20,11,-1,1,0
1470261239070523,-1,0,-1,6,1,1,0,-1
1470261239079482,-1,-1,-2,-7,4,-2,-3,1
1470261239079482,-1,-2,0,21,-7,-2,-1,0
1470261239094493,-3,-2,-2,10,-6,-7,-2,-2
1470261239094493,1,1,-6,-12,-18,3,-1,0
1470261239095979,-2,-1,-7,-59,-3,0,-1,0
1470261239095979,-1,2,9,71,17,-4,0,0
1470261239117013,-1,-2,-6,-30,-21,-1,1,-1
1470261239117013,0,0,1,25,15,0,8,4
1470261239118493,-1,-2,-1,-10,-24,-1,1,-3
1470261239118493,-1,-3,-5,-14,-1,-4,-4,-3
1470261239130503,1,1,10,21,14,3,2,1
1470261239130503,-3,-2,-3,10,-5,-3,-5,-3
1470261239139511,0,-2,-3,8,-2,-2,2,1
1470261239139511,0,1,-2,-33,-5,-3,-2,-2
1470261239154025,-1,-1,-1,19,1,-2,-1,-1
1470261239154025,-1,-1,-1,-14,9,-1,0,-3
1470261239156026,-1,-4,-4,6,-19,-3,-4,0
1470261239156026,-2,-3,2,22,10,2,0,1
1470261239177045,-1,-2,0,7,-5,-4,-3,-2
1470261239177045,-1,-1,-5,-55,-10,2,1,0
1470261239178546,-1,-1,1,28,5,-2,-1,-4
1470261239178546,-2,-2,-7,-30,-4,-2,-5,-1
1470261239190557,-1,1,2,33,15,-2,-1,-1
1470261239190557,-1,0,0,-2,4,1,-4,-1
1470261239199064,0,-1,-2,-15,-2,-1,-1,0
1470261239199064,0,0,0,17,7,3,-11,-4
1470261239214624,0,0,-2,-32,-4,-2,4,-1
1470261239214624,-3,-3,-5,9,-3,-6,6,0
1470261239216080,-1,2,6,1,10,-3,-4,-1
1470261239216080,-1,-1,-3,-9,-6,6,3,0
1470261239237599,-2,-3,-4,-13,-13,-1,-4,-3
1470261239237599,0,0,7,37,-1,-5,-4,0
1470261239239117,0,-3,2,24,6,-3,1,-1
1470261239239117,-1,-1,-4,-19,-18,-6,3,1
1470261239259168,1,-1,-6,-10,-1,-2,-7,-3
1470261239259168,-1,-1,4,4,-1,2,-2,-2
1470261239260621,0,0,-4,-7,-5,0,-3,0
1470261239260621,-2,-1,4,8,21,-1,-3,-1
1470261239273693,-1,-1,-1,11,-8,1,4,0
1470261239273693,0,0,0,1,3,-4,-6,-4
1470261239280639,-3,0,-1,7,4,-1,-5,-1
1470261239280639,0,0,0,-31,3,-2,2,-2
1470261239296682,-1,-2,-7,-9,-6,-2,0,0
1470261239296682,-1,-2,5,12,3,-1,-1,-1
1470261239298153,0,1,0,-4,-3,-1,1,-1
1470261239298153,0,-2,-6,-13,0,1,-4,-3
1470261239319173,0,-3,8,42,15,-1,6,0
1470261239319173,1,1,0,2,-12,-3,1,0
1470261239320674,-1,-1,-10,-15,-15,-4,-4,-3
1470261239320674,-2,-1,3,-39,0,1,-4,0
