timestamp,emg1,emg2,emg3,emg4,emg5,emg6,emg7,emg8
1470345719705185,0,-1,-4,0,1,0,0,-2
1470345719705185,-1,6,-18,-8,-2,0,0,1
1470345719722202,0,-3,11,10,-1,-2,-2,0
1470345719722202,-5,-14,-16,-8,0,0,-2,0
1470345719723201,0,11,6,-5,-1,-1,-1,1
1470345719723201,1,5,6,3,-2,-2,1,-2
1470345719744222,-3,-14,-10,-14,-4,-1,1,0
1470345719744222,3,11,12,15,-1,0,1,-2
1470345719746222,-1,-9,-5,-2,-2,1,1,-1
1470345719746222,0,9,5,-14,0,-1,-4,-1
1470345719758232,-2,-13,3,13,1,0,-2,-1
1470345719758232,0,3,-16,-12,2,-2,-2,-2
1470345719767248,-2,-1,7,6,-2,-4,0,1
1470345719767248,-4,-3,9,1,-2,-2,-1,-1
1470345719781760,0,2,-8,1,-1,1,0,-1
1470345719781760,1,3,-7,-5,-1,-1,0,-2
1470345719788266,0,-5,8,10,-1,-1,-2,-2
1470345719788266,0,3,8,-4,2,0,-1,2
1470345719804280,-2,6,13,7,-2,-2,-2,-2
1470345719804280,-4,-4,-23,-8,-4,-2,0,-2
1470345719806281,1,-4,-4,-5,-1,0,-2,0
1470345719806281,-2,-14,-6,-3,0,0,0,0
1470345719818292,3,16,7,-7,-3,-2,-1,-2
1470345719818292,-4,-7,-3,2,0,0,0,1
1470345719827301,2,-2,-1,-5,-2,-3,0,-1
1470345719827301,4,0,10,12,3,1,-1,-2
1470345719841814,-5,3,-13,-5,-1,0,0,-2
1470345719841814,0,-14,0,-4,-1,-1,0,-1
1470345719843816,-1,10,12,6,1,1,0,0
1470345719843816,-1,-13,-19,-11,-2,-1,-2,-1
1470345719864334,-3,2,8,1,-3,-2,-3,-1
1470345719864334,0,4,0,3,-2,0,-1,0
1470345719866337,-1,3,13,15,3,1,-1,-1
1470345719866337,-2,0,-19,-40,-6,-3,-2,-1
1470345719878347,7,-5,-2,2,-2,-3,-1,1
1470345719878347,-4,4,13,0,-1,-1,-2,-2
1470345719894863,0,-3,-13,3,2,-1,-1,-1
1470345719894863,-7,3,1,9,-3,0,-1,-1
1470345719901868,-3,-6,-4,-7,-1,-2,-1,-1
1470345719901868,5,4,11,4,-1,-1,-1,-1
1470345719903369,-4,-3,1,-8,-3,-3,-2,-2
1470345719903369,0,3,-5,3,0,-1,-2,-1
1470345719924389,-2,-12,-8,-8,-1,-1,0,0
1470345719924389,0,0,-10,-6,-1,-2,-1,0
1470345719925889,-4,-2,12,-4,-1,-2,-1,0
1470345719925889,0,3,-7,1,-3,0,-1,-2
1470345719938400,2,-6,10,18,0,-1,0,-2
1470345719938400,0,-1,-6,-8,-1,-1,0,-1
1470345719947409,1,6,-19,-3,-2,0,1,0
1470345719947409,3,13,10,-7,5,1,1,1
1470345719961928,-6,-1,2,3,-5,0,-1,1
1470345719961928,-1,1,2,-1,-1,-2,-1,0
1470345719962929,2,7,8,-6,-4,-2,0,0
1470345719962929,2,-10,-9,7,3,1,2,-1
1470345719983948,-11,2,4,-1,-1,-2,-3,-4
1470345719983948,2,2,9,0,-1,-1,0,0
1470345719985951,-2,-8,-5,4,1,0,-1,-3
1470345719985951,3,1,3,6,-3,-2,-2,0
1470345719997961,2,-3,-14,-11,1,0,0,1
1470345719997961,-4,-2,2,3,-4,-1,-2,-1
1470345720006969,0,-3,0,-6,3,0,1,-1
1470345720006969,-3,-4,9,4,-2,-2,-1,-3
1470345720021983,1,3,-10,-2,-1,-1,-1,0
1470345720021983,-1,4,11,-3,-1,-3,-2,-2
1470345720022983,-1,-2,-5,6,1,0,-2,0
1470345720022983,-7,-10,-1,-13,-3,-1,-1,-3
1470345720044510,0,3,6,16,0,0,0,-1
1470345720044510,0,-6,-20,-19,-3,-2,-3,-2
1470345720046011,-5,-5,8,-9,-3,-2,0,-2
1470345720046011,-2,-3,9,7,1,1,0,-1
1470345720058027,2,0,-18,-18,-5,1,-2,-2
1470345720058027,-1,1,7,13,4,1,0,-1
1470345720067035,-3,-7,-22,-14,-7,-2,-2,1
1470345720067035,-4,-3,13,6,-4,-2,-2,0
1470345720082048,-1,4,-15,-8,1,-1,0,-1
1470345720082048,-1,-6,11,5,0,-1,-1,-2
1470345720083049,-1,-1,-3,-4,0,-1,-2,0
1470345720083049,1,1,-10,3,0,-2,1,0
1470345720104070,0,-1,6,-5,1,2,-1,-1
1470345720104070,-2,3,1,5,-1,-2,-2,0
1470345720106071,-2,-4,-2,-5,-1,-2,-2,-3
1470345720106071,0,-4,1,1,-4,-2,-3,-1
1470345720118080,-1,0,-2,1,1,-2,-1,-2
1470345720118080,0,-2,1,3,1,-1,0,-2
1470345720127090,-1,1,1,-8,-2,0,-3,-1
1470345720127090,-1,-5,-14,-12,-6,-2,-1,-1
1470345720142110,0,1,14,5,-1,-1,0,0
1470345720142110,-1,-1,3,1,-4,-1,0,1
1470345720143612,3,2,4,5,1,2,-1,-1
1470345720143612,-3,-12,-23,-1,-4,-4,-2,0
1470345720164632,0,1,11,-13,0,-2,-2,0
1470345720164632,0,-9,-24,-1,2,0,-1,0
1470345720166132,-2,-13,26,4,1,-2,-1,-2
1470345720166132,-3,11,-6,-4,-2,-1,-1,-2
1470345720187151,0,-4,-4,1,-5,-3,-1,-2
1470345720187151,0,-1,18,3,-1,0,-1,-1
1470345720188652,-1,5,-13,8,3,0,-1,-1
1470345720188652,1,-1,7,-3,-1,0,0,-2
1470345720201664,-1,-7,-5,-7,-2,-2,-2,-1
1470345720201664,-1,10,4,4,1,-1,-1,-2
1470345720208169,-1,0,-2,-1,-2,0,0,0
1470345720208169,1,-5,3,3,1,-1,0,1
1470345720224684,-2,1,-15,-3,-2,-2,-1,-2
1470345720224684,1,0,4,-8,-3,-1,-2,0
1470345720226186,1,2,7,1,-1,0,1,-1
1470345720226186,0,-5,-7,7,0,-1,0,-1
1470345720247205,-3,5,10,-2,0,-1,-1,-3
1470345720247205,0,5,-6,0,-3,-2,0,-3
1470345720248706,-1,2,2,-1,0,0,-3,-1
1470345720248706,0,4,2,5,1,-2,0,-2
1470345720262218,0,-5,-7,-3,0,0,-1,-2
1470345720262218,-2,-7,-2,-3,-1,-2,-1,-3
1470345720263719,1,13,-17,-6,0,-1,1,0
1470345720263719,-2,-2,24,0,-3,-2,-1,-2
1470345720284739,-1,1,11,6,-1,0,-2,-1
1470345720284739,0,12,-10,-26,-5,0,-1,3
1470345720286241,-5,-13,0,1,0,-2,-3,-1
1470345720286241,-3,4,-7,6,1,-2,-1,-2
1470345720307258,-1,-4,4,7,0,-2,1,-1
1470345720307258,-1,-5,-3,-1,0,-2,0,-1
1470345720308760,0,-5,-7,-1,-3,-1,1,-2
1470345720308760,1,2,-9,-1,-1,0,-2,-1
1470345720321272,-2,-5,-6,-12,-2,-1,-2,0
1470345720321272,-3,-6,6,9,-1,-1,-2,-3
1470345720335786,0,-3,0,-2,-3,-1,-1,-1
1470345720335786,-1,-2,5,0,1,-1,-2,-1
1470345720344292,2,0,-11,1,-1,-2,0,1
1470345720344292,-3,0,3,-3,3,-1,1,0
1470345720346293,-2,-2,-1,1,-1,-2,-1,-1
1470345720346293,-1,3,3,-7,-3,-2,0,0
1470345720367313,1,-3,-8,4,-1,-2,-1,1
1470345720367313,1,4,2,0,1,-1,0,0
1470345720368815,-2,-1,3,-3,0,0,-2,-2
1470345720368815,-4,-15,-14,-11,-4,-1,2,-3
1470345720381326,-3,-7,-4,-1,-1,-1,-1,-2
1470345720381326,-2,-2,4,10,3,0,-1,-1
1470345720388331,0,-1,-1,-7,-2,0,1,0
1470345720388331,-2,1,9,-4,-2,1,-2,-2
1470345720404846,-3,-10,0,11,-2,-2,-2,0
1470345720404846,0,-2,-9,-1,-1,0,-1,0
1470345720407348,0,0,-7,-8,-3,-2,-2,0
1470345720407348,0,0,1,4,1,-2,-2,-1
1470345720427258,-2,5,7,0,-3,-2,-1,-2
1470345720427258,1,-11,-18,-5,-1,-1,-2,0
1470345720428259,-6,0,-5,-1,-2,0,0,-1
1470345720428259,0,-1,-4,-3,-1,-1,-1,0
1470345720441270,-1,2,3,0,-1,1,-1,-1
1470345720441270,-1,1,1,0,-2,-1,-1,0
1470345720448276,0,-8,7,2,-2,-2,0,-1
1470345720448276,-1,4,-24,-2,-1,-1,-2,-1
1470345720464291,0,0,11,3,1,-2,-2,-1
1470345720464291,-1,0,-12,-7,-1,-1,0,0
1470345720466294,-1,-2,16,7,0,-1,-2,-3
1470345720466294,-3,0,-7,-1,-3,-2,-1,-1
1470345720486312,-1,1,-8,-4,0,-1,0,-1
1470345720486312,-1,0,2,0,-4,-2,-1,-2
1470345720488312,2,18,-1,-12,-1,-2,-1,0
1470345720488312,-1,-29,11,9,0,-1,-2,-2
1470345720501831,1,13,12,6,-3,-1,0,-1
1470345720501831,-2,-6,-16,-3,1,-1,0,-3
1470345720508337,0,-5,-4,1,1,-3,0,-1
1470345720508337,-3,15,9,-7,-1,0,-1,0
1470345720524355,0,-4,-6,-5,0,0,-1,0
1470345720524355,-2,-5,10,12,-1,-1,-4,-1
1470345720525356,-1,-3,-18,-5,-1,-1,-1,-1
1470345720525356,0,-1,-5,-3,-1,0,-1,0
1470345720546374,-3,-7,-4,-3,-1,-1,0,-3
1470345720546374,1,5,17,-2,-1,0,-1,-1
1470345720548379,-3,-6,0,14,-2,0,-2,-3
1470345720548379,2,12,6,-1,1,2,1,0
1470345720561388,-2,-3,-2,-2,-1,0,0,-1
1470345720561388,1,3,-6,-3,0,0,-1,-2
1470345720568394,-1,-3,6,-3,-1,-2,-1,-1
1470345720568394,-1,-3,-2,4,-3,-2,-3,-1
1470345720584408,1,2,2,-9,0,0,-1,-1
1470345720584408,-1,-4,-4,-2,-2,0,-1,-1
1470345720585409,0,0,-5,2,-2,-1,0,1
1470345720585409,-1,6,7,10,4,1,-1,-2
1470345720606934,0,-2,-14,-10,0,-1,-1,-1
1470345720606934,-5,-7,14,4,-1,-2,-1,-3
1470345720608936,0,3,-5,-6,-2,-1,0,2
1470345720608936,-1,-5,4,-1,-1,-2,1,0
1470345720621455,0,6,10,5,-2,0,-1,0
1470345720621455,-1,3,-3,-5,-1,-1,-1,0
1470345720628461,-3,-4,8,0,-2,0,-3,-2
1470345720628461,-1,1,-12,-9,-3,-4,-2,-2
1470345720644475,-1,-1,1,7,2,0,-1,-1
1470345720644475,1,-1,-7,-4,-3,0,0,-2
1470345720645476,-1,-7,-6,-5,0,-1,-1,-1
1470345720645476,-2,-7,5,-1,-1,0,-2,-1
1470345720665496,-2,-2,-5,7,0,-2,-1,-1
1470345720665496,-2,-1,-6,-6,-1,-2,-1,-1
1470345720674503,1,-1,2,0,-1,-2,-2,-1
1470345720674503,2,14,-6,-7,1,1,-2,0
1470345720680508,-1,-1,3,4,-3,-1,-1,-3
1470345720680508,-1,-9,3,0,0,-2,-1,0
1470345720689516,-1,2,-9,-4,1,-2,-1,-1
1470345720689516,-1,-10,6,9,-3,-1,-2,-1
1470345720704534,-1,0,4,2,-1,-1,-1,-2
1470345720704534,0,5,-2,-1,-2,-1,-1,1
1470345720706037,-3,-3,7,-5,-1,0,1,-1
1470345720706037,0,-1,-13,-6,0,1,-1,-1
1470345720726561,-3,-1,-8,-1,0,-1,0,0
1470345720726561,2,14,-3,3,-1,-1,-1,-1
1470345720728563,0,-1,-8,-12,-3,-2,0,0
1470345720728563,1,1,4,-4,0,1,-1,0
1470345720740574,-1,-5,2,3,-3,-1,-2,-1
1470345720740574,0,-3,1,2,1,-2,0,-1
1470345720749585,-1,-1,1,10,0,-2,-2,-1
1470345720749585,1,12,3,-4,-1,1,-1,-1
1470345720764596,-1,-19,-14,-14,-4,-2,0,-2
1470345720764596,-2,-1,-13,-8,-2,0,-2,-1
1470345720765596,-2,11,7,7,2,0,0,-1
1470345720765596,-1,-5,-10,1,0,-2,1,-1
1470345720786615,-1,-1,11,-2,-1,1,-1,0
1470345720786615,-1,-4,11,3,-2,-2,-3,-2
1470345720788617,-2,-4,-14,-4,2,0,-2,-1
1470345720788617,-2,-4,0,-2,-4,-1,-1,-1
1470345720800633,1,-5,-5,-6,0,-3,-2,-1
1470345720800633,-2,9,-11,-6,-3,-1,-1,0
1470345720809642,-2,-1,1,-4,-1,-1,-1,-1
1470345720809642,-3,-4,14,2,-1,-3,-2,-3
1470345720824663,-1,-1,-28,10,-2,-4,-2,0
1470345720824663,-1,-4,14,-17,-1,-2,-1,-1
1470345720825664,-1,-3,-14,-2,-3,0,0,0
1470345720825664,-1,1,3,-3,-2,-3,-1,-3
1470345720846681,-2,0,1,3,0,0,-2,-2
1470345720846681,-1,-2,1,10,2,-1,0,0
1470345720848685,0,-1,-3,-1,-3,-2,-2,-2
1470345720848685,-1,-9,-4,-3,-1,-1,-1,-2
1470345720860696,-2,6,5,-4,-2,-1,-2,-1
1470345720860696,-2,-5,-7,0,-2,-1,0,0
1470345720869705,-1,-1,12,2,-3,-2,-1,-2
1470345720869705,-1,-6,-12,1,-1,-1,-1,0
1470345720884717,-1,-2,-1,-4,0,-1,-1,-1
1470345720884717,-2,3,15,-3,-1,-1,-1,-1
1470345720885717,0,2,-21,-12,-3,-1,-2,-1
1470345720885717,-3,-12,0,3,-2,-1,-1,-2
1470345720907244,-2,1,-3,-10,-2,0,0,1
1470345720907244,-1,-8,-2,7,0,0,-1,-1
1470345720908746,-1,-1,4,1,0,-1,-1,-2
1470345720908746,0,7,-16,-3,-1,-1,-2,1
1470345720920764,0,1,12,1,-1,-1,0,0
1470345720920764,-1,-2,9,6,-1,-2,-1,-1
1470345720929771,-2,1,-5,6,-1,0,-2,-2
1470345720929771,0,-7,-12,-7,-3,-2,-1,-1
1470345720944784,-1,4,13,-4,1,-1,0,-1
1470345720944784,-1,1,-4,6,-1,-2,-1,-1
1470345720945785,0,-7,-6,-5,-1,-1,-2,-1
1470345720945785,1,1,0,-1,2,0,1,-1
1470345720966808,0,-4,-9,-16,-8,-2,-1,0
1470345720966808,1,-3,-3,5,0,-2,-2,-4
1470345720968809,-3,-8,6,-3,0,-1,0,-2
1470345720968809,4,-3,12,6,1,-1,0,-2
1470345720980818,-19,8,-1,-1,1,-1,-1,-2
1470345720980818,1,-14,-19,-16,-4,-2,-2,0
1470345720989825,-3,-5,4,11,2,-1,-2,1
1470345720989825,1,9,31,17,-2,-4,-2,-2
1470345721004344,2,-9,5,9,-2,-1,-2,-2
1470345721004344,2,-3,-12,-14,-3,0,0,0
1470345721006346,1,3,-14,-4,-1,1,1,-1
1470345721006346,-5,-9,-5,3,2,0,0,-1
1470345721026872,-3,3,12,-2,-3,-2,-2,-3
1470345721026872,-3,7,12,0,-1,-3,-1,-2
1470345721028875,5,2,3,4,-1,-1,-1,0
1470345721028875,0,11,3,-6,-3,-3,-1,-2
1470345721040884,-5,-10,-15,9,-1,0,-2,0
1470345721040884,-2,-1,0,4,6,1,-1,1
1470345721049894,5,2,7,-2,-3,-1,1,0
1470345721049894,1,-4,3,-12,-4,-1,-3,-1
1470345721063903,5,0,-5,6,0,-1,0,1
1470345721063903,-3,-3,0,-5,-5,-2,-3,-3
1470345721065908,-7,0,14,4,3,-1,-2,-1
1470345721065908,4,9,-21,-14,-2,0,-1,1
1470345721086924,5,16,50,0,0,0,0,1
1470345721086924,8,-5,-34,2,-4,-3,0,0
1470345721088927,-7,-9,17,-13,-1,-1,0,0
1470345721088927,-2,3,7,6,-1,-2,-2,-2
1470345721100440,-7,-25,-34,-12,-5,-4,-6,-4
1470345721100440,0,-6,-16,1,1,0,0,0
1470345721110449,2,-1,23,1,-1,0,-1,0
1470345721110449,-7,-4,6,9,-4,-3,-1,-1
1470345721123965,2,23,5,10,3,0,-1,-1
1470345721123965,2,4,24,27,1,3,1,1
1470345721125966,-4,-28,-58,-42,1,1,-1,-2
1470345721125966,-6,3,-19,-11,-3,-3,-1,-1
1470345721146985,3,-27,22,-8,-2,-3,1,-2
1470345721146985,-3,15,-14,-15,-2,0,0,1
1470345721147986,11,5,26,27,-3,-1,0,1
1470345721147986,1,20,-3,-5,2,1,-1,1
1470345721169005,0,-6,-7,2,-3,-2,-1,-1
1470345721169005,-7,-16,10,1,-1,0,-2,-5
1470345721171007,-4,5,-34,5,-3,-3,-1,-2
1470345721171007,11,27,0,-16,1,3,0,2
1470345721184018,-2,-28,6,4,0,2,0,1
1470345721184018,3,4,-15,-8,0,-1,-2,-4
1470345721186020,-13,9,-1,17,-1,-1,0,-4
1470345721186020,-3,-8,-15,-5,-1,-2,0,-1
1470345721207045,11,5,-15,-14,0,0,0,3
1470345721207045,1,23,1,-1,-2,-2,0,1
1470345721208550,8,19,33,6,-1,-2,-2,0
1470345721208550,-2,-10,-5,5,-3,-1,-2,-2
1470345721229068,-4,13,-25,-25,-5,0,0,-1
1470345721229068,-5,-28,6,16,3,-1,-1,1
1470345721231071,-3,9,3,-7,-3,-3,-2,-2
1470345721231071,-6,-16,-47,2,1,1,-1,-2
1470345721245099,3,14,-14,-9,0,0,-1,-1
1470345721245099,-5,-20,24,5,-5,-4,-3,-1
1470345721251088,-4,-1,15,9,3,-1,-3,1
1470345721251088,1,-6,-16,-21,-4,-2,-1,-3
1470345721267171,-3,0,-15,-1,2,-1,0,-3
1470345721267171,-7,-14,9,3,-2,-4,-2,-3
1470345721268103,0,5,5,0,-2,-2,0,0
1470345721268103,-3,-17,-5,6,0,-1,-2,-1
1470345721289122,-1,12,-9,-8,-2,-1,-3,-1
1470345721289122,-1,14,25,-3,-4,-1,0,-2
1470345721291127,1,-6,-20,-5,-2,0,-3,1
1470345721291127,-3,-8,12,-1,-3,-2,-1,-1
1470345721304147,-2,1,7,12,4,-1,-1,1
1470345721304147,-1,5,4,-2,0,0,-1,-2
1470345721310648,-1,-5,-11,-11,-3,-1,-2,-3
1470345721310648,0,-1,13,1,1,0,0,0
1470345721327135,-2,-1,-11,5,-2,-2,-3,0
1470345721327135,-5,-4,-10,-6,-4,-4,-4,-2
1470345721328103,2,-9,-2,6,1,0,2,1
1470345721328103,-5,3,-5,-8,-3,-3,-2,-3
1470345721349153,-1,-9,-2,1,-2,-1,-1,-3
1470345721349153,1,8,-15,-20,-1,1,-1,0
1470345721351123,-3,-2,7,-1,-2,-2,0,-2
1470345721351123,0,5,18,10,3,1,-1,3
1470345721364140,-1,-10,1,4,-1,0,1,0
1470345721364140,-1,8,-37,-13,-3,-1,-2,-1
1470345721371181,-2,-19,4,-5,-4,-1,-2,-1
1470345721371181,1,5,11,3,-2,-1,-2,-2
1470345721388156,-5,-3,2,2,0,-1,0,-1
1470345721388156,-3,4,5,2,3,-1,1,0
1470345721390159,1,-2,-15,-3,0,-2,-1,-1
1470345721390159,1,1,7,-9,-2,-1,0,-2
1470345721409690,-4,3,12,13,-2,-1,-1,-2
1470345721409690,2,-8,3,-2,0,-2,-1,-1
1470345721411189,-6,5,-8,2,-3,-1,0,-2
1470345721411189,-1,-5,1,-13,-2,-2,0,1
1470345721423763,-1,3,-8,-1,0,1,-3,-2
1470345721423763,3,14,16,-1,-1,1,0,1
1470345721430750,-3,1,0,10,-1,-4,-2,-1
1470345721430750,-2,-4,15,10,-1,-2,-1,0
1470345721446760,-1,-4,-28,-12,-3,-2,0,-3
1470345721446760,-1,-6,1,4,-2,-1,-1,-1
1470345721448763,-1,3,-2,-9,-1,-2,-2,-2
1470345721448763,-2,-8,-5,2,0,1,-1,0
1470345721469781,2,1,22,2,-2,-1,0,-2
1470345721469781,-5,0,-2,3,0,0,-1,-1
1470345721470782,1,-3,-17,-9,-3,-2,0,-1
1470345721470782,-1,0,-3,8,0,0,-1,0
1470345721483795,-1,-8,-4,-6,1,-1,-1,0
1470345721483795,7,-4,-5,-10,-4,-1,-2,0
1470345721490844,-1,6,8,12,2,1,-2,0
1470345721490844,-6,7,1,2,1,0,-1,-1
1470345721506969,4,10,-13,-6,-5,-2,0,-1
1470345721506969,-6,-24,-12,5,1,-3,-3,-2
1470345721508891,8,7,6,-7,-3,0,-2,-2
1470345721508891,1,3,1,11,-1,0,-1,-1
1470345721529481,-2,12,-6,-2,-1,-2,-2,-1
1470345721529481,0,-6,-9,-7,-1,1,0,-2
1470345721530432,-4,-6,-8,0,1,1,0,0
1470345721530432,-4,-22,-2,-4,-2,-3,-1,-2
1470345721543462,-1,10,21,3,-1,0,1,1
1470345721543462,0,8,4,-3,-4,-4,-2,-1
1470345721550505,-2,-8,-4,-1,0,0,-1,0
1470345721550505,-1,3,4,3,-1,-1,0,-2
1470345721566520,-1,-21,-22,-3,-2,-3,-1,-2
1470345721566520,-3,-1,5,-1,-1,0,0,-1
1470345721568465,-2,4,7,6,5,1,-1,-1
1470345721568465,3,-9,-12,-5,-3,-1,-1,1
1470345721589528,-2,-2,-5,-14,-3,-2,-2,-1
1470345721589528,-3,-2,20,11,-1,-2,-3,-2
1470345721590485,2,-2,1,-8,-3,-1,-1,-2
1470345721590485,-3,2,-5,5,0,-2,-3,-1
1470345721604072,0,-3,7,4,-2,-3,-2,-1
1470345721604072,-1,4,-12,-8,1,0,1,2
1470345721617597,-2,-7,2,1,-4,-1,-1,-1
1470345721617597,1,7,2,0,1,-1,-2,0
1470345721626591,-4,-13,7,6,-2,1,0,-1
1470345721626591,-2,-24,-16,-4,-2,-1,-2,-4
1470345721628593,-1,26,2,-2,-3,-3,0,1
1470345721628593,0,4,-1,-6,-3,0,0,-2
1470345721649612,-3,5,18,6,-1,1,-1,-1
1470345721649612,0,3,4,3,0,0,1,2
1470345721655622,-3,-11,-3,-3,-2,-1,-1,-1
1470345721655622,-1,-19,-7,-7,-1,-2,0,-2
1470345721662624,1,1,3,0,-2,-3,0,-3
1470345721662624,-1,4,0,4,2,-2,-1,-1
1470345721671636,-4,-4,10,3,-3,-2,-1,-1
1470345721671636,8,3,-4,6,0,1,-2,0
1470345721686645,-8,-3,2,2,1,2,0,-1
1470345721686645,-4,0,-19,-28,-4,-1,0,-1
1470345721688648,0,0,-3,5,-1,-2,-2,-2
1470345721688648,-2,-11,1,-4,-1,-1,-2,-1
1470345721709732,6,13,-3,1,0,1,0,-1
1470345721709732,5,9,10,3,-2,-1,-2,0
1470345721712253,-11,-30,0,0,-2,-1,-2,-2
1470345721712253,2,17,-5,-3,-1,-2,1,1
1470345721723302,4,11,-13,-12,-1,-2,-1,0
1470345721723302,3,10,27,20,-1,-1,-1,1
1470345721732310,9,-15,7,3,0,-1,-1,-1
1470345721732310,-28,2,1,-2,-3,-1,-1,-4
1470345721747350,-2,-10,-13,-6,-2,-3,-1,-1
1470345721747350,0,-4,1,4,1,-1,-2,-3
1470345721748324,7,8,-10,-5,0,-2,1,0
1470345721748324,-2,0,20,-6,2,2,-2,-1
1470345721769409,-7,-10,2,-4,-3,-1,-2,-2
1470345721769409,0,6,2,7,0,-1,0,0
1470345721771345,1,-1,-11,-3,-2,-1,1,1
1470345721771345,-1,-10,-8,3,-1,-1,-2,1
1470345721783434,1,2,0,-3,0,-2,-1,1
1470345721783434,-1,3,-1,-1,-1,-2,0,0
1470345721792363,-5,-2,3,2,-2,-2,-2,-3
1470345721792363,2,-20,-6,-9,0,-1,0,-2
1470345721807020,-1,14,13,7,-2,-2,-1,0
1470345721807020,-4,-18,-10,-3,0,0,0,0
1470345721808474,-2,11,-11,-4,-1,-2,-2,-1
1470345721808474,-1,-3,-3,-3,-2,-1,-1,-3
1470345721829076,1,1,-3,-2,-2,-1,-1,-1
1470345721829076,-2,0,1,2,-1,-1,0,-1
1470345721831061,-4,2,-2,-3,0,-1,-1,-3
1470345721831061,3,-2,-8,-6,-1,-1,-1,-1
1470345721843091,0,1,9,3,2,1,0,0
1470345721843091,0,5,-13,-2,-1,0,-1,0
1470345721852122,-8,-4,1,1,-1,0,-1,-1
1470345721852122,-1,5,15,10,4,-1,-2,-1
1470345721867098,-1,-6,-5,-5,2,0,1,1
1470345721867098,-1,-5,-5,-11,0,0,0,0
1470345721868094,0,-1,3,4,-3,-2,-2,-1
1470345721868094,1,14,-2,-2,-4,-1,-1,-1
1470345721889147,-3,-21,4,8,-2,-1,-1,-1
1470345721889147,-2,-6,-7,0,0,1,-1,-1
1470345721891116,1,19,-8,-8,0,-2,-1,-1
1470345721891116,3,7,13,2,-1,-2,0,0
1470345721903212,0,-14,10,-1,0,-1,-2,-1
1470345721903212,-2,8,-1,-1,-2,-1,-2,-3
1470345721912173,0,8,-8,-3,-1,1,0,1
1470345721912173,-3,-6,-9,-3,-4,-2,0,-5
1470345721926873,1,3,11,5,1,-2,0,-2
1470345721926873,-2,3,-3,-7,0,-1,0,0
1470345721928845,-1,-6,9,2,0,0,-1,-1
1470345721928845,1,-11,-11,-3,0,-1,-1,3
1470345721949842,-5,-5,-6,-5,-1,0,-3,-3
1470345721949842,-4,-4,-1,-3,0,0,0,1
1470345721950839,-6,-32,6,2,0,0,-3,-1
1470345721950839,1,6,-8,-2,-4,0,-1,-1
1470345721962905,-4,-9,-31,-8,-2,0,0,-2
1470345721962905,0,4,11,4,0,-1,-2,0
1470345721971860,-4,-14,0,-3,-1,-1,1,0
1470345721971860,1,4,3,1,-1,0,0,-2
1470345721986897,0,2,7,3,-1,-2,-1,-2
1470345721986897,-1,9,-6,-6,-1,-2,0,-2
1470345721988875,1,0,2,-1,-1,-2,-1,0
1470345721988875,3,4,-16,-7,-2,-1,-2,1
1470345722009495,-1,12,-3,-3,-1,-1,-3,-3
1470345722009495,0,-12,0,1,-1,1,1,-3
1470345722010955,2,12,4,7,1,1,2,5
1470345722010955,-3,-5,18,0,-2,-4,-1,-3
1470345722031571,0,1,3,9,0,-1,-2,-2
1470345722031571,-4,-17,-15,-5,-2,-1,-1,-1
1470345722033541,0,2,-14,-4,0,0,-2,-2
1470345722033541,1,-4,-8,-1,2,1,-1,1
1470345722046557,0,6,-7,-7,-1,-1,1,-2
1470345722046557,-4,-1,16,1,0,-1,1,8
1470345722048555,-3,-2,-23,-4,0,0,-2,-4
1470345722048555,-5,-6,16,6,1,-4,-4,-5
1470345722069607,-1,-34,-10,0,-1,2,1,0
1470345722069607,-3,-6,3,1,-2,-2,-1,0
1470345722070574,0,-4,-19,-9,-2,-1,0,-3
1470345722070574,0,2,10,-2,-1,2,0,0
1470345722091625,-4,0,-6,0,-2,-2,-3,-2
1470345722091625,-1,-4,17,9,-1,-1,-3,-4
1470345722093595,1,0,-3,-5,0,-1,-2,-1
1470345722093595,0,-1,-18,-7,-1,-3,0,-1
1470345722107113,-1,-1,12,9,-4,-2,-2,0
1470345722107113,0,3,-6,-17,0,-1,1,0
1470345722108615,2,5,3,-1,0,-1,1,0
1470345722108615,-1,-1,1,-10,-3,-1,1,0
1470345722129700,-1,-1,-19,-5,3,0,-1,1
1470345722129700,0,4,-3,0,-6,-4,-4,-1
1470345722130668,-2,-1,6,0,1,-1,-1,-2
1470345722130668,-3,-8,-8,16,-2,0,0,1
1470345722151748,-1,4,12,-2,0,1,1,1
1470345722151748,0,11,-26,8,-2,-2,-1,-3
1470345722153758,-3,-3,4,-15,-3,-1,-1,1
1470345722153758,0,-10,14,6,2,1,-2,-1
1470345722166766,1,14,-1,4,-2,1,0,0
1470345722166766,-1,0,-8,-6,2,1,-2,-3
1470345722168764,-1,-10,-6,7,-2,-1,-2,0
1470345722168764,-3,-4,2,-4,-1,-1,-1,-1
1470345722189722,-1,9,13,-3,-3,-2,-2,-2
1470345722189722,0,-2,-10,1,3,1,-2,-1
1470345722190722,-1,3,-6,3,-1,-3,-2,-2
1470345722190722,-3,-3,-12,-21,0,1,-1,-1
1470345722212249,-1,-6,18,3,-2,-3,0,-1
1470345722212249,-2,0,-11,-16,-3,-2,0,0
1470345722213250,3,6,12,0,-1,-1,-1,-1
1470345722213250,2,1,15,15,-1,-1,-1,-1
1470345722226347,-9,-5,-22,-5,0,-3,-1,-1
1470345722226347,-2,-5,0,0,-4,-2,-1,0
1470345722233352,-1,1,-4,-11,-1,-2,0,-2
1470345722233352,1,3,-9,-16,-4,0,-2,-1
1470345722249337,2,4,3,3,-1,-1,0,1
1470345722249337,6,-5,-2,-1,-3,-1,0,-2
1470345722251379,-33,-9,10,23,9,0,-2,-3
1470345722251379,2,6,-9,3,-3,-1,-2,0
1470345722271411,15,3,-5,-22,7,1,-1,2
1470345722271411,-6,-3,2,2,-3,-1,-3,-1
1470345722273358,13,0,-12,-6,-3,-2,0,-1
1470345722273358,-14,-7,1,4,-3,-3,-1,-2
1470345722286430,-3,-2,2,3,-2,-1,-1,-1
1470345722286430,7,11,0,-9,2,3,2,3
1470345722293421,6,-5,9,6,-5,-2,-3,-3
1470345722293421,-6,-1,3,2,0,-1,-1,-3
1470345722309913,-7,-7,-9,-13,-6,-2,-1,-3
1470345722309913,5,-1,21,19,4,-1,1,0
1470345722310900,2,7,-37,-26,-2,0,0,0
1470345722310900,2,-3,16,18,2,-1,0,0
1470345722332932,4,-2,-21,-18,5,2,0,0
1470345722332932,-11,-1,20,-3,-9,-3,-1,-2
1470345722333934,13,4,15,11,1,-1,1,5
1470345722333934,7,9,-17,-15,0,-1,2,0
1470345722345976,-7,-3,6,17,-1,0,-2,-3
1470345722345976,3,-3,17,4,0,-1,-2,-3
1470345722352951,-9,-10,-3,-8,-3,-1,-3,-2
1470345722352951,0,-1,-35,-6,-3,-3,-3,-1
1470345722368967,-8,-5,-1,6,-2,-3,-2,-1
1470345722368967,3,-3,2,-2,-1,1,-2,-1
1470345722370967,-4,3,10,6,-3,-3,-1,-5
1470345722370967,11,-2,-1,1,3,0,0,2
1470345722391985,2,-1,-9,-1,-2,-3,-3,-4
1470345722391985,-13,-4,-3,-9,-2,-3,-2,-3
1470345722393001,13,3,2,14,-3,0,-1,1
1470345722393001,8,2,-11,-7,-1,-1,0,0
1470345722406537,-14,2,18,-3,0,-1,-1,-2
1470345722406537,1,-14,-13,-7,-2,-1,0,-1
1470345722413517,-5,6,13,12,1,0,-1,-1
1470345722413517,-6,-2,2,-11,-5,-2,-2,-1
1470345722429082,1,6,11,-3,-6,0,2,3
1470345722429082,-6,6,-4,2,4,0,-2,0
1470345722431036,8,-7,-9,0,1,0,-2,0
1470345722431036,-1,2,-4,-4,0,0,1,-2
1470345722452054,-15,-6,10,8,0,0,-1,-3
1470345722452054,0,-1,-6,16,-2,-2,-1,1
1470345722453056,12,1,-4,-20,-3,-1,-1,2
1470345722453056,8,2,4,0,-4,-1,-1,-1
1470345722466097,-6,-13,-18,-8,-4,-2,-3,-5
1470345722466097,0,0,-10,3,2,2,0,-1
1470345722473107,-11,-5,-10,-6,-3,-2,-1,0
1470345722473107,-7,-2,-1,8,3,0,-1,-1
1470345722497150,6,9,-12,-1,-2,-3,-2,3
1470345722497150,0,-1,20,12,3,0,1,-3
1470345722498603,-2,3,2,-15,-4,-1,-1,-3
1470345722498603,-5,-5,9,8,-1,-2,-1,-2
1470345722512114,9,-2,-17,-15,-2,0,-1,0
1470345722512114,-2,-2,-9,5,-1,0,-3,-2
1470345722513616,-5,-4,-8,-10,4,1,1,0
1470345722513616,-9,0,24,15,-1,0,0,-3
1470345722525911,29,7,-12,-4,0,-1,0,4
1470345722525911,-26,-4,9,-11,-3,-1,-2,-1
1470345722532918,-2,2,4,10,-5,-3,-2,-2
1470345722532918,-7,-14,-3,1,-3,-3,-4,-3
1470345722548931,-9,10,-4,2,4,0,0,-4
1470345722548931,4,1,-10,-5,-2,-2,-1,-1
1470345722550934,-6,-7,1,-16,-3,1,-1,0
1470345722550934,-2,1,-8,1,0,2,0,1
1470345722571951,-1,-4,14,4,-3,-3,-3,-5
1470345722571951,5,-4,-29,-9,-4,-2,0,-1
1470345722573958,-6,0,4,1,0,1,-1,-2
1470345722573958,2,0,1,-3,1,-1,-1,0
1470345722585969,-2,-4,13,9,-1,0,-1,1
1470345722585969,2,0,3,2,0,0,-1,0
1470345722594972,-3,0,-7,-1,2,1,-1,-1
1470345722594972,1,0,-2,-7,1,2,0,-1
1470345722610054,-4,-5,6,4,-3,-2,-2,-2
1470345722610054,1,0,2,8,1,-2,-1,-2
1470345722610993,0,-3,4,0,-4,-4,-1,-1
1470345722610993,1,9,-1,15,-1,-2,-2,0
1470345722631785,-6,-19,-8,-28,-6,0,-1,0
1470345722631785,5,2,1,-4,-1,1,0,1
1470345722633787,4,1,9,0,-2,-1,0,-2
1470345722633787,-7,-8,-23,-4,-2,-1,-1,-3
1470345722645875,-10,18,16,18,-1,0,0,0
1470345722645875,5,0,-5,-16,1,-1,-2,-2
1470345722654804,-4,-13,-15,-11,-6,-2,-2,-2
1470345722654804,-2,-1,16,3,-2,-2,-3,-1
1470345722669860,16,1,-16,16,3,2,1,0
1470345722669860,-10,0,14,-25,-5,-1,-2,0
1470345722670818,22,13,-1,15,1,1,-1,1
1470345722670818,-9,-13,-21,-12,-6,-3,-3,0
1470345722691893,9,-5,11,-7,2,0,2,-1
1470345722691893,-6,4,-3,15,-2,0,1,0
1470345722693839,-2,-11,-29,-3,-1,-1,-2,-1
1470345722693839,-8,-2,16,-10,-1,0,0,-1
1470345722705889,-12,0,-8,-3,-1,-2,-1,-1
1470345722705889,-4,8,0,1,0,0,0,-1
1470345722716092,0,1,28,1,-5,-3,-4,-2
1470345722716092,-11,3,-5,1,3,1,1,2
1470345722729102,9,-11,-14,-3,3,-1,0,0
1470345722729102,-1,3,6,4,-1,-2,-2,-3
1470345722731104,-5,-9,6,-8,-4,-1,-1,-2
1470345722731104,7,9,10,2,-1,-1,-1,0
1470345722752125,5,1,-4,6,-3,-2,-3,-1
1470345722752125,0,-8,-7,-15,-1,0,0,-1
1470345722753125,-4,8,2,7,-2,-2,0,-1
1470345722753125,4,-2,2,-2,-3,-2,-3,0
1470345722765136,-11,-6,3,-3,0,-1,-1,0
1470345722765136,4,2,-11,6,-2,-3,-2,-1
1470345722774144,-8,-8,7,6,5,1,0,0
1470345722774144,2,15,-10,-11,-3,-3,0,-2
1470345722789186,-4,-1,1,5,-2,-2,-1,-1
1470345722789186,0,0,0,-4,-3,-2,0,0
1470345722791187,0,-5,3,-5,6,2,0,0
1470345722791187,0,-5,-4,16,0,-3,-1,-2
1470345722812209,-1,-1,-7,-15,-4,-3,-1,0
1470345722812209,2,-4,1,-2,0,1,1,1
1470345722813683,-10,-1,-17,-4,-7,-2,-1,-2
1470345722813683,4,-2,11,11,2,3,0,0
1470345722834030,-1,5,19,23,2,-2,-2,0
1470345722834030,-8,-5,-5,-17,-5,-5,-2,-3
1470345722836034,1,4,-6,7,5,-1,-2,0
1470345722836034,5,8,-25,-15,0,-1,-1,-1
1470345722849044,-6,-24,17,-12,0,2,0,-2
1470345722849044,6,0,6,5,-2,-3,-1,-4
1470345722851047,-5,9,-3,6,0,-2,-3,0
1470345722851047,10,-3,17,-3,-2,-1,0,2
1470345722872078,-21,-11,-30,6,-2,-1,-3,-7
1470345722872078,11,-4,0,-6,1,1,-1,-1
1470345722874177,-3,-5,9,5,-4,-4,-3,-2
1470345722874177,-4,-1,-22,-12,-1,-1,-2,0
1470345722894139,4,0,22,4,-3,-3,-4,-1
1470345722894139,-10,9,-5,3,1,-1,-2,-3
1470345722896089,5,-1,-6,-3,0,1,2,-2
1470345722896089,-5,-5,-11,-16,-3,-1,-2,-2
1470345722909658,2,3,6,3,-3,-1,-1,-1
1470345722909658,2,-6,-8,7,1,1,-2,1
1470345722911164,0,11,14,1,-1,0,1,0
1470345722911164,-5,-12,-1,-10,-3,-2,-2,-2
1470345722931827,0,6,-12,-7,-2,1,-2,0
1470345722931827,1,-2,19,7,0,-1,0,1
1470345722933831,-4,4,-17,-8,-2,-1,-1,-2
1470345722933831,-6,-2,8,3,0,-1,-2,-1
1470345722945882,5,9,-3,7,-1,-1,1,1
1470345722945882,-3,-3,8,-8,-2,-1,-3,-2
1470345722954848,-4,-8,4,5,-1,0,0,-1
1470345722954848,1,2,-3,-6,-3,-3,-1,-3
1470345722969863,2,1,-9,-8,-3,-1,-1,2
1470345722969863,-2,-1,-1,-8,-1,-1,-1,-2
1470345722970863,-1,-2,-8,20,0,0,1,0
1470345722970863,-1,-3,15,4,-1,0,0,-2
1470345722991880,0,4,1,19,7,1,1,-1
1470345722991880,-3,-6,-17,-25,-4,-1,0,1
1470345722993916,3,-3,-5,0,-6,-2,-2,0
1470345722993916,-3,0,7,6,2,2,-2,-2
1470345723013934,2,-1,-21,-24,0,0,1,-1
1470345723013934,0,-3,5,30,0,-3,-1,-3
1470345723016243,-5,-1,10,-19,0,-3,-2,-3
1470345723016243,12,1,-17,-1,-2,-1,1,3
1470345723029276,-10,-3,18,11,2,1,-1,-3
1470345723029276,-19,-5,-12,-2,2,1,-2,-1
1470345723035293,-2,2,16,-9,-2,-1,-1,1
1470345723035293,4,6,0,8,-1,-1,0,-1
1470345723052275,-7,-20,-5,-26,0,0,-3,-1
1470345723052275,13,15,6,6,-3,-1,1,2
1470345723054277,-6,-3,-13,-2,1,1,1,-3
1470345723054277,-6,-5,-7,-1,-2,0,-1,-3
1470345723074326,-13,2,1,0,-4,-2,0,-3
1470345723074326,5,-6,0,12,2,0,-2,0
1470345723076298,12,3,-3,-9,2,0,-2,3
1470345723076298,-1,-5,12,-3,-5,-2,-2,-1
1470345723089306,7,5,-8,1,-1,0,0,-1
1470345723089306,-13,-4,-4,-4,-2,-2,-2,-2
1470345723091324,10,-5,-5,5,-2,-1,-1,0
1470345723091324,3,-1,-9,-11,1,-2,-1,0
1470345723112335,-4,-2,7,7,-7,-5,-2,0
1470345723112335,25,3,3,-4,1,0,1,4
1470345723113850,-49,-2,-30,-3,-2,0,-2,-9
1470345723113850,-5,-2,-6,6,1,-1,-2,-3
1470345723134956,9,-1,15,-1,-2,-1,-2,-1
1470345723134956,3,6,-16,-14,-2,0,0,2
1470345723135953,12,-11,22,10,-1,-2,-3,-1
1470345723135953,-8,0,-19,-1,-2,-2,-1,-3
1470345723148966,9,16,14,-1,-1,1,-1,-1
1470345723148966,-4,6,-7,3,0,-2,-1,-4
1470345723150966,-1,-12,7,-4,1,0,1,1
1470345723150966,-2,15,14,16,-1,-1,0,0
1470345723171985,14,-9,-14,-12,-2,-3,-2,0
1470345723171985,-19,-6,1,-3,-3,-3,-1,-2
1470345723173987,9,2,12,1,1,0,1,0
1470345723173987,-15,-1,9,5,1,-2,-2,0
1470345723194029,-2,-9,-30,-12,-1,-1,-2,-2
1470345723194029,1,-14,-6,4,1,0,-3,-2
1470345723194029,-15,5,29,1,-2,-5,-3,-3
1470345723194029,-1,-8,-11,-12,3,0,-3,-1
1470345723208575,-4,9,15,10,5,1,1,1
1470345723208575,1,-4,-2,-10,-7,-2,0,0
1470345723216130,8,5,-14,0,1,0,1,1
1470345723216130,0,-2,-1,-2,-3,-1,0,-2
1470345723231142,-2,0,-1,-3,-3,-1,-1,-2
1470345723231142,0,-9,-20,15,5,-1,-2,-2
1470345723232145,3,8,-1,-23,-5,-1,0,0
1470345723232145,19,1,4,-4,2,-2,0,3
1470345723254166,-12,-6,11,11,-2,-2,0,0
1470345723254166,-1,1,-2,1,-4,0,0,1
1470345723254166,-7,-3,-13,2,-1,0,-3,-4
1470345723254166,6,-2,0,-8,0,0,0,-2
1470345723268223,9,4,-7,-4,-2,-3,0,1
1470345723268223,-2,-1,39,11,-2,-2,-2,0
1470345723284190,9,2,-13,0,2,-1,-1,1
1470345723284190,-1,-4,-14,4,4,2,0,0
1470345723291197,-2,6,-5,-10,-3,0,-2,1
1470345723291197,-8,-3,2,1,-2,1,-2,-4
1470345723292198,7,-4,-8,-11,-3,-1,-2,0
1470345723292198,-7,-3,23,12,-4,-1,-3,-1
1470345723314293,-5,-1,3,0,1,1,1,-2
1470345723314293,3,-1,-13,-7,4,-1,-1,-1
1470345723314293,3,0,4,6,-1,0,1,-1
1470345723314293,-6,-2,-20,-8,-4,-1,0,-1
1470345723327588,-6,-2,19,11,-5,-3,-2,-2
1470345723327588,3,2,-16,-4,1,1,-1,0
1470345723336596,-7,-8,6,-8,-1,0,-1,-2
1470345723336596,-5,-6,-1,-1,-2,-1,-1,-1
1470345723351610,1,-2,-11,5,2,-1,-1,-1
1470345723351610,-3,-1,-3,-4,-2,-3,-2,-4
1470345723351610,-3,0,-8,10,1,1,-2,1
1470345723351610,0,-3,1,-16,-7,-2,-1,-2
1470345723373649,0,-3,0,-16,-2,-1,-1,-1
1470345723373649,-2,-4,6,21,0,1,-1,0
1470345723374630,-3,0,-12,-4,2,-1,-1,0
1470345723374630,-3,0,8,3,0,1,-1,-1
1470345723388649,-1,1,-8,-15,-7,-3,-1,-1
1470345723388649,-2,-2,-5,-13,-1,-1,-1,-1
1470345723395652,3,-1,0,2,-2,-1,-1,-1
1470345723395652,-2,-2,1,5,0,0,0,-4
1470345723411172,-5,-1,2,13,-1,-1,-2,-1
1470345723411172,-1,0,-3,-5,-1,0,1,1
1470345723412173,-1,0,1,-5,-5,-3,-2,-2
1470345723412173,-2,0,6,1,-1,-3,0,-1
1470345723433445,-1,-1,-8,-2,0,0,-1,-1
1470345723433445,0,-2,3,-9,-3,-1,0,-2
1470345723434417,-1,2,-1,2,-1,-1,1,-1
1470345723434417,-2,-3,-5,-2,-1,-1,0,0
1470345723448428,3,-2,-2,0,7,2,-1,0
1470345723448428,-3,13,3,4,-1,0,-4,-1
1470345723456447,-3,-27,-3,-5,0,-1,0,0
1470345723456447,2,8,2,9,-3,-2,-3,-2
1470345723471491,-2,0,-7,-12,-3,-2,0,-1
1470345723471491,-1,-12,0,-6,-3,-1,-3,-1
1470345723471491,2,16,4,4,1,-1,0,1
1470345723471491,-2,-4,-11,-13,-2,-3,-1,-1
1470345723493532,-2,-20,12,2,2,1,0,-1
1470345723493532,-2,32,17,5,-2,-2,-3,-3
1470345723494496,-1,-7,-7,1,-4,-2,-2,-1
1470345723494496,-2,-11,6,-1,3,1,-2,0
1470345723508512,0,11,-5,1,-2,-2,-1,1
1470345723508512,-2,-12,-4,-9,-1,-1,-1,-2
1470345723516522,-3,-4,-16,-5,-1,0,-2,-2
1470345723516522,2,4,11,4,1,1,-2,1
1470345723531536,-5,-10,-1,4,0,-2,-1,-1
1470345723531536,-2,-4,5,11,-3,-3,1,-1
1470345723531536,0,8,-2,6,-1,-2,0,-1
1470345723531536,2,-2,-9,-6,-2,-1,-1,0
1470345723553599,2,1,-10,6,3,1,0,-1
1470345723553599,-1,-9,0,-15,-3,-2,-2,-2
1470345723554558,1,3,-5,-9,-3,-2,0,1
1470345723554558,-2,-1,10,0,-4,-4,0,-2
1470345723567570,1,1,-14,6,-2,-1,-1,-2
1470345723567570,-2,-5,-5,-3,-2,-2,-1,-2
1470345723576576,-1,-5,1,-8,0,1,-3,-2
1470345723576576,0,0,2,6,-1,-2,0,0
1470345723591590,-2,-8,-9,-6,-1,0,-1,-1
1470345723591590,0,9,0,4,-1,0,-1,0
1470345723591590,-3,4,8,1,-2,-2,-2,-1
1470345723591590,-3,3,-7,-6,3,0,0,-2
1470345723614126,0,0,7,-5,-3,0,0,-2
1470345723614126,1,-12,-8,8,-2,-2,0,1
1470345723614126,0,-3,-6,-3,-1,-2,-1,-4
1470345723614126,-4,3,6,5,1,-1,-1,-2
1470345723628313,-1,-4,-8,-7,-3,-2,0,0
1470345723628313,-6,3,-9,-3,-1,0,-1,0
1470345723636320,6,-1,6,-3,-2,0,-1,1
1470345723636320,1,-8,-5,-1,-2,-2,-3,-4
1470345723651332,1,-5,-4,-4,-1,-1,-2,-1
1470345723651332,-24,-6,14,11,1,1,-1,-4
1470345723652334,-5,16,-4,-7,-2,0,0,0
1470345723652334,-2,-7,-14,-10,0,1,-1,1
1470345723673371,8,5,23,3,-2,-3,-1,0
1470345723673371,7,-1,-9,-8,0,0,0,2
1470345723674353,-2,6,14,21,0,0,1,-2
1470345723674353,0,-10,-14,-4,-1,0,0,1
1470345723688365,-6,12,3,7,1,-2,-2,0
1470345723688365,3,-15,-6,-21,-2,0,-1,-1
1470345723696388,1,13,7,5,-2,-3,-2,-1
1470345723696388,-2,-11,0,-2,-6,-2,-1,-2
1470345723711444,-3,14,-12,2,0,0,0,1
1470345723711444,1,-27,-25,-4,-3,-3,-2,-5
1470345723712395,2,8,-2,-1,5,1,-1,1
1470345723712395,1,-25,3,-13,-4,-4,-2,-3
1470345723733587,-8,20,2,5,2,0,-1,-1
1470345723733587,2,3,26,8,-1,0,-1,2
1470345723734508,-1,-10,-27,-10,-2,-1,-1,-1
1470345723734508,0,30,-4,3,-3,-1,0,1
1470345723748521,2,-29,-11,-9,-2,-2,-2,-3
1470345723748521,2,10,15,7,-1,0,-1,0
1470345723756529,-5,-19,-3,-1,2,-1,0,-1
1470345723756529,6,30,1,1,2,1,0,0
1470345723771542,-4,-16,18,2,-2,0,0,-1
1470345723771542,1,1,-23,-8,1,1,0,-1
1470345723771542,1,13,27,3,-4,-3,-3,-3
1470345723771542,-5,-3,-14,-2,-2,-3,-2,-2
1470345723793632,-1,1,4,3,1,1,-1,-2
1470345723793632,-1,0,-8,3,-1,-2,-1,-2
1470345723794589,-2,-15,-10,-10,-2,0,0,0
1470345723794589,-1,0,-13,-7,-2,-1,0,-2
1470345723808082,0,-14,10,15,-2,-2,-2,-4
1470345723808082,3,-1,3,-19,0,-1,-1,0
1470345723815996,-1,13,4,1,0,-1,-1,1
1470345723815996,-6,-4,8,9,-2,-1,-2,-1
1470345723831004,0,-3,-8,4,3,0,-1,-1
1470345723831004,1,2,-8,0,-4,-3,0,-2
1470345723832005,-2,-7,-1,3,6,0,1,-1
1470345723832005,-3,-6,13,4,-1,-1,-1,0
1470345723854025,0,4,-5,-9,-2,-1,0,-1
1470345723854025,5,6,4,8,3,-2,5,0
1470345723854025,-10,-12,-13,-8,-5,-4,-12,-3
1470345723854025,0,0,4,0,1,-1,0,-1
1470345723868036,1,10,-1,-5,-1,-1,-1,0
1470345723868036,-4,-23,-5,-1,-1,-1,-2,-1
1470345723876046,3,8,1,4,-3,0,3,1
1470345723876046,-2,-3,-5,2,0,1,-3,0
1470345723891087,-1,8,-3,-8,-2,-2,-3,-2
1470345723891087,-4,1,-4,-20,-8,-1,-2,0
1470345723892059,4,-15,-8,0,3,1,1,-1
1470345723892059,-3,-9,25,8,-4,-4,-3,-5
1470345723914094,2,6,-5,12,8,1,1,-1
1470345723914094,1,8,10,5,1,-2,-3,-2
1470345723914591,0,-5,10,-2,-6,-4,0,0
1470345723914591,4,3,-15,-11,-3,-1,-2,1
1470345723927636,0,-8,-3,-9,-1,-1,0,-1
1470345723927636,-16,-5,5,3,-3,-2,-1,-3
1470345723936688,2,-3,1,-4,-1,-1,-2,0
1470345723936688,-1,-2,0,3,0,-1,0,-1
1470345723950637,4,2,0,-9,-3,-2,-2,0
1470345723950637,3,4,-6,15,1,-1,-2,-1
1470345723951638,-1,-1,-4,-12,-4,-1,1,-2
1470345723951638,-4,-11,-8,-13,2,0,-1,-1
1470345723973692,-1,-11,-6,-2,-2,-2,0,-2
1470345723973692,3,6,2,11,0,1,0,0
1470345723974660,-5,-1,5,-2,-3,-3,0,0
1470345723974660,1,-2,-8,4,-1,0,0,-1
1470345723996736,-6,-2,-18,-8,-2,0,-2,0
1470345723996736,3,4,-5,-8,-1,-1,-1,-1
1470345723997679,2,3,28,13,3,0,1,-3
1470345723997679,-2,3,-8,8,-4,-1,-2,2
1470345724011277,-3,5,-3,-3,-6,-1,1,1
1470345724011277,-6,-18,-25,-23,-2,-3,-2,-2
1470345724012298,3,9,4,12,0,-2,-1,-1
1470345724012298,0,0,3,-11,-1,-1,-1,1
1470345724034219,-21,-3,3,2,-1,-1,-1,0
1470345724034219,8,-6,-12,-8,-3,-1,-1,-2
1470345724034219,-10,3,-9,3,-1,-2,-2,-5
1470345724034219,2,-16,6,4,3,0,-1,1
1470345724057240,8,4,-11,-1,-3,-2,-1,0
1470345724057240,-1,5,0,2,3,2,1,0
1470345724057240,2,-4,-4,1,2,2,0,-1
1470345724057240,-4,0,-7,-3,0,-1,0,-3
1470345724071252,-2,12,31,10,-3,-4,0,-1
1470345724071252,0,-12,-3,3,0,0,0,-2
1470345724072254,-2,-7,-11,-5,-3,-1,-1,-1
1470345724072254,-1,2,-16,-10,1,-1,1,0
1470345724093287,0,-3,1,-3,0,-1,0,0
1470345724093287,0,5,4,5,-2,-2,-2,-2
1470345724094294,2,-5,-3,-2,0,0,0,-1
1470345724094294,-2,2,5,3,-4,-3,-1,-1
1470345724117233,-1,-4,-9,-4,1,0,0,-1
1470345724117233,3,8,7,9,-1,-2,-1,1
1470345724117233,-2,-11,-6,-7,2,-3,-1,2
1470345724117233,-1,-3,0,-6,0,0,0,-1
1470345724131212,-1,6,1,2,-6,-2,-3,-2
1470345724131212,1,0,4,-6,-1,-1,1,-1
1470345724132215,-6,3,2,16,-2,-3,-1,-2
1470345724132215,0,-4,3,-3,3,2,0,1
1470345724154237,2,-8,-5,-6,-2,-3,-3,-1
1470345724154237,-4,4,4,0,-3,-1,-3,-1
1470345724154237,-4,0,-5,-2,-4,-1,-2,-1
1470345724154237,4,3,0,-5,0,-1,0,2
1470345724177336,0,-1,1,0,0,-1,-1,-3
1470345724177336,-3,-3,11,5,2,-1,0,-1
1470345724177336,-1,-3,-4,-2,-3,-1,-3,-3
1470345724177336,-2,7,-9,-11,-4,-1,-1,-1
1470345724191285,6,-4,-2,2,1,-2,-1,0
1470345724191285,-1,5,9,4,-4,-5,-2,-4
1470345724192269,-1,-2,-10,-8,-1,0,1,2
1470345724192269,-4,-5,18,6,-1,-2,-2,-2
1470345724214293,2,7,-14,-11,0,-1,-1,-1
1470345724214293,-1,-3,-4,-5,0,0,0,-1
1470345724214793,3,-1,3,-3,0,0,0,-1
1470345724214793,-4,5,-1,12,-4,-3,-2,-4
1470345724244929,-3,-15,4,-25,-4,-1,-2,-1
1470345724244929,-3,-2,-9,7,2,-1,-1,2
1470345724244929,-2,-1,-10,-12,0,-1,0,-2
1470345724244929,1,5,14,19,-1,-2,-3,-3
1470345724250911,-7,-11,2,1,2,2,1,1
1470345724250911,10,20,-1,-7,-4,-2,0,-2
1470345724251911,-8,-9,-27,-3,1,2,0,-2
1470345724251911,-4,-10,32,7,-4,-3,-4,-1
1470345724273931,-4,-29,-21,-6,-4,-1,-2,-4
1470345724273931,9,17,-18,-15,-2,0,-1,1
1470345724274933,-18,-2,40,20,-1,-2,-4,-4
1470345724274933,-3,-1,-8,-7,0,-2,-1,-3
1470345724297041,2,3,-2,12,1,-1,0,-1
1470345724297041,1,-10,-4,-14,1,0,2,3
1470345724297952,4,2,2,-6,-4,-2,-2,-1
1470345724297952,0,0,-2,3,1,1,0,0
1470345724311505,1,9,9,14,-1,0,-1,1
1470345724311505,-15,-8,-12,-2,-4,-1,-2,-3
1470345724312476,6,2,2,-13,-5,-2,-2,0
1470345724312476,0,2,-11,-11,3,-1,0,0
1470345724334144,2,1,0,3,2,1,-1,-2
1470345724334144,-4,-5,-2,7,-3,-1,0,1
1470345724334144,2,-1,8,5,0,0,0,-1
1470345724334144,2,1,8,-7,-6,-1,0,-2
1470345724357163,0,9,-9,6,-3,-1,1,1
1470345724357163,-1,-11,3,-2,1,1,-2,-4
1470345724357163,-10,1,-20,-9,-3,0,0,2
1470345724357163,7,4,6,0,2,1,-1,-2
1470345724371221,-4,-4,11,12,-3,-3,-1,-2
1470345724371221,1,-9,11,5,0,-1,-2,0
1470345724372175,1,-1,-14,-6,-1,-2,1,-2
1470345724372175,1,5,-12,1,0,0,-1,1
1470345724394217,2,0,-12,-13,-1,-1,0,2
1470345724394217,-11,-17,15,0,-4,-3,-3,-4
1470345724394217,-3,-5,-1,2,0,-1,-1,0
1470345724394217,-1,-2,-6,-12,-1,1,-2,-1
1470345724417507,-2,13,15,2,1,-1,0,1
1470345724417507,3,-21,-7,4,0,-3,-3,-1
1470345724417507,6,25,3,-3,1,1,-1,-3
1470345724417507,-10,-13,-8,5,-5,-4,-1,-5
1470345724431441,4,0,-5,-12,0,0,-1,1
1470345724431441,-3,7,19,19,0,-2,-1,-1
1470345724432429,0,-5,-5,-6,1,0,0,3
1470345724432429,6,0,-1,0,-1,-1,-1,1
1470345724453493,-22,-9,-6,-9,0,-1,-2,-6
1470345724453493,-2,7,-5,-14,-2,0,0,2
1470345724454499,7,-8,7,9,0,-3,-4,-3
1470345724454499,0,-15,-13,-5,-3,-3,-2,-3
1470345724476478,0,6,11,5,-2,0,1,1
1470345724476478,6,-1,8,6,-2,-2,0,-1
1470345724477470,-15,-1,-4,-4,-2,-1,1,-2
1470345724477470,-1,-8,-1,-4,-1,-1,-1,1
1470345724491484,4,3,-16,1,0,-2,-1,2
1470345724491484,4,24,20,-3,0,0,0,-2
1470345724491484,6,-2,-20,5,-1,-1,-1,0
1470345724491484,-5,-2,2,-6,-1,-2,0,-1
1470345724514041,-1,-12,5,-3,0,0,-2,-2
1470345724514041,-6,1,-28,-13,-1,1,-1,1
1470345724514537,3,5,33,25,0,-2,0,-1
1470345724514537,-4,10,8,1,2,2,-1,1
1470345724537090,3,-3,-7,1,-5,-2,-3,-3
1470345724537090,-2,-9,-7,-8,0,1,-1,0
1470345724538063,-2,-6,-6,-6,-1,1,-1,-4
1470345724538063,-1,-1,-11,7,2,0,0,0
1470345724551080,3,-7,-3,-32,-6,-1,0,-2
1470345724551080,1,2,5,10,5,-2,-1,-1
1470345724559082,3,0,-6,-1,-3,0,0,-1
1470345724559082,-3,2,-19,1,0,-3,-2,-2
1470345724574100,-2,4,0,5,0,1,1,1
1470345724574100,-2,3,1,-4,-2,-2,-3,0
1470345724574100,-4,-4,-1,-1,-2,-3,-1,-2
1470345724574100,4,1,1,-3,-1,-1,-1,-3
1470345724597171,-2,14,1,1,1,0,-3,1
1470345724597171,5,-5,1,-2,-2,-1,1,1
1470345724597171,-1,-1,-1,2,-2,-3,-1,-1
1470345724597171,-5,-7,-27,-16,-4,-1,-2,-2
1470345724610721,-1,-5,4,8,0,-3,1,0
1470345724610721,-3,-9,7,6,1,-1,0,-1
1470345724618837,4,12,3,-5,-1,-1,-1,-1
1470345724618837,-4,-5,16,5,-2,-1,-1,-1
1470345724633868,-1,-5,-20,-6,-2,-1,-2,-5
1470345724633868,-3,-2,-1,0,-3,-1,-2,0
1470345724634820,0,-2,3,-4,0,1,-1,-1
1470345724634820,-1,-1,4,10,-2,-1,-1,0
1470345724656884,-1,-6,4,-3,0,-3,-3,0
1470345724656884,-3,2,-11,7,3,1,0,0
1470345724657830,-4,-2,3,-14,-1,-2,0,0
1470345724657830,3,4,-7,0,-1,-1,1,-1
1470345724670867,-4,-11,13,5,-2,-3,-2,-2
1470345724670867,1,5,-3,-5,-1,1,1,-2
1470345724678853,-3,-9,-8,-4,-4,-4,-2,-2
1470345724678853,-1,-2,-12,-3,-2,-1,-1,1
1470345724693863,1,10,-7,-3,1,1,-1,-2
1470345724693863,1,2,9,-3,-4,-1,-2,-1
1470345724694866,4,-4,5,4,0,2,0,1
1470345724694866,-6,3,-4,-2,0,1,0,-3
1470345724717400,0,-7,1,-5,-5,-3,-1,-1
1470345724717400,8,14,3,5,-1,0,-1,2
1470345724717400,3,-5,4,-1,0,-2,-1,0
1470345724717400,-5,-6,-6,-3,-1,-2,-1,-2
1470345724730412,-1,23,-3,2,0,0,0,-1
1470345724730412,-4,-10,-9,-3,-3,-2,-3,-3
1470345724738436,6,3,10,4,-2,0,0,1
1470345724738436,2,-3,13,1,0,-2,-2,-1
1470345724753457,-1,-8,1,11,3,1,0,-1
1470345724753457,-3,-6,-4,-22,-2,-3,-3,-3
1470345724754466,-4,-6,-8,4,1,-1,0,0
1470345724754466,0,2,-5,-3,-1,0,-1,0
1470345724777457,-1,0,17,7,-1,-3,-2,-1
1470345724777457,-6,-2,-11,3,1,-1,0,-3
1470345724777457,2,-7,-18,-10,0,-1,-2,-2
1470345724777457,3,31,12,8,-3,-2,-2,-1
1470345724790465,-5,-6,10,0,-1,1,-2,-3
1470345724790465,0,-9,-25,-5,-2,0,-2,-2
1470345724798528,-5,1,-2,-6,-2,-1,-3,-4
1470345724798528,-3,-5,12,-4,-2,0,1,-1
1470345724813998,2,-6,-15,1,-2,0,-3,3
1470345724813998,4,-1,0,-4,-4,-4,-3,-1
1470345724814493,-27,12,0,3,-2,2,4,9
1470345724814493,1,0,2,-1,0,0,-1,-6
1470345724837341,0,-7,4,-1,0,-3,0,3
1470345724837341,-4,-14,12,4,-2,-1,-1,-1
1470345724837341,10,-3,-17,-7,-1,-2,-3,-3
1470345724837341,-4,-7,-3,-5,1,-2,-1,-3
1470345724850405,-5,2,-4,-4,-3,-1,-2,-3
1470345724850405,3,3,10,1,-1,0,1,1
1470345724858412,2,-2,-13,6,-2,-2,-2,-4
1470345724858412,-2,-3,6,-6,1,1,-1,1
1470345724873392,3,-6,-5,6,-3,-2,-2,-2
1470345724873392,-6,5,-6,28,-4,-2,-2,0
1470345724874371,0,-4,20,-17,-1,-2,-2,-2
1470345724874371,-3,-2,0,-25,0,0,2,-1
1470345724897392,1,-8,-18,15,1,1,0,-1
1470345724897392,-3,0,-11,-6,-3,0,1,0
1470345724897392,-1,0,-4,-3,-4,-1,-2,-3
1470345724897392,3,3,1,-3,-4,-2,0,-1
1470345724919013,-2,-8,-2,-6,1,-2,0,-3
1470345724919013,-4,6,-20,-11,2,0,1,-2
1470345724919975,3,-11,-3,10,0,0,-2,-1
1470345724919975,2,9,13,6,-1,-2,-1,2
1470345724933989,0,3,3,4,0,-2,0,-1
1470345724933989,0,2,3,-10,0,0,-1,-1
1470345724933989,2,-4,7,-3,-2,-2,1,1
1470345724933989,-3,-2,-7,7,-2,-1,-3,0
1470345724957009,-2,-1,-16,-9,-3,-2,-1,-2
1470345724957009,1,-2,14,-2,-1,-1,-1,0
1470345724958009,-1,7,1,5,2,3,1,0
1470345724958009,1,-17,-8,1,0,-1,-2,1
1470345724979028,2,3,21,-15,-4,2,1,0
1470345724979028,-7,0,-3,6,-5,-2,-2,-1
1470345724980030,12,-3,-9,-8,-1,0,0,-1
1470345724980030,-11,-5,-12,-4,-2,2,-1,-3
