timestamp,emg1,emg2,emg3,emg4,emg5,emg6,emg7,emg8
1470243052131945,-2,1,16,-1,-3,-1,-1,-2
1470243052131945,1,1,8,1,1,-1,-1,0
1470243052132946,-2,0,4,0,1,0,-1,0
1470243052132946,-4,-18,-1,-4,-3,0,-2,-2
1470243052135448,4,9,-4,1,0,-1,-2,-1
1470243052135448,0,-5,-4,-1,0,1,0,0
1470243052136448,-5,-5,2,0,-3,0,0,-1
1470243052136448,6,8,-12,-4,-1,-3,-2,0
1470243052137951,0,-6,28,5,-1,0,-2,-2
1470243052137951,-3,8,-10,-3,-2,-1,0,-2
1470243052165975,1,-9,3,-1,-3,-2,-3,-3
1470243052165975,-1,-3,-6,0,2,-1,-1,2
1470243052167477,-1,-13,-5,-5,0,-2,1,-1
1470243052167477,-1,11,8,-2,0,0,-2,-3
1470243052168978,4,-7,-8,-1,-1,0,-2,0
1470243052168978,-3,6,9,0,-1,-2,-1,-1
1470243052178488,-7,0,-14,-4,-3,1,-1,-1
1470243052178488,-3,-7,5,1,-3,-2,-2,-4
1470243052195001,-1,-1,-16,-4,-1,0,-2,-3
1470243052195001,-2,-3,24,4,-1,-1,-1,-1
1470243052196504,0,0,-13,-2,0,-1,-1,0
1470243052196504,1,-2,-6,-2,-1,-3,-1,1
1470243052217523,-4,6,1,-3,2,-2,0,-1
1470243052217523,-1,17,-1,-1,-1,-1,0,-2
1470243052247551,-10,-3,-25,-9,-5,2,1,0
1470243052247551,5,-10,-2,-1,0,0,-1,-1
1470243052255557,-3,-7,6,5,0,-1,-3,-2
1470243052255557,-3,1,4,1,0,-2,1,1
1470243052256057,7,-3,1,-1,-1,-2,-2,-1
1470243052256057,1,10,-7,-3,0,0,-1,0
1470243052257558,-4,-13,-5,-5,-2,-1,-1,-2
1470243052257558,-1,-4,10,0,-2,-1,-1,-1
1470243052268068,1,-2,-33,-5,-1,-2,-3,-1
1470243052268068,-3,2,1,0,-1,0,0,-1
1470243052277075,-4,-2,5,-7,-2,1,-1,0
1470243052277075,3,6,2,7,-2,-2,-2,-2
1470243052283081,0,-1,7,-2,-1,0,0,-2
1470243052283081,-8,-4,8,2,-1,-3,-1,0
1470243052298594,2,6,-12,1,0,-2,0,0
1470243052298594,-5,-1,-11,-3,2,1,0,-2
1470243052305601,-2,-5,14,4,1,1,1,1
1470243052305601,0,-4,-24,-4,-3,-3,0,-2
1470243052320615,2,1,11,4,1,-2,-1,-1
1470243052320615,-1,5,-6,-5,-3,-1,-1,0
1470243052328122,-4,-4,12,3,0,-1,0,-2
1470243052328122,2,0,1,-2,-1,-1,-1,-1
1470243052344135,-1,-3,-2,-3,-2,-1,-1,-1
1470243052344135,1,24,0,-2,-2,0,-1,-1
1470243052344636,-6,-23,-1,1,-2,-2,-2,-2
1470243052344636,-1,2,6,0,-1,1,-2,-2
1470243052366656,-1,-10,-8,2,-1,0,0,-1
1470243052366656,0,-5,8,-2,-1,0,-2,-1
1470243052367156,2,-1,-11,-2,-3,-3,0,-2
1470243052367156,-5,0,-24,-5,-2,-3,0,-1
1470243052388675,1,2,7,4,-1,0,-1,-2
1470243052388675,2,-9,-5,-7,-2,-1,-1,0
1470243052389677,-1,10,13,1,-2,0,-2,0
1470243052389677,-4,-17,7,1,-1,0,-2,0
1470243052403690,1,5,-10,-4,-3,-2,-3,-1
1470243052403690,0,-4,0,0,-1,-1,-1,-2
1470243052404690,1,5,0,-3,-1,1,0,1
1470243052404690,-1,0,-1,-1,-2,-1,-1,-1
1470243052426210,0,1,10,-1,0,0,0,-2
1470243052426210,-3,-6,-7,-2,-3,-3,-1,-2
1470243052427211,0,-2,10,2,-1,-3,-2,-2
1470243052427211,3,-15,-8,-3,-2,-1,0,-1
1470243052448731,-5,10,-1,-4,-2,-2,-2,-1
1470243052448731,-2,-7,-8,-2,-1,0,0,-1
1470243052449731,5,8,3,0,1,-2,0,-1
1470243052449731,-3,-15,8,0,0,1,-3,0
1470243052463744,-1,0,14,2,0,0,-1,1
1470243052463744,-3,-4,-13,-2,-1,-1,-2,-1
1470243052464744,-4,2,6,5,-1,0,0,-1
1470243052464744,1,19,8,-3,-1,-2,-1,0
1470243052486263,-1,-5,0,-1,-1,-1,0,-1
1470243052486263,1,-6,1,1,-2,-2,0,-1
1470243052487264,-1,-1,-4,0,1,-2,0,-2
1470243052487264,-3,12,4,-2,-2,-2,-1,-2
1470243052508783,-3,-7,-7,0,-1,0,-2,-2
1470243052508783,-3,-5,-9,-2,-1,-2,0,-1
1470243052509784,0,6,5,-4,-2,-1,-1,0
1470243052509784,0,-4,-24,-3,-1,0,0,-3
1470243052523797,0,3,-5,-5,-2,-1,-1,-1
1470243052523797,-3,-6,-6,1,-1,1,-1,-2
1470243052524797,-1,6,5,3,0,-1,0,0
1470243052524797,-2,-3,-3,-8,-3,-1,-2,0
1470243052546318,-3,-11,-19,-1,-2,-1,-1,1
1470243052546318,-2,-4,7,-2,1,0,-1,0
1470243052547318,-2,1,-3,-2,-1,-1,-2,-2
1470243052547318,-2,-5,7,3,1,0,-2,-1
1470243052569338,0,7,16,3,0,-1,-1,-1
1470243052569338,-4,-2,-3,-2,-2,-1,-4,-1
1470243052569840,-2,-6,-8,-6,-1,-1,0,0
1470243052569840,-1,3,-7,1,-1,0,-1,0
1470243052583851,2,-4,-7,-1,0,-1,-1,-1
1470243052583851,-1,3,8,0,-2,-2,-1,-2
1470243052584851,1,6,23,1,-1,-1,-1,-1
1470243052584851,-2,-2,-22,-6,0,-1,-1,-2
1470243052606372,-1,2,-9,-2,-3,-3,1,-1
1470243052606372,-2,5,17,6,1,-1,-1,-1
1470243052607372,-1,-10,-9,-4,-2,1,-2,-1
1470243052607372,-3,-1,27,6,-1,-2,-1,-1
1470243052628892,-1,3,-3,3,0,0,-1,-1
1470243052628892,0,-10,-11,-7,0,0,0,0
1470243052629392,2,2,-2,-1,-1,1,-1,-1
1470243052629392,-2,16,9,2,-2,-1,-1,-1
1470243052643904,-2,1,-2,-4,-2,-2,-1,-1
1470243052643904,-2,7,1,4,-1,0,0,-2
1470243052644405,-3,-16,-3,1,0,-2,-1,0
1470243052644405,-2,2,-20,-7,-2,-4,-1,-2
1470243052681939,-3,-22,-10,-3,0,0,1,-1
1470243052681939,4,7,5,-3,-1,-1,-1,0
1470243052682940,-1,10,3,0,-2,-2,-3,-1
1470243052682940,-1,-12,0,1,-1,1,0,1
1470243052688945,0,0,9,2,-3,-2,-3,0
1470243052688945,-3,-10,0,4,-3,-1,0,0
1470243052689445,-1,1,-15,-7,0,-1,-1,-1
1470243052689445,1,5,17,4,-3,-2,-1,-2
1470243052711966,1,10,-5,-3,2,1,-2,-2
1470243052711966,-3,-4,9,-3,-1,1,0,-2
1470243052712967,-3,3,0,2,-2,-2,1,-2
1470243052712967,-2,-3,-21,-4,0,1,-1,1
1470243052726479,0,-2,7,-1,1,-1,-2,-1
1470243052726479,0,18,-8,-1,-2,-2,-2,-3
1470243052727479,-2,-10,4,1,-3,0,1,2
1470243052727479,0,-7,9,1,1,0,0,-1
1470243052748999,-1,4,-5,0,-3,-2,0,-1
1470243052748999,0,-7,-5,-4,-1,1,-1,-1
1470243052749499,-2,-2,3,1,-1,0,-3,-1
1470243052749499,0,0,23,8,-1,-1,-3,-1
1470243052764014,-1,0,-5,-3,-2,1,0,-1
1470243052764014,-1,-1,2,1,-2,-1,-1,-2
1470243052764514,1,-5,-16,-8,-2,-2,0,0
1470243052764514,-3,-10,9,-2,0,-1,-2,0
1470243052786532,-2,-5,-9,1,0,-2,-4,-1
1470243052786532,-2,-3,-13,-10,-1,-2,-1,-2
1470243052787033,1,12,3,-1,-1,-1,-2,0
1470243052787033,0,5,-5,-2,-2,0,0,0
1470243052809053,-2,3,9,-3,0,-3,-1,-2
1470243052809053,-3,-6,-10,-1,-1,-2,-2,-1
1470243052809554,-4,-5,5,1,-2,-2,-2,-2
1470243052809554,1,6,-8,-8,-2,0,-2,-1
1470243052824066,-2,4,19,4,-3,1,0,0
1470243052824066,2,-12,2,1,-2,2,-2,1
1470243052824567,0,14,1,-2,0,-1,-2,-2
1470243052824567,1,-4,5,3,-2,-1,-1,-1
1470243052847090,0,7,-12,-4,-3,1,0,0
1470243052847090,0,1,1,-3,0,-1,0,0
1470243052847592,-1,-5,-6,-5,-1,0,0,0
1470243052847592,-4,0,15,9,-2,-2,-2,-1
1470243052877114,-1,1,7,-5,-1,-2,-1,-3
1470243052877114,2,-1,-13,1,-1,0,0,0
1470243052878115,-1,0,-1,-2,2,0,1,-1
1470243052878115,-2,-3,-10,-6,1,-1,-1,-1
1470243052884120,0,2,3,1,1,0,-1,-1
1470243052884120,-4,0,-3,0,-1,-1,0,-1
1470243052884621,-1,-8,-4,0,-1,-1,-1,0
1470243052884621,-1,0,-3,0,-3,-4,-1,-1
1470243052906640,-3,-5,-1,-2,-1,-1,-2,-1
1470243052906640,-1,9,11,-1,0,-1,-1,0
1470243052907142,-2,-9,-7,2,-2,-1,-2,-1
1470243052907142,0,-6,2,-4,-1,-1,0,-2
1470243052929161,0,9,-12,-3,-2,-1,-1,-1
1470243052929161,-2,4,10,0,-1,-1,-1,-1
1470243052929661,-1,-10,2,1,-2,-1,-3,-3
1470243052929661,-2,-17,-12,-4,-1,3,1,-1
1470243052943173,-3,8,8,1,-2,-1,-3,-3
1470243052943173,0,-1,-33,-6,-1,-3,-2,-1
1470243052958687,1,5,-10,-4,-1,-1,0,1
1470243052958687,1,1,2,2,0,0,-1,-1
1470243052966194,-5,-21,-2,-2,-2,-1,1,-1
1470243052966194,1,2,7,-4,-1,0,-1,0
1470243052967195,-4,-5,0,-1,-2,-1,-1,0
1470243052967195,-1,7,6,6,0,0,1,-2
1470243052988714,1,-2,-16,-4,1,1,-2,0
1470243052988714,-5,4,11,0,-2,-3,-3,-2
1470243052989715,-2,-15,-5,-4,-2,0,-2,-2
1470243052989715,-3,1,-3,-4,0,-3,-1,-1
1470243053003227,0,-5,0,3,-2,0,1,-3
1470243053003227,1,-10,-4,0,1,0,-1,-1
1470243053011235,-1,5,3,-2,0,0,-1,0
1470243053011235,1,13,1,0,0,-1,-2,0
1470243053026248,-1,-8,1,0,1,-1,1,1
1470243053026248,-1,1,-3,-1,-2,-1,-1,0
1470243053027249,0,8,9,4,-1,0,-1,-1
1470243053027249,-3,-19,2,1,-1,0,-2,-3
1470243053048768,1,4,10,0,0,1,-2,0
1470243053048768,1,-1,8,3,0,0,-1,0
1470243053049769,-1,-1,-7,-1,-1,-2,-1,-2
1470243053049769,-3,-2,-7,-7,-1,-1,-2,-1
1470243053072289,3,4,3,-1,-2,0,-3,-1
1470243053072289,-4,-10,-1,0,-2,-3,-2,-3
1470243053072790,0,4,-8,-1,-3,-1,-2,-1
1470243053072790,-3,-4,-15,-6,0,-2,-2,-1
1470243053086302,0,1,7,0,-1,-2,-2,0
1470243053086302,-1,-6,-12,-3,-3,1,-1,1
1470243053087303,0,-2,3,-4,-2,0,-1,-1
1470243053087303,1,8,10,0,0,0,0,1
1470243053108823,-2,-12,-33,-7,-1,-1,-1,-1
1470243053108823,0,6,12,3,-1,-1,-1,0
1470243053109822,-1,-6,-5,-2,1,-3,-1,0
1470243053109822,1,7,3,-1,-3,-1,-1,-2
1470243053123335,-6,-8,5,-2,-2,-2,-2,-3
1470243053123335,-2,2,5,4,-1,-1,0,-1
1470243053131844,-2,-15,-2,-2,-1,-2,-2,-3
1470243053131844,1,7,-2,0,-2,-2,-1,1
1470243053154364,-2,9,9,0,-1,0,1,0
1470243053154364,-3,-6,1,0,-2,-1,-3,-1
1470243053155364,-3,0,0,-2,0,-1,-1,-3
1470243053155364,-1,-7,-2,2,0,1,-2,-1
1470243053168876,2,5,-4,-4,-2,-1,-3,-1
1470243053168876,-2,-6,-6,-1,0,-1,0,-1
1470243053169377,-1,10,1,-1,-1,0,-2,-1
1470243053169377,-2,-5,-8,-1,-3,-3,-2,0
1470243053183388,-1,-4,-4,-5,-3,0,-1,-2
1470243053183388,-2,-1,15,4,-1,-1,-1,-2
1470243053191396,-1,3,-1,-2,-3,-1,-2,-1
1470243053191396,0,-2,-21,-5,-2,-1,-1,-1
1470243053206409,-5,3,2,4,1,-1,0,-2
1470243053206409,-1,0,-3,-4,-1,-1,1,-2
1470243053207410,-4,-3,2,3,-4,-2,-2,-1
1470243053207410,-2,-3,8,-1,1,0,-1,0
1470243053228429,1,-1,-6,-2,-1,-3,-2,-2
1470243053228429,-3,-9,6,-1,-1,-1,-1,-1
1470243053237437,3,13,-6,1,0,1,-1,-1
1470243053237437,-3,-25,6,1,-4,-3,0,-2
1470243053251952,-1,0,-7,-3,-4,-2,-2,-1
1470243053251952,-5,-3,-1,0,-1,-1,0,-1
1470243053253451,1,1,7,1,1,-1,-2,-1
1470243053253451,1,0,-11,-5,0,0,-1,0
1470243053274471,-2,-10,-3,-4,-3,-2,0,-2
1470243053274471,1,1,1,-1,-2,-1,-1,-2
1470243053276473,-4,-18,1,1,-1,-1,0,1
1470243053276473,1,15,5,1,0,-1,-1,1
1470243053288483,0,-2,-4,-2,-1,-1,-1,2
1470243053288483,1,7,-7,1,0,-1,-1,-2
1470243053296991,-3,-1,-1,-7,-5,-2,1,0
1470243053296991,0,5,3,-1,1,0,-1,-2
1470243053312006,-2,-1,-6,-1,1,-1,-1,0
1470243053312006,0,3,8,-3,-2,-1,-2,0
1470243053314006,-1,-1,-1,0,0,0,0,-1
1470243053314006,0,-3,0,4,-2,-2,0,-1
1470243053334525,-1,1,2,-2,0,0,0,-3
1470243053334525,0,0,-8,-3,0,0,-1,2
1470243053336527,-3,-16,-3,-2,-1,-2,-2,-1
1470243053336527,-4,10,5,-3,-1,0,-1,-1
1470243053348537,0,-3,-3,2,-1,-1,0,-1
1470243053348537,1,-4,6,1,-2,-1,-1,-3
1470243053357045,-1,-1,-18,-5,0,-2,-2,-2
1470243053357045,-3,5,-12,-1,-1,0,0,-2
1470243053372058,-2,-17,-7,-2,0,-2,-1,1
1470243053372058,1,1,6,0,1,1,-1,0
1470243053373560,-3,9,5,2,-2,-1,0,0
1470243053373560,-2,-2,5,-2,-2,-1,-1,-3
1470243053394578,-1,6,4,4,-2,-1,0,0
1470243053394578,-2,1,-15,-8,-3,-1,-1,-1
1470243053396081,-2,-15,-20,-3,-1,-2,-1,0
1470243053396081,0,2,8,0,-2,-1,-1,1
1470243053408592,0,0,-1,0,1,2,1,1
1470243053408592,1,19,3,1,0,-1,-3,1
1470243053417099,-4,2,7,0,-3,-1,-2,0
1470243053417099,-4,-11,0,1,0,-2,0,0
1470243053432115,-1,0,2,0,-1,0,-1,-3
1470243053432115,0,-6,2,2,-1,-1,-1,0
1470243053433615,0,5,-22,-4,-2,0,1,-1
1470243053433615,-3,2,3,-3,0,-2,-2,-2
1470243053462140,-3,6,15,2,0,-1,-2,-2
1470243053462140,-2,-11,-31,-7,-3,-2,0,-3
1470243053463641,0,6,39,7,1,-1,-2,-2
1470243053463641,-2,-11,-11,-1,0,-1,-1,0
1470243053468145,-2,-1,-1,-2,-3,-2,0,-1
1470243053468145,-2,-1,5,2,0,-2,-2,0
1470243053477653,-1,0,0,-1,0,0,-1,0
1470243053477653,1,-2,-10,-3,-1,-1,-1,-3
1470243053492166,-1,-2,11,1,-2,-2,-3,-2
1470243053492166,-3,-7,-24,-4,-2,0,-1,-2
1470243053493668,-1,-1,-1,-2,1,-1,1,-1
1470243053493668,-2,8,20,3,-1,0,-2,-1
1470243053514687,0,-4,-2,0,-3,-2,-1,-2
1470243053514687,-2,-4,-13,-3,-1,-2,0,1
1470243053516188,-2,-20,7,2,-1,1,1,-1
1470243053516188,4,12,-14,-10,-2,-1,-1,2
1470243053528199,-2,-3,10,1,-2,-1,-2,-1
1470243053528199,-2,-1,6,-1,-2,-1,-5,-1
1470243053537207,0,0,8,6,0,0,-1,-2
1470243053537207,-4,-5,-3,-1,-1,0,-1,1
1470243053552220,0,4,-17,-7,-1,-1,0,-2
1470243053552220,0,-3,9,0,-1,0,0,-1
1470243053553721,0,10,-12,-5,-3,0,0,-2
1470243053553721,-2,-19,-9,-4,-2,-2,1,-2
1470243053574740,0,7,7,2,-1,-1,-3,1
1470243053574740,-1,-2,1,-1,-1,-2,-1,-2
1470243053576242,-1,8,9,1,-2,-2,-3,0
1470243053576242,0,-2,1,0,-1,-2,-1,0
1470243053588254,-2,-9,-9,-1,1,1,-1,0
1470243053588254,1,3,12,-1,-1,-2,-1,-1
1470243053597261,1,-3,-9,-4,0,-2,-1,0
1470243053597261,1,7,3,-2,0,-3,-1,-2
1470243053612273,-1,-11,15,2,-3,-2,-2,-1
1470243053612273,-1,17,4,0,0,1,-1,1
1470243053613775,-1,-3,-2,-2,-2,-2,0,0
1470243053613775,-1,0,-1,-1,0,0,-1,-3
1470243053635410,-4,2,-7,-3,-1,-2,0,-1
1470243053635410,-2,-9,3,1,0,0,1,-1
1470243053636796,0,1,-2,-2,-1,-1,-1,-2
1470243053636796,0,-1,-6,1,-1,0,-2,-2
1470243053648335,-1,-6,-2,-4,-1,-2,-1,-2
1470243053648335,-2,-2,6,1,-2,-2,0,-3
1470243053657327,0,0,-13,-4,-1,-2,-1,1
1470243053657327,-2,-1,-1,0,-2,-1,-1,-1
1470243053671829,0,0,-3,0,0,0,0,0
1470243053671829,-1,-6,-8,-2,-2,-1,-1,-2
1470243053673829,-2,2,-2,-4,-1,-1,-1,-1
1470243053673829,0,4,-12,-3,-1,-1,2,-1
1470243053694348,-1,-7,-1,-5,0,-1,-2,-2
1470243053694348,-3,-2,7,5,-2,-1,-1,0
1470243053696350,-6,-8,-5,-1,-1,-1,0,-1
1470243053696350,-5,2,15,1,-1,0,-1,2
1470243053708366,1,4,-17,-6,-1,-1,-1,1
1470243053708366,0,-4,-4,-4,-1,-2,-2,-2
1470243053717368,3,5,10,2,-1,-3,-1,0
1470243053717368,-1,-7,-17,-3,1,1,-1,-1
1470243053739888,-3,5,-3,-1,-1,-1,-1,-1
1470243053739888,2,6,4,1,-2,0,-1,-1
1470243053741390,-2,-8,8,0,-2,-1,-1,-2
1470243053741390,-1,1,2,-2,-1,0,0,-2
1470243053754902,-2,-5,-9,-1,-1,-2,-1,-2
1470243053754902,1,-6,-5,-3,1,0,-1,1
1470243053756403,-3,4,-3,-3,-1,0,0,-4
1470243053756403,-1,-5,2,0,-1,0,-2,0
1470243053768413,0,10,1,2,0,0,-1,-1
1470243053768413,-1,-1,-5,-2,0,0,-2,-1
1470243053777422,0,1,-5,-5,-2,-1,0,-1
1470243053777422,-2,6,18,4,-3,-2,-2,-2
1470243053791935,2,-3,4,0,1,-1,-1,0
1470243053791935,-3,1,0,1,-2,-1,-3,0
1470243053793437,0,2,-4,0,-1,-1,-2,-1
1470243053793437,-2,-3,-6,0,0,-1,-1,-1
1470243053814455,1,-1,-12,-5,-1,0,1,-2
1470243053814455,-4,-6,11,1,1,0,0,-1
1470243053816457,-1,6,10,7,-2,-2,-1,-1
1470243053816457,-2,-23,-15,-3,0,0,-2,0
1470243053828468,1,9,3,-2,-2,-2,-2,-3
1470243053828468,0,-2,-7,-2,0,0,-1,-2
1470243053836976,0,0,-1,-6,0,-1,-3,-1
1470243053836976,-1,-5,1,1,-1,-2,-2,-1
1470243053852490,-2,2,12,3,-2,0,-1,2
1470243053852490,-1,3,-11,-6,0,0,-2,-1
1470243053853491,1,-3,-4,-1,1,-1,0,-1
1470243053853491,0,4,8,-2,-2,-1,-2,-3
1470243053874509,2,-2,-3,-2,-2,0,-1,-2
1470243053874509,-3,3,11,2,-3,-2,-2,-1
1470243053876012,-2,-13,-9,0,-2,-1,0,3
1470243053876012,-1,5,-7,-4,-2,-2,-1,0
1470243053897030,-2,-8,2,1,-1,0,0,-1
1470243053897030,-3,0,-9,0,1,-1,0,0
1470243053898531,-1,-1,8,-6,-1,-1,0,-2
1470243053898531,-2,4,6,3,-1,-1,1,0
1470243053912544,-2,3,-5,2,-1,0,-1,-2
1470243053912544,-3,-18,-11,-5,0,-2,1,0
1470243053914546,-2,5,0,-3,0,0,-1,-1
1470243053914546,3,-13,2,-1,2,1,0,-1
1470243053934565,-5,9,-8,-4,-5,-3,-1,-1
1470243053934565,0,6,3,3,-3,-2,-2,0
1470243053936065,-2,-2,-9,-1,-1,0,-1,0
1470243053936065,0,-7,-3,-4,-1,-2,-1,0
1470243053957085,-3,-12,-4,-1,0,-1,-1,-1
1470243053957085,-1,-2,-6,-7,-3,1,-1,-1
1470243053958585,-2,-5,-4,3,-3,-1,-1,-2
1470243053958585,1,10,-3,-1,-2,0,-1,-2
1470243053972098,-2,-4,3,0,-2,-2,-2,-2
1470243053972098,-2,-3,-1,1,-2,0,-1,0
1470243053973599,0,3,-1,-2,-1,1,-1,-1
1470243053973599,-3,-1,0,0,-2,0,-2,-2
1470243053994617,0,-3,6,-3,0,-2,-1,0
1470243053994617,-2,-3,-7,-2,0,-4,0,-2
1470243053996119,-3,-14,3,3,0,-2,-1,-1
1470243053996119,0,2,-2,0,0,0,-1,0
1470243054017157,2,-15,11,1,-1,-1,-1,1
1470243054017157,0,13,-25,-7,-3,-1,-3,-1
1470243054018639,2,-2,4,-2,0,-2,-1,0
1470243054018639,-1,2,5,2,-2,-3,0,-2
1470243054031650,0,-5,-6,1,-1,-1,-1,-2
1470243054031650,-1,-2,-6,-3,-2,-2,-2,0
1470243054038156,-1,3,-2,0,-1,-1,-1,-1
1470243054038156,-4,-4,-6,-8,-1,-2,-2,-1
1470243054054687,1,-2,2,0,1,-2,-3,2
1470243054054687,4,1,8,1,1,-1,0,-1
1470243054056172,-4,-4,-5,-1,-2,0,-2,-2
1470243054056172,-3,-1,5,0,-1,0,-1,-1
1470243054077208,-1,4,-3,1,-1,-2,0,-1
1470243054077208,-7,-8,5,-2,-2,-1,-2,-3
1470243054078693,1,-1,-4,-2,-1,-1,-3,0
1470243054078693,-1,0,-3,-1,0,-1,-1,-1
1470243054091789,0,4,-3,-2,-1,-1,-1,0
1470243054091789,0,-5,7,1,-1,-2,-1,-1
1470243054098225,-4,-14,-10,-6,-1,0,-1,0
1470243054098225,-1,28,11,3,0,0,-1,-2
1470243054114725,-5,2,5,5,-2,1,1,-1
1470243054114725,-1,-1,1,-1,0,-1,-1,-2
1470243054116227,-1,3,-4,-1,-2,-1,-1,-1
1470243054116227,1,-5,-8,-2,-1,-2,0,2
1470243054137245,0,-3,-5,-5,-2,-2,0,-2
1470243054137245,-1,13,-1,0,-1,-1,-2,-2
1470243054138747,3,10,17,2,2,-1,1,-3
1470243054138747,-7,-31,-27,-1,-3,-3,-3,-2
1470243054151762,0,6,-3,-1,-2,-1,0,1
1470243054151762,-2,-5,1,0,-1,0,-1,-1
1470243054158265,-1,6,-1,0,-1,-2,-1,-2
1470243054158265,0,-1,3,-1,-1,1,0,0
1470243054174782,-1,-3,-3,-1,-2,-1,-2,0
1470243054174782,-2,-2,-12,-7,-1,1,-1,0
1470243054176295,2,-7,9,3,-1,-2,-1,1
1470243054176295,-1,12,11,3,-1,-1,-2,-2
1470243054197299,-3,-9,-2,1,-3,-1,-2,-1
1470243054197299,0,0,0,2,1,0,1,2
1470243054198800,-2,0,-2,-5,-1,0,0,-2
1470243054198800,1,-6,-3,-3,-1,-2,-1,0
1470243054211313,-1,12,-1,-2,2,-1,1,-1
1470243054211313,-1,-1,8,3,-3,-1,0,-1
1470243054218336,2,4,-1,1,-2,-2,-1,-1
1470243054218336,-1,1,4,0,-1,0,-1,0
1470243054234847,-5,-11,-7,-3,1,0,-3,-2
1470243054234847,-1,-4,3,1,-2,-2,0,-1
1470243054236365,0,1,-6,-1,-1,-3,0,0
1470243054236365,-2,0,-1,-1,-2,-2,0,-2
1470243054257413,-2,-1,5,-1,0,-2,-1,-2
1470243054257413,-2,-3,-2,-1,-1,-1,1,0
1470243054258858,-1,-2,-18,-8,-2,0,0,-3
1470243054258858,-1,-1,33,7,-1,0,1,1
1470243054271422,-2,5,-15,1,-1,-2,-1,0
1470243054271422,-2,-15,2,0,-2,-2,-1,1
1470243054278374,-2,3,-9,0,-2,-2,-1,-2
1470243054278374,1,-3,-12,-8,-1,0,-2,-2
1470243054294887,-1,3,8,-1,0,0,0,-3
1470243054294887,-3,3,1,-2,0,-2,-2,-2
1470243054296389,-1,0,-3,0,-1,0,-1,0
1470243054296389,0,-13,-7,-3,-2,0,-1,0
1470243054316923,0,2,2,2,-2,-1,-1,-1
1470243054316923,0,-13,-1,-2,-1,-1,-2,-1
1470243054318908,-2,18,6,2,-2,-2,-1,-2
1470243054318908,1,10,-2,1,0,-1,-1,0
1470243054330919,1,-11,-8,-3,-2,1,-1,-1
1470243054330919,0,0,3,-3,-3,-2,-1,-1
1470243054339927,-2,-11,-5,0,-3,-2,-1,0
1470243054339927,-3,-7,6,1,0,0,1,-1
1470243054354440,-2,9,1,0,-1,-1,-1,-2
1470243054354440,2,8,-1,0,0,1,-1,-1
1470243054356451,-3,-20,-3,-5,0,0,-1,1
1470243054356451,1,3,-2,-3,-1,0,-2,-1
1470243054377506,0,-6,1,-1,1,-1,0,0
1470243054377506,-1,-8,4,0,0,0,-1,0
1470243054378962,-2,25,-21,-5,-3,-3,-2,-2
1470243054378962,0,-3,-9,-1,-2,-2,-1,-3
1470243054390977,1,-3,4,-4,-2,0,-2,-2
1470243054390977,-1,7,4,1,0,-1,-1,0
1470243054399501,-2,-7,6,2,0,2,0,-2
1470243054399501,0,-5,-5,-2,-1,-1,1,-3
1470243054414516,-1,14,-2,-4,-2,-1,-1,-1
1470243054414516,0,-13,-7,-2,-2,0,-1,-2
1470243054416559,0,-6,8,3,-1,-2,-1,-1
1470243054416559,-2,6,-3,-1,-2,0,-1,-1
1470243054437061,0,-11,-2,1,0,0,0,0
1470243054437061,-1,0,2,-2,0,-2,0,-2
1470243054438515,1,13,9,-1,0,-1,-2,-1
1470243054438515,1,-1,13,3,-1,-1,0,0
1470243054451030,-5,0,-22,-4,-2,-1,-2,-1
1470243054451030,1,5,2,2,-1,-1,-3,-1
1470243054467052,-1,-5,-5,-3,-2,0,-1,0
1470243054467052,0,1,3,-1,1,-1,-2,-1
1470243054474564,-2,-5,18,5,-3,-1,-1,-2
1470243054474564,-1,5,-20,-1,-2,0,-2,-1
1470243054476051,-3,-18,10,-2,-1,-1,-3,-1
1470243054476051,-3,-15,-19,-7,-2,-2,-1,-1
1470243054497075,-1,1,0,-2,0,-1,-1,-3
1470243054497075,-2,-1,2,-1,-2,0,1,0
1470243054498603,0,7,-6,-2,0,1,-1,1
1470243054498603,-6,-8,-18,-3,-1,-2,-2,-2
1470243054511080,1,1,3,-5,-1,-2,1,1
1470243054511080,0,1,6,2,-2,-2,-1,-1
1470243054519639,1,-3,11,2,0,0,-1,-3
1470243054519639,-9,-4,0,-2,-3,-3,-2,-2
1470243054534618,1,8,-6,1,-1,-1,-1,1
1470243054534618,-1,-14,4,0,0,-2,-2,-2
1470243054536103,-1,11,-4,-3,-1,-1,-2,-1
1470243054536103,2,2,2,-2,0,0,1,0
1470243054557124,-3,-5,1,-2,1,-2,-1,-1
1470243054557124,-2,0,-8,-3,-1,-1,-1,-1
1470243054558624,-3,-4,6,0,0,-1,-2,-2
1470243054558624,-1,-2,3,2,-1,0,0,0
1470243054571149,2,28,-4,-3,-2,0,-3,-1
1470243054571149,-4,-15,2,-3,-1,-1,-1,-2
1470243054579643,0,-3,-27,-1,-3,-1,-1,-1
1470243054579643,2,6,-2,-1,-2,-1,-2,-1
1470243054594656,-2,-14,1,0,0,-1,0,-2
1470243054594656,-1,4,1,-2,-3,-3,-3,1
1470243054596159,-3,0,1,-3,-2,0,0,-2
1470243054596159,0,-8,-12,-5,-3,-2,-2,-3
1470243054617249,-2,0,2,3,-2,0,-1,-1
1470243054617249,-4,-11,-2,-2,-2,-1,0,-1
1470243054618701,2,-3,-4,-3,-1,-1,-1,-1
1470243054618701,0,8,2,-2,-1,-1,-1,-1
1470243054631192,-4,-9,-4,-1,-2,-1,-2,-2
1470243054631192,1,8,10,0,-1,0,0,-3
1470243054639708,-3,-6,4,4,-1,-2,-2,2
1470243054639708,-1,0,0,-1,0,1,-1,-3
1470243054654743,0,0,-3,-3,1,-1,-1,-2
1470243054654743,2,-3,-16,-6,0,0,1,-1
1470243054656212,-3,-2,12,-2,-3,-2,-1,0
1470243054656212,-3,0,7,4,0,-1,0,0
1470243054677284,-2,4,-15,-2,-4,-2,0,1
1470243054677284,-2,-8,1,1,1,0,-1,-1
1470243054678733,-1,-1,0,-4,1,-1,0,-1
1470243054678733,2,14,2,-1,-3,-2,-1,0
1470243054690755,-1,-12,5,0,0,-1,0,-1
1470243054690755,0,14,1,-2,-1,-1,-2,0
1470243054699767,-3,-9,10,6,1,0,-1,-3
1470243054699767,0,-5,-10,-2,-1,-1,0,-1
1470243054714848,-2,-9,-4,-1,-2,-1,-3,-1
1470243054714848,-2,8,-12,-3,-3,-1,-2,-2
1470243054716268,-2,-8,-2,-3,-1,1,1,-2
1470243054716268,-1,0,-1,0,-1,0,-1,0
1470243054744835,1,4,-3,-2,0,1,-3,-1
1470243054744835,-1,-11,27,5,0,-3,-1,1
1470243054746293,-2,1,-17,-1,-2,-4,-2,-3
1470243054746293,-3,-13,14,3,-1,1,0,0
1470243054750798,0,-1,-11,-4,-2,1,-1,0
1470243054750798,-1,7,-7,-2,-2,0,0,-3
1470243054759805,3,-10,-2,-4,-1,-1,0,-1
1470243054759805,0,4,1,-2,-2,-2,-1,-2
1470243054774817,2,-7,-1,1,0,-3,0,-1
1470243054774817,-1,3,1,1,-1,0,1,-1
1470243054776319,-3,-8,-7,-5,-3,-2,0,-2
1470243054776319,0,3,-3,4,-2,-1,-2,0
1470243054796838,-2,-6,-9,-5,-1,0,0,0
1470243054796838,1,4,16,3,-2,-2,-2,-2
1470243054798841,0,2,-15,-2,-2,-2,-1,0
1470243054798841,-1,-4,-2,-3,2,-1,-1,-1
1470243054819858,-1,3,7,-2,0,-2,-2,-1
1470243054819858,-4,-6,-9,-3,0,-1,0,-1
1470243054821359,-1,5,6,3,-1,-1,-1,-1
1470243054821359,-2,-2,-4,-1,-3,0,0,-1
1470243054834871,1,-5,2,0,-1,-1,1,-2
1470243054834871,1,9,-11,-3,0,-1,1,0
1470243054836373,-1,0,9,0,-2,0,-1,0
1470243054836373,-1,-3,3,-1,0,-1,-3,0
1470243054856892,-1,5,-12,-2,0,-1,-1,1
1470243054856892,0,-19,-8,-3,-1,-1,0,-2
1470243054858393,0,8,3,-2,0,-1,-1,-3
1470243054858393,0,4,-5,-4,0,-1,-1,-1
1470243054879912,-1,-12,18,1,-1,-2,0,-1
1470243054879912,-2,4,-24,-5,-1,0,-1,-1
1470243054881413,-3,-5,28,8,-3,-2,-2,-2
1470243054881413,-3,2,-14,-5,1,-2,0,-2
1470243054901933,0,-4,7,0,0,0,0,-2
1470243054901933,-5,0,-11,-4,-1,-1,-1,-3
1470243054903433,2,1,-3,-3,-1,-1,-2,1
1470243054903433,-1,-4,1,-1,-1,-2,-2,-2
1470243054917445,-4,3,2,0,-1,-3,-1,-1
1470243054917445,-1,-5,-1,1,-3,-2,-1,1
1470243054918947,0,2,-10,0,0,-1,-1,-2
1470243054918947,-2,0,3,-1,-2,0,-1,-1
1470243054939968,1,0,-4,-3,-2,0,-1,-2
1470243054939968,-2,-10,4,0,-3,-3,-3,-1
1470243054941536,-2,-1,-4,-1,-1,0,1,1
1470243054941536,0,-4,-2,0,-2,-1,0,-1
1470243054953995,-1,5,-1,-3,-2,0,-2,0
1470243054953995,0,0,6,1,0,0,-1,-1
1470243054960984,0,-1,0,-2,0,-1,-2,1
1470243054960984,-3,-7,-1,-2,-1,0,-1,0
1470243054976999,-3,2,-10,-4,0,-2,-1,-2
1470243054976999,1,-1,16,-1,-1,-1,-2,-1
1470243054979001,-3,-1,-15,-1,-2,-2,1,0
1470243054979001,0,-4,2,-1,-3,0,-3,-2
1470243054999520,-1,-3,-12,-4,-2,-1,-2,0
1470243054999520,-1,-5,2,-1,-2,0,0,-1
1470243055001020,-1,-1,-1,-4,0,-1,-1,-2
1470243055001020,-3,-2,4,0,0,-3,0,-1
1470243055014032,0,9,-1,-1,-1,-2,0,-1
1470243055014032,0,6,0,-6,0,0,-1,0
1470243055021038,0,-4,2,-1,-1,0,-2,-1
1470243055021038,-1,20,1,-1,-1,1,1,-1
1470243055037069,2,-6,5,4,-2,0,1,-1
1470243055037069,-1,-3,-9,-2,-2,-1,-1,0
1470243055038555,-3,0,8,1,-1,-1,-1,-3
1470243055038555,-2,-12,-2,-4,-2,-2,-3,0
1470243055060083,-4,-6,-4,2,-1,-1,-2,-2
1470243055060083,-1,8,4,0,1,0,-1,0
1470243055061075,4,-1,-7,-3,0,0,-2,0
1470243055061075,-2,-3,-1,0,-1,1,-1,-2
1470243055074086,-2,-4,10,3,-2,-1,-3,-3
1470243055074086,-3,3,-3,-2,-2,-2,-2,-1
1470243055081092,-2,-8,-4,-5,-1,-2,-1,-2
1470243055081092,1,1,-4,-1,0,-1,0,-1
1470243055097623,-2,-1,8,1,-1,-2,1,1
1470243055097623,-1,3,9,3,-1,0,0,-1
1470243055098609,-3,-5,-35,-2,-1,-2,0,0
1470243055098609,2,1,16,0,1,-1,0,-1
1470243055119690,-2,-9,-14,-2,-3,-1,0,-1
1470243055119690,-6,6,0,3,-1,-2,-2,-3
1470243055121128,1,3,9,0,0,0,1,-1
1470243055121128,1,-6,-17,-3,-2,-2,-2,1
1470243055134143,1,-2,-2,-3,0,1,-1,-2
1470243055134143,1,-7,-3,0,0,-1,-1,0
1470243055140670,1,14,7,-1,-2,0,-2,-1
1470243055140670,0,1,-5,1,-2,-1,-1,0
1470243055157203,-1,1,6,-1,-1,-2,-1,0
1470243055157203,-2,-1,-3,-2,-2,0,1,-2
1470243055158705,-2,-1,7,0,0,0,-2,-1
1470243055158705,-2,-7,5,-2,-2,0,-2,0
1470243055179717,1,3,-38,-10,-2,-1,-2,0
1470243055179717,-3,-4,20,5,0,-3,-1,-1
1470243055181185,-3,-10,12,2,-1,-1,0,-1
1470243055181185,-1,1,-27,-4,-3,-1,-1,-2
1470243055193714,-2,-3,6,1,-1,-2,2,0
1470243055193714,-2,-2,-9,-3,-2,-1,-2,0
1470243055200710,1,3,-4,-2,-2,-1,-1,-2
1470243055200710,-2,3,22,-1,-1,-2,0,-2
1470243055217236,0,-2,-2,-1,-2,-1,-1,-1
1470243055217236,-2,-2,-14,-3,-1,-2,-1,-2
1470243055218731,-3,-18,3,5,1,1,-1,-1
1470243055218731,1,11,-4,-1,-1,0,-1,-1
1470243055239828,-5,-4,5,0,0,0,-3,-2
1470243055239828,1,4,3,-2,-1,0,0,-2
1470243055241249,0,-6,-12,-3,0,-2,-1,3
1470243055241249,-2,3,4,0,1,0,-1,0
1470243055254276,-4,-13,7,3,-2,-1,-1,-3
1470243055254276,1,1,2,0,-1,-1,-2,0
1470243055260768,-2,5,-10,-3,-3,-2,-1,-4
1470243055260768,0,-6,-15,-5,-1,-3,0,0
1470243055277274,2,9,8,1,-1,-1,-2,-1
1470243055277274,0,-6,-2,-4,-2,-1,0,-2
1470243055278790,1,7,10,0,-1,0,1,-1
1470243055278790,0,-4,2,0,-1,0,-3,-2
1470243055299789,-1,-6,2,1,0,0,-1,0
1470243055299789,-1,1,-3,-2,-1,2,-1,-2
1470243055301323,0,3,-2,-4,-1,-2,-1,-1
1470243055301323,-1,1,0,0,-2,-1,-1,-1
1470243055313317,-2,-10,-6,-2,0,-1,0,-3
1470243055313317,-1,-1,1,0,0,-1,-1,0
1470243055322361,1,8,-5,0,0,-1,-1,-1
1470243055322361,-4,-11,-4,0,-2,-1,0,-3
1470243055337346,-2,7,11,3,0,0,-1,-1
1470243055337346,0,-14,-8,-3,-1,-1,-1,0
1470243055338828,-2,5,-4,-2,-2,-3,-1,-1
1470243055338828,0,-6,-2,-1,-1,0,-3,-1
1470243055359845,0,12,5,-1,-3,-1,-1,-1
1470243055359845,-3,-17,0,2,-2,1,0,0
1470243055361344,0,-4,17,1,-1,1,0,0
1470243055361344,0,-1,-39,-8,-1,-2,0,-1
1470243055373379,0,1,5,-1,-1,-1,0,-2
1470243055373379,-1,8,4,0,-1,-2,-1,-1
1470243055382363,-2,-13,-12,-3,-1,-1,-2,-1
1470243055382363,-5,3,17,4,0,-2,-1,-1
1470243055396877,-2,-4,-10,-4,-3,0,-1,0
1470243055396877,-2,4,-1,-3,-1,0,-2,-3
1470243055403382,0,2,-2,0,-1,-2,-1,-1
1470243055403382,0,0,11,0,0,-1,0,-2
1470243055419897,1,-2,-7,-4,-1,-2,1,-2
1470243055419897,1,1,-2,-3,-1,-1,-2,-2
1470243055421444,-2,-18,-5,-3,-1,-1,0,-2
1470243055421444,1,10,6,1,-2,-2,-1,-2
1470243055433409,-4,1,9,3,0,1,-1,0
1470243055433409,0,-7,-9,-7,-2,-2,0,-2
1470243055442418,-1,-5,1,1,-1,-1,-1,-2
1470243055442418,0,-1,-19,-7,-4,-2,-1,-3
1470243055457043,-1,-5,1,0,-1,-1,-3,-2
1470243055457043,-1,4,2,2,-2,-2,-1,-2
1470243055458968,-3,-3,-1,-1,-1,0,-1,-2
1470243055458968,-2,0,11,2,-2,0,-1,-1
1470243055487461,0,5,3,-1,-1,-2,-1,0
1470243055487461,-1,-1,-15,-3,-2,-1,-1,0
1470243055488962,-3,8,2,-1,-2,-2,-1,-1
1470243055488962,-2,-13,-6,-5,1,0,0,-1
1470243055493479,-3,-8,10,3,-2,-2,-2,-1
1470243055493479,-4,-7,5,3,-2,-2,-2,1
1470243055502474,0,2,-5,-3,-3,0,-1,-2
1470243055502474,-2,-4,-2,2,-1,0,-1,0
1470243055517485,2,4,-13,-8,-1,-2,0,-1
1470243055517485,0,1,11,4,1,0,-1,-2
1470243055518986,-1,-4,-2,-1,-1,-1,-2,1
1470243055518986,-4,-3,7,-1,-2,0,-1,-3
1470243055539558,-2,-6,-5,-5,-1,-1,-3,-2
1470243055539558,0,4,7,-1,1,-2,-1,-1
1470243055541506,2,5,-26,-3,-1,-1,-2,-1
1470243055541506,4,2,9,3,-1,-1,1,1
1470243055553517,-1,1,1,-1,1,0,-1,0
1470243055553517,-2,-7,-2,-2,-3,-1,-1,0
1470243055562528,0,3,13,1,0,-1,-1,-3
1470243055562528,-2,2,-4,-2,-1,-2,-1,-1
1470243055577080,2,0,-7,-3,-1,0,0,-2
1470243055577080,0,7,2,-1,0,-1,-1,0
1470243055579041,-2,-2,4,0,-1,0,-1,-1
1470243055579041,0,9,2,2,-2,1,-3,-1
1470243055599575,-3,-11,-2,0,-2,-2,0,-2
1470243055599575,-5,4,-8,-3,-1,-1,0,-2
1470243055601064,-2,0,3,-1,-1,-3,-1,1
1470243055601064,-1,-7,-1,-3,0,-2,1,0
1470243055613570,1,8,-4,-1,0,0,0,-1
1470243055613570,2,4,-7,-2,-1,0,-1,-1
1470243055622078,-2,-15,7,1,-1,0,-2,0
1470243055622078,0,10,2,1,-2,-3,-2,1
1470243055637115,-3,4,5,0,-2,-1,0,-3
1470243055637115,2,-6,-9,-2,1,-1,-1,-2
1470243055638621,-1,-8,-1,-3,-1,0,0,-3
1470243055638621,-2,-5,-2,0,-1,-1,-2,1
1470243055659614,2,6,-3,0,-3,-2,-1,0
1470243055659614,0,-3,2,2,-2,-1,-2,-1
1470243055661113,-2,3,-5,-3,1,-4,-2,-1
1470243055661113,1,-6,3,-1,0,1,-1,-4
1470243055673126,-1,-1,-1,0,0,-1,-1,-1
1470243055673126,-3,-2,-4,-1,-2,-1,-1,2
1470243055682132,0,8,-7,-3,-2,1,-1,0
1470243055682132,-3,-5,16,3,-1,-2,-2,-3
1470243055697147,-3,-2,2,-3,-3,-1,-1,-2
1470243055697147,-1,4,2,2,-1,0,0,-4
1470243055698648,-2,-5,-8,-5,-3,-2,-1,-2
1470243055698648,0,4,-3,-4,-1,-1,-1,0
1470243055719666,1,0,8,-1,2,1,-1,1
1470243055719666,0,-3,-7,-2,0,-2,0,1
1470243055721170,-2,0,15,1,-3,-1,-2,-1
1470243055721170,-4,-12,-9,1,-2,-2,-1,-1
1470243055742188,-1,-5,2,-1,-2,-3,-3,-1
1470243055742188,1,1,-1,-6,0,-1,1,0
1470243055743688,-2,3,9,1,1,1,0,-2
1470243055743688,-2,-8,-10,-4,-1,2,-2,1
1470243055757250,-1,-1,-5,2,0,0,-1,0
1470243055757250,-1,-3,8,0,-1,-2,-1,-2
1470243055758702,0,-3,-9,-1,-2,-1,-1,-1
1470243055758702,2,11,6,-1,-3,-1,0,-3
1470243055779720,-1,-5,-6,-1,0,0,2,0
1470243055779720,-3,-1,-6,-5,-2,0,-2,-1
1470243055781222,-2,-3,5,3,-2,-2,-1,-2
1470243055781222,0,0,-3,1,-1,-2,0,0
1470243055802274,-1,5,-6,-4,-2,-1,-1,-2
1470243055802274,-2,-22,1,-2,-3,-1,-1,-2
1470243055803744,0,5,3,-1,-1,-1,0,0
1470243055803744,-4,1,1,0,-2,-2,-2,-2
1470243055817311,0,1,-3,-1,0,-1,-1,-1
1470243055817311,-1,-12,-7,-3,-1,-2,0,-2
1470243055818755,-2,-1,-11,-2,-2,-1,-3,0
1470243055818755,1,17,-7,-3,-1,-1,-1,0
1470243055839798,0,-10,-2,-3,-2,-1,-2,-1
1470243055839798,-2,6,-1,3,1,0,-1,1
1470243055841300,-1,-9,-2,0,-1,0,0,-2
1470243055841300,0,-6,-2,-1,-1,-3,-1,-3
1470243055862294,-1,-2,1,1,-2,-1,-1,-3
1470243055862294,-3,6,-12,-4,-1,-1,-1,-1
1470243055863797,-1,-2,1,-4,-1,0,-1,0
1470243055863797,-1,-4,4,-1,-2,1,-1,1
1470243055877321,-4,-8,10,3,-2,-1,-2,-3
1470243055877321,2,4,-23,-5,-1,0,0,-1
1470243055878812,-2,4,-5,-1,1,0,0,0
1470243055878812,1,-7,0,-4,-2,0,0,-1
1470243055899829,-1,4,-6,-2,-1,0,-1,0
1470243055899829,-2,-25,9,1,-3,0,-2,0
1470243055901331,-1,12,2,1,-4,-3,-2,-2
1470243055901331,0,-4,-4,1,1,-1,-1,-2
1470243055922348,-2,4,-11,-5,-1,-3,-1,3
1470243055922348,-3,1,0,0,-1,-3,0,-2
1470243055923853,-2,-1,-3,-1,-3,0,-1,-3
1470243055923853,-1,-8,8,-2,-1,-1,-2,-1
1470243055936388,-2,-2,-14,-1,-1,2,0,-3
1470243055936388,-4,3,11,2,0,-1,-3,-2
1470243055943370,0,-1,2,0,-1,-2,1,-1
1470243055943370,-2,5,-6,0,-1,-2,0,0
1470243055959882,2,-8,0,-2,-1,-1,-1,-2
1470243055959882,-1,7,5,1,-2,0,-1,-2
1470243055961406,-2,-2,-1,0,0,-2,-1,0
1470243055961406,-1,-5,-4,-2,-1,0,-1,-1
1470243055982403,-3,-4,-6,-2,-2,-3,1,-1
1470243055982403,0,5,15,-1,-3,-1,-1,-1
1470243055983903,0,-2,-4,-1,-1,-1,0,-2
1470243055983903,-1,-2,-4,0,0,-2,-1,1
1470243055996917,-3,-4,4,0,-1,-2,-2,0
1470243055996917,0,10,-8,1,-2,0,0,-1
1470243056003420,0,1,-2,-1,-1,-1,0,-1
1470243056003420,-2,8,-3,-2,-3,-1,0,-1
1470243056019947,1,-3,3,2,-1,0,0,-3
1470243056019947,-2,-3,-8,-4,-1,-2,-3,0
1470243056021437,-2,-9,6,0,0,-3,-2,2
1470243056021437,-2,-12,-4,-1,-1,-1,-2,-1
1470243056042483,-6,4,-5,-4,-1,0,-3,-3
1470243056042483,2,-1,-11,-1,0,-1,-1,-4
1470243056043957,0,0,-7,-1,0,0,-1,0
1470243056043957,-1,-6,13,0,-2,-1,-2,0
1470243056056468,-4,1,0,3,-1,-3,1,3
1470243056056468,1,0,1,-1,-1,-1,-2,0
1470243056063475,-2,-5,2,-3,-3,-1,-1,-1
1470243056063475,0,-2,-11,-2,-1,-2,-2,-2
1470243056079991,2,1,-5,-1,-1,-1,0,-1
1470243056079991,-2,1,10,1,0,-1,-1,-2
1470243056081490,-2,4,8,3,-1,0,0,-1
1470243056081490,-2,-9,-4,0,0,1,0,0
1470243056102023,-2,4,5,0,-2,-2,-1,-1
1470243056102023,-2,-5,2,-2,0,-1,-2,-2
1470243056104012,1,-6,-14,-2,-1,-2,-2,-2
1470243056104012,-4,-12,15,1,-2,0,0,-1
1470243056132109,-3,5,-4,-2,-2,2,-2,-2
1470243056132109,-2,4,-3,-3,-2,-1,-1,-1
1470243056133539,-3,-20,9,2,1,-1,0,0
1470243056133539,-1,11,-12,-3,0,-1,-1,-2
1470243056139563,1,-3,3,0,-1,-1,-1,0
1470243056139563,-2,3,-1,0,0,-1,-1,0
1470243056141061,0,4,5,-1,0,0,2,-1
1470243056141061,-3,3,-2,-2,-2,-1,-1,-1
1470243056162081,2,-3,-6,-2,-2,1,-3,1
1470243056162081,-2,2,2,1,-3,0,-2,0
1470243056163565,-4,-1,-6,-1,2,0,-2,1
1470243056163565,1,1,-1,-1,-1,-1,-1,-1
1470243056176576,0,2,-1,0,-1,-2,-1,-2
1470243056176576,-1,-14,1,-2,-3,-2,-2,-1
1470243056183583,0,5,-3,-3,-3,-1,-2,0
1470243056183583,-3,3,-1,1,0,-1,-1,-1
1470243056207148,0,5,10,0,0,1,-2,-2
1470243056207148,-2,-7,-12,-5,-2,-2,1,-2
1470243056208605,1,-1,7,2,-1,-4,-1,-4
1470243056208605,-3,-1,-9,-3,-2,-3,-1,-2
1470243056222142,-1,-4,1,1,0,-1,-1,0
1470243056222142,0,1,1,-3,0,0,-2,-1
1470243056223619,0,2,-4,-4,-3,1,-2,-1
1470243056223619,-1,-2,5,0,-1,0,-1,-1
1470243056236172,-2,-9,1,2,-2,-1,-1,0
1470243056236172,1,19,-2,-1,-1,-2,0,0
1470243056244686,-1,-10,-12,-2,-2,-1,-1,-1
1470243056244686,0,7,6,-2,0,0,-1,-3
1470243056259652,-2,-6,4,2,-3,-2,-2,-2
1470243056259652,-1,0,-2,-1,-2,-1,-1,0
1470243056261172,0,1,-5,-1,0,-1,-2,-3
1470243056261172,-2,2,-4,-2,-1,0,-2,1
1470243056282173,-2,0,-1,-3,-1,-3,-1,-2
1470243056282173,2,-1,5,1,-3,-1,-1,0
1470243056284173,1,9,2,1,-1,-2,-2,-2
1470243056284173,0,-15,-3,-3,-3,-1,-1,-1
1470243056295683,-2,-9,-3,-1,2,1,-1,0
1470243056295683,-1,4,0,1,1,-1,0,-3
1470243056304691,0,-6,-10,-7,0,2,-1,-1
1470243056304691,-3,-6,5,2,-3,0,0,-2
1470243056319707,-2,4,1,2,-3,-3,0,0
1470243056319707,-1,-4,6,1,0,-1,-1,-1
1470243056321206,-1,0,-3,-1,-1,-1,1,1
1470243056321206,2,2,-7,-5,0,-2,-1,-2
1470243056342242,0,0,-2,-2,-1,0,-3,-2
1470243056342242,-3,-6,-4,-1,-1,0,0,-2
1470243056343727,-1,8,0,0,-2,-1,-1,-1
1470243056343727,-1,-8,-13,-1,-3,-1,-1,-2
1470243056355762,0,-3,-1,0,-1,-2,-1,-1
1470243056355762,-2,-1,-2,-2,0,0,-1,-1
1470243056364761,-3,-1,3,-1,-1,-1,-2,-1
1470243056364761,0,5,1,1,-1,-1,-2,0
1470243056379783,0,0,7,2,-3,-1,0,-1
1470243056379783,-2,-3,-6,-4,-3,-1,-2,-3
1470243056381262,-2,-9,-2,-3,-1,0,-1,0
1470243056381262,-2,0,1,-1,-1,0,0,0
1470243056402323,-1,-2,0,1,1,-2,0,-1
1470243056402323,-3,-3,-2,2,-1,0,-1,-1
1470243056403780,-1,1,9,1,1,0,-1,-1
1470243056403780,0,-12,3,2,-1,-2,1,0
1470243056415806,-4,0,-6,-4,-3,-1,-1,-1
1470243056415806,-3,-1,-3,-1,0,-1,-1,-2
1470243056424816,1,4,-2,-2,-1,-2,-1,-1
1470243056424816,-1,-2,-2,-3,-1,1,-1,-1
1470243056439844,-1,-5,-2,-2,1,-2,0,-3
1470243056439844,-2,-15,1,-2,-3,0,-1,-2
1470243056441314,-2,8,3,1,-2,-1,-2,0
1470243056441314,-2,5,3,0,0,-3,-3,-2
1470243056462332,4,11,-10,-3,0,-1,0,-1
1470243056462332,-2,-1,4,-2,0,-2,0,-1
1470243056463838,-3,-8,0,-2,-3,-2,1,-3
1470243056463838,0,8,-7,-1,-1,-2,0,-2
1470243056475863,0,-3,-3,2,1,1,-1,-2
1470243056475863,-2,0,7,3,0,-1,-2,0
1470243056484853,0,-3,3,0,-2,-1,-2,0
1470243056484853,-4,2,-4,-3,-3,-1,-1,1
1470243056499866,-1,-8,-9,-5,-1,-1,0,0
1470243056499866,1,0,-9,-2,-1,-1,0,-1
1470243056501368,-1,-4,-2,-2,0,-1,-1,-2
1470243056501368,-1,3,-2,0,-2,-1,-2,-2
1470243056522387,-3,0,3,-1,-1,0,-2,-2
1470243056522387,3,-2,-1,-1,-1,0,-1,0
1470243056523889,-1,9,-9,-2,0,-3,-1,2
1470243056523889,-2,-30,0,2,0,0,-2,-1
1470243056535938,-1,8,-4,-4,-1,-3,-1,-3
1470243056535938,-2,-6,0,-2,-2,-3,-1,-1
1470243056544907,1,-1,-16,-3,-1,0,-1,-2
1470243056544907,-1,-2,29,4,0,-2,-2,1
1470243056559420,-1,-1,-1,4,-3,-2,-1,0
1470243056559420,0,-1,-8,-2,0,-1,-1,-2
1470243056561421,-4,-7,-4,0,-3,0,0,0
1470243056561421,0,-1,-10,-2,0,-1,0,-3
1470243056582541,0,-1,4,-3,-1,-1,-1,2
1470243056582541,-2,3,4,-1,0,-1,0,2
1470243056583457,-1,0,5,2,-2,-1,-3,-3
1470243056583457,-5,-5,-3,0,-2,-1,-1,-3
1470243056595952,-2,3,1,-2,-2,-2,0,-2
1470243056595952,0,-1,-1,-2,-2,-2,-2,-1
1470243056604498,-1,-4,0,-1,-3,-2,0,-1
1470243056604498,0,7,-4,-3,-1,-1,-3,0
1470243056620034,-3,-9,-3,0,-1,-1,-1,0
1470243056620034,-1,4,-2,-2,-2,-2,-2,0
1470243056621476,-1,-12,0,-3,-1,1,0,-1
1470243056621476,0,17,-4,-1,-1,-1,0,-1
1470243056642512,0,0,-4,-1,-1,0,0,0
1470243056642512,-3,-9,2,-1,0,1,-1,-2
1470243056643496,-2,6,9,0,-1,-2,-1,1
1470243056643496,0,-1,7,2,-1,0,0,-2
1470243056656007,0,-5,-7,-5,0,-1,-1,-1
1470243056656007,0,2,-5,2,-1,-1,-1,0
1470243056664514,-2,-4,-4,-2,-1,-2,-1,-1
1470243056664514,3,-4,-8,-3,-1,-1,0,0
1470243056679530,0,13,9,1,-1,-1,0,-1
1470243056679530,-6,-16,1,2,0,0,-2,-1
1470243056681534,-2,2,-10,-5,0,0,-3,-2
1470243056681534,-1,3,10,4,-1,1,-1,0
1470243056702154,-1,-5,5,2,-1,-2,-2,-2
1470243056702154,3,9,-10,-3,-2,-1,0,2
1470243056703616,1,-7,-2,-2,-2,-1,-2,-1
1470243056703616,-1,3,-1,-3,-2,0,-1,-1
1470243056724651,-1,-7,-3,-2,-1,0,-1,-3
1470243056724651,0,5,-1,-3,-1,-2,-1,-2
1470243056726137,-2,4,7,0,-1,-2,0,-2
1470243056726137,-2,-2,-1,1,-1,-2,-1,0
1470243056739650,-4,-5,-5,-3,-2,0,-1,-1
1470243056739650,1,3,-3,0,-1,-2,0,-1
1470243056741150,-2,4,-3,-2,0,-1,0,-2
1470243056741150,-2,0,4,1,0,1,0,-2
1470243056762669,-3,-12,-1,-1,-2,-3,-2,-3
1470243056762669,-2,2,7,0,-1,-1,-2,-1
1470243056764171,-1,-7,-11,-2,-1,-1,-1,0
1470243056764171,3,5,-4,-2,-1,-1,-3,-1
1470243056784689,0,3,2,-1,0,0,-1,-1
1470243056784689,-2,-4,-4,0,0,0,0,-1
1470243056786190,-1,7,9,5,1,0,0,0
1470243056786190,-4,-20,-13,-2,-2,-2,-2,1
1470243056799702,-2,-4,-5,-3,0,0,-2,0
1470243056799702,-3,-5,4,-3,-2,-1,-1,-2
1470243056801203,1,8,0,0,-1,1,0,0
1470243056801203,-1,-4,-3,-3,-1,-2,0,-2
1470243056822224,-1,0,3,1,0,-2,0,-4
1470243056822224,0,-17,-15,-2,1,-1,1,0
1470243056823724,-2,3,10,-1,-3,-2,-1,-2
1470243056823724,3,8,-5,-2,0,-1,-3,0
1470243056844744,0,-3,-3,-2,-1,0,-1,1
1470243056844744,-3,-2,1,-1,-2,-1,-1,-2
1470243056846245,0,-4,7,2,0,-2,-1,-1
1470243056846245,-3,-11,-8,-2,-1,-1,0,1
1470243056859274,2,3,0,0,-2,-2,-1,0
1470243056859274,-1,0,-2,-1,0,0,-2,-3
1470243056865761,-1,5,3,-1,-2,-3,0,0
1470243056865761,-1,0,7,1,-1,-2,0,-3
1470243056882302,-3,-2,-1,-1,-2,-2,-1,0
1470243056882302,-3,6,-1,-1,-1,0,1,-1
1470243056883778,1,-5,-7,-3,0,-2,-3,0
1470243056883778,0,9,-1,-2,-1,0,0,1
1470243056904796,-4,-12,-5,1,-1,-1,-1,1
1470243056904796,-2,-15,-4,-3,-2,-2,-2,-1
1470243056906298,-1,13,3,1,-2,0,-1,-1
1470243056906298,-1,2,-13,-5,-1,-2,1,-2
1470243056919313,0,4,3,2,-1,0,0,3
1470243056919313,1,1,0,-1,-2,-2,-1,0
1470243056925816,-1,-11,-3,-3,-2,-1,0,-1
1470243056925816,-3,-2,1,-2,-2,0,-1,-2
1470243056942332,0,2,-9,-2,-1,0,-1,0
1470243056942332,0,3,11,1,-1,0,-1,0
1470243056943836,-2,-9,-8,-2,-1,-1,-1,0
1470243056943836,-1,5,4,0,-1,-3,-3,-2
1470243056965354,1,-5,-7,-5,0,-1,0,-2
1470243056965354,1,13,17,3,0,-1,-1,0
1470243056966854,-1,-8,-7,-3,-1,-2,1,-1
1470243056966854,-3,-10,-8,-2,-1,0,-2,0
1470243056978883,-1,5,-3,-1,-1,0,-1,-2
1470243056978883,0,1,-5,-4,-1,-2,-2,-1
1470243056985892,-4,2,-1,-1,0,-1,-2,-4
1470243056985892,-1,-2,9,0,-1,-2,-2,-2
1470243057002384,-2,-1,-6,-1,0,-1,-2,0
1470243057002384,-2,3,1,0,-1,0,-1,-1
1470243057003918,-1,4,-1,0,-1,-2,-2,-1
1470243057003918,-1,2,-6,-2,-1,-1,-1,0
1470243057024944,-3,-13,8,-1,-2,-1,0,-1
1470243057024944,0,8,-4,1,0,-2,1,-1
1470243057026406,0,-7,-1,-1,1,-1,0,1
1470243057026406,-1,-4,7,-2,0,-1,1,-1
1470243057038960,0,4,-4,-1,-1,-1,-2,0
1470243057038960,-2,-7,-8,-2,-2,0,-1,-1
1470243057046424,-1,-5,0,0,-1,0,0,0
1470243057046424,4,7,0,2,-4,-1,-2,-1
1470243057062438,0,2,-5,-2,0,-2,-1,-1
1470243057062438,-5,-8,6,0,-1,-1,-1,-3
1470243057063939,-2,-10,-6,-1,-1,1,-1,1
1470243057063939,1,5,-7,-2,2,0,1,0
1470243057085009,-2,8,5,-1,-2,-3,-1,-1
1470243057085009,-1,5,-7,-1,-2,-1,-1,-2
1470243057085961,-1,2,0,0,-2,-1,-1,-1
1470243057085961,-2,-13,-8,-2,0,0,-1,-1
1470243057098471,1,2,-4,-1,0,0,-2,-2
1470243057098471,2,0,2,-1,0,-1,0,-1
1470243057107478,-7,-2,8,1,-1,-3,-2,0
1470243057107478,-3,-1,-8,2,0,0,-1,0
1470243057122044,1,-6,-1,-1,-2,-1,-2,-3
1470243057122044,0,4,0,0,-2,-1,-1,2
1470243057123495,2,-3,-6,-1,-1,-1,0,-1
1470243057123495,-3,3,5,-3,-2,-1,0,1
1470243057145069,-1,6,-2,0,0,-1,-1,-2
1470243057145069,-2,-6,-8,-4,0,-2,-1,-3
1470243057146514,-1,-1,-7,-1,1,1,0,-1
1470243057146514,0,4,9,-1,-2,-2,-2,-1
1470243057159025,-1,1,1,1,-1,1,0,2
1470243057159025,-2,-6,-5,-3,-1,-2,0,-2
1470243057166110,1,-7,1,0,-1,-1,-1,0
1470243057166110,-1,-4,-1,-1,0,0,0,-3
1470243057182046,-2,-6,-2,-3,-1,-1,-1,0
1470243057182046,0,5,2,2,0,-1,0,0
1470243057183548,-1,-2,-5,-2,-1,-1,-1,-1
1470243057183548,-2,-4,-4,-1,0,-1,-1,0
1470243057205068,-1,-3,3,1,0,-3,-2,1
1470243057205068,-2,0,1,-1,-1,-1,-1,0
1470243057206069,2,1,-2,0,-1,0,-1,-1
1470243057206069,-1,0,-5,-3,-1,-1,-1,-1
1470243057218658,0,-2,5,0,-1,0,-1,-3
1470243057218658,-1,-1,-1,0,-2,-1,-1,-1
1470243057227087,-2,3,-10,-3,-2,-1,-1,0
1470243057227087,-3,-4,5,1,-2,-2,-1,-1
1470243057242127,-2,-2,-7,-1,-1,1,1,0
1470243057242127,-1,-2,-3,-2,0,0,0,0
1470243057243601,-1,-1,2,-1,-1,-1,-2,0
1470243057243601,-1,-2,-5,-2,1,-2,-1,-1
1470243057264729,-4,-3,3,-1,-1,-2,-1,-2
1470243057264729,0,1,-3,-1,0,0,-1,-1
1470243057266121,0,1,5,0,-1,-2,0,-3
1470243057266121,1,-2,-3,0,-2,0,-2,0
1470243057278637,-3,-1,-1,0,-3,-2,0,-1
1470243057278637,-1,-5,2,2,-2,1,0,-1
1470243057287190,2,0,5,2,1,0,-1,0
1470243057287190,-2,0,7,-1,-3,-3,1,1
1470243057302169,-2,2,-8,-4,0,-3,-1,-3
1470243057302169,1,-4,8,2,1,-2,-1,-1
1470243057303655,-4,1,-18,-6,-3,-2,-3,-1
1470243057303655,0,-7,-8,0,0,0,1,0
1470243057324673,0,2,5,-2,0,1,-2,0
1470243057324673,-1,4,-7,-2,0,0,-1,-2
1470243057326175,-1,-12,5,-3,-3,-2,-1,1
1470243057326175,-3,0,4,1,-1,-2,1,-2
1470243057338227,-1,-5,-14,-3,-4,-2,-2,-2
1470243057338227,-2,8,8,2,-2,-3,-1,-3
1470243057347194,0,-8,-8,-3,-2,0,0,-1
1470243057347194,1,2,-8,-3,-2,0,-1,0
1470243057362226,-2,5,9,-1,1,0,0,0
1470243057362226,-2,-9,-1,-1,-1,-1,-2,0
1470243057363710,0,0,-4,-2,0,0,1,-3
1470243057363710,-1,6,5,2,0,0,-2,0
1470243057384753,0,-7,-8,-2,0,-2,-1,-1
1470243057384753,1,2,-12,-3,-2,0,-2,0
1470243057386252,-3,-3,14,2,-1,-1,-3,-2
1470243057386252,0,-2,-4,-1,-2,-2,-1,0
1470243057398241,-2,1,5,2,-2,1,1,0
1470243057398241,-1,-6,-4,-2,-2,-1,1,-1
1470243057407250,-4,3,6,1,-1,0,0,-2
1470243057407250,2,1,-3,-1,-2,-2,-1,1
1470243057422329,-1,-5,2,-1,-2,-1,-2,-2
1470243057422329,-1,3,-3,-1,-1,-1,-1,-1
1470243057423763,0,3,-1,1,0,0,0,0
1470243057423763,-4,7,-1,-3,0,-1,0,0
1470243057444818,0,-13,-11,-1,1,-1,0,-3
1470243057444818,1,-2,8,-1,-1,-2,0,0
1470243057446286,-1,-1,-7,-1,-1,-1,-1,0
1470243057446286,2,7,10,0,-1,0,-1,-3
1470243057458294,-2,-5,3,2,-2,-1,-1,0
1470243057458294,-3,5,-1,-4,-1,-1,-1,0
1470243057467304,1,2,-1,1,-1,-1,-2,-2
1470243057467304,-1,-19,-10,-4,-1,0,-1,-3
1470243057482325,1,4,4,0,-2,-2,-2,-1
1470243057482325,-4,-2,-1,1,-1,-2,-1,-2
1470243057483816,2,12,-1,-3,-2,-3,0,0
1470243057483816,-1,-10,-17,-5,-1,-1,-3,-1
1470243057504836,0,0,5,1,-2,-3,-1,0
1470243057504836,-1,-1,-4,-1,-1,0,-2,-2
1470243057506336,-5,-12,-2,-1,0,-1,0,-2
1470243057506336,0,1,-1,-2,-2,-1,1,0
1470243057518848,-1,6,-1,-1,1,0,0,-2
1470243057518848,-1,-7,-3,0,-1,-1,-1,-1
1470243057527356,-2,-3,6,4,0,0,0,-2
1470243057527356,-2,-2,2,-1,-1,0,-1,0
1470243057542370,0,-6,-11,-3,-2,1,0,0
1470243057542370,-2,-6,-7,-7,-2,-2,-3,-2
1470243057543878,-1,11,2,-3,0,-1,0,-1
1470243057543878,-1,-10,-4,2,-1,-2,-2,-2
1470243057564900,-1,-5,-3,-4,-2,-1,-1,-1
1470243057564900,0,4,7,1,-2,1,-2,1
1470243057566394,0,0,-6,-3,-1,-1,-2,0
1470243057566394,-1,-2,2,-1,-1,0,-1,-3
1470243057578421,-1,-6,1,-1,-3,0,0,0
1470243057578421,-2,1,4,-1,-1,-1,-1,-2
1470243057587410,3,0,-4,-3,-1,-3,-1,-1
1470243057587410,-1,-1,4,1,-1,-1,1,-1
1470243057602478,-3,3,7,5,-2,-2,-2,0
1470243057602478,0,2,-9,-3,0,-2,-1,0
1470243057603929,4,-9,6,3,-1,-1,0,1
1470243057603929,-2,7,0,-1,-1,0,-2,-4
1470243057624943,1,0,-2,-4,0,-1,0,-1
1470243057624943,-2,-1,11,2,-1,-1,0,-4
1470243057626473,1,0,-8,-4,-1,0,-1,0
1470243057626473,-1,-5,4,-2,-2,-1,-2,-2
1470243057647464,0,0,-8,0,0,1,-2,0
1470243057647464,0,-2,1,-1,0,-1,0,0
1470243057648965,-5,0,1,-1,0,-1,0,-2
1470243057648965,-4,-1,8,0,-2,-1,0,1
1470243057662478,-3,3,1,-1,-2,-1,-1,-1
1470243057662478,0,3,-4,2,0,-3,2,-1
1470243057663478,-1,-5,5,0,1,0,-1,-2
1470243057663478,0,20,-7,-1,0,0,-1,1
1470243057684500,1,-4,0,-2,0,-1,1,-2
1470243057684500,-2,-17,2,-3,-1,0,0,1
1470243057686498,0,4,-1,-1,-2,-2,-1,-1
1470243057686498,-2,-6,-6,-2,-2,-2,0,0
1470243057707536,-2,4,8,-2,-1,-2,-1,-2
1470243057707536,-1,3,-12,-1,-2,-2,-1,-1
1470243057708518,-3,-7,-2,-2,-1,0,0,0
1470243057708518,-2,-2,-5,0,-2,-1,-3,-1
1470243057721029,0,5,0,2,0,-1,-1,-2
1470243057721029,0,1,-5,-3,-2,1,0,1
1470243057730038,-1,-1,-2,-2,-1,-1,-2,-2
1470243057730038,0,-3,-1,-3,-1,0,-1,0
1470243057744561,1,5,-1,0,-1,-2,-1,0
1470243057744561,-2,-6,1,-1,-1,-1,-2,-2
1470243057746053,-4,1,-1,0,-2,-1,-2,-2
1470243057746053,0,-2,0,-2,0,0,-1,0
1470243057767106,-4,-5,4,-2,-1,-1,0,-1
1470243057767106,0,1,-9,1,-2,-1,-1,-1
1470243057768620,-2,-2,3,0,-1,-1,-3,-3
1470243057768620,2,-2,-4,-3,0,-1,0,0
1470243057782087,-1,-2,-7,-2,-2,-2,1,2
1470243057782087,-1,-2,8,1,-1,-2,1,-1
1470243057783586,-1,0,-3,0,-2,-1,0,-1
1470243057783586,-1,-2,-5,0,-3,0,-2,-1
1470243057804618,1,-1,-9,-4,-1,0,-1,0
1470243057804618,0,4,-1,0,0,-1,-1,-3
1470243057806106,-2,-7,2,-1,0,-1,0,-1
1470243057806106,-2,-1,2,-1,1,-2,-2,-2
1470243057827125,-1,-3,-6,-1,-2,0,0,0
1470243057827125,1,-4,-8,-5,-2,0,-1,2
1470243057828626,-2,1,8,-1,-3,-2,-1,-1
1470243057828626,-1,-2,-1,0,-2,-2,0,-2
1470243057841638,-2,-1,6,1,-2,0,0,-3
1470243057841638,-1,-3,-13,-4,1,-1,-1,0
1470243057848644,0,1,-6,-4,-2,-1,0,0
1470243057848644,-2,-4,3,0,-1,-1,-2,-2
1470243057864689,-3,0,0,0,-2,-1,-1,-1
1470243057864689,-3,-1,2,-2,-1,0,-4,1
1470243057866160,3,6,-6,-4,-3,0,-1,0
1470243057866160,0,-9,-12,0,0,-2,-1,-1
1470243057887208,-3,-1,14,1,-2,-2,-2,0
1470243057887208,-1,1,-1,0,-2,-1,-1,-2
1470243057888694,2,4,-5,0,1,2,-1,-3
1470243057888694,-2,-12,-3,-3,-2,-1,-1,-1
1470243057901712,-1,-7,-6,-3,1,0,0,-2
1470243057901712,-2,-6,0,-2,-2,0,-2,-2
1470243057908198,-1,0,2,2,-2,-2,-1,0
1470243057908198,-1,6,5,0,-1,0,-1,0
1470243057924731,-1,0,-1,-2,-1,-1,-1,0
1470243057924731,-3,-5,4,1,0,-4,1,-2
1470243057926214,0,-4,-10,-3,-2,-1,-1,-1
1470243057926214,3,3,7,1,-1,-1,0,0
1470243057947276,-2,1,-6,-2,1,-1,-1,-1
1470243057947276,0,4,0,-3,-1,0,-1,-1
1470243057948734,-3,-12,7,2,0,1,-1,1
1470243057948734,0,19,-3,2,-2,-3,-1,0
1470243057961756,-1,0,4,0,-2,-2,-2,-2
1470243057961756,0,2,-2,-2,-2,0,-2,-2
1470243057968252,0,0,-1,-3,-1,-1,0,-3
1470243057968252,-2,-10,-7,-3,-1,1,0,0
1470243057984817,-3,3,6,-1,-1,-2,-1,-2
1470243057984817,-2,2,-5,-3,-2,-1,-1,-2
1470243057986268,0,-5,1,0,-2,-1,1,0
1470243057986268,-2,-3,-2,-1,-1,-1,-2,-2
1470243058007288,-1,-5,-3,0,-1,0,-2,-3
1470243058007288,0,-4,-4,-2,-1,-1,2,1
1470243058008790,-2,2,3,-2,-1,-4,-2,-1
1470243058008790,-2,-5,-2,-1,-1,-2,0,0
1470243058021300,-2,-7,-4,-1,-1,-1,-1,-3
1470243058021300,1,5,-1,0,0,-1,-1,0
1470243058028306,1,-3,-6,0,0,-1,0,-1
1470243058028306,-1,2,14,-1,-1,-1,0,-3
1470243058044820,1,2,-4,2,-2,-1,-2,2
1470243058044820,-1,-4,-5,-1,-2,0,0,-2
1470243058046323,-4,-2,5,-4,-2,-2,-1,-1
1470243058046323,0,3,-3,-2,0,-2,-1,-2
1470243058074847,0,0,4,-2,0,-1,0,1
1470243058074847,0,7,2,1,0,-2,-1,-2
1470243058076384,2,0,-7,-2,-2,-1,-2,0
1470243058076384,-1,-1,2,-2,-1,0,0,-3
1470243058081857,-3,0,-2,0,-2,0,-2,-3
1470243058081857,-1,-3,-1,-1,-2,-1,0,0
1470243058088377,-1,1,-1,2,2,-1,0,-1
1470243058088377,-3,4,-6,-2,-2,-1,-2,0
1470243058104874,1,0,0,-3,-3,-2,1,-1
1470243058104874,-1,-7,5,1,0,-1,-3,-2
1470243058106424,-1,3,-8,-4,-2,-3,0,-2
1470243058106424,-1,-9,0,-1,-1,-1,-1,0
1470243058127399,0,0,-11,-4,0,-1,-2,1
1470243058127399,-2,1,4,-1,-1,-1,0,0
1470243058128896,0,-5,-1,1,-1,-1,-1,-2
1470243058128896,-1,1,-4,1,-1,-2,-1,0
1470243058140932,-1,-5,0,0,1,-1,-3,-1
1470243058140932,2,1,-3,-4,0,-1,1,0
1470243058149914,-2,-2,1,-1,-2,-2,-4,-2
1470243058149914,-3,-3,13,2,-3,-2,-1,-3
1470243058164929,-2,-1,-5,-1,-2,0,0,0
1470243058164929,-1,-1,0,0,-1,-1,-1,-1
1470243058166429,0,-10,-2,-3,-2,-1,-1,0
1470243058166429,1,22,-3,-2,1,-1,-2,2
1470243058187499,-1,-6,3,1,1,-2,-1,-2
1470243058187499,-1,-2,-5,-2,-1,0,-1,0
1470243058188951,-1,1,0,-3,-1,-1,0,-2
1470243058188951,-1,-14,6,2,-1,-2,-1,-3
1470243058200972,-2,7,-2,0,-1,0,-2,-3
1470243058200972,0,3,-2,-1,-1,0,-1,-1
1470243058209972,-2,2,-4,1,1,0,-1,-2
1470243058209972,-1,-6,-4,-4,-1,0,-1,-1
1470243058224482,0,0,-4,0,-2,0,-1,-1
1470243058224482,-2,-4,2,2,-2,0,-2,-5
1470243058226004,-3,1,4,-2,-2,-3,-1,-1
1470243058226004,-2,-14,-5,-1,0,-2,-1,0
1470243058247003,-1,-3,-3,0,1,-1,0,0
1470243058247003,-2,-1,-2,-3,-1,-1,0,-2
1470243058248503,0,2,-2,-2,-3,1,1,-1
1470243058248503,0,4,-10,-2,-1,0,-1,-1
1470243058261014,-1,-10,5,-1,-1,-1,1,0
1470243058261014,-4,16,13,6,1,-2,-2,-2
1470243058270026,0,7,0,1,-1,1,-3,0
1470243058270026,-1,-3,1,1,-1,-1,1,0
1470243058285038,2,7,-10,-3,-2,-1,-1,0
1470243058285038,-1,-6,0,-3,-1,-2,-2,0
1470243058286056,-1,-7,-14,-3,-1,-2,-2,0
1470243058286056,-1,4,0,-1,1,0,-1,-1
1470243058307138,-5,-4,11,-2,-1,-1,1,-3
1470243058307138,0,-6,-7,-2,-1,-1,-1,0
1470243058308557,-2,-3,-1,-2,-1,-1,-1,-2
1470243058308557,0,-6,-4,0,-2,-1,0,0
1470243058321068,0,1,5,1,-1,-1,-1,-1
1470243058321068,-3,4,0,-2,-1,-1,0,2
1470243058329580,-2,-10,-6,-1,-2,-1,-2,0
1470243058329580,-1,-1,-4,-3,-1,-1,0,-1
1470243058352122,-1,9,3,-2,1,0,-1,0
1470243058352122,-2,-11,16,2,-1,-1,1,0
1470243058353641,-4,11,-4,0,1,-1,0,-1
1470243058353641,-2,-10,-5,-3,-1,1,-2,-2
1470243058367138,-1,6,1,0,-1,0,-1,-2
1470243058367138,1,-4,-3,-3,0,0,0,-1
1470243058368627,-1,-2,0,-3,-2,-4,-2,-1
1470243058368627,-3,-6,2,-2,-3,-1,-1,-1
1470243058397148,-3,7,-3,-2,-1,-2,-2,1
1470243058397148,-3,-7,-6,0,-1,-1,0,-3
1470243058397637,2,1,1,-2,0,0,0,-1
1470243058397637,-2,4,1,-1,-3,0,-1,-1
1470243058404144,-2,-9,-2,-1,0,-2,-1,-1
1470243058404144,-1,5,-3,1,0,-1,-3,-1
1470243058404670,-1,4,0,1,-2,1,1,0
1470243058404670,-2,-29,-4,-3,0,-1,-2,-1
1470243058426694,0,17,1,0,-2,-2,-2,1
1470243058426694,-2,-3,-4,-1,-2,0,0,1
1470243058427169,-2,-7,6,1,1,-1,1,-2
1470243058427169,-1,-2,-10,-2,-1,-1,-1,-1
1470243058449198,-3,-9,7,0,-2,-1,-2,-1
1470243058449198,-4,9,-4,-1,-2,-1,-1,-3
1470243058449684,-1,-1,-8,-4,0,-1,-1,0
1470243058449684,0,7,8,2,-1,0,-2,-1
1470243058464198,1,-12,-7,-3,-1,-4,0,-1
1470243058464198,-1,1,-7,-5,-3,-2,-2,0
1470243058464698,-4,-3,-8,-2,-1,-1,-1,-1
1470243058464698,-2,13,11,-1,-1,-3,0,0
1470243058486716,-5,-18,-9,-1,-1,-1,-1,-3
1470243058486716,2,1,-1,-4,-1,-1,-1,-2
1470243058487218,0,7,-1,2,0,0,0,1
1470243058487218,-1,2,6,2,-2,-3,-1,-1
1470243058509237,-2,-5,-13,-4,-3,0,0,-3
1470243058509237,-2,-6,-5,-4,-1,-1,-1,-1
1470243058509738,-2,-3,12,1,-3,-2,-2,-3
1470243058509738,-2,6,5,0,-1,0,-2,-1
1470243058524255,0,-3,-19,-3,0,0,0,0
1470243058524255,-2,1,-5,-2,1,-2,-2,-2
1470243058524751,-2,-3,5,1,-2,-2,-1,-3
1470243058524751,0,-3,12,3,-1,-2,-1,-2
1470243058546773,-2,2,-1,-2,-2,-2,-1,-2
1470243058546773,-2,-7,-4,-2,-1,-1,-1,0
1470243058547273,2,-2,5,1,-2,-2,-1,-1
1470243058547273,0,4,-9,-1,-2,0,0,0
1470243058569403,-3,-6,2,-1,-1,1,-2,0
1470243058569403,2,8,1,-2,0,0,0,-2
1470243058569806,0,-18,9,0,0,0,-4,-3
1470243058569806,-3,2,-6,-4,-2,-1,0,-2
1470243058584414,0,2,-11,-2,-3,-1,-1,-1
1470243058584414,1,-7,4,2,-1,-1,-1,0
1470243058584806,-2,-4,2,0,-1,-1,0,1
1470243058584806,0,-2,-22,-4,0,0,-3,-1
1470243058606372,-2,2,6,0,0,-1,-2,-1
1470243058606372,1,-4,6,3,-1,-2,0,0
1470243058607328,-4,4,-11,-4,-2,-2,0,-2
1470243058607328,2,-2,-2,0,-1,-1,0,0
1470243058630351,0,2,3,-1,0,-2,-1,-4
1470243058630351,-2,-12,-3,-3,-1,0,-1,-2
1470243058631400,1,7,1,1,-1,0,-2,-1
1470243058631400,-3,-1,1,-1,-1,0,-2,0
1470243058643860,1,5,10,2,-1,0,-1,1
1470243058643860,-3,-10,-8,-1,0,-1,-1,-2
1470243058644859,0,1,3,-3,0,-1,2,2
1470243058644859,-2,-3,-1,-1,-1,-1,-1,-3
1470243058666379,2,12,0,1,0,0,-1,0
1470243058666379,-4,0,12,3,0,-1,-2,0
1470243058667379,-4,-10,-41,-6,-1,1,-2,-2
1470243058667379,1,8,11,0,-2,-1,1,-2
1470243058688899,-2,-2,4,1,0,0,0,0
1470243058688899,-1,-5,1,0,-2,-3,-1,-1
1470243058689899,1,15,4,1,0,-2,0,-1
1470243058689899,1,-5,-5,-3,-2,0,0,0
1470243058703954,-2,-10,-1,1,-2,-2,-1,-2
1470243058703954,1,16,-9,-2,0,0,0,0
1470243058704913,0,0,8,1,-1,-1,0,1
1470243058704913,-3,-9,-3,0,-1,-2,-1,-2
1470243058726433,0,6,-4,-5,-2,-1,0,0
1470243058726433,2,0,-1,-1,0,-1,-1,0
1470243058727433,-2,-1,5,1,-1,-1,-1,-2
1470243058727433,-1,-10,-7,-2,0,-1,-1,0
1470243058748983,2,3,2,-2,-1,-3,0,0
1470243058748983,-1,-13,-2,0,-2,-1,-1,-2
1470243058749953,-2,-13,-1,-3,-1,-2,-3,0
1470243058749953,-1,16,1,1,-1,-2,0,-2
1470243058763967,-2,-4,3,1,1,-1,-1,-4
1470243058763967,-6,-10,-12,-4,-3,-2,-2,-2
1470243058764467,2,5,6,-1,-2,-1,-1,0
1470243058764467,-2,-7,4,2,0,-1,0,0
1470243058786486,-2,-3,0,-1,0,1,-1,0
1470243058786486,-1,3,-12,-6,0,-1,0,-1
1470243058786988,1,-1,0,1,0,0,0,0
1470243058786988,-3,-5,-2,-2,-1,-3,-2,-3
1470243058817013,-1,-1,6,-1,-3,-1,-1,-1
1470243058817013,-2,-6,3,-1,-1,0,-3,0
1470243058818054,-3,-2,1,-4,-3,-1,-1,-3
1470243058818054,2,18,-14,-5,-2,0,-2,0
1470243058824024,-1,-15,2,2,0,-2,-1,-1
1470243058824024,-1,6,5,0,-2,-1,-1,-3
1470243058824520,-1,-1,-1,-2,-2,-1,-1,-2
1470243058824520,-1,4,5,0,1,0,-3,1
1470243058846540,-4,0,0,-1,0,-1,-1,0
1470243058846540,-1,1,2,1,0,-2,1,0
1470243058847043,0,6,-8,-2,1,1,-2,-3
1470243058847043,-4,-9,4,-2,-1,-1,0,-1
1470243058869060,-3,-1,-6,-5,-1,0,-1,0
1470243058869060,1,4,18,3,0,-1,-2,-2
1470243058869561,-4,-16,-9,0,-2,-2,-1,-2
1470243058869561,1,1,-3,-2,-2,-2,-2,0
1470243058884073,0,-3,-3,0,-1,0,-1,-3
1470243058884073,-2,1,0,-3,-3,0,-2,0
1470243058884575,-2,-3,-1,-4,-1,-1,0,-1
1470243058884575,-1,-2,3,0,0,1,0,1
1470243058907112,-1,1,7,-2,-4,-2,-2,0
1470243058907112,2,-2,2,1,-1,-3,0,0
1470243058908096,0,10,2,0,0,-1,-1,0
1470243058908096,1,1,-12,-3,-2,-2,0,-1
1470243058929115,0,-14,-3,0,-1,0,0,-3
1470243058929115,-3,0,-4,-3,-1,-1,-2,-1
1470243058930116,2,2,9,-1,-2,-1,-1,2
1470243058930116,-4,-7,-4,-2,-2,-1,0,-3
1470243058944203,-3,1,-9,-3,-1,-2,-2,-1
1470243058944203,3,28,6,1,0,-3,-1,-1
1470243058944628,-3,-18,-9,-1,0,-1,-1,0
1470243058944628,-3,-2,2,1,0,-1,-1,-1
1470243058966695,0,-5,-3,-2,-1,-1,-1,-3
1470243058966695,-2,-6,-2,-1,-2,0,-1,0
1470243058967149,-1,2,0,0,-1,-1,-2,-4
1470243058967149,-1,0,0,-3,-1,-1,-1,0
1470243058989169,-1,1,-8,0,0,-1,-2,0
1470243058989169,-2,-5,3,0,-2,-2,-3,-2
1470243058989681,-2,2,-1,2,-1,-2,1,1
1470243058989681,-1,-5,-1,-3,-1,-1,0,-2
1470243059003181,0,8,-3,-4,-2,0,-1,-2
1470243059003181,-2,-21,-7,-1,-2,0,-2,0
1470243059011689,-1,1,4,-1,-1,-2,-2,0
1470243059011689,-3,-8,-12,-2,0,-1,-1,-1
1470243059026702,1,3,12,3,0,-2,0,0
1470243059026702,-3,-1,2,-1,-2,1,-2,-1
1470243059027202,-2,-5,3,-3,-2,0,-1,-1
1470243059027202,-2,-3,-5,-4,-3,-1,-4,-2
1470243059049223,-1,-3,-2,-3,-2,-2,0,2
1470243059049223,0,20,10,5,-1,-1,-1,-1
1470243059049723,0,-1,-15,-2,0,-2,0,-2
1470243059049723,-1,-15,5,-3,-2,-1,-1,2
1470243059064236,-3,10,-6,-3,0,0,-1,-2
1470243059064236,1,-6,2,0,0,0,0,-1
1470243059064745,0,1,-3,0,-1,0,0,0
1470243059064745,2,11,6,1,-1,-2,0,-3
1470243059094763,-2,-6,2,1,-2,-1,-1,0
1470243059094763,-1,-8,-10,-4,1,-1,0,0
1470243059095264,0,4,2,-2,0,-1,-2,-2
1470243059095264,1,5,6,-3,0,0,-2,1
1470243059108777,-4,-14,8,6,-3,-2,-3,-1
1470243059108777,1,0,-10,-3,-1,-2,-1,-1
1470243059109780,0,1,15,2,-3,-1,0,-3
1470243059109780,-2,2,-12,-3,-2,0,1,-2
1470243059123807,3,2,-4,0,1,-1,1,0
1470243059123807,-2,-7,4,-3,-1,-3,0,-3
1470243059124790,-3,-4,-5,0,-2,-2,-2,1
1470243059124790,0,21,8,1,0,-2,-2,-1
1470243059146312,-2,-8,-5,-6,-3,-1,-1,1
1470243059146312,-1,-3,-7,-1,-2,0,-1,1
1470243059147313,-2,-1,-3,-1,-1,-1,-1,0
1470243059147313,-2,-10,1,1,-1,0,-1,-3
1470243059168886,1,10,0,-1,-2,-2,-2,-3
1470243059168886,0,5,-5,-3,-1,0,0,0
1470243059169866,-1,-7,-6,-5,1,0,-1,-2
1470243059169866,-2,-3,14,6,-1,-1,1,-1
1470243059183361,-2,2,11,1,-4,-1,0,-3
1470243059183361,-2,-12,-9,0,-3,-2,-3,-1
1470243059191890,-1,2,1,-1,-2,-1,-2,-1
1470243059191890,1,-2,-16,-4,0,-3,-1,-1
1470243059206391,1,0,-4,0,1,-1,-2,-1
1470243059206391,-3,-1,2,-3,-2,-1,-2,-2
1470243059207364,-4,-1,5,-3,-3,-2,0,0
1470243059207364,1,4,2,2,-1,0,-1,-2
1470243059229884,-3,-13,-11,-4,-1,0,1,1
1470243059229884,-1,3,-3,0,0,-3,-1,-2
1470243059230388,-2,-6,-2,-1,1,-1,-1,-2
1470243059230388,-1,3,2,-2,-1,-2,-2,2
1470243059243414,1,-3,-1,-3,-2,-1,-2,-3
1470243059243414,-2,3,1,0,-2,1,-1,-1
1470243059258912,1,1,-1,-5,-3,-3,0,-2
1470243059258912,-2,-7,3,-1,-1,-2,-1,-2
1470243059266432,-1,5,4,4,0,0,0,-1
1470243059266432,0,-2,-5,-1,-1,-1,-1,-2
1470243059267418,2,6,-9,-2,-1,0,-1,-1
1470243059267418,-1,-1,5,1,-2,0,0,0
1470243059288982,0,-1,3,-4,-3,-3,0,0
1470243059288982,-1,-2,9,4,-1,-2,-2,-1
1470243059289490,0,-7,-11,-1,-1,-1,0,-1
1470243059289490,1,2,-1,-2,-2,0,-1,-4
1470243059303450,-1,2,-3,-2,0,-1,-2,-2
1470243059303450,1,1,-2,-2,-1,-1,1,0
1470243059311484,1,1,3,0,-3,-3,-2,0
1470243059311484,-4,-4,-5,-2,-2,-2,-1,-1
1470243059326471,-1,-3,0,-1,-1,1,-3,-3
1470243059326471,-1,2,-3,-2,0,1,0,-1
1470243059327473,-4,-10,2,2,1,0,-1,-2
1470243059327473,1,4,-1,0,0,-1,-2,0
1470243059348994,0,-6,-4,0,-1,-2,-3,1
1470243059348994,-1,7,-4,-3,0,-1,0,-2
1470243059349494,-2,0,4,-2,-2,-3,0,-2
1470243059349494,-1,-5,-3,-3,-2,-1,0,-1
1470243059363504,0,1,-10,-2,0,-1,1,0
1470243059363504,-1,-2,10,-1,0,-2,-1,-4
1470243059371542,0,-11,-5,-1,0,-1,-1,1
1470243059371542,-2,1,16,4,-3,-1,-2,-2
1470243059386543,-3,-4,-10,-3,-1,-1,-2,-2
1470243059386543,-2,0,-11,-4,-1,-1,0,-3
1470243059387026,-2,-7,1,-1,-1,0,-2,1
1470243059387026,4,4,-3,-1,1,-1,-1,-1
1470243059409065,-1,2,0,0,-1,0,1,2
1470243059409065,-1,-3,2,-1,-3,-2,-2,2
1470243059409546,0,23,8,0,0,1,-1,-3
1470243059409546,-1,-30,-15,-4,-1,-1,1,-2
1470243059423590,2,25,4,-1,0,-2,1,-1
1470243059423590,-1,-11,-6,-2,-1,-2,-2,1
1470243059431591,-1,2,2,1,-2,0,-1,-1
1470243059431591,-1,-4,-13,-4,-1,-1,-2,-2
1470243059446614,-2,-2,18,4,0,2,-2,-1
1470243059446614,0,1,-5,-1,-3,-1,-1,0
1470243059447082,2,4,1,0,0,-3,-1,-1
1470243059447082,-1,0,-6,-1,-1,-2,-2,-1
1470243059469192,-1,-9,-12,-4,-1,1,-1,0
1470243059469192,-1,-2,5,-1,-2,-1,-3,1
1470243059469602,0,0,0,0,-1,0,-2,1
1470243059469602,-1,5,2,0,0,0,0,-1
1470243059483640,-3,-3,2,0,-1,-2,1,-3
1470243059483640,-1,-2,0,-1,-1,0,-1,-1
1470243059491684,0,-2,-2,-2,-1,-2,-2,-2
1470243059491684,-2,-3,1,-5,-2,0,0,0
1470243059506632,-1,0,0,-2,-1,-1,-1,0
1470243059506632,-2,-10,2,2,1,-1,-1,-2
1470243059507133,-4,-15,-12,-4,-2,0,-1,-1
1470243059507133,1,37,-1,0,0,-1,-3,0
1470243059529153,-3,-31,11,1,-2,0,-3,-1
1470243059529153,-1,7,7,5,-1,-1,-1,-2
1470243059529654,-3,-5,-2,-2,-1,-1,-1,-2
1470243059529654,1,-9,-5,-2,-1,-1,-1,-3
1470243059552187,2,15,-5,-4,-1,0,-2,1
1470243059552187,-1,-5,-5,-6,-1,0,0,-1
1470243059553174,-1,-12,3,0,0,0,0,-1
1470243059553174,-3,0,4,1,-1,-1,-2,1
1470243059566688,0,-1,-5,-2,-2,-2,-1,-1
1470243059566688,-2,-5,4,0,0,-1,-1,-1
1470243059567187,1,0,-1,-1,-3,-2,0,-2
1470243059567187,-2,-8,2,-1,-2,-1,0,-2
1470243059589207,1,3,-7,-1,-3,-2,-1,0
1470243059589207,-1,0,5,-2,0,0,-1,0
1470243059589707,1,12,1,1,0,-2,-1,-1
1470243059589707,-3,-18,-9,-1,0,-2,-2,-3
1470243059612229,0,-9,2,-2,2,-1,-1,-2
1470243059612229,-5,-2,3,4,-4,-3,-2,-3
1470243059612729,2,12,-6,-3,0,-1,0,-2
1470243059612729,-3,-12,3,0,-4,-2,-2,-1
1470243059626741,-1,-2,-10,-1,0,0,1,1
1470243059626741,-1,-2,-11,-5,-1,-1,0,-2
1470243059627242,-2,-1,3,2,1,-1,-1,0
1470243059627242,1,3,-3,-1,0,-2,-1,-1
1470243059648783,-1,-2,-15,-6,-3,-1,-2,0
1470243059648783,1,-1,10,3,0,-2,-2,2
1470243059649767,-2,-5,-9,-3,-2,-3,-1,-1
1470243059649767,-2,4,8,1,0,-1,0,-1
1470243059672299,0,-2,-2,0,0,-1,-1,-2
1470243059672299,1,7,-2,-3,-1,-2,0,0
1470243059672818,-1,-7,-3,-2,-1,0,-1,1
1470243059672818,0,-4,-1,1,-1,-1,0,0
1470243059686795,-5,-6,8,0,-1,-4,-2,-3
1470243059686795,-1,-1,-6,-2,-2,-2,-1,-2
1470243059687295,-2,0,-2,-2,-1,-1,-1,-1
1470243059687295,1,3,5,-2,-2,0,0,0
1470243059709315,1,7,-3,1,-1,-2,0,-3
1470243059709315,-1,-13,-11,-3,-1,0,0,1
1470243059709816,-3,6,0,0,-2,0,0,0
1470243059709816,0,2,2,-1,0,-1,-1,-2
1470243059739843,-2,-8,-10,-2,0,1,-2,-1
1470243059739843,-2,8,2,0,-1,-3,0,0
1470243059740344,0,1,-2,-2,-1,1,-1,-1
1470243059740344,-2,-12,-7,-2,-3,-2,-1,-1
1470243059746349,-5,-6,12,1,-2,-3,-1,0
1470243059746349,-1,4,-7,-3,-2,-2,1,-1
1470243059747351,-1,-2,3,2,-1,-3,-1,-2
1470243059747351,1,4,-6,-1,-1,1,-1,-2
1470243059768884,-8,-4,2,-1,-1,0,0,-2
1470243059768884,2,-7,-4,-3,-2,0,-2,-1
1470243059769869,-1,-5,2,-2,-2,-2,-1,0
1470243059769869,0,-1,-6,-1,0,-3,0,-1
1470243059792395,0,7,1,1,-3,-2,-2,-1
1470243059792395,-3,-3,-2,-2,1,0,-1,-3
1470243059792891,0,4,7,1,-3,0,-2,-2
1470243059792891,-1,1,2,-1,-1,-2,-1,-1
1470243059806419,2,3,0,0,0,0,0,1
1470243059806419,1,8,-5,-3,-1,-1,0,0
1470243059807403,0,-3,-6,-5,-1,0,-1,-1
1470243059807403,0,6,5,2,-2,-1,1,0
1470243059828923,-2,-2,10,0,-2,-2,-1,0
1470243059828923,-2,-4,0,1,-3,-1,-1,-1
1470243059829923,-2,6,1,-1,0,-1,-2,-2
1470243059829923,0,17,-3,-1,-1,1,-2,-1
1470243059852443,1,1,-14,-3,0,-2,-1,2
1470243059852443,-2,-5,-1,-2,-2,0,-2,0
1470243059852944,1,-5,1,2,-2,-1,0,0
1470243059852944,-6,-4,-1,-1,-2,-3,-1,1
1470243059866458,0,-3,-4,-2,-1,-1,-2,-2
1470243059866458,-4,4,-4,0,1,1,0,-2
1470243059867457,2,-5,1,0,1,-1,0,0
1470243059867457,2,6,8,2,-2,-1,0,-1
1470243059888976,-3,-14,-8,-2,-4,0,0,-3
1470243059888976,-2,1,5,-1,-2,0,-1,-1
1470243059889478,-4,-13,-8,-4,0,-2,-3,-2
1470243059889478,0,2,6,0,0,1,-2,0
1470243059912497,-1,5,-11,-3,-2,-2,-2,-2
1470243059912497,0,-2,-5,-1,-1,-1,0,-1
1470243059912999,-1,0,1,-3,-2,-2,0,0
1470243059912999,-4,-8,-4,-3,-2,0,0,-1
1470243059926516,1,10,8,0,0,-1,-2,1
1470243059926516,-2,-4,-1,2,-1,-1,-1,-1
1470243059927015,-3,12,3,-2,-1,-1,-1,-2
1470243059927015,-2,-17,-2,0,-1,-1,-1,0
1470243059949031,0,9,-3,-3,-1,0,-1,0
1470243059949031,1,2,1,-2,-1,-2,-1,-1
1470243059949531,-4,-9,-2,2,0,-2,0,-1
1470243059949531,0,4,-14,-6,-3,-3,-2,-1
1470243059972649,-2,0,5,0,-2,-3,-1,-2
1470243059972649,1,-2,3,-1,-1,-1,-2,0
1470243059973051,-2,6,5,1,-2,-1,-2,0
1470243059973051,-1,-8,-6,-2,-1,0,-1,-1
1470243059986565,-1,1,-3,-1,-1,1,0,-1
1470243059986565,0,-3,-10,-3,0,-2,-1,0
1470243059987065,-2,-2,-8,-7,-2,1,0,0
1470243059987065,-4,2,13,1,-2,0,-1,0
1470243060009084,0,-5,-2,-1,-1,-2,-2,-3
1470243060009084,0,-14,-1,0,-1,-1,-2,-1
1470243060009585,0,14,3,1,-3,-3,-1,-2
1470243060009585,1,-11,-10,-4,-1,-1,0,0
1470243060032121,0,-10,7,0,-1,-1,0,-1
1470243060032121,0,7,1,1,-3,-2,-2,1
1470243060033107,0,-10,-4,-2,-1,1,-1,-1
1470243060033107,-1,2,10,3,0,-1,0,-3
1470243060046619,-2,-4,-1,-2,-1,-1,-2,-2
1470243060046619,1,4,-9,-2,0,0,0,0
1470243060047118,-3,-12,7,4,-1,-1,-2,0
1470243060047118,-1,1,-6,-1,-1,-2,-2,0
1470243060069137,-1,-2,-4,-2,0,-1,0,1
1470243060069137,6,-2,7,-2,-2,-3,-1,1
1470243060069638,-5,8,-3,0,0,-1,0,0
1470243060069638,1,-9,-5,-2,-2,-2,-2,-3
1470243060092161,-1,5,-2,-3,-3,-2,-1,-2
1470243060092161,1,-11,-8,0,-1,1,-1,-1
1470243060093159,-1,-6,11,-1,-3,0,-2,-1
1470243060093159,1,-3,-6,-2,0,-1,-1,2
1470243060106671,-7,5,0,-1,0,-1,-2,1
1470243060106671,-3,-4,10,2,-2,1,0,-2
1470243060107173,-2,6,3,-1,0,-1,-3,-1
1470243060107173,-3,-1,-4,-1,-1,0,-1,-2
1470243060129192,5,-1,0,0,1,-1,-1,-2
1470243060129192,-5,-4,-7,-3,-3,-4,-1,-2
1470243060130193,0,-15,-3,-1,-3,-1,-1,-1
1470243060130193,2,10,6,-5,0,0,0,0
1470243060152213,0,3,1,5,0,-1,0,0
1470243060152213,0,-3,-10,-4,-3,-3,-1,-1
1470243060152713,-12,7,13,0,-1,-1,1,-6
1470243060152713,-2,2,-14,-5,-1,0,-1,1
1470243060174735,8,-5,-5,-2,-2,-2,-1,1
1470243060174735,-23,2,2,1,2,-1,0,-5
1470243060175737,6,-10,-24,-6,-1,-3,-1,1
1470243060175737,-1,16,18,2,-3,0,-2,-3
1470243060189245,-6,10,7,1,-1,1,-1,-1
1470243060189245,12,-8,-33,-7,-3,0,-1,-1
1470243060189748,3,-3,-3,-3,-1,1,0,2
1470243060189748,-4,-3,2,1,-3,-1,0,0
1470243060212267,8,-3,0,3,-2,-2,0,0
1470243060212267,-14,4,10,-1,-3,-1,-2,-1
1470243060212768,-5,4,-13,0,-1,-1,-2,-3
1470243060212768,10,-10,-3,6,-1,-1,-1,2
1470243060225779,0,-12,-5,-9,1,1,0,0
1470243060225779,11,9,9,-2,-3,-1,1,2
1470243060233787,2,-7,-3,3,2,2,-1,-1
1470243060233787,-4,23,4,-1,-2,-1,-1,-3
1470243060249299,-7,-16,-5,0,-4,-2,-2,-2
1470243060249299,-7,3,6,3,0,-1,0,1
1470243060249801,7,-13,-9,2,-1,-2,-2,-2
1470243060249801,1,-11,-2,-5,0,-3,-1,-4
1470243060272323,-8,7,13,2,-2,-1,0,0
1470243060272323,5,-2,-24,-14,-2,0,-2,-1
1470243060272821,-2,0,19,9,-1,0,0,0
1470243060272821,-5,10,-10,-7,-1,-1,-1,-1
1470243060295341,5,1,-4,2,-3,-1,1,1
1470243060295341,0,-3,6,2,0,1,-2,0
1470243060295841,4,7,-1,-3,-3,-3,-1,1
1470243060295841,-8,-6,8,9,-3,-3,0,-1
1470243060308853,4,7,-7,-10,1,-2,-2,-2
1470243060308853,-6,1,9,11,1,1,0,-2
1470243060309854,-12,0,1,-15,-1,0,-3,-4
1470243060309854,-1,-20,1,1,-2,-2,-2,2
1470243060332410,-2,24,-6,4,-2,1,0,-4
1470243060332410,5,-19,6,-5,-1,-1,3,0
1470243060332875,-7,-6,3,-1,-1,-3,-1,1
1470243060332875,3,15,-24,-2,4,0,-1,-3
1470243060346388,-4,-2,22,4,-3,-4,-1,1
1470243060346388,5,3,1,0,1,1,-1,0
1470243060353912,2,-5,-3,-1,-3,-1,-1,-2
1470243060353912,0,-14,-4,-6,0,0,-1,0
1470243060368926,3,4,-7,11,2,-1,0,-2
1470243060368926,-3,7,2,-9,-4,0,-3,-3
1470243060369911,2,14,12,2,1,0,1,2
1470243060369911,-20,-7,-2,3,-1,-2,-4,-5
1470243060392429,2,13,-2,-2,-4,-1,-1,-2
1470243060392429,10,-16,-11,-5,-1,-2,-2,1
1470243060392941,-15,2,-15,-9,-2,-2,1,2
1470243060392941,9,-13,-12,9,-7,-3,-1,-3
1470243060405940,0,-25,23,-16,5,1,-1,0
1470243060405940,0,-3,-50,-11,-1,0,0,-2
1470243060413948,8,78,35,21,-3,-2,-2,-2
1470243060413948,-13,-44,-3,-10,-3,-1,0,0
1470243060428961,-2,3,-5,13,-3,-1,-4,-3
1470243060428961,4,-14,14,-12,-3,-2,-1,0
1470243060429963,-1,-30,-22,-6,3,2,-1,1
1470243060429963,-12,-3,-4,-1,0,-3,-3,-6
1470243060452487,6,9,-17,-6,-4,-2,-2,0
1470243060452487,3,-1,7,3,1,-2,-3,-2
1470243060452983,-9,-24,-8,-1,-2,-1,-1,0
1470243060452983,10,17,34,2,1,0,3,2
1470243060465995,-4,-24,-28,-3,-1,-1,0,-1
1470243060465995,-9,13,2,6,0,-1,-1,-2
1470243060474003,13,-7,21,5,-2,-3,0,-2
1470243060474003,3,24,-1,0,1,0,0,2
1470243060489016,-12,8,-8,-16,0,2,-1,-2
1470243060489016,0,0,9,7,-4,-1,1,-2
1470243060489515,4,18,4,5,1,0,-1,-1
1470243060489515,-7,-9,-27,-12,3,-1,-1,-1
1470243060512536,0,-29,5,-4,-5,-3,-2,-3
1470243060512536,-6,4,7,12,-1,-2,-2,-2
1470243060513038,-17,-11,-19,-5,-3,-1,-3,-4
1470243060513038,4,-3,3,-4,-5,-1,-1,1
1470243060535144,2,-10,2,4,0,-1,-1,5
1470243060535144,7,-3,-7,-4,2,0,-1,-1
1470243060535557,-12,0,1,-2,-1,-3,-2,-4
1470243060535557,4,-5,-9,-1,-2,0,-2,1
1470243060549088,1,6,7,-8,-3,-4,0,0
1470243060549088,-6,-5,-22,4,-2,-2,-1,-2
1470243060549569,7,-7,0,-5,2,1,-1,1
1470243060549569,3,12,-25,-6,-2,0,0,0
1470243060572651,-12,-5,23,5,1,-1,0,-1
1470243060572651,7,9,10,9,0,-1,-1,0
1470243060573092,1,3,-8,1,-2,1,-2,-1
1470243060573092,-4,-4,7,-1,-1,-1,0,0
1470243060594626,5,-1,-9,-2,-2,-2,-1,-1
1470243060594626,-5,3,22,-1,-4,-3,-1,0
1470243060595624,2,-9,-5,2,0,-1,2,2
1470243060595624,4,-2,11,-9,0,-1,-2,-1
1470243060609186,-2,-3,-6,4,-1,1,-1,-1
1470243060609186,-8,16,8,7,-4,-1,-1,-2
1470243060609623,4,-9,3,-12,-2,-2,-2,-1
1470243060609623,-7,-3,17,11,1,-2,-1,-2
1470243060632654,-7,22,-18,-10,-1,-1,0,-3
1470243060632654,4,-11,11,-3,-2,-1,0,0
1470243060633179,1,1,-9,7,-1,-1,0,-4
1470243060633179,2,9,15,-7,-2,0,1,0
1470243060654679,9,-13,-5,-4,-2,-3,-2,-2
1470243060654679,-32,5,-9,-5,0,1,0,-4
1470243060655668,4,-16,-3,-8,-3,-3,-3,0
1470243060655668,-1,1,3,4,1,-3,-1,-3
1470243060669177,-2,2,-13,4,-1,0,0,0
1470243060669177,5,0,-1,-5,-2,-1,-2,0
1470243060669677,-1,-12,7,-2,-2,-2,-1,-2
1470243060669677,-1,15,-29,-4,-1,1,-2,-1
1470243060692234,-12,-19,24,9,-2,-4,-1,0
1470243060692234,12,3,-3,-7,1,-1,-2,-3
1470243060693200,-5,-7,-13,-5,0,0,-1,-1
1470243060693200,7,12,11,-1,-4,-2,0,1
1470243060714719,-2,-4,11,-2,-1,0,-1,-1
1470243060714719,-8,3,-3,4,-2,0,-1,0
1470243060715720,11,6,3,9,-1,0,-1,2
1470243060715720,2,-3,2,-7,-1,-2,-1,-2
1470243060729236,-5,-2,0,-9,2,2,-1,-2
1470243060729236,-18,-7,6,3,-2,-1,-2,-2
1470243060730232,9,6,-7,-4,0,0,-1,0
1470243060730232,-6,-21,3,6,-3,-2,-1,-2
1470243060752271,-2,-2,-14,0,0,-1,-1,-1
1470243060752271,5,5,4,-7,2,-1,-1,0
1470243060752751,-1,-19,-3,-1,-2,-1,-1,-2
1470243060752751,-7,25,19,3,1,0,-1,0
1470243060774773,-7,-20,-42,-9,-4,-1,-1,-2
1470243060774773,9,-2,17,3,1,-2,1,-2
1470243060775273,-8,-3,-11,-8,-5,-2,-2,-1
1470243060775273,0,-4,10,1,-4,-1,-1,-1
1470243060788786,6,11,12,5,1,-2,-1,0
1470243060788786,-12,-7,2,2,0,-2,-1,-1
1470243060789787,4,4,-23,-9,-2,-1,0,0
1470243060789787,-1,-26,5,-1,-1,1,0,-1
1470243060812342,6,7,-11,-1,-1,0,0,2
1470243060812342,2,10,0,-1,-1,-2,-2,0
1470243060813307,-1,-2,22,6,1,1,-1,-1
1470243060813307,-4,-11,-12,-1,-1,-2,-2,-2
1470243060834825,-5,13,-6,0,-1,0,0,-1
1470243060834825,7,-15,2,-1,0,-1,-2,1
1470243060835326,-8,16,12,-3,-2,-1,0,-3
1470243060835326,1,-11,-30,-7,-3,-2,1,1
1470243060849341,3,3,30,6,1,-2,2,3
1470243060849341,-7,-1,-22,-3,-3,-1,-3,-4
1470243060850341,2,5,-1,0,2,1,5,6
1470243060850341,2,3,0,-1,-1,-5,-2,-2
1470243060872359,-2,-1,-7,-5,-2,-2,-3,-2
1470243060872359,-2,-4,2,-3,-3,-1,-1,-4
1470243060872860,0,-7,-4,3,0,0,1,-2
1470243060872860,-2,12,-1,2,-2,0,-1,0
1470243060894879,-2,-24,2,-6,-2,-3,-3,-3
1470243060894879,5,10,-1,-1,0,-1,-1,5
1470243060896381,-1,6,-2,-6,-2,-2,-4,-2
1470243060896381,-1,-6,18,-2,1,0,0,-1
1470243060908391,-4,6,16,10,0,1,-1,-3
1470243060908391,-3,-3,-9,-2,-1,0,-1,-1
1470243060917400,-5,-4,-5,-3,2,1,0,1
1470243060917400,2,-2,4,6,-1,0,-1,0
1470243060932412,-13,8,11,4,-2,0,0,-3
1470243060932412,2,-5,-11,-15,-4,-2,-1,-1
1470243060933914,1,1,-1,-1,-1,-1,-1,0
1470243060933914,-1,-3,0,-4,0,0,-2,-1
1470243060954433,3,1,0,1,0,-1,-1,1
1470243060954433,0,-3,1,5,-2,0,0,1
1470243060955934,-6,-4,-4,-4,-2,-3,-3,-4
1470243060955934,0,2,-4,0,0,0,-2,-2
1470243060968447,0,-3,-4,-7,-2,-1,-2,-1
1470243060968447,1,-9,-1,3,1,1,-1,0
1470243060977457,-2,-4,0,-3,-1,-1,-2,-3
1470243060977457,-3,5,-14,-1,-1,0,-1,-3
1470243060992467,3,10,2,3,-1,-1,-2,0
1470243060992467,0,-1,9,3,0,-1,0,0
1470243060993470,-4,-1,-16,-9,-2,-2,-2,-1
1470243060993470,0,6,3,2,-1,-1,-1,1
1470243061014987,-3,-17,3,-10,-1,0,-1,-1
1470243061014987,2,1,3,10,-1,-2,0,0
1470243061016489,-16,2,-21,-1,-2,-2,-2,-4
1470243061016489,5,-6,-2,-2,2,0,0,0
1470243061028516,4,3,-3,1,0,1,0,0
1470243061028516,-9,-2,17,-5,-4,-2,-2,-2
1470243061037507,6,2,5,9,2,-2,-2,-1
1470243061037507,-1,-10,-22,-1,-4,0,0,-1
1470243061052022,1,7,8,-8,1,-1,-2,-3
1470243061052022,2,-2,-18,2,0,0,1,-2
1470243061053522,-2,-2,26,4,0,-1,-1,-1
1470243061053522,-2,-2,-37,-9,-2,-1,-1,0
1470243061075085,6,6,5,4,-2,-2,0,2
1470243061075085,-3,1,-6,-7,-1,-1,0,-2
1470243061076542,3,-8,-15,-5,-4,0,-2,1
1470243061076542,-5,0,22,4,-2,0,1,0
1470243061088554,-3,-1,-1,-2,-2,-1,0,0
1470243061088554,0,6,-10,-2,1,0,-2,-1
1470243061097561,0,-3,20,9,-2,0,1,-1
1470243061097561,-4,-7,4,-6,-2,-4,-2,-3
1470243061112578,-4,-1,-8,4,-2,-2,-1,-2
1470243061112578,-1,-11,2,-6,-2,-1,-1,-1
1470243061113576,5,3,-7,-9,-3,1,1,-1
1470243061113576,-2,4,0,0,0,0,-1,0
1470243061134613,-1,0,8,9,-2,-3,-2,-1
1470243061134613,0,-1,-5,-8,-1,-4,0,-2
1470243061136097,-3,0,-2,4,2,1,-1,1
1470243061136097,-6,-4,-16,-12,-5,0,1,-1
1470243061148608,-4,-1,-5,-6,-1,1,-3,-1
1470243061148608,0,6,3,4,-2,-1,-1,-3
1470243061157114,-1,1,-4,0,-2,-2,0,0
1470243061157114,3,-1,14,7,2,-2,0,0
1470243061172654,-5,-22,-31,-11,1,-1,-1,-2
1470243061172654,-6,12,16,11,1,-1,-1,-2
1470243061174130,0,-13,0,-7,-3,-1,0,-2
1470243061174130,-2,-3,-2,0,0,-1,-2,-2
1470243061194677,2,3,-2,-4,-3,-2,-2,1
1470243061194677,-1,-1,-2,2,-1,-1,-2,0
1470243061196151,0,2,1,-4,-2,-2,-1,-1
1470243061196151,0,1,0,0,2,0,0,1
1470243061208665,-2,-1,0,-1,-1,0,-1,-2
1470243061208665,1,-2,4,-3,-2,1,0,1
1470243061217183,2,8,-1,5,-1,-2,-1,-1
1470243061217183,-3,-5,3,2,-2,-1,-1,-2
1470243061232187,-5,4,-8,-2,-1,-2,2,-1
1470243061232187,2,-5,1,2,-1,-2,-2,0
1470243061238188,0,-5,0,-1,-2,-2,0,1
1470243061238188,-3,17,20,3,-1,-1,-1,-2
1470243061254717,2,10,4,6,0,0,-1,-1
1470243061254717,0,0,-5,-4,-2,0,1,0
1470243061256207,-1,-2,-7,-13,-4,-1,-3,-1
1470243061256207,-2,-5,6,0,1,-2,-2,-1
1470243061268722,1,1,-3,2,-1,-4,-1,-2
1470243061268722,0,5,4,5,2,0,-2,-1
1470243061284729,0,-1,-8,-6,-2,-1,0,-1
1470243061284729,-3,-13,12,1,-4,-1,-1,-1
1470243061292264,-4,-9,-17,-7,-2,-1,-3,1
1470243061292264,-1,-3,-3,0,1,-3,1,1
1470243061293738,-2,2,-5,1,-2,0,-2,0
1470243061293738,-10,-2,1,-2,-1,-1,-3,-5
1470243061314756,0,3,3,7,-1,1,0,1
1470243061314756,-4,-17,-9,-3,-4,-3,-2,-3
1470243061316259,-3,8,6,1,1,-1,-1,-1
1470243061316259,5,4,-7,-2,0,0,-1,0
1470243061328269,3,-17,-1,-2,0,-1,-1,-1
1470243061328269,-6,-16,0,-7,-2,0,-2,-1
1470243061337277,5,23,6,1,-1,0,-2,-2
1470243061337277,3,6,1,0,-1,-1,0,0
1470243061352291,-3,-13,2,3,1,0,-1,-2
1470243061352291,3,1,5,4,2,1,-1,1
1470243061353791,-3,-15,-5,-2,2,1,-1,1
1470243061353791,-2,-5,-8,-2,-2,-2,-2,-1
1470243061374811,1,15,10,0,-2,-1,0,1
1470243061374811,2,10,-4,-3,-2,-3,-1,-1
1470243061376312,-5,-15,2,0,-2,-2,0,-1
1470243061376312,-1,1,-10,-9,-1,-1,0,-1
1470243061388357,0,0,2,0,0,-2,-1,-2
1470243061388357,2,-2,-6,-4,-4,0,-3,-3
1470243061403349,-7,-3,-4,6,-1,0,-1,0
1470243061403349,9,-3,6,-1,-3,-2,-1,-3
1470243061412404,-8,-2,-9,-13,-1,1,0,-1
1470243061412404,4,2,-3,0,-2,-3,-2,1
1470243061413846,-3,0,-5,-4,0,-1,0,0
1470243061413846,11,2,5,10,-3,0,-1,1
1470243061434870,-4,10,-8,0,-1,-2,-1,-1
1470243061434870,-3,6,-2,-2,1,-2,0,-2
1470243061436367,3,0,2,-2,-1,-2,-1,-3
1470243061436367,-8,-26,0,-2,-1,0,0,-1
1470243061457405,3,2,8,1,-2,-1,-1,1
1470243061457405,-8,6,-6,-7,-2,-1,0,0
1470243061458887,5,-3,4,2,-1,-3,0,0
1470243061458887,5,-18,-4,-1,-2,0,-2,-1
1470243061472404,-9,9,0,4,-3,-3,-2,-3
1470243061472404,3,-4,-6,-5,0,-1,-1,0
1470243061473909,-6,-9,6,-1,-1,0,-2,-1
1470243061473909,-3,7,-4,-5,0,-2,-1,-1
1470243061494918,5,-5,-4,4,-1,-1,1,-1
1470243061494918,-4,-1,8,-2,2,0,-3,-2
1470243061496421,0,4,0,0,-1,-1,-1,-2
1470243061496421,-8,2,-7,-2,1,-1,0,-1
1470243061517440,-2,-14,-2,2,0,0,-2,-3
1470243061517440,5,4,0,0,-2,-1,0,-1
1470243061518959,0,-8,-4,-8,0,1,1,0
1470243061518959,-3,18,0,3,-2,-2,-1,-1
1470243061532457,10,-20,6,4,0,1,0,1
1470243061532457,-12,-4,-10,-3,-1,0,0,-1
1470243061533955,3,3,13,6,-3,-2,-3,-3
1470243061533955,7,-5,-2,1,-1,-1,-1,-1
1470243061554973,-16,3,-2,-7,-1,-1,-1,-3
1470243061554973,9,-4,-10,-7,0,0,0,1
1470243061556474,-5,7,11,10,1,1,0,-1
1470243061556474,1,7,5,-10,-2,-1,-1,2
1470243061577493,4,7,7,5,-2,-1,0,-2
1470243061577493,-1,-9,-8,-2,-3,-1,-1,1
1470243061578994,-3,2,-1,1,0,0,-2,-1
1470243061578994,-3,4,-5,2,-1,-2,-1,1
1470243061591505,4,-3,-5,-6,-1,-1,0,-3
1470243061591505,-4,2,3,-2,-2,-3,-1,-3
1470243061598513,0,-3,-7,-2,-3,0,0,-1
1470243061598513,-4,-3,-4,1,1,0,-3,-3
1470243061615026,-2,4,-4,-7,-3,0,-2,2
1470243061615026,-1,-6,-2,2,-4,-2,-1,-1
1470243061616527,-5,4,9,11,2,-3,-2,-1
1470243061616527,-5,-10,-6,-2,0,-1,0,-1
1470243061637046,6,2,-5,-9,-2,0,-1,1
1470243061637046,-4,5,-1,-2,0,2,-1,1
1470243061638547,5,2,-14,-18,-4,-1,-1,-2
1470243061638547,-8,1,7,3,-2,-1,-1,-4
1470243061651561,-2,-12,-6,7,0,0,0,-3
1470243061651561,-1,-4,0,2,-2,-1,-1,0
1470243061658565,1,-2,-5,0,-3,-2,-1,0
1470243061658565,8,2,-3,0,1,1,0,-1
1470243061682087,-7,1,1,-7,-2,-2,-1,1
1470243061682087,-1,-15,-4,7,1,0,-1,-1
1470243061683587,-8,-2,-1,-11,-3,-2,-1,-2
1470243061683587,-2,3,-3,2,0,-1,-1,0
1470243061697101,17,2,7,1,0,-2,-1,-1
1470243061697101,-24,1,-2,1,-1,-1,-1,-4
1470243061698601,1,-2,-4,-8,0,-1,-1,-1
1470243061698601,1,-9,-2,2,1,2,-2,0
1470243061711648,-3,6,7,-6,1,-1,0,1
1470243061711648,5,5,-8,6,-3,0,-2,-2
1470243061718619,-3,-17,6,6,-3,-3,-2,-4
1470243061718619,-4,10,-5,-2,1,-1,-2,-1
1470243061734634,-3,-4,-2,1,-2,-1,-1,-1
1470243061734634,1,1,1,-2,0,-1,2,0
1470243061736135,-1,0,-7,-7,-1,-2,-1,-5
1470243061736135,-3,-5,8,6,0,-2,0,0
1470243061757171,4,3,-1,1,1,-1,-2,-1
1470243061757171,-9,5,0,3,-1,-4,-2,-4
1470243061758655,-1,-16,-1,-6,0,-1,-2,1
1470243061758655,0,2,-4,-8,-4,-3,0,-1
1470243061771668,0,-8,-6,0,-1,0,0,0
1470243061771668,-1,19,7,1,0,1,-1,1
1470243061778174,5,2,-8,3,-2,0,-1,-1
1470243061778174,-6,-9,10,-3,-2,-2,0,-2
1470243061794687,2,7,-6,-1,0,0,0,-1
1470243061794687,-6,-12,-1,-4,-1,0,-2,-2
1470243061796689,-2,2,-11,-2,-1,0,-1,0
1470243061796689,-1,8,0,-4,-2,-1,-1,-4
1470243061817208,-4,1,-3,1,0,-1,0,-1
1470243061817208,12,-2,9,-2,0,0,0,-1
1470243061818709,-7,4,6,-2,2,-1,2,0
1470243061818709,6,-5,-9,-4,-5,-1,-1,-2
1470243061830720,-15,-1,13,-1,-4,-1,-4,1
1470243061830720,7,-3,-2,3,2,0,0,0
1470243061839728,5,3,-3,-5,-4,-2,0,0
1470243061839728,-2,1,3,6,2,-2,-1,0
1470243061854742,1,-12,5,1,-3,-1,-1,-3
1470243061854742,1,-2,-11,-2,-2,-4,-4,-2
1470243061856242,-2,-6,4,6,1,0,-1,2
1470243061856242,3,2,-23,-11,-2,-1,0,-2
1470243061877263,2,6,1,-3,-2,-2,-1,2
1470243061877263,-3,-8,-7,-9,-3,-1,0,-1
1470243061878763,-1,4,1,6,-1,-2,0,-2
1470243061878763,1,-12,5,-2,-2,-1,-1,-1
1470243061891777,-7,20,0,1,-1,-2,-2,-2
1470243061891777,1,-9,0,-1,-1,0,0,0
1470243061898280,2,1,-13,3,2,-1,0,-2
1470243061898280,-8,3,0,-5,1,0,-1,1
1470243061914797,0,-8,3,-5,-2,-3,-2,-2
1470243061914797,-2,-14,0,-6,-5,-1,0,1
1470243061916296,-1,4,-3,5,1,-1,-2,-1
1470243061916296,5,-3,-7,-3,-1,1,-2,-1
1470243061937321,-1,2,-3,5,0,0,0,0
1470243061937321,-1,3,-3,-13,0,-1,-1,-2
1470243061938817,-1,-3,6,6,-1,1,-1,2
1470243061938817,-9,-1,7,0,-2,-2,-1,-3
1470243061950842,-12,-11,-22,-9,-2,1,-1,-2
1470243061950842,-1,-7,20,4,-1,-2,-1,-1
1470243061959836,5,10,2,2,-1,-2,0,1
1470243061959836,2,6,0,2,0,-1,-2,1
1470243061974876,-1,-13,-4,1,1,-1,0,-3
1470243061974876,0,1,-11,-2,-1,0,-1,-1
1470243061976352,-2,0,0,-6,-2,0,-1,-2
1470243061976352,-2,-1,18,6,-5,-4,-2,-2
1470243061997370,1,-12,-15,-5,2,1,-1,-3
1470243061997370,1,8,7,6,-1,-2,-1,-1
1470243061998870,-4,-2,-3,-10,-3,-1,-1,-2
1470243061998870,-1,-3,-7,-2,-1,-3,-1,-1
1470243062010882,1,-3,9,1,-1,0,-1,2
1470243062010882,0,5,2,-3,0,-1,-2,-2
1470243062019889,-3,-4,-4,-3,-3,-1,0,-1
1470243062019889,-1,1,-1,5,3,0,0,0
1470243062034428,-4,7,-4,-10,-2,-1,-1,-1
1470243062034428,-1,-6,1,3,-1,0,0,-2
1470243062036405,0,-4,-1,0,-2,-1,-2,-3
1470243062036405,2,3,-2,-6,-1,0,-1,1
1470243062057423,-2,-19,0,5,-2,-3,-2,-1
1470243062057423,1,12,-12,-6,-2,0,-1,-1
1470243062058943,-2,-3,4,-1,-1,-2,-1,1
1470243062058943,1,6,-7,-1,0,0,-1,-3
1470243062070954,-3,-20,3,3,0,-1,-1,-1
1470243062070954,6,0,-2,0,2,0,2,-1
1470243062079945,-8,2,-6,-13,-2,-1,-2,-2
1470243062079945,3,-4,13,4,-2,-1,0,1
1470243062094956,0,9,5,9,-2,-1,-1,0
1470243062094956,-8,-13,-43,-18,-3,-1,0,-1
1470243062096461,0,5,16,10,2,-1,0,-3
1470243062096461,-1,-2,-10,-6,-1,-1,-1,0
1470243062116977,8,22,15,-4,-3,-1,-1,-1
1470243062116977,-4,-14,7,6,-1,-2,0,0
1470243062118978,-2,12,-12,-6,-1,-1,-3,-1
1470243062118978,-4,-5,1,0,-3,-1,-3,-2
1470243062130990,7,12,0,2,2,0,2,1
1470243062130990,-4,-2,8,2,-1,1,-2,0
1470243062139997,0,-2,1,-3,-2,-2,-1,-2
1470243062139997,0,-5,2,3,0,-1,-1,-3
1470243062155018,2,4,-10,-3,-2,0,1,0
1470243062155018,-4,4,13,2,1,0,-1,0
1470243062156513,4,-7,14,7,-1,0,-2,0
1470243062156513,0,-2,-17,-4,-1,0,-1,0
1470243062177030,-1,-4,-2,-5,-1,-2,-2,0
1470243062177030,6,5,6,4,-1,-1,-1,0
1470243062179032,-15,-8,-12,-8,1,2,-1,-1
1470243062179032,4,-1,10,-4,-6,-2,-1,-1
1470243062191044,-15,-1,-9,9,0,-2,-1,-4
1470243062191044,1,-3,-5,-9,-1,-1,-3,-2
1470243062200051,7,-5,-14,2,-3,-1,-2,-1
1470243062200051,-13,-2,5,1,1,-2,-1,-2
1470243062215067,2,-10,-10,-3,-2,1,-1,-1
1470243062215067,-1,14,4,2,-2,-2,-1,-1
1470243062216066,1,-15,-12,-1,-2,0,0,0
1470243062216066,0,-1,7,-4,-2,-2,-1,-2
1470243062237084,0,1,0,4,-3,-3,-1,0
1470243062237084,-1,3,-3,-3,2,1,0,-1
1470243062238588,-2,2,11,-2,-3,-2,-1,-1
1470243062238588,-7,-5,-11,1,-1,0,-1,-3
1470243062251097,1,3,0,-1,-3,-2,-2,2
1470243062251097,-3,-2,4,1,-2,-1,-1,-2
1470243062259623,2,2,-6,-4,-1,-4,0,0
1470243062259623,0,-7,-6,2,-2,-1,-1,-1
1470243062274646,4,12,6,4,0,-2,-2,-2
1470243062274646,-6,-4,-5,-8,-2,-1,0,0
1470243062276122,-7,-7,16,4,3,3,-1,-2
1470243062276122,9,1,-28,-11,0,-1,0,2
1470243062297643,-6,-4,1,-1,1,-1,-1,-2
1470243062297643,2,-2,5,10,-2,-4,0,-2
1470243062298640,3,0,-7,-9,-2,-3,-1,0
1470243062298640,-3,-4,13,1,-2,0,1,0
1470243062311223,0,1,14,-2,1,-2,-1,-1
1470243062311223,-2,2,-10,-2,-2,-1,-3,-3
1470243062319659,-2,-2,-2,0,-1,-1,-1,0
1470243062319659,2,18,-3,-1,-1,-1,-2,0
1470243062334172,0,4,1,-6,-1,-1,0,-3
1470243062334172,-1,-10,-2,1,0,-1,-1,-2
1470243062340680,-1,4,12,6,-1,1,0,1
1470243062340680,-1,8,-11,-3,0,1,0,2
1470243062357194,-1,-25,-1,-2,-4,-1,-2,0
1470243062357194,3,2,-8,0,-2,0,0,1
1470243062358695,3,-7,-12,-6,-1,-4,-1,-5
1470243062358695,-3,-2,10,3,0,-2,-2,-1
1470243062370706,1,0,-2,-2,0,1,-1,0
1470243062370706,-3,-6,0,-1,-3,-1,0,-2
1470243062379714,5,-3,-3,2,-1,0,-1,0
1470243062379714,-5,-6,-1,0,0,-3,-3,-3
1470243062394735,-2,-1,-13,-6,-1,0,0,1
1470243062394735,0,-2,-1,1,-3,-1,-1,2
1470243062396229,-2,3,1,2,-2,1,1,-2
1470243062396229,-3,-6,-1,-4,-3,0,-2,-1
1470243062417249,-11,3,1,1,0,-1,-2,-4
1470243062417249,3,3,4,-12,1,1,-1,2
1470243062418748,-6,-1,-3,2,-1,-1,0,-4
1470243062418748,-2,-11,1,-1,-2,-1,0,1
1470243062439781,6,7,1,3,1,-2,0,-2
1470243062439781,-16,0,-2,7,-1,-2,-2,-5
1470243062441268,-1,-5,-1,-10,-4,-3,-1,1
1470243062441268,1,-2,-4,6,0,-2,-1,0
1470243062454813,-3,-2,-3,-15,-2,-1,0,0
1470243062454813,-3,-4,-5,1,-3,-2,-2,-2
1470243062456283,3,9,4,-1,3,1,-2,-1
1470243062456283,-4,1,6,5,-4,-2,-1,-1
1470243062477329,8,-1,-7,2,-1,-3,-2,-2
1470243062477329,-12,4,2,0,1,-1,-1,-2
1470243062478801,-7,-8,-2,-1,-1,-1,-1,0
1470243062478801,3,0,0,-3,-1,0,-2,-2
1470243062499836,-1,0,4,3,0,-1,-1,-2
1470243062499836,2,-7,-5,-7,-2,0,-2,0
1470243062501322,-1,-8,-6,1,-2,0,0,-2
1470243062501322,-6,7,5,-3,-1,-1,0,-2
1470243062514848,1,-6,-6,2,0,-1,-1,-3
1470243062514848,13,12,10,1,-2,-1,1,2
1470243062516336,-11,3,-6,-11,0,-4,0,1
1470243062516336,5,-4,-7,0,0,0,-2,0
1470243062537383,-4,-5,1,8,-3,1,-3,-2
1470243062537383,-4,1,3,-9,-1,-1,-1,-3
1470243062538857,-2,-5,-10,0,-5,-1,-1,-1
1470243062538857,-1,-2,9,-3,-1,-2,0,-3
1470243062559931,-5,-1,1,-2,1,0,-1,-2
1470243062559931,9,9,-4,5,-1,0,-1,2
1470243062561415,2,6,0,3,0,0,-1,0
1470243062561415,-7,-9,0,5,2,-1,0,-5
1470243062573890,5,-7,-15,-18,-5,-3,-2,-1
1470243062573890,-2,-8,12,4,1,0,0,1
1470243062588443,3,-2,5,6,-2,0,0,-3
1470243062588443,-2,0,-3,-1,0,-1,0,0
1470243062597408,-2,5,1,0,0,-2,-2,0
1470243062597408,-3,-4,-9,-3,-2,-3,-3,0
1470243062598911,7,-1,-1,-10,-3,-3,-1,0
1470243062598911,-5,-4,-5,-11,-3,-3,-2,-3
1470243062619929,-6,0,-1,-1,-1,0,-1,-1
1470243062619929,1,-5,-3,2,2,1,0,-1
1470243062621430,0,-2,1,6,2,-1,0,-1
1470243062621430,-4,-1,-14,-3,0,0,-1,-1
1470243062633941,-1,1,13,-3,-1,-4,-2,-2
1470243062633941,0,-6,-8,-2,0,-1,-1,0
1470243062640948,-2,4,1,-3,-1,-2,-4,-3
1470243062640948,3,1,-5,-1,-1,0,0,1
1470243062657462,-2,-2,0,-7,-2,0,0,-1
1470243062657462,-2,1,-2,0,-3,0,-1,-1
1470243062658964,-2,-8,1,-1,-1,-2,-1,0
1470243062658964,-5,10,4,4,0,-2,0,0
1470243062679983,1,-1,-8,5,1,0,-1,0
1470243062679983,3,-6,1,-10,-2,-2,0,-1
1470243062681495,-14,4,-8,2,-1,0,-2,-4
1470243062681495,3,-11,0,-6,-1,0,-1,0
1470243062694512,-3,1,1,4,-3,-2,1,0
1470243062694512,-1,-2,10,-9,-3,-2,0,-2
1470243062701001,1,1,10,17,0,-2,-1,-1
1470243062701001,-1,-7,-9,0,1,-2,-2,0
1470243062717515,-1,6,3,0,-1,-1,-1,0
1470243062717515,-4,-1,-9,-1,1,1,-3,-2
1470243062719018,-1,0,-7,-9,-3,-2,-2,-4
1470243062719018,7,1,7,-1,-2,0,0,2
1470243062739550,-1,13,-3,2,0,-1,1,-2
1470243062739550,-2,-13,-2,-2,1,-3,-1,-1
1470243062741538,0,7,3,-4,-2,-1,-4,1
1470243062741538,-3,5,-3,2,1,0,0,-3
1470243062754085,0,4,5,-6,-1,-2,0,-2
1470243062754085,-3,-3,1,11,0,-1,1,-3
1470243062761059,-1,-6,-23,-8,2,1,-2,1
1470243062761059,0,-1,5,-4,-3,-3,-1,0
1470243062777082,-1,6,-12,1,-1,0,-3,2
1470243062777082,-2,3,6,-3,-2,-1,-2,-3
1470243062783577,11,-4,-1,-4,0,-1,1,-3
1470243062783577,-6,0,-8,-2,-2,-1,-1,-2
1470243062799592,-1,-12,13,-2,0,-1,-2,-1
1470243062799592,-1,2,-3,2,-3,0,-2,1
1470243062801110,1,-3,-7,5,1,-1,-1,1
1470243062801110,7,11,0,3,-3,-2,-2,1
1470243062814103,0,-11,-11,-15,-1,-1,0,-1
1470243062814103,-2,3,0,2,-2,-1,0,-1
1470243062821110,-5,-3,9,3,-3,-3,-1,-5
1470243062821110,-3,-4,-2,1,0,-1,0,-1
1470243062837625,-5,-4,3,4,0,-1,-1,-2
1470243062837625,10,16,5,5,-1,-2,-1,-1
1470243062838625,-19,-2,-6,-10,-1,-1,3,-2
1470243062838625,3,-7,-5,2,-1,-4,-1,-2
1470243062859670,3,1,0,8,0,1,-1,0
1470243062859670,-2,-11,-5,-2,-1,0,1,-1
1470243062861164,3,8,9,-7,-3,-1,-1,2
1470243062861164,-6,-11,7,6,0,0,-3,-3
1470243062874171,3,-1,-5,-4,-2,0,-3,-1
1470243062874171,-5,-3,-6,8,0,0,-1,-3
1470243062881164,3,5,-9,-12,-3,2,-1,1
1470243062881164,3,2,8,-2,-2,-2,1,1
1470243062897678,-1,-7,-16,-3,0,-1,-2,-1
1470243062897678,-4,-4,-7,-3,0,-1,-3,-3
1470243062899181,2,-2,4,0,-1,-1,-2,-1
1470243062899181,1,-2,0,-1,1,-1,-2,0
1470243062919699,-3,-3,8,10,0,-1,1,-1
1470243062919699,-5,-3,-7,-4,-3,-2,-1,-1
1470243062921199,4,5,7,0,-2,-1,-1,1
1470243062921199,-3,-3,0,-3,-4,-1,-3,-3
1470243062933233,-4,-5,-7,-1,-3,-2,-1,0
1470243062933233,-1,-2,-1,-3,1,-1,-2,0
1470243062942218,2,-2,1,2,0,-2,-2,-1
1470243062942218,0,6,-4,-4,-2,0,-1,1
1470243062957258,-2,4,5,-4,0,-2,-1,-1
1470243062957258,-1,-15,-1,-4,-3,-2,-2,-2
1470243062958732,-3,11,-4,0,-1,-2,-2,0
1470243062958732,1,-5,-3,-1,-1,0,0,-2
1470243062979752,-3,-2,5,3,-3,-2,0,-1
1470243062979752,-1,4,-1,-5,-3,-3,-3,0
1470243062981253,-2,-11,2,3,2,-2,0,-2
1470243062981253,-5,-9,-21,-10,-3,-1,-2,-1
1470243062993784,0,-1,-8,-4,-1,-1,1,-1
1470243062993784,3,-5,2,1,1,-1,0,1
1470243063002272,-3,-6,3,6,-1,1,-3,-1
1470243063002272,0,4,-1,-7,-2,-2,-1,1
1470243063017300,-1,-6,-6,-4,-1,1,-1,0
1470243063017300,-2,1,4,-4,-2,-1,1,1
1470243063018803,-3,-3,0,4,0,1,0,-2
1470243063018803,-1,0,7,5,0,0,1,-1
1470243063039805,-3,2,-4,-4,-1,1,0,-1
1470243063039805,-1,2,-1,2,0,-1,-1,-1
1470243063041307,-4,-3,0,-2,-1,-2,0,0
1470243063041307,7,4,2,1,-2,-2,-1,-2
1470243063053334,-5,-12,-2,-5,-1,0,-1,-2
1470243063053334,3,2,-10,-5,-3,-2,-2,-2
1470243063069833,0,4,5,-2,-3,-1,0,-2
1470243063069833,-9,0,13,5,-2,-1,-1,-4
1470243063077338,2,-1,-10,0,1,-1,1,2
1470243063077338,0,-5,-1,-1,0,-2,-1,0
1470243063078842,-2,-14,-12,-8,0,0,-1,-2
1470243063078842,-2,1,1,-5,-2,-2,-2,-1
1470243063099899,0,-1,4,5,0,-1,-2,-1
1470243063099899,-5,7,4,-3,-1,0,1,0
1470243063101361,2,-6,-3,-9,-2,-2,-2,0
1470243063101361,0,5,-1,0,-2,-2,0,0
1470243063113872,-2,-20,1,2,0,0,-2,0
1470243063113872,9,1,-5,-2,-2,-1,-3,-2
1470243063122380,-11,-4,9,9,-1,0,0,0
1470243063122380,4,-3,-4,-5,-4,-2,-1,0
1470243063137392,-4,9,1,-6,-2,-1,0,0
1470243063137392,-4,-10,-12,-9,-3,-2,-1,-3
1470243063138894,0,-5,2,0,-1,0,-2,0
1470243063138894,2,4,1,0,3,-1,-1,-1
1470243063159914,-4,-1,13,4,-3,-2,-2,-2
1470243063159914,-2,1,2,-1,-2,0,0,-2
1470243063161414,-3,2,-6,-5,-4,1,0,0
1470243063161414,-4,-10,-4,5,2,-2,0,-1
1470243063173426,4,7,2,-2,1,-1,-2,-1
1470243063173426,-5,-5,6,-1,-1,-2,0,0
1470243063182434,2,-2,-9,-2,0,0,-1,0
1470243063182434,1,-1,2,2,-1,1,-1,-2
1470243063197446,-3,-1,-4,-3,-3,-3,-1,-3
1470243063197446,0,2,-1,2,0,1,0,1
1470243063198949,8,3,2,5,1,-1,-1,0
1470243063198949,-23,-4,-6,-3,0,-1,-2,-4
1470243063219480,4,6,-2,-2,-1,-1,0,-4
1470243063219480,0,-1,6,3,2,-2,1,-2
1470243063226025,3,6,-6,-6,1,1,-1,0
1470243063226025,3,0,7,-3,0,0,-1,1
1470243063233509,0,5,-9,-1,-1,-2,-1,0
1470243063233509,5,5,6,-1,-1,0,-1,0
1470243063242487,-18,-1,-5,1,0,-1,0,-1
1470243063242487,10,6,0,0,-3,0,-2,-2
1470243063257000,-6,-8,-9,3,-2,-2,-1,-2
1470243063257000,4,4,4,2,1,-1,0,3
1470243063259002,5,3,-6,-3,-2,-1,-1,-2
1470243063259002,-6,-15,-4,-2,0,-1,-3,-2
1470243063280021,1,-5,-3,0,-1,1,-1,-1
1470243063280021,-8,6,-6,-3,-2,1,-4,-3
1470243063281522,-2,-6,-2,-2,-4,-3,-1,0
1470243063281522,8,12,3,2,-1,-1,0,1
1470243063293534,-9,-10,-4,-3,-1,0,0,-4
1470243063293534,-4,-1,2,-1,1,2,0,-2
1470243063302561,4,-2,-4,1,-2,-2,-2,-1
1470243063302561,2,-2,-16,-4,-1,0,-4,-2
1470243063317054,0,3,18,0,-1,0,-1,3
1470243063317054,-6,-3,2,0,-2,-2,0,-3
1470243063319057,2,-5,7,3,1,0,-1,-4
1470243063319057,1,-1,-6,-1,-1,-2,0,0
1470243063339576,-4,2,-1,-4,0,-2,0,-1
1470243063339576,0,-2,-8,2,0,-1,0,0
1470243063341576,-2,-6,-1,-2,-2,0,-1,-1
1470243063341576,-2,0,-3,-5,-2,-2,0,-1
1470243063362108,3,6,7,4,0,2,1,1
1470243063362108,0,1,0,4,-2,-2,-2,-1
1470243063363597,-19,-5,-2,-7,-3,-3,-1,-7
1470243063363597,-5,-16,-9,2,0,-4,0,1
1470243063377121,3,5,-4,-10,0,-1,-2,-1
1470243063377121,0,-6,9,3,-1,-1,-1,0
1470243063378609,3,4,-6,2,-1,0,0,-1
1470243063378609,-3,4,-5,2,2,0,0,0
1470243063399628,-3,-14,0,-1,-2,-3,-1,-1
1470243063399628,0,-1,-8,1,0,-2,-1,-2
1470243063401130,3,-2,-2,1,0,0,-2,-2
1470243063401130,-1,9,9,-5,-1,1,0,-2
1470243063422151,-1,3,-9,-4,0,0,-1,-2
1470243063422151,-1,-13,-5,-8,-3,-1,-2,-1
1470243063423650,3,13,9,2,1,-2,0,2
1470243063423650,7,-6,-4,6,-1,-1,-2,-1
1470243063437169,-15,0,1,-3,-3,-2,-2,-1
1470243063437169,0,1,-1,-2,-1,-1,-1,-1
1470243063438671,4,-4,-8,-2,-1,-2,1,3
1470243063438671,1,0,5,-3,0,-2,-1,-3
1470243063459701,4,4,-4,1,-1,-2,0,-2
1470243063459701,4,-1,4,-1,-1,0,-1,0
1470243063461184,-17,2,-4,1,-3,-2,-1,-3
1470243063461184,-2,-5,4,-3,-2,-1,-1,-2
1470243063482202,1,-10,-7,-1,0,-1,0,-1
1470243063482202,-3,0,-1,2,-1,-1,-1,-1
1470243063483706,3,1,6,-4,-1,0,-1,0
1470243063483706,-8,-8,-3,-2,-4,-2,-3,-4
1470243063496715,1,0,-1,-2,-2,-1,-3,-1
1470243063496715,-3,-7,-1,4,-3,1,-1,-2
1470243063503223,2,18,1,-2,1,-1,-1,-2
1470243063503223,-6,-12,-2,2,-1,0,-1,0
1470243063519737,5,-6,-9,18,-4,0,0,-1
1470243063519737,-2,9,-2,-24,-1,-3,-2,-1
1470243063521237,-1,-17,3,-1,-2,0,0,0
1470243063521237,-1,6,0,1,1,2,0,0
1470243063542257,0,-2,7,6,1,-3,-1,1
1470243063542257,2,2,-2,9,-1,-4,-2,-2
1470243063543758,-5,-10,-8,-11,-3,-1,-3,-3
1470243063543758,6,2,-2,-4,-2,-2,0,3
1470243063556269,0,-1,-6,1,2,0,-1,0
1470243063556269,-9,0,12,-2,2,-1,-2,0
1470243063563777,8,-2,1,7,1,1,0,-3
1470243063563777,-6,-6,-18,-3,-4,-2,0,-1
1470243063580291,0,5,9,-23,-3,-1,0,-1
1470243063580291,-2,-2,-8,-1,-3,-1,0,-1
1470243063581295,7,5,-7,7,0,-2,-1,2
1470243063581295,-5,-5,1,2,2,-1,-1,-1
1470243063602310,0,-3,-2,0,-1,1,-2,-4
1470243063602310,-14,4,-3,6,0,-2,0,-3
1470243063603812,3,-6,-1,-8,-4,-2,-1,1
1470243063603812,0,6,2,-7,-1,2,0,-3
1470243063624862,-6,-5,-7,-5,-1,-3,-2,-2
1470243063624862,3,2,8,2,-1,-1,0,0
1470243063626332,-1,-11,-8,4,2,0,0,-1
1470243063626332,-3,2,4,3,1,0,-1,-1
1470243063639844,7,2,9,-5,-4,-3,-1,2
1470243063639844,-7,6,-10,4,0,1,-2,-1
1470243063641347,-1,-3,-1,-12,0,-1,-1,-1
1470243063641347,0,5,-4,-4,1,-1,-2,-1
1470243063662366,4,1,2,3,0,0,-1,-1
1470243063662366,1,-7,-4,2,-1,-1,0,1
1470243063663866,-3,8,-6,6,-2,-4,-1,0
1470243063663866,0,-9,4,-7,-1,-2,-1,-2
1470243063676404,-7,-4,-6,7,-2,-1,-1,-4
1470243063676404,4,4,-4,-15,-2,0,-1,0
1470243063683403,-3,3,5,-1,-2,2,-2,-3
1470243063683403,-2,-5,-2,4,-1,-2,-1,-2
1470243063699898,-2,-4,-1,7,2,2,-2,0
1470243063699898,2,-3,0,-5,-2,-2,1,0
1470243063701399,1,0,-1,-5,0,-1,-3,0
1470243063701399,-4,4,1,1,-1,-2,0,-1
1470243063722422,-4,0,-5,-8,0,-3,1,0
1470243063722422,0,-8,1,-1,-2,-2,-3,-1
1470243063723919,6,12,2,5,-2,-1,0,-1
1470243063723919,-5,-11,12,-1,3,0,0,2
1470243063736933,-3,9,-9,-2,-2,-1,0,-4
1470243063736933,12,22,-6,3,1,-2,-2,-2
1470243063743437,-9,-9,1,-15,-2,-2,1,-2
1470243063743437,2,-6,5,3,-3,-1,-3,-1
1470243063759954,0,-1,4,1,-1,-1,0,0
1470243063759954,-7,-11,-19,-1,-3,0,0,-2
1470243063761453,-4,-9,3,-5,0,-1,0,-1
1470243063761453,3,11,-7,0,-1,-3,-1,-1
1470243063782475,1,-15,1,-6,-3,-1,-1,2
1470243063782475,5,2,8,2,-1,-3,-1,-1
1470243063783975,-10,-22,-5,7,2,1,1,-3
1470243063783975,-8,1,-2,-5,-4,-1,-2,-1
1470243063796485,3,10,-7,0,-2,-1,-2,-1
1470243063796485,4,-14,-7,-9,-1,0,0,-1
1470243063803491,2,8,2,0,-1,-1,-3,1
1470243063803491,-2,2,1,0,0,-1,0,-2
1470243063819506,-3,-3,-3,-4,0,-1,-2,-1
1470243063819506,-1,3,4,-2,0,0,0,-2
1470243063821507,0,11,-2,1,-1,-1,-1,-1
1470243063821507,0,-2,-6,1,0,-2,0,1
1470243063842025,2,11,6,-2,-1,-1,1,1
1470243063842025,-7,-9,8,1,1,0,0,-2
1470243063844028,-3,-2,-9,3,-2,-2,-2,-1
1470243063844028,1,-11,-1,-1,-3,0,-1,-2
1470243063865046,2,2,2,4,-1,-2,-1,-2
1470243063865046,-7,-5,3,-5,-3,-1,-2,-1
1470243063866048,2,-2,-12,2,2,0,-2,-1
1470243063866048,3,6,-7,-7,-3,-3,0,-2
1470243063879574,-11,-7,3,3,5,-1,-1,-1
1470243063879574,-1,-7,1,0,0,-1,-1,-4
1470243063881561,1,23,8,3,-4,-2,-1,0
1470243063881561,7,-31,-16,-2,-1,-1,-1,2
1470243063902080,-5,11,3,-5,-1,0,0,-2
1470243063902080,-17,-10,-7,0,2,1,0,-2
1470243063903580,2,-4,6,0,-1,-2,-2,-1
1470243063903580,2,5,2,2,-1,-1,-2,-3
1470243063916093,4,-2,9,-3,-4,-2,-2,-1
1470243063916093,-2,-5,-10,-7,-1,-2,-1,-4
1470243063924600,2,-1,-12,-11,-1,-1,0,-1
1470243063924600,1,0,15,14,-2,-1,-2,0
1470243063939614,-3,-6,-7,-6,1,-2,-1,-1
1470243063939614,3,11,-4,-1,-6,-2,-1,-1
1470243063941116,-3,-7,4,-3,0,1,0,-2
1470243063941116,0,6,0,1,-2,-1,0,0
1470243063962133,0,2,-1,-4,0,1,1,0
1470243063962133,-3,0,0,4,-3,-2,-1,2
1470243063964135,6,3,5,0,-1,1,0,-1
1470243063964135,-2,2,-11,-2,-1,1,-1,-2
1470243063976146,-6,-4,-1,1,-3,0,-1,1
1470243063976146,1,-2,-2,-2,-1,0,-1,0
1470243063984654,-6,0,7,4,-1,-2,0,0
1470243063984654,0,5,1,-10,0,0,0,-1
1470243063998666,12,-2,3,9,-4,-3,-2,-2
1470243063998666,-15,-13,-10,-13,0,0,-2,-2
1470243064007174,-3,-3,3,4,0,-1,-1,1
1470243064007174,1,9,5,-5,-3,-2,1,0
1470243064022188,-5,-16,-9,-5,-4,0,-2,1
1470243064022188,9,18,0,10,-2,0,0,-2
1470243064023689,-4,-14,6,-6,0,0,-2,-1
1470243064023689,-7,20,-8,-4,-1,-2,-1,-2
1470243064035701,-4,-2,1,1,0,1,2,-1
1470243064035701,6,-4,14,5,0,-3,-1,2
1470243064044708,2,3,-24,-12,-3,-2,0,0
1470243064044708,-3,-4,14,2,1,0,-2,-1
1470243064059721,1,2,-7,1,1,-2,-2,-1
1470243064059721,-4,2,-6,-4,0,0,0,-1
1470243064061222,-1,-3,12,9,0,-2,-1,-1
1470243064061222,0,-7,-3,-15,-4,-2,-1,1
1470243064089777,-2,1,-3,1,1,0,-1,-1
1470243064089777,-7,-9,-3,0,-3,-1,-1,0
1470243064091251,-4,-2,-5,-2,-2,0,-2,-6
1470243064091251,10,4,-8,-1,1,-1,-2,0
1470243064095755,-17,-11,6,-2,-2,-3,-2,-3
1470243064095755,9,1,-10,-2,-1,-2,-1,0
1470243064104761,1,9,0,-1,-2,-1,-3,0
1470243064104761,-4,2,-17,1,-3,0,0,-1
1470243064119776,1,-5,-9,-7,-3,-2,-1,0
1470243064119776,2,3,18,3,1,-1,-4,0
1470243064121310,-2,-13,3,13,-3,-3,-1,-1
1470243064121310,-6,-1,0,-5,-1,-1,-2,-1
1470243064142295,-3,13,-5,-15,-3,-2,0,-1
1470243064142295,-3,-3,-7,-1,-1,0,0,0
1470243064143797,4,-10,1,5,-1,1,0,-1
1470243064143797,-3,18,6,0,3,-1,-1,-2
1470243064155842,4,0,1,5,1,-1,0,-2
1470243064155842,-1,-5,10,6,-2,-2,-3,-3
1470243064181832,-3,-7,-12,-13,-3,-1,-1,0
1470243064181832,-1,-10,4,3,1,0,0,1
1470243064182831,0,4,-10,-13,-3,-1,-1,0
1470243064182831,3,0,12,5,1,1,0,-2
1470243064185834,0,7,1,8,0,1,0,0
1470243064185834,-5,-3,7,-5,-4,0,0,-3
1470243064202349,2,2,-14,-3,1,1,-2,0
1470243064202349,-3,-13,-6,-4,-4,-2,-1,-2
1470243064203851,-5,-5,-1,-1,-2,-1,-2,-2
1470243064203851,2,-3,0,-5,-1,-2,1,0
1470243064215862,5,-1,14,14,3,1,-2,-2
1470243064215862,-4,-4,-15,-7,-1,-2,-2,-2
1470243064224869,4,-2,13,1,-1,0,-1,-1
1470243064224869,-2,-4,-8,3,-1,1,-3,-1
1470243064239981,-6,-7,25,4,0,-2,-1,0
1470243064239981,1,22,-22,-4,0,-1,-1,-2
1470243064241384,-1,-1,3,-6,1,0,-1,1
1470243064241384,1,-5,-3,-5,-1,1,-1,-1
1470243064262426,3,5,14,14,0,-2,-2,-2
1470243064262426,-5,1,-4,-16,-3,0,1,0
1470243064263904,2,-3,-1,5,-2,-1,0,0
1470243064263904,-2,3,-3,4,-1,0,-2,-2
1470243064284923,0,-7,-5,-2,-3,-2,-1,0
1470243064284923,0,-13,5,3,-3,-1,-2,-1
1470243064286424,-3,10,2,-7,-1,-2,0,-3
1470243064286424,-3,-14,2,5,-1,-2,-2,0
1470243064299936,4,6,-8,-6,-1,-1,-2,-1
1470243064299936,-5,3,3,6,-1,0,0,0
1470243064301450,-8,-6,-8,-13,-4,-1,-1,-2
1470243064301450,-1,1,5,15,1,-2,-2,-2
1470243064322456,-3,-6,-13,-16,-1,-1,0,-3
1470243064322456,4,1,-2,1,1,-1,-2,1
1470243064323974,0,-4,0,-1,-1,0,0,1
1470243064323974,-3,-1,6,5,-1,0,1,-2
1470243064344977,3,2,0,3,-3,1,-2,1
1470243064344977,0,-13,-2,-3,1,1,0,0
1470243064346479,0,-4,2,2,1,-1,0,-1
1470243064346479,-9,-3,-5,-7,-3,-3,-2,-5
1470243064359994,2,5,-6,-2,-1,0,-2,0
1470243064359994,-2,-2,-6,-4,-3,-2,0,0
1470243064361491,5,4,-1,1,0,0,-2,-1
1470243064361491,-7,-8,-6,5,1,-2,1,-3
1470243064382512,-9,-5,-16,-15,1,-1,-1,-1
1470243064382512,2,11,11,5,0,-1,-2,-1
1470243064384012,-5,-2,-11,-2,-2,-4,-1,-4
1470243064384012,9,3,5,-5,-4,0,-1,3
1470243064405031,-1,0,11,8,-2,-3,-3,0
1470243064405031,-2,-2,-12,0,-1,-2,-1,-1
1470243064406532,6,-4,-4,-3,-1,-1,-1,1
1470243064406532,-3,5,-8,-6,-4,0,-1,-1
1470243064419544,-3,-6,1,0,-1,1,1,-1
1470243064419544,-3,-4,16,4,0,-1,0,0
1470243064421546,-2,3,-5,-1,-1,0,-1,-2
1470243064421546,-1,-1,-9,-7,0,-3,-2,-1
1470243064442066,3,-4,-9,-4,-2,-1,0,1
1470243064442066,-4,-2,14,7,0,-1,0,-2
1470243064443583,0,1,6,-1,-1,-1,-1,-2
1470243064443583,-2,-16,-9,-14,0,0,-1,1
1470243064465134,2,10,2,3,-4,-2,-2,-1
1470243064465134,0,-3,1,3,0,-1,-2,0
1470243064466088,-3,-1,-14,-3,-4,0,-1,-2
1470243064466088,-2,-5,4,3,-2,-2,-2,-1
1470243064479119,6,6,-7,0,0,-1,0,-1
1470243064479119,-1,-20,-3,-7,-1,-1,-1,-1
1470243064486104,-10,-18,-10,0,-4,-4,-4,-2
1470243064486104,6,25,3,0,1,0,0,0
1470243064502162,-8,-8,-3,0,1,0,1,-3
1470243064502162,-1,1,1,-4,-1,1,0,-2
1470243064503620,0,-4,7,7,0,-2,-1,-2
1470243064503620,0,-8,-5,-5,-2,-2,-2,-2
1470243064524645,-4,8,-4,6,-4,-2,-1,-1
1470243064524645,1,1,-5,-10,0,-1,0,-2
1470243064526640,-3,-1,-22,-14,-3,1,-2,1
1470243064526640,1,-3,14,6,-1,-1,-1,0
1470243064539167,-2,-1,2,2,-1,-2,-4,-2
1470243064539167,2,3,-8,0,-1,-1,-1,-1
1470243064545658,-3,-2,6,2,0,-3,0,1
1470243064545658,0,0,0,-8,-4,0,2,-1
1470243064562173,-5,-21,-7,-7,0,-1,-2,-3
1470243064562173,0,11,-7,-3,-1,0,-2,-2
1470243064563674,2,19,23,7,-1,-2,0,-2
1470243064563674,4,3,-6,-3,-1,0,0,-1
1470243064584694,-6,-10,2,1,1,2,1,1
1470243064584694,1,2,-4,6,-1,-2,-2,-1
1470243064586194,5,-4,3,0,0,2,-2,-2
1470243064586194,-1,0,-1,-6,-2,-3,-1,1
1470243064599207,5,10,4,-4,-2,-2,0,-1
1470243064599207,-16,-10,-4,-3,-1,-1,-3,-1
1470243064606243,-1,5,-1,5,0,-1,-1,-1
1470243064606243,0,1,-1,5,-1,-2,-3,-1
1470243064622269,-4,-3,-7,-8,-2,-2,-1,-3
1470243064622269,2,1,0,1,-2,0,1,-3
1470243064623727,-8,-12,2,-4,-2,-2,-1,0
1470243064623727,7,2,-6,7,2,-1,-3,-3
1470243064644763,-3,2,30,1,-3,-1,-2,-1
1470243064644763,0,-2,-35,-9,-2,-3,0,2
1470243064646248,-4,8,14,-3,-2,-2,-1,-3
1470243064646248,-6,-15,-3,6,0,0,-1,-1
1470243064659312,-2,4,-2,-3,0,-2,-4,-3
1470243064659312,-4,1,18,6,-1,-2,0,0
1470243064665768,0,0,-8,-1,-1,0,1,-3
1470243064665768,-3,-8,-9,-10,-1,-1,-1,-4
1470243064682333,5,0,-7,5,0,-1,0,1
1470243064682333,1,-4,4,-3,0,0,-1,-2
1470243064683781,0,1,-10,-6,-3,-2,-1,-2
1470243064683781,-6,-3,-5,2,-1,-1,-2,-1
1470243064704800,-3,-14,5,3,0,-2,0,1
1470243064704800,-1,-2,-16,-9,-1,0,-1,-1
1470243064706301,6,1,9,-2,0,-2,-3,1
1470243064706301,-2,-1,0,-1,-3,0,-2,-2
1470243064727362,-4,-1,-15,3,-4,-1,-1,-1
1470243064727362,-2,-4,7,-4,-2,0,-1,-1
1470243064728824,1,16,-11,-2,-1,1,0,-2
1470243064728824,-3,0,6,1,-1,1,1,-2
1470243064742392,-4,-2,0,-2,0,-1,0,-1
1470243064742392,5,1,5,2,-1,0,-1,-1
1470243064743844,4,-6,-10,-4,0,-3,-1,0
1470243064743844,-13,-7,0,0,0,-1,-1,0
1470243064764854,-2,4,1,-2,-2,-1,0,-3
1470243064764854,-2,1,1,13,0,0,-2,-1
1470243064766358,-3,-6,7,-13,-3,0,-1,-1
1470243064766358,2,8,-26,1,-1,-1,0,0
1470243064778868,-1,-11,2,-1,-1,0,-1,1
1470243064778868,1,0,6,0,0,-1,-1,-1
1470243064785875,-1,2,1,1,-1,-1,-1,-2
1470243064785875,2,4,3,1,0,-1,-1,-4
1470243064802388,-1,-3,1,-12,-2,-2,-2,1
1470243064802388,-3,3,3,6,-1,-2,0,-2
1470243064803890,-4,-13,-2,2,0,-1,0,1
1470243064803890,3,-2,9,-2,-2,-1,1,-1
1470243064824910,2,-3,-5,-6,-4,-1,0,1
1470243064824910,13,16,0,-3,-2,-3,-2,1
1470243064826434,-16,-3,0,11,1,0,0,0
1470243064826434,-2,-8,8,-11,-3,-3,-4,-2
1470243064838420,2,13,-19,-8,-2,1,0,0
1470243064838420,-7,-8,2,3,2,0,0,-3
1470243064847429,4,0,-7,-1,-2,-1,0,0
1470243064847429,-5,-1,7,12,3,-2,0,-3
1470243064862442,0,7,2,-6,-3,-1,-1,-1
1470243064862442,0,5,-6,-8,0,-3,-2,-1
1470243064863943,-2,-13,3,8,-1,-1,0,-3
1470243064863943,-2,2,1,-11,-3,-1,-1,1
1470243064884966,0,-6,3,5,3,0,-2,-3
1470243064884966,1,2,-8,-5,-3,-1,-1,0
1470243064886463,-1,2,-2,9,-3,-1,-4,-3
1470243064886463,1,-9,1,-11,-1,-1,-1,-1
1470243064898536,-4,10,-3,3,0,-1,-2,-3
1470243064898536,-5,2,-20,4,-3,-1,-2,-4
1470243064907483,1,3,-9,-11,-1,-2,-2,-1
1470243064907483,3,-1,4,4,0,1,-2,-1
1470243064922615,-4,0,-5,1,0,0,0,0
1470243064922615,6,-5,6,-4,-2,1,0,0
1470243064923997,-13,-4,4,0,-1,-2,-1,-2
1470243064923997,2,3,-2,2,-2,-3,-1,0
1470243064945021,4,-5,0,-2,0,-1,-2,-1
1470243064945021,-6,-9,8,2,-4,0,-1,-3
1470243064946518,2,-14,-10,-12,-3,-2,0,-1
1470243064946518,2,7,7,5,0,1,-1,1
1470243064958530,-9,2,-8,2,-3,-1,-3,0
1470243064958530,-6,-10,5,2,1,-2,-2,-3
1470243064967036,4,9,0,-1,-3,1,-1,1
1470243064967036,1,-5,-6,-2,-2,-3,-2,-2
1470243064982061,0,7,6,-1,-1,0,1,0
1470243064982061,-8,2,-5,-3,-2,-2,-1,-2
1470243064983550,6,8,3,-5,2,-3,0,-1
1470243064983550,-10,-16,-11,1,-1,0,-1,-1
1470243065012649,-3,-10,0,-2,-2,0,-3,-3
1470243065012649,0,-12,-2,-5,-3,-1,0,-1
1470243065013579,6,36,10,6,-2,0,0,1
1470243065013579,5,-15,-10,-3,-1,-3,-3,-2
1470243065018587,-5,-5,-3,-8,0,-2,0,-1
1470243065018587,0,-6,9,1,-2,-1,0,-1
1470243065027090,4,8,4,5,2,0,0,-1
1470243065027090,-6,3,18,0,-2,0,0,0
1470243065042612,6,-5,-3,4,-1,-3,0,0
1470243065042612,-4,-2,-2,-9,0,0,-1,-1
1470243065044105,1,-20,-3,-2,2,1,-1,0
1470243065044105,-6,13,-8,5,-3,-2,-2,-1
1470243065064671,-2,-6,3,-1,1,-1,0,1
1470243065064671,1,9,0,-4,-2,-2,-3,1
1470243065066126,-3,2,0,1,0,-2,-3,-1
1470243065066126,7,-3,0,5,0,0,-1,-2
1470243065078747,-11,4,-5,-10,0,-1,-1,-2
1470243065078747,7,-4,3,6,0,-2,-1,0
1470243065087643,-20,3,3,-10,-3,-2,-1,-6
1470243065087643,5,-1,1,2,-2,-2,1,1
1470243065102213,5,-4,7,6,-1,0,1,0
1470243065102213,-7,24,0,0,4,0,0,-2
1470243065103658,4,-6,-8,-10,-1,0,-1,1
1470243065103658,-11,-12,-4,5,1,-2,-2,-2
1470243065124679,8,-4,3,0,-4,-1,-2,0
1470243065124679,-16,-7,11,-1,-2,0,-2,-2
1470243065126181,4,14,4,10,0,0,0,2
1470243065126181,-2,-6,-15,-20,-5,-3,-2,-1
1470243065138245,2,-7,-1,-3,0,-1,0,-1
1470243065138245,5,5,3,3,1,-3,-3,-1
1470243065147198,-11,-21,-18,1,-2,-2,-2,-2
1470243065147198,-2,0,0,-7,-1,0,-1,-1
1470243065162217,4,-5,3,3,-1,0,-1,-2
1470243065162217,-6,-3,-3,-11,-4,0,0,0
1470243065163714,5,-8,-17,0,-1,-1,-1,-1
1470243065163714,-1,3,5,2,1,-1,-1,-2
1470243065184779,-6,-4,2,0,-1,0,-1,-2
1470243065184779,-1,2,7,3,-2,-2,-1,0
1470243065186232,3,-7,2,4,-3,-1,-2,1
1470243065186232,-2,5,-6,-9,0,-1,1,0
1470243065198288,-5,12,-1,-2,1,-2,-1,-2
1470243065198288,1,-13,-1,1,-1,-1,-1,-2
1470243065207251,-1,0,1,-2,0,0,-1,-1
1470243065207251,2,-2,4,-2,-2,-1,0,0
1470243065222265,-3,15,-2,2,0,-1,-1,-4
1470243065222265,4,-3,-5,-6,-1,-1,-1,-2
1470243065223767,-17,-23,-3,-3,-1,-2,0,-5
1470243065223767,1,9,-1,6,2,-2,-2,0
1470243065244788,-4,-21,6,-8,-2,-2,-1,-1
1470243065244788,3,-2,-24,-1,-2,0,-1,-3
1470243065246286,2,3,14,-6,-1,-2,-2,-1
1470243065246286,-4,-7,-7,2,-1,-3,-3,-2
1470243065267327,1,-3,10,1,0,-2,-3,1
1470243065267327,-5,5,-23,-6,-4,-1,0,-1
1470243065268807,-4,-33,11,-2,-3,-1,0,-1
1470243065268807,1,8,-6,2,-1,1,-2,-3
1470243065282337,3,5,-12,3,-1,0,-2,1
1470243065282337,3,-5,12,-4,0,0,-1,-1
1470243065283820,3,16,-4,0,0,-1,-1,2
1470243065283820,-11,0,0,6,0,0,0,-3
1470243065304899,2,-7,-5,-1,-2,-2,-1,-3
1470243065304899,-2,-1,4,-2,2,-2,-1,3
1470243065306342,3,5,-1,6,0,-2,-2,0
1470243065306342,6,-12,4,-15,-1,-2,0,-1
1470243065327360,-19,8,-3,6,1,1,-1,-3
1470243065327360,1,-11,-14,-5,-3,-3,-2,-2
1470243065328863,2,3,-2,0,0,1,-1,2
1470243065328863,-7,2,4,3,-1,0,0,-1
1470243065342422,13,-8,-1,-2,-1,-1,-1,-1
1470243065342422,-9,18,-7,2,0,-2,-1,-2
1470243065343874,3,-13,-14,-11,-2,-2,-1,-2
1470243065343874,-4,2,4,-1,-3,-2,-1,-3
1470243065364907,1,14,-2,6,1,1,1,0
1470243065364907,6,-10,12,-12,2,1,-3,0
1470243065366424,0,7,-14,0,0,1,2,0
1470243065366424,1,0,-3,1,-3,-2,-1,-1
1470243065387436,-3,1,1,0,0,-2,-2,-2
1470243065387436,-1,-16,0,0,-4,-1,0,-1
1470243065388914,-3,5,21,-2,-2,-2,-2,-3
1470243065388914,0,0,-9,-2,0,0,0,4
1470243065401982,5,-5,1,-3,-3,-2,-1,0
1470243065401982,-3,8,6,9,-1,-2,-1,1
1470243065408464,0,4,-2,-8,0,-1,1,-3
1470243065408464,1,3,-3,11,0,0,-1,-1
1470243065424947,0,0,16,-10,-2,-3,-2,-2
1470243065424947,2,-4,-2,6,2,-1,0,1
1470243065426488,-7,-16,0,-6,-3,-1,-3,0
1470243065426488,6,24,-8,-7,-1,-3,0,1
1470243065447468,-3,-7,1,6,0,2,0,0
1470243065447468,-3,1,1,0,-3,0,-2,-3
1470243065448969,1,3,-1,2,1,1,0,-1
1470243065448969,-5,-5,-4,-4,-1,0,-3,-2
1470243065461496,-7,-9,-19,-2,-2,-2,-2,-2
1470243065461496,2,5,1,1,0,-1,0,0
1470243065468501,1,6,1,3,-2,-1,-1,-2
1470243065468501,0,-7,0,-4,-1,-2,-1,1
1470243065485000,3,-3,-4,-1,0,-2,-1,0
1470243065485000,-13,-3,0,1,-2,-1,0,0
1470243065486502,7,0,-8,-7,-1,0,-1,1
1470243065486502,-9,-11,10,3,2,1,-2,-4
1470243065507055,0,7,0,-3,-2,-2,0,-2
1470243065507055,3,0,-9,4,-2,-1,-1,-3
1470243065509023,-2,-9,-2,-8,0,-2,-1,1
1470243065509023,-6,19,6,-4,-1,2,-2,-2
1470243065521534,2,-6,-13,-1,-1,-2,-1,2
1470243065521534,1,8,-2,-1,-1,0,0,-4
1470243065528548,-3,3,19,7,-2,-1,-1,-2
1470243065528548,0,-2,-17,-5,-3,-3,0,-1
1470243065545126,2,1,-4,-5,0,-1,0,1
1470243065545126,-7,-4,13,1,-2,0,-2,-2
1470243065546081,2,-2,-8,2,1,-2,1,-2
1470243065546081,2,-7,1,-4,-2,-1,-1,1
1470243065567611,-3,0,8,1,-3,-2,-3,-1
1470243065567611,1,-4,-9,-15,-1,-3,-1,0
1470243065568575,-8,-4,5,2,-3,-1,-2,0
1470243065568575,-9,-7,-9,3,0,-2,0,-2
1470243065581588,0,8,10,3,-1,1,-1,-2
1470243065581588,-1,-7,-8,-6,-2,1,-1,0
1470243065588598,1,3,-6,2,1,-2,-2,-3
1470243065588598,4,-8,6,-2,-1,-1,-2,0
1470243065612148,-2,14,7,-2,-4,0,-1,-2
1470243065612148,-8,-20,-18,-4,1,-2,0,-5
1470243065613616,5,11,-3,-7,-2,0,1,1
1470243065613616,-3,1,5,8,-1,0,-1,0
1470243065627629,0,-13,5,0,0,0,0,0
1470243065627629,2,23,-18,1,-4,-3,-1,2
1470243065628631,-5,-4,-3,-10,-1,0,0,-2
1470243065628631,1,-10,4,-4,-2,0,-2,-1
1470243065641660,3,-7,-5,5,-1,0,-2,-2
1470243065641660,-3,-3,9,3,-1,-1,0,-3
1470243065648686,-4,-7,0,1,0,-1,-2,-2
1470243065648686,-9,2,3,3,-1,-1,-1,-2
1470243065665162,2,-3,-6,-8,1,-1,0,0
1470243065665162,3,-7,0,0,-1,0,-1,-1
1470243065666163,-2,3,-4,-1,-3,0,-2,-1
1470243065666163,6,3,12,-2,0,-1,-1,-2
1470243065687281,-10,-3,-15,1,-1,-1,-1,-3
1470243065687281,2,-4,-6,-1,-2,-1,-1,0
1470243065688686,6,10,2,7,0,-1,-1,1
1470243065688686,0,7,3,-8,-2,-1,-1,0
1470243065701698,-7,-8,-10,10,-1,3,-1,-1
1470243065701698,8,-11,7,-22,1,1,-3,-2
1470243065708215,-6,10,-2,1,-4,-2,-2,-2
1470243065708215,2,1,-1,7,1,-1,0,1
1470243065724748,2,-1,0,-4,-3,-3,0,0
1470243065724748,0,-3,7,2,0,1,1,1
1470243065726235,4,-3,-3,-1,1,-1,-1,-1
1470243065726235,1,12,0,0,-1,-1,-2,-2
1470243065747251,-1,0,-8,-6,-1,-1,-1,1
1470243065747251,-2,5,15,1,-1,-2,-1,0
1470243065748737,-1,-5,9,14,4,0,0,-1
1470243065748737,-3,-4,-10,-20,-5,-3,-2,-1
1470243065761255,-13,-14,1,-3,-3,-3,-2,0
1470243065761255,9,13,3,10,-2,-2,-2,1
1470243065769756,-10,-11,7,-3,0,-1,1,-1
1470243065769756,-1,-8,-3,10,1,0,-1,-1
1470243065784787,1,6,-4,-9,-2,-3,-2,-3
1470243065784787,-1,6,11,3,-2,-1,1,0
1470243065786273,1,-4,-18,-4,-2,-1,-2,-1
1470243065786273,-1,0,-3,1,-2,-1,1,0
1470243065807308,1,-6,4,-3,1,0,0,-2
1470243065807308,-1,12,2,6,0,-2,-2,0
1470243065808794,3,-1,-1,-4,-2,1,-1,-1
1470243065808794,-16,-4,-8,-2,-3,-2,-1,-3
1470243065820833,2,-9,7,-2,0,-3,-2,-1
1470243065820833,1,14,-5,-3,-1,-1,-4,1
1470243065846828,1,0,-2,-3,-2,-2,0,0
1470243065846828,3,-2,-2,-2,-3,-1,-3,-2
1470243065847881,5,-1,2,2,-1,-1,-1,1
1470243065847881,-10,-15,-15,-3,0,0,0,-3
1470243065850833,-2,0,-6,-6,-1,-2,0,0
1470243065850833,2,2,13,3,3,-2,0,-1
1470243065867391,-6,4,2,-1,-1,0,-2,-4
1470243065867391,2,-3,2,-3,-1,-1,-1,2
1470243065868846,-4,-9,0,2,-2,-1,-2,-3
1470243065868846,5,8,-6,-3,0,-1,0,-1
1470243065880867,-1,0,1,-1,-2,0,2,0
1470243065880867,-6,-4,18,6,-3,-1,0,-1
1470243065889868,-6,-3,-13,-1,-1,-2,-2,-1
1470243065889868,-1,-5,2,-3,-1,-3,-1,1
1470243065904877,0,2,-8,-1,0,-2,0,0
1470243065904877,9,0,-10,-13,-2,-3,0,-2
1470243065906879,-13,1,4,0,-1,0,1,1
1470243065906879,1,-9,0,9,-2,0,0,-2
1470243065927397,-1,0,5,-11,-2,0,-2,-3
1470243065927397,-3,-12,-17,-2,0,2,0,-1
1470243065928899,3,1,13,-2,0,-2,-5,-1
1470243065928899,-1,-8,3,-3,-3,-1,-1,0
1470243065940925,0,1,-10,1,-1,-2,-2,-3
1470243065940925,-7,-1,10,7,1,0,-1,-1
1470243065949918,1,-1,-10,-4,-1,0,0,-1
1470243065949918,0,-4,6,-1,-2,-1,-2,-2
1470243065964936,-3,7,-23,-1,1,0,0,-1
1470243065964936,0,-13,-2,-5,-1,-2,-1,-1
1470243065966433,5,2,0,-1,-2,-2,0,0
1470243065966433,-2,-1,-3,-1,-1,2,-1,-3
1470243065987453,0,-4,6,3,-1,-1,-4,0
1470243065987453,-4,3,-3,5,-1,-2,-2,-1
1470243065988953,3,-1,-2,-7,-2,2,1,-1
1470243065988953,-4,-9,-6,-2,-2,0,1,-2
1470243066000965,5,4,1,0,0,-2,0,0
1470243066000965,-8,-4,-7,-2,-3,-1,1,-1
1470243066009972,0,0,0,-2,0,-3,-3,-4
1470243066009972,3,-3,7,0,1,1,-1,-1
1470243066024989,-9,-7,2,0,-2,0,-1,-5
1470243066024989,1,0,-1,-1,-1,-2,0,1
1470243066026486,-1,-4,-5,0,-1,-1,-1,0
1470243066026486,-2,4,3,-1,2,-2,-2,0
1470243066047007,12,3,-2,-1,0,0,-3,2
1470243066047007,-4,3,10,4,-1,-2,-1,-3
1470243066049010,-3,-17,-14,-3,-4,-2,0,-2
1470243066049010,6,6,-6,0,0,-1,-1,0
1470243066061017,-1,-5,3,2,0,0,1,0
1470243066061017,4,-4,-5,-1,0,0,-3,0
1470243066070026,-4,7,1,-4,0,-1,-1,-1
1470243066070026,0,-4,-4,-1,-2,-1,-2,-3
1470243066084039,0,1,-2,6,0,1,0,0
1470243066084039,-1,-4,5,-16,-3,-3,-2,-3
1470243066085040,0,2,3,10,0,-1,0,1
1470243066085040,-4,-1,-7,-3,1,-1,-2,0
1470243066106561,-7,-5,-1,-4,-4,0,-2,-1
1470243066106561,1,3,0,7,2,0,-1,-1
1470243066107561,-2,8,-1,-6,0,-1,-3,0
1470243066107561,0,-4,12,1,-1,-1,0,-1
1470243066129081,1,9,-15,-4,-4,-2,-1,0
1470243066129081,0,-16,6,2,1,1,1,2
1470243066129580,0,18,-7,-5,-3,0,-1,0
1470243066129580,1,5,7,3,-2,-1,-1,1
1470243066144093,-4,-2,6,2,0,-3,-1,-1
1470243066144093,-5,-8,-5,2,-3,-2,-1,-1
1470243066144593,1,0,-2,-9,1,1,-1,-1
1470243066144593,-5,-6,12,5,2,-1,-2,-1
1470243066166613,0,6,-14,-11,-5,-1,0,1
1470243066166613,2,1,2,1,-2,-4,0,-1
1470243066167113,1,-8,5,9,-1,-1,-1,-2
1470243066167113,-5,2,-14,-14,-1,-3,-1,-1
1470243066189132,0,-8,1,1,0,-1,0,1
1470243066189132,1,7,11,4,1,1,-1,1
1470243066189633,-8,-17,-4,5,-1,-1,-1,-2
1470243066189633,8,0,-11,-3,-2,-1,2,0
1470243066204147,-5,-3,10,1,1,-1,0,0
1470243066204147,6,-9,-43,-8,-1,-2,-1,0
1470243066204647,-7,13,14,1,-2,-1,-1,1
1470243066204647,-6,-9,-8,0,-4,-2,-1,-2
1470243066226668,4,-5,12,4,1,-1,-1,0
1470243066226668,-1,-1,-4,-10,-2,-1,-1,-1
1470243066227167,-1,4,5,5,3,-1,0,0
1470243066227167,-1,-9,-8,-9,-3,0,-1,0
1470243066249187,-3,11,1,-2,-3,0,-1,-1
1470243066249187,-2,2,10,5,0,1,-4,-2
1470243066249687,-4,-22,-12,1,3,0,-3,-2
1470243066249687,1,19,0,-5,-2,-3,-3,1
1470243066264201,-2,12,14,2,0,-2,-1,-1
1470243066264201,-11,0,-2,-5,-2,-1,-1,-4
1470243066264701,4,-3,-6,-3,-4,-2,-1,-1
1470243066264701,-9,-6,16,2,0,-1,-1,-1
1470243066286777,-3,-7,-32,-7,-2,-1,0,1
1470243066286777,-2,9,13,-3,1,-2,-1,-2
1470243066287223,4,-4,-4,0,-3,-2,0,-1
1470243066287223,-3,4,-1,3,1,-1,0,0
1470243066309261,6,-15,8,4,-2,-1,-2,-3
1470243066309261,-14,-13,-3,-6,-5,-1,-1,0
1470243066309743,12,30,12,4,0,-2,-1,-1
1470243066309743,1,0,-13,-2,-1,0,0,1
1470243066324254,-2,4,5,-2,1,-1,-1,-2
1470243066324254,-1,-3,-24,-5,0,1,-1,-1
1470243066324755,-2,-7,22,-1,-1,0,-1,-2
1470243066324755,-2,-8,-33,1,-4,-1,-2,-1
1470243066346774,-5,-3,-6,-7,-1,-1,-2,-1
1470243066346774,0,3,11,10,0,-1,0,-1
1470243066347278,0,8,-9,-10,-4,-2,-1,-2
1470243066347278,6,-1,15,3,-3,-2,-2,-4
1470243066369295,-20,-4,-3,0,-1,0,0,-1
1470243066369295,1,-9,-1,-4,-1,-2,-1,-1
1470243066369795,-3,-12,-3,5,1,1,-1,0
1470243066369795,-3,-1,-4,0,-2,-3,-1,-1
1470243066384309,1,-5,-5,4,1,-1,0,-2
1470243066384309,-1,17,0,-13,-3,-1,-1,1
1470243066384836,-4,-12,2,1,-1,-1,2,-4
1470243066384836,5,2,3,1,-1,0,1,2
1470243066406828,5,8,-10,-5,-1,-2,-1,-1
1470243066406828,-10,-4,-3,8,-1,-1,-1,0
1470243066407329,8,18,-11,-4,-3,-3,-3,2
1470243066407329,-4,-7,6,2,2,1,-1,1
1470243066429350,-4,-7,-2,-2,-2,-1,-2,-3
1470243066429350,4,-4,8,0,-1,0,-2,-2
1470243066429849,1,-6,-5,-5,-2,-2,-1,0
1470243066429849,-2,-2,-3,5,-1,-1,-1,-2
1470243066444441,-1,-8,8,1,1,0,-1,1
1470243066444441,4,-4,-3,-5,-2,0,0,-2
1470243066444862,-7,6,1,-1,-1,0,-2,-2
1470243066444862,-1,-3,5,1,1,1,-2,-1
1470243066466882,5,-1,3,-6,-2,0,0,1
1470243066466882,2,5,5,8,-1,-1,-1,-3
1470243066467383,-23,-15,-19,-16,0,0,-2,-5
1470243066467383,5,10,7,4,0,-1,0,-1
1470243066488986,3,-8,2,-2,-3,-1,0,1
1470243066488986,3,8,-6,1,0,1,-1,0
1470243066489942,2,-8,0,4,-2,-3,0,0
1470243066489942,-3,-12,-4,-6,-1,-3,-3,-2
1470243066504501,-3,2,-7,-3,-1,-1,-2,-2
1470243066504501,-1,-9,3,-1,0,0,-2,1
1470243066504916,0,-13,-2,-5,-1,0,-1,-1
1470243066504916,2,8,7,0,-3,0,-1,-1
1470243066526943,-5,-3,-6,6,-1,-3,-1,-3
1470243066526943,6,10,4,-3,-1,-3,1,0
1470243066527475,-8,-6,-8,-11,-2,1,0,-1
1470243066527475,3,-1,9,6,1,-1,-3,1
1470243066549460,-5,-1,-14,-16,-3,0,-1,-5
1470243066549460,-3,-5,13,8,0,1,0,-1
1470243066549958,5,-9,3,4,-1,-2,0,1
1470243066549958,-10,4,-6,-3,-1,-1,0,-4
1470243066563970,3,-7,9,6,0,0,-1,1
1470243066563970,-2,19,-5,-7,0,-2,0,0
1470243066565472,7,-6,4,10,0,-1,-1,-1
1470243066565472,-18,-13,-11,-8,0,0,-2,-3
1470243066586491,4,19,7,0,-1,0,-1,-2
1470243066586491,0,-10,4,-2,-4,-2,-2,-3
1470243066587491,4,0,-5,1,2,1,0,0
1470243066587491,5,6,-3,-1,-2,-2,-1,-1
1470243066609046,1,8,0,3,-3,0,-2,-1
1470243066609046,-5,-3,-10,-4,-1,-1,-2,-2
1470243066610010,-1,4,5,4,-2,0,-1,-1
1470243066610010,-5,-7,-10,-11,-2,-2,0,-2
1470243066624023,-1,-13,0,-1,-1,0,-1,-2
1470243066624023,0,0,4,3,1,0,0,-1
1470243066625024,-4,-1,2,-2,-2,0,-3,0
1470243066625024,-2,-1,-2,10,-1,0,1,0
1470243066646545,1,0,-2,-6,-3,1,-1,0
1470243066646545,0,-3,-1,-3,0,0,-1,-1
1470243066647048,-5,-6,10,6,-2,-4,-3,-5
1470243066647048,1,-14,-13,-7,-3,-1,-1,-1
1470243066669063,-1,-5,15,3,0,-2,-2,2
1470243066669063,-3,21,-14,-2,-4,-2,0,2
1470243066669566,-4,-26,-16,-7,-4,-3,-2,-1
1470243066669566,2,-11,4,1,-2,0,-1,-2
1470243066684108,-1,19,5,-2,0,-2,0,-2
1470243066684108,-1,-13,1,6,1,-1,-1,-2
1470243066684579,-3,12,-15,-7,1,1,-3,-2
1470243066684579,7,13,19,6,-3,-6,-14,7
1470243066706643,-6,-14,-19,-13,-6,12,15,-8
1470243066706643,-2,-6,-6,6,6,1,-14,-1
1470243066707123,1,25,16,8,-5,-15,-4,-2
1470243066707123,-6,-13,-13,-9,-2,-2,11,-4
1470243066729162,5,20,2,2,-2,-3,-23,3
1470243066729162,-10,-19,11,-4,-2,-4,-2,-3
1470243066729619,8,5,-19,1,-1,-2,-1,1
1470243066729619,4,5,-33,2,2,4,0,1
1470243066744150,-1,-11,24,9,1,-4,6,4
1470243066744150,0,-4,-14,-18,-6,0,6,-1
1470243066744655,2,2,13,-3,3,0,-2,1
1470243066744655,3,12,6,-2,0,1,4,-1
1470243066766651,-2,-18,-19,9,3,1,2,-3
1470243066766651,2,6,-4,-3,2,-4,2,0
1470243066767152,-3,-3,12,-5,3,5,0,-2
1470243066767152,-2,0,19,-7,-8,-3,-3,-3
1470243066789174,0,-7,-15,3,-2,-13,-3,0
1470243066789174,3,3,44,14,11,4,4,-1
1470243066789672,-4,-7,-38,-14,-16,-1,3,2
1470243066789672,3,-1,12,11,12,10,-1,0
1470243066803685,-4,-5,-18,-14,4,-22,-5,-3
1470243066803685,2,4,4,6,-11,-13,-1,-3
1470243066811783,-2,-3,1,5,6,13,4,1
1470243066811783,-4,-1,-13,-11,-10,-12,-4,-1
1470243066826798,-4,-1,-3,-7,-8,3,6,-4
1470243066826798,2,-2,-9,-2,2,-3,-2,2
1470243066827210,-1,-7,-7,0,-5,15,-8,-4
1470243066827210,1,-1,2,-4,-1,-9,-5,0
1470243066849244,-1,4,5,3,4,9,-4,0
1470243066849244,-4,-9,-16,-4,-2,1,9,-4
1470243066849728,4,5,15,1,0,-9,2,3
1470243066849728,-3,-2,-10,-2,0,10,7,-3
1470243066863238,-1,2,6,1,1,0,-2,4
1470243066863238,0,-2,-8,-3,-3,0,-3,1
1470243066871774,-4,-2,4,-2,-2,-16,-26,-7
1470243066871774,0,-2,-1,-2,4,5,15,-2
1470243066886775,2,-2,8,3,-2,-9,11,3
1470243066886775,-1,-3,-8,-3,-3,11,-26,-8
1470243066887269,-1,7,7,-2,1,-13,18,-1
1470243066887269,-4,-2,2,3,0,1,-13,-1
1470243066909281,-1,-2,-4,-3,-1,0,-6,0
1470243066909281,-5,-2,-4,-1,-2,-5,0,-2
1470243066909780,1,-3,-2,1,1,7,4,7
1470243066909780,-2,-4,0,-2,-2,-5,-4,-6
1470243066923312,3,1,2,2,0,7,2,6
1470243066923312,0,-2,-5,-3,-2,-5,4,-2
1470243066931800,-2,-5,4,1,-1,2,-7,-4
1470243066931800,-2,-3,-2,0,-1,2,5,-15
1470243066946813,-1,6,-5,-5,-3,-2,4,11
1470243066946813,-1,-1,-1,-2,-1,2,-4,-14
1470243066947315,-4,-5,-2,-2,1,6,6,3
1470243066947315,-10,2,-2,-2,1,-7,6,5
1470243066969334,4,5,0,0,-1,-3,-7,-13
1470243066969334,0,1,-5,1,-2,-5,3,13
1470243066969836,5,4,3,1,0,17,32,16
1470243066969836,-3,-1,-7,-5,-3,-4,-11,-17
1470243066983358,-5,-2,-12,-4,-1,-3,-3,-6
1470243066983358,-4,-23,0,-1,-2,-3,-6,15
1470243066991854,-4,-1,-10,-8,-3,-4,-13,-16
1470243066991854,4,-10,9,1,-2,-1,-1,11
1470243067006867,1,28,5,1,-1,2,-5,-3
1470243067006867,-4,-16,-18,-7,-2,-5,0,-10
1470243067007368,-3,-2,0,1,0,-2,-1,-3
1470243067007368,3,3,0,-2,-3,-3,-5,9
1470243067028886,-1,0,2,-1,-2,3,-5,7
1470243067028886,-1,2,2,0,-2,3,20,-1
1470243067029888,-2,-8,13,1,-2,-7,-19,2
1470243067029888,0,6,-4,1,1,7,7,-3
1470243067043416,-1,-10,-17,-6,-2,-13,-23,-7
1470243067043416,2,9,14,0,-1,4,-10,2
1470243067051942,-3,-5,-11,-3,-1,-6,7,-6
1470243067051942,-2,5,4,1,-3,2,-2,-1
1470243067066945,-4,-17,18,5,0,3,6,0
1470243067066945,1,9,-9,0,-3,0,2,1
1470243067067422,0,-10,3,-1,-1,-6,-11,-4
1470243067067422,-3,0,-8,-11,0,-3,-5,-1
1470243067088996,-1,-2,-4,1,2,3,11,0
1470243067088996,-1,-9,-4,-12,-4,-4,-6,-2
1470243067089952,-2,13,7,5,-1,-3,0,-4
1470243067089952,2,-6,3,-7,-3,-3,0,2
1470243067112462,3,1,2,6,0,0,-2,-3
1470243067112462,-3,7,4,-2,0,0,-2,-2
1470243067113464,3,-3,-12,-1,-2,-3,0,0
1470243067113464,-1,-2,12,1,-1,-4,-3,2
1470243067126980,1,4,1,-2,-2,-1,-2,-5
1470243067126980,0,-1,4,5,2,1,0,-2
1470243067127505,4,3,-5,-2,1,-1,5,1
1470243067127505,-3,-1,-11,1,-3,0,-2,-3
1470243067149071,3,-14,7,-2,-2,2,1,2
1470243067149071,-7,6,-6,3,2,1,11,-1
1470243067149996,-10,-14,3,-2,-1,-1,-8,-6
1470243067149996,12,23,-7,-1,1,-3,-11,2
1470243067172609,-11,-20,-2,-2,-1,5,5,0
1470243067172609,4,20,8,0,-1,-5,3,0
1470243067173053,-3,-12,-6,-4,0,0,4,-1
1470243067173053,-4,3,4,3,-1,-2,1,-5
1470243067187046,1,-1,-3,-3,-2,5,5,-2
1470243067187046,-3,-2,2,-2,-3,-2,-5,2
1470243067188030,0,13,-7,-2,-3,-1,-2,-4
1470243067188030,3,0,1,0,0,-2,-5,1
1470243067209049,-8,-12,-3,-4,-2,-6,0,-5
1470243067209049,2,-1,1,1,2,6,-1,-3
1470243067210050,-1,10,2,0,1,-5,-3,2
1470243067210050,2,-26,-14,-2,-1,1,2,-2
1470243067232570,-12,8,1,-1,0,-1,-3,-3
1470243067232570,9,-7,-5,-1,-2,-3,-3,-2
1470243067233070,-2,2,10,1,-1,-2,0,1
1470243067233070,-6,2,-28,-8,-4,-2,-1,2
1470243067246584,3,0,20,6,0,-2,1,0
1470243067246584,-2,-17,-14,-3,-3,-2,-3,-2
1470243067247084,4,18,-7,-3,-1,0,-3,-2
1470243067247084,1,-3,12,0,2,0,2,1
1470243067269103,-2,-1,-11,0,-2,0,-1,-1
1470243067269103,-1,-7,2,1,0,-2,-5,-5
1470243067269603,-5,-5,-34,-9,-4,-3,-3,1
1470243067269603,-4,-3,7,2,1,-1,-2,-3
1470243067292125,3,9,-9,-2,-4,-3,-3,-3
1470243067292125,-1,-1,11,-3,0,0,4,-3
1470243067293124,1,-1,8,4,-1,2,1,0
1470243067293124,0,-1,0,-7,-3,-7,-2,7
1470243067306683,-4,-4,5,1,0,-3,2,-11
1470243067306683,-3,3,-10,-5,0,1,-4,2
1470243067307141,-2,-2,7,0,-1,-2,-4,-9
1470243067307141,-4,-6,-8,2,-3,-1,-4,7
1470243067329174,6,-1,5,-1,0,1,11,-3
1470243067329174,-9,3,-10,1,-2,-1,-1,0
1470243067330157,3,-2,5,-3,-2,-1,2,1
1470243067330157,-6,-1,18,3,-1,-4,-3,-10
1470243067352277,-4,-4,-23,-8,1,-4,-5,2
1470243067352277,-4,-5,23,7,-4,-3,-3,-5
1470243067353178,-2,-2,-6,2,-4,-3,-5,4
1470243067353178,0,3,-5,1,0,4,9,-4
1470243067366750,3,0,-6,-4,-3,-4,-4,24
1470243067366750,6,5,-3,-10,0,1,2,2
1470243067367191,-2,-4,4,1,1,-2,-4,-4
1470243067367191,-2,-1,17,8,-2,0,-5,-3
1470243067389297,-3,-5,-9,-5,0,1,-3,-7
1470243067389297,-3,-2,0,1,0,-3,-3,0
1470243067389729,7,5,-9,-4,0,-1,0,4
1470243067389729,-2,3,-2,-2,3,3,1,-1
1470243067412258,-5,-7,-7,0,-3,-2,-7,-10
1470243067412258,5,8,1,5,0,-1,0,2
1470243067413232,-4,-8,4,-3,0,2,3,-8
1470243067413232,-2,-1,8,-2,-2,-5,-4,2
1470243067426775,2,0,7,3,-2,-1,8,-1
1470243067426775,-3,-3,-15,-4,0,-3,2,-2
1470243067427247,7,4,2,2,-1,8,6,23
1470243067427247,12,4,-9,-1,0,-6,-11,-8
1470243067449265,-28,0,5,1,1,0,3,16
1470243067449265,-9,-7,-6,-2,-3,0,1,4
1470243067449765,5,0,5,0,-3,-8,-6,-11
1470243067449765,-2,-4,-2,-3,-4,-6,-4,-11
1470243067472336,0,1,4,-1,-1,-2,-7,-16
1470243067472336,0,7,-4,0,-2,-3,-6,10
1470243067473285,-6,-7,-10,-1,1,2,3,5
1470243067473285,2,-3,-17,3,-2,1,1,6
1470243067486798,6,0,-6,-8,0,-2,-3,-5
1470243067486798,1,-2,-3,-9,1,2,3,-5
1470243067487298,-1,-1,10,1,1,-2,-1,-5
1470243067487298,-10,1,19,16,1,3,4,-1
1470243067509819,10,2,-37,-6,5,3,1,2
1470243067509819,-3,-2,50,18,-7,-3,-4,-5
1470243067510321,-8,-9,-12,-2,0,-2,-4,-8
1470243067510321,0,-1,-16,-22,1,3,2,3
1470243067532371,-6,1,36,13,-5,-2,-2,0
1470243067532371,6,19,-42,-19,1,-1,-1,0
1470243067532844,-2,-3,12,5,-2,-4,-7,-7
1470243067532844,-5,-9,-8,-8,-4,4,4,-2
1470243067546851,3,0,-2,-5,-3,-9,2,-13
1470243067546851,3,-2,0,-5,-1,0,-8,-2
1470243067547352,-9,-13,2,-1,0,4,6,-4
1470243067547352,0,5,-6,0,1,0,6,-1
1470243067569372,3,0,0,-3,-2,-1,-11,-2
1470243067569372,-7,-12,6,8,-2,-4,-1,3
1470243067569874,2,2,-9,0,1,-3,-1,-6
1470243067569874,0,-5,-3,0,-1,2,-1,3
1470243067592394,-3,-1,13,3,-2,-1,-1,-3
1470243067592394,1,-2,-7,1,-1,3,0,-4
1470243067592895,2,2,3,-5,-3,-2,-4,5
1470243067592895,-1,-2,3,-2,-1,-3,0,-1
1470243067606906,1,3,-1,-1,0,2,0,4
1470243067606906,0,0,-1,1,1,0,-1,8
1470243067607407,-2,-6,-9,-1,0,1,2,-6
1470243067607407,-2,1,8,2,-3,-3,0,1
1470243067628932,5,-4,-9,1,1,1,1,2
1470243067628932,6,2,1,-1,0,1,0,-5
1470243067629929,1,7,0,-1,-3,-3,0,1
1470243067629929,-10,-1,-3,-1,0,-1,-1,-3
1470243067652447,0,-3,0,-1,-2,-3,-7,-3
1470243067652447,1,-4,2,-1,-1,0,10,-4
1470243067652947,2,2,-18,-5,-4,-3,-3,0
1470243067652947,1,0,3,1,0,4,0,3
1470243067666461,-1,1,-3,-1,-2,-2,3,-8
1470243067666461,-2,-3,6,1,0,-9,-13,-4
1470243067667461,-2,0,-21,-2,1,8,4,1
1470243067667461,-3,-8,4,-2,0,-2,-2,0
1470243067688980,-2,2,6,3,0,-1,-2,-3
1470243067688980,-1,-3,-7,-7,-3,-3,1,-3
1470243067689980,-11,1,0,1,-1,-3,1,1
1470243067689980,3,0,-8,-2,-1,0,-5,-7
1470243067712501,4,11,8,1,-2,3,5,0
1470243067712501,-5,-5,-1,-2,-1,-1,-2,-3
1470243067713002,3,-1,-13,-3,0,0,-3,2
1470243067713002,-2,0,18,6,0,-1,3,-3
1470243067726013,-3,-3,-6,-3,-3,1,-5,3
1470243067726013,-3,-6,-29,-2,-1,0,-2,-8
1470243067734020,-1,1,13,-2,-1,-3,-3,-10
1470243067734020,7,2,-2,-3,0,-3,-3,18
1470243067749087,-4,-7,7,2,-2,2,0,-1
1470243067749087,-1,1,4,2,-1,-1,-2,-1
1470243067750050,-1,-3,4,0,-1,-2,1,-1
1470243067750050,-1,2,-4,-2,-3,1,-4,-5
1470243067772068,0,-8,1,0,-3,-1,-2,2
1470243067772068,-3,2,3,3,-4,-1,1,1
1470243067773055,-3,0,6,3,-1,-2,-1,0
1470243067773055,-1,-3,-1,-1,-1,-1,-1,-3
1470243067786066,2,2,-11,-5,0,0,-1,4
1470243067786066,12,-2,-4,-1,-1,0,0,-3
1470243067794579,-19,-2,7,-4,-3,-3,-1,-4
1470243067794579,0,1,-4,1,-1,-1,-1,-1
