timestamp,emg1,emg2,emg3,emg4,emg5,emg6,emg7,emg8
1470344225601704,1,6,8,2,0,-2,-2,0
1470344225601704,0,-10,-1,-1,1,-1,2,1
1470344225602706,-2,1,1,0,-1,-1,-1,-1
1470344225602706,0,-3,1,-1,-4,-3,-1,0
1470344225624725,-2,-1,-6,0,4,-1,0,0
1470344225624725,-1,3,1,-2,1,-1,-3,-1
1470344225625726,-1,-2,-3,4,-2,-1,-1,-1
1470344225625726,0,-2,-8,0,-3,-2,2,0
1470344225647746,1,0,-5,-3,-4,-2,-1,-1
1470344225647746,0,3,2,7,-2,0,-2,-1
1470344225647746,-2,-5,3,-3,0,-1,-1,-2
1470344225647746,-3,7,-1,3,0,-1,0,-1
1470344225662264,-1,0,-3,-8,-4,0,-1,0
1470344225662264,-2,0,5,3,-4,0,0,0
1470344225662765,-2,-5,-8,-10,-3,-2,-4,-3
1470344225662765,0,3,7,2,-2,0,-1,-2
1470344225684791,-4,-7,-1,-2,2,-2,0,0
1470344225684791,0,0,-5,1,1,-3,-1,-2
1470344225685791,0,2,0,5,-1,0,-3,-1
1470344225685791,-2,-5,0,-2,0,-3,-2,-3
1470344225714817,0,1,2,3,-1,2,0,-1
1470344225714817,0,-4,7,-4,-3,0,-1,1
1470344225715819,-1,4,-8,5,-2,-4,2,-2
1470344225715819,-3,1,2,-6,-2,0,-1,-1
1470344225721824,-5,0,-1,0,3,1,-2,-3
1470344225721824,1,-3,-1,-6,-1,1,-2,-2
1470344225722825,2,-3,-5,0,1,1,0,1
1470344225722825,1,1,-2,5,0,-2,-2,0
1470344225744843,-1,-3,1,-10,-3,-4,-1,-1
1470344225744843,0,2,-2,0,1,-1,-2,-2
1470344225745844,-2,3,5,1,-3,0,0,1
1470344225745844,-1,-4,-6,-6,-2,-2,-2,-1
1470344225767869,3,1,1,5,2,-2,-1,0
1470344225767869,-1,-10,-2,-4,-4,-4,-1,-3
1470344225768369,-2,-1,1,2,-2,0,-3,0
1470344225768369,0,-5,2,-2,-3,-2,-1,-2
1470344225781881,-2,-6,-3,0,-2,-1,-2,0
1470344225781881,-5,0,4,1,0,-1,1,-2
1470344225782883,1,-3,-13,-8,-4,-2,-1,1
1470344225782883,-4,0,5,4,1,2,-1,2
1470344225805402,-2,-1,-2,1,-2,-1,-3,-1
1470344225805402,-4,-2,-4,-13,-5,-1,-1,-3
1470344225805903,-2,-1,0,0,0,-1,0,0
1470344225805903,1,-3,5,3,-1,-1,-3,-3
1470344225827922,1,0,-7,2,2,1,0,1
1470344225827922,-4,-2,3,4,-5,-1,0,1
1470344225828424,1,-2,-1,-2,1,1,-2,-4
1470344225828424,1,-1,1,2,-2,1,0,0
1470344225841935,-2,0,-1,-4,-1,-1,-3,-1
1470344225841935,3,1,-15,-3,-2,-2,0,1
1470344225842936,-4,0,7,-2,-1,0,0,-1
1470344225842936,0,-7,-1,-2,-2,-3,-1,0
1470344225865456,-1,5,-3,-2,-2,-1,-2,0
1470344225865456,-3,-2,-1,-2,1,-1,-4,-1
1470344225865957,3,1,1,3,-3,-3,-1,-2
1470344225865957,2,-2,3,-6,-4,-2,-2,-3
1470344225887976,0,1,4,5,-2,-2,1,2
1470344225887976,-2,0,-6,1,2,-2,-2,-1
1470344225888477,0,0,3,-7,-2,-1,1,-3
1470344225888477,-2,2,-6,-3,1,1,0,1
1470344225901490,-1,-5,2,9,-1,-1,-2,-2
1470344225901490,0,1,5,-5,-1,-2,0,-3
1470344225917003,-1,1,-4,1,1,-2,0,0
1470344225917003,0,-4,-3,-1,1,-1,-1,-1
1470344225925510,-3,1,-10,-10,-3,-2,-1,-3
1470344225925510,0,0,0,3,0,0,-3,2
1470344225926010,1,-4,-11,-5,-2,-2,0,-2
1470344225926010,-1,2,-2,0,0,0,-2,1
1470344225948030,-1,-1,2,-6,-4,-2,-1,-3
1470344225948030,0,1,1,2,1,0,1,0
1470344225948532,0,-2,0,3,0,-1,-1,-1
1470344225948532,-1,1,-1,-5,-3,-1,1,-3
1470344225961542,0,-11,2,2,2,-1,0,-2
1470344225961542,-2,3,-2,-3,1,-1,-1,0
1470344225969549,-3,2,-2,1,1,-1,-3,0
1470344225969549,-2,0,-2,-1,-3,0,-3,-1
1470344225985064,0,3,-1,6,0,-1,0,-4
1470344225985064,-2,-1,5,0,-3,0,1,-3
1470344225986064,0,-7,-7,-6,-2,-1,-3,0
1470344225986064,-2,2,6,3,0,-2,-1,0
1470344226007584,0,-2,2,0,-1,-1,0,-2
1470344226007584,-2,3,-6,-4,-3,-1,-2,-1
1470344226008585,-3,-4,-4,-2,-4,-1,-2,-1
1470344226008585,0,1,0,-1,-1,-2,-1,-2
1470344226021596,0,-3,-3,-9,-3,-1,0,0
1470344226021596,-1,-3,3,3,-1,2,0,-1
1470344226029604,-3,1,2,-3,-3,-2,0,-2
1470344226029604,2,-4,-9,-4,-2,-1,0,-2
1470344226045118,-3,3,1,-6,-1,0,0,-1
1470344226045118,-2,3,-3,6,0,0,1,-1
1470344226046119,0,2,-3,-4,-2,-1,0,0
1470344226046119,-2,-6,3,-3,-3,-2,-2,1
1470344226067637,-1,5,0,4,0,-1,-2,-3
1470344226067637,0,-4,6,2,-2,1,-1,-1
1470344226068638,0,-8,-7,-1,-1,-1,-1,-4
1470344226068638,-2,-1,6,1,-1,-3,1,3
1470344226081650,0,2,-1,7,0,1,1,-1
1470344226081650,-2,3,-2,-2,-2,-3,-1,-3
1470344226089658,-4,0,7,2,-1,-1,-2,1
1470344226089658,-4,0,-13,-7,2,-1,-1,-3
1470344226105171,-1,-2,0,-3,0,1,-1,0
1470344226105171,0,-11,0,-4,-4,0,-3,-1
1470344226106172,-2,3,1,5,0,-1,0,0
1470344226106172,-1,-1,1,-4,2,0,0,-3
1470344226127692,2,-4,-12,-4,-5,-4,-2,-2
1470344226127692,1,-1,2,-5,-4,-1,0,-3
1470344226128692,-1,-2,3,-2,0,-1,-1,0
1470344226128692,-4,-7,1,0,-3,1,-4,-3
1470344226141209,-1,0,3,-4,-3,0,0,-2
1470344226141209,-1,4,-1,0,2,-1,1,-1
1470344226149219,0,-6,-5,0,-1,0,-1,0
1470344226149219,3,3,4,1,-2,0,0,0
1470344226165232,-3,-3,-3,-1,0,-1,-1,-1
1470344226165232,0,-10,-3,-2,1,-4,-1,-3
1470344226165232,-1,8,8,0,-1,1,0,-1
1470344226165232,1,-5,-12,-8,-1,1,-1,1
1470344226187252,1,3,9,5,-4,0,-1,-2
1470344226187252,0,-2,-5,-1,2,-1,0,0
1470344226188253,-2,4,2,-2,2,-1,-2,-3
1470344226188253,1,1,-4,4,-1,-1,0,-2
1470344226201264,-2,-4,-14,-6,-4,-3,0,2
1470344226201264,1,-2,-2,-6,-1,0,-1,-1
1470344226209273,-5,-1,10,6,1,-2,-1,-2
1470344226209273,-1,0,0,2,-3,-1,0,-2
1470344226224284,0,-3,5,-2,2,1,-3,-1
1470344226224284,-1,-1,0,4,0,-2,-3,1
1470344226231297,-2,-1,-4,-3,-4,-1,0,0
1470344226231297,-2,-1,5,2,4,0,0,0
1470344226247157,-2,-4,-2,-1,-2,0,0,1
1470344226247157,0,5,1,-4,-5,1,1,0
1470344226249161,4,1,-5,0,1,0,0,-1
1470344226249161,-3,2,1,-2,-3,-3,1,0
1470344226270178,-2,-1,0,2,2,0,0,-1
1470344226270178,-3,-3,-1,-5,0,1,-2,-2
1470344226271179,0,-4,1,0,-2,-1,1,-2
1470344226271179,-2,9,-10,3,-2,0,-1,1
1470344226284192,-1,1,7,-2,1,-2,-1,0
1470344226284192,-3,0,-4,4,1,1,0,-1
1470344226291198,1,-7,-8,-13,-6,-4,-3,-3
1470344226291198,-2,-4,5,-2,4,-1,-2,-3
1470344226307212,-3,0,-2,0,-4,-3,-2,-2
1470344226307212,2,-1,-5,-3,-3,1,0,2
1470344226309214,-1,4,0,4,1,0,1,0
1470344226309214,0,-1,4,2,-4,-2,0,0
1470344226330238,-1,5,3,-4,-1,-1,-2,-1
1470344226330238,-1,-4,-4,0,-2,-4,-3,-2
1470344226331740,-2,2,0,-2,2,-2,0,-1
1470344226331740,-2,6,-2,2,0,0,-1,0
1470344226344255,-4,-9,-4,1,-3,-1,-3,-2
1470344226344255,0,5,-1,-2,-1,2,4,0
1470344226351262,0,-9,-26,-7,-8,-4,-4,-4
1470344226351262,0,-1,-1,-4,-4,1,-1,-3
1470344226367280,1,0,-2,5,2,0,0,0
1470344226367280,-3,-6,-7,-9,-4,-3,-3,-5
1470344226369280,0,-2,-3,1,0,2,-2,-2
1470344226369280,0,-8,-3,-8,-3,-3,-1,-4
1470344226390303,-1,-1,-4,1,0,-1,-2,0
1470344226390303,0,2,-1,1,0,1,0,1
1470344226391299,-3,0,14,1,0,2,-1,0
1470344226391299,-6,-8,-5,-3,-2,-2,-2,2
1470344226404311,-1,-1,1,6,0,-3,3,-3
1470344226404311,1,1,7,3,4,-1,-5,-1
1470344226411318,0,-5,0,-4,0,-2,0,2
1470344226411318,1,-1,9,0,-1,-2,-1,-1
1470344226427841,-2,7,-18,-3,-1,-2,-2,-2
1470344226427841,-1,-3,-2,-5,-5,-2,-2,4
1470344226429340,2,1,4,5,-5,-4,-3,0
1470344226429340,-3,5,-4,2,15,16,0,-1
1470344226450364,-2,-14,8,-3,-6,-3,1,1
1470344226450364,0,19,-11,-3,-2,-3,1,-1
1470344226451366,-4,3,4,-1,0,-4,-3,2
1470344226451366,-2,0,-1,4,-1,-3,1,-1
1470344226464377,-2,3,3,-1,3,-4,0,1
1470344226464377,-1,-1,0,1,-3,-6,-2,0
1470344226471383,-1,-2,0,-7,5,10,0,0
1470344226471383,0,-1,4,7,-5,1,2,-2
1470344226487397,-3,5,9,-4,-2,-2,-6,1
1470344226487397,0,-7,7,0,-3,-4,1,-1
1470344226489400,-1,0,-2,2,-18,-15,-4,-1
1470344226489400,3,-6,-9,-6,7,1,-3,0
1470344226510418,-1,1,-3,4,0,-1,0,-1
1470344226510418,-2,2,-3,-1,-3,4,0,-4
1470344226511421,1,-3,3,0,1,5,1,-1
1470344226511421,0,-6,-32,-22,-2,-5,-1,-1
1470344226532958,0,0,6,1,-4,-1,-4,0
1470344226532958,-1,-17,1,-5,3,-10,3,-4
1470344226534459,-4,2,-16,-2,7,15,8,3
1470344226534459,-4,5,3,7,-12,-15,-6,-8
1470344226547481,3,-8,1,-10,7,14,4,1
1470344226547481,-5,-6,-10,-1,-1,-6,1,2
1470344226549480,-5,7,19,3,1,-3,-2,2
1470344226549480,-4,-5,12,-1,0,-3,0,0
1470344226570498,-4,0,-20,-12,-6,-2,6,-1
1470344226570498,0,3,14,18,5,8,-6,0
1470344226571499,0,-8,-7,-8,-5,-7,0,0
1470344226571499,1,6,8,1,-5,-3,8,5
1470344226583510,0,-1,6,-5,-25,-18,-11,-5
1470344226583510,-2,3,-3,-2,20,19,1,0
1470344226592519,1,-5,1,1,-1,-3,-2,-6
1470344226592519,-3,-7,4,-5,-13,-9,-29,-1
1470344226607534,3,-4,-6,5,10,8,0,0
1470344226607534,-1,-1,0,-7,-9,-9,-4,-8
1470344226609532,1,-4,3,-4,1,-3,-3,-9
1470344226609532,1,-5,2,3,4,9,14,7
1470344226630559,-2,-1,-15,-2,0,3,-10,-6
1470344226630559,-1,9,11,-4,-10,-5,-8,-2
1470344226632060,-2,8,-4,1,6,4,6,1
1470344226632060,3,6,3,4,1,-10,-1,-4
1470344226643578,-5,-7,-11,-10,0,2,-5,-1
1470344226643578,3,-1,-1,11,5,9,10,0
1470344226652586,-5,0,-7,0,-1,-3,-5,-1
1470344226652586,0,-1,4,1,-2,-1,1,-2
1470344226667600,-3,-7,9,-1,-3,2,2,-1
1470344226667600,-2,-5,4,-4,-9,-10,-4,-2
1470344226668600,-1,-6,-3,1,2,8,-3,-2
1470344226668600,1,-6,-3,0,11,8,-3,-4
1470344226689620,3,7,4,4,-5,-10,4,4
1470344226689620,-4,6,-8,-1,11,4,-2,3
1470344226691620,0,-5,7,-1,-6,0,0,-2
1470344226691620,-5,-13,-7,-6,-4,-1,-1,-4
1470344226703631,0,-7,-9,4,1,-2,3,5
1470344226703631,2,-10,-7,-8,-3,-6,1,-7
1470344226712641,1,-7,-5,6,7,10,-1,5
1470344226712641,-4,4,2,4,-13,-7,12,2
1470344226728169,3,-10,-2,-3,1,2,-20,-1
1470344226728169,-2,-25,0,-2,-6,-6,2,-1
1470344226729169,-6,-18,-1,-1,3,1,6,-3
1470344226729169,1,-2,-22,5,-1,-6,-3,-1
1470344226750189,-3,-17,20,-8,-5,-6,3,-6
1470344226750189,-5,-8,-4,0,3,8,1,3
1470344226751690,-1,9,-3,5,3,-9,-5,-1
1470344226751690,2,-24,8,-13,-4,-2,-5,-6
1470344226763701,-1,-2,-4,5,0,7,5,1
1470344226763701,3,0,0,-1,1,-4,-2,-1
1470344226772709,-2,5,6,0,-3,-4,3,-5
1470344226772709,-1,19,-5,-5,-3,7,-1,3
1470344226787722,8,23,1,1,0,-10,3,-3
1470344226787722,6,49,-11,20,24,9,3,7
1470344226789224,11,17,11,-14,-7,-3,-3,-5
1470344226789224,-9,28,3,3,-13,-7,-5,0
1470344226817749,-18,43,-11,11,20,7,7,2
1470344226817749,-4,-18,20,-19,-26,-8,-1,-6
1470344226819250,-7,7,-11,6,-2,1,-4,1
1470344226819250,-6,-5,-4,5,12,8,1,-4
1470344226823754,-4,-1,17,-4,-4,-12,1,-6
1470344226823754,-6,-14,-17,-7,-8,4,-6,-2
1470344226832762,-3,-26,0,-2,1,0,-1,2
1470344226832762,1,1,-7,11,15,-1,1,0
1470344226847277,10,-26,20,-20,-22,-3,-3,-4
1470344226847277,-4,-11,-4,3,0,-3,1,1
1470344226861288,-1,8,-14,6,8,1,0,1
1470344226861288,9,-29,17,-23,-23,-14,-4,-3
1470344226870296,-1,-1,-10,10,2,5,-5,2
1470344226870296,1,7,-3,2,13,-5,0,0
1470344226871797,1,-35,10,-8,-9,-6,-2,-1
1470344226871797,-3,14,-7,5,2,5,-2,2
1470344226883808,-3,11,-8,3,-2,3,1,0
1470344226883808,-10,17,-6,8,10,2,5,-2
1470344226892816,3,-8,5,-19,-14,-8,-2,-1
1470344226892816,3,1,-5,4,-1,3,-2,-2
1470344226907830,-2,9,-11,10,10,-3,2,2
1470344226907830,9,-22,3,-4,-14,9,-1,-4
1470344226909331,2,10,-10,2,1,-8,-1,-2
1470344226909331,-5,2,-2,-3,-1,1,-2,-1
1470344226930351,5,-20,14,-7,-25,-18,-3,0
1470344226930351,-4,6,3,-1,7,8,-4,1
1470344226931851,-2,8,0,-1,-6,-6,-1,0
1470344226931851,0,-3,-3,3,8,0,6,6
1470344226943863,-3,-18,8,-3,2,11,-3,-2
1470344226943863,-5,3,2,-6,-4,-4,0,-1
1470344226952871,-4,16,-12,7,1,-5,-1,1
1470344226952871,4,-8,7,-9,-3,2,-4,-2
1470344226982897,0,1,-10,-1,-6,-6,4,0
1470344226982897,1,7,-5,2,9,8,-2,-1
1470344226984399,-5,-7,4,-8,-5,2,-5,0
1470344226984399,-3,10,-6,6,3,3,1,-2
1470344226997910,-1,6,0,3,4,-5,-4,0
1470344226997910,2,-11,4,-15,-23,-10,-4,-5
1470344226999913,-2,-5,4,0,-2,-2,0,3
1470344226999913,0,-1,5,6,2,1,0,-2
1470344227003916,-3,4,-3,-2,4,4,0,-1
1470344227003916,2,-4,-2,-1,-8,-13,-2,-1
1470344227012925,1,-4,3,-2,11,14,1,-2
1470344227012925,-1,-4,-3,2,1,-4,-1,0
1470344227026935,-1,-6,3,0,9,11,-1,0
1470344227026935,0,2,-6,6,-1,-9,4,2
1470344227035445,0,-1,-5,-5,-19,-6,-2,-4
1470344227035445,1,-16,14,-11,0,3,-2,-6
1470344227050458,-6,8,-15,7,2,-6,-2,-6
1470344227050458,0,-1,1,-5,-1,6,-3,2
1470344227051959,3,-4,2,-4,-5,-5,-2,-1
1470344227051959,-4,9,-13,6,5,1,-1,1
1470344227063970,2,-8,-6,-8,-4,-2,-3,-2
1470344227063970,5,-2,5,1,-4,-3,-3,-1
1470344227072978,-3,3,-2,3,-4,-2,-2,0
1470344227072978,-1,1,-8,0,-2,-6,1,2
1470344227087494,1,-1,3,-5,4,2,0,-1
1470344227087494,3,-13,6,-8,-8,2,-5,-4
1470344227089496,-6,19,-17,13,13,5,3,6
1470344227089496,-3,-2,5,-2,-6,-5,-1,-2
1470344227109514,2,-9,-3,-7,-2,1,-1,-2
1470344227109514,-4,14,-9,9,3,-2,1,-1
1470344227111519,-2,-9,1,-5,-4,-5,-1,-4
1470344227111519,1,-5,-5,-10,-6,2,-3,0
1470344227123526,-3,10,-2,-5,-4,-5,-1,2
1470344227123526,-2,0,-2,10,9,-2,-6,3
1470344227132536,2,-6,2,-1,1,4,-1,-4
1470344227132536,0,-11,0,-12,-16,-2,-2,-4
1470344227146548,-5,18,-12,14,9,-2,1,3
1470344227146548,-2,-4,4,-8,-7,-2,-1,2
1470344227153554,1,-21,19,-9,-7,0,-3,-3
1470344227153554,-4,13,-5,11,7,-1,2,6
1470344227170073,2,-7,2,-4,-3,-1,-2,-4
1470344227170073,-2,-2,-2,-1,-2,1,1,-2
1470344227171574,-3,6,-5,-4,-3,-3,-2,0
1470344227171574,0,1,1,0,4,-3,1,1
1470344227183588,1,-5,4,1,-3,2,1,-1
1470344227183588,0,-4,11,4,-4,-2,-1,-2
1470344227198604,-4,12,-7,4,6,-1,-2,0
1470344227198604,-1,0,1,1,-1,-2,-1,-4
1470344227206609,-2,-9,2,-11,-8,-5,-2,1
1470344227206609,-1,5,-11,1,2,5,2,-1
1470344227213615,2,-2,1,1,-3,-5,4,0
1470344227213615,0,-3,4,-6,-6,-5,-9,0
1470344227229629,-2,-5,-2,-5,1,1,-2,-2
1470344227229629,-1,0,1,1,-1,1,2,2
1470344227231631,-2,1,1,-2,-6,-8,0,-5
1470344227231631,2,-10,2,-8,-4,-1,0,-5
1470344227252649,-4,6,-6,8,10,5,1,0
1470344227252649,0,-3,3,-8,-9,-11,-4,-1
1470344227253651,2,-11,-3,-3,4,-1,2,-2
1470344227253651,-4,7,-2,10,1,6,3,0
1470344227267168,2,1,3,-4,5,-4,-2,0
1470344227267168,-4,-3,-5,0,1,1,2,-3
1470344227273674,1,0,2,5,-4,-4,-5,1
1470344227273674,-3,0,-1,-3,4,-1,0,2
1470344227289636,-1,-3,-4,1,-6,5,-2,0
1470344227289636,0,-6,9,-8,-7,-3,1,-5
1470344227291639,0,6,-14,3,3,-5,-4,2
1470344227291639,1,2,1,4,11,14,-2,-1
1470344227312657,2,-9,-2,-7,6,2,0,-4
1470344227312657,-3,8,-6,2,0,-2,-3,1
1470344227313657,-1,-3,-3,-3,-3,-2,-1,-2
1470344227313657,-3,-2,0,-2,-9,-12,-3,-1
1470344227326671,1,-1,2,4,2,10,0,0
1470344227326671,2,0,-10,-5,-2,-3,-3,-2
1470344227333678,0,-1,3,-6,0,2,-2,-1
1470344227333678,2,-10,6,3,-7,-6,-2,-2
1470344227349695,-4,8,-14,0,3,-5,3,0
1470344227349695,-3,-7,11,-5,3,3,-1,-3
1470344227351693,-1,-11,8,-14,-12,0,-1,-4
1470344227351693,-3,13,-16,6,0,-3,-1,0
1470344227372775,1,-3,-7,-1,-5,-3,-1,3
1470344227372775,-4,-5,10,0,2,-4,-2,-3
1470344227374246,-2,5,8,10,3,-1,-3,1
1470344227374246,2,-12,-12,-13,-1,1,1,-3
1470344227386661,-1,-1,5,5,-2,-4,-2,-2
1470344227386661,-1,2,-9,1,-6,2,-2,1
1470344227393677,-1,7,-5,7,7,0,3,0
1470344227393677,1,-4,4,-1,-1,1,-3,-2
1470344227409663,-11,-11,5,-21,-13,-7,-4,-5
1470344227409663,0,4,-11,5,8,1,1,0
1470344227411667,0,-5,5,3,1,0,0,-1
1470344227411667,0,-3,6,-5,-1,5,-1,-1
1470344227432683,-2,6,-8,7,-4,-6,-4,-1
1470344227432683,-2,-1,10,-1,2,-4,2,-2
1470344227433684,-3,-3,-25,-13,-7,0,-5,-5
1470344227433684,-1,1,11,-3,-5,-1,0,0
1470344227446696,-2,9,2,10,17,5,1,3
1470344227446696,-3,-3,-4,-5,-7,-1,-2,-3
1470344227453716,3,-11,4,-1,-4,-1,0,-1
1470344227453716,-4,3,-6,0,4,-2,0,1
1470344227470237,1,-3,8,3,-6,-3,0,-1
1470344227470237,1,-5,8,0,2,2,0,1
1470344227471736,-3,8,-12,-1,2,4,-2,0
1470344227471736,2,2,4,2,-1,-6,0,-1
1470344227492759,-8,-6,5,0,-6,-2,0,-1
1470344227492759,2,1,-2,-4,-3,-3,-2,0
1470344227493759,-6,-1,2,-2,4,1,-2,-1
1470344227493759,-1,2,10,6,1,1,3,1
1470344227505769,5,-7,-6,-11,-7,-2,-2,-4
1470344227505769,-2,6,-25,5,0,-3,0,-1
1470344227514780,-4,-11,8,-2,-3,-3,0,0
1470344227514780,-2,-2,-15,-12,0,6,-1,-3
1470344227529791,-1,-2,8,2,-2,-4,0,-3
1470344227529791,-1,-1,1,-1,-1,-1,-2,1
1470344227531808,4,6,0,-1,0,1,-1,-2
1470344227531808,-2,-6,-5,-3,-4,-4,-4,0
1470344227552811,2,2,-4,3,0,-1,0,-2
1470344227552811,-3,1,-11,-3,-4,-1,-2,-4
1470344227553815,0,-1,7,4,-2,-3,-1,1
1470344227553815,-5,4,-5,10,7,3,1,-2
1470344227566334,-2,-3,-1,-6,-10,-6,-1,2
1470344227566334,0,-1,2,-1,4,4,-5,0
1470344227575341,-1,-2,-6,-5,3,7,0,-1
1470344227575341,-2,-1,-2,3,-5,-17,0,-1
1470344227590858,2,-2,-3,-13,-1,8,1,0
1470344227590858,0,-4,4,2,1,-7,1,-3
1470344227595864,-3,-3,-2,4,-5,-5,-2,-2
1470344227595864,0,-6,-1,-5,-1,3,-5,-1
1470344227612877,-2,1,0,4,-1,-2,-1,1
1470344227612877,-2,-1,1,-5,-6,-1,-2,0
1470344227613878,-2,1,2,-5,5,4,0,-1
1470344227613878,-1,-2,1,5,-8,-7,1,-1
1470344227625889,2,0,3,0,14,15,-3,-3
1470344227625889,0,2,-4,0,5,3,2,-2
1470344227634897,0,1,4,5,-6,-6,-2,0
1470344227634897,4,-4,-4,-5,4,-2,4,-2
1470344227649910,-3,3,2,0,-3,-3,-2,-3
1470344227649910,-2,0,5,8,-2,-4,-1,-1
1470344227651913,4,-4,-3,-4,2,1,0,-2
1470344227651913,-1,-6,-3,-1,-4,3,-1,-1
1470344227672937,2,5,-2,3,-2,-5,-1,0
1470344227672937,-2,-6,-7,-7,2,0,-1,2
1470344227674439,-8,-6,4,-3,-8,-1,-2,-2
1470344227674439,-3,-2,1,-9,-1,-1,-2,-1
1470344227685955,0,3,4,7,2,0,1,0
1470344227685955,0,-3,3,-4,-13,-2,-1,-1
1470344227694964,2,-1,-2,0,4,2,0,0
1470344227694964,-2,2,1,-3,-3,1,-1,-3
1470344227709977,2,-1,-2,-4,-1,-7,1,0
1470344227709977,2,-1,3,2,4,7,-1,-2
1470344227711979,-1,1,-2,0,-10,-8,0,-1
1470344227711979,1,4,-6,-1,25,15,1,2
1470344227732998,-4,-11,4,3,-10,-8,-4,-2
1470344227732998,-7,-3,-2,-4,-4,-4,-1,0
1470344227733999,3,1,-3,3,-3,-1,-1,1
1470344227733999,1,-1,-1,-5,-6,-6,-3,-3
1470344227746009,-1,-2,-3,-1,1,0,0,-1
1470344227746009,3,-5,-9,-3,-1,0,-2,-1
1470344227755018,-1,3,3,4,5,1,-1,1
1470344227755018,-3,-4,1,-4,-7,-7,-3,-3
1470344227770550,1,-1,0,-1,2,10,-1,0
1470344227770550,0,0,-4,5,-5,-5,1,-2
1470344227772052,2,-5,5,-6,-1,0,0,0
1470344227772052,-3,-1,-3,0,-4,-2,-2,0
1470344227792078,-3,3,-6,-4,-4,-2,0,-1
1470344227792078,4,-5,4,-5,-2,-2,-2,-1
1470344227794077,-8,-2,-4,-4,-7,0,-2,-3
1470344227794077,-3,2,-7,3,22,7,0,2
1470344227806088,1,-2,3,-2,-6,-7,-1,0
1470344227806088,-3,-1,3,0,-6,-6,1,-2
1470344227815097,2,-1,-3,-2,2,-1,-1,-3
1470344227815097,-2,0,8,3,1,0,0,-1
1470344227830119,-1,-11,-6,-5,-16,-4,0,-3
1470344227830119,2,-1,-2,6,4,0,-3,-1
1470344227831114,-1,10,1,5,2,0,-1,-1
1470344227831114,0,-5,2,-4,-8,-2,-1,0
1470344227852130,0,1,-5,-3,3,-2,0,-1
1470344227852130,-3,0,-5,2,-2,-2,-2,-1
1470344227854132,-2,-5,-1,-6,-1,0,-2,-1
1470344227854132,1,0,-2,0,-7,-1,-2,-3
1470344227866143,-5,1,0,-1,3,0,-1,2
1470344227866143,-2,1,-2,-4,-1,-5,0,0
1470344227875156,2,0,1,1,1,-1,-1,2
1470344227875156,-4,1,-4,0,-5,-1,1,-3
1470344227890671,1,2,-1,3,2,-1,0,1
1470344227890671,-1,-1,5,-3,-1,0,-2,-1
1470344227891671,-1,0,-8,-7,1,-1,-1,0
1470344227891671,-4,-1,1,2,-7,-2,-2,2
1470344227912689,2,-2,-1,-2,-1,0,1,-2
1470344227912689,-6,-2,-4,0,-1,2,-2,0
1470344227914191,4,-5,2,2,-2,-2,-1,-3
1470344227914191,-1,1,2,1,-3,-2,1,-1
1470344227926201,-2,-5,-14,-13,-2,-3,0,-2
1470344227926201,0,4,5,-3,1,0,-1,2
1470344227935216,-2,-2,-13,3,6,0,2,-2
1470344227935216,1,0,3,-8,-8,1,-2,-2
1470344227950229,-3,3,11,18,3,2,-1,-1
1470344227950229,1,-2,-4,-1,1,-1,1,0
1470344227951230,1,-3,7,-8,-6,-3,-3,1
1470344227951230,3,8,-6,7,2,-2,3,3
1470344227972249,-4,-6,-10,-5,1,2,-1,-3
1470344227972249,1,-2,11,-3,-1,-1,-3,-5
1470344227974251,-1,5,0,6,3,2,1,-1
1470344227974251,4,0,-1,-2,0,-2,0,-2
1470344227986262,-1,0,-5,1,0,-2,-1,-1
1470344227986262,-1,2,1,1,-1,-1,-2,0
1470344227995269,0,-8,-2,-1,-1,0,-1,-1
1470344227995269,-1,1,-5,1,-1,-3,-2,-2
1470344228010284,3,-5,5,1,-4,-1,0,-2
1470344228010284,1,1,-7,-9,0,0,0,2
1470344228011284,-3,-2,-10,-3,-4,-2,-1,-2
1470344228011284,-3,-10,5,-1,-3,-4,-3,-2
1470344228032311,0,2,0,1,-1,-1,0,-2
1470344228032311,-2,-3,-6,-5,-2,-2,-3,0
1470344228034319,-1,-9,-5,2,-3,-2,-1,-2
1470344228034319,-5,-1,-2,-6,-3,-1,-1,-3
1470344228046329,-3,6,-3,1,0,-1,-2,-3
1470344228046329,-2,-1,2,5,1,1,1,-1
1470344228055336,-4,-5,4,-3,-4,-1,-2,-2
1470344228055336,-3,-2,-1,6,3,-3,0,-2
1470344228069350,0,-4,-3,1,0,-2,-2,-1
1470344228069350,1,-4,2,-4,-4,0,2,-6
1470344228076356,-1,5,5,1,0,-1,-1,-2
1470344228076356,-3,-5,-5,-4,-4,0,-4,1
1470344228092370,-1,-11,-4,0,-1,0,0,1
1470344228092370,-1,3,3,3,-3,-3,-3,1
1470344228094372,-2,-5,-4,-7,3,1,2,2
1470344228094372,0,-8,0,9,-4,-3,-2,-2
1470344228106383,1,0,1,-10,-3,-3,-2,3
1470344228106383,1,-1,-21,-4,-1,-1,1,0
1470344228115390,-2,-1,15,8,0,-2,-1,-3
1470344228115390,3,-4,-10,-12,-1,-1,-1,1
1470344228129410,0,4,2,7,3,-1,1,-1
1470344228129410,-1,-6,0,-2,0,0,1,-1
1470344228136421,-1,10,-7,-3,-1,0,-1,-1
1470344228136421,2,-1,3,-1,-3,-2,-2,-2
1470344228152434,-1,3,11,3,0,0,-3,-2
1470344228152434,-2,-14,-4,-3,-1,-2,-1,-2
1470344228154437,0,-6,-2,-3,-5,-3,-2,-3
1470344228154437,-4,1,0,2,0,-1,2,0
1470344228175455,2,8,-11,-7,-3,-1,-2,-2
1470344228175455,-3,2,8,2,-1,3,0,-2
1470344228176456,-2,-3,-1,-2,0,-3,-1,-1
1470344228176456,-1,1,7,5,0,-2,-1,-3
1470344228190468,-2,-2,-7,-1,2,-1,1,1
1470344228190468,-2,0,7,-4,-4,-2,-1,-1
1470344228191470,-2,2,-8,0,0,-2,-1,-1
1470344228191470,-1,2,-4,-5,1,1,-2,0
1470344228212488,-7,0,5,-7,-6,-2,-5,0
1470344228212488,-6,-5,-5,0,0,-2,1,-1
1470344228214490,1,2,6,8,2,0,-3,1
1470344228214490,0,1,0,-4,-2,1,1,3
1470344228235518,-1,-3,-5,0,-4,-3,1,-1
1470344228235518,0,-2,-2,0,-2,0,-2,0
1470344228236519,0,-1,-10,-9,-3,-2,-1,-2
1470344228236519,0,2,6,5,2,0,-1,-4
1470344228249531,0,-7,2,-2,-1,-1,-2,-2
1470344228249531,4,9,-5,-3,2,-1,3,0
1470344228251534,-7,-16,-4,0,-4,-1,-2,-2
1470344228251534,3,3,-3,-4,1,1,1,-1
1470344228272550,-1,-1,1,-3,-2,-1,-1,0
1470344228272550,2,0,9,9,-2,1,-1,2
1470344228274553,-1,0,-3,-3,1,1,0,0
1470344228274553,-3,0,-6,-2,0,-4,0,-1
1470344228294570,2,-2,-1,7,-2,-1,2,1
1470344228294570,0,-3,-2,-1,2,0,0,-4
1470344228296572,1,5,-4,-1,0,0,1,1
1470344228296572,-2,-3,-2,3,-2,1,-3,0
1470344228309585,3,1,2,-7,2,1,0,-1
1470344228309585,0,0,-9,3,-2,-1,1,-1
1470344228316590,1,0,11,-1,-2,-1,0,-1
1470344228316590,-2,-6,-3,-4,-6,-2,-2,-1
1470344228332610,-1,1,-1,-2,1,0,-2,-1
1470344228332610,-2,1,2,2,-1,0,-1,-1
1470344228333617,3,-1,3,-6,-3,-1,-2,-1
1470344228333617,-1,-6,-6,2,-2,-1,-1,2
1470344228354636,2,2,0,4,0,-2,1,-3
1470344228354636,-2,1,-2,1,0,-1,-1,-1
1470344228356637,-2,-5,-1,2,-1,-2,1,0
1470344228356637,-2,0,6,-10,-3,-4,-2,1
1470344228369649,0,-5,-8,-2,0,-1,0,-2
1470344228369649,-8,3,0,-5,-5,-1,-3,-3
1470344228375654,1,2,-11,11,1,-1,0,2
1470344228375654,0,-5,-2,-3,-2,0,2,-2
1470344228392669,-3,-8,-2,-7,-2,-3,-2,0
1470344228392669,4,3,1,-4,-1,-2,-2,-2
1470344228393674,-3,-2,4,-5,-4,-2,-1,-4
1470344228393674,-2,2,-14,11,-1,-2,-2,-2
1470344228414688,-1,-2,-1,-2,-4,1,-1,-1
1470344228414688,0,-7,3,-1,1,-2,-1,1
1470344228416691,-3,0,-1,-4,-1,-1,2,-2
1470344228416691,1,-5,5,-8,-1,-1,-1,0
1470344228429708,-1,3,0,5,0,-1,-2,0
1470344228429708,-3,-5,-1,-3,-2,-2,-2,-1
1470344228435717,5,6,8,9,-1,-1,-2,-1
1470344228435717,-2,1,-1,2,1,0,1,-1
1470344228452733,3,-4,-8,-2,1,2,0,-3
1470344228452733,-3,1,3,-5,3,0,-2,-1
1470344228453734,2,-3,-6,-7,-4,-1,0,-1
1470344228453734,-4,-5,-7,-1,-1,-2,-1,-2
1470344228474754,-4,1,8,5,-1,-2,-1,0
1470344228474754,3,-4,-4,-7,-3,-3,-1,-2
1470344228476755,1,-1,3,1,1,2,0,0
1470344228476755,-2,-1,-5,6,0,0,-2,-1
1470344228489765,-1,-5,-3,-16,0,0,-1,1
1470344228489765,-4,7,2,11,0,-1,-3,0
1470344228496772,-1,-1,-9,-6,2,-1,0,2
1470344228496772,3,-3,6,1,0,1,-1,-3
1470344228512786,-3,-1,-7,4,-6,-3,-1,-3
1470344228512786,0,-1,5,-1,0,1,1,2
1470344228513787,-2,-3,-5,-2,-1,-1,-1,1
1470344228513787,0,-2,0,-8,-2,-1,0,-2
1470344228535484,0,5,-2,2,3,-1,0,4
1470344228535484,3,-5,-12,-3,-4,-3,-2,1
1470344228536485,1,-3,2,-3,-3,-2,-4,-3
1470344228536485,-3,1,-1,-2,-1,0,0,-1
1470344228549497,1,-2,3,2,-2,0,-1,1
1470344228549497,-1,-2,-3,1,0,0,2,-4
1470344228556503,0,-1,2,-3,-3,-1,-2,0
1470344228556503,-1,2,5,-6,-1,0,1,2
1470344228571517,-3,1,-13,10,-2,-3,-1,-3
1470344228571517,-1,16,10,-7,-6,-4,-1,0
1470344228580524,1,-4,-2,5,4,-1,-1,-1
1470344228580524,0,2,3,-5,-2,-3,-2,-3
1470344228594538,-3,-4,9,-4,-3,0,-2,-1
1470344228594538,1,-11,-6,0,-2,-1,-1,0
1470344228596540,-4,3,-2,-2,-4,0,0,-2
1470344228596540,-1,4,-3,2,1,0,-2,-1
1470344228609551,2,-1,2,1,0,-3,0,0
1470344228609551,-3,-4,-3,2,0,-1,0,-3
1470344228616557,-2,0,1,3,2,0,-3,1
1470344228616557,-1,-3,-6,1,-2,1,-1,-1
1470344228632576,-5,-7,-2,0,-1,-1,0,-1
1470344228632576,1,5,4,-2,-1,1,1,1
1470344228633649,1,-3,3,2,-1,0,0,-2
1470344228633649,-1,1,0,9,1,-1,-1,-1
1470344228654670,-3,4,11,-6,-2,-1,0,0
1470344228654670,1,1,-15,5,1,1,0,3
1470344228656670,-3,-1,10,-6,-3,1,-3,-4
1470344228656670,-1,0,3,3,-1,-2,-2,0
1470344228668680,-2,-1,-2,2,-1,-1,-2,-3
1470344228668680,0,-11,-15,-7,-1,0,-2,0
1470344228678693,-2,-3,-1,2,-1,-2,-1,0
1470344228678693,1,-1,0,-7,-3,-1,-1,1
1470344228692702,2,-1,0,1,0,-2,-1,1
1470344228692702,-2,0,1,2,0,3,-1,-1
1470344228694706,-2,-4,-11,-4,-3,-3,-1,-3
1470344228694706,-2,-5,-1,-3,0,-1,-1,-1
1470344228714724,-1,3,1,2,0,-2,-2,-1
1470344228714724,1,-1,-2,-10,-2,-1,-2,-2
1470344228716724,-1,-3,-5,-2,-5,-1,0,-1
1470344228716724,3,-1,5,0,-1,0,-1,-3
1470344228728742,-1,1,-4,-2,-2,-1,-1,-1
1470344228728742,-2,-3,7,1,-1,-1,-1,-1
1470344228737251,-2,1,0,-2,0,-1,-2,0
1470344228737251,-2,-10,-1,3,0,-1,0,0
1470344228752266,-1,-3,-3,-3,0,-1,-1,-1
1470344228752266,1,0,5,1,2,-1,-1,-2
1470344228754267,2,-6,-3,0,-3,-2,0,-2
1470344228754267,-3,1,-7,-4,-1,-2,-2,0
1470344228775286,-1,3,2,3,0,2,1,0
1470344228775286,-4,-6,-1,1,-3,-2,-2,-4
1470344228776287,-3,-1,-2,-5,0,-2,-1,0
1470344228776287,1,-2,1,-1,-2,-2,0,-1
1470344228788297,4,-6,-4,-10,-4,-1,0,-2
1470344228788297,-2,2,3,5,-5,0,-2,-1
1470344228797305,1,-1,-7,1,0,0,-1,-2
1470344228797305,0,3,0,-3,1,-3,-2,-3
1470344228812319,-1,-2,-4,1,-2,0,-1,-1
1470344228812319,-2,-1,5,3,3,0,0,2
1470344228814321,0,1,8,1,1,-1,0,1
1470344228814321,0,-7,-3,-5,-4,0,-2,-2
1470344228834945,-2,-4,-7,-1,1,1,-1,-3
1470344228834945,-2,-4,4,2,-1,-4,-3,-1
1470344228836948,1,2,2,0,-2,0,1,0
1470344228836948,-3,1,-3,-4,0,-2,-2,-3
1470344228848963,-2,2,4,5,2,-1,-3,3
1470344228848963,-2,-3,-4,-5,0,0,-2,-3
1470344228857967,-1,-3,-4,-2,0,-5,-1,-1
1470344228857967,0,-3,9,-2,-6,-2,1,-2
1470344228871980,-3,-1,-9,-3,0,-2,-3,-5
1470344228871980,1,-7,-3,1,-2,-2,1,1
1470344228873980,-2,6,1,0,-1,-1,-2,1
1470344228873980,0,4,-4,2,1,-2,-1,-3
1470344228895001,-2,-6,0,-6,-2,1,-1,1
1470344228895001,-3,-2,-1,0,-1,1,-3,0
1470344228897005,0,-5,2,-3,-1,-2,-1,-2
1470344228897005,0,1,0,-1,-2,1,1,2
1470344228909012,1,0,-4,0,-1,-2,-2,-2
1470344228909012,-2,1,0,0,0,-2,-2,-3
1470344228918021,-2,-2,-7,-3,0,0,-2,0
1470344228918021,-5,-2,-4,-4,1,-2,-2,-3
1470344228932539,2,-2,-4,0,0,-3,0,-1
1470344228932539,2,2,-2,-6,0,-3,0,2
1470344228934289,-2,1,4,-1,-4,0,-1,-4
1470344228934289,-3,5,-8,2,1,-1,-1,2
1470344228955307,0,-7,-7,-5,-3,0,-2,2
1470344228955307,3,2,3,1,-1,0,3,-2
1470344228956308,1,3,-1,-2,0,1,-1,-3
1470344228956308,0,-1,2,1,-1,0,0,-1
1470344228968320,-6,0,2,2,-4,-2,0,-5
1470344228968320,-2,-6,-4,-3,-2,-2,-2,1
1470344228977327,-2,-3,1,3,-3,-1,0,0
1470344228977327,0,2,0,-6,-1,0,-2,-1
1470344228992342,0,-2,-3,-2,-1,-3,-3,-1
1470344228992342,-2,0,-3,0,1,0,0,0
1470344228994343,-4,-4,0,-4,-3,0,-1,0
1470344228994343,-1,-4,7,2,-2,-2,0,-2
1470344229015362,-1,3,0,2,-4,0,-1,0
1470344229015362,0,3,0,0,1,-1,-2,0
1470344229016362,0,-3,-7,1,-1,-2,-2,0
1470344229016362,1,-1,-9,-1,-4,-2,0,-2
1470344229028880,0,1,4,-1,2,0,0,-1
1470344229028880,-1,-6,-8,-3,-4,-2,-2,0
1470344229037389,-2,-3,6,0,0,1,-3,0
1470344229037389,0,1,-7,1,0,0,-1,2
1470344229052403,0,2,8,3,-1,-1,1,0
1470344229052403,-2,-4,-5,-2,-1,-1,-1,-3
1470344229054406,0,3,1,1,-1,-3,-1,-1
1470344229054406,-4,-1,4,-5,-1,0,0,-1
1470344229075423,4,7,0,2,0,1,-1,1
1470344229075423,-1,-4,-6,-8,-2,-4,-1,-1
1470344229076425,-2,0,-7,-1,0,-2,0,1
1470344229076425,-3,-2,-10,-2,-1,-2,-2,0
1470344229097445,-1,-3,2,-4,-2,-3,0,-2
1470344229097445,1,7,3,1,-1,1,-1,-3
1470344229099446,2,-1,-1,-1,2,-2,-2,0
1470344229099446,-2,-8,3,-2,-3,-3,-2,0
1470344229112460,-1,-1,-4,-5,-3,-1,-2,-1
1470344229112460,2,-1,-2,0,-3,0,1,-2
1470344229114461,0,5,-2,1,2,0,1,-1
1470344229114461,2,-4,3,0,-3,0,-2,-1
1470344229135492,-2,0,1,-3,0,0,2,-3
1470344229135492,-5,-2,7,3,-1,0,0,-1
1470344229136493,2,-4,-2,-3,-2,-1,-1,1
1470344229136493,-1,1,-2,1,0,-3,-3,-4
1470344229157511,-1,-2,0,-6,-3,-2,-2,-2
1470344229157511,-3,-8,-3,2,-4,-3,-3,0
1470344229159513,-4,-3,3,-3,0,0,-1,1
1470344229159513,1,0,-3,2,1,-2,0,2
1470344229172524,-2,-1,-3,-3,0,1,1,-2
1470344229172524,1,6,7,0,-1,-1,0,-2
1470344229174526,-3,-9,-4,-4,-3,0,-1,-2
1470344229174526,0,-3,-6,1,0,0,0,-3
1470344229202552,0,-4,-7,-3,-3,-4,-3,-1
1470344229202552,0,-1,0,0,2,1,0,0
1470344229203553,2,0,2,-1,-4,-2,-1,-2
1470344229203553,3,-4,2,-4,-4,-1,0,-1
1470344229217566,-2,-2,0,2,-1,1,1,0
1470344229217566,-4,-1,-3,-3,-1,-4,-2,-1
1470344229219073,-1,0,-1,5,2,0,-2,-1
1470344229219073,1,-8,0,-3,-1,0,-2,-2
1470344229232585,1,6,-2,1,0,0,-1,0
1470344229232585,-2,-1,5,1,0,-1,-2,1
1470344229233586,-2,1,-5,-6,-2,-1,-1,-3
1470344229233586,-2,-2,-8,4,-1,-2,-2,1
1470344229254625,0,-7,6,-5,1,0,-1,2
1470344229254625,0,1,4,-2,-1,-1,-1,-1
1470344229256612,-2,-4,-8,1,-3,-2,-1,-1
1470344229256612,0,1,11,-2,-3,-1,-2,-4
1470344229277633,-3,-9,-6,-4,0,-2,-3,-1
1470344229277633,-1,-4,-6,-4,-3,0,-1,-2
1470344229278634,-1,1,1,-5,0,2,-1,-2
1470344229278634,-2,1,2,4,0,-2,0,-2
1470344229291659,-5,-1,2,0,-4,-3,-2,0
1470344229291659,-1,-1,-1,1,-1,-1,0,-2
1470344229298651,1,-4,0,3,1,-2,0,1
1470344229298651,-1,1,4,-3,-1,1,-2,-2
1470344229314667,0,3,-2,1,1,0,1,-2
1470344229314667,-1,-2,-1,2,-3,-2,-1,-1
1470344229316667,1,-2,2,-5,-4,-1,-1,-3
1470344229316667,-4,0,0,0,-3,0,-1,-2
1470344229337300,1,1,-5,3,1,-3,-1,1
1470344229337300,-1,-4,-6,-3,2,0,0,0
1470344229339302,1,11,9,2,-3,-1,-2,2
1470344229339302,5,7,-8,-6,3,0,0,1
1470344229352314,-5,-8,-1,8,-2,-3,-1,-3
1470344229352314,1,2,3,-3,0,0,-1,1
1470344229358319,-3,-2,-3,1,-1,-1,0,-1
1470344229358319,-1,-3,-3,-6,0,-1,-1,-1
1470344229375335,1,-2,-3,-8,-5,1,-2,-2
1470344229375335,-2,3,0,-1,-2,-1,-2,-2
1470344229376336,-1,-2,-3,1,-1,-2,1,-3
1470344229376336,-1,-3,0,0,0,-2,-2,0
1470344229397355,0,-1,4,-6,-1,0,0,-3
1470344229397355,-2,-3,-1,0,0,-2,-1,-2
1470344229399357,2,-5,-12,-4,0,1,-2,-1
1470344229399357,-4,-5,1,1,-2,-2,0,-1
1470344229411367,0,1,3,5,-2,1,0,0
1470344229411367,0,3,-4,-1,-1,-1,0,0
1470344229426385,-4,-2,-7,0,2,-2,-1,-2
1470344229426385,-2,-3,-6,-4,0,-1,0,-1
1470344229435897,-3,1,-4,-3,0,-1,-1,-4
1470344229435897,1,4,1,3,-2,-2,-1,2
1470344229436899,1,-4,3,-3,-5,-2,-1,1
1470344229436899,-5,1,-8,-1,-2,-3,-1,-1
1470344229457918,1,-1,-6,-7,-1,0,1,2
1470344229457918,0,-3,-2,-1,-4,1,-1,-1
1470344229458919,-4,2,0,0,3,-2,-2,-1
1470344229458919,2,1,5,-1,-3,3,-1,0
1470344229471932,2,-3,4,-2,-1,1,-1,-3
1470344229471932,-1,-5,-2,4,-1,-3,0,-3
1470344229478938,-2,-5,-1,-4,0,0,0,1
1470344229478938,0,7,-2,1,-2,-2,-1,-1
1470344229494954,-1,-4,0,-4,-5,-3,-3,-5
1470344229494954,-1,-2,-10,3,1,0,1,-1
1470344229496954,-2,-5,8,-10,-3,-3,-1,0
1470344229496954,1,-4,9,9,-2,0,-2,-1
1470344229517972,-2,-1,-4,0,1,0,1,0
1470344229517972,-1,-4,-4,-3,0,0,-1,-2
1470344229519483,1,3,8,2,0,0,2,-2
1470344229519483,-1,-1,1,2,0,-2,-1,2
1470344229531993,-2,1,2,4,0,-1,-1,3
1470344229531993,1,-1,2,-3,-2,-2,-2,-1
1470344229539005,2,-2,-3,-1,-1,-2,-1,0
1470344229539005,-1,-3,1,-6,0,-1,0,-5
1470344229555021,-2,5,-2,1,2,-1,-2,-1
1470344229555021,-1,-5,3,-4,-1,2,2,-2
1470344229557022,1,2,-5,2,-1,-2,0,1
1470344229557022,-9,-1,-1,-6,-4,-2,1,1
1470344229585046,2,8,-1,1,1,-4,-2,-2
1470344229585046,0,3,-5,-8,-3,0,-3,-3
1470344229587048,-1,-5,1,0,-2,-2,-2,-1
1470344229587048,0,-4,6,-3,2,0,0,0
1470344229592052,-1,-7,-2,7,-3,0,-1,-1
1470344229592052,0,1,2,-3,-1,-4,-1,0
1470344229599059,1,-2,1,1,-1,0,0,-3
1470344229599059,4,-4,-9,-6,-3,-1,-3,-2
1470344229615073,-3,0,3,3,0,-1,-2,2
1470344229615073,-1,-5,6,6,1,-2,-2,-1
1470344229617075,1,-4,-5,-1,-2,-2,-1,-2
1470344229617075,-1,0,1,-2,-3,-2,-1,0
1470344229637746,-1,0,-5,-7,-3,0,0,-1
1470344229637746,-4,-3,-2,3,1,-1,-2,0
1470344229638747,-4,3,2,-1,-1,1,1,3
1470344229638747,-1,0,-13,-6,-1,1,0,-2
1470344229650759,-1,0,7,0,2,-1,0,0
1470344229650759,-1,-2,-7,-6,-5,-1,-1,0
1470344229659765,-2,2,-5,-1,-2,0,-3,-1
1470344229659765,1,-1,-1,1,-1,-2,-2,-2
1470344229674778,1,-1,-2,-6,-3,0,-2,-2
1470344229674778,0,1,-7,-6,2,1,0,-2
1470344229676781,-1,-4,-1,0,-4,-2,-2,-1
1470344229676781,-2,0,-2,-1,0,-1,2,2
1470344229697799,-1,-6,3,-2,1,-1,-1,-1
1470344229697799,5,7,-4,3,-2,-4,-1,0
1470344229698801,-2,-5,-6,-2,-4,0,0,-2
1470344229698801,-2,0,1,1,-1,-2,-2,-1
1470344229710812,-2,-2,-2,2,1,0,-2,-6
1470344229710812,0,2,2,-1,0,0,1,3
1470344229720328,-2,2,3,-2,0,0,1,-4
1470344229720328,0,-3,0,0,0,1,-4,1
1470344229735345,-5,0,4,-3,-3,-2,3,-3
1470344229735345,-3,-8,3,1,1,-1,-4,-5
1470344229736346,-1,2,2,5,-1,0,1,-2
1470344229736346,0,-2,-5,-4,1,-1,-1,3
1470344229757366,-1,2,0,5,0,0,3,0
1470344229757366,0,-5,-1,-4,-6,-1,-3,-3
1470344229759366,0,0,4,4,0,-1,2,-3
1470344229759366,-6,-2,-4,-1,0,-1,-1,-1
1470344229771380,0,2,2,-3,-4,-4,-1,-2
1470344229771380,1,-1,-7,-3,0,-1,2,-1
1470344229781389,-2,-2,-6,-2,1,-2,-3,-1
1470344229781389,1,6,3,2,2,1,0,0
1470344229795398,1,0,-6,6,-3,1,-3,2
1470344229795398,-4,-1,3,-6,-2,-1,-1,0
1470344229796400,2,5,8,5,1,-1,-3,-2
1470344229796400,0,-6,0,-10,0,2,1,0
1470344229817419,-3,0,-2,24,0,-2,-2,3
1470344229817419,-2,3,0,-19,-1,-2,-1,0
1470344229819424,-2,-5,-1,-2,0,-1,-1,4
1470344229819424,0,-1,5,0,-6,-1,-1,-3
1470344229831435,1,-3,1,-5,2,-1,-2,-2
1470344229831435,-1,6,-1,7,-2,-2,0,-1
1470344229840447,-1,-3,-3,-3,-2,-1,-2,-4
1470344229840447,3,0,5,2,-2,-2,-1,1
1470344229854461,0,1,-3,-13,-2,-4,-2,-1
1470344229854461,-2,-5,0,5,-3,1,-2,-3
1470344229861467,-3,1,-6,-2,-1,-2,-1,0
1470344229861467,4,1,-1,3,1,-2,-3,-2
1470344229877480,-1,-1,-3,-7,-4,-1,-2,-1
1470344229877480,-2,-3,-11,1,-1,-1,-1,1
1470344229879483,0,-1,7,1,-2,-1,-1,1
1470344229879483,-2,-3,-3,5,-3,1,0,-3
1470344229891492,0,0,0,-3,0,0,0,-3
1470344229891492,0,-2,0,4,1,-1,1,-2
1470344229900501,-1,-6,-5,-7,-1,-2,-2,2
1470344229900501,-4,-2,-6,-10,-5,-2,0,-2
1470344229914514,-1,5,9,7,1,-2,-3,-2
1470344229914514,-1,-2,-2,3,-1,0,0,-2
1470344229916517,-4,0,1,-7,-5,-1,-1,-2
1470344229916517,-1,1,-5,1,1,0,-1,1
1470344229937544,-1,-4,-1,-5,0,0,-1,0
1470344229937544,0,-2,2,7,1,-2,-1,0
1470344229939545,3,-2,1,-4,-1,-1,0,-1
1470344229939545,-3,-3,-3,-4,-4,-2,-1,-1
1470344229951557,-2,-5,0,4,0,-1,0,-1
1470344229951557,2,-2,-6,-9,-6,-2,-3,-1
1470344229960566,-3,-7,-4,-3,0,1,-2,-2
1470344229960566,1,1,2,4,-2,-3,0,0
1470344229974579,-5,-5,-1,-8,-5,1,0,0
1470344229974579,2,4,4,6,0,-1,2,2
1470344229976580,2,0,0,-3,-1,-2,-1,-2
1470344229976580,-2,2,1,5,1,1,-2,-2
1470344229997598,1,-6,-9,-9,1,-1,1,0
1470344229997598,-5,5,8,2,-1,-2,-3,1
1470344229998599,0,4,-6,2,1,2,1,-2
1470344229998599,4,-3,4,2,-2,-2,-1,-1
1470344230011610,-3,-3,-6,-10,1,0,0,0
1470344230011610,1,4,8,6,1,-2,-1,-3
1470344230020622,-4,-7,0,-9,-3,-2,-2,-3
1470344230020622,-5,-2,-1,9,0,1,0,0
1470344230034638,-2,6,4,-8,-6,-1,-2,-4
1470344230034638,0,-6,-4,-5,3,2,2,0
1470344230036640,0,2,0,13,-2,1,-1,0
1470344230036640,1,9,5,-2,0,-1,2,3
1470344230057659,-3,0,-11,0,-2,-1,-2,0
1470344230057659,-4,-10,6,4,-3,-4,-3,-4
1470344230058660,4,1,1,-9,-1,-3,-1,0
1470344230058660,-2,3,2,0,0,2,-1,-3
1470344230079679,-9,-4,9,3,-6,-4,-2,-3
1470344230079679,4,8,-13,4,6,3,0,4
1470344230086684,1,-5,-2,3,0,-2,-3,-12
1470344230086684,-4,6,10,5,-3,-2,-1,4
1470344230094692,5,-4,-15,-2,0,1,-2,3
1470344230094692,-3,-12,8,-1,-4,-1,0,-1
1470344230096694,-3,4,-9,6,2,0,2,-3
1470344230096694,4,-6,-1,-9,-3,-2,0,0
1470344230117714,3,7,4,8,1,-1,1,0
1470344230117714,-1,1,-5,-5,1,-3,0,1
1470344230119221,1,-5,7,2,-5,0,-2,1
1470344230119221,-4,-2,3,-12,0,-2,-1,-3
1470344230139743,1,1,-7,8,-3,-1,1,0
1470344230139743,-2,-4,1,-4,-2,0,-2,-1
1470344230141745,-3,4,-7,0,-1,-2,-2,2
1470344230141745,-1,-4,-8,-5,-2,-2,-3,-2
1470344230154757,-2,-3,5,4,3,1,0,0
1470344230154757,0,1,7,-8,-3,-2,-2,-2
1470344230160762,-3,-6,-12,-3,0,1,-1,-1
1470344230160762,1,-2,-1,-4,0,1,-1,1
1470344230177778,2,-8,-5,-1,-4,-1,-1,1
1470344230177778,0,-5,-6,5,-5,-5,-1,-4
1470344230178779,-5,5,2,-3,-3,-2,1,0
1470344230178779,-4,-5,-9,-4,-4,-1,-3,-2
1470344230199798,0,-3,4,0,-1,-3,-2,-2
1470344230199798,2,-1,-6,1,2,1,-1,-2
1470344230201799,-2,0,-3,-9,-10,-5,-3,-2
1470344230201799,0,-2,0,7,7,2,-1,-2
1470344230214811,1,-6,-5,-16,-7,-3,-2,-1
1470344230214811,-5,-6,0,3,2,1,-2,-2
1470344230221322,2,2,10,14,-3,-4,-3,1
1470344230221322,-3,-2,-17,-9,8,-1,0,-2
1470344230237841,0,1,8,12,-1,0,0,2
1470344230237841,-4,1,13,-3,-5,-7,-3,-2
1470344230238842,-3,-3,-4,-7,-2,0,-1,0
1470344230238842,1,-4,-2,0,-7,-4,-2,0
1470344230259862,-2,3,-5,-7,4,-1,-1,-4
1470344230259862,0,-4,-3,-7,-3,1,1,0
1470344230261864,-4,-4,-5,-4,1,1,-2,-2
1470344230261864,4,4,6,9,-2,-4,-3,-2
1470344230274876,-3,-1,-4,-7,1,0,0,-4
1470344230274876,1,3,-4,-5,-1,-1,3,1
1470344230280881,2,1,6,-2,3,-1,1,1
1470344230280881,2,-9,3,0,-5,2,-2,-3
1470344230296895,-2,-1,6,6,0,-2,-2,-2
1470344230296895,2,-1,-11,-11,-1,-1,-3,-3
1470344230303901,1,6,17,5,5,0,0,3
1470344230303901,-4,-2,0,-3,-3,-4,5,-4
1470344230320420,1,0,8,-4,-2,-2,-10,-2
1470344230320420,1,1,-4,3,-2,0,0,-1
1470344230321921,-1,-6,-7,-8,-1,-1,1,0
1470344230321921,-4,2,0,8,2,1,-4,-2
1470344230334432,0,1,-4,0,0,-3,2,-2
1470344230334432,0,-2,5,-1,-2,1,-1,-2
1470344230340943,-7,-4,-3,-1,-1,0,-4,0
1470344230340943,-4,-3,-1,-3,-3,-3,2,-4
1470344230357959,-2,0,-3,7,3,1,0,0
1470344230357959,-2,-7,-8,-3,-3,-3,-11,-3
1470344230358965,4,2,-3,1,0,0,3,-2
1470344230358965,-1,1,-10,2,-1,0,-2,0
1470344230379979,1,-5,8,-9,-3,-3,-2,-2
1470344230379979,-2,6,-16,1,1,2,2,0
1470344230381981,2,-3,0,5,-3,-1,-1,0
1470344230381981,-3,-6,1,-9,0,0,-1,-2
1470344230393992,-3,6,-1,2,0,1,2,0
1470344230393992,2,-6,3,-4,1,-3,-2,0
1470344230401000,-3,3,-1,-4,1,0,1,1
1470344230401000,3,1,10,-1,-2,0,-3,-2
1470344230417013,4,-4,-22,-3,-2,-1,1,-1
1470344230417013,-3,4,4,-2,-3,-2,-1,-1
1470344230419521,1,-3,-3,-3,-1,-4,-2,-3
1470344230419521,-1,1,-1,4,-3,-3,4,2
1470344230440046,-2,-6,-1,-6,3,2,-5,0
1470344230440046,0,-2,4,-6,-5,-1,0,-2
1470344230442048,1,-1,-7,9,1,0,-1,0
1470344230442048,-2,-6,-3,-7,-5,-3,-3,-2
1470344230454059,1,6,4,5,-1,-1,1,-2
1470344230454059,-12,-5,-4,-2,-2,-1,-2,-2
1470344230461065,4,4,-3,-2,0,-2,-1,-2
1470344230461065,0,-1,0,-1,2,2,0,4
1470344230477079,3,0,-3,-4,-5,-1,0,2
1470344230477079,-4,3,6,8,1,0,0,-2
1470344230479082,-1,-8,3,-3,-3,0,-2,-3
1470344230479082,0,-3,-3,-3,-3,-2,-5,-4
1470344230500100,-3,3,-4,-1,0,-1,1,-2
1470344230500100,3,-2,-3,1,1,1,0,2
1470344230501101,-4,-10,-8,-5,-1,-3,-3,0
1470344230501101,-3,0,5,-2,-2,1,-2,-3
1470344230514112,-3,-5,2,3,-2,-2,0,-2
1470344230514112,0,4,4,4,-1,-2,1,1
1470344230521625,-2,-5,-4,-2,-1,-1,-3,-5
1470344230521625,-1,-4,-4,-3,1,0,0,2
1470344230537145,-2,-2,3,3,-2,-2,0,-2
1470344230537145,3,-4,-5,-9,-4,-2,-2,-4
1470344230539147,0,-2,-2,2,-2,-2,-2,1
1470344230539147,-3,3,2,-6,0,0,-2,1
1470344230560167,2,-2,3,1,-1,0,-1,1
1470344230560167,-2,-2,-13,1,0,-1,0,0
1470344230561167,-3,2,7,-2,-3,-1,0,1
1470344230561167,-4,5,-7,-2,-1,-2,-2,-1
1470344230574178,1,-2,-1,-1,-3,-1,-3,-3
1470344230574178,3,4,2,-2,-2,0,1,-2
1470344230583187,-9,-1,-3,-6,-2,-1,-1,-3
1470344230583187,4,-3,4,8,-3,-2,-2,-2
1470344230597200,2,5,-1,1,1,0,0,4
1470344230597200,-3,-6,-10,-4,-2,-2,-2,-2
1470344230599201,1,1,4,1,0,-2,-2,-1
1470344230599201,2,-1,-2,0,-2,-2,-1,-2
1470344230620227,-1,-7,0,3,-1,-2,-1,-1
1470344230620227,3,5,9,4,2,1,-2,-1
1470344230621728,-11,-7,7,-8,-4,-2,-2,-2
1470344230621728,0,-11,-3,7,-3,-4,-2,-2
1470344230634240,-2,10,8,-4,-1,2,0,0
1470344230634240,2,2,-6,7,2,3,-2,1
1470344230643254,-1,7,-2,-3,-2,-3,0,0
1470344230643254,1,-6,5,6,-1,1,0,0
1470344230657266,-4,-4,2,-3,-4,-2,-2,-2
1470344230657266,-3,-1,5,2,2,-1,-1,-2
1470344230659268,4,3,-7,1,-1,-2,0,-2
1470344230659268,-3,2,-3,-8,1,-2,0,0
1470344230680287,3,-3,6,5,1,-1,1,-1
1470344230680287,-3,-2,-16,-8,-5,-5,-3,0
1470344230681287,2,-6,15,7,3,1,0,1
1470344230681287,2,-3,-11,-8,-3,-1,-2,-2
1470344230693299,-1,4,5,0,0,0,1,-1
1470344230693299,-3,-5,5,-1,-5,-1,-1,-1
1470344230702307,2,-4,-10,3,1,0,-3,-1
1470344230702307,-3,-1,-13,-7,-3,-2,0,0
1470344230718321,-6,-6,-2,4,0,-4,-3,-4
1470344230718321,2,1,-11,-17,-3,-3,-1,1
1470344230719829,-1,-4,3,16,6,4,1,-3
1470344230719829,-2,3,-2,-6,1,0,-1,-2
1470344230740350,-1,-3,-11,9,1,-1,-2,0
1470344230740350,-3,-3,6,-2,-6,-2,-1,-4
1470344230741351,2,-4,-11,-10,-2,-1,-3,-2
1470344230741351,0,4,1,6,1,2,2,0
1470344230753362,-1,-6,-10,-13,-6,-1,-2,1
1470344230753362,0,-5,18,7,0,-1,0,0
1470344230762370,1,1,-10,-4,-2,-2,-2,0
1470344230762370,-4,-5,-4,-5,-1,-2,1,-1
1470344230777382,-1,-2,-2,-14,-2,-3,2,-3
1470344230777382,-1,-3,6,3,-1,1,-10,-2
1470344230779386,1,2,-3,-4,0,-4,-1,1
1470344230779386,-1,-1,4,3,-4,-2,-4,1
1470344230800403,-1,-13,-5,-5,1,-1,-5,-2
1470344230800403,0,7,-7,-3,0,-3,4,3
1470344230801404,0,-7,3,0,-3,3,2,-6
1470344230801404,-2,-4,-5,-4,-3,1,4,-2
1470344230822931,2,8,9,0,-2,-3,-3,-2
1470344230822931,-3,-7,1,8,2,0,4,-1
1470344230824431,2,-4,-2,-3,-5,-3,-4,2
1470344230824431,-3,10,9,5,3,-1,0,0
1470344230837450,-6,-7,-8,-4,2,1,0,0
1470344230837450,4,-2,4,0,-1,0,-2,-2
1470344230839453,-2,7,-2,0,-1,-2,2,0
1470344230839453,0,-7,3,-3,0,-1,-2,-4
1470344230860471,3,0,1,6,-3,-1,-1,1
1470344230860471,-9,4,-2,-11,-1,-1,3,-3
1470344230861474,-3,-10,1,6,1,0,-11,1
1470344230861474,-1,14,5,0,-1,-3,-2,1
1470344230873482,0,-4,-16,7,-4,-2,-3,-5
1470344230873482,-2,0,2,3,-1,-1,3,-1
1470344230882490,0,1,0,-8,0,0,2,-2
1470344230882490,-5,-3,-5,0,-2,-1,-4,-2
1470344230897504,-3,1,2,-4,0,0,-2,1
1470344230897504,0,-5,-5,-3,0,-1,-2,0
1470344230899508,-3,9,7,1,-1,-1,-4,0
1470344230899508,1,-4,-6,1,0,2,-1,3
1470344230920028,-1,-1,5,-6,-2,-1,1,1
1470344230920028,-6,-3,-5,6,0,0,1,-2
1470344230922031,1,-2,0,-4,-1,-1,1,0
1470344230922031,-1,-2,7,0,-1,0,-1,-1
1470344230934041,2,1,-12,-2,1,-2,-3,-6
1470344230934041,-1,-8,0,-6,-2,-1,-4,1
1470344230942555,-1,2,4,-1,-1,-1,-2,-1
1470344230942555,-3,-3,-2,1,-2,-1,0,0
1470344230957568,-3,3,-3,5,0,0,0,1
1470344230957568,4,1,4,2,3,2,-3,-1
1470344230959570,-1,1,-6,-5,-2,2,4,-1
1470344230959570,0,0,3,-2,0,-1,-1,-3
1470344230979588,-2,-8,7,-2,-4,-2,-2,-3
1470344230979588,-1,0,-4,2,0,-4,-2,0
1470344230981590,0,-4,-1,3,-1,-1,0,0
1470344230981590,0,-2,-1,-1,-2,-2,-1,-3
1470344231001608,-1,1,6,-3,-3,-2,0,0
1470344231001608,2,6,-1,1,-1,-1,-4,-1
1470344231002608,-5,-5,-3,-5,-2,-4,-1,-3
1470344231002608,1,-5,-5,-5,-2,-2,-2,-3
1470344231016620,2,5,-8,-3,1,-1,2,-2
1470344231016620,0,-12,1,-6,-2,-1,-2,1
1470344231017621,0,5,5,-2,-2,-1,-1,-1
1470344231017621,-1,-5,-9,1,-1,1,3,-1
1470344231039651,-1,-1,1,1,1,-1,-2,3
1470344231039651,-5,-4,-2,-2,-4,0,3,-2
1470344231039651,-1,-2,-3,-1,-1,-3,2,-3
1470344231039651,-2,-2,-1,3,-2,1,-3,2
1470344231061672,-1,-8,4,-7,-5,0,0,-2
1470344231061672,0,4,-9,2,-1,-2,-2,-2
1470344231062673,0,3,5,-3,0,3,3,0
1470344231062673,0,-4,-5,-6,3,-2,-2,-3
1470344231076684,1,-4,-1,8,2,-1,-1,2
1470344231076684,-1,-2,2,-1,-2,0,0,0
1470344231077686,-3,1,-1,-1,-4,-3,-5,-1
1470344231077686,0,-5,-4,-4,-3,-2,-1,1
1470344231099707,-4,5,8,-1,1,-1,-3,0
1470344231099707,-1,1,1,4,-2,1,1,-3
1470344231099707,0,-6,-4,-6,-2,-2,-2,-1
1470344231099707,-1,-8,4,1,-2,-2,-4,-1
1470344231122234,-3,4,-9,-5,-2,0,0,0
1470344231122234,2,-1,-2,1,-1,-1,-4,2
1470344231122736,-6,-5,-8,1,-2,1,0,-3
1470344231122736,-1,2,6,2,-1,-2,-1,-2
1470344231136753,1,-1,-6,-3,-5,3,-2,-2
1470344231136753,0,-8,3,-4,-2,-1,-2,-2
1470344231137755,0,5,-2,-1,1,0,2,-2
1470344231137755,-1,-3,-6,-2,-1,-1,-3,-1
1470344231159774,-1,-4,4,-3,0,-1,0,-1
1470344231159774,-4,6,-3,0,0,-3,-1,-3
1470344231159774,1,-7,-4,3,-3,-2,-2,-3
1470344231159774,0,3,3,-2,-1,0,1,0
1470344231181797,-1,-1,-1,1,-1,-1,-1,-2
1470344231181797,-3,-2,3,-1,1,2,0,0
1470344231182796,-1,-6,-8,-3,1,-3,-3,-1
1470344231182796,1,-8,4,-1,-2,-2,0,-1
1470344231195812,-5,-2,-8,-2,-3,-2,-1,-3
1470344231195812,-3,4,2,1,0,0,-2,-1
1470344231204816,-4,-1,4,-1,0,1,-1,0
1470344231204816,-1,3,-3,3,-1,-2,-4,0
1470344231219829,0,-2,-7,-5,-2,-3,0,-1
1470344231219829,-1,-1,1,0,-2,-2,-2,-2
1470344231220335,-1,7,8,4,4,0,0,0
1470344231220335,0,7,0,-1,0,-2,3,-1
1470344231241860,-3,-2,1,-3,4,1,-2,0
1470344231241860,2,-2,-2,-7,0,-2,1,1
1470344231242861,-1,0,3,3,-1,1,-3,-4
1470344231242861,-2,4,-1,-1,0,0,-3,-2
1470344231256874,2,-4,3,0,-2,-2,2,-4
1470344231256874,-1,0,-7,-1,-1,-2,0,-2
1470344231257878,-1,-3,-3,-2,-4,-2,0,0
1470344231257878,-3,-6,3,1,-1,-1,-1,-3
1470344231280896,-4,2,-2,-2,1,-1,-1,-2
1470344231280896,-2,-3,-1,1,0,-1,-2,-2
1470344231280896,-1,0,-5,4,2,-2,0,1
1470344231280896,-6,-2,-8,-5,-3,1,0,-2
1470344231301915,-3,0,2,5,-2,0,-2,3
1470344231301915,-1,-1,2,-3,1,-1,-1,-4
1470344231302916,0,-3,0,-2,-4,-2,-3,-2
1470344231302916,1,1,-4,-6,-1,0,1,2
1470344231316928,-2,-4,1,-2,-3,-1,-3,-3
1470344231316928,1,1,-2,-4,-3,1,0,-1
1470344231317929,-2,-3,-1,0,0,-1,-3,0
1470344231317929,3,-8,-1,0,1,1,-1,-2
1470344231338958,-2,3,3,0,5,1,-1,-2
1470344231338958,-4,-6,4,7,-1,0,-2,1
1470344231339957,-2,0,-1,3,-1,-1,0,1
1470344231339957,0,5,-1,-11,0,-2,-1,0
1470344231361977,0,-3,3,1,-4,-2,-1,-2
1470344231361977,-1,2,-2,1,1,0,1,2
1470344231362979,1,0,1,-2,2,0,-2,-3
1470344231362979,1,-10,2,4,0,-2,-1,2
1470344231376991,2,2,-5,0,-2,-1,-2,-2
1470344231376991,-2,-2,-4,-7,-1,-1,-2,-2
1470344231377991,0,7,-10,5,-3,-2,-1,0
1470344231377991,-3,-10,-4,-6,-5,-4,-2,-3
1470344231399011,-3,-3,-1,-7,-5,-3,0,1
1470344231399011,-2,-3,-12,-2,-1,-2,-1,2
1470344231400011,1,-3,0,-2,-1,1,-2,-2
1470344231400011,-2,7,7,-4,3,0,1,1
1470344231422036,0,-3,-3,4,-3,-1,0,-1
1470344231422036,0,-7,-3,-2,-1,0,-1,-4
1470344231423037,-1,-1,7,-6,-2,-3,-2,0
1470344231423037,-3,0,-5,6,1,-1,-2,0
1470344231437057,0,4,3,2,2,-1,-1,0
1470344231437057,-1,-2,-1,-4,-1,-1,1,-2
1470344231438058,-2,-6,-3,3,0,1,-1,-1
1470344231438058,-1,0,0,-1,-3,0,-2,-2
1470344231459077,-2,-4,2,-4,-2,-3,-1,0
1470344231459077,0,3,1,6,-3,-1,2,-3
1470344231460077,-5,-3,-2,-4,0,-3,1,1
1470344231460077,-2,0,2,1,-3,0,-2,-3
1470344231482096,-1,3,9,1,2,1,1,2
1470344231482096,-3,-5,1,1,-4,-2,-4,-1
1470344231482096,-2,2,-2,-7,-4,-1,0,2
1470344231482096,0,-2,5,0,2,0,-2,-1
1470344231497111,1,-1,-6,-1,-1,0,-2,-1
1470344231497111,-1,0,9,3,2,0,0,-1
1470344231497111,-1,-2,-3,-4,-2,-1,1,-1
1470344231497111,-6,-2,-6,-2,0,0,-1,-1
1470344231519131,-1,0,3,6,-2,-2,-2,-2
1470344231519131,0,-2,-8,-16,-2,-2,-1,3
1470344231520130,1,-1,5,0,-3,-2,-1,-3
1470344231520130,-1,1,-4,5,-2,-1,1,-4
1470344231542163,-3,-1,-3,-3,-2,-2,-1,-1
1470344231542163,3,-1,4,4,-2,-1,-3,1
1470344231542163,3,4,-2,-6,2,0,-3,-1
1470344231542163,1,2,0,7,1,0,-1,-2
1470344231556174,-3,-5,-7,-13,-2,1,-2,-1
1470344231556174,1,4,6,8,-1,-3,0,-2
1470344231564179,-3,-5,-8,-5,-1,-3,-1,-1
1470344231564179,-1,8,-7,-9,-6,0,-2,-2
1470344231579194,-3,-4,-9,1,0,1,1,-1
1470344231579194,-2,3,2,0,-3,-2,0,-3
1470344231580194,1,-4,2,-2,0,-1,0,2
1470344231580194,0,2,4,-2,1,1,1,0
1470344231602214,1,1,-1,-1,-3,-4,-3,-4
1470344231602214,-10,4,-4,-4,0,-2,-3,-1
1470344231602214,0,-4,2,2,-2,-2,-2,-4
1470344231602214,-1,-2,-1,6,1,0,0,0
1470344231616227,-1,-1,0,2,1,2,-2,2
1470344231616227,2,0,-6,1,-2,-1,-3,0
1470344231624739,-2,0,1,2,1,1,0,-1
1470344231624739,-4,-3,-5,-8,-4,-3,-2,-3
1470344231639258,-1,-1,2,5,5,2,-1,-1
1470344231639258,-2,0,1,0,-2,0,2,2
1470344231640261,0,-3,-1,6,-1,-2,-1,-1
1470344231640261,1,-1,-1,-1,-3,-3,-2,0
1470344231662279,-2,-2,0,-1,-3,-2,1,0
1470344231662279,2,6,-1,5,0,0,-2,-3
1470344231662279,1,-1,0,-3,2,-1,-1,0
1470344231662279,-2,1,0,-3,0,0,-2,1
1470344231676291,-3,-14,-2,3,0,0,-1,-2
1470344231676291,1,7,1,-6,-1,1,-1,0
1470344231684298,-3,3,6,6,-2,-1,0,-4
1470344231684298,1,0,-4,-2,1,-2,0,-3
1470344231699312,-3,1,-2,-7,-2,0,-1,2
1470344231699312,-2,-4,-1,1,-2,0,1,0
1470344231700314,-3,-4,2,-5,-2,0,-3,-4
1470344231700314,-2,-10,3,8,1,-1,0,0
1470344231722341,1,13,5,-1,-3,-3,-1,-5
1470344231722341,4,-8,2,-14,-3,-2,-1,0
1470344231722843,-1,3,-9,-1,1,1,1,2
1470344231722843,-1,-2,3,1,-3,-1,1,-1
1470344231736354,-1,-2,2,1,-4,-1,-1,2
1470344231736354,-2,-2,-3,2,-1,-3,-3,-2
1470344231744368,-1,0,-2,-6,-4,-2,-2,-2
1470344231744368,-1,2,-3,-2,-2,-1,0,-1
1470344231759384,0,-1,-1,-1,-1,-2,-2,-1
1470344231759384,-2,-2,-2,-3,1,0,-1,-1
1470344231760383,-2,-2,-1,1,-1,-1,0,0
1470344231760383,-1,-4,-1,-5,0,0,-2,-3
1470344231781401,-4,1,-7,-3,-2,-2,0,0
1470344231781401,1,-2,-2,-4,0,-1,0,-4
1470344231782402,-1,-10,-5,-2,-4,-2,-3,-4
1470344231782402,-2,2,9,6,0,0,1,-1
1470344231796415,0,6,-5,-2,1,3,0,3
1470344231796415,-3,1,0,0,0,-1,-1,1
1470344231804424,-3,-3,-5,-2,-3,-2,2,-2
1470344231804424,0,1,0,-5,-2,-1,-2,-2
1470344231819436,-2,-7,-4,2,3,-2,-1,-2
1470344231819436,0,-3,0,-4,-2,-2,0,-2
1470344231820437,-2,6,2,0,0,0,0,1
1470344231820437,-3,-2,2,4,1,-2,-1,1
1470344231841465,3,-4,-5,-4,-4,-4,-2,0
1470344231841465,0,0,-5,2,-3,0,1,-3
1470344231842466,0,1,-4,0,1,0,-1,2
1470344231842466,-3,2,-7,-3,-2,1,2,-2
1470344231856479,-3,-1,0,-3,-1,0,1,-2
1470344231856479,2,-6,0,-6,1,0,-1,-1
1470344231864485,-3,1,-1,4,0,0,0,-1
1470344231864485,-2,1,-2,-2,-4,-3,-2,0
1470344231879500,-1,3,-2,4,2,-2,-2,-1
1470344231879500,-4,-5,-2,-1,-4,-3,-1,0
1470344231880500,3,0,4,-4,-2,1,-1,-2
1470344231880500,-1,-2,-4,-2,1,0,-1,1
1470344231901518,-1,-3,0,-1,-2,-2,-1,-5
1470344231901518,-2,1,0,0,-1,0,0,4
1470344231902519,-1,1,-2,-5,-1,0,-1,-2
1470344231902519,0,-6,1,3,-2,-2,0,-1
1470344231916532,1,12,0,-11,-2,1,1,-2
1470344231916532,-4,2,4,10,-5,-2,-3,-6
1470344231924545,1,-1,5,-1,1,-3,-1,1
1470344231924545,-2,-3,-5,-4,0,-2,-1,0
1470344231939565,0,-8,0,-3,-3,-1,1,-2
1470344231939565,0,3,0,-3,2,2,0,-2
1470344231940566,-3,-1,-3,-3,0,0,-1,-4
1470344231940566,1,-2,-4,2,3,-1,-3,0
1470344231961585,-5,-3,2,1,-6,-2,-3,-1
1470344231961585,0,-5,-4,-4,-4,-4,-1,-2
1470344231962587,-1,-2,-4,1,-1,-1,0,-2
1470344231962587,1,1,2,-2,2,0,0,-1
1470344231984604,1,-2,-4,2,3,-1,0,0
1470344231984604,-1,-5,-1,0,-4,-2,-2,3
1470344231985606,1,6,-2,-5,-1,-2,0,0
1470344231985606,-4,-5,1,6,-1,0,0,-1
1470344231999618,-1,2,1,1,-1,1,-3,0
1470344231999618,3,-3,-10,3,3,-1,1,0
1470344232000619,-1,-4,-1,-5,-3,0,-2,-1
1470344232000619,1,4,3,1,1,0,0,-1
1470344232022144,-3,-2,-16,3,-3,-3,-1,-1
1470344232022144,0,-2,9,1,2,-3,-3,-2
1470344232022644,1,1,-4,3,0,0,0,0
1470344232022644,-1,2,-1,0,-2,0,0,-2
1470344232044668,-1,-3,2,1,-2,-1,-1,1
1470344232044668,1,3,-2,5,1,2,0,0
1470344232045669,-1,-1,-1,-5,-3,-1,0,-1
1470344232045669,0,-4,-1,-5,-3,-1,-2,-2
1470344232059683,4,-3,7,-2,-3,0,-2,1
1470344232059683,-7,-3,-6,-7,-2,-3,-2,-3
1470344232059683,-1,1,7,5,1,-4,0,2
1470344232059683,1,-11,-10,-4,-4,-1,-4,-2
1470344232081701,-1,17,9,-3,3,2,-2,0
1470344232081701,-2,-5,-5,-2,-1,0,-1,2
1470344232082702,2,-3,2,-2,-1,-1,-1,-2
1470344232082702,-2,2,-2,2,-2,0,0,0
1470344232104722,-1,-4,0,0,-1,-3,0,-1
1470344232104722,1,0,3,-2,0,0,-1,-2
1470344232105723,-3,-2,-5,0,-1,0,-1,-2
1470344232105723,1,-1,0,-2,-2,-4,-1,0
1470344232119735,2,-6,-2,-1,-4,2,0,0
1470344232119735,-3,0,5,2,-1,-1,-1,-2
1470344232119735,-2,-12,-6,-1,0,-1,-1,-1
1470344232119735,-1,10,0,0,-3,-1,-3,-2
1470344232141766,-2,-8,-1,-5,-2,-3,0,-1
1470344232141766,1,3,-2,4,0,1,0,0
1470344232142767,0,-2,1,-3,0,-2,-1,1
1470344232142767,2,-2,4,2,-2,1,-1,-2
1470344232164789,2,-3,-3,-4,1,0,-3,0
1470344232164789,-2,6,-8,5,0,-3,-3,-2
1470344232165788,-2,-1,-2,-3,2,-1,-1,0
1470344232165788,-2,0,-2,-12,-3,-3,0,-1
1470344232179801,0,-3,-1,2,-3,-1,0,-6
1470344232179801,-1,-6,5,-5,-1,0,0,0
1470344232179801,0,-1,-3,0,-6,0,-4,-4
1470344232179801,-1,3,-3,-10,-2,0,-1,-1
1470344232201821,-2,-9,1,5,-2,-2,-1,-2
1470344232201821,-3,2,-6,-6,-2,-2,-1,0
1470344232202822,0,-2,2,0,-2,-1,-1,1
1470344232202822,0,-6,-1,-1,0,0,1,-4
1470344232225347,-4,-1,-1,-3,-1,-1,-3,-3
1470344232225347,3,-5,-1,-6,0,-1,-1,-3
1470344232225848,-1,3,2,5,1,0,1,-1
1470344232225848,-2,1,-3,2,1,-2,-1,1
1470344232239863,0,-4,3,2,0,-2,-3,-1
1470344232239863,-5,6,5,0,-2,-2,-1,5
1470344232239863,0,0,-6,-10,-4,-3,-1,-3
1470344232239863,-2,3,1,4,1,-1,-2,1
1470344232261884,-1,-5,-12,-1,-5,-3,2,-1
1470344232261884,0,2,-5,-7,-1,-1,0,-4
1470344232262886,-2,1,4,1,0,0,1,-3
1470344232262886,0,-4,4,-1,0,1,-2,0
1470344232284903,-3,2,-3,-2,1,-1,0,1
1470344232284903,-1,-5,0,4,-3,-3,-2,-2
1470344232285906,-3,-10,2,-1,-3,0,-3,-5
1470344232285906,1,0,-3,2,0,-1,0,0
1470344232298916,0,3,0,-5,-2,0,1,-4
1470344232298916,-2,-6,0,-1,0,2,0,-3
1470344232299917,-3,-1,1,4,0,-3,-2,-1
1470344232299917,-1,-1,-1,-2,-1,-3,-1,3
1470344232321944,-2,2,-4,0,-3,0,-1,-3
1470344232321944,0,-1,2,-7,0,2,-1,-2
1470344232322944,-1,0,-13,2,1,1,-1,-1
1470344232322944,0,0,1,2,-3,0,-1,-1
1470344232344969,-4,2,6,-2,-2,-3,-1,-4
1470344232344969,-1,0,-5,-1,-1,-3,1,1
1470344232345972,-1,0,-4,1,-1,-3,-1,2
1470344232345972,-3,-9,0,-2,-1,0,-2,-3
1470344232358982,-1,-2,-1,-2,1,-2,-1,0
1470344232358982,-1,-5,3,2,-2,-4,1,-1
1470344232359982,-2,3,-5,-2,1,-1,-1,-2
1470344232359982,-1,3,-3,-4,-1,-1,0,-1
1470344232382003,-1,-4,1,0,-1,0,-1,0
1470344232382003,-1,-1,-7,-1,-1,0,0,-4
1470344232383003,1,-6,10,-2,-3,-2,-1,1
1470344232383003,-5,7,-1,3,1,-2,-2,-1
1470344232405022,0,-1,-7,-3,2,-3,-2,-1
1470344232405022,2,0,-1,1,-4,-1,-2,-4
1470344232408027,3,-2,0,-3,0,-1,-1,2
1470344232408027,-4,-9,1,-3,-1,0,-2,-2
1470344232419035,4,8,-1,6,4,1,0,1
1470344232419035,0,-4,-4,-2,-5,0,-2,-2
1470344232420037,-3,1,-3,-6,-2,-1,0,0
1470344232420037,-4,-2,-3,1,-4,-1,1,-3
1470344232442072,1,-2,2,-9,0,-2,1,1
1470344232442072,-1,8,-6,2,1,1,-1,-1
1470344232443071,1,1,3,-2,-1,1,-1,-2
1470344232443071,2,0,0,2,1,-2,0,-1
1470344232465090,-2,6,2,-2,-2,-1,0,-1
1470344232465090,-2,0,6,5,-1,-2,-1,0
1470344232466092,-3,2,-3,-3,-1,1,-1,-2
1470344232466092,0,-3,-1,-1,-2,-1,-2,0
1470344232479104,-1,2,3,-2,0,-1,-1,-4
1470344232479104,-3,0,-1,3,0,-4,-3,1
1470344232487111,0,0,2,-3,3,-1,0,-3
1470344232487111,0,-1,-5,0,1,-1,0,1
1470344232502124,-3,-5,1,1,-3,-1,-1,0
1470344232502124,1,-7,1,-7,-3,1,-2,0
1470344232502124,-3,-3,-6,0,0,2,0,0
1470344232502124,1,-2,-1,-9,1,-2,-2,-3
1470344232532657,-2,-2,-5,0,0,1,0,-3
1470344232532657,0,-2,-6,-2,-2,0,-2,2
1470344232533658,-2,-2,4,4,-3,-3,-2,0
1470344232533658,-1,3,1,0,-2,-1,-3,-2
1470344232539165,0,-5,0,-8,-3,-3,-4,0
1470344232539165,0,1,0,-3,2,-2,-1,-3
1470344232547172,1,-1,2,2,-4,-1,-2,-3
1470344232547172,1,-1,-3,-3,-3,0,0,-2
1470344232562187,-4,-5,1,5,1,0,1,-1
1470344232562187,-2,2,-1,0,-3,-1,-1,-5
1470344232563187,2,1,-5,1,1,-1,-1,0
1470344232563187,1,-1,-3,-5,-4,0,-1,-1
1470344232585207,0,1,0,2,-1,0,-2,-2
1470344232585207,-3,0,4,-4,-3,-2,0,1
1470344232586207,-3,1,-1,2,-1,0,-1,-2
1470344232586207,2,-4,-4,-7,1,0,2,-2
1470344232599220,1,1,5,5,-1,0,-1,0
1470344232599220,-2,0,-6,-2,-1,-1,-1,-2
1470344232607227,-2,-2,4,1,0,-1,-2,-2
1470344232607227,-4,-5,2,6,-2,-2,0,-2
1470344232622249,1,-5,-3,-4,-3,0,0,-2
1470344232622249,-1,-2,3,-1,0,1,0,-3
1470344232622749,1,-5,-4,-2,-2,1,-1,1
1470344232622749,-1,-1,-2,2,1,1,-1,0
1470344232645274,-3,-1,-5,-6,-2,-4,-2,-1
1470344232645274,0,5,4,11,1,-3,0,-2
1470344232646276,-2,-9,-5,-10,-4,-2,0,-3
1470344232646276,0,-6,5,3,-4,-1,-2,-2
1470344232658287,-4,2,-5,-3,2,-1,-1,1
1470344232658287,0,-3,1,-8,-1,-2,-2,0
1470344232667294,1,0,0,1,-2,-1,-1,-3
1470344232667294,0,-3,3,-2,0,-1,-1,-4
1470344232682308,1,3,0,2,-3,1,-1,0
1470344232682308,0,-5,-8,-11,1,-3,0,0
1470344232682308,0,-7,0,5,-2,-1,-1,0
1470344232682308,-2,3,0,1,-1,-2,1,0
1470344232705328,0,-4,-7,-5,-2,-2,-3,-3
1470344232705328,-3,-3,6,-1,-3,-1,-2,3
1470344232706330,-2,7,-6,-3,-2,-1,0,1
1470344232706330,-1,1,6,0,-3,0,-1,1
1470344232718340,-4,-3,-1,5,0,-1,-1,-4
1470344232718340,1,0,-7,-3,-4,-1,-3,0
1470344232727354,-1,2,-2,-2,2,-3,0,-2
1470344232727354,0,-1,-5,3,0,0,-3,0
1470344232741372,0,-10,0,-4,-4,-1,-1,1
1470344232741372,-1,0,-6,-1,0,1,0,-1
1470344232742373,-2,9,6,3,-1,0,1,-3
1470344232742373,-1,-6,-3,-3,-4,-2,-2,-2
1470344232765394,2,3,3,-4,0,0,0,-1
1470344232765394,-2,0,1,6,3,-1,-1,1
1470344232765394,1,-3,-2,-10,-1,-2,-1,-1
1470344232765394,-3,2,-2,4,-2,-1,1,0
1470344232778406,-3,2,-4,-1,2,-1,-2,0
1470344232778406,1,-2,0,1,1,0,-1,3
1470344232787413,-4,-4,2,0,-3,0,-1,-2
1470344232787413,0,3,-4,1,-2,-2,0,-2
1470344232802427,0,0,-6,-1,0,0,2,-1
1470344232802427,1,2,-1,-2,-3,-1,-1,-3
1470344232802427,-3,-8,-6,-1,2,0,-2,2
1470344232802427,-3,-1,-5,-1,-1,-1,-1,-1
1470344232825453,-1,-2,3,2,-4,-1,-1,2
1470344232825453,-2,-6,-4,0,-3,-3,0,-6
1470344232825954,-1,3,1,-3,-1,-2,-1,0
1470344232825954,-4,2,-8,-4,1,0,-1,-1
1470344232838473,2,3,2,-5,-3,-1,-3,-1
1470344232838473,-4,2,3,3,0,-1,0,-1
1470344232847480,-1,-6,-3,-1,-6,-2,-1,0
1470344232847480,-2,-1,4,-3,2,-1,-2,0
1470344232861491,-2,-4,4,6,-1,-1,2,-2
1470344232861491,0,-2,-4,3,0,0,-1,0
1470344232862492,-1,-2,3,-2,-2,-1,-2,-2
1470344232862492,2,3,-1,-1,-2,-3,-2,1
1470344232885512,0,-3,0,0,-2,-3,-1,-1
1470344232885512,0,-2,1,2,1,-1,-1,-3
1470344232885512,0,-1,-7,-3,0,-1,-2,-1
1470344232885512,3,-3,1,-3,-2,0,0,1
1470344232907533,-1,2,-7,0,1,-1,0,-1
1470344232907533,-4,-9,2,-9,-2,-2,-1,-3
1470344232908534,-2,8,-3,0,2,-1,-1,-2
1470344232908534,-1,-8,6,3,-1,0,1,-1
1470344232922049,-1,-10,-7,-7,-4,-1,-1,-2
1470344232922049,0,1,-3,-2,0,1,-1,1
1470344232923051,-1,0,-1,-2,-3,-1,0,-2
1470344232923051,-3,4,-5,2,1,-1,-3,-2
1470344232945577,-4,0,4,0,-5,-1,-1,1
1470344232945577,-1,-2,-6,-4,-2,-1,0,-1
1470344232945577,0,7,-1,3,-3,-2,0,1
1470344232945577,-1,1,4,-5,-2,0,-2,-1
1470344232967598,0,3,-5,-2,0,-1,0,-1
1470344232967598,-2,-4,4,-1,-4,-1,-3,-4
1470344232968598,4,-1,8,0,0,-1,0,-1
1470344232968598,-6,-8,-18,-5,0,-2,2,1
1470344232981610,0,3,10,3,1,-1,-3,-3
1470344232981610,-3,2,-7,-5,-1,1,0,2
1470344232982610,0,-3,-1,0,-1,-1,-1,-3
1470344232982610,-1,-3,6,-2,-1,-2,-1,-3
1470344233004630,-3,-1,1,0,0,0,-1,1
1470344233004630,3,-1,-4,-10,-4,-2,-1,0
1470344233005632,-1,-3,-1,6,2,1,0,2
1470344233005632,1,0,3,-6,-2,-3,-1,-2
1470344233027657,0,-2,-1,3,-1,-2,0,-5
1470344233027657,-2,-12,-1,-4,-2,0,-1,-1
1470344233028658,0,2,-6,-6,-3,-1,-1,0
1470344233028658,1,-3,-4,2,0,-1,-2,1
1470344233041673,2,-5,4,-5,-3,-1,-3,-1
1470344233041673,-3,-5,-2,4,2,-1,-1,2
1470344233042674,-4,17,4,-2,0,1,-1,3
1470344233042674,0,-4,1,-1,-3,1,0,0
1470344233063695,1,0,-4,1,1,-2,0,-2
1470344233063695,-1,2,0,2,1,-1,0,0
1470344233071701,-2,-13,1,-4,-2,-3,-1,-4
1470344233071701,-4,6,3,5,3,1,-1,-1
1470344233087717,-1,0,-4,3,-2,-1,-1,0
1470344233087717,1,5,1,-4,-1,0,-1,-2
1470344233088716,-2,-3,1,12,-1,-3,-2,-2
1470344233088716,-1,-2,6,-4,0,-1,-1,-3
1470344233101728,-2,-10,-7,-6,-2,-2,0,-1
1470344233101728,0,2,6,4,-1,0,0,0
1470344233102728,-2,-3,-16,-5,-3,0,0,-3
1470344233102728,0,-2,1,1,-1,0,0,0
1470344233125252,-3,-5,2,-1,0,-1,-1,1
1470344233125252,-1,1,-4,-4,-1,-2,-1,-1
1470344233126254,3,-5,-4,-5,1,-1,0,-2
1470344233126254,1,-2,-8,-2,-2,-1,-2,0
1470344233147306,1,5,-1,0,-1,0,0,1
1470344233147306,-2,2,1,3,1,-2,-1,-1
1470344233148306,-1,-5,4,-1,-1,1,0,-1
1470344233148306,0,0,-8,-5,-3,-2,-2,-3
1470344233162321,-4,1,-3,-1,1,-1,0,-1
1470344233162321,1,-1,1,-1,0,-2,-3,-2
1470344233162321,1,-4,8,-1,0,-2,-2,-2
1470344233162321,-3,-1,-2,2,-1,1,0,-3
1470344233185339,-2,-8,-10,-5,-6,-2,-3,-3
1470344233185339,-2,3,2,-1,-2,0,0,-1
1470344233186341,-4,-2,0,-4,-1,-1,-2,-1
1470344233186341,-2,-11,-8,-6,-4,-2,-2,-2
1470344233207362,-1,4,-2,2,1,1,1,-2
1470344233207362,5,-8,-1,-5,-2,1,-1,0
1470344233209362,-10,-5,-3,-1,-2,-2,-1,0
1470344233209362,0,7,8,3,-1,1,-1,-1
1470344233221372,0,-5,1,-6,-3,-1,0,-3
1470344233221372,1,0,-7,4,0,-1,-1,2
1470344233230387,2,3,5,-7,-2,-3,-1,-2
1470344233230387,-1,-2,1,2,2,-1,-3,-2
1470344233244903,-4,-2,-1,0,1,-1,-1,-2
1470344233244903,0,0,-6,-1,-1,-1,-1,0
1470344233246906,-2,-1,-4,0,-5,0,-1,0
1470344233246906,-3,-5,3,1,-3,-3,0,-1
1470344233267924,2,5,-2,0,-3,-1,-1,1
1470344233267924,-2,-6,3,2,-3,-2,1,-2
1470344233268925,3,-4,-9,-1,0,0,-2,-1
1470344233268925,-2,7,-1,-5,1,0,1,1
1470344233280937,-1,-1,0,0,1,0,-2,2
1470344233280937,-2,-2,-3,2,-3,-2,-2,-4
1470344233289943,-5,0,-5,-2,2,0,-1,0
1470344233289943,-2,-4,5,9,-1,-1,1,-2
1470344233304956,0,1,-1,-10,0,-1,-2,-5
1470344233304956,-4,-2,11,0,-4,-3,-3,-3
1470344233306959,0,-2,-17,-1,-3,-2,-1,0
1470344233306959,1,2,0,-3,1,-2,-3,1
1470344233327982,2,-4,-1,-5,-4,-2,-4,-1
1470344233327982,-2,-2,-3,-3,1,-1,1,-2
1470344233329486,0,-2,7,1,-2,0,-1,-2
1470344233329486,-1,-3,-1,-4,-3,-1,-3,-2
1470344233341565,-1,1,4,4,-2,1,-1,-2
1470344233341565,-1,2,-9,-4,1,2,-1,-4
1470344233350575,3,-3,9,1,4,-3,0,0
1470344233350575,-2,0,-10,-7,-1,-1,-1,-1
1470344233365586,-3,0,6,1,-2,0,-2,2
1470344233365586,1,0,-4,0,-3,-2,-2,0
1470344233366589,1,-3,4,-2,-1,-1,-3,-2
1470344233366589,0,-2,0,0,-1,0,0,0
1470344233387606,-4,-4,-6,-1,-2,-4,-1,0
1470344233387606,-1,-2,3,-1,1,-1,-1,-1
1470344233389608,0,0,2,-11,0,0,-1,-1
1470344233389608,1,-4,1,12,0,-5,-1,-1
1470344233401619,0,7,-1,-3,-2,-2,-1,-1
1470344233401619,-3,-2,-1,0,-5,0,-2,-3
1470344233410627,-1,1,4,-3,-1,-1,0,-1
1470344233410627,0,2,-8,-2,-3,1,-2,-2
1470344233425144,-1,-3,4,-2,-2,-2,-2,-4
1470344233425144,-2,0,2,-4,-1,-1,2,0
1470344233427145,-1,-2,-7,2,-2,0,1,-3
1470344233427145,-3,-3,2,3,0,-3,1,3
1470344233447167,2,1,-3,-1,0,0,0,-3
1470344233447167,-1,-1,3,-3,-2,0,-2,-1
1470344233449172,-3,2,-5,6,0,-1,-1,-2
1470344233449172,1,-5,4,-9,-3,-1,-3,0
1470344233462181,0,-2,-3,3,-2,-1,0,-1
1470344233462181,-5,3,-1,-4,1,-2,-9,-1
1470344233470189,1,3,1,2,-4,0,8,2
1470344233470189,-2,-3,2,-3,1,2,1,-3
1470344233485202,-6,-3,-5,-3,-2,-1,-1,1
1470344233485202,4,-5,1,3,0,-2,1,-3
1470344233486205,0,-3,-7,-6,-4,-1,-5,0
1470344233486205,-5,5,1,-4,-1,-1,-2,-2
1470344233507221,-1,-1,-2,3,2,3,3,-1
1470344233507221,-1,0,-2,-1,-1,-3,-1,2
1470344233509224,-5,0,-4,1,1,-3,-1,-2
1470344233509224,-3,-2,0,-4,0,-1,2,1
1470344233521234,-1,1,-3,-2,-1,3,-1,0
1470344233521234,-2,0,1,8,-1,2,-1,-1
1470344233530247,1,-5,8,-3,0,-3,-2,0
1470344233530247,2,1,-4,-2,-4,1,-5,0
1470344233545264,1,2,-2,-1,1,0,0,-3
1470344233545264,-10,-5,1,4,-1,-1,2,-1
1470344233546265,1,1,-1,-3,0,1,-5,-3
1470344233546265,1,-1,-5,2,-3,-2,0,-2
1470344233567283,3,-7,3,-1,1,-3,-2,3
1470344233567283,1,-1,-13,-6,-3,2,6,0
1470344233569286,2,2,9,1,-3,-1,-2,-3
1470344233569286,1,0,-4,-3,0,-2,-3,-1
1470344233581296,2,3,-3,-4,-2,0,-1,0
1470344233581296,-2,-6,2,-2,-3,0,0,-1
1470344233590305,1,-2,-6,-1,1,-2,-3,1
1470344233590305,0,-4,-3,-1,0,1,0,-1
1470344233605319,-2,-1,3,2,2,0,0,1
1470344233605319,3,10,-1,-2,2,-2,-2,0
1470344233606319,-1,-6,-4,-2,-2,-3,-1,0
1470344233606319,-2,-2,-2,-3,0,-2,-1,-4
1470344233627844,-2,-6,1,3,-2,0,0,-1
1470344233627844,1,5,-1,1,2,1,-2,3
1470344233629345,0,-5,-3,-4,-2,1,-1,0
1470344233629345,-4,-5,-2,3,-2,-3,2,0
1470344233641362,-1,-3,-1,-4,0,-5,-8,-1
1470344233641362,1,-2,6,-2,-2,-1,3,-3
1470344233650368,0,3,3,3,0,-2,-1,1
1470344233650368,-2,-1,-2,-7,-1,0,0,2
1470344233665382,-1,-2,2,-3,-2,-1,1,-2
1470344233665382,0,-4,-8,-5,-4,0,0,-4
1470344233666382,-4,-5,4,6,-1,0,0,1
1470344233666382,0,-2,-3,-13,-2,-2,-3,-2
1470344233687402,-1,1,2,4,1,0,0,-1
1470344233687402,2,0,2,-2,0,0,-2,1
1470344233689404,-1,6,-5,0,0,-1,2,-3
1470344233689404,-3,5,1,4,1,-2,0,1
1470344233701415,3,-13,-6,1,-2,-1,0,0
1470344233701415,-2,-8,1,-6,-1,-1,-2,0
1470344233710422,-6,-4,4,-2,-5,-4,-5,-5
1470344233710422,3,14,0,3,2,2,0,1
1470344233725441,-9,0,4,-2,-4,-1,-2,-1
1470344233725441,0,-2,-3,4,0,-1,-5,-1
1470344233726942,0,-7,-2,-4,-1,-1,3,0
1470344233726942,-3,-2,-2,4,-4,-1,-1,-2
1470344233747466,1,10,4,4,0,-2,0,1
1470344233747466,1,-7,-4,-4,-4,-3,0,1
1470344233749468,0,-2,-1,-2,-1,-4,-11,0
1470344233749468,1,-7,1,-3,-2,2,9,-3
1470344233761479,2,0,-2,-7,-4,-3,-4,-3
1470344233761479,-5,0,-2,9,0,-1,1,1
1470344233770487,1,-1,-3,-8,-3,1,2,-3
1470344233770487,1,-2,1,7,0,-2,-2,-1
1470344233785500,-1,0,-4,-8,-1,1,-3,1
1470344233785500,1,2,0,-2,-3,-5,-1,-1
1470344233786501,-2,-1,-6,-1,-2,0,2,-2
1470344233786501,0,0,3,-2,-3,0,-4,-1
1470344233807520,-2,2,-1,3,3,-1,2,-2
1470344233807520,-1,1,1,-1,-4,-1,-4,-2
1470344233809523,-2,2,1,2,2,2,2,2
1470344233809523,0,-4,-8,-4,-1,-1,-4,-3
1470344233821532,1,-2,-5,0,-2,0,0,1
1470344233821532,-1,3,-3,-6,-1,0,1,0
1470344233830546,-1,-3,5,-2,1,1,0,1
1470344233830546,-1,-9,-4,-4,-3,-5,-5,-1
1470344233844566,-2,0,0,-5,-1,1,4,-4
1470344233844566,1,-3,1,5,0,-1,-1,-1
1470344233858585,1,2,-4,-1,-2,0,0,-1
1470344233858585,-2,-2,0,-3,0,-1,-2,-2
1470344233867587,-6,-5,-6,-7,0,-4,-4,-1
1470344233867587,0,-1,-5,0,2,1,1,-2
1470344233869589,0,-4,7,-2,-3,-1,-4,-1
1470344233869589,-4,-1,2,12,0,-1,3,0
1470344233890611,1,3,-3,-8,-2,-1,0,-2
1470344233890611,-4,-1,1,-11,-3,0,0,1
1470344233891609,2,-5,-3,11,-1,0,0,0
1470344233891609,-4,11,0,1,-1,1,-2,-1
1470344233904620,1,5,0,4,2,-1,-1,-1
1470344233904620,0,-2,-6,-3,-4,-5,-5,0
1470344233906622,0,5,-4,-7,0,0,1,-5
1470344233906622,5,1,-2,3,2,1,0,7
1470344233927655,-1,-9,0,2,-2,-3,-3,-10
1470344233927655,-2,1,-1,-3,2,4,-6,-1
1470344233929657,-1,3,0,8,-1,-7,-4,0
1470344233929657,6,-3,-3,-12,-3,-4,-8,-2
1470344233949680,-1,1,0,3,-1,2,8,10
1470344233949680,0,-6,2,-2,-3,-2,-4,-17
1470344233951684,-4,-5,-3,2,-3,-1,-2,2
1470344233951684,-8,-9,1,-6,-2,-2,-5,-4
1470344233964694,2,-2,-3,1,-2,-3,3,1
1470344233964694,3,1,7,7,0,0,6,3
1470344233966696,0,1,-4,-8,0,-1,-8,-4
1470344233966696,-3,-5,8,1,-3,-2,-2,0
1470344233987715,-2,0,8,12,2,0,-3,2
1470344233987715,-2,-12,-20,-6,-5,-2,4,-1
1470344233988717,-2,-1,2,-2,0,1,-3,-3
1470344233988717,0,-12,-2,-2,1,1,4,0
1470344234009734,3,15,15,1,-1,1,-1,-2
1470344234009734,-2,0,-1,1,-2,-4,-5,2
1470344234011737,2,-6,-3,-2,2,-3,3,3
1470344234011737,-5,1,-7,0,0,-1,0,-6
1470344234024760,4,-8,1,-3,-5,0,-4,6
1470344234024760,-1,6,-2,1,-3,-1,1,3
1470344234031764,0,6,7,4,-2,-2,1,-1
1470344234031764,1,0,5,-3,-1,-2,3,0
1470344234047810,-4,-3,-7,2,2,1,-2,-1
1470344234047810,0,3,3,2,0,-1,-2,4
1470344234048796,-1,-3,0,-10,-2,0,0,0
1470344234048796,1,1,-1,10,-1,-1,-4,0
1470344234069813,2,-3,-4,-4,-3,-4,-3,0
1470344234069813,-2,1,0,-1,0,0,-1,-1
1470344234071816,-3,-5,2,8,-3,0,2,1
1470344234071816,1,0,-12,3,0,0,-1,1
1470344234084840,-1,3,-4,-8,-3,1,-2,-4
1470344234084840,-2,-9,-6,-1,-2,-4,-1,-4
1470344234090833,2,1,4,3,3,-1,-2,0
1470344234090833,0,2,-3,-14,0,2,3,1
1470344234107852,-2,-3,-3,0,-2,-2,-3,-3
1470344234107852,-3,-5,5,-2,1,-2,0,1
1470344234108851,-1,-1,-7,-7,-6,0,0,-1
1470344234108851,1,-4,2,5,-1,-4,-3,-2
1470344234130377,-1,-3,3,-2,-4,-1,-1,-3
1470344234130377,3,-1,0,-2,-1,1,0,0
1470344234131875,-2,2,-7,2,1,-1,-3,1
1470344234131875,-3,1,3,3,-3,-2,4,-3
1470344234144898,0,-3,-9,-5,0,1,5,-3
1470344234144898,-3,6,5,4,-1,3,1,4
1470344234150903,4,-6,-1,-5,-2,-2,1,-2
1470344234150903,1,3,-1,-5,-2,-2,-9,-2
1470344234167919,-4,-1,-5,17,1,-7,1,3
1470344234167919,-3,-5,0,2,0,1,-10,1
1470344234168919,-2,-2,-3,-19,-6,1,-1,-5
1470344234168919,3,-6,4,-6,-1,-2,8,1
1470344234189952,-1,-2,-2,-1,-3,-3,-4,7
1470344234189952,2,-4,0,2,-1,2,-10,-1
1470344234191939,-4,0,-4,0,2,-2,-3,-5
1470344234191939,2,1,-3,0,-1,1,-4,-1
1470344234212958,0,-1,1,-5,-2,1,2,-1
1470344234212958,0,0,-3,-1,2,-2,3,-3
1470344234213959,-14,-8,-4,-2,-2,0,0,-2
1470344234213959,-3,0,-3,-1,-1,0,2,1
1470344234227976,-3,-4,5,-3,-2,-1,-7,-5
1470344234227976,3,10,-1,-4,0,-1,3,1
1470344234229478,2,-4,-7,7,1,-1,-1,-1
1470344234229478,-2,1,4,-1,1,-2,-2,-2
1470344234250000,-1,-3,-7,-2,2,1,-1,-5
1470344234250000,-3,4,3,-1,0,-1,0,-3
1470344234252002,1,-6,2,0,-4,-4,2,2
1470344234252002,0,2,-11,-2,1,-1,1,0
1470344234264011,2,0,-2,-5,-1,-1,-11,-5
1470344234264011,-4,-5,5,2,0,-1,2,-2
1470344234271017,0,15,1,5,1,-2,2,2
1470344234271017,-2,-1,-3,-6,-2,2,5,-1
1470344234288033,-5,-1,4,5,-1,1,-2,0
1470344234288033,2,-3,-2,-3,-3,-3,1,-1
1470344234289034,-4,0,-7,2,0,-1,-6,0
1470344234289034,1,0,4,-2,0,-1,-3,-2
1470344234310053,0,0,-11,-4,1,0,4,-2
1470344234310053,-1,-5,9,5,-2,-3,1,-3
1470344234312056,3,-1,0,-1,2,0,-2,-1
1470344234312056,-1,-4,-6,-3,-2,-3,-2,-2
1470344234325069,-2,-1,-1,1,-1,1,-2,0
1470344234325069,-6,3,-4,4,-2,0,0,-1
1470344234331576,1,3,0,1,0,0,0,-1
1470344234331576,-4,-5,-4,-3,-3,-4,-2,-4
1470344234347693,2,6,-1,3,1,-2,-1,3
1470344234347693,-1,-5,-3,2,-3,0,0,0
1470344234349696,-2,-5,3,-13,-2,-1,1,-1
1470344234349696,-2,1,3,7,0,3,-3,0
1470344234369714,-5,-7,-6,1,-1,0,3,-2
1470344234369714,-1,-4,2,0,0,-2,-1,-1
1470344234371716,3,0,-1,-5,-2,0,-2,-5
1470344234371716,1,-1,2,-5,-2,-2,2,1
1470344234383725,1,-3,1,-3,-3,-1,2,-1
1470344234383725,-1,2,-1,-7,-2,-2,-2,-1
1470344234392733,-1,-2,-2,0,-1,-1,1,0
1470344234392733,0,0,3,-1,-2,-1,-6,-2
1470344234407749,3,-1,-3,-2,0,0,1,-3
1470344234407749,0,-6,-10,-7,-2,0,-1,-1
1470344234409749,-1,1,8,2,-2,-4,2,-3
1470344234409749,-2,1,3,3,-1,0,-3,0
1470344234430274,-5,-1,-1,3,-1,-2,-1,1
1470344234430274,0,-2,-7,-25,-4,-4,-3,-4
1470344234432275,-1,-2,3,10,1,3,3,1
1470344234432275,-2,0,-3,-3,-2,0,-3,-1
1470344234444288,0,-2,4,-4,0,1,0,-1
1470344234444288,1,-1,-2,8,-1,-3,-2,1
1470344234452296,5,-5,1,-8,-3,-1,-1,-1
1470344234452296,-1,-1,-3,-1,-1,-2,-1,1
1470344234467311,3,-1,3,8,-3,-3,-6,-1
1470344234467311,1,2,-1,-18,-2,1,2,-1
1470344234469314,-3,-1,2,9,-2,1,-2,-2
1470344234469314,1,-5,4,12,-1,1,-2,0
1470344234490331,-3,-2,-4,-16,-1,-4,-3,-2
1470344234490331,1,3,3,7,-2,0,-1,1
1470344234491331,-4,-4,0,-3,0,0,-2,0
1470344234491331,0,1,2,-6,0,-1,-1,-2
1470344234503343,-1,-8,1,-2,-4,-2,2,-4
1470344234503343,-3,0,-3,2,2,-1,-2,2
1470344234512351,2,2,-4,-3,-2,-1,-2,-2
1470344234512351,-5,-5,-3,0,0,-2,0,-2
1470344234527870,-1,-1,-3,-7,-2,-3,-2,-5
1470344234527870,1,-2,4,8,0,-1,-2,-3
1470344234529370,-3,-1,0,-4,1,-2,-3,0
1470344234529370,-2,-2,0,-7,-4,0,3,1
1470344234550132,-2,-4,2,-1,-1,-2,-4,-1
1470344234550132,1,1,0,4,-3,2,2,-3
1470344234552131,0,-4,1,0,-1,-3,0,0
1470344234552131,-3,8,-9,-4,0,-3,-3,-2
1470344234564143,-4,0,5,-1,-1,-1,-3,2
1470344234564143,0,0,-1,-1,0,0,-3,-5
1470344234573150,3,1,-2,-3,-2,-2,-1,0
1470344234573150,1,-2,0,1,0,1,0,-1
1470344234587163,-2,3,6,6,0,-2,-2,1
1470344234587163,-1,-7,-11,-3,1,-1,3,2
1470344234589165,-4,-2,3,5,-3,0,-7,-2
1470344234589165,-1,-3,-3,-6,-2,-2,-6,-3
1470344234610183,-2,-4,-5,-4,-1,1,5,-5
1470344234610183,0,4,2,0,1,-1,-3,3
1470344234612185,-2,2,3,-5,0,0,0,-4
1470344234612185,4,-6,0,3,0,-2,-2,0
1470344234624199,2,1,2,1,-2,-2,-2,0
1470344234624199,0,-5,-7,-6,-2,-3,1,-2
1470344234632708,0,0,-1,3,3,-1,0,0
1470344234632708,-5,4,6,-4,-1,-2,-2,0
1470344234647225,-2,-4,-8,-13,-1,1,1,3
1470344234647225,0,5,4,7,-1,-1,-2,-3
1470344234649227,1,1,-3,0,-3,-2,-2,-1
1470344234649227,2,-6,-3,5,2,1,1,0
1470344234670246,-11,-4,-2,-5,-3,-4,-3,-3
1470344234670246,-1,-2,8,-1,-4,-2,-2,-3
1470344234671247,4,-3,-7,1,0,1,1,-3
1470344234671247,0,0,3,-1,-4,-1,-1,-2
1470344234683257,-1,3,-5,3,2,1,0,2
1470344234683257,-3,-1,3,-2,0,-3,-4,-2
1470344234693266,-3,-2,-6,-5,0,-3,1,2
1470344234693266,-1,-2,1,1,1,-1,0,-2
1470344234707279,2,-1,0,-4,-4,0,-3,-1
1470344234707279,-5,-1,-8,0,0,2,0,0
1470344234709281,0,-7,-4,-6,-1,0,-2,0
1470344234709281,0,-5,0,-3,-2,-1,-1,0
1470344234730305,2,1,-2,8,1,0,0,0
1470344234730305,0,-3,-2,3,-2,0,1,-3
1470344234731807,-2,0,-2,-5,-2,-1,-1,3
1470344234731807,0,-2,-4,-3,-1,-2,-2,-2
1470344234743321,-2,2,6,7,-1,1,0,-3
1470344234743321,2,-2,-13,-6,0,0,1,2
1470344234752329,1,3,7,1,-3,-2,-3,-1
1470344234752329,0,3,-1,0,1,-2,1,2
1470344234767344,1,1,-5,2,1,-1,0,-3
1470344234767344,-3,-1,10,1,-1,-1,-1,-2
1470344234769345,-2,1,3,0,3,-1,0,-1
1470344234769345,3,-2,-7,-10,-3,2,0,-2
1470344234790364,1,0,-2,7,0,0,-3,-3
1470344234790364,-3,-2,6,-5,-3,-1,-2,0
1470344234791364,-2,-3,-2,-1,-2,0,-1,-1
1470344234791364,-1,2,8,6,0,0,0,-1
1470344234812386,0,-2,-4,-2,-2,-2,-2,-4
1470344234812386,-2,-2,0,-3,-2,1,0,-1
1470344234814386,-1,5,-12,-1,-2,-1,0,-2
1470344234814386,2,-3,2,-3,-1,-2,-3,-1
1470344234827902,-4,-4,-5,-5,0,1,4,5
1470344234827902,1,0,-1,4,0,-2,-1,-2
1470344234829403,-3,-1,12,-8,-3,0,1,-2
1470344234829403,1,-7,-12,2,-2,-3,-2,-3
1470344234850273,-1,0,5,-1,-2,-3,-3,2
1470344234850273,1,0,-3,2,1,0,-2,0
1470344234851274,-1,-7,-3,3,0,1,-1,-3
1470344234851274,-4,0,3,-1,0,-2,1,-2
1470344234880298,1,0,2,-3,-4,-3,-5,-2
1470344234880298,-3,-3,-3,-10,-1,1,-2,0
1470344234881300,2,3,-3,4,-1,-3,0,-1
1470344234881300,-2,-4,-6,0,-2,1,0,-1
1470344234887305,3,-4,-10,-7,-1,0,-2,-3
1470344234887305,-1,3,2,-2,-2,-1,0,1
1470344234889307,-7,-3,-1,2,-1,-1,-2,-1
1470344234889307,0,5,3,-2,-3,0,-1,-2
1470344234910326,0,-1,-1,2,-2,-2,2,1
1470344234910326,0,-3,0,-8,0,-1,-3,-2
1470344234911327,-2,4,8,0,2,-1,3,0
1470344234911327,2,-7,-1,1,-5,-3,-5,-2
1470344234932850,-3,1,2,3,1,2,0,0
1470344234932850,1,0,-8,-1,-1,0,3,-1
1470344234934351,2,-3,-2,-3,0,-1,-2,1
1470344234934351,-3,4,7,1,0,0,-2,2
1470344234947365,-1,-1,-9,-7,0,-3,0,1
1470344234947365,-3,-10,-4,4,-3,-2,0,-2
1470344234953372,5,-1,-3,-5,-4,-1,-2,-1
1470344234953372,-7,-5,9,2,1,0,1,-1
1470344234970387,2,-1,-8,-7,0,-1,0,-1
1470344234970387,1,4,5,1,-4,-3,-2,2
1470344234971387,0,-3,-3,1,-3,-1,-4,-1
1470344234971387,2,-1,-6,-4,-3,-1,1,-1
1470344234992406,-5,-2,4,-5,2,-1,-1,-4
1470344234992406,-2,0,0,4,-1,-2,-2,1
1470344234994408,1,-7,-4,-8,-3,0,-3,-2
1470344234994408,1,2,-7,7,0,0,-1,-2
1470344235007420,1,-1,10,-5,-1,0,-3,-4
1470344235007420,-1,2,-5,-4,1,-2,0,-1
1470344235013425,-2,-3,4,9,2,1,1,-2
1470344235013425,-1,-5,-23,-10,-7,-3,-4,1
1470344235030448,0,-1,8,12,1,-1,1,-2
1470344235030448,2,3,-3,-6,-2,-2,-2,0
1470344235031949,-2,1,-3,0,-2,-1,-1,-1
1470344235031949,-1,5,2,-2,-1,-1,1,1
1470344235052470,0,-1,-2,3,0,-1,-4,-1
1470344235052470,-2,1,1,3,0,1,-3,-2
1470344235054473,-1,-5,-4,-8,-1,-1,-1,-1
1470344235054473,0,0,1,4,1,0,0,0
1470344235066483,-3,-1,-2,1,-1,-1,-4,-2
1470344235066483,2,-3,1,-3,0,0,-1,-3
1470344235073489,-1,2,-2,5,-1,-1,-1,0
1470344235073489,-2,-1,4,-6,0,1,1,0
1470344235090505,2,-2,1,-3,-4,-3,2,1
1470344235090505,-2,-5,4,6,1,-1,-1,-2
1470344235091506,-4,-3,-7,-1,-2,-3,-2,-2
1470344235091506,1,2,0,-6,1,-1,-1,-2
1470344235112527,1,0,5,0,0,2,0,3
1470344235112527,-4,0,7,7,-1,-3,-2,-3
1470344235114527,0,1,-5,-4,0,-2,-1,-2
1470344235114527,-2,-4,-1,-8,-3,0,-1,-1
1470344235127042,-3,2,-6,-3,-1,-1,-1,0
1470344235127042,-4,-4,0,0,-2,-2,0,1
1470344235134049,0,0,4,1,-1,-5,-4,-2
1470344235134049,-3,2,3,1,1,-1,-5,-2
1470344235149565,-1,-6,-5,2,-1,-2,2,-1
1470344235149565,2,3,-4,7,-2,0,0,0
1470344235156572,-1,-2,3,-4,-3,-1,1,0
1470344235156572,-1,0,0,3,0,-4,-1,-2
1470344235172585,-2,0,-4,-4,-2,-1,-1,-2
1470344235172585,-4,-3,-2,-1,0,-3,-1,0
1470344235174589,-1,-8,-1,0,-1,-1,1,1
1470344235174589,-5,-2,3,-7,-2,1,0,1
1470344235186600,2,-2,-4,-3,-1,-1,-2,-1
1470344235186600,-2,-4,-7,-7,-1,0,0,-3
1470344235193605,2,5,2,-2,-1,1,-1,-1
1470344235193605,1,-1,-3,-1,0,-2,0,-1
1470344235209620,-4,-1,-2,10,-4,-2,0,0
1470344235209620,-2,-2,5,-3,-1,1,1,-1
1470344235211622,0,2,-4,-2,0,0,0,-3
1470344235211622,1,-3,4,6,-2,-2,-6,-4
1470344235232651,2,0,-8,-10,1,1,0,-4
1470344235232651,2,1,-2,2,-2,-1,-1,0
1470344235234650,-2,-7,4,1,-3,-1,0,1
1470344235234650,-2,-1,-4,-1,-3,1,2,1
1470344235247582,-2,3,5,1,-1,-3,-4,-2
1470344235247582,-1,1,-5,-4,-1,-2,-1,0
1470344235253598,0,-11,7,-2,-1,-1,-2,-3
1470344235253598,-3,-2,-21,4,-1,0,-1,1
1470344235270602,-3,-1,4,-4,1,0,-1,0
1470344235270602,-8,-9,-3,-5,-4,-2,-2,-6
1470344235271600,-2,11,4,2,2,-1,0,-1
1470344235271600,1,-5,2,2,-2,-1,0,-1
1470344235292619,-1,-4,0,-2,-4,1,1,-1
1470344235292619,4,-2,-3,-5,-1,-1,1,0
1470344235294623,-2,0,-5,2,0,-1,-6,-1
1470344235294623,-4,0,5,-4,-1,-5,-4,-5
1470344235306634,-1,0,0,-2,-1,0,11,-1
1470344235306634,2,-3,7,7,-2,0,-3,1
1470344235315639,-2,1,-7,-6,0,-3,0,0
1470344235315639,3,2,9,-3,-2,0,-5,-1
1470344235330171,-1,-3,-12,0,-2,-1,0,0
1470344235330171,-6,1,7,0,-1,-1,-4,-3
1470344235331671,3,2,3,4,-3,-2,0,0
1470344235331671,-3,2,-13,-13,-2,-2,-1,-1
1470344235352708,1,0,6,-5,-1,-2,-5,-1
1470344235352708,-4,-2,-2,-3,0,-2,0,-1
1470344235354711,-3,-2,-5,4,-1,1,-4,-4
1470344235354711,1,1,-4,1,0,1,4,1
1470344235366723,0,-4,-2,1,0,1,-4,4
1470344235366723,1,1,-7,-1,0,-3,0,-1
1470344235374743,-3,-8,-1,-5,-2,-3,0,3
1470344235374743,0,2,-2,2,-1,0,0,0
1470344235389744,0,0,0,-5,-2,-3,-2,-2
1470344235389744,-1,-5,-6,0,1,1,-2,-1
1470344235391745,-1,3,6,1,0,0,0,3
1470344235391745,1,-5,9,0,0,-3,0,-2
1470344235412763,-2,-4,-9,3,0,-1,-4,-2
1470344235412763,-2,1,-3,-8,-1,-2,-2,0
1470344235413764,0,5,-4,-3,1,0,-1,-3
1470344235413764,-2,-7,-5,1,-4,-1,-2,0
1470344235426289,0,4,7,6,2,0,0,0
1470344235426289,1,-1,-4,3,-1,0,-1,-1
1470344235435291,-1,-6,-5,-6,-4,-2,-1,-1
1470344235435291,-2,-2,-7,3,-1,0,1,-2
1470344235449812,-6,1,0,-5,-3,-2,-2,-4
1470344235449812,4,-1,-3,-3,-1,0,-1,0
1470344235454817,1,8,2,7,-1,-2,-2,0
1470344235454817,-1,2,0,0,1,2,-1,1
1470344235472831,1,2,0,4,-3,-4,-4,-2
1470344235472831,1,-1,4,-1,1,-2,-2,0
1470344235473832,0,0,-5,-2,-2,1,3,-1
1470344235473832,2,0,4,2,0,1,0,-1
1470344235486845,-2,-3,2,2,-3,-1,-2,1
1470344235486845,-2,1,-1,2,-1,-1,-1,-1
1470344235494850,-5,-3,-4,0,-1,-1,-2,-2
1470344235494850,1,-1,1,0,1,-2,2,-2
1470344235509866,-1,-3,1,-4,-3,1,-1,0
1470344235509866,1,0,-1,-3,-1,-2,-1,0
1470344235511867,-6,-6,5,7,-3,-2,1,-2
1470344235511867,-2,-4,-2,-14,-1,-1,-3,-2
1470344235532891,-2,5,-3,4,1,-2,-1,-2
1470344235532891,1,1,2,-1,-2,1,1,-2
1470344235534390,0,-4,5,-5,-2,2,-2,0
1470344235534390,-5,6,-2,9,1,-4,-2,1
1470344235545905,3,-9,-7,-4,-2,0,-2,-2
1470344235545905,-1,0,-8,-4,-1,0,1,-1
1470344235554913,-6,4,-2,-5,-1,-1,-2,0
1470344235554913,-1,-4,-1,5,-3,-3,-2,-4
1470344235569926,0,3,5,-3,2,1,1,-1
1470344235569926,-1,-7,-5,1,-2,1,-2,0
1470344235571929,0,-4,-5,-5,0,-1,-1,-1
1470344235571929,-4,-2,3,0,-3,-2,-1,1
1470344235592946,1,-4,-1,3,-1,-1,-3,-3
1470344235592946,-2,0,1,3,-2,0,2,-1
1470344235593948,3,0,4,-3,1,-3,-6,-2
1470344235593948,1,0,-1,7,-1,-2,0,-1
1470344235605959,-1,-4,1,-12,-2,0,-2,0
1470344235605959,-3,5,2,5,0,-3,-1,0
1470344235614967,1,-4,1,0,2,-1,2,-2
1470344235614967,1,-6,1,4,-2,-1,-4,-3
1470344235630486,-3,-2,3,-2,0,-3,-1,0
1470344235630486,-2,-2,-5,-2,0,0,0,1
1470344235631987,-1,-9,6,0,-4,-1,-1,-1
1470344235631987,0,5,-10,-5,1,0,1,0
1470344235653010,3,2,4,1,0,0,-1,0
1470344235653010,0,-2,1,-4,-3,-1,-2,2
1470344235654012,-1,2,-5,1,-1,-1,-1,-2
1470344235654012,1,-2,1,-3,0,2,0,0
1470344235666024,-1,-3,-9,2,-3,-4,-2,-2
1470344235666024,-1,-2,4,-4,0,-1,-3,0
1470344235675030,-1,-3,-15,-4,-2,1,2,0
1470344235675030,-1,5,6,-4,1,-2,-1,2
1470344235690044,-2,0,-3,-1,-1,0,1,-1
1470344235690044,1,-9,2,-1,-1,-1,0,-4
1470344235692046,-1,0,-8,-4,1,1,-3,-3
1470344235692046,0,-5,3,0,-4,-1,-1,-3
1470344235713066,2,-2,-3,0,1,-2,-1,3
1470344235713066,-8,2,0,-1,-2,0,-1,0
1470344235715067,0,0,0,2,1,-1,0,0
1470344235715067,-1,-4,-4,-4,-5,-2,0,-1
1470344235726585,-1,-5,5,2,0,1,-2,0
1470344235726585,4,2,-6,-2,-1,-3,-2,-1
1470344235735592,-2,-4,2,-1,-3,-1,-2,-4
1470344235735592,0,5,2,6,2,-1,0,0
1470344235750110,-2,-5,-4,-1,-1,0,0,-2
1470344235750110,0,-3,4,-9,-3,-3,-1,-3
1470344235752111,1,0,-2,0,1,-1,1,1
1470344235752111,-1,-2,2,-5,-2,0,-1,-3
1470344235772128,-5,0,0,3,0,1,1,0
1470344235772128,1,0,-6,2,-4,-1,-3,-2
1470344235774130,-1,2,-2,-2,-1,-2,-2,-3
1470344235774130,-3,0,4,0,-2,-1,1,1
1470344235794148,2,-4,-11,-2,-3,-1,-1,-1
1470344235794148,-4,-2,1,2,0,-2,2,1
1470344235803156,-2,5,6,3,-2,-1,-1,-2
1470344235803156,-3,-8,-8,-8,0,0,-2,-1
1470344235810163,-3,-4,-7,2,0,-2,0,0
1470344235810163,-2,4,5,1,0,1,-1,-1
1470344235811164,2,-2,5,-3,-3,-2,-2,2
1470344235811164,-7,-3,-7,-11,1,1,-3,0
1470344235832688,3,0,3,3,-2,0,1,-2
1470344235832688,-3,0,2,1,0,1,-1,1
1470344235834191,-1,-6,-1,-3,-2,0,-3,-2
1470344235834191,-1,4,0,0,1,-1,-1,1
1470344235855216,-4,1,-6,-8,1,0,0,-2
1470344235855216,2,-5,-4,-3,-2,-3,-9,-2
1470344235856216,-6,-3,-2,1,0,0,-1,-2
1470344235856216,-2,-4,-5,-2,-2,-2,1,-1
1470344235870229,0,4,2,2,0,-2,1,-2
1470344235870229,-8,-4,-3,-2,-2,-3,-6,-1
1470344235871230,1,-2,-1,0,-2,0,0,1
1470344235871230,3,-6,1,-1,-3,-1,-1,-2
1470344235892249,0,2,3,0,-4,1,0,-3
1470344235892249,-1,0,-3,1,1,-2,4,-2
1470344235894250,-3,-4,-5,-3,-1,-2,0,2
1470344235894250,-2,-8,-11,1,-1,-3,-1,-2
1470344235915269,-3,8,6,-1,2,1,0,1
1470344235915269,1,-1,-2,-4,-1,1,3,1
1470344235916270,-3,-4,-4,-3,-1,-2,-3,0
1470344235916270,0,-1,0,2,-3,-2,0,-2
1470344235929788,0,-3,1,-4,-3,-1,-5,-2
1470344235929788,-1,-2,-1,0,2,1,-1,-1
1470344235936793,0,-1,-1,-4,-1,0,-1,-2
1470344235936793,-1,1,-2,0,0,-3,-1,-1
1470344235952835,1,2,-4,-3,-1,-1,-2,-1
1470344235952835,0,0,3,-2,-2,0,1,-1
1470344235953837,1,-3,-1,4,2,1,0,-2
1470344235953837,-3,-8,-4,-3,-3,0,-1,-3
1470344235974854,0,-1,-1,-3,-1,-3,-3,2
1470344235974854,2,3,-1,0,-2,1,-1,-2
1470344235976856,1,0,-1,-1,-2,-3,1,0
1470344235976856,-2,4,-2,0,3,0,-3,1
1470344235989867,2,-8,4,-3,-3,-1,1,-2
1470344235989867,2,2,-5,-2,-1,-2,1,-1
1470344235995873,2,-2,7,3,-1,0,1,-2
1470344235995873,-1,-2,7,0,-5,0,-3,-4
1470344236012890,-4,-3,-3,5,1,-2,-1,0
1470344236012890,-1,-5,1,-1,-1,-2,0,-4
1470344236013889,1,4,1,-6,-1,0,-1,1
1470344236013889,0,-1,-2,1,-1,-2,0,3
1470344236035413,-3,3,-3,0,0,0,-2,0
1470344236035413,3,-3,3,3,1,-2,1,0
1470344236036916,-1,-4,-2,0,-4,-2,-4,-3
1470344236036916,-2,5,3,0,-1,0,-1,1
1470344236049442,-1,-6,-3,-5,-4,-4,-2,-1
1470344236049442,-4,-2,0,-3,-3,-1,1,-1
1470344236056437,0,0,-1,0,-1,-1,-2,-2
1470344236056437,-1,0,0,-5,0,-3,-2,-1
1470344236072449,-3,-5,0,1,-1,1,1,-4
1470344236072449,-2,6,3,0,-1,-1,-2,0
1470344236074452,0,-2,1,-1,-3,-1,-1,0
1470344236074452,1,4,5,-1,0,-3,0,-2
1470344236095473,3,-3,-4,3,-4,-1,-2,1
1470344236095473,-9,-2,-1,-2,0,-2,0,-1
1470344236097474,-1,-5,1,-1,0,-2,-1,0
1470344236097474,3,-1,4,1,-2,0,0,0
1470344236109485,1,0,-2,-3,-2,-2,2,0
1470344236109485,1,-2,-3,2,0,-1,-2,-2
1470344236116493,0,-1,-11,-5,-2,0,-2,-1
1470344236116493,-3,1,4,7,-2,-1,0,-1
1470344236133023,2,1,-1,-1,-3,-4,0,2
1470344236133023,2,-4,0,-1,0,1,-1,-2
1470344236134525,2,7,-9,-5,-2,-3,-1,1
1470344236134525,-2,-1,-7,-6,-1,1,0,-3
1470344236155467,-3,-2,1,2,2,-1,-1,-3
1470344236155467,2,-2,4,-3,-2,-2,0,1
1470344236156469,-5,-4,-6,2,1,-1,2,-1
1470344236156469,-2,0,-5,-2,-1,1,0,-2
1470344236169481,-5,-5,1,-1,-2,-1,-6,0
1470344236169481,1,-7,-10,-5,-2,-1,0,-2
1470344236176487,-4,-7,0,0,-1,0,1,-1
1470344236176487,-4,1,1,0,1,-1,0,1
1470344236192501,1,2,-2,-2,-4,2,-3,0
1470344236192501,3,3,2,3,-1,0,-2,1
1470344236194504,1,-3,0,1,-2,-1,-2,-2
1470344236194504,2,-17,2,-1,-2,-3,-1,-3
1470344236215521,-1,7,-8,0,3,2,5,-1
1470344236215521,-2,-3,7,4,-4,-1,-1,-2
1470344236216524,1,2,1,-2,1,0,-1,-1
1470344236216524,0,-3,-5,-3,-1,-2,-1,-3
1470344236229538,0,-3,-3,-2,-1,-2,-3,-1
1470344236229538,-2,1,0,1,0,2,0,1
1470344236236545,-2,0,0,-1,-3,-3,-6,-2
1470344236236545,0,3,12,2,-1,0,1,-2
1470344236252564,-5,-4,-7,-1,0,0,0,-2
1470344236252564,0,-1,3,1,-1,0,-4,0
1470344236254566,-2,2,-5,-6,1,-1,-1,1
1470344236254566,-2,5,-2,5,-1,-1,-2,0
1470344236275584,0,-5,5,-14,-3,-1,0,-4
1470344236275584,-2,-3,0,1,-1,-1,-1,0
1470344236276586,-1,0,0,7,-2,-4,0,-3
1470344236276586,0,-5,-1,-4,2,2,1,0
1470344236288596,0,-2,4,2,0,-5,-5,-2
1470344236288596,-1,-7,-9,1,-1,0,1,-1
1470344236297606,0,4,-1,-11,-1,0,0,0
1470344236297606,-1,-6,-8,-4,-4,0,-2,0
1470344236312622,-1,0,5,3,-2,-1,-1,2
1470344236312622,2,3,-1,-9,0,0,1,-1
1470344236314622,3,-11,3,3,-3,0,0,1
1470344236314622,0,4,-2,-1,-3,1,-2,0
1470344236335143,2,0,-1,-7,0,3,2,0
1470344236335143,-3,3,2,0,2,-3,-1,0
1470344236337144,-5,1,1,4,-1,0,-1,-1
1470344236337144,1,-5,-5,-5,-2,-4,-2,1
1470344236348661,-2,-1,1,7,-1,3,0,-2
1470344236348661,1,-4,-2,-5,-3,-2,-2,0
1470344236357669,-4,-7,-3,-2,0,-1,-4,-4
1470344236357669,-2,4,6,0,-2,-3,-1,-1
1470344236372682,1,4,1,-3,-2,-4,2,-2
1470344236372682,-1,-5,-5,-4,0,-1,-3,-2
1470344236373684,-1,2,1,-2,1,0,3,2
1470344236373684,0,-5,0,7,0,-4,-2,-2
1470344236394703,-2,-3,-7,3,-1,-2,-1,0
1470344236394703,1,7,-4,0,-2,-1,2,-3
1470344236396704,2,-12,7,1,1,-1,-5,-1
1470344236396704,-4,16,3,-10,-2,2,4,-5
1470344236408715,0,-12,-4,0,1,-5,-11,4
1470344236408715,-1,10,3,3,1,0,12,13
1470344236417725,-2,1,-3,-1,-1,-1,6,-9
1470344236417725,1,-5,-3,2,-2,2,-12,-6
1470344236433252,0,-7,-13,-12,-1,-4,0,5
1470344236433252,1,-2,11,-1,-4,-4,-5,0
1470344236434253,0,2,-22,3,-3,0,-6,-4
1470344236434253,1,-2,8,8,1,-8,-1,0
1470344236454776,-3,6,-1,-4,-6,-1,3,-4
1470344236454776,-3,-8,-3,-6,1,3,-7,-4
1470344236456778,0,10,-15,11,6,8,4,3
1470344236456778,-2,-4,-3,4,3,-1,-1,-4
1470344236468789,2,2,-1,-3,-2,9,-1,-2
1470344236468789,-3,-1,-7,1,-4,-6,0,-5
1470344236477797,-4,-4,10,-10,-8,-5,-3,0
1470344236477797,-3,5,-4,-3,-1,0,2,2
1470344236492811,-2,-2,-1,11,4,0,-5,1
1470344236492811,-2,-3,-2,7,-2,6,-2,-5
1470344236493812,0,3,-4,-4,5,-2,-1,0
1470344236493812,-1,-8,5,-8,0,-2,-3,1
1470344236514831,-2,5,7,0,-3,-3,3,2
1470344236514831,-2,-6,-2,-10,-4,-4,-1,-7
1470344236516833,-2,-3,9,-1,0,0,-6,-1
1470344236516833,-2,-5,-5,-3,0,2,7,1
1470344236528849,-2,-1,0,2,0,-9,-13,-5
1470344236528849,0,3,2,2,0,2,11,3
1470344236537857,-2,-4,-2,-6,-6,2,4,-3
1470344236537857,-1,-4,-7,2,1,-3,-16,-2
1470344236552874,0,5,9,9,1,8,19,2
1470344236552874,-3,-5,-16,-7,-10,-14,-10,-1
1470344236553875,0,0,13,-1,11,15,13,-1
1470344236553875,2,0,0,0,-8,-2,-18,-1
1470344236574893,0,-2,1,1,0,-3,8,0
1470344236574893,1,-6,-1,-3,-3,-2,-27,-1
1470344236576897,-3,-1,1,0,-1,-7,-12,1
1470344236576897,0,5,-3,1,2,2,11,1
1470344236588907,-1,-4,-2,0,2,1,-11,-2
1470344236588907,0,1,-1,4,2,4,13,1
1470344236597915,2,1,6,-9,-8,-10,-10,-1
1470344236597915,1,-3,-11,-1,-2,0,-5,-1
1470344236611927,-2,3,16,3,1,-4,4,-6
1470344236611927,-1,-2,-6,-3,1,7,5,-2
1470344236618934,2,0,0,4,-3,-1,1,2
1470344236618934,-1,-2,0,-3,-3,-8,4,1
1470344236635454,-5,2,-8,2,-1,6,6,-2
1470344236635454,2,-2,3,-1,0,-3,2,0
1470344236636956,0,-2,-9,-1,1,-3,-2,2
1470344236636956,-4,-5,9,2,1,2,11,0
1470344236648973,1,-2,-1,-2,-5,-6,-7,-1
1470344236648973,-1,3,-1,-1,3,2,-16,-4
1470344236657979,0,-1,-2,3,-5,-8,14,-1
1470344236657979,1,1,6,-2,17,18,7,-2
1470344236671993,-8,-8,-10,-8,-6,-7,-7,-3
1470344236671993,-2,4,3,3,1,-5,-24,0
1470344236686008,-3,-2,6,0,-7,0,16,-2
1470344236686008,-1,-3,-9,-7,-6,-2,0,2
1470344236695012,1,-2,2,1,4,3,-10,-1
1470344236695012,0,-4,-8,2,-2,-1,19,1
1470344236697014,0,-8,-1,0,-1,-1,-34,-4
1470344236697014,-5,12,4,-3,-5,-6,-5,-2
1470344236718034,-1,4,6,-5,-1,0,-4,-2
1470344236718034,0,2,6,5,0,-4,33,0
1470344236719035,-1,-12,-17,-4,0,-2,-26,-5
1470344236719035,0,-3,-11,2,-1,6,9,1
1470344236732064,2,-6,-6,-4,-4,-1,-8,-3
1470344236732064,-3,-2,-5,-5,-1,-4,9,0
1470344236739072,0,5,-4,-1,0,0,13,0
1470344236739072,-2,-7,10,8,-1,-5,-14,-2
1470344236755101,-1,6,-8,-16,-3,0,0,-1
1470344236755101,-1,-8,-11,6,-10,-7,2,0
1470344236757105,2,-2,1,-6,10,4,-4,-2
1470344236757105,0,-4,-8,-5,-7,-10,25,2
1470344236777121,4,3,-2,3,-2,-5,-29,-1
1470344236777121,-2,-3,-3,-5,-4,-1,-8,-3
1470344236779123,0,0,10,6,-3,-1,-5,0
1470344236779123,-2,0,-15,-8,3,-2,8,-2
1470344236800140,-3,-6,-5,9,-3,-3,14,-4
1470344236800140,-3,2,-6,-14,0,-1,-15,0
1470344236802142,-1,4,-4,2,-3,0,10,1
1470344236802142,1,-2,7,-2,0,1,-16,-4
1470344236815154,-6,-4,-5,-1,-4,-1,-2,2
1470344236815154,0,-1,-3,-2,2,6,13,0
1470344236817155,0,-1,7,-1,-1,-5,-21,-1
1470344236817155,1,-3,-1,-1,-9,0,-20,-5
1470344236837678,1,-3,-15,-6,-1,5,18,0
1470344236837678,1,0,9,0,1,-4,-13,2
1470344236839179,-3,-4,8,5,-4,-3,-10,1
1470344236839179,-4,2,1,4,-2,-12,-9,0
1470344236860202,-3,3,8,3,5,11,-9,-1
1470344236860202,3,-1,12,4,2,5,0,-1
1470344236861205,-8,3,3,4,-1,-2,9,-4
1470344236861205,-2,-7,-8,-7,-2,-4,-12,-2
1470344236875215,4,2,6,-2,-5,-4,6,6
1470344236875215,-10,-3,5,0,-15,-15,-9,-1
1470344236876217,1,9,-1,-2,10,17,-8,-3
1470344236876217,-3,-11,6,3,1,2,10,-1
1470344236897236,0,3,1,-1,1,-3,6,0
1470344236897236,0,-14,-16,2,-2,-2,-2,-4
1470344236899237,2,-5,-8,-6,-8,-5,19,4
1470344236899237,-4,8,-10,-7,0,3,-15,-2
1470344236912249,1,-3,-1,5,1,0,21,1
1470344236912249,-2,6,4,4,5,3,-11,-6
1470344236918254,-5,-1,-1,-5,-1,0,10,0
1470344236918254,-2,0,0,5,6,5,7,-2
1470344236935273,0,-3,3,19,-4,-7,-20,-3
1470344236935273,-1,1,-1,-31,6,5,12,0
1470344236936774,1,-3,-8,4,-2,2,3,-1
1470344236936774,2,4,1,10,-2,-3,-2,4
1470344236957300,-2,4,-9,-5,-7,-8,-5,-6
1470344236957300,0,-7,2,13,-1,2,-6,-2
1470344236959302,2,-5,-2,-1,-8,-7,-2,1
1470344236959302,-1,2,0,-19,-3,-3,3,1
1470344236971311,-3,-5,-1,-17,-3,4,0,-5
1470344236971311,2,10,4,9,3,0,1,0
1470344236980319,-2,-11,-3,-4,-3,-5,-3,-1
1470344236980319,-2,0,2,9,-2,-3,4,-2
1470344236995333,0,-5,4,-7,0,0,-2,-1
1470344236995333,-3,-4,-2,-6,-2,3,-5,1
1470344236996334,-3,7,1,0,0,-4,0,-1
1470344236996334,1,-2,-2,-2,-4,-1,3,-2
1470344237017353,0,-5,6,-3,1,2,0,1
1470344237017353,0,3,-9,4,-1,-1,-3,-3
1470344237019354,0,-7,-2,-1,-1,-2,0,-3
1470344237019354,-1,-15,-3,-4,-4,-4,0,-2
1470344237031869,1,19,1,5,0,3,1,1
1470344237031869,0,3,-1,4,2,0,0,1
1470344237040377,1,1,4,-1,-2,-2,0,-2
1470344237040377,0,10,0,-11,-3,1,0,-1
1470344237055396,2,3,-1,3,1,-2,0,0
1470344237055396,-2,-7,1,4,4,2,0,1
1470344237056397,-1,10,-5,-6,-3,-4,-2,0
1470344237056397,-2,-6,6,1,3,-2,2,0
1470344237077416,-2,3,-3,2,-2,-4,-2,0
1470344237077416,1,6,8,-3,-1,-1,-1,0
1470344237079419,-3,-11,-13,0,3,-1,1,-1
1470344237079419,2,5,6,5,-8,-7,-1,-1
1470344237091429,-4,-6,-2,0,19,20,-1,-2
1470344237091429,-1,-8,-13,-2,-8,-12,-2,0
1470344237100438,-1,15,10,0,-5,0,0,1
1470344237100438,-1,5,5,0,2,4,1,1
1470344237115450,-1,-6,0,2,-5,0,1,-2
1470344237115450,0,-8,-10,-6,-5,-2,-2,-5
1470344237116452,1,11,12,6,12,0,0,1
1470344237116452,-4,-2,-29,5,-9,1,-4,-1
1470344237137976,0,-10,1,-7,4,-2,1,1
1470344237137976,1,8,34,-1,-6,11,0,0
1470344237139478,-3,-17,-36,-8,-3,-9,-1,-2
1470344237139478,-1,0,7,0,-5,-6,-2,0
1470344237151493,0,3,-4,3,-1,4,-2,-2
1470344237151493,-4,-5,-8,2,-2,-3,1,1
1470344237160500,1,-1,-3,-4,1,3,-1,-1
1470344237160500,1,10,22,1,2,-3,1,0
1470344237175512,-3,-5,3,-3,0,5,1,-1
1470344237175512,-1,-7,-12,1,0,-3,-1,-3
1470344237176514,3,20,0,4,-4,3,-1,1
1470344237176514,2,-11,0,-10,4,-1,1,-3
1470344237197536,-2,4,15,4,-12,-11,-2,0
1470344237197536,1,-1,1,2,6,2,-2,1
1470344237199534,-2,2,-10,-6,2,0,-1,-4
1470344237199534,0,-5,0,4,-3,-1,-1,3
1470344237211544,-3,-10,-8,-3,-4,-5,-6,-5
1470344237211544,-3,4,-1,5,4,1,-2,1
1470344237220553,0,-9,7,-8,-11,-3,-2,1
1470344237220553,-5,2,-8,-1,1,-1,1,-1
1470344237235571,-2,-5,-2,2,-2,-6,-2,-3
1470344237235571,-2,-3,-4,-5,-1,-1,4,-2
1470344237237073,-1,0,11,10,-3,-2,-3,-2
1470344237237073,0,-1,-4,1,3,0,-5,-1
1470344237257152,-2,5,-5,0,6,-1,-3,0
1470344237257152,1,-3,-1,-8,-10,-2,6,-1
1470344237259154,-1,-3,2,2,-1,5,-3,-1
1470344237259154,-2,-2,-4,-9,-2,-3,1,-1
1470344237271165,-4,-6,-6,-6,-7,-6,-1,-4
1470344237271165,1,7,-1,11,-1,-6,-16,-2
1470344237280174,-3,-5,-3,-12,3,4,3,-2
1470344237280174,0,-10,0,6,-1,3,0,-3
1470344237295187,-1,3,1,3,-9,-6,1,2
1470344237295187,0,-11,-6,-11,-1,3,1,-3
1470344237297189,-3,-5,4,4,0,-3,-2,-3
1470344237297189,1,1,-3,-7,0,1,-4,-2
1470344237317206,3,-5,-4,1,-1,-2,1,2
1470344237317206,4,10,-1,13,1,0,4,0
1470344237319209,-2,-11,1,-12,0,-1,-4,-2
1470344237319209,-5,2,-7,2,0,-2,1,-2
1470344237331725,-1,-4,-14,-6,-1,-1,-2,0
1470344237331725,-5,-8,7,-9,-8,-4,-5,1
1470344237340733,0,5,0,11,7,4,1,-1
1470344237340733,1,-3,3,-3,2,1,1,1
1470344237354749,0,3,0,-4,-1,-3,-2,-1
1470344237354749,-5,0,-7,0,0,-3,-2,0
1470344237356751,0,-4,-1,-5,-3,0,1,-1
1470344237356751,2,3,1,4,-2,-1,0,-3
1470344237377771,1,0,1,-3,-2,-3,-6,-5
1470344237377771,0,5,10,6,-2,0,2,0
1470344237379773,1,2,-3,-2,-3,-2,-1,1
1470344237379773,-8,-8,4,2,-3,1,-4,-2
1470344237391783,0,-8,-8,-8,-2,-1,3,-1
1470344237391783,-3,4,-3,-7,2,1,0,-3
1470344237400791,0,-11,2,-6,-5,-2,0,-1
1470344237400791,-1,4,-5,4,-3,-2,-2,1
1470344237414803,0,4,4,4,0,1,0,0
1470344237414803,-3,-5,-4,-6,0,-7,-5,-2
1470344237416806,2,-5,3,-2,-5,-3,-1,-1
1470344237416806,-3,0,-2,3,-10,-6,2,0
1470344237437830,-2,-4,-1,-10,8,6,3,3
1470344237437830,1,-4,-3,8,-4,1,-5,-2
1470344237439332,-6,4,-1,-2,2,-8,1,2
1470344237439332,3,-3,-3,-3,-3,0,-3,0
1470344237450846,1,0,1,-1,-1,-1,3,-3
1470344237450846,-4,-5,0,5,0,2,2,-2
1470344237459854,-1,2,-9,-9,-8,-2,0,-2
1470344237459854,0,3,3,4,7,2,-2,-1
1470344237474868,0,-6,7,13,-3,-2,-2,-1
1470344237474868,1,4,-9,-12,1,1,0,-1
1470344237476870,-2,2,6,11,-3,-2,-1,-2
1470344237476870,4,-1,0,-9,3,3,0,0
1470344237497889,-6,0,4,11,-1,-2,-1,0
1470344237497889,-1,-4,-3,-13,-7,-2,0,1
1470344237498890,2,0,5,1,-7,-2,-1,-1
1470344237498890,-1,-2,-5,-7,8,0,-1,-1
1470344237510901,-2,-5,-4,2,-1,-4,-1,-1
1470344237510901,-3,-3,-2,-1,1,0,0,2
1470344237519908,-2,0,6,0,-1,-1,-2,0
1470344237519908,3,2,-4,-6,0,-2,0,0
1470344237535425,-11,-5,2,1,-5,-3,-2,-3
1470344237535425,3,-3,-4,-4,-2,-1,0,-2
1470344237536928,0,-1,-18,-6,0,0,0,0
1470344237536928,7,-6,11,8,-4,-4,-2,-2
1470344237557950,-11,-7,2,-14,-4,-2,-7,-4
1470344237557950,0,2,0,7,4,-3,-1,-2
1470344237558950,5,5,4,-2,-1,1,-1,-2
1470344237558950,-7,-6,-10,-1,-2,-2,-2,-1
1470344237570967,5,9,-11,-4,-3,-3,-7,4
1470344237570967,-1,-1,9,1,-1,0,0,-3
1470344237579974,-1,-5,12,5,-1,-2,9,-1
1470344237579974,-7,-3,0,-13,-3,0,6,-2
1470344237594983,2,-3,-4,-3,0,1,-14,-3
1470344237594983,-2,-4,-2,-12,-1,-6,-7,-1
1470344237596986,0,-5,1,5,1,-1,-3,-3
1470344237596986,-3,6,-5,7,0,0,-1,1
1470344237618005,4,2,-2,-1,-1,0,5,-1
1470344237618005,-8,-6,1,-1,-2,0,-1,-1
1470344237619005,-4,-4,-5,-5,-3,0,-2,0
1470344237619005,-2,0,2,6,2,-1,-4,-1
1470344237640530,1,0,-6,-19,-1,0,3,0
1470344237640530,-2,6,9,15,-3,-3,-1,0
1470344237642031,-3,2,-5,5,16,9,0,0
1470344237642031,-2,0,1,-1,-7,-5,-1,0
1470344237654047,0,-1,4,4,-2,-2,0,-3
1470344237654047,2,5,0,9,1,2,2,0
1470344237661054,-3,-6,-7,-11,-7,-7,-3,0
1470344237661054,3,-2,0,-11,2,6,5,0
1470344237678068,-1,4,1,13,1,-3,2,-2
1470344237678068,-2,-7,-7,-3,-1,0,-2,-3
1470344237679072,0,4,-3,4,0,-5,-3,0
1470344237679072,4,-2,-1,-5,0,1,-2,-4
1470344237700089,-5,6,4,7,-1,-3,1,0
1470344237700089,-3,-9,-2,-9,0,-2,0,0
1470344237702090,2,-6,-9,-2,-2,2,-3,-1
1470344237702090,-3,12,4,-3,-5,-2,-3,0
1470344237715102,3,-2,0,6,0,-2,0,-2
1470344237715102,3,-2,-1,-6,1,0,0,-2
1470344237721108,-2,-3,1,2,-3,1,-1,-2
1470344237721108,-2,-5,-1,4,-2,-6,-3,-1
1470344237737628,0,3,-6,-3,3,1,-3,-1
1470344237737628,0,-3,3,-5,-2,0,2,2
1470344237739630,1,9,4,0,-1,-2,0,2
1470344237739630,-2,-8,-5,-2,5,2,0,0
1470344237760153,0,-3,-3,-7,-7,-5,-1,-3
1470344237760153,1,2,-5,2,1,1,0,-1
1470344237762155,-2,-1,5,-1,-1,-2,-4,-3
1470344237762155,2,-2,-3,-1,-4,-4,0,0
1470344237775167,-1,-3,0,-4,-1,1,2,0
1470344237775167,-2,-4,-3,-2,-5,-3,-3,-1
1470344237777168,-1,1,2,1,-1,-2,-1,-1
1470344237777168,1,3,1,3,-2,-2,-3,0
1470344237798189,2,-2,-3,-5,1,-1,1,-1
1470344237798189,0,0,-4,3,1,2,0,0
1470344237799190,-1,-6,1,-4,-4,-2,0,2
1470344237799190,-3,0,0,3,1,0,0,-1
1470344237820209,-1,2,1,-3,-1,2,0,1
1470344237820209,-2,-3,-2,-1,-6,-3,-2,-1
1470344237822210,-4,-1,-2,-1,-1,-1,-3,-3
1470344237822210,0,-8,0,4,-1,-1,-1,0
1470344237834730,-1,-3,0,-4,-3,0,-5,0
1470344237834730,-1,-1,-4,-7,0,1,3,-2
1470344237841737,0,-5,2,0,-4,-5,-2,-2
1470344237841737,-7,-5,-3,-1,-2,0,-1,-1
1470344237857257,-1,-1,4,0,0,-2,-2,-1
1470344237857257,4,5,-2,-2,2,0,-1,-4
1470344237859258,2,-4,-1,-4,-2,-1,1,6
1470344237859258,1,-4,3,3,-2,-2,-4,-3
1470344237880281,-2,0,-5,-5,-2,-5,-9,2
1470344237880281,1,-1,1,4,0,4,19,-5
1470344237882278,0,1,-3,-5,1,1,5,-5
1470344237882278,-1,-2,4,-2,-2,-2,-20,-6
1470344237894290,3,1,3,6,-1,-1,1,4
1470344237894290,-3,3,0,2,2,-2,-8,4
1470344237901298,-3,-3,-1,1,-3,-3,0,0
1470344237901298,0,-2,-6,-1,3,1,8,-1
1470344237917310,0,-2,5,-4,1,-1,-2,-2
1470344237917310,0,-4,-2,0,-21,-14,-7,-1
1470344237919313,2,-3,-2,-1,8,11,1,0
1470344237919313,1,-2,-4,2,-6,-4,-1,1
1470344237940834,0,-3,0,0,1,1,2,0
1470344237940834,-5,-4,-5,-3,-1,-4,-1,1
1470344237943342,1,5,4,2,-2,-1,-3,-1
1470344237943342,-3,-6,-4,-3,-2,-1,0,-1
1470344237953351,-3,-2,-1,4,-2,-1,4,-3
1470344237953351,-2,1,-2,-4,2,3,-2,2
1470344237962360,-4,5,-2,1,0,0,-3,0
1470344237962360,0,-5,4,0,-3,-3,-3,-1
1470344237977374,-2,-2,-6,-8,-1,0,4,0
1470344237977374,-3,-2,0,0,1,2,-4,-1
1470344237977374,-2,2,-1,6,0,-5,-4,-2
1470344237977374,-2,4,0,-1,-4,0,4,4
1470344237999393,-4,-6,-2,-1,-2,-3,-3,-5
1470344237999393,0,1,2,7,2,0,-8,-2
1470344238000395,-1,0,-1,-2,-3,-5,3,0
1470344238000395,-2,2,-3,-3,0,0,2,-1
1470344238014407,1,3,-2,2,-1,-3,-1,1
1470344238014407,-3,0,1,-2,5,5,-3,0
1470344238022415,0,-3,-2,1,-1,-1,-2,-1
1470344238022415,0,6,3,4,1,-3,0,0
1470344238037436,-2,3,-7,-4,1,1,1,-3
1470344238037436,1,-2,0,-2,-4,-3,-2,-2
1470344238037936,-4,-6,1,5,0,-2,-1,0
1470344238037936,4,-1,-8,-6,1,0,-1,-2
1470344238059461,-11,6,4,-4,-1,1,-2,-2
1470344238059461,2,0,-2,0,1,1,-1,0
1470344238060462,-1,-1,0,-10,-3,-6,-2,-3
1470344238060462,-1,-7,-2,-3,0,0,0,0
1470344238073474,-5,4,1,5,-4,-3,-2,-4
1470344238073474,2,-6,-7,1,2,0,0,-1
1470344238081483,-1,-1,1,-5,2,4,0,-2
1470344238081483,-5,2,5,2,-5,-4,-1,-2
1470344238096494,3,6,-4,4,2,1,-3,0
1470344238096494,-3,-9,-1,-6,-6,-5,-1,-2
1470344238097495,-1,-3,2,-3,10,10,-4,-1
1470344238097495,1,2,-1,5,1,-1,2,-1
1470344238119514,-2,-5,-3,-3,-3,-2,-2,1
1470344238119514,1,0,1,-6,-4,-2,1,-4
1470344238120517,-1,0,-5,6,-4,-6,-2,-1
1470344238120517,-1,1,-6,-3,0,1,-2,-1
1470344238134032,-1,-6,2,2,0,5,0,-4
1470344238134032,2,1,3,3,3,2,1,-1
1470344238142041,-2,2,-3,-1,-1,-2,-1,-2
1470344238142041,1,4,-4,-3,0,2,0,1
1470344238157559,2,-7,-4,-9,-7,-6,-2,-1
1470344238157559,-3,2,3,1,2,-1,1,-1
1470344238157559,-4,0,-1,0,-5,-1,-3,0
1470344238157559,1,-4,1,0,0,-2,-10,0
1470344238179579,-4,-4,0,2,-2,0,9,0
1470344238179579,-1,0,1,-6,-1,4,0,-1
1470344238180579,2,-1,-3,4,0,-3,-3,-2
1470344238180579,4,0,4,-12,-12,-13,-3,-2
1470344238193592,0,-11,3,12,16,13,-3,-1
1470344238193592,-1,12,-1,1,-4,-5,0,0
1470344238202600,0,-11,0,-4,-5,-4,0,-1
1470344238202600,-5,6,-8,-5,-4,-2,0,-1
1470344238216612,5,-3,-5,-5,-2,1,-2,0
1470344238216612,-2,-3,1,1,3,0,0,2
1470344238217614,1,-7,6,6,2,-1,-1,-1
1470344238217614,-4,9,-4,-9,-3,2,1,-1
1470344238240141,0,3,5,10,-4,-5,-4,-2
1470344238240141,-1,-6,-4,-13,-2,-1,-2,-2
1470344238240642,0,-2,-8,5,-4,-3,8,-4
1470344238240642,-3,0,3,-7,-1,3,-7,-1
1470344238253660,0,-4,-2,-7,-5,-6,2,-2
1470344238253660,-2,-15,5,-2,-2,1,-5,3
1470344238261667,0,20,-3,1,-7,-4,2,1
1470344238261667,-5,-14,13,0,17,16,8,0
1470344238276679,3,0,-16,-3,-2,-3,-1,0
1470344238276679,-3,14,16,11,-3,-7,-5,0
1470344238277681,-6,-19,-1,-9,0,0,-2,-5
1470344238277681,0,1,-4,1,-2,0,0,1
1470344238299700,1,3,8,-6,-4,-1,-1,4
1470344238299700,-3,-4,-14,2,4,1,1,-2
1470344238299700,0,0,2,-8,-8,-3,-3,-2
1470344238299700,-1,0,-7,13,7,1,-1,-4
1470344238313712,-2,-7,-1,5,-5,-3,0,-2
1470344238313712,0,-6,5,-18,-10,-4,-1,-3
1470344238321720,-1,3,5,0,-3,-2,-3,-1
1470344238321720,-3,-5,-5,-5,-6,-7,-2,-4
1470344238337238,3,11,-13,-4,-1,-2,-2,0
1470344238337238,-15,-16,1,2,7,5,-1,-4
1470344238337738,1,-2,-12,-3,1,-3,-2,1
1470344238337738,1,1,6,3,-1,-1,2,2
1470344238359762,0,4,6,-1,-4,-5,-4,-3
1470344238359762,2,-2,-5,-5,-5,-5,-4,-2
1470344238359762,-3,-5,-4,6,0,3,-1,2
1470344238359762,-2,-11,2,4,-1,-5,-1,-3
1470344238373775,-4,-6,-4,-3,-2,1,-4,-1
1470344238373775,1,7,-5,5,0,0,2,2
1470344238381782,-1,9,-3,-11,-3,2,6,1
1470344238381782,3,0,6,11,-6,-3,-11,-1
1470344238396795,-6,3,-3,-8,3,-1,0,2
1470344238396795,0,1,-4,-8,2,0,5,3
1470344238397796,-1,0,-1,8,1,-3,-5,-5
1470344238397796,2,2,-13,-13,1,0,7,3
1470344238419816,-4,-13,4,5,2,-1,-2,-5
1470344238419816,1,7,-3,-2,-5,-6,-3,-1
1470344238419816,-2,4,2,-8,0,-1,0,2
1470344238419816,-5,1,-3,6,-2,1,6,-2
1470344238442341,-3,0,-1,-6,-8,-4,-6,-4
1470344238442341,3,-12,-5,1,5,1,4,-3
1470344238443370,-1,-2,4,-1,-3,-1,-4,1
1470344238443370,-4,2,-5,0,3,0,-1,-1
1470344238456383,-1,-12,1,-8,-5,-5,2,-1
1470344238456383,2,16,-1,6,2,-1,-6,1
1470344238464390,-4,7,-4,-2,4,4,-2,4
1470344238464390,-5,-20,1,-2,-8,-5,-5,-15
1470344238487410,3,13,-2,2,4,3,1,2
1470344238487410,-1,-5,-3,-3,-1,0,-2,0
1470344238488411,2,-12,0,-6,0,-3,-1,-5
1470344238488411,1,8,2,-6,-1,-1,-6,3
1470344238502425,-1,-4,-8,0,-2,1,0,-5
1470344238502425,-2,0,9,10,1,0,3,-1
1470344238503426,0,-1,-6,-13,-5,-1,-1,-3
1470344238503426,1,1,1,6,0,-1,0,0
1470344238517437,-1,-3,-7,1,1,1,1,0
1470344238517437,0,-4,-5,-4,-3,-4,-5,-5
1470344238517437,-4,4,2,1,-3,-3,-3,0
1470344238517437,-2,-10,-6,-3,3,0,-3,1
1470344238539962,4,-13,7,-5,-5,-2,0,-2
1470344238539962,0,7,3,5,0,0,-2,1
1470344238540463,-1,-4,-14,-2,0,-1,-2,-2
1470344238540463,0,7,-3,-5,-3,-3,-1,0
1470344238562987,0,4,4,7,-2,-2,-1,1
1470344238562987,-5,-6,2,-2,0,-3,0,-4
1470344238562987,2,-4,3,0,2,0,-1,-1
1470344238562987,-6,-3,2,-9,-2,-3,1,-3
1470344238576998,-4,-3,-9,5,5,2,2,1
1470344238576998,2,12,5,5,-4,-1,-1,-1
1470344238578000,2,-4,0,-4,-2,0,-3,-1
1470344238578000,-3,-4,-6,0,-1,1,1,0
1470344238600021,-4,3,-1,-8,3,-2,-1,-1
1470344238600021,2,0,2,6,-2,3,-1,0
1470344238600021,-5,-8,3,7,1,-3,-1,1
1470344238600021,4,-1,0,-4,0,1,0,1
1470344238623039,-4,-2,3,-3,-5,-3,-5,-4
1470344238623039,0,-6,-11,-11,-2,1,1,0
1470344238623039,3,3,8,3,3,1,0,-4
1470344238623039,-2,-4,4,-5,-1,-3,-3,2
1470344238637058,1,-2,-6,-4,-3,-6,-2,-2
1470344238637058,0,-4,-6,-2,0,-1,0,1
1470344238638059,-8,0,-1,3,-1,-1,-1,-1
1470344238638059,1,-1,0,0,-3,-2,-6,-4
1470344238659085,2,3,-1,-11,-2,4,1,1
1470344238659085,-6,1,10,8,-2,-3,-5,-3
1470344238660084,-3,-1,-8,-2,2,0,5,1
1470344238660084,0,0,1,-6,-3,0,0,-2
1470344238683106,-1,-4,-12,-2,-2,-1,-2,0
1470344238683106,-2,-2,-1,-7,-1,-1,2,-1
1470344238683106,2,-2,-2,0,-2,-3,-4,-2
1470344238683106,1,-1,-4,6,1,-1,3,1
1470344238697121,-3,-2,9,3,0,0,-4,8
1470344238697121,1,6,-1,-5,-1,-4,-2,-6
1470344238698120,-1,-4,-5,-3,-5,0,-1,-4
1470344238698120,1,0,-4,-26,-2,1,-1,1
1470344238719142,-2,1,5,23,2,1,2,-1
1470344238719142,-3,-4,-7,-19,-1,-3,-1,1
1470344238720140,-3,1,0,7,0,-4,-2,-2
1470344238720140,2,9,-1,-2,-4,0,3,-1
1470344238743167,-1,-9,3,0,0,-1,-2,-3
1470344238743167,-2,1,-12,-1,2,2,0,-2
1470344238743167,2,-3,3,-6,-2,-4,-4,-3
1470344238743167,-1,-9,-1,4,1,0,3,0
1470344238757192,1,4,3,-6,-2,-3,-2,-2
1470344238757192,0,-7,-5,3,1,-1,-1,0
1470344238758189,1,0,7,-5,1,0,1,-1
1470344238758189,-4,-1,-2,5,-1,0,-3,2
1470344238788218,2,5,-2,0,0,-2,2,-4
1470344238788218,0,-3,-4,-7,-4,0,-12,1
1470344238788218,1,-2,8,-2,-4,0,-1,1
1470344238788218,-9,6,-4,8,1,-1,4,-2
1470344238802228,-4,-3,6,-1,0,0,-1,-6
1470344238802228,-1,-5,-6,-32,-6,-5,-3,-3
1470344238803229,-2,4,4,16,-2,-2,-2,-2
1470344238803229,2,-3,-1,1,-2,-2,-6,-1
1470344238817242,-2,-1,2,-8,-3,-2,0,-2
1470344238817242,-2,1,2,15,3,2,8,-2
1470344238818242,-1,-1,-4,-13,-3,-1,-4,1
1470344238818242,3,-8,-1,-3,-2,-2,-2,2
1470344238839767,0,2,-3,2,-2,0,1,0
1470344238839767,-2,2,9,2,-1,-1,0,-2
1470344238840768,2,1,-7,-1,-2,0,0,-2
1470344238840768,-5,5,1,-1,-2,-2,-1,0
1470344238862291,3,-1,-7,-1,0,2,3,1
1470344238862291,1,-12,4,0,-2,-3,-4,-4
1470344238863292,-1,8,-6,-4,0,-2,2,1
1470344238863292,3,-8,1,-1,-2,-2,-13,-1
1470344238877304,-1,3,-4,-7,0,0,8,-1
1470344238877304,-1,-7,8,7,-3,0,-2,-4
1470344238877304,-1,-4,-2,0,-2,0,3,2
1470344238877304,2,-2,-5,0,2,1,0,-4
1470344238899326,-9,-7,4,-1,-2,-4,-6,-3
1470344238899326,4,8,-3,11,1,-3,-4,2
1470344238900324,1,-4,-1,-11,-1,1,8,3
1470344238900324,-5,-1,-1,20,-2,-4,-4,-4
1470344238922346,4,0,4,-8,0,0,-2,0
1470344238922346,-3,0,-2,8,1,-1,1,-2
1470344238923347,0,-4,-7,-5,1,-2,-5,-2
1470344238923347,-2,2,-1,-8,0,1,4,0
1470344238937363,2,-1,3,7,-4,-2,-4,-2
1470344238937363,-1,-2,-10,-5,0,0,1,1
1470344238937864,0,-1,12,20,0,0,-3,-2
1470344238937864,-3,-1,1,-3,-2,-3,0,-2
1470344238958963,-1,-2,-1,-4,-5,-6,-5,-2
1470344238958963,-2,-2,-5,-6,-2,-2,-2,1
1470344238959961,-2,0,-2,-1,-1,-2,0,-1
1470344238959961,-1,-3,4,1,-3,4,1,0
1470344238982983,1,3,2,0,1,1,-4,0
1470344238982983,0,-6,-4,-3,-6,-3,1,0
1470344238982983,-2,-4,4,-3,-3,-1,-3,-5
1470344238982983,3,7,-4,-1,0,-3,0,0
1470344238996998,3,-5,-2,-1,-1,-2,0,1
1470344238996998,3,-3,0,-3,0,0,1,-1
1470344238997998,-5,-2,-1,3,0,-1,-1,0
1470344238997998,0,6,-2,-3,-1,1,0,-1
1470344239020016,-1,2,-3,-1,1,0,1,1
1470344239020016,-1,-6,2,7,-1,-1,-1,1
1470344239020016,-2,-5,-1,-11,-1,-1,-4,-3
1470344239020016,1,4,3,-2,0,-1,0,0
1470344239043058,-2,-2,0,4,-2,0,-1,-2
1470344239043058,-4,1,-1,-1,-5,0,-1,-1
1470344239043058,0,0,-5,-5,-1,-1,0,-3
1470344239043058,-2,-12,8,3,-1,0,-2,0
1470344239057348,-1,-3,-4,0,-1,-1,-2,0
1470344239057348,-5,-2,0,-5,1,-1,1,-3
1470344239057348,-1,1,3,5,1,0,-1,1
1470344239057348,-1,-4,2,-3,4,0,1,0
1470344239079331,2,-1,-2,3,0,-1,-1,-2
1470344239079331,-1,5,-1,4,-2,1,-3,1
1470344239080320,0,0,-5,-2,0,-4,-1,2
1470344239080320,-1,0,-3,-2,2,-1,-2,0
1470344239102337,-5,-3,3,-1,0,-1,-2,-1
1470344239102337,-1,0,-2,4,-3,-1,1,-1
1470344239103338,-1,1,-3,-3,0,1,-3,-3
1470344239103338,-2,4,-1,-1,-1,-2,-1,-1
1470344239117350,-4,-1,-7,1,1,-2,-1,-4
1470344239117350,-5,1,2,-10,-1,-1,-3,-2
1470344239117350,0,-1,-2,10,-2,-2,-1,1
1470344239117350,-2,-7,-6,-3,-3,-3,0,-1
1470344239139875,-1,-4,-5,-10,-4,0,-1,-1
1470344239139875,0,0,-2,3,1,-3,-1,-1
1470344239140376,-2,-2,-4,-5,-3,1,-1,-1
1470344239140376,-1,-3,-2,-12,-2,-1,1,1
1470344239162929,-4,-2,-4,13,-2,-1,-2,-2
1470344239162929,2,-1,-8,-8,-5,-1,-3,-1
1470344239162929,-5,-2,3,2,1,-4,-2,-4
1470344239162929,1,-6,-4,-16,-3,-1,-1,-1
1470344239176953,-2,0,6,-2,-1,-1,-1,1
1470344239176953,-3,-2,1,5,2,1,-1,0
1470344239177927,3,0,6,-1,-4,-1,-1,0
1470344239177927,-3,-4,-5,6,5,-1,1,-4
1470344239199949,0,0,-5,2,-4,-2,-1,-3
1470344239199949,1,4,4,-7,2,-1,-1,1
1470344239199949,-1,-2,-4,-1,-2,-1,1,-2
1470344239199949,-2,2,7,-2,-2,1,0,-2
1470344239223023,-3,1,1,5,-1,-1,-2,-3
1470344239223023,1,-3,0,2,1,2,-2,0
1470344239223023,-3,-6,-3,-12,-4,0,-1,-1
1470344239223023,1,6,4,12,-2,-2,0,1
1470344239236580,-2,-1,-4,-9,-3,-2,-3,-2
1470344239236580,-3,5,-1,-3,3,2,1,3
1470344239245167,0,6,5,5,2,0,-1,1
1470344239245167,-2,-7,1,-4,-5,-2,-2,-2
1470344239259156,0,1,-8,-6,0,0,1,0
1470344239259156,0,-5,6,3,-1,-2,-2,-3
1470344239260097,0,0,-2,1,-1,0,-1,-2
1470344239260097,0,-1,-4,5,-1,-1,-2,-4
1470344239283123,2,1,7,0,0,-2,-1,0
1470344239283123,-1,-5,-7,-6,-3,-2,1,-2
1470344239283123,0,-3,0,0,-1,-3,0,0
1470344239283123,-1,-1,-3,-2,-1,0,-2,-3
1470344239296128,-10,-1,-5,-1,-3,1,-3,0
1470344239296128,1,-3,-7,-4,-3,0,-1,-2
1470344239304175,-3,-3,1,-1,0,-3,-2,-1
1470344239304175,3,-1,-1,-2,-2,-3,-2,1
1470344239319150,-1,0,-5,-5,-1,0,2,0
1470344239319150,-1,-1,-2,-1,1,-2,-1,-4
1470344239320150,0,6,-1,-4,3,5,2,1
1470344239320150,0,2,-1,14,-3,-2,0,-2
1470344239342677,-1,-4,5,-9,0,-1,-2,1
1470344239342677,-3,1,-11,2,1,0,2,-3
1470344239343678,1,-10,-13,-6,-2,-2,-4,0
1470344239343678,0,-4,-3,0,2,0,-2,-2
1470344239356184,-1,0,2,-5,-2,-2,-1,-2
1470344239356184,3,2,5,3,0,-2,2,-1
1470344239365210,-6,-4,-4,-4,-5,0,-1,-3
1470344239365210,-1,-3,1,-1,-1,1,-1,-1
1470344239379205,-2,-4,0,0,1,1,0,-2
1470344239379205,-1,1,1,-7,-1,-3,-2,2
1470344239380204,-1,-5,-3,-5,-3,-1,-1,-2
1470344239380204,-1,1,2,1,-2,-1,-3,-1
1470344239403229,3,0,-2,1,1,1,0,-1
1470344239403229,0,0,6,4,-5,0,0,-3
1470344239403229,0,4,-3,-3,1,0,1,-5
1470344239403229,0,-3,2,-5,-2,-1,-2,-2
1470344239416242,2,-4,2,3,1,-4,-2,0
1470344239416242,-2,-2,-1,4,-2,0,-1,-1
1470344239424248,-2,0,2,0,-1,1,-1,2
1470344239424248,-6,2,-8,-7,-1,-2,-3,0
1470344239439768,2,-1,-5,-8,-3,0,1,0
1470344239439768,0,1,2,3,-3,-3,-1,-1
1470344239440767,3,-3,-8,-10,-2,-2,0,-3
1470344239440767,-1,-8,9,3,-2,-1,-1,-1
1470344239462308,0,5,-4,3,-1,0,-1,0
1470344239462308,-7,-3,-3,-2,-2,-1,-2,-1
1470344239463329,-1,2,3,6,-2,0,-3,-2
1470344239463329,-3,-8,-6,-17,-1,-1,0,-1
1470344239476320,-3,-3,2,1,-1,-3,-4,-1
1470344239476320,-1,-1,-3,3,1,1,1,-2
1470344239484326,-3,1,3,-3,2,-2,-2,-1
1470344239484326,0,2,-3,5,0,0,-1,1
1470344239499341,-1,-2,-1,-4,2,0,0,0
1470344239499341,-1,1,-3,-7,-3,-4,-2,0
1470344239500342,-4,-6,3,3,-2,-2,-2,-2
1470344239500342,0,4,-10,-1,1,0,0,-2
1470344239522361,-3,2,0,-1,-2,-1,-2,-2
1470344239522361,-3,-2,-4,4,0,0,-4,0
1470344239523362,-4,-4,1,2,-1,0,1,-1
1470344239523362,1,6,-2,1,-2,-2,1,-2
1470344239544927,0,-3,-1,-5,0,0,1,-2
1470344239544927,-1,-1,3,4,-5,-2,-1,2
1470344239545929,-2,0,-2,-4,1,-1,0,-2
1470344239545929,-1,-1,7,10,-1,-1,-1,-1
1470344239559941,2,2,-7,2,-2,-2,1,-1
1470344239559941,0,1,-1,-10,-2,-1,-2,-1
1470344239559941,3,-1,-1,1,-2,1,-1,0
1470344239559941,-4,-4,-1,0,-2,-1,0,-3
1470344239582960,1,0,5,3,0,-1,-2,-2
1470344239582960,-2,0,-7,-4,4,1,-1,-2
1470344239582960,-1,-5,0,0,-5,-3,-3,1
1470344239582960,0,1,-5,-3,0,0,0,0
1470344239604981,-3,-2,-1,1,1,0,0,0
1470344239604981,0,-6,0,-7,-1,0,-3,-4
1470344239605982,-2,3,0,7,4,0,-1,0
1470344239605982,0,-1,-1,-4,0,0,-2,0
1470344239618992,0,-4,0,-1,-2,-1,-3,-3
1470344239618992,-2,0,2,0,0,1,-1,-1
1470344239619994,1,-1,-5,-1,-1,-3,-1,-2
1470344239619994,2,0,-2,6,-1,-3,-1,-2
1470344239643045,-1,-1,-1,-6,-1,0,1,1
1470344239643045,1,1,4,11,1,1,0,-2
1470344239643524,-2,-10,-1,-15,-4,-1,-2,-1
1470344239643524,4,-1,3,-4,-2,0,-4,-3
1470344239665620,-2,3,-3,-1,-2,-2,-2,-1
1470344239665620,1,-1,5,0,-3,0,0,1
1470344239665620,5,-4,1,2,-1,-2,-1,-1
1470344239665620,-1,-1,-7,-3,0,-1,1,-1
1470344239679575,0,2,5,1,0,-2,-1,-1
1470344239679575,-3,3,-3,-3,-1,-3,-2,-1
1470344239680573,0,-1,0,-1,-2,-3,0,1
1470344239680573,-1,-1,-4,-10,-1,2,0,0
1470344239702593,-4,-7,1,11,-2,-1,0,-2
1470344239702593,2,1,-4,-4,-2,-2,0,0
1470344239703594,-2,2,0,3,-4,-1,1,-2
1470344239703594,-1,-1,1,-1,1,-1,2,0
1470344239725613,4,0,-2,-7,-3,-1,-1,-1
1470344239725613,-4,-13,-2,-4,0,0,-1,0
1470344239725613,-2,2,7,1,-1,-1,-2,-5
1470344239725613,0,-2,-3,7,0,-1,-2,0
1470344239739669,-1,-4,2,-6,-3,-3,-2,0
1470344239739669,-1,-1,-1,-1,-2,-4,-1,-3
1470344239740670,3,1,-6,-1,-2,1,0,2
1470344239740670,-3,-4,1,-3,-3,0,-2,-3
1470344239762694,-2,2,0,0,-1,0,-1,-2
1470344239762694,-2,-3,-1,1,-2,0,0,-1
1470344239763695,4,-4,-2,-2,-1,-1,0,1
1470344239763695,0,3,4,-1,-6,-2,-3,-2
1470344239785713,-2,-4,-4,-1,3,1,-2,0
1470344239785713,3,-1,3,-6,-5,-1,1,-3
1470344239785713,-5,8,3,7,2,-2,-3,-3
1470344239785713,1,1,3,12,0,-1,0,-3
1470344239799725,-2,-6,-3,-4,-4,-1,-3,-2
1470344239799725,0,-1,0,-7,-2,-1,-3,-1
1470344239800726,2,1,-3,-4,4,-1,1,-1
1470344239800726,0,1,-2,-3,-2,-3,-3,1
1470344239822749,-2,-1,-3,-5,-3,-2,1,-2
1470344239822749,1,-8,2,2,0,-1,-1,-1
1470344239823746,-1,5,-5,-5,-4,-3,-2,-2
1470344239823746,3,-6,-2,3,7,1,-1,-2
1470344239845430,1,-1,-3,-2,-6,-4,-1,2
1470344239845430,-5,5,-2,4,2,-1,-1,-3
1470344239845430,-2,2,-7,-4,-1,-1,-2,-1
1470344239845430,-1,-5,1,-4,-1,-1,1,1
1470344239859446,-6,4,1,-1,6,2,-2,0
1470344239859446,-5,-9,0,1,-5,-2,0,-2
1470344239860444,-2,-5,6,2,-5,-3,-2,2
1470344239860444,-8,1,-9,-7,-5,-5,-1,-2
1470344239882471,3,-3,0,0,-6,1,-2,-1
1470344239882471,-2,8,-3,2,6,0,0,1
1470344239883466,0,2,-3,7,-2,1,1,-1
1470344239883466,-4,-1,-1,-11,-8,-2,-3,1
1470344239905499,0,1,-3,14,5,0,-1,-4
1470344239905499,0,-2,-1,-3,-3,-1,-2,-2
1470344239905499,8,-6,-7,-3,4,0,0,3
1470344239905499,-4,3,7,6,-4,0,1,-1
1470344239919555,0,-13,-16,-9,1,-1,-3,0
1470344239919555,0,4,4,9,1,1,-1,0
1470344239920498,-3,-1,-3,0,1,-2,-1,-3
1470344239920498,-1,-6,-11,-14,2,2,-2,-1
1470344239943096,1,9,3,11,1,-3,-1,1
1470344239943096,-3,4,-2,2,-1,1,0,0
1470344239943522,-3,-2,-3,-11,-5,-1,-2,-1
1470344239943522,-1,-2,7,-2,-1,-4,-1,-2
1470344239964893,0,5,9,-1,-2,1,-1,2
1470344239964893,2,-9,-25,-10,1,-2,0,1
1470344239965779,-2,-3,-3,-1,-1,-3,-1,-4
1470344239965779,-2,2,4,5,-1,-1,-2,-1
1470344239979794,0,-2,-11,-1,0,-2,-1,-3
1470344239979794,3,0,8,-2,-3,-2,0,-1
1470344239979794,-5,-5,-10,-5,-1,1,-3,-1
1470344239979794,3,1,3,-9,-1,2,-1,-2
1470344240002815,-3,-2,4,3,-3,-3,0,-3
1470344240002815,1,-3,2,-6,-1,0,-1,0
1470344240003814,-5,1,5,8,1,0,1,0
1470344240003814,-2,2,10,12,1,-3,-2,2
1470344240024834,1,-12,-11,-24,-6,-3,-2,-1
1470344240024834,-2,-2,0,0,2,1,1,-1
1470344240025834,1,-1,-7,2,-5,-1,-2,-2
1470344240025834,-2,3,-4,4,-1,-1,0,0
1470344240039896,-3,-2,5,-5,-1,0,1,-1
1470344240039896,1,-2,0,-6,0,-1,-2,1
1470344240040365,1,0,-1,-4,0,1,1,-2
1470344240040365,-3,1,1,-1,-4,-1,-2,-2
1470344240062574,-1,2,-1,7,2,-1,-1,-2
1470344240062574,-1,-2,-1,2,-6,-2,0,0
1470344240063549,-3,-1,8,0,-1,-2,-1,0
1470344240063549,-1,-1,-11,-3,0,0,3,-1
1470344240085663,-6,-2,4,-3,-1,-1,-1,0
1470344240085663,-2,-5,2,-2,-3,-3,-2,-3
1470344240085663,-1,2,-1,7,3,1,0,-2
1470344240085663,1,-3,-6,-4,-2,-3,-1,-1
1470344240099651,0,3,-2,4,-3,1,1,2
1470344240099651,0,1,-5,1,-1,-2,1,-3
1470344240100573,-1,7,2,-12,1,1,-7,1
1470344240100573,0,-2,2,6,1,0,1,-2
1470344240122651,-1,3,-4,-2,-4,-3,-1,-1
1470344240122651,-3,-1,-3,1,-3,-1,-2,0
1470344240123618,2,-9,-1,-4,-2,-2,1,-4
1470344240123618,5,-3,6,-1,-3,-1,-3,-1
1470344240144723,0,-1,2,-2,-2,3,-4,-1
1470344240144723,-2,-5,-6,-6,-4,-2,0,-2
1470344240147062,-1,2,7,5,-3,-3,-3,-2
1470344240147062,-4,2,-9,-12,-5,-2,-3,2
1470344240159072,1,-1,5,4,-4,-2,4,1
1470344240159072,-4,-10,4,2,0,-2,-1,-1
1470344240168080,2,-1,6,3,0,2,-3,-2
1470344240168080,-3,2,-2,4,-1,1,-1,0
1470344240183092,1,-2,-4,-3,-2,-2,-1,0
1470344240183092,2,5,3,-3,-2,2,-1,2
1470344240184092,3,8,-4,3,-2,0,0,1
1470344240184092,-9,-5,-1,-2,3,1,5,-4
1470344240205155,-2,-4,-3,0,1,3,-2,0
1470344240205155,1,1,4,-4,-2,-2,-2,1
1470344240207114,-1,-5,-7,-2,-1,0,2,0
1470344240207114,-1,0,-1,-3,-4,0,7,2
1470344240219128,-3,2,5,-1,0,-4,-10,-3
1470344240219128,0,0,0,1,6,1,1,3
1470344240228136,-4,-4,-3,-6,-3,-1,0,1
1470344240228136,0,-4,4,-4,-1,-1,-3,-3
1470344240243157,-3,-4,-5,-1,-2,0,1,-1
1470344240243157,1,2,5,0,-6,0,-2,-4
1470344240244659,0,1,-3,10,0,-3,1,1
1470344240244659,0,-2,-6,-7,0,0,-1,0
1470344240265183,4,1,8,7,-3,-1,2,-1
1470344240265183,-3,-2,-6,3,2,-1,-3,-2
1470344240267184,-3,-1,4,-11,-4,-4,0,1
1470344240267184,-2,-1,-10,-1,-1,-3,-4,-2
1470344240279194,3,0,6,-3,0,-2,1,-3
1470344240279194,0,0,-4,-1,-1,1,-1,0
1470344240288202,-7,-7,4,-2,-3,-1,-3,-4
1470344240288202,5,-1,3,0,-1,-1,-4,1
1470344240302215,0,0,-3,0,0,-2,-2,-2
1470344240302215,-2,5,-6,-4,-3,-2,0,-1
1470344240304218,-3,-10,-4,10,2,-1,-2,0
1470344240304218,-1,1,-5,-10,-3,0,-3,-1
1470344240325237,-4,-3,-2,-4,-4,-1,1,1
1470344240325237,1,-1,-2,7,2,-2,-2,0
1470344240327255,-2,1,-4,-15,3,2,1,-1
1470344240327255,-1,-4,12,13,-4,-3,-3,-1
1470344240339256,-3,-2,-17,-14,0,-3,-1,-3
1470344240339256,1,-2,0,-3,-2,-1,-1,-1
1470344240348286,1,0,-3,0,-3,-1,-1,0
1470344240348286,-1,-3,-1,-4,-2,-3,-3,0
1470344240363299,1,0,0,1,-1,1,-3,-1
1470344240363299,-1,1,1,2,-1,-1,1,-3
1470344240364298,2,-2,4,-1,-3,-3,0,0
1470344240364298,-2,-2,-1,-1,-2,-2,-2,0
1470344240385368,-2,-1,-3,4,7,0,1,-1
1470344240385368,-2,-4,0,-10,-2,0,-1,-2
1470344240387338,-3,-6,-3,1,-2,-1,-1,-2
1470344240387338,2,1,-3,-6,-3,0,-3,1
1470344240399353,-2,-1,1,6,-2,1,0,0
1470344240399353,-3,0,2,3,-1,-3,-1,-3
1470344240407369,0,-1,-4,-11,-1,0,2,-2
1470344240407369,0,-1,-7,0,1,-3,-2,-1
1470344240421349,-3,-4,3,-3,0,1,-3,0
1470344240421349,-1,-2,-5,1,0,0,-1,0
1470344240430865,-1,1,3,2,-2,-2,-1,0
1470344240430865,0,-2,-3,-2,-2,-1,-2,-2
1470344240445384,1,2,-3,2,2,-2,0,-2
1470344240445384,0,-2,3,-1,-2,-1,-2,0
1470344240446386,1,-1,-1,-5,4,0,-2,0
1470344240446386,-1,-3,-1,3,-1,-2,-2,-3
1470344240459402,3,-4,-7,-5,-5,-2,-2,-2
1470344240459402,-12,-5,-3,-2,-2,-2,-1,-2
1470344240468405,3,0,0,-3,-3,0,-2,-1
1470344240468405,-4,0,-6,0,1,-1,0,1
1470344240482451,-2,1,2,0,-2,-3,-2,0
1470344240482451,4,-2,4,-9,-5,-2,0,0
1470344240484418,-2,-1,-11,-2,-4,-4,-3,0
1470344240484418,-2,0,4,5,4,0,-1,-1
1470344240505460,-1,-2,4,-9,-3,-1,0,-2
1470344240505460,2,2,1,0,0,0,-2,-2
1470344240506438,-6,-2,-5,-5,-2,0,-2,-2
1470344240506438,0,0,1,6,-1,-1,-2,1
1470344240527484,2,-2,3,-4,-3,-1,0,2
1470344240527484,-1,2,-2,3,3,0,0,0
1470344240529460,-7,-8,1,2,0,-1,0,-1
1470344240529460,2,0,2,-6,-1,1,0,-4
1470344240542536,-1,4,-8,0,1,0,-1,-1
1470344240542536,3,-3,-1,0,-4,-2,-1,1
1470344240549080,2,0,0,3,3,-2,0,1
1470344240549080,-1,0,-5,-4,0,1,1,-1
1470344240565117,-3,-6,4,2,-2,0,-1,-3
1470344240565117,-3,-1,-1,-1,1,0,-1,-1
1470344240567070,-1,2,2,1,-3,-1,-4,-1
1470344240567070,-1,-5,0,-4,0,-2,1,-1
1470344240588087,2,1,-1,-1,-1,-2,-2,0
1470344240588087,-14,-9,-4,-6,-3,-1,-1,-2
1470344240589089,2,2,5,4,-1,-1,1,-2
1470344240589089,0,-2,-6,6,-2,-2,-1,-1
1470344240603100,-3,-3,0,-11,-3,3,-2,-3
1470344240603100,-1,-5,1,7,-1,-2,1,0
1470344240604102,-1,-1,1,-1,1,-1,-1,0
1470344240604102,-2,3,0,0,1,1,-1,1
1470344240624120,3,-3,-2,-1,-1,-3,1,-3
1470344240624120,2,2,1,-2,1,-1,-1,-2
1470344240633139,-1,0,-1,5,-1,0,1,-5
1470344240633139,-1,-3,-2,-5,-2,-3,-3,0
1470344240647660,-5,2,-6,2,2,0,-2,3
1470344240647660,4,-1,-1,-3,-1,-1,-2,-3
1470344240649662,-2,3,-1,-1,-3,-1,-2,-3
1470344240649662,-1,-2,-5,-7,-2,-3,0,-3
1470344240661674,-4,-2,9,8,-2,0,1,0
1470344240661674,1,0,-5,-8,0,0,-3,-1
1470344240668679,-1,-2,0,-3,-1,-2,-1,2
1470344240668679,-1,3,4,0,2,-1,0,1
1470344240685694,1,-2,-3,1,-3,-2,-2,-2
1470344240685694,2,-1,0,-2,-1,-2,-2,-2
1470344240686695,-4,3,-4,0,-1,0,-1,1
1470344240686695,-2,0,-3,1,0,2,-1,1
1470344240707714,-3,-3,-8,-5,5,-1,-1,1
1470344240707714,-1,3,1,5,-2,0,-1,0
1470344240709715,2,-2,1,-4,-3,-2,0,-1
1470344240709715,0,3,2,-2,-1,-3,0,-2
1470344240722727,0,-3,-3,-1,-2,-4,-2,1
1470344240722727,-1,-4,-5,-5,-3,1,2,0
1470344240728733,-3,-5,-6,2,2,-3,0,-1
1470344240728733,0,-6,1,-2,-4,1,-1,-1
1470344240745255,-2,4,-1,6,-1,-1,-1,-2
1470344240745255,-2,3,1,-3,2,-2,0,0
1470344240746762,3,-2,2,-4,-3,-1,-3,-2
1470344240746762,-2,-2,-3,2,-1,-2,-3,-1
1470344240767781,-3,0,3,-1,-2,-1,-2,-1
1470344240767781,-1,0,-2,2,-3,-1,-2,-1
1470344240769783,-3,-1,-3,0,-1,0,-1,-2
1470344240769783,-1,-2,0,-5,1,-1,0,-2
1470344240781793,-3,4,0,-2,-2,-1,1,0
1470344240781793,-1,-2,1,13,1,0,-1,1
1470344240788799,-3,0,-2,-15,-4,-1,-1,0
1470344240788799,4,0,-4,-3,-1,-1,1,0
1470344240804813,4,-4,1,-6,-1,-3,-1,-1
1470344240804813,-3,1,-3,0,0,-3,-2,0
1470344240806816,0,-4,2,6,0,1,-2,-1
1470344240806816,-2,0,-6,2,-2,-1,-1,-2
1470344240827836,-1,-2,7,0,-2,0,0,-1
1470344240827836,3,-6,-2,-3,-1,-1,-3,-2
1470344240828835,-2,0,-5,-1,-2,-1,2,-1
1470344240828835,4,-2,-1,1,-2,0,-1,-2
1470344240842357,-5,0,-8,-9,-1,-2,0,1
1470344240842357,1,-3,3,-4,-2,-1,1,1
1470344240848867,-1,1,-2,0,1,-2,-2,-1
1470344240848867,-1,1,0,3,1,0,1,1
1470344240864882,-1,0,-2,0,2,0,0,0
1470344240864882,-2,-3,-4,-1,0,-2,-2,-3
1470344240866884,0,-1,6,5,-1,3,-2,-2
1470344240866884,0,-4,0,-14,-6,-2,-2,-3
1470344240887903,-1,1,-2,7,1,0,0,1
1470344240887903,0,0,2,-7,-3,-1,-1,-1
1470344240888903,-1,-2,-4,1,2,-1,0,-1
1470344240888903,-3,1,3,6,0,2,-2,-1
1470344240909924,0,-6,-3,-6,-4,-2,0,-2
1470344240909924,-3,-1,-4,2,-3,-1,2,0
1470344240911924,0,-2,0,1,-2,-3,-2,-2
1470344240911924,-5,-1,1,-4,1,-2,-1,2
1470344240924935,-1,-2,-3,-1,-3,-1,-2,0
1470344240924935,-1,-2,1,-8,0,0,-3,-1
1470344240926938,-1,1,0,0,-1,2,0,-1
1470344240926938,-1,-2,0,5,-2,-3,-1,1
1470344240947968,-1,1,-3,1,-2,-1,-2,-2
1470344240947968,0,7,0,-2,1,-2,0,-1
1470344240948971,0,-5,8,-4,-1,-2,-2,0
1470344240948971,-2,3,1,4,1,-1,0,2
1470344240960980,-2,-2,-2,0,-1,2,-2,0
1470344240960980,2,-4,-2,0,0,1,-1,-1
1470344240969988,0,1,-6,-3,-1,-1,0,-2
1470344240969988,1,0,1,-2,-1,1,-1,-1
1470344240985002,-1,2,3,3,0,-2,-2,-1
1470344240985002,-4,-4,1,-2,-4,-2,-2,-4
1470344240987004,-1,-4,-6,1,-3,-2,1,-3
1470344240987004,-2,-2,-2,1,-1,-1,-2,-2
1470344241008023,-2,-3,-3,-5,-2,1,0,-2
1470344241008023,1,0,0,4,-1,-1,-1,0
1470344241009023,0,-1,0,0,-1,0,0,1
1470344241009023,-2,-1,0,-3,-1,-2,-1,-2
1470344241021034,0,-4,-1,-3,-2,-2,-1,-4
1470344241021034,0,1,0,2,0,1,-3,-3
1470344241030553,-2,1,-4,1,-1,-1,-2,0
1470344241030553,-2,-2,6,1,-2,-2,-2,-1
1470344241045567,0,1,-2,8,3,-3,2,-1
1470344241045567,-6,-5,-7,-17,-3,-2,-1,-2
1470344241047073,-1,-4,3,3,-3,-3,-1,2
1470344241047073,0,-2,-3,0,0,2,0,-1
1470344241068091,-1,-1,4,-5,-1,-2,0,0
1470344241068091,1,-1,0,8,0,-4,1,-1
1470344241069093,0,-2,-3,-3,-1,-1,-2,-2
1470344241069093,0,-2,-3,-4,-1,0,-2,0
1470344241081105,2,1,0,3,-4,0,-4,0
1470344241081105,-2,-3,-3,2,-2,-1,0,-3
1470344241090111,1,-1,-4,-4,2,0,1,-2
1470344241090111,-2,-2,2,3,0,-2,-1,-2
1470344241105127,3,-3,-7,-1,0,-1,-2,-2
1470344241105127,-1,4,-1,-2,-1,2,0,2
1470344241107127,0,1,5,1,-4,-2,-2,-2
1470344241107127,-3,-3,-3,-8,-2,-2,-1,-1
1470344241128145,-1,-4,3,-2,-1,-1,0,-2
1470344241128145,0,-1,-1,2,-1,1,0,3
1470344241129147,-1,-2,-6,-5,0,1,2,1
1470344241129147,1,-1,2,0,-3,-1,-1,-4
1470344241141667,-4,1,-1,1,0,-1,0,0
1470344241141667,-1,6,-3,1,-2,2,-1,0
1470344241150177,1,-8,0,-2,-2,-1,-2,-2
1470344241150177,0,1,1,1,2,0,-1,0
1470344241165190,-3,-1,-1,2,-2,-2,-3,-3
1470344241165190,0,-3,-1,-8,-1,-5,-1,-1
1470344241167192,-3,0,0,-3,-1,-1,0,0
1470344241167192,-2,-3,-4,4,0,-1,2,1
1470344241187209,-1,2,0,-1,0,0,-1,-1
1470344241187209,0,-8,0,1,0,1,-1,-1
1470344241189212,-1,0,-4,14,0,-1,-3,-3
1470344241189212,-3,-1,-1,-7,-1,-2,-1,-1
1470344241201222,-1,-1,2,-2,-3,1,0,1
1470344241201222,1,-1,-5,1,1,0,-2,0
1470344241210231,-2,0,2,1,-1,-1,-1,-1
1470344241210231,0,-2,-5,-6,-4,-1,0,-2
1470344241225246,-1,-3,-8,-6,-1,0,-1,0
1470344241225246,-3,-4,9,5,-2,0,-2,-2
1470344241227245,-1,1,-3,-2,2,0,-1,-1
1470344241227245,-2,-1,-2,-4,-1,-1,-1,-2
1470344241247274,-1,-2,0,-5,0,-1,0,-2
1470344241247274,0,-8,-2,-4,-1,-1,-1,-2
1470344241249274,1,-2,3,-3,-2,0,-4,1
1470344241249274,-5,2,-4,3,-2,-1,1,-2
1470344241261285,-1,-2,-1,-2,0,0,-1,-1
1470344241261285,0,-2,3,-4,-6,-1,0,-3
1470344241270293,-1,2,0,-3,1,-1,-1,0
1470344241270293,1,-3,1,0,1,0,-1,-3
1470344241285307,-3,-2,-3,8,-2,0,0,3
1470344241285307,-1,-1,0,-3,2,-2,-4,1
1470344241286309,-2,2,1,-4,-3,-2,-1,2
1470344241286309,-1,-4,-1,-2,-3,0,0,-1
1470344241307327,-1,-3,4,-2,-3,0,0,1
1470344241307327,-4,5,-4,3,3,-1,0,0
1470344241309329,0,-4,3,-5,-2,-3,-1,-2
1470344241309329,-1,-4,1,1,-2,0,-1,1
1470344241321341,0,0,-5,-2,-1,0,-1,-1
1470344241321341,2,1,0,-1,-1,-2,0,-2
1470344241330860,1,1,-1,-1,-2,-2,1,-4
1470344241330860,-2,-1,-2,-4,-2,0,-3,-1
1470344241345372,1,-1,1,-3,0,-2,0,-4
1470344241345372,-1,-2,-3,-3,-3,0,1,-2
1470344241347382,-4,-4,-1,5,-2,-1,-1,1
1470344241347382,1,1,-1,-2,-1,-1,-2,1
1470344241366398,-3,1,-5,-3,-1,-1,-1,-1
1470344241366398,-1,-4,2,1,-1,-1,-2,0
1470344241375406,-1,1,-7,-2,-2,-3,-3,-3
1470344241375406,-1,0,1,-5,-1,-1,0,0
1470344241381411,-2,-2,9,3,1,-2,-2,-1
1470344241381411,-2,-2,-10,-7,-2,0,1,0
1470344241390419,-5,0,5,3,2,0,-2,0
1470344241390419,-1,0,-4,-6,1,0,-1,0
1470344241405432,1,-1,5,1,-1,-3,-3,-2
1470344241405432,1,7,-7,4,-2,1,0,-1
1470344241407436,0,-1,2,-3,-2,-1,1,1
1470344241407436,-1,-2,0,-1,0,-1,-3,-1
1470344241427454,0,5,-3,0,-1,2,1,-1
1470344241427454,0,-3,4,7,-1,-1,-2,0
1470344241429458,0,-3,-3,-4,-2,-3,1,-3
1470344241429458,-5,-1,3,0,-3,-3,-1,0
1470344241457491,3,-3,-3,2,0,1,1,0
1470344241457491,-1,0,-6,2,0,-1,1,0
1470344241459493,-9,-2,-7,-25,-2,-1,0,-1
1470344241459493,1,0,2,11,0,-2,0,-1
1470344241464497,3,-2,-7,-4,0,-1,-2,-2
1470344241464497,-8,-5,1,-2,-1,-2,-2,-4
1470344241471503,-1,-1,-3,3,1,-1,2,0
