timestamp,emg1,emg2,emg3,emg4,emg5,emg6,emg7,emg8
1470345934554871,-6,-13,5,-4,-4,-1,-2,-5
1470345934554871,1,8,23,7,-2,-2,1,-1
1470345934555872,1,-4,-6,1,0,-4,-1,0
1470345934555872,-4,-1,-20,-18,2,1,-1,-3
1470345934568884,-1,4,4,27,2,2,1,1
1470345934568884,1,-4,8,-38,-5,-4,-2,-3
1470345934569885,-12,2,23,7,2,-2,0,-2
1470345934569885,7,-3,-29,-6,2,2,1,0
1470345934591910,0,2,-9,0,-4,-1,-1,-1
1470345934591910,-4,-2,13,15,-3,-5,-3,-2
1470345934592910,9,-4,-27,1,-2,-3,-2,-3
1470345934592910,-13,-7,-25,-21,2,3,0,-3
1470345934614938,8,3,4,19,6,7,0,2
1470345934614938,-4,-3,-15,-13,1,2,1,0
1470345934615939,-1,1,-10,-10,3,-2,-1,-1
1470345934615939,-3,-1,34,23,-10,-8,-1,-2
1470345934628951,-3,-3,-11,3,4,-2,-3,-2
1470345934628951,-6,-1,-4,-8,-8,-3,-3,-3
1470345934629952,-4,-2,26,14,-5,-3,-2,-2
1470345934629952,3,1,-55,-21,-3,-1,1,2
1470345934651971,-2,-3,-34,24,11,4,0,0
1470345934651971,0,0,41,-8,-5,-3,-2,1
1470345934652972,0,-6,-34,-19,-5,-4,-3,-3
1470345934652972,-1,3,21,14,-5,-1,-2,-2
1470345934674992,0,1,9,-12,-6,-3,-1,-1
1470345934674992,0,0,-24,8,2,-1,1,-1
1470345934675993,-1,-2,2,-3,-2,1,0,-1
1470345934675993,-4,0,15,5,2,-1,-2,-2
1470345934689510,1,-2,-5,-17,-3,-4,0,4
1470345934689510,-4,-3,-9,8,1,-1,-1,-3
1470345934690512,0,0,11,-5,1,2,0,0
1470345934690512,-1,-1,13,16,3,1,0,0
1470345934712036,-4,-7,-7,-11,-3,-3,-3,-5
1470345934712036,1,1,-1,3,-2,-2,1,4
1470345934712036,-1,-4,-16,2,2,-1,-1,-2
1470345934712036,-2,1,9,4,2,1,-1,-2
1470345934735056,0,-4,-1,-12,-6,-1,-1,-1
1470345934735056,-1,-3,-10,-3,-2,-1,-1,-1
1470345934736058,-1,0,-5,1,1,1,1,0
1470345934736058,3,0,12,7,1,1,0,-1
1470345934749069,-2,-1,-8,-13,-3,0,1,-2
1470345934749069,0,-1,-5,5,1,-1,0,0
1470345934750070,0,0,12,4,1,1,-1,1
1470345934750070,-3,-4,-14,10,-2,-3,-3,-3
1470345934772089,-2,0,2,-17,-3,-1,-3,0
1470345934772089,1,-2,-10,-4,-1,0,0,-1
1470345934772089,0,-2,12,-4,-4,-1,-2,-2
1470345934772089,-3,0,1,1,3,-2,-1,0
1470345934794614,-1,3,2,32,-9,-3,-2,-3
1470345934794614,-1,-5,-18,-28,13,2,-1,-1
1470345934795115,-2,-6,-23,-2,0,-1,-1,-1
1470345934795115,-1,0,3,-12,-5,-3,-1,0
1470345934809137,-1,3,12,3,4,0,-1,0
1470345934809137,-2,-3,-18,6,-11,-4,-2,-4
1470345934810138,-2,-4,-7,-3,-3,-2,-2,-2
1470345934810138,-1,-1,2,-1,1,-1,-2,-2
1470345934832156,-2,1,-2,-12,-4,-2,0,-1
1470345934832156,0,2,9,9,0,-2,-1,1
1470345934832156,-2,1,21,3,3,-1,0,0
1470345934832156,-1,-4,-12,3,-2,0,-1,-1
1470345934855178,-3,-2,4,-12,1,-1,-1,-2
1470345934855178,-1,-1,-9,1,-1,-1,-2,-1
1470345934856178,-1,1,10,3,0,0,-1,-1
1470345934856178,0,1,6,1,0,-1,0,-2
1470345934869189,1,-2,-8,-3,1,-1,0,0
1470345934869189,-2,-5,3,13,-2,-1,-4,-1
1470345934870190,-1,2,13,-13,-3,-2,1,1
1470345934870190,0,-4,-17,-2,-1,-1,-1,-1
1470345934892219,-2,-1,1,-4,1,-1,0,-1
1470345934892219,1,-1,2,18,-2,-2,-1,-2
1470345934892720,0,2,-12,-17,1,1,-1,-1
1470345934892720,1,-3,1,-5,-3,-2,0,0
1470345934915245,-3,-1,11,21,4,-1,-2,-3
1470345934915245,-1,0,-1,-10,-1,-1,-1,-1
1470345934915245,-1,0,-8,-6,-3,-2,-2,-2
1470345934915245,0,2,3,10,0,-1,0,-1
1470345934929259,0,-4,7,2,-2,0,0,-1
1470345934929259,-1,1,-6,-10,-3,0,-1,1
1470345934930260,1,-1,16,-3,-2,-3,-2,-1
1470345934930260,-3,-2,-13,-8,0,0,-2,0
1470345934951279,-1,-1,1,9,0,-2,-1,0
1470345934951279,1,1,-3,0,2,1,1,-2
1470345934952279,-2,-3,-9,5,-2,0,-1,0
1470345934952279,-2,1,11,-2,0,-2,-2,-1
1470345934975299,-1,0,-7,-8,-1,0,-3,-3
1470345934975299,-2,-2,3,-1,-1,0,-3,-1
1470345934975299,-3,-3,-3,4,-1,-2,-2,0
1470345934975299,0,-2,-1,1,0,-1,0,-2
1470345934989318,-1,-1,-5,-6,-1,-2,-1,-2
1470345934989318,-2,-1,0,-3,-6,0,-1,-2
1470345934990319,0,-1,-8,-3,2,-1,-1,-3
1470345934990319,-2,1,10,17,3,1,-2,-1
1470345935011343,-2,-2,-27,-30,2,2,-1,-1
1470345935011343,-5,-5,35,3,-4,-2,-1,-2
1470345935012345,-2,1,-9,6,-1,-2,-2,-2
1470345935012345,0,-4,-7,10,5,-2,-1,1
1470345935035365,-3,-1,10,-14,-3,-4,-1,0
1470345935035365,1,-1,-13,15,4,1,-2,0
1470345935035365,1,0,8,4,-3,-1,0,-2
1470345935035365,-1,-1,-4,-6,-3,-3,-2,-2
1470345935049377,1,-2,-1,1,-4,-1,-1,-1
1470345935049377,-1,-1,-1,-7,0,-2,0,-1
1470345935050378,-2,-2,1,1,0,-2,-2,-1
1470345935050378,-1,-3,1,-8,-1,0,-1,-1
1470345935071396,-1,1,1,4,-3,-1,-2,0
1470345935071396,-1,1,8,-3,-1,-2,-2,-1
1470345935072397,-1,-3,-15,5,-1,1,0,-2
1470345935072397,-2,1,3,-16,-2,-1,0,0
1470345935094925,-1,-1,0,8,-1,-1,0,-1
1470345935094925,0,0,-3,-3,-2,-2,-1,-1
1470345935095926,-1,-2,-5,-3,3,-1,-1,-1
1470345935095926,-2,-1,0,-23,-6,-2,-1,-2
1470345935109445,-3,-3,5,16,-2,-3,-2,-2
1470345935109445,-2,0,-9,-13,-10,-3,-2,-1
1470345935110446,1,5,13,15,5,-2,-2,0
1470345935110446,-1,-11,-64,-21,7,4,0,0
1470345935131466,-2,-2,17,1,-5,-2,-3,-4
1470345935131466,0,0,-4,0,-2,-3,-2,0
1470345935132466,-2,-1,7,-1,-1,0,-1,1
1470345935132466,0,3,15,12,-4,0,0,-1
1470345935155485,0,-2,-16,-2,4,0,-1,-2
1470345935155485,-1,-4,-4,-1,-2,-1,-2,0
1470345935155485,0,1,6,-4,-6,-1,0,-1
1470345935155485,1,0,6,13,0,-1,-1,-2
1470345935177507,-2,0,-6,-5,0,1,0,1
1470345935177507,1,1,9,-9,-1,-2,-1,-1
1470345935178509,-1,-4,-17,-1,-3,-1,0,0
1470345935178509,0,-3,7,5,1,0,-1,-2
1470345935192026,-1,-3,-2,-9,-4,-2,-1,0
1470345935192026,-1,0,-3,2,2,0,0,-2
1470345935193026,-2,-3,-4,15,-1,-1,-1,-1
1470345935193026,-1,2,9,-15,-6,-1,-1,-1
1470345935215074,-2,-1,-1,-1,-1,-1,-2,-1
1470345935215074,-2,-3,-11,1,5,1,0,0
1470345935216076,-1,1,4,4,-4,-2,0,-1
1470345935216076,-1,-1,-4,1,-6,-3,0,1
1470345935229085,2,0,-3,-8,6,2,-1,0
1470345935229085,-2,-2,26,14,-5,-3,-2,-2
1470345935237095,-3,-2,-4,3,0,-3,-1,-3
1470345935237095,-1,-4,2,5,-5,-2,-3,-2
1470345935252109,0,7,-8,-5,0,-1,0,0
1470345935252109,-1,1,-6,-2,0,-1,1,0
1470345935252109,-1,-2,10,-1,-1,0,-3,1
1470345935252109,-3,-3,-18,-10,0,-3,-2,-1
1470345935275128,-2,-5,-3,5,0,0,0,-1
1470345935275128,-2,-5,-8,3,-1,-2,-3,-3
1470345935276129,-2,1,1,-9,-6,-1,-1,-3
1470345935276129,-2,4,15,0,2,1,0,1
1470345935288657,-1,-2,7,1,-3,-1,-1,-2
1470345935288657,2,0,-10,6,1,0,-1,0
1470345935297218,0,0,-4,-14,1,1,0,-1
1470345935297218,-1,-1,-19,1,-1,1,-2,-1
1470345935312231,-1,-6,-10,0,-4,-2,-2,-1
1470345935312231,-1,0,7,-11,-1,-1,-1,-1
1470345935312231,1,-2,-4,-5,-3,-4,-2,-1
1470345935312231,-1,2,26,20,1,-2,0,-3
1470345935335250,2,0,-7,-20,0,0,1,-1
1470345935335250,0,0,1,4,-2,0,1,0
1470345935336251,-3,-1,-1,13,-1,-2,-2,1
1470345935336251,-2,-1,-1,-23,0,0,-1,-1
1470345935348263,0,-1,-5,11,-6,-2,-2,0
1470345935348263,-1,0,-5,-12,0,-1,-3,-1
1470345935357269,-1,-2,-14,-2,-1,-1,-1,-1
1470345935357269,-1,-1,15,9,0,-2,0,-1
1470345935372284,-3,0,5,9,0,-1,-1,-1
1470345935372284,-1,1,-6,-4,-3,0,-2,-1
1470345935372284,0,-1,-2,1,-1,-3,-1,-1
1470345935372284,0,0,0,6,-2,0,-1,-1
1470345935395312,0,-3,1,-10,0,-2,0,0
1470345935395312,-1,-1,3,7,-2,-2,-1,0
1470345935395812,-1,-3,-17,-14,-2,-1,-2,-2
1470345935395812,-1,-1,13,4,-2,-2,-3,0
1470345935408830,1,4,9,4,1,1,0,-1
1470345935408830,-2,-5,2,13,-6,-4,-2,-1
1470345935416838,-1,1,3,-3,0,0,0,-2
1470345935416838,-1,-1,3,-13,3,1,0,-1
1470345935431851,1,-1,-7,-4,-3,0,1,-1
1470345935431851,-2,1,-7,-16,0,0,-1,0
1470345935432852,0,-3,9,3,-6,-3,-1,-1
1470345935432852,-1,3,-1,16,-3,0,-2,-1
1470345935454872,-1,0,-1,-7,4,-1,-2,-1
1470345935454872,-1,-1,-8,-6,0,1,1,0
1470345935455872,-1,-4,0,1,0,-1,0,-2
1470345935455872,0,-1,-7,-4,-2,-1,-1,-2
1470345935468885,2,2,5,2,-2,-2,-1,1
1470345935468885,-2,-7,-21,-1,-1,-1,-3,-3
1470345935476891,-1,3,7,-4,-1,1,-1,-2
1470345935476891,-2,-3,-8,4,-2,-1,-2,-1
1470345935492413,-2,-2,4,-16,-5,-1,-2,-1
1470345935492413,0,-1,-2,5,1,0,0,1
1470345935492913,0,1,8,4,0,2,-1,0
1470345935492913,-3,0,-19,-10,1,-2,-1,-3
1470345935515434,-2,-5,3,8,-4,-1,-2,-3
1470345935515434,-1,-3,-1,-11,0,1,-1,-1
1470345935515934,0,-1,-1,-2,2,-1,-2,0
1470345935515934,1,1,19,7,-4,0,0,1
1470345935529446,-2,-5,-34,-4,0,0,-2,-1
1470345935529446,-1,0,2,12,3,1,0,-2
1470345935536954,-2,-2,4,-18,-8,-2,-1,-1
1470345935536954,-2,-2,-6,6,3,-1,-2,-1
1470345935551966,-2,-1,6,3,-2,-1,0,-1
1470345935551966,1,0,1,2,-2,-1,-1,-1
1470345935552467,-1,-2,-8,3,2,-1,0,-1
1470345935552467,-1,-1,-3,-3,-1,-1,1,0
1470345935574990,-2,-3,21,-1,-3,-2,-4,-2
1470345935574990,0,0,-8,0,0,-1,-2,-2
1470345935575992,-2,-1,11,0,-2,-2,-2,-1
1470345935575992,0,-1,-21,1,-2,-2,-1,-1
1470345935589003,-2,-1,-3,-8,0,-1,0,0
1470345935589003,0,-1,5,-2,1,2,-1,-1
1470345935597011,-5,-3,-1,4,0,1,-1,-2
1470345935597011,-1,-2,8,1,-2,-1,-2,-1
1470345935612024,2,1,-6,4,0,-1,0,0
1470345935612024,-3,-4,-25,-13,-1,0,-1,-1
1470345935612024,0,1,-8,1,-1,-2,0,-2
1470345935612024,-2,0,5,-1,1,0,0,-2
1470345935635045,0,1,6,7,-1,-2,0,0
1470345935635045,0,0,18,-6,-2,-2,-2,-1
1470345935636046,0,-4,-25,-4,-1,-1,0,-1
1470345935636046,0,0,8,-3,-2,-3,0,-1
1470345935657571,0,0,-4,-5,0,-2,-1,-2
1470345935657571,-2,2,7,10,-2,-3,-1,0
1470345935658571,-2,-4,7,7,-3,1,-3,-1
1470345935658571,0,-1,-1,-9,-2,-1,-1,0
1470345935672087,0,-1,7,-4,8,2,2,0
1470345935672087,-1,-3,-30,-11,-6,-3,-2,-2
1470345935672087,-6,0,17,9,-4,-2,0,-2
1470345935672087,10,3,-7,-4,3,0,-1,0
1470345935695106,9,0,1,9,-2,-2,-2,1
1470345935695106,-5,3,-2,-4,2,0,1,0
1470345935695106,-1,-7,5,-12,-3,-3,-2,-1
1470345935695106,-12,-7,-21,2,-7,-3,-3,0
1470345935717128,2,1,19,3,-2,-2,-2,-1
1470345935717128,0,2,10,-1,0,2,0,-2
1470345935718129,5,0,-22,-6,2,1,0,1
1470345935718129,4,0,5,3,0,-1,0,-1
1470345935732156,-6,-5,-15,-16,-4,-1,-2,-4
1470345935732156,-4,-3,2,3,-4,-2,-1,0
1470345935733142,-3,2,7,-1,3,0,0,-1
1470345935733142,-2,0,3,21,-1,-1,1,0
1470345935755169,-2,0,-29,-15,-2,-1,0,1
1470345935755169,-3,-7,-1,-2,6,-1,0,-4
1470345935756168,1,-1,10,-12,-4,-4,-2,-1
1470345935756168,0,-1,2,-9,-2,-2,-1,-1
1470345935777195,-4,0,1,11,0,0,-1,-1
1470345935777195,4,0,5,-4,-4,-3,0,1
1470345935778194,-1,2,-10,10,-1,-2,-2,-1
1470345935778194,2,-3,2,-18,6,5,1,0
1470345935792205,-3,-5,-8,-1,-2,-2,-2,-4
1470345935792205,-1,-1,-1,4,-2,-1,-2,-2
1470345935792205,-3,-2,-9,7,5,1,-1,0
1470345935792205,5,1,3,-2,-7,-3,-1,1
1470345935815226,-7,-2,3,-1,-1,1,-1,-1
1470345935815226,-4,-2,5,11,0,-1,-1,2
1470345935815226,2,1,-6,-13,-2,-1,-1,-2
1470345935815226,-5,-2,-2,-7,2,-1,-1,-2
1470345935837248,-1,-3,8,5,-2,-3,-4,-2
1470345935837248,7,0,4,6,-5,-4,-1,-3
1470345935838246,-4,1,-11,-3,1,0,-1,0
1470345935838246,0,0,16,-6,-1,2,-2,0
1470345935851797,4,2,2,2,-3,-2,0,1
1470345935851797,-12,-1,0,-5,-6,-1,-1,-1
1470345935852784,-1,-1,-8,-6,8,2,-1,-2
1470345935852784,1,-3,-7,0,-1,0,-1,-2
1470345935875364,-11,-4,5,10,-1,-4,-3,-5
1470345935875364,8,0,-3,-5,-3,0,-2,1
1470345935875364,2,3,11,1,-4,0,0,2
1470345935875364,-9,-7,-24,-1,-6,-3,-2,-5
1470345935897359,4,1,6,-14,-1,-2,-1,1
1470345935897359,4,1,-2,4,4,1,0,1
1470345935898356,-11,-3,5,2,-1,0,-2,-5
1470345935898356,-7,-2,6,5,2,0,-1,-6
1470345935911370,-9,-2,-3,-5,-1,2,-2,-5
1470345935911370,-3,-6,-11,0,-4,0,-1,-1
1470345935912368,10,1,0,-13,-2,0,-1,2
1470345935912368,8,5,11,14,1,-1,-1,1
1470345935935419,-17,2,-8,4,2,0,0,-2
1470345935935419,-8,-2,10,-10,0,-1,-1,-1
1470345935935419,-4,-15,-7,-10,-9,-4,0,0
1470345935935419,6,1,-2,-2,-5,-2,-1,-2
1470345935957939,19,3,1,-1,-5,-1,-1,3
1470345935957939,4,4,6,1,0,-1,-1,1
1470345935958451,-6,-4,-4,4,-1,-3,-2,0
1470345935958451,-9,1,-5,-10,-3,-5,-1,-2
1470345935972014,-2,-8,-1,4,0,1,0,-1
1470345935972014,0,0,-3,3,-1,-3,0,-3
1470345935972993,-2,6,4,-4,-5,-1,-1,-3
1470345935972993,7,-5,-5,-6,5,1,-2,4
1470345935994011,1,-1,-4,-1,0,0,2,0
1470345935994011,0,-1,1,4,-13,-12,0,0
1470345935995012,-3,0,0,18,19,8,-1,-3
1470345935995012,-5,-6,-1,-17,-11,5,0,0
1470345936018058,3,5,-8,-3,6,2,1,0
1470345936018058,-9,-10,-7,-3,0,-2,2,3
1470345936018058,0,-2,-1,-6,-9,-7,-2,-7
1470345936018058,-6,-9,-2,0,-3,-5,-1,1
1470345936032088,4,-2,2,3,2,2,-3,-2
1470345936032088,4,7,1,6,3,2,0,0
1470345936032088,2,6,15,0,-3,-1,1,2
1470345936032088,-9,-1,-26,-17,10,5,0,-8
1470345936054705,-12,4,1,7,-14,-12,-1,0
1470345936054705,10,1,-6,-8,14,14,-2,-1
1470345936055164,-1,-4,6,-2,-4,-5,0,0
1470345936055164,-13,2,26,13,-10,-9,-2,-1
1470345936077268,2,-12,-16,-3,8,10,-3,-1
1470345936077268,4,12,5,-2,3,2,0,1
1470345936078228,0,-16,-4,-2,-6,2,-1,0
1470345936078228,7,1,1,5,5,-3,0,0
1470345936092248,-13,-5,-2,-2,-6,-10,-4,-9
1470345936092248,-1,-3,3,-11,-5,7,-1,-2
1470345936092248,11,9,-5,6,5,3,-1,1
1470345936092248,-10,2,1,-3,-6,-9,-2,-1
1470345936114304,6,0,0,5,-5,-5,0,2
1470345936114304,-3,-2,-4,14,-2,-4,-2,0
1470345936115261,16,4,-6,-33,4,1,1,-1
1470345936115261,-8,-2,0,1,5,3,-2,-1
1470345936137342,11,-1,3,-3,-4,-2,0,3
1470345936137342,-11,-6,1,-1,-1,1,-1,-2
1470345936138283,-2,-2,-6,12,-7,-5,0,3
1470345936138283,3,4,-10,0,-4,-5,-2,-2
1470345936152316,-5,0,-5,-14,4,3,1,-1
1470345936152316,3,3,8,2,-4,-4,-2,0
1470345936152816,-4,3,-2,4,-4,-3,-2,0
1470345936152816,-3,-13,4,0,-4,-7,-2,2
1470345936173916,-8,-8,-2,2,1,15,-3,-2
1470345936173916,-2,-5,-7,-8,3,-4,-3,-4
1470345936174919,7,3,2,6,-1,-6,2,4
1470345936174919,5,10,-2,1,0,11,1,-2
1470345936197937,-19,-11,4,-3,-2,-9,0,4
1470345936197937,-2,2,5,-7,-29,-19,-2,-5
1470345936197937,10,2,-2,0,25,16,-3,1
1470345936197937,-4,-5,0,3,-6,-5,0,-3
1470345936211957,3,1,1,-3,1,-3,0,3
1470345936211957,-1,-3,-3,-3,-3,-3,1,-3
1470345936212998,-10,4,-2,-4,-5,-7,-2,-5
1470345936212998,12,4,-2,-7,-5,2,-1,0
1470345936234025,-2,-4,3,-8,10,3,1,-2
1470345936234025,-2,-6,-7,7,10,4,0,2
1470345936234988,0,-2,-2,-2,-11,-2,0,-1
1470345936234988,-1,-1,3,2,8,2,1,-2
1470345936257555,2,2,1,3,-8,-3,-3,0
1470345936257555,1,4,-11,-9,-3,-3,0,-2
1470345936258549,-10,-6,0,11,0,-5,-1,-4
1470345936258549,7,-10,-1,-9,-4,8,2,3
1470345936271596,6,23,11,15,-3,-9,0,0
1470345936271596,0,-3,-6,-8,21,20,0,0
1470345936279605,-5,-7,-8,-4,-13,-7,-1,-2
1470345936279605,1,-9,-2,4,7,-7,0,0
1470345936294616,-14,0,-4,-4,-3,0,1,-4
1470345936294616,3,1,-4,-1,-3,-3,-3,-3
1470345936294616,-18,1,3,-2,-6,-2,-3,-1
1470345936294616,3,-4,-11,-5,-1,1,-3,-1
1470345936317655,6,-7,-3,15,-2,-1,-2,1
1470345936317655,0,-7,4,-22,0,-6,-2,0
1470345936318639,-1,7,-16,2,1,2,-1,-1
1470345936318639,-1,-15,0,15,-4,-3,-3,-2
1470345936331658,-1,7,4,-20,-1,-3,0,0
1470345936331658,-10,-7,-7,7,-5,-3,-3,-5
1470345936339665,-1,-4,3,-8,-5,-4,-1,-2
1470345936339665,-2,-3,-5,-2,-1,1,-3,-2
1470345936354737,4,7,1,2,2,1,0,-3
1470345936354737,3,1,4,6,2,-3,-1,1
1470345936355225,4,-3,-1,-7,0,0,-1,2
1470345936355225,-7,9,9,2,-4,-4,-2,-1
1470345936377798,8,-11,-12,0,0,0,-3,-2
1470345936377798,-11,-1,0,3,-3,-4,-1,0
1470345936377798,3,1,2,-1,0,2,-1,-2
1470345936377798,-7,7,1,-6,-5,-3,0,-2
1470345936390812,10,-2,4,7,1,3,-1,1
1470345936390812,4,6,7,1,6,9,2,2
1470345936399815,9,-19,-26,-11,-3,-5,1,0
1470345936399815,-9,9,3,-9,2,1,-1,0
1470345936413831,-5,-10,-8,-4,-7,-10,-1,-3
1470345936413831,3,-2,0,7,-4,-5,-2,2
1470345936414831,-6,4,14,4,3,4,-2,-3
1470345936414831,9,-4,-3,0,-5,-5,-1,2
1470345936437864,-6,4,1,8,-5,-1,-1,-2
1470345936437864,5,24,3,-11,2,1,0,2
1470345936437864,-6,-43,-7,-1,-1,-1,-3,-2
1470345936437864,-4,-2,-4,-8,0,-1,0,-2
1470345936450874,-3,-4,0,13,4,1,0,-1
1470345936450874,5,-1,-11,-12,-3,-2,0,-1
1470345936459872,-4,14,14,9,-4,-4,-2,0
1470345936459872,-10,-2,0,-4,-3,1,-1,-2
1470345936473906,7,-5,-12,-10,0,0,-2,-1
1470345936473906,-4,-9,1,1,-5,-4,-2,-2
1470345936474904,-2,5,3,7,2,-1,-1,-2
1470345936474904,7,10,9,6,0,-1,1,2
1470345936497924,-1,4,-13,-7,0,-2,-2,-2
1470345936497924,-4,-12,-6,2,-2,-2,0,-4
1470345936497924,-3,-1,0,0,1,0,-1,5
1470345936497924,3,10,6,7,2,0,0,-5
1470345936510953,0,-4,-2,-22,-1,1,-1,-1
1470345936510953,-15,-7,-2,3,-5,-5,1,-4
1470345936518958,7,12,5,2,-1,2,0,3
1470345936518958,1,-10,-10,-3,-2,-1,0,1
1470345936533973,5,-7,2,0,0,-2,-1,-2
1470345936533973,-26,-1,0,3,1,2,-1,0
1470345936534974,3,3,5,-4,-4,-1,1,-4
1470345936534974,-2,-7,-6,22,2,-2,0,0
1470345936557999,0,-2,-12,-19,-2,-1,-3,0
1470345936557999,7,0,3,-17,1,1,-1,0
1470345936558499,-11,0,-1,3,1,-3,-1,-4
1470345936558499,-1,-3,-8,-5,-5,0,-2,0
1470345936580028,-1,1,5,10,-2,-1,1,-2
1470345936580028,4,-4,2,4,-3,-1,-1,-1
1470345936582031,-1,0,-2,-9,-3,0,-1,-1
1470345936582031,3,0,-1,-6,-1,-2,-2,-2
1470345936594041,-6,-1,-4,2,0,0,-1,0
1470345936594041,2,-3,2,-1,-4,-5,-2,-3
1470345936603049,0,1,-10,2,-1,1,0,-2
1470345936603049,-5,-2,8,-12,-2,0,-2,0
1470345936618121,-4,-9,5,-1,1,-2,-2,0
1470345936618121,8,4,1,10,7,0,0,2
1470345936619066,4,2,-3,-7,-14,-5,-1,-1
1470345936619066,-3,-1,0,2,1,-2,-2,-1
1470345936640148,0,6,6,1,9,0,1,0
1470345936640148,-6,-2,-11,1,-2,0,0,-2
1470345936642088,1,-8,3,2,5,0,0,-1
1470345936642088,5,-1,-2,-10,-12,1,-3,0
1470345936654256,-8,1,6,8,-5,-1,-1,-1
1470345936654256,7,-7,-14,-9,1,-3,-2,0
1470345936662671,-1,0,-9,-16,0,-4,0,1
1470345936662671,0,2,-4,-12,-5,-2,-1,-2
1470345936677289,9,0,6,9,4,-1,0,-1
1470345936677289,-28,-5,7,2,-7,0,0,-2
1470345936679243,2,0,3,6,-4,-1,-1,0
1470345936679243,2,-1,-21,6,5,-3,-2,-1
1470345936700317,-2,-1,3,-9,-4,0,-1,-1
1470345936700317,5,1,4,4,-9,-2,-1,-1
1470345936701263,-7,2,7,4,4,-3,0,-2
1470345936701263,6,0,5,2,6,0,0,0
1470345936713333,-2,0,3,0,-7,2,0,0
1470345936713333,0,1,-2,-3,2,1,-1,-2
1470345936723286,0,2,2,1,-4,-1,-1,0
1470345936723286,-2,-8,4,-3,1,-2,0,-2
1470345936737338,0,3,-19,-5,-5,-6,-2,-2
1470345936737338,15,6,9,5,1,2,0,1
1470345936739299,-8,-4,-7,-7,2,0,-2,-4
1470345936739299,-14,-6,-2,8,-7,-3,-2,-2
1470345936760409,0,-1,7,-8,3,2,-1,-1
1470345936760409,-3,-5,3,-4,-1,-2,-1,1
1470345936761867,1,-5,-10,-2,-2,-2,-2,0
1470345936761867,2,-1,-2,10,7,-1,0,1
1470345936782442,-5,3,-14,-2,-8,-4,-1,-2
1470345936782442,2,-1,24,8,-2,-1,-1,-2
1470345936784435,2,2,-16,-3,-3,-1,-2,-2
1470345936784435,-4,7,18,-8,0,0,-1,-3
1470345936797448,0,-10,-4,-1,-2,-2,0,0
1470345936797448,2,1,-9,-4,1,-3,-1,0
1470345936799449,-2,3,12,0,-2,0,0,-1
1470345936799449,2,4,-4,-4,-1,0,0,0
1470345936820467,0,-1,0,1,0,0,-1,-2
1470345936820467,3,2,-8,-4,-1,-1,-2,-1
1470345936821469,-1,-5,0,5,1,1,0,0
1470345936821469,0,-4,-7,-1,0,0,-1,0
1470345936833534,-5,-1,3,-5,-2,0,-1,-1
1470345936833534,-1,-2,-6,2,0,-2,0,-2
1470345936842528,-7,-2,-5,-5,-3,0,-3,-3
1470345936842528,-1,3,-2,0,-2,-3,-1,-1
1470345936858072,-1,1,-2,9,-2,-2,-2,-1
1470345936858072,-5,-11,-4,-1,-3,-1,-2,-3
1470345936859566,-1,0,-5,0,3,2,-1,0
1470345936859566,3,-2,1,-27,-1,-3,0,-1
1470345936879693,-5,3,11,12,-1,-2,1,-2
1470345936879693,-1,-1,-7,-8,-4,0,-3,-1
1470345936881639,-2,-10,13,25,3,0,0,-2
1470345936881639,2,13,-10,-16,-3,1,-1,0
1470345936893697,-4,6,-6,-7,-4,-1,0,1
1470345936893697,-1,-4,-7,8,3,-3,0,-1
1470345936902658,4,0,2,-11,-4,-2,1,-1
1470345936902658,3,-2,8,16,0,-2,-1,-1
1470345936917726,-9,-1,-1,-5,0,1,0,-2
1470345936917726,0,4,-12,-9,-1,-1,-2,-1
1470345936918673,1,-2,0,-1,-2,-1,-1,2
1470345936918673,-9,-6,-4,14,1,1,-1,-4
1470345936939691,13,-8,4,-5,2,0,-1,-2
1470345936939691,2,10,-6,-9,-4,-1,-1,-2
1470345936941694,0,2,0,-3,0,-1,-2,-2
1470345936941694,-3,-12,-3,-3,-6,-3,-1,0
1470345936953816,1,1,-2,5,2,-1,-2,0
1470345936953816,-5,-7,2,9,-1,-2,-2,0
1470345936962773,5,6,-6,-16,-3,-3,-1,1
1470345936962773,-3,3,3,8,0,-1,-2,-2
1470345936977831,-5,-11,-10,-4,1,1,-2,-3
1470345936977831,3,5,-7,-15,-1,0,0,1
1470345936978833,0,2,3,10,-3,-1,-1,0
1470345936978833,-4,-20,-4,-5,-3,-2,-1,-4
1470345936999912,-3,2,4,10,-1,0,-1,-1
1470345936999912,0,-9,5,-2,1,-3,1,0
1470345937001854,-5,-6,-6,-7,-2,-2,-3,-3
1470345937001854,-5,-6,-1,-4,-2,-1,0,0
1470345937013865,9,-9,-5,-4,-2,-1,-1,0
1470345937013865,1,21,11,7,1,2,1,1
1470345937022917,-2,-11,-11,-2,-1,0,-2,-2
1470345937022917,-4,-3,1,0,-2,-2,-1,-2
1470345937037894,-3,5,-2,-6,-2,-2,-2,-3
1470345937037894,-9,-16,-1,0,-2,-1,-2,-1
1470345937038886,-5,5,12,0,0,-1,-2,-1
1470345937038886,12,-1,-30,3,2,0,-2,-1
1470345937060460,-18,-10,-2,6,-2,-3,-1,-2
1470345937060460,-4,-12,-4,-15,0,0,-1,0
1470345937061962,3,18,1,-8,0,1,0,1
1470345937061962,5,12,14,4,2,-1,-2,2
1470345937073975,7,29,-6,0,-1,-1,-1,-2
1470345937073975,-4,7,8,8,3,0,-1,-3
1470345937082983,-1,-9,0,8,0,-2,0,-1
1470345937082983,-4,-3,-8,-12,-2,-3,-2,-3
1470345937097997,-1,-9,-2,1,-4,-2,-3,-2
1470345937097997,2,-9,2,0,-1,0,-1,0
1470345937098998,7,19,-4,0,-1,-1,1,-4
1470345937098998,-5,4,9,3,-1,0,1,0
1470345937120021,-7,-15,0,-9,0,0,-1,-1
1470345937120021,7,-1,-11,-5,-4,-1,-1,1
1470345937122019,-5,-17,-6,-2,-2,-2,-1,-2
1470345937122019,1,-4,1,2,0,0,2,1
1470345937134045,-2,-1,6,-5,-1,0,-2,-2
1470345937134045,-2,-2,1,0,-1,-2,0,-1
1470345937143037,4,-41,1,-1,-2,-1,-1,0
1470345937143037,6,7,-5,-5,-4,-1,-3,-1
1470345937158058,-5,4,1,-5,-2,0,-1,-1
1470345937158058,1,9,1,10,1,-2,-2,-1
1470345937159559,7,-15,-21,-18,-2,-2,-1,-1
1470345937159559,0,-3,3,4,0,-1,1,-2
1470345937179734,-3,-6,8,-7,-2,0,-1,0
1470345937179734,4,9,-24,2,-3,-4,-3,-2
1470345937181706,-12,-13,11,-2,-2,-1,-2,-3
1470345937181706,-1,4,-1,2,2,3,0,2
1470345937193759,3,14,4,4,0,-2,0,-3
1470345937193759,-3,-26,2,0,-2,-1,-1,0
1470345937202723,-2,33,3,3,-2,-2,0,-4
1470345937202723,-2,1,-6,-6,-2,0,-1,-1
1470345937217788,3,-7,-5,1,-1,-1,-3,-1
1470345937217788,-2,-13,5,-2,-1,-1,0,0
1470345937218738,1,0,-16,2,-1,0,-1,2
1470345937218738,-10,3,10,1,0,-1,-2,-5
1470345937239772,5,1,-1,-3,0,-1,-1,-1
1470345937239772,2,-5,2,-5,-1,-2,-1,-2
1470345937241760,3,14,6,4,0,-1,0,-1
1470345937241760,-6,29,2,0,-3,-2,0,-1
1470345937253771,4,-15,10,-3,-3,-2,-1,-2
1470345937253771,-10,9,5,3,-1,1,-1,-2
1470345937262785,-3,-20,-3,-1,-1,-2,0,0
1470345937262785,8,-16,3,4,-4,-3,-1,-1
1470345937277867,1,0,-10,-5,2,-1,0,-1
1470345937277867,-3,13,-2,-9,-5,1,-1,-3
1470345937278869,6,20,-1,1,0,0,1,2
1470345937278869,-3,-3,7,-5,-1,1,-3,-3
1470345937299931,0,2,-5,0,-2,-1,-1,2
1470345937299931,-3,-14,-5,11,5,0,0,-1
1470345937301889,-1,8,4,14,3,-1,-1,-1
1470345937301889,-1,-2,-1,-20,-2,1,-2,0
1470345937313941,-6,-17,-6,-2,-1,-1,0,-2
1470345937313941,-2,-3,4,-1,-2,-2,0,-3
1470345937322932,-4,-16,-6,-3,-1,-1,0,-1
1470345937322932,-6,-6,1,7,2,0,0,-2
1470345937337922,11,-13,3,1,0,0,-1,1
1470345937337922,-7,8,-7,-10,-2,-2,-1,-3
1470345937338922,2,6,1,14,0,-2,-3,-1
1470345937338922,1,-15,-8,-37,-3,-1,-3,0
1470345937360048,1,21,-10,2,-5,0,1,1
1470345937360048,4,-9,-1,0,-2,-1,-2,-1
1470345937366507,-7,8,8,0,-2,-1,-2,-3
1470345937366507,-7,-6,-2,11,1,-1,0,0
1470345937373641,-5,0,2,-18,-3,-3,-1,-4
1470345937373641,3,15,8,-1,1,0,-1,1
1470345937382587,-4,-4,-7,3,-2,-2,-3,-3
1470345937382587,8,0,-1,11,3,1,1,0
1470345937397600,0,-1,-3,-12,-3,-2,-1,0
1470345937397600,-3,2,-5,9,1,0,-2,-1
1470345937405608,1,0,3,-8,-3,-1,1,-1
1470345937405608,-6,-5,-1,6,1,1,-1,-3
1470345937419620,-6,4,0,-2,6,4,0,-2
1470345937419620,2,-1,5,-3,-4,-3,1,-1
1470345937421623,0,-4,-7,10,9,3,-2,1
1470345937421623,-5,9,-4,-17,-9,-5,1,1
1470345937433649,-1,-2,0,4,-4,-2,-1,-1
1470345937433649,4,-11,-1,-3,5,-1,-2,-1
1470345937442641,-11,3,1,3,-3,-3,-1,-4
1470345937442641,-2,-3,-8,-15,-3,-1,-2,-1
1470345937457227,7,2,2,10,4,1,-1,1
1470345937457227,-2,-24,-23,-11,-5,-2,-3,0
1470345937463734,0,0,7,5,-3,-3,-1,-2
1470345937463734,1,-2,-2,-9,-4,-1,1,-1
1470345937480328,-8,-1,2,-9,-1,0,0,-1
1470345937480328,6,6,2,-7,-5,-4,0,1
1470345937481269,2,0,-1,5,3,1,-1,-2
1470345937481269,0,-1,2,2,1,-1,-2,-1
1470345937493282,3,0,2,9,-6,-6,-2,-2
1470345937493282,-6,-1,-3,11,3,1,-2,-2
1470345937502289,-4,-5,-9,-21,0,1,1,0
1470345937502289,2,2,8,17,-4,-4,-2,-1
1470345937517315,-5,-2,-2,5,11,6,-2,-1
1470345937517315,1,9,-3,-14,2,1,-2,-1
1470345937523341,-1,-3,0,-9,8,8,2,0
1470345937523341,-5,-4,-2,6,-5,-4,1,0
1470345937540378,-1,1,-2,11,6,-2,0,-3
1470345937540378,-3,-1,5,2,-9,-3,0,-2
1470345937541324,2,0,3,-2,-4,-4,-2,-1
1470345937541324,2,-1,-8,-1,-1,-1,-1,-1
1470345937562861,-3,4,2,-2,-7,-5,-1,1
1470345937562861,-5,-6,0,3,-3,-2,-1,-3
1470345937564359,-5,-1,2,-9,-4,-4,-2,-1
1470345937564359,-5,-4,-4,5,0,-1,-1,-2
1470345937576931,8,1,-2,-5,-5,-5,-1,-2
1470345937576931,3,4,2,11,1,0,0,1
1470345937583939,-5,-1,-1,-15,-3,-1,1,0
1470345937583939,5,2,-1,-12,2,1,0,0
1470345937599953,-10,-2,5,0,2,-1,-2,-3
1470345937599953,-1,1,10,-2,-3,1,1,0
1470345937601913,3,-1,-10,-7,-3,-2,1,0
1470345937601913,-4,-4,8,5,1,-1,-2,-3
1470345937622934,5,-2,-16,-18,-6,0,0,-1
1470345937622934,-5,4,12,20,4,-1,-1,-2
1470345937623933,-5,-5,-2,1,-5,-1,-3,-1
1470345937623933,3,-14,-9,-3,2,1,-1,-2
1470345937637034,1,7,5,0,9,2,0,0
1470345937637034,-2,-3,-4,-5,-21,-15,-1,-3
1470345937643998,9,0,4,-8,9,8,-1,1
1470345937643998,-12,-3,-8,9,-8,-8,-3,-4
1470345937660026,-3,-8,-2,22,-10,-10,-1,2
1470345937660026,-2,-1,-5,-37,10,20,1,0
1470345937662027,7,2,3,-2,-15,-5,0,-1
1470345937662027,-3,7,-1,18,20,5,0,-1
1470345937682612,-7,-3,-2,-4,-10,-11,0,0
1470345937682612,3,-1,-2,9,-4,-1,-2,-1
1470345937684613,-1,3,-1,-14,0,-5,-1,0
1470345937684613,2,2,-1,-15,-2,2,1,-1
1470345937696625,-3,-7,-5,2,0,1,0,-1
1470345937696625,-3,-4,1,-6,3,1,-2,1
1470345937703632,3,1,5,-1,-3,0,-2,-1
1470345937703632,6,-2,-10,2,-6,-6,-2,-1
1470345937720645,-14,-2,-4,-6,-10,-9,-3,-4
1470345937720645,4,3,1,-19,19,14,1,0
1470345937722646,-5,-3,-2,11,-4,-4,0,0
1470345937722646,2,0,6,-8,-3,-2,-2,1
1470345937742690,6,0,-6,-6,-4,3,0,0
1470345937742690,6,4,-6,2,-4,-7,-5,-2
1470345937743666,-19,-7,-4,16,6,-4,-3,-5
1470345937743666,-3,0,3,12,1,5,2,0
1470345937757291,-1,-3,-2,-12,-3,3,-1,-2
1470345937757291,-6,-4,-1,-9,6,-7,0,-2
1470345937763763,3,-1,-14,-19,-13,-2,-1,-1
1470345937763763,-1,1,6,7,-3,-1,-2,0
1470345937780281,1,-3,-1,1,6,1,-2,0
1470345937780281,2,2,10,19,-9,-3,-1,-1
1470345937781264,-1,-3,-14,-21,0,-1,-1,-1
1470345937781264,-3,-4,-4,7,3,-2,0,-1
1470345937802297,3,0,3,-11,-2,6,1,0
1470345937802297,2,4,6,10,-29,-24,-2,-2
1470345937804284,-2,0,-1,-4,42,28,2,1
1470345937804284,-4,-3,-3,3,1,-5,0,0
1470345937816321,0,-1,6,5,-4,-2,-1,-1
1470345937816321,0,-1,-4,0,-10,-13,-3,-1
1470345937825302,-4,0,0,-9,-16,-7,-3,-2
1470345937825302,3,-2,4,-3,5,8,-2,-1
1470345937840359,-2,-5,-4,-6,8,2,0,-1
1470345937840359,1,-2,3,2,2,2,-1,2
1470345937841319,9,3,7,9,2,-5,-1,-1
1470345937841319,-2,4,-3,-18,-10,-2,-4,-1
1470345937862929,-2,-4,1,13,5,4,0,-1
1470345937862929,-7,-2,-10,-21,7,4,1,-1
1470345937864429,3,-7,5,11,-5,-6,-2,-1
1470345937864429,1,8,-7,-9,-14,-8,-5,-2
1470345937876065,1,3,5,-3,4,-2,0,-1
1470345937876065,1,-1,-5,1,8,5,0,0
1470345937885033,-6,-3,-1,9,-2,0,2,-1
1470345937885033,0,-3,12,-13,-4,-1,-3,-2
1470345937900105,2,2,-6,10,8,0,-1,0
1470345937900105,3,-1,-16,2,2,5,0,-2
1470345937902047,-4,-6,8,2,-10,-8,-3,-4
1470345937902047,9,1,4,2,-10,-2,0,1
1470345937923066,-20,1,2,-8,-11,-14,-3,-3
1470345937923066,2,-3,-3,-13,8,11,0,-2
1470345937924067,-5,0,5,-8,-10,-4,-1,0
1470345937924067,3,-1,-5,0,-1,-5,0,1
1470345937936167,5,1,9,13,-2,1,0,-1
1470345937936167,-9,-8,-13,7,-2,-5,-3,-4
1470345937945085,9,0,-4,3,0,-2,-2,0
1470345937945085,-2,2,6,-7,-5,2,0,-2
1470345937960198,1,3,-7,0,5,1,1,0
1470345937960198,-6,-9,10,5,0,1,1,-1
1470345937961695,-3,2,3,11,-6,-1,-2,-2
1470345937961695,0,-2,-15,-6,6,0,0,-2
1470345937982763,4,-1,10,7,2,1,-2,0
1470345937982763,4,5,-1,-6,0,0,-1,0
1470345937983721,-3,-2,4,-3,-3,-4,-1,1
1470345937983721,-3,-4,6,14,-1,-1,0,-3
1470345937995772,-2,1,-26,-36,-9,1,-1,-4
1470345937995772,-1,0,5,9,-1,-4,-2,-2
1470345938004778,-4,-2,1,-4,-9,-5,-1,0
1470345938004778,-4,1,-2,9,11,5,1,-2
1470345938019796,3,-3,1,-7,-8,-2,-3,-1
1470345938019796,-3,-1,2,7,0,-3,-1,-2
1470345938021758,1,3,3,9,14,3,-1,-1
1470345938021758,-2,0,-2,-1,-2,1,0,-1
1470345938042818,-3,-7,-10,-1,-8,-4,-2,-2
1470345938042818,1,-1,3,-5,-1,-1,0,-1
1470345938043775,-3,4,-1,-6,3,2,0,-2
1470345938043775,0,-4,-2,2,4,0,1,0
1470345938056315,-2,-7,-1,15,-6,-4,-2,-1
1470345938056315,-3,1,0,-16,-5,-4,-3,0
1470345938065334,1,-2,-1,-1,3,1,0,0
1470345938065334,-5,-4,3,0,-4,-2,-3,-1
1470345938079874,8,-3,2,-3,-1,5,1,2
1470345938079874,-10,-3,-9,7,0,-3,-1,-1
1470345938081864,-2,-4,-10,-14,-1,-2,-3,-1
1470345938081864,-5,-7,0,-1,-5,-2,-2,-3
1470345938102883,-6,4,-4,-3,6,4,1,-4
1470345938102883,7,7,19,3,-7,-1,-1,2
1470345938103884,2,-11,-28,-9,4,-2,-1,-2
1470345938103884,0,5,8,4,3,0,1,1
1470345938115900,1,3,-5,-12,6,-1,-2,0
1470345938115900,0,-3,11,26,-6,-2,-1,-1
1470345938124904,-4,0,4,-30,-8,-3,-1,-3
1470345938124904,6,-4,-7,10,-1,-2,-1,1
1470345938139956,-1,-3,5,13,8,-1,-1,0
1470345938139956,-3,-5,3,-16,-6,1,-1,-2
1470345938141921,5,7,3,18,1,-2,-2,-3
1470345938141921,-2,-1,-9,-14,-3,-1,-1,-2
1470345938162998,-1,-8,7,-12,0,3,-2,0
1470345938162998,-1,3,-4,-1,-7,-3,0,-2
1470345938164500,-3,-2,3,20,16,4,0,0
1470345938164500,-1,-7,-14,-11,-1,-2,-3,-2
1470345938176074,-3,-1,9,5,-7,-4,-1,-2
1470345938176074,4,4,-8,-9,5,0,0,2
1470345938185023,-4,-2,-6,3,-7,-4,-3,0
1470345938185023,6,1,0,-18,-5,-3,-1,1
1470345938200081,-3,5,5,2,-8,-2,-1,-2
1470345938200081,0,4,-11,-1,10,2,1,0
1470345938202038,-5,-7,9,-2,-10,-2,-1,-3
1470345938202038,-3,2,-5,2,3,-2,-1,-2
1470345938223058,1,2,-2,0,-7,-1,-2,-1
1470345938223058,-3,-3,2,4,1,-1,-1,-1
1470345938224060,-1,0,-9,0,-5,-3,-1,-2
1470345938224060,-5,0,5,10,-1,0,-1,-2
1470345938236124,4,1,2,-4,1,-2,1,0
1470345938236124,0,-5,1,2,2,-1,-1,-2
1470345938245082,-5,-3,-17,-10,-3,-3,-1,0
1470345938245082,-4,-3,15,-1,-3,-3,-3,-3
1470345938260156,-4,-2,-4,15,-3,-2,-1,-2
1470345938260156,4,4,-8,-14,-1,0,-2,0
1470345938261657,1,-3,4,17,0,-2,0,0
1470345938261657,0,-3,-10,-11,-4,-1,0,-1
1470345938282778,-26,-7,-8,2,-10,-2,-1,-3
1470345938282778,-1,-4,-2,2,10,1,0,-1
1470345938283746,4,3,-6,2,-13,-4,-2,-2
1470345938283746,0,-2,-5,-6,13,2,0,1
1470345938295799,10,-2,-4,-18,-3,-2,1,1
1470345938295799,-7,-4,1,1,-7,-1,-2,-3
1470345938304769,-2,3,1,-8,0,-2,-1,-3
1470345938304769,1,4,3,15,1,-2,-1,-1
1470345938319778,2,4,-2,-9,1,-1,-3,0
1470345938319778,0,-7,4,-16,-5,1,-1,1
1470345938321781,-2,-2,5,10,6,1,0,1
1470345938321781,0,-3,-2,-10,-6,-3,-2,-4
1470345938342801,3,3,-1,6,4,2,0,1
1470345938342801,-4,-3,-7,-12,-7,-4,-1,-1
1470345938343799,-2,-3,5,9,-1,-2,-1,-1
1470345938343799,-2,1,11,10,0,1,1,0
1470345938356375,1,2,-24,-5,4,1,0,-2
1470345938356375,0,-3,6,2,-4,-2,-2,-1
1470345938365347,2,-3,-2,-10,-7,-3,-1,-1
1470345938365347,-7,-1,3,0,2,-1,-2,-2
1470345938379376,4,-4,-1,4,0,-2,-1,-2
1470345938379376,5,2,-9,7,-4,-2,-3,1
1470345938386383,10,1,6,-3,3,2,-2,-1
1470345938386383,-18,-3,-10,-1,-8,-3,0,-1
1470345938402430,0,-2,13,-3,5,-1,-1,-3
1470345938402430,-3,-3,-1,10,-1,-2,-1,-2
1470345938404400,-2,0,-14,-2,5,4,2,1
1470345938404400,6,-6,-4,13,-3,-2,-2,-1
1470345938416412,-1,6,-1,-2,4,-3,-3,2
1470345938416412,-5,-6,-2,-17,-26,-16,-2,-3
1470345938425418,-5,-1,1,1,14,10,0,-3
1470345938425418,2,3,-9,-5,-11,-5,2,0
1470345938439431,5,2,15,12,11,1,1,2
1470345938439431,0,1,5,-11,-5,-2,-2,-1
1470345938453453,-3,-2,-2,-4,-7,-4,-1,0
1470345938453453,-2,-3,-8,-9,-1,1,-1,-2
1470345938462965,-2,-2,-12,-8,-10,-3,-1,-3
1470345938462965,-1,0,6,14,5,-5,-2,-1
1470345938464467,0,4,5,-24,3,6,1,0
1470345938464467,2,3,-2,6,3,4,-1,-3
1470345938485050,-5,-10,-4,-6,-13,-6,-1,0
1470345938485050,0,-2,-12,17,16,0,1,-1
1470345938486049,-5,2,6,0,-4,-1,0,1
1470345938486049,10,1,8,0,-6,-1,-1,0
1470345938499085,-4,-4,-3,-8,2,-1,-1,-1
1470345938499085,3,-1,-2,0,-4,2,-1,-2
1470345938506083,6,2,9,11,-5,-7,-2,-1
1470345938506083,-22,0,-8,-11,4,0,-2,-2
1470345938523080,-3,-3,-7,1,-3,-3,0,-1
1470345938523080,-2,-4,-1,-14,4,10,0,-1
1470345938524081,3,0,-2,8,-17,-15,-1,0
1470345938524081,-5,-9,8,-4,19,15,0,-2
1470345938545100,-1,5,6,6,-3,-6,-1,-1
1470345938545100,-5,4,-4,-4,-5,-5,-1,-1
1470345938546101,-2,-5,2,-8,-7,1,-2,-2
1470345938546101,4,2,5,13,2,-4,1,-1
1470345938559620,3,0,-2,-25,-3,-2,-2,0
1470345938559620,2,0,3,14,7,1,0,-2
1470345938566626,-1,-3,-8,-5,-1,-2,-1,0
1470345938566626,-3,-2,-6,-3,-13,-10,-4,-1
1470345938582671,8,3,2,-2,11,17,0,1
1470345938582671,-9,-5,-3,-5,-7,-1,1,0
1470345938583670,-4,-1,-5,-4,-3,-4,-2,-2
1470345938583670,4,0,-1,2,-6,-5,-1,1
1470345938604720,-3,-6,-5,2,-3,-5,-3,-4
1470345938604720,-2,-1,-8,-11,-5,1,-2,0
1470345938606694,-4,-3,0,13,6,1,-1,-3
1470345938606694,5,-1,7,-3,5,-2,-2,1
1470345938619786,1,1,3,-3,-5,-1,-1,0
1470345938619786,0,-1,-4,4,1,3,-3,-1
1470345938626755,-4,-4,-5,-7,-3,-1,-2,-3
1470345938626755,1,-1,6,-1,-6,-6,-1,0
1470345938642779,-2,1,2,21,5,-1,0,-1
1470345938642779,-2,1,-5,-9,4,3,2,-3
1470345938643724,0,-1,11,15,-1,-1,-2,0
1470345938643724,-1,-3,-21,-31,-3,0,-1,0
1470345938665305,-1,-5,1,6,-5,-3,-2,-2
1470345938665305,0,-4,3,-3,-3,-2,-2,-2
1470345938666790,-4,-3,-7,1,-2,-2,-1,-3
1470345938666790,1,-1,-7,4,0,1,-1,-1
1470345938679822,-5,-5,-8,-3,0,-1,-1,-3
1470345938679822,0,1,8,7,-1,-2,-2,-2
1470345938685827,2,3,-3,-15,-1,-1,0,-1
1470345938685827,1,4,19,6,-1,0,0,-1
1470345938702848,-2,-25,-39,-16,-1,-2,-1,-1
1470345938702848,-10,5,7,2,1,-1,0,0
1470345938703845,6,2,3,-1,-1,-1,-1,0
1470345938703845,-1,-3,1,-1,-2,-1,-2,-1
1470345938724863,-2,21,21,5,-1,-1,1,0
1470345938724863,0,1,0,-4,-1,-2,-1,-1
1470345938726866,-2,-7,-15,-5,-6,-2,0,-2
1470345938726866,2,-2,4,1,1,0,-2,-1
1470345938739876,0,5,3,18,0,-2,-1,0
1470345938739876,0,-7,-8,-27,-13,-7,1,0
1470345938745890,-1,0,0,-2,22,11,0,0
1470345938745890,0,-2,-7,-5,-5,1,2,0
1470345938762900,-3,0,4,0,-5,-4,-2,-2
1470345938762900,0,0,3,13,2,3,0,0
1470345938764402,4,-7,-2,-5,-13,-10,-3,-2
1470345938764402,-2,-2,-7,0,4,1,-1,0
1470345938784928,-2,-4,4,-2,5,4,0,0
1470345938784928,0,-5,-3,-8,-1,-1,-1,-2
1470345938786931,0,5,-3,-1,0,0,0,0
1470345938786931,3,-3,-4,1,-2,0,-2,0
1470345938798980,-1,0,8,-4,-5,-3,0,0
1470345938798980,2,1,-16,2,4,0,-1,-1
1470345938807946,3,-5,1,2,-4,0,-2,-1
1470345938807946,-2,-1,4,-3,-5,-4,0,-3
1470345938822960,-2,-1,2,-2,0,-2,-2,-2
1470345938822960,-1,5,-2,5,2,-1,-1,0
1470345938823961,-8,-13,16,0,-2,0,-1,-1
1470345938823961,-1,4,-1,2,-1,-2,-3,-1
1470345938845033,-1,0,-7,13,1,0,-1,-2
1470345938845033,2,-3,-1,-1,1,-1,0,-2
1470345938847029,-3,0,3,-4,2,0,-1,0
1470345938847029,-5,7,7,-2,-1,-1,0,-3
1470345938859080,3,-7,-7,-2,-2,1,-1,-1
1470345938859080,1,2,2,-5,3,0,-2,-1
1470345938868083,-7,3,-14,14,2,0,1,0
1470345938868083,-5,-3,-4,-6,-3,-2,-1,-2
1470345938882182,0,2,1,-8,-3,-2,-2,0
1470345938882182,-2,0,10,8,-5,-4,-2,-2
1470345938884155,-6,-19,-16,-24,0,-1,-2,-3
1470345938884155,0,10,2,3,-1,1,-1,1
1470345938905218,1,4,-6,-7,-5,-1,0,-1
1470345938905218,-4,7,5,3,1,0,-1,-1
1470345938906177,12,5,4,7,-3,-1,-2,0
1470345938906177,-17,-13,-5,-5,-3,0,-1,-1
1470345938918241,12,6,6,-6,-1,0,-2,-1
1470345938918241,-16,-22,-6,4,0,-3,-3,-5
1470345938927240,0,24,8,-8,-2,1,2,0
1470345938927240,2,3,0,4,0,-2,-1,-4
1470345938942232,2,-6,-2,-2,-1,-3,-3,-1
1470345938942232,6,17,2,3,-1,-2,-1,-1
1470345938944209,0,-15,-3,-5,-4,-3,-3,-3
1470345938944209,6,12,-3,-12,-1,-2,-1,0
1470345938965268,-7,-9,0,-7,1,-1,-1,-1
1470345938965268,4,9,4,6,-2,-2,-2,1
1470345938966750,-3,4,1,0,-3,-2,-1,-1
1470345938966750,-4,-10,6,8,0,0,-2,-2
1470345938978278,-2,-7,-12,-9,1,-2,0,-2
1470345938978278,0,-6,-3,-4,1,-1,0,-1
1470345938987274,0,5,-6,0,-2,-1,-1,-1
1470345938987274,1,-7,9,3,-2,-2,-1,-2
1470345939002330,-3,13,7,2,0,0,0,-2
1470345939002330,-2,-11,-6,-10,-4,-1,-2,-1
1470345939004292,-8,-14,-4,8,2,-2,0,-1
1470345939004292,10,-1,-7,-3,3,1,-2,-2
1470345939025331,-11,-11,0,-2,-2,0,0,-3
1470345939025331,-1,6,-4,-12,0,2,0,-2
1470345939026311,-4,1,1,-5,-4,-1,0,2
1470345939026311,1,-15,-6,1,-1,-2,1,1
1470345939038324,4,42,8,2,-2,0,-2,-1
1470345939038324,-2,-15,-2,9,-1,-3,-2,-2
1470345939047328,0,-1,1,2,1,1,1,-1
1470345939047328,-19,-4,-6,1,1,-1,-2,-3
1470345939062921,-4,-8,-2,1,-3,-2,0,0
1470345939062921,-3,-3,-8,-1,0,1,-1,-2
1470345939064457,4,-2,1,-1,-1,-1,-2,-2
1470345939064457,4,13,-3,-5,-1,-2,-2,1
1470345939085476,-1,-2,11,4,0,-1,1,0
1470345939085476,0,1,-3,-4,-2,0,0,0
1470345939086478,-3,-13,-1,5,-3,-2,-2,-3
1470345939086478,1,-3,-3,-11,2,2,0,-1
1470345939098493,-4,-9,-9,-6,-6,-3,-1,1
1470345939098493,9,2,-2,-3,-1,0,0,-1
1470345939107506,-2,0,1,-5,-6,-4,0,1
1470345939107506,-1,2,0,12,1,-2,-1,0
1470345939122510,0,2,-1,15,8,1,-1,-3
1470345939122510,-3,-14,-10,-14,-2,-1,-2,-1
1470345939124512,-3,5,1,8,0,-1,0,-2
1470345939124512,-10,-8,-6,-9,-5,-3,-2,-3
1470345939145543,-3,-1,8,-2,-4,-3,-1,0
1470345939145543,3,-2,4,6,0,-1,-1,0
1470345939146532,-3,12,7,1,-1,-1,-2,-1
1470345939146532,7,-4,-9,0,-2,1,0,1
1470345939159061,2,-8,-13,-8,-1,0,0,3
1470345939159061,6,10,4,1,-3,-1,0,0
1470345939168060,-11,-8,-11,-14,0,-2,-2,-4
1470345939168060,-7,-22,6,4,-1,0,-3,-3
1470345939182669,-1,15,-2,-2,-1,-1,-1,-1
1470345939182669,2,-1,4,-3,-5,0,1,-1
1470345939183580,3,4,0,16,3,-1,-2,2
1470345939183580,-1,0,-10,-19,-3,-2,-1,-1
1470345939204654,-7,-16,-1,-4,-4,-1,-2,-2
1470345939204654,1,1,0,4,1,-1,-1,1
1470345939206602,4,1,3,-5,-1,0,-2,0
1470345939206602,1,1,-1,3,-3,-3,0,-2
1470345939218666,-1,-2,0,-1,-1,-2,-1,-2
1470345939218666,-3,-3,0,-4,0,-1,0,0
1470345939227654,5,-1,2,-6,1,1,-1,0
1470345939227654,-6,-5,-14,15,0,-1,0,-3
1470345939242674,-2,4,6,-19,-5,0,-1,-2
1470345939242674,-4,4,-4,6,1,0,-2,-3
1470345939243634,1,4,-2,-4,-4,-1,-2,-1
1470345939243634,7,0,3,10,-2,-4,-1,1
1470345939265217,-1,-12,3,-1,3,-1,-1,-1
1470345939265217,-7,-5,-10,0,0,-1,1,0
1470345939266713,-3,-5,-1,8,-1,-1,-1,-4
1470345939266713,4,13,8,-15,-3,0,2,1
1470345939279303,-5,-15,-6,12,0,0,0,-2
1470345939279303,1,7,3,-7,-1,-1,-1,-2
1470345939287311,-4,-18,-3,-4,-2,-3,1,-2
1470345939287311,1,-3,1,11,5,1,0,-1
1470345939302378,2,7,5,-12,0,-2,-3,-1
1470345939302378,0,-3,1,3,-5,-1,-1,1
1470345939304326,0,-11,-6,-12,-5,-3,-1,-1
1470345939304326,-11,1,-19,-9,1,-3,0,-3
1470345939325395,0,-2,-2,7,1,1,-1,0
1470345939325395,-2,-6,3,-1,-3,-2,-2,-2
1470345939326346,1,5,8,3,-1,-2,-2,-1
1470345939326346,4,4,5,-2,0,0,-2,2
1470345939338405,4,-5,-3,-5,-3,-2,0,-2
1470345939338405,-4,-7,-1,-1,-1,1,-1,-2
1470345939347399,1,13,-6,2,0,-1,0,0
1470345939347399,-2,3,5,-1,-2,0,-1,-2
1470345939362926,-1,-8,-7,9,0,-1,-1,-2
1470345939362926,4,-3,-1,-10,-2,-3,-1,1
1470345939364474,-4,-1,2,-4,-1,0,1,-2
1470345939364474,2,0,1,-2,-1,-1,-1,0
1470345939384606,0,-2,0,3,-5,-3,0,0
1470345939384606,0,6,2,-6,0,0,-1,-2
1470345939386609,-4,-5,-18,-3,-2,-1,0,-3
1470345939386609,-2,-7,6,0,0,0,-3,0
1470345939398667,-1,2,3,-2,0,-2,-2,-1
1470345939398667,-2,2,-1,1,-3,-1,1,0
1470345939408628,1,5,6,-7,-1,-2,-2,0
1470345939408628,2,-4,-4,1,-3,-1,0,-2
1470345939422641,-1,3,3,0,-1,-1,-1,1
1470345939422641,4,0,-2,0,1,-1,0,-1
1470345939423641,-5,1,6,-3,-5,-1,-1,-1
1470345939423641,-1,1,-1,1,-1,-1,-1,0
1470345939444674,0,-4,4,-5,0,0,-1,-1
1470345939444674,-6,-10,-10,-3,-5,-3,-3,-3
1470345939446661,2,6,3,1,3,1,-1,-2
1470345939446661,-2,-7,0,6,-3,-2,-1,-3
1470345939467697,-2,-1,2,-11,-2,0,1,0
1470345939467697,-2,2,-1,4,4,-1,-1,-1
1470345939469198,-5,-9,-5,-4,-3,-1,-1,-1
1470345939469198,-2,-8,1,-3,-2,-1,0,-2
1470345939482263,-1,0,-3,4,0,-2,-2,-2
1470345939482263,-4,-4,0,1,-2,-2,0,-3
1470345939484244,5,2,-4,1,1,0,0,-1
1470345939484244,-2,3,2,-2,-2,-2,-1,1
1470345939505279,-6,-4,-7,-1,-1,-1,-1,-1
1470345939505279,3,-1,-1,-1,-1,-1,-2,0
1470345939506261,1,-3,0,5,-2,-1,-1,-1
1470345939506261,0,2,5,-4,-2,-1,-1,0
1470345939527298,9,5,-9,0,0,0,1,-1
1470345939527298,-24,0,3,0,0,-1,-2,-2
1470345939529319,0,-6,-5,1,1,-1,-1,-2
1470345939529319,-1,11,2,-3,-2,0,-1,0
1470345939542303,-3,3,10,0,-2,-1,0,-1
1470345939542303,1,-16,-5,0,-3,-1,-1,0
1470345939544297,-1,-5,-15,-2,-3,-2,-1,-1
1470345939544297,-1,6,2,-4,-2,0,-1,-2
1470345939565419,6,-3,-3,-2,0,-1,-2,-2
1470345939565419,6,-2,6,7,1,1,0,0
1470345939566919,-13,3,3,-2,0,0,0,0
1470345939566919,3,-3,-1,-2,-1,-3,0,-1
1470345939587496,-8,-6,2,-3,-5,-2,-3,-2
1470345939587496,4,1,-1,7,-1,0,-2,-1
1470345939589443,4,4,-5,-18,-2,0,-1,-1
1470345939589443,-2,-3,1,0,-2,0,1,-2
1470345939601455,-4,-5,-22,-7,-1,0,-1,-2
1470345939601455,1,4,13,4,1,-1,-1,-2
1470345939608491,1,0,7,7,0,-2,-2,1
1470345939608491,0,-3,-19,-11,-1,-1,-2,-2
1470345939625475,-3,-5,0,1,2,0,0,1
1470345939625475,-2,-5,-10,-4,-3,0,-2,0
1470345939626477,-1,-1,11,2,-1,-3,0,-1
1470345939626477,2,-2,4,2,0,0,-1,0
1470345939647581,0,5,10,5,0,0,0,0
1470345939647581,2,7,-5,-3,-1,-1,0,-1
1470345939649515,-2,1,1,-3,-1,-1,-1,-3
1470345939649515,0,-3,-4,0,1,-1,-1,-1
1470345939662069,-4,2,5,0,-1,-1,-2,-1
1470345939662069,-2,4,21,-1,-4,-2,-2,-2
1470345939676709,1,-2,-12,-2,-2,-1,-1,-2
1470345939676709,1,-4,-7,-2,-2,-3,-2,-2
1470345939684705,-1,-2,-2,-2,-1,-1,-1,-1
1470345939684705,2,3,7,3,1,1,1,0
1470345939686648,-2,-4,-23,-9,-1,-1,-2,0
1470345939686648,-2,6,24,4,-3,-1,-2,-1
1470345939707736,-4,-14,-29,-3,-2,-1,0,0
1470345939707736,0,10,0,-11,0,-1,-2,-2
1470345939711672,-1,-7,12,16,1,-1,-2,-2
1470345939711672,1,1,0,-4,3,1,-2,0
1470345939720679,3,15,-5,-9,-5,-1,-1,0
1470345939720679,-6,-6,-5,-8,-5,-3,-2,-1
1470345939729743,-3,-2,3,3,2,-1,-2,1
1470345939729743,-6,1,-4,3,-1,0,-2,-2
1470345939744759,9,2,7,4,1,-1,-1,0
1470345939744759,4,-3,-14,-4,-2,0,0,2
1470345939746744,0,4,3,-4,-4,-1,-1,-1
1470345939746744,-7,-9,-2,-1,-1,-3,-1,-3
1470345939767879,-13,-6,-1,0,0,-2,-1,-3
1470345939767879,9,-7,4,2,0,-1,-2,-1
1470345939769390,2,3,-10,-4,0,0,0,1
1470345939769390,-1,-6,-13,-8,-2,-1,-2,-2
1470345939781514,0,0,0,-3,-1,-1,-2,-2
1470345939781514,0,6,20,5,1,0,0,0
1470345939790469,-2,2,-18,4,1,2,1,0
1470345939790469,-3,-4,33,5,-3,-1,-1,-2
1470345939805479,-1,0,-5,9,0,-2,-1,0
1470345939805479,-3,-4,-17,-24,-2,-2,-3,-3
1470345939806482,-2,-6,19,12,-4,-2,-1,1
1470345939806482,2,2,-20,-1,1,0,-1,-2
1470345939827504,0,2,27,7,0,1,-1,0
1470345939827504,-6,-2,-11,-8,-1,-3,-1,-2
1470345939829513,-2,-6,-5,-5,-1,0,-1,-1
1470345939829513,8,26,45,18,4,0,2,3
1470345939841590,-1,-9,-38,-7,-2,-1,-2,-1
1470345939841590,-6,-16,-13,-11,-6,-2,-2,-3
1470345939850522,0,9,32,2,-1,-1,-1,-1
1470345939850522,1,-4,-7,-5,1,-2,-1,0
1470345939865617,4,5,13,-2,5,5,3,5
1470345939865617,-7,-4,23,21,-4,-4,-3,-3
1470345939867047,3,6,6,24,1,0,-2,2
1470345939867047,-4,-12,-31,-36,-5,-2,-3,-1
1470345939887176,-1,5,53,7,0,-1,0,2
1470345939887176,5,7,0,25,3,1,2,1
1470345939889141,-5,-8,-18,-27,-3,-1,-2,-1
1470345939889141,1,12,11,6,2,1,0,-3
1470345939901189,1,-5,-53,-15,0,0,0,-7
1470345939901189,0,2,-22,11,0,-2,-1,17
1470345939910156,0,-2,11,-1,-1,-2,1,1
1470345939910156,-5,-11,-37,-7,-7,-5,-3,-1
1470345939925224,-1,0,13,2,-3,0,-1,1
1470345939925224,-1,12,30,-4,1,2,0,-5
1470345939926169,-1,-7,-53,-13,-1,0,-1,-2
1470345939926169,-3,-7,-12,-6,-3,-1,-1,2
1470345939955250,-5,-8,9,5,-2,-4,-2,-3
1470345939955250,-1,7,-4,-4,-1,1,-2,-3
1470345939956194,0,0,22,5,0,0,-1,-1
1470345939956194,0,10,-6,3,0,-2,-2,-2
1470345939961268,-4,-4,8,3,-2,-1,-2,-1
1470345939961268,-2,-5,-8,-6,-1,-2,1,-3
1470345939970721,1,1,-6,-15,-1,-2,-1,-2
1470345939970721,3,6,18,16,1,1,-1,0
1470345939984781,-2,-4,-36,-19,-2,-4,-2,-3
1470345939984781,-1,-4,-19,-11,-3,0,1,-1
1470345939986784,1,5,30,19,-1,0,-2,-2
1470345939986784,-2,4,21,-1,0,0,0,1
1470345940007842,2,-1,-36,-18,1,1,0,0
1470345940007842,-3,-7,-15,-11,-3,0,-2,-6
1470345940008802,1,8,16,11,-2,-2,-1,-1
1470345940008802,-1,0,-10,-1,-2,0,0,-3
1470345940020813,1,4,36,14,3,0,-2,1
1470345940020813,3,21,-29,-15,5,2,1,2
1470345940029821,-9,-16,-45,-33,-11,-5,-5,-5
1470345940029821,0,4,71,40,3,-2,0,-1
1470345940044838,-3,-9,-33,-10,-5,-3,-2,-3
1470345940044838,3,-2,17,4,1,2,1,1
1470345940046837,-2,-7,-24,-8,3,0,-1,1
1470345940046837,-2,-8,-33,-10,-2,-3,-1,-2
1470345940067897,-3,-2,42,8,-1,-3,0,-1
1470345940067897,-4,-7,-2,-1,-2,-1,-3,-2
1470345940069363,3,10,5,2,3,0,2,1
1470345940069363,-6,-25,-27,-12,-2,-2,-3,-2
1470345940081378,-2,7,-10,12,-4,-2,-4,-2
1470345940081378,-6,-7,-30,-22,-5,-3,-3,-3
1470345940090390,2,6,20,-1,1,0,0,1
1470345940090390,-3,-11,1,-5,-3,0,-2,0
1470345940106405,-1,0,4,5,1,1,0,1
1470345940106405,2,3,45,13,2,-3,-1,-1
1470345940108403,-5,-15,-26,-5,-3,-2,-3,-2
1470345940108403,-1,-6,-11,5,-1,-2,0,-3
1470345940127453,-1,1,-15,-2,-1,-1,-1,-2
1470345940127453,-1,-7,-12,7,-2,-1,-2,-1
1470345940129436,0,3,26,-4,2,0,-1,-2
1470345940129436,-2,4,-22,-9,-3,-1,-1,1
1470345940141463,1,13,8,-6,-3,-3,-3,0
1470345940141463,-1,-4,17,11,0,-3,1,-2
1470345940150442,-1,0,5,-2,0,1,-1,-1
1470345940150442,0,4,6,-3,-1,3,-1,0
1470345940165548,-5,-13,-4,-4,-6,-4,-2,-2
1470345940165548,-1,1,-7,-15,-2,-1,-1,0
1470345940167016,1,2,3,14,0,-2,-1,-2
1470345940167016,3,-4,-8,-9,3,-1,2,0
1470345940187633,2,10,18,25,1,0,-2,-1
1470345940187633,-4,-15,5,-8,-1,-2,-2,-4
1470345940189624,-1,10,-50,-14,-4,-1,-2,-2
1470345940189624,2,-2,39,-3,1,0,0,1
1470345940201590,0,-7,-28,-28,1,0,-1,0
1470345940201590,-1,8,2,10,-3,-1,-1,-4
1470345940210600,0,7,46,28,1,0,1,1
1470345940210600,-5,-30,-70,-22,-7,-5,-3,-3
1470345940224666,0,14,1,2,-1,-1,-1,0
1470345940224666,-3,1,-2,1,-1,-1,-1,1
1470345940226613,-4,-23,12,-6,-1,-3,0,0
1470345940226613,-1,18,34,17,2,2,0,-1
1470345940247632,-5,-22,-31,-17,-4,-2,0,-3
1470345940247632,-3,-7,4,0,-3,0,-3,-2
1470345940248634,3,14,-4,0,0,0,-1,-2
1470345940248634,-1,1,6,11,-1,-2,0,-2
1470345940261152,-4,-4,11,-11,-3,-1,0,-1
1470345940261152,1,-4,-3,3,0,0,-1,-2
1470345940270659,-1,-2,-1,-2,0,-2,-2,-2
1470345940270659,-2,0,-7,-3,-2,-2,-1,-1
1470345940284678,1,4,9,-11,-2,1,-1,-2
1470345940284678,2,4,7,17,3,0,0,2
1470345940286681,-5,-20,3,11,-4,-3,-1,-1
1470345940286681,0,6,-25,-14,-3,-2,-3,1
1470345940307711,-1,0,17,17,2,0,0,0
1470345940307711,-1,-1,-1,-12,1,-2,-1,-2
1470345940308699,-2,-7,6,6,0,0,1,-1
1470345940308699,1,3,-18,2,-1,-1,0,0
1470345940321709,3,6,-2,1,0,-1,0,0
1470345940321709,1,8,2,-6,-3,0,-1,0
1470345940329717,-2,-4,-12,-3,-3,-1,-3,-2
1470345940329717,0,-1,1,-5,-1,-2,-2,-2
1470345940344745,-2,-6,-12,-10,-1,-3,-1,0
1470345940344745,-2,-7,-6,-6,-1,-2,-1,-2
1470345940346733,-4,-28,-13,7,-3,-3,-2,-3
1470345940346733,-3,3,-6,-6,-2,1,-1,-3
1470345940367787,4,-3,6,4,-2,0,-2,-1
1470345940367787,-3,7,-18,-7,-2,1,-1,0
1470345940369270,2,2,21,4,-1,1,1,0
1470345940369270,-1,-9,-8,-4,-1,0,-1,-2
1470345940389794,-3,1,11,10,-1,0,0,-1
1470345940389794,-1,-10,-9,-7,-1,-2,0,-2
1470345940391796,0,10,9,-6,-1,0,0,1
1470345940391796,-4,-9,-8,4,-2,-3,0,-1
1470345940405807,1,3,2,-3,2,0,1,0
1470345940405807,1,-2,-2,-1,-1,0,-2,-1
1470345940410811,1,8,-6,-7,-2,-1,-1,0
1470345940410811,2,-1,-12,0,0,-1,-2,0
1470345940427827,-7,-9,6,-1,-2,-2,-2,-2
1470345940427827,-2,-12,0,2,-1,-3,0,-2
1470345940428827,-1,9,4,1,-2,-2,-1,-3
1470345940428827,2,3,-2,-5,0,1,-1,1
1470345940449846,1,3,-10,-9,-3,0,-1,1
1470345940449846,-3,1,19,12,-2,-4,0,-2
1470345940451848,-2,2,-11,-6,0,0,0,-2
1470345940451848,-2,-3,8,-2,-1,-2,-2,-2
1470345940465365,-2,-5,-7,3,-2,0,-3,-4
1470345940465365,2,7,7,-3,-1,-1,-1,-1
1470345940466868,-2,-3,-8,-8,-2,-1,-2,-1
1470345940466868,-3,-4,18,6,-1,-2,-2,-3
1470345940487893,0,-2,-6,-2,-1,-3,-1,-2
1470345940487893,1,0,-7,-3,-1,-1,-1,-1
1470345940488894,-2,-3,-2,-6,-1,-1,-1,-2
1470345940488894,3,17,17,4,-2,1,-1,-1
1470345940509914,-2,-4,-4,-4,0,-1,-2,-3
1470345940509914,1,-1,-17,-4,-1,0,-3,2
1470345940511916,0,2,-5,0,-1,-1,0,2
1470345940511916,2,13,10,-4,-2,0,0,-1
1470345940523927,1,-1,8,7,-1,-1,-1,0
1470345940523927,-4,-9,-4,2,-1,2,-1,-3
1470345940530932,4,-2,-9,-6,0,0,-1,-1
1470345940530932,1,-1,4,3,0,-2,-1,-1
1470345940547946,-2,-1,-6,1,-2,0,-1,0
1470345940547946,-2,2,7,0,0,-2,-1,-1
1470345940548947,-1,-3,5,-1,-1,-1,-2,-1
1470345940548947,-1,-6,5,1,1,-1,0,0
1470345940570557,1,2,-3,0,0,-3,-1,-1
1470345940570557,-1,-5,4,3,-1,-1,-1,-1
1470345940572006,-3,2,-4,-2,-2,-2,-1,0
1470345940572006,-4,-9,-4,-1,-1,-1,-2,0
1470345940584037,2,0,11,3,-1,-1,-1,-1
1470345940584037,-1,0,-14,0,-1,-1,-2,-1
1470345940591042,-2,-5,6,-2,-3,-2,-2,0
1470345940591042,-2,-2,-2,-2,-1,-1,-1,-2
1470345940608041,-2,6,-4,-4,-1,-1,-2,-2
1470345940608041,0,-3,7,2,-3,0,0,0
1470345940609043,-1,2,-7,-4,0,-1,-2,-4
1470345940609043,-5,-2,-2,-5,-3,-3,-1,0
1470345940630065,-3,-6,2,0,0,1,-1,-1
1470345940630065,-3,-3,-8,-2,-2,-1,-2,-1
1470345940632063,1,8,2,0,0,0,0,0
1470345940632063,1,2,-1,0,0,-1,0,-2
1470345940644074,-2,-8,-3,-5,-4,-2,-2,0
1470345940644074,0,7,0,-1,-2,-2,0,-2
1470345940651080,1,2,-10,1,0,1,-1,-1
1470345940651080,-1,-3,6,2,-2,-2,-2,-2
1470345940667597,-2,2,-10,2,0,-1,1,1
1470345940667597,-4,-5,-3,0,2,0,0,-4
1470345940669099,-3,-8,2,-3,1,-1,-2,-3
1470345940669099,1,3,-1,-1,-2,-1,-2,0
1470345940690125,0,-2,7,1,0,-4,-2,-2
1470345940690125,0,4,3,1,0,-1,-2,0
1470345940691126,1,-1,2,-1,-2,-3,-1,0
1470345940691126,-3,-12,-19,-6,-2,0,-3,-1
1470345940704138,-3,0,3,2,0,1,0,0
1470345940704138,0,-5,10,0,-2,-1,-1,0
1470345940711144,-1,1,0,-4,-1,-1,-1,-1
1470345940711144,2,3,1,2,0,0,0,0
1470345940727156,-1,-6,-1,-2,-2,-1,-2,-1
1470345940727156,2,9,-7,-3,-2,-2,-1,-1
1470345940729158,-1,-2,-2,-1,-1,-2,0,0
1470345940729158,-3,2,1,0,0,-1,0,-2
1470345940750177,-3,-6,0,-3,-4,-1,-1,-1
1470345940750177,-3,-7,2,0,0,-2,-3,-4
1470345940751178,0,0,-6,1,0,-1,-1,0
1470345940751178,-3,-5,-6,-4,-2,-1,-1,-2
1470345940764708,0,6,5,0,0,-1,0,0
1470345940764708,-1,-5,-7,-3,0,1,-2,-2
1470345940771213,0,7,6,-1,-1,1,-1,-1
1470345940771213,-4,-9,2,-1,-1,-3,-1,-1
1470345940787801,0,-1,-10,-3,-1,1,1,-2
1470345940787801,4,4,-1,-1,-1,-1,1,1
1470345940788804,-2,-8,-3,-3,-3,-2,-1,-1
1470345940788804,1,5,2,0,0,1,-1,-1
1470345940809844,0,-1,0,1,1,-1,-2,-1
1470345940809844,-1,5,0,-4,-2,-1,-1,1
1470345940811825,-1,-3,-2,-1,0,-1,0,-1
1470345940811825,-2,-1,3,3,0,-1,0,-2
1470345940824848,-2,-1,-1,-5,-1,-2,-3,-1
1470345940824848,-2,-6,-2,0,0,0,0,0
1470345940830905,-2,-1,0,-2,-1,-1,-1,-1
1470345940830905,0,-1,-3,-2,0,-2,-1,-2
1470345940847905,-3,-6,-1,-2,-3,0,0,1
1470345940847905,-1,-2,0,1,1,-3,0,-2
1470345940848854,-2,6,-1,-2,-1,-2,-1,0
1470345940848854,-3,-5,1,3,0,-1,-2,-3
1470345940870539,-1,1,-4,-1,-2,-1,-1,0
1470345940870539,1,-1,-1,-2,0,-1,0,0
1470345940871946,-1,-5,0,-1,-2,0,-1,-1
1470345940871946,3,3,-4,-1,-1,-2,-1,-1
1470345940884014,2,3,0,0,0,-3,-1,0
1470345940884014,-1,4,1,0,0,0,0,1
1470345940900028,-4,-8,-2,-3,-3,-2,-1,-2
1470345940900028,2,12,-4,0,-2,2,0,-1
1470345940908035,-2,-4,0,-1,-1,-1,-1,-4
1470345940908035,-1,-5,-3,0,-2,-2,-2,-2
1470345940909036,0,2,3,6,0,-1,0,1
1470345940909036,-3,-4,-2,-6,-2,-2,0,0
1470345940930114,-2,0,3,-1,-1,-2,-2,0
1470345940930114,-3,-4,1,0,-3,0,-1,-3
1470345940932057,-2,0,-6,-2,-2,-1,-3,-1
1470345940932057,-2,-1,2,-1,-1,-2,1,0
1470345940944067,0,-4,2,2,-2,0,0,-1
1470345940944067,1,-2,-1,-2,0,-1,0,-1
1470345940953076,1,1,-3,-1,-2,-1,0,-1
1470345940953076,-2,-6,0,0,-2,-1,-2,-1
1470345940968163,-3,0,-5,-1,0,-1,-2,-3
1470345940968163,-4,-4,1,-2,-2,-2,-1,-1
1470345940969652,2,11,-3,-2,-1,0,-2,-1
1470345940969652,0,-2,-1,0,-1,0,0,0
1470345940990217,0,-1,2,-1,-2,0,-1,-1
1470345940990217,0,-1,-3,-3,-2,1,-1,-1
1470345940991214,-1,2,0,-3,-2,-3,0,-2
1470345940991214,-2,-11,-2,-2,0,0,0,-1
1470345941004224,-1,5,-2,-1,-1,-1,0,0
1470345941004224,0,2,0,-1,-1,0,-1,1
1470345941012308,-3,-3,-3,-1,-2,0,-2,-2
1470345941012308,-1,1,-4,-4,0,0,-2,0
1470345941027288,-3,-4,-2,-2,-1,-4,0,-2
1470345941027288,-1,-1,4,4,0,-1,0,-1
1470345941029250,-1,-4,-2,-1,0,-1,-2,-1
1470345941029250,-1,3,0,-4,-2,-4,-2,-3
1470345941050315,-2,-6,4,0,-1,0,-1,-2
1470345941050315,-1,-3,-7,-9,-2,-1,-2,-1
1470345941051266,0,1,1,2,1,0,0,1
1470345941051266,-1,-3,1,2,-2,0,2,-1
1470345941064348,0,2,-3,-4,-1,0,0,-2
1470345941064348,1,10,-3,2,-1,-2,-3,-1
1470345941072841,0,-8,1,-1,0,0,1,-2
1470345941072841,-1,2,1,-1,-1,-1,-2,1
1470345941087453,1,2,-1,1,-3,1,-1,0
1470345941087453,-4,-6,-1,-1,0,-1,1,-1
1470345941089416,-4,-9,0,-3,-2,-2,-2,-1
1470345941089416,-1,4,1,0,-1,0,-1,-1
1470345941110434,-1,-5,-3,-1,1,0,1,0
1470345941110434,1,-6,2,1,-3,0,-1,-1
1470345941111437,-1,9,-3,-1,0,0,-2,-3
1470345941111437,0,-4,0,0,-2,-1,0,-1
1470345941123450,-2,-1,-1,-2,-1,-1,-1,-1
1470345941123450,0,-2,-2,-3,-1,0,0,0
1470345941132455,-2,-5,-2,-3,-1,0,-1,0
1470345941132455,-3,-9,-5,-3,-2,0,-2,-2
1470345941147533,-2,-3,1,-1,-3,-3,-1,0
1470345941147533,-2,0,3,1,2,-1,-1,-1
1470345941149525,-2,0,-2,0,-3,-2,-1,0
1470345941149525,-1,-1,-1,-1,0,-1,-1,-1
1470345941170498,0,1,-3,-1,-1,-1,-1,-1
1470345941170498,-4,-4,-1,-3,-1,-2,-1,0
1470345941172002,0,-1,1,5,0,-1,0,-1
1470345941172002,0,0,-3,-6,-1,-3,-2,-1
1470345941183609,-1,2,-1,2,0,0,1,0
1470345941183609,-1,-1,-6,-2,-3,-3,-3,-3
1470345941192612,-3,-4,1,0,-2,0,-1,0
1470345941192612,0,2,0,0,-1,-2,-1,0
1470345941207601,0,0,-3,0,0,-1,-1,0
1470345941207601,-2,-8,2,-1,-3,-1,-1,0
1470345941209673,1,-3,-2,-3,0,-3,-1,0
1470345941209673,3,10,-1,0,0,-1,-1,-2
1470345941229652,-2,-7,2,1,-1,-2,-2,-1
1470345941229652,-1,0,-2,0,-1,-1,0,1
1470345941231599,-1,-1,-2,-3,0,-2,-1,-2
1470345941231599,-4,-4,-3,-1,-2,-1,-3,-1
1470345941243672,1,7,-2,-2,-1,1,-1,1
1470345941243672,-1,2,-2,-2,0,-1,-1,-2
1470345941252624,-2,-1,-2,-3,-1,-1,-1,-2
1470345941252624,-2,-7,3,1,-2,0,-1,1
1470345941267768,-2,-4,-3,-2,-2,-2,-1,-1
1470345941267768,-1,0,-3,1,0,-1,-1,1
1470345941269715,-1,-1,0,-2,-2,0,0,0
1470345941269715,-1,-1,-5,-1,-1,-2,0,-3
1470345941290398,1,6,5,2,-2,0,-1,-2
1470345941290398,-2,-3,-4,-4,-2,-2,0,-1
1470345941291399,0,-3,-2,-1,-2,-1,-1,-1
1470345941291399,0,0,1,0,1,0,0,0
1470345941312456,-3,-6,0,-1,1,0,-1,-2
1470345941312456,-1,0,2,0,0,-1,-2,-1
1470345941314421,-1,1,-3,-2,-1,-2,-1,-1
1470345941314421,-2,-4,-2,0,-2,-2,-1,-1
1470345941327432,-2,-3,-5,-4,-2,-2,-1,-2
1470345941327432,0,1,1,0,-2,-3,-1,-1
1470345941329434,1,11,-1,0,0,-1,-1,1
1470345941329434,0,2,2,-1,-1,0,-1,0
1470345941350452,-2,-1,-2,0,-1,-1,-2,-1
1470345941350452,0,1,-2,1,-2,-1,-1,-1
1470345941351454,-2,-2,-2,-1,0,-3,0,-3
1470345941351454,-4,-7,1,-1,0,-1,-2,-1
1470345941373005,-1,0,1,-2,-2,-2,0,-2
1470345941373005,2,6,1,-2,0,1,0,0
1470345941374507,-3,-10,2,0,-4,-1,-2,-2
1470345941374507,2,0,-3,-1,-1,0,0,-2
1470345941388023,-2,-3,-1,-2,0,-2,0,-1
1470345941388023,-4,-6,-3,-2,0,1,-1,-1
1470345941389025,-1,-5,1,1,-3,-1,0,1
1470345941389025,-3,-10,-3,-1,-1,-1,-1,-2
1470345941410044,2,9,0,-2,-1,-1,-1,-1
1470345941410044,-1,-8,-2,1,-3,-2,-1,-1
1470345941412046,-1,-1,0,-1,0,-2,-1,0
1470345941412046,-2,0,-1,-1,-1,-1,0,-1
1470345941433071,-2,-7,-2,1,-1,-1,-2,-1
1470345941433071,-2,2,-3,1,-1,-1,-1,-3
1470345941434067,2,4,-6,-4,-2,-1,-1,-1
1470345941434067,0,2,3,1,-1,0,-2,0
1470345941448081,0,-4,-2,0,-2,-1,-1,0
1470345941448081,1,1,-1,-2,0,-2,-1,-1
1470345941449079,-2,0,-3,-3,-2,-1,-1,-1
1470345941449079,-2,-3,-2,-3,-3,-2,-1,0
1470345941470186,-1,2,-1,-1,1,0,-1,-3
1470345941470186,-2,-4,2,0,-1,-2,0,-1
1470345941471627,-3,-2,-1,1,0,-1,-1,-2
1470345941471627,1,7,-5,-2,0,-1,0,-2
1470345941493179,-2,-5,1,-1,-3,0,-1,-1
1470345941493179,-2,0,0,-1,-1,0,-1,-1
1470345941494179,-2,0,3,-2,-2,0,0,-1
1470345941494179,-2,2,-2,1,0,-1,1,0
1470345941507231,1,8,-5,-4,0,-1,-1,2
1470345941507231,-2,-11,0,-2,-2,-1,-1,-1
1470345941514196,1,1,-3,-1,-2,-1,0,-2
1470345941514196,1,-3,-3,-2,-1,-1,-1,-2
1470345941530244,-4,-9,-2,-2,-2,-3,-1,-1
1470345941530244,0,7,0,-1,-2,-2,-1,-1
1470345941532213,0,-1,-1,1,0,-1,-2,1
1470345941532213,0,0,1,-2,-2,-3,-1,-1
1470345941552256,0,0,-1,-2,0,-2,-2,1
1470345941552256,-1,0,-4,-2,0,1,-2,-1
1470345941554234,-1,0,-1,-2,-1,-2,0,-1
1470345941554234,-1,-5,2,1,0,-1,-1,-1
1470345941567274,0,-3,-2,-1,0,0,-1,-2
1470345941567274,0,2,0,-3,0,-1,-1,-2
1470345941574257,-4,-5,2,-2,0,0,-1,-1
1470345941574257,-1,0,-3,-1,-1,0,-2,-1
1470345941590319,-2,-2,1,-1,-1,-1,1,0
1470345941590319,-6,-18,-1,0,-3,-1,0,-2
1470345941591276,3,5,-1,0,-2,-1,-1,0
1470345941591276,-2,-2,1,-1,-2,0,-2,-2
1470345941612352,0,1,-5,0,-1,-2,0,-2
1470345941612352,-3,-6,-1,1,-2,0,0,1
1470345941614297,-3,-4,-4,-5,-1,-1,-1,-2
1470345941614297,-1,0,-1,1,0,-1,-1,-3
1470345941627308,-1,-4,-2,1,-1,-2,-2,-2
1470345941627308,4,5,-3,-1,-1,0,-1,0
1470345941633315,-3,-1,-1,1,-2,-2,-1,-1
1470345941633315,0,1,-1,-3,-2,-3,-3,0
1470345941650349,-2,-2,-1,-1,-1,-1,-2,0
1470345941650349,-1,3,-1,0,-1,0,-1,-2
1470345941651331,0,-4,-4,1,1,0,-2,-3
1470345941651331,-1,-2,1,-1,-1,-1,0,-1
1470345941672870,0,0,0,0,-2,-1,0,-2
1470345941672870,0,16,-3,-1,-1,-3,-1,-1
1470345941674356,-1,-9,1,-2,0,-1,0,-1
1470345941674356,-2,0,-4,-1,-2,-1,-1,-2
1470345941686487,0,0,1,2,1,-1,0,-1
1470345941686487,-1,-1,-2,-2,-3,0,-1,-2
1470345941693401,-3,-5,-1,1,-1,0,1,-1
1470345941693401,2,10,-1,-2,-1,-3,0,0
1470345941710406,-3,-3,-1,1,-2,0,0,-2
1470345941710406,0,-2,2,0,-1,-3,0,-1
1470345941713408,-2,0,-4,0,-1,-1,-2,-1
1470345941713408,1,-4,-4,-4,-1,-1,1,0
1470345941732424,-2,-1,-1,-3,-1,-2,-1,-1
1470345941732424,-2,-1,-4,-1,1,-1,0,1
1470345941734427,1,3,-2,-3,0,-1,0,-1
1470345941734427,0,-3,-2,1,-2,-1,-2,-1
1470345941746437,-1,-3,-4,0,-3,-1,-1,-2
1470345941746437,-1,-2,-1,0,1,-1,-1,-2
1470345941753445,0,2,-5,0,-2,-1,-2,0
1470345941753445,-4,-7,1,1,-3,-1,-1,-2
1470345941770467,-1,-1,-3,-4,-1,-2,-1,0
1470345941770467,-1,-3,-3,-1,-1,-1,-1,0
1470345941771968,1,-3,3,0,-1,0,0,0
1470345941771968,-1,-1,-2,-1,0,-1,-1,0
1470345941792492,-3,-1,-2,0,0,0,-1,-1
1470345941792492,-3,-7,0,-4,-3,-2,-2,0
1470345941794494,0,4,1,-1,-1,0,0,-1
1470345941794494,-3,-8,-1,-1,-1,0,0,-2
1470345941806517,-2,0,1,-2,-2,-2,-2,0
1470345941806517,-1,0,-1,-1,-1,-2,-1,-1
1470345941815511,-2,-3,-1,0,-1,-1,1,-1
1470345941815511,-1,-1,-2,-1,0,-1,-1,-1
1470345941829523,-1,-2,0,-2,-3,0,-2,-1
1470345941829523,1,-1,-2,-1,1,-1,-2,-1
1470345941830525,-1,0,1,0,-1,0,-1,-2
1470345941830525,2,8,-1,-1,-3,-1,-1,-1
1470345941851543,1,3,3,-2,-1,0,-1,0
1470345941851543,-1,0,2,-2,-1,-2,0,0
1470345941852544,-1,-4,-4,-1,-2,-1,-1,-2
1470345941852544,-2,-6,3,-1,1,1,-1,1
1470345941875569,-1,-2,-2,0,-1,-3,-1,-1
1470345941875569,0,3,-2,-1,-1,-2,0,-2
1470345941876070,-2,-2,2,-1,-1,-3,0,-1
1470345941876070,-2,0,-2,0,-1,-3,-1,-1
1470345941889216,-1,0,-2,-2,-1,-2,-1,-1
1470345941889216,-2,-1,1,0,-2,0,0,0
1470345941890218,0,-2,-4,0,0,-1,-2,0
1470345941890218,-2,-1,2,-1,0,0,-2,-4
1470345941912236,-3,-4,-2,-2,0,0,0,-2
1470345941912236,-1,-6,-2,0,-2,1,-2,-3
1470345941912236,2,7,-1,-1,0,-1,-2,0
1470345941912236,0,2,-4,-2,-2,0,-1,-2
1470345941935257,-1,-3,1,1,-1,-1,0,-1
1470345941935257,-1,-10,-1,-1,-1,1,0,-2
1470345941936258,-2,1,-2,-3,-1,-1,-2,-1
1470345941936258,-6,-14,1,-2,-3,0,-1,-2
1470345941949270,1,1,-2,0,0,-1,-1,0
1470345941949270,-1,-3,-4,-1,-1,-1,-2,-2
1470345941950270,-4,-2,4,0,0,-1,0,0
1470345941950270,-2,-8,0,0,-1,-2,-1,0
1470345941972295,-1,0,-2,1,0,0,-1,-2
1470345941972295,-2,3,-2,0,1,-2,-2,-1
1470345941972796,-2,-6,-2,-3,-3,-1,-1,-1
1470345941972796,-4,-4,-2,0,-1,-1,-1,-1
1470345941995388,0,-1,-2,-2,-1,-1,-2,-1
1470345941995388,-1,4,2,1,-1,-3,-1,-1
1470345941995388,-2,-3,-1,1,0,-1,-3,-1
1470345941995388,1,2,-2,-3,-1,0,-1,0
1470345942009398,-1,-1,0,-2,-2,-1,-1,-1
1470345942009398,-1,1,-1,0,-2,0,-1,-1
1470345942010401,0,-2,-2,-1,-1,0,0,-1
1470345942010401,3,13,-2,-1,0,-1,-2,0
1470345942032420,-3,-6,0,-1,-2,0,0,1
1470345942032420,-2,0,-1,0,-2,-1,0,-2
1470345942032420,-1,-4,-3,-2,-2,-1,0,-3
1470345942032420,3,0,-1,-1,-1,-2,0,1
1470345942055440,1,3,0,-2,-2,-1,1,0
1470345942055440,0,0,-2,0,0,-1,-3,-1
1470345942055440,-2,-2,-3,-4,-2,-2,0,-2
1470345942055440,-1,-2,1,-1,0,-2,-1,-1
1470345942069457,-2,2,0,-1,-1,0,0,0
1470345942069457,-1,2,-1,-2,0,0,0,0
1470345942070458,-2,-11,0,1,-1,0,-1,0
1470345942070458,0,2,-1,-1,-2,-1,-1,-2
1470345942091650,-2,-2,-3,-1,1,-1,0,-2
1470345942091650,-1,-3,-3,-6,-3,-2,-1,0
1470345942092650,-1,1,-2,1,-1,0,-1,-1
1470345942092650,-2,-1,-2,-1,-2,0,-2,0
1470345942114671,0,-3,-2,1,-2,-1,-1,-2
1470345942114671,0,6,3,-1,-1,-2,-1,-1
1470345942115671,-2,0,-2,0,-1,-2,0,-1
1470345942115671,-1,1,-2,-3,0,0,-1,-3
1470345942129719,-1,-3,2,1,-3,0,-2,-2
1470345942129719,-3,-1,-1,0,-1,0,0,0
1470345942129719,1,1,0,-1,2,0,-1,-1
1470345942129719,-1,-2,-2,0,-1,-2,-1,-1
1470345942151725,-2,-3,-2,-3,1,-2,-2,-1
1470345942151725,-2,-8,-2,0,0,1,0,-2
1470345942152704,0,3,-2,-3,-2,-2,-2,-1
1470345942152704,-3,-6,-2,-3,-3,-1,-1,0
1470345942182948,-1,1,-4,-3,-1,-1,-2,-1
1470345942182948,0,-3,-3,-2,-1,0,-1,-2
1470345942182948,-2,-1,1,0,-2,-1,1,-1
1470345942182948,-1,3,1,2,0,0,0,0
1470345942188954,0,1,-6,-1,-1,-2,-1,-3
1470345942188954,-5,-7,2,-2,-4,0,-3,-1
1470345942189955,2,7,1,1,-1,-1,-2,-1
1470345942189955,-2,0,-1,0,0,-3,-1,-2
1470345942211978,-3,-1,-3,0,-2,-3,-3,0
1470345942211978,-1,-2,0,-1,-3,0,-2,0
1470345942212977,-2,-6,-2,-3,-2,0,-1,-1
1470345942212977,-2,2,-2,-1,-1,-1,0,-3
1470345942234998,0,-4,2,1,-1,-1,-1,-1
1470345942234998,2,3,-4,0,-1,-3,-1,0
1470345942235997,-1,1,1,-2,-2,-2,0,0
1470345942235997,-1,-7,-2,-1,-2,-2,0,0
1470345942249011,-1,-2,-3,-2,-1,-3,-1,-2
1470345942249011,-2,1,-2,-2,-1,0,-1,-2
1470345942250010,-1,-1,-3,0,0,-2,-1,-1
1470345942250010,1,-6,-2,0,-1,1,-1,0
1470345942272035,1,11,-1,0,-3,0,0,-1
1470345942272035,-1,-5,0,-1,-1,-2,0,-1
1470345942273036,-1,5,-2,-2,-2,-1,-1,0
1470345942273036,0,1,-1,0,0,0,-1,-1
1470345942294586,0,-2,-2,-3,-2,-1,-1,1
1470345942294586,0,0,3,0,0,-1,-1,-1
1470345942295593,-1,-1,-3,1,0,0,0,0
1470345942295593,0,-2,1,-1,-1,-2,-2,0
1470345942309621,2,4,1,-1,0,-1,0,-2
1470345942309621,1,1,-2,0,0,-1,0,-2
1470345942310599,-2,-4,0,0,0,-2,-2,0
1470345942310599,-2,2,-2,-1,-1,-2,-1,-1
1470345942331692,-4,-10,2,-2,-2,0,-1,1
1470345942331692,-2,2,-1,-1,-2,-2,-2,0
1470345942332648,-1,1,0,4,1,0,-2,-1
1470345942332648,0,1,-2,-3,-3,-1,-1,-2
1470345942355639,-1,0,-2,-1,-1,-1,-2,-1
1470345942355639,-2,-2,-2,-2,-1,0,-1,-1
1470345942355639,0,-5,-3,-4,-2,0,-1,-3
1470345942355639,-2,-5,2,-2,-1,-1,-2,-1
1470345942369795,-1,4,-1,0,1,-1,-1,-1
1470345942369795,4,5,-2,0,1,-1,-2,-1
1470345942370262,-2,-5,0,-1,-2,-1,-1,-2
1470345942370262,1,2,-3,-3,-1,-1,-1,0
1470345942391520,-3,-10,2,-3,-2,-1,-1,-4
1470345942391520,-2,-5,2,-1,-3,0,-1,-1
1470345942392518,0,3,-1,-1,0,0,0,-1
1470345942392518,-1,-1,-2,-3,-2,-2,0,-3
1470345942415540,0,-2,-2,0,-1,-1,-1,-1
1470345942415540,-1,3,-1,0,-2,-1,0,-1
1470345942415540,0,-4,-1,-2,0,-2,-2,-1
1470345942415540,-4,2,-4,-1,-1,0,-2,0
1470345942429553,-2,-1,1,-3,-3,-2,0,-1
1470345942429553,-3,-5,-1,-2,0,0,-1,-2
1470345942430553,1,3,-3,0,-1,-3,-1,0
1470345942430553,0,-5,2,0,-1,0,0,0
1470345942451572,-5,-11,3,1,-1,-1,-2,-1
1470345942451572,0,0,-5,-3,0,1,0,0
1470345942452574,-1,-1,-1,-2,-4,-2,-1,-2
1470345942452574,-2,-2,-1,1,0,0,-1,0
1470345942475605,-1,-2,-2,1,0,-1,-1,0
1470345942475605,-2,-3,-2,-2,-1,-2,-2,-2
1470345942476107,-2,-2,2,-3,-2,-1,0,0
1470345942476107,-1,0,-1,-3,-1,-2,-2,-1
1470345942489656,1,3,-2,0,-1,0,0,-2
1470345942489656,-2,-1,0,2,-1,-1,0,0
1470345942490625,-1,1,-1,-2,-1,-1,-1,-2
1470345942490625,-2,-1,0,1,-1,-2,-1,-1
1470345942511673,-1,0,-1,0,-2,0,-1,0
1470345942511673,-1,-2,2,-1,-1,0,-1,-1
1470345942512645,-2,-4,-3,0,-1,0,0,-2
1470345942512645,-1,0,1,0,0,-1,1,-1
1470345942534678,-2,-5,1,-1,0,0,0,-2
1470345942534678,1,0,-1,0,-1,-3,-2,-2
1470345942535667,-2,-1,-3,1,0,-1,0,1
1470345942535667,-2,-1,0,-1,-1,-2,-1,-1
1470345942549710,-2,-2,-5,0,-1,-2,-1,-1
1470345942549710,2,11,-1,0,1,-1,0,0
1470345942549710,-4,-10,2,-1,1,0,-1,-2
1470345942549710,2,2,-1,1,-1,-2,-2,-1
1470345942572283,1,7,-2,0,-1,-2,-1,-1
1470345942572283,-2,-10,-4,-3,-3,-1,-1,-2
1470345942572766,-2,-5,-2,1,-4,-1,-1,-1
1470345942572766,-2,3,-3,-1,0,-1,-1,0
1470345942595499,0,5,-2,-1,-3,0,0,1
1470345942595499,-2,-5,2,0,-2,-3,-2,-3
1470345942595499,1,8,-1,1,-2,0,-1,0
1470345942595499,-3,-6,-1,-1,-1,-1,-1,-4
1470345942617548,1,0,1,-1,-2,-1,-2,2
1470345942617548,-2,2,-2,-1,1,-1,-1,-2
1470345942618521,0,-1,-1,-2,-2,-1,-1,1
1470345942618521,0,-2,-3,-1,-1,0,-2,-2
1470345942631593,0,-2,2,-2,-1,0,0,-1
1470345942631593,-1,7,-3,0,-1,1,1,0
1470345942632535,-2,1,0,-1,0,1,0,-3
1470345942632535,-3,-7,1,-1,-2,-1,-1,1
1470345942655554,-1,2,-4,-1,1,0,-2,-1
1470345942655554,-2,-2,-3,-2,-1,-2,-2,1
1470345942655554,-1,2,-1,-2,-2,-2,-2,0
1470345942655554,0,-2,-2,0,0,0,-2,-1
1470345942669613,-3,-6,0,0,0,-1,-1,-1
1470345942669613,1,5,-1,-1,0,-3,-2,-1
1470345942670577,-1,-2,2,-2,-1,-2,-1,0
1470345942670577,-2,-2,-1,-3,-1,-2,0,-2
1470345942692205,-1,3,-4,-4,-1,-2,0,-1
1470345942692205,-1,-10,2,0,-1,-1,-2,-2
1470345942693155,0,0,-2,-1,-2,-1,-1,-1
1470345942693155,-1,-3,-1,0,0,-2,0,0
1470345942715174,2,1,1,0,-1,0,-1,-1
1470345942715174,0,-6,-3,-2,-1,-1,-2,-1
1470345942716177,0,9,-3,-1,-3,-1,-1,-2
1470345942716177,-2,-1,-6,-2,-2,-1,-3,1
1470345942729243,-2,0,0,0,-3,1,0,0
1470345942729243,-1,-4,1,0,0,-1,0,-1
1470345942730190,1,-1,-7,-1,0,-1,0,-1
1470345942730190,-1,-3,0,-3,-3,0,-1,-2
1470345942752286,-1,-3,0,-1,-2,-3,-1,-1
1470345942752286,-1,0,-3,-2,-1,0,1,-1
1470345942752286,-1,-2,2,-2,-1,-1,-1,-1
1470345942752286,0,2,0,-1,-1,-1,-1,-1
1470345942775279,-2,-4,-4,-2,-1,-2,1,1
1470345942775279,1,7,-2,-2,-1,-1,0,1
1470345942776236,-2,-8,-1,0,1,-1,-1,-1
1470345942776236,1,2,0,1,-1,-1,-2,-1
1470345942789826,-3,0,0,0,-1,1,-2,-2
1470345942789826,-3,-9,-1,0,-3,-6,-4,-2
1470345942789826,-2,1,-3,-3,0,0,-1,-1
1470345942789826,-1,2,-2,-1,-1,0,0,0
1470345942811883,-3,-10,-2,-3,-2,-2,1,-1
1470345942811883,0,3,1,1,-1,0,-1,1
1470345942812846,1,-4,0,-2,0,0,-1,-2
1470345942812846,-2,-3,3,-1,-1,-3,-2,-2
1470345942834892,-1,-2,0,-1,-1,0,0,-1
1470345942834892,-1,4,1,-1,0,-1,-1,-1
1470345942835868,-1,-7,1,0,-2,0,-2,-2
1470345942835868,-2,-6,-2,0,-2,-2,-1,0
1470345942849880,1,5,-2,-1,0,-2,-1,-1
1470345942849880,-2,-5,-4,0,-1,0,-1,-1
1470345942849880,-2,-2,-1,-2,-3,-2,-2,-1
1470345942849880,0,3,-2,-1,-2,0,0,0
1470345942872404,-1,2,2,-2,-2,-3,-2,-2
1470345942872404,-1,-5,-4,-3,-3,-1,-1,-1
1470345942872907,-2,-2,0,-1,-2,-1,-1,-1
1470345942872907,-1,-1,-1,0,-2,-1,-1,-1
1470345942895485,-1,1,-5,0,-1,1,0,-1
1470345942895485,-3,-4,0,0,1,-1,0,0
1470345942895485,-1,2,2,-1,-2,-2,-1,0
1470345942895485,2,9,2,-2,-1,1,0,1
1470345942908497,-3,-4,-4,-1,-2,-1,-1,-1
1470345942908497,1,-2,-3,1,-2,-1,-2,-1
1470345942916504,-1,1,-3,0,0,-2,-1,-1
1470345942916504,-2,-2,-2,0,-1,-1,-1,-2
1470345942932469,0,-1,2,-3,0,-2,-1,0
1470345942932469,0,0,0,-2,-3,-2,-1,-2
1470345942932469,-2,-7,-5,1,0,-3,0,0
1470345942932469,1,0,3,-1,-1,-1,-2,-2
1470345942955532,2,0,-2,0,-1,0,-1,-1
1470345942955532,1,8,-1,-2,-2,-1,-2,-1
1470345942955532,-2,-5,0,-2,-1,2,-1,0
1470345942955532,-1,2,-4,-2,-3,-2,0,0
1470345942969104,-1,0,-1,0,-1,1,-1,1
1470345942969104,-1,4,0,-1,-2,-1,-1,-2
1470345942977092,-1,1,0,0,-1,-1,0,0
1470345942977092,0,-1,-1,-4,0,-1,2,0
1470345942992159,1,2,-1,-1,-1,-2,-2,0
1470345942992159,-4,-8,-1,0,0,-1,-1,0
1470345942993105,0,-1,0,-2,-1,-2,0,-1
1470345942993105,0,8,-3,0,-1,0,-1,-1
1470345943015169,0,-5,2,1,-2,0,-1,-1
1470345943015169,-4,-2,2,-1,-1,-1,0,-3
1470345943016126,0,-2,1,-2,-1,-1,-1,-2
1470345943016126,-3,-9,-2,-3,-2,-2,-1,-1
1470345943029140,0,-3,-2,0,-1,-1,0,0
1470345943029140,0,2,0,-1,0,-1,-1,-2
1470345943037152,-1,0,-4,-1,-1,-1,-1,-1
1470345943037152,-3,-5,1,0,-2,-1,-1,-2
1470345943052175,2,4,0,-1,-1,-2,-2,0
1470345943052175,-3,-8,-3,-1,-2,-2,0,0
1470345943052175,-4,-2,0,-2,-1,-1,-2,-3
1470345943052175,0,2,-4,-2,0,-2,-2,0
1470345943075241,-4,-5,-2,-1,-1,-1,-1,0
1470345943075241,-2,-1,1,0,-2,-2,0,0
1470345943076242,0,1,0,0,-1,-1,-1,-2
1470345943076242,0,0,0,1,0,0,1,0
1470345943088759,-3,-6,-2,-6,-2,-2,-1,-2
1470345943088759,-1,-2,-1,-1,-2,-2,-1,1
1470345943096769,-3,-1,-1,-1,-3,-2,-1,0
1470345943096769,-1,-1,-2,-1,2,-2,-2,0
1470345943111780,-1,-3,1,-1,-2,-2,-1,-2
1470345943111780,0,1,-2,-2,0,0,-1,-2
1470345943112804,-1,-1,-2,1,-1,-2,-1,-2
1470345943112804,-2,-4,0,1,-3,-1,-1,-1
1470345943134845,-1,-1,-3,1,-1,0,-1,-1
1470345943134845,-2,3,-2,-1,0,-1,-1,0
1470345943135804,2,0,-1,0,0,-1,-2,-2
1470345943135804,-4,-1,-1,-1,-2,-2,-2,0
1470345943148868,-1,0,-1,0,1,1,-1,-1
1470345943148868,0,1,1,-1,-1,-1,-1,-1
1470345943156821,-1,-4,0,-2,-1,-1,0,1
1470345943156821,0,1,-2,-1,-2,0,-1,-2
1470345943172395,0,-1,-2,-1,-1,-1,-2,-1
1470345943172395,-2,-5,0,-2,-2,0,0,-1
1470345943172895,0,1,-3,1,-2,0,-2,-1
1470345943172895,-5,-6,1,-4,0,-1,0,-1
1470345943194976,1,6,-3,-1,-1,-4,-1,0
1470345943194976,-2,-8,-2,-1,-2,-1,1,-1
1470345943195973,-2,1,-3,-2,-2,-1,-1,-1
1470345943195973,1,0,1,0,-1,0,0,-1
1470345943217998,-5,-9,2,-1,0,-1,-2,-1
1470345943217998,0,-1,0,-1,-1,0,-1,-2
1470345943217998,-1,2,-2,-3,0,-1,1,1
1470345943217998,-4,-6,-3,0,-1,-2,-2,-2
1470345943232059,-1,1,0,-1,-1,-1,-1,-1
1470345943232059,-1,1,-5,-1,0,0,-1,-2
1470345943233006,-5,-2,1,1,-1,-3,-2,0
1470345943233006,-1,-6,-1,0,-1,-1,-1,-1
1470345943255027,1,1,-2,-1,-2,-1,1,1
1470345943255027,0,3,-2,1,0,-1,-1,-1
1470345943256028,1,0,0,-2,-2,0,-1,-1
1470345943256028,1,-1,0,-2,-1,-1,0,0
1470345943278070,-2,2,-3,-1,-1,-2,0,-2
1470345943278070,-2,-4,-2,-2,-2,-2,-3,-3
1470345943278571,1,1,0,0,-2,0,0,0
1470345943278571,-1,-3,-4,0,0,-1,-1,-1
1470345943292097,0,5,1,-1,-1,0,0,-1
1470345943292097,-4,-4,-1,0,-2,0,0,1
1470345943293095,0,-1,-3,-2,-2,-1,-1,1
1470345943293095,1,1,-1,1,0,-2,-1,-3
1470345943315157,-4,-9,-2,-3,-1,-2,-1,-2
1470345943315157,0,2,-2,-2,1,-2,-1,-1
1470345943316115,-1,2,-2,0,-1,-2,0,0
1470345943316115,-1,-2,0,-1,-2,-1,0,-2
1470345943338156,-1,-1,0,-1,-1,-2,-1,-2
1470345943338156,-2,1,3,-1,-1,-2,-1,-2
1470345943338156,0,-9,-5,-2,0,0,-3,-1
1470345943338156,0,0,1,-1,-2,-1,-3,-2
1470345943352200,-1,-3,-1,1,-1,1,-2,-3
1470345943352200,2,4,-2,0,-2,-2,1,0
1470345943353148,0,-6,0,-1,-1,-3,-1,-2
1470345943353148,0,9,-2,-1,0,0,1,0
1470345943375206,-1,2,0,2,-1,0,0,0
1470345943375206,-4,-7,2,-3,-2,-1,0,-1
1470345943376205,1,8,0,-3,-2,-1,-1,-1
1470345943376205,-2,1,-2,-2,-1,0,-3,-1
1470345943397275,0,-1,-2,-1,-3,-3,-1,1
1470345943397275,0,0,-3,-2,0,-2,-1,0
1470345943398276,-1,0,2,3,0,-1,0,-1
1470345943398276,-1,-4,-4,-3,0,-2,-1,-1
1470345943412291,0,-3,1,-2,-3,0,-2,-2
1470345943412291,-2,-4,-5,-2,-1,-1,-2,-1
1470345943412291,-2,-3,1,0,0,0,0,0
1470345943412291,0,-2,-2,0,-2,-1,-1,1
1470345943435322,-2,3,-3,-3,1,-3,0,0
1470345943435322,2,2,1,1,0,-1,-2,0
1470345943435322,-2,-3,-1,-3,0,-1,0,-2
1470345943435322,-1,-1,0,-1,-2,-1,0,-1
1470345943457354,1,2,-1,-3,0,-1,0,0
1470345943457354,-2,-3,-1,0,-1,-1,-3,-1
1470345943458331,-3,-6,-2,-1,-3,-1,-2,-2
1470345943458331,3,9,-1,-4,-1,-2,0,0
1470345943471926,-1,-2,-3,1,-3,-3,-2,-3
1470345943471926,-3,-7,-1,0,0,-1,-1,-1
1470345943472912,-2,-5,-1,-1,0,-2,-1,-2
1470345943472912,-3,-11,-2,-2,-2,-1,-1,-2
1470345943495157,0,2,-1,-1,0,-1,0,-3
1470345943495157,-1,0,2,-2,-1,-1,0,-1
1470345943496129,0,0,-2,-1,-1,0,-1,-1
1470345943496129,-2,-1,-1,0,-1,-1,-1,-2
1470345943517239,-1,-6,-1,-1,-1,-2,-2,-1
1470345943517239,-2,-1,-3,-1,0,0,1,-3
1470345943518145,0,6,3,0,1,0,0,-2
1470345943518145,-3,-6,-1,-3,0,0,0,-1
1470345943532227,-2,-3,-2,1,-2,-1,-2,-1
1470345943532227,-1,2,-2,0,-3,-1,-1,-1
1470345943532227,-4,1,-2,-1,-1,0,-1,-1
1470345943532227,-1,-2,2,-1,-1,0,0,0
1470345943563186,-1,-5,-2,-1,-1,-1,-1,-1
1470345943563186,1,4,-3,-1,-1,0,-1,-1
1470345943563697,-2,-5,1,0,-1,-2,-1,-1
1470345943563697,-3,-4,-2,0,2,-1,0,-2
1470345943577705,-1,-5,-1,-1,-2,0,0,-2
1470345943577705,-2,-8,-1,-1,-1,-2,0,-2
1470345943578707,1,3,-4,-2,-1,-2,-1,-1
1470345943578707,0,0,-1,1,-2,-2,-1,-1
1470345943591772,-2,0,0,-1,-1,0,-1,-1
1470345943591772,-1,-7,0,0,-1,2,-2,-1
1470345943592725,-2,-3,-2,0,-1,-1,-2,-1
1470345943592725,-1,0,0,-1,0,-1,-3,-2
1470345943614759,-3,-5,0,-1,-3,1,0,-2
1470345943614759,0,2,-3,-1,-3,0,-1,-1
1470345943615756,-1,0,-2,-1,0,-2,-1,-1
1470345943615756,1,-2,-2,-1,-2,-1,0,0
1470345943637794,-2,7,-1,0,1,1,0,0
1470345943637794,-1,-1,-1,-1,-1,-3,0,-1
1470345943638766,-1,-3,-2,-2,-3,-1,-2,-1
1470345943638766,-1,-2,3,-2,-2,0,-2,-1
1470345943651819,2,0,-4,-2,-1,-2,-1,-1
1470345943651819,1,3,-1,0,-1,-1,1,-2
1470345943652779,-3,-4,2,1,-3,-1,0,-1
1470345943652779,-2,0,-4,-1,-3,0,-3,0
1470345943675373,2,7,-3,-1,0,0,0,1
1470345943675373,-3,-12,0,-2,-2,-1,-2,0
1470345943675843,3,10,-4,-2,1,-1,1,-1
1470345943675843,-2,-1,-2,0,1,-2,-1,-2
1470345943697566,-1,-4,1,-2,-1,0,-2,-1
1470345943697566,-1,-1,-1,0,-2,-1,-1,-1
1470345943698568,-1,-2,-2,-1,1,-1,0,0
1470345943698568,-1,-2,0,0,-1,-2,-2,-1
1470345943711580,0,1,1,0,-1,-2,-2,-1
1470345943711580,1,-1,2,-1,0,0,-1,-2
1470345943712579,1,0,1,0,-1,0,-1,1
1470345943712579,-3,-5,2,-2,-3,0,-1,0
1470345943735600,-2,-2,-2,-1,1,-2,0,-2
1470345943735600,1,4,-1,0,1,-3,0,0
1470345943735600,-4,-1,1,-3,-1,1,-2,-2
1470345943735600,0,-2,0,1,1,0,-1,-2
1470345943758621,-2,-3,-1,-1,-1,0,0,0
1470345943758621,0,2,-3,-1,0,-1,-3,-1
1470345943760621,-6,-3,-1,-3,-1,-1,-2,-2
1470345943760621,-1,-2,-5,1,-2,0,-1,0
1470345943780169,-2,-1,-3,-3,-1,-1,-1,-2
1470345943780169,-2,-5,0,0,-1,0,0,-1
1470345943781169,1,-1,3,-2,-2,-2,-1,-1
1470345943781169,0,5,-1,-1,-1,-1,-2,0
1470345943795285,-2,-2,-2,1,-2,-2,-1,-1
1470345943795285,-1,0,-2,0,-1,-1,-1,0
1470345943796182,-2,-3,-1,-2,0,-1,0,-2
1470345943796182,-4,-6,-1,-2,-3,-2,1,-2
1470345943817226,1,0,1,-1,-1,0,-2,-1
1470345943817226,-2,2,0,-2,0,0,0,-2
1470345943818204,-1,-2,-3,0,-1,0,-1,0
1470345943818204,-1,-4,-1,-1,-2,-1,-1,-2
1470345943831265,1,-2,1,1,0,-1,-1,-1
1470345943831265,-1,-2,-1,-2,-4,-1,-1,-2
1470345943839265,0,-4,-4,-2,-2,-1,-1,-1
1470345943839265,1,2,-1,0,-2,0,-2,-2
1470345943855236,0,-2,0,-1,-3,-1,-1,-1
1470345943855236,-1,3,-3,-2,0,-1,-2,0
1470345943856236,-1,-2,0,0,-2,0,-1,-1
1470345943856236,1,0,-2,0,0,0,1,-1
1470345943877871,1,13,-3,0,1,0,-1,-1
1470345943877871,-3,-11,-1,-3,-3,-3,-2,-1
1470345943878338,1,7,-1,0,-1,-3,0,-1
1470345943878338,0,0,-2,0,0,-1,-1,0
1470345943891189,-2,-7,1,-1,-1,-3,-1,-1
1470345943891189,1,12,-4,1,-1,-2,0,0
1470345943899235,-2,-5,0,0,0,-2,-1,-3
1470345943899235,-3,-3,-2,-2,-1,-2,-1,-1
1470345943915171,-1,-5,0,0,-2,0,1,0
1470345943915171,-1,1,-1,-1,-1,-1,0,-1
1470345943916173,1,5,-3,0,-1,0,0,-1
1470345943916173,0,-2,2,-1,-2,-2,-1,-1
1470345943938208,-1,-1,-1,-1,2,-1,0,0
1470345943938208,-2,-4,-2,-1,-1,-2,-2,-1
1470345943938208,-1,-2,-2,0,-3,-1,0,-1
1470345943938208,-1,-2,-2,0,-1,-1,-2,-1
1470345943951249,-2,3,-3,-2,0,-1,0,1
1470345943951249,1,-3,-4,0,0,1,-1,0
1470345943959242,-1,-3,0,-2,-2,-2,-2,0
1470345943959242,-3,0,-1,0,0,-2,0,-1
1470345943975276,-1,-3,-1,-1,-1,-2,-1,-2
1470345943975276,-3,-6,3,0,-2,-1,0,-1
1470345943976234,-2,1,-1,-2,1,0,-2,-3
1470345943976234,-1,4,-1,-4,-3,0,0,-2
1470345943997298,-2,-2,-2,-1,-2,-3,-1,-2
1470345943997298,-4,-10,-2,-1,-1,-1,-2,-1
1470345943998295,-1,0,0,-2,-1,0,1,0
1470345943998295,-1,-2,1,0,0,0,-2,-1
1470345944011322,-1,-5,0,-2,-2,-2,-1,0
1470345944011322,-1,5,-1,-1,-1,0,0,-1
1470345944019277,0,-5,-4,-2,0,0,0,-1
1470345944019277,-1,-3,0,0,-2,0,-1,0
1470345944034346,0,2,-1,0,-1,0,-1,1
1470345944034346,1,4,-1,-1,0,0,0,-1
1470345944035290,-2,-5,-1,0,0,0,-3,-2
1470345944035290,0,-1,-1,0,-1,0,0,0
1470345944057366,2,7,-3,0,1,0,-2,-2
1470345944057366,-2,0,1,-3,-2,0,-2,-1
1470345944058338,-3,-3,-1,0,-1,0,-2,-1
1470345944058338,2,3,-3,-1,0,-1,0,0
1470345944080418,-1,-3,-4,-2,-1,-2,-2,-1
1470345944080418,1,2,0,0,-2,-1,-1,0
1470345944080418,1,1,-2,0,-2,-1,-1,-1
1470345944080418,-5,-7,0,-2,-1,-1,-2,-2
1470345944095488,-1,-1,3,-1,0,0,0,1
1470345944095488,1,0,-2,0,0,0,-1,-1
1470345944095488,-4,-9,-2,-1,-2,-2,-1,0
1470345944095488,2,3,1,-1,-2,-2,-1,0
1470345944117507,-3,-5,-2,-2,-3,1,0,0
1470345944117507,-2,-1,-2,-2,-1,-1,-3,-1
1470345944118492,-2,-3,-2,0,-1,0,1,-2
1470345944118492,-1,-1,1,-1,-2,-1,-1,0
1470345944131463,-1,1,-2,-4,-1,-1,2,-1
1470345944131463,2,2,0,0,0,-1,0,1
1470345944139525,-1,-4,-1,-2,-2,0,-2,-2
1470345944139525,-1,0,-4,0,1,-1,-1,0
1470345944155494,-2,-8,0,-1,-2,-1,-2,-2
1470345944155494,1,7,0,0,-2,-1,1,0
1470345944156486,1,2,2,0,-2,-1,-1,0
1470345944156486,-3,-4,1,-1,0,-2,-1,-1
1470345944178077,-1,0,-3,1,0,0,-2,0
1470345944178077,-4,-5,2,-1,-1,0,-1,-1
1470345944178571,0,6,-1,-1,0,-2,0,0
1470345944178571,1,5,-2,0,0,1,1,0
1470345944200165,-1,-7,-1,0,-1,-1,0,-1
1470345944200165,-3,-5,0,-2,1,-1,-2,-2
1470345944201124,-1,3,-2,0,-2,0,1,-2
1470345944201124,-2,-4,1,-2,-3,-1,-2,-2
1470345944214178,0,4,-1,-2,-1,-2,-2,-1
1470345944214178,0,-2,-3,-1,-1,0,-1,-2
1470345944215139,-2,-4,-2,-2,1,-4,-1,-2
1470345944215139,-1,-1,0,-2,-3,-1,-1,-1
1470345944237241,0,-1,-2,-3,-3,-1,-2,-1
1470345944237241,-1,-1,1,0,0,0,-1,-1
1470345944238155,-5,1,-4,-2,-1,0,-2,-1
1470345944238155,-1,-4,-1,1,0,-1,0,-2
1470345944260230,0,0,1,-2,-2,-4,-2,0
1470345944260230,-1,-4,-2,-2,-1,-2,0,0
1470345944261177,0,0,0,-1,-2,-2,-1,0
1470345944261177,-2,-4,-1,0,1,0,-1,-2
1470345944275317,-1,0,-5,-3,-1,-2,1,-1
1470345944275317,-1,-3,0,1,-2,-2,0,-1
1470345944276278,0,-1,0,-1,-1,-1,-1,1
1470345944276278,-1,4,-2,0,-2,-3,-2,-1
1470345944297872,-2,-4,2,0,-2,-3,-1,0
1470345944297872,0,10,-5,-2,0,0,-2,-1
1470345944297872,-1,-3,1,-1,0,-1,-2,0
1470345944297872,0,-2,-2,-1,-2,-1,-2,1
1470345944319915,-2,-1,-1,-1,-1,2,-1,-1
1470345944319915,-2,-4,-3,-1,-3,-1,-1,-2
1470345944320875,1,1,-5,-1,1,1,0,0
1470345944320875,-3,-2,2,2,-2,-2,0,-1
1470345944333928,-2,-3,0,-1,-2,0,0,-2
1470345944333928,0,-4,-2,-2,-1,0,-2,-1
1470345944342896,2,9,1,-3,-2,-1,-1,-2
1470345944342896,0,-1,-3,-2,-1,-1,-1,-1
1470345944357951,-5,-2,0,-1,1,1,0,-1
1470345944357951,-1,-1,-1,-1,-1,-2,0,0
1470345944358909,-3,-6,1,0,-2,-1,-1,-1
1470345944358909,-2,1,-3,-1,-2,0,0,-1
1470345944380435,-1,0,-2,-1,-1,-1,-1,-3
1470345944380435,-1,-2,1,-1,-2,-2,-2,-1
1470345944381942,-2,-3,-2,1,-1,-2,-1,1
1470345944381942,0,1,0,-2,0,-1,0,-1
1470345944393953,-2,-10,1,-1,-2,0,0,-2
1470345944393953,-1,2,-2,-1,-1,0,-1,-2
1470345944402961,1,-3,-4,-3,-2,-1,-1,-2
1470345944402961,-4,-4,-1,-2,-1,-1,-1,-2
1470345944417976,-3,-6,-2,-1,-1,-2,-1,-1
1470345944417976,-1,1,-2,0,-2,0,-1,0
1470345944418976,1,0,-1,0,0,-1,-1,-1
1470345944418976,-2,-5,-1,0,-2,-2,-1,1
1470345944439994,2,9,1,-2,-2,-3,-1,-1
1470345944439994,-2,0,3,1,-2,-1,0,-1
1470345944441996,-2,-3,-1,-1,-1,-1,0,-2
1470345944441996,0,0,-2,1,-1,0,-1,0
1470345944454019,0,-2,-3,1,-1,-3,-2,-1
1470345944454019,0,-3,-1,-1,0,-1,-3,-1
1470345944463015,-1,4,0,-2,-1,0,-2,0
1470345944463015,-3,-1,-1,-2,0,-1,-2,0
1470345944478030,-4,-1,-2,-1,0,1,0,-1
1470345944478030,0,-3,-1,-2,-2,-2,-1,-1
1470345944479535,-1,-4,-2,-1,-1,0,0,0
1470345944479535,3,4,-1,-1,0,-1,1,-1
1470345944499785,1,-1,-3,0,-2,-1,-1,0
1470345944499785,-1,0,-3,-1,1,-1,0,-2
1470345944501784,1,6,-5,-1,1,0,-1,-2
1470345944501784,0,-1,-2,-1,-1,-1,-1,0
1470345944514822,1,6,1,-2,-2,-1,-1,0
1470345944514822,-2,-5,0,0,1,-2,-2,-1
1470345944521814,-3,-6,-2,1,-2,-2,-1,-1
1470345944521814,-2,-1,-2,-1,-1,-2,-2,-1
1470345944537844,2,7,-1,0,-1,0,-1,0
1470345944537844,1,4,-1,-2,-2,-1,0,0
1470345944538819,-4,-7,1,-2,-2,-1,-2,0
1470345944538819,-2,-6,-2,-2,-2,-2,-2,-1
1470345944559860,-1,-4,0,-4,-1,0,0,-2
1470345944559860,1,-5,-1,-3,-2,-1,0,-3
1470345944561840,0,3,0,-1,0,-2,-2,-2
1470345944561840,0,-1,-1,-2,0,-1,-2,-2
1470345944574372,1,-3,-3,0,-1,-2,-1,-3
1470345944574372,-2,-3,0,0,-1,-2,-1,1
1470345944582433,-1,-2,0,-1,-1,-1,0,-3
1470345944582433,-1,1,-1,-2,-1,0,-1,-2
1470345944597448,-1,-1,2,0,-1,0,-3,1
1470345944597448,-1,-2,-2,0,-2,-1,-2,-1
1470345944599435,-1,-1,-2,1,-2,-2,0,-1
1470345944599435,-1,-1,0,-1,-2,0,0,0
1470345944620537,0,1,0,-1,0,-3,-2,-1
1470345944620537,-2,-3,-2,-2,0,-1,1,-1
1470345944621454,1,9,0,-2,-1,-2,-1,0
1470345944621454,-2,-2,2,0,-2,1,-1,-3
1470345944634502,-1,-2,-3,1,-2,-2,-1,0
1470345944634502,-1,3,-1,0,-1,0,-2,-1
1470345944642473,0,-6,-2,-1,-3,-1,-1,-3
1470345944642473,-2,-1,-2,-2,-1,-3,-1,-2
1470345944657491,-1,-2,-2,-2,0,-1,-2,0
1470345944657491,-8,-4,2,1,-2,-3,-1,-1
1470345944659575,-1,-2,1,0,-1,0,0,-2
1470345944659575,0,-1,-3,-1,-2,-1,-2,-1
1470345944680589,-2,-3,-1,-1,-1,-2,0,-3
1470345944680589,0,0,-1,-1,-2,0,1,-1
1470345944681835,-1,0,-3,0,-2,-2,-2,1
1470345944681835,-2,2,-5,-3,-3,-1,0,-2
1470345944693877,-3,-3,0,-1,-1,0,-1,1
1470345944693877,0,3,0,-1,0,-1,-3,0
1470345944702851,-2,0,2,-2,-1,-1,-1,-2
1470345944702851,0,-4,-1,1,-1,-1,-1,1
1470345944717909,-1,2,-2,-1,-2,0,0,-2
1470345944717909,2,1,-3,-3,0,0,0,-1
1470345944718870,-3,-4,-2,-1,0,0,-1,-1
1470345944718870,-1,-10,0,1,0,1,1,-2
1470345944739927,1,3,0,0,-2,-2,-2,-2
1470345944739927,-1,-1,-3,-2,-1,-1,-2,-2
1470345944741889,-2,-3,1,-1,-1,-2,0,-3
1470345944741889,-2,0,0,0,-2,-2,-1,0
1470345944753940,-1,-4,0,1,-1,0,-1,0
1470345944753940,-1,-2,-1,-3,-2,-3,0,0
1470345944762906,-4,-9,0,-1,0,-1,-2,-1
1470345944762906,-1,4,-2,0,0,-2,-2,0
1470345944777966,-1,-5,-2,-3,0,-1,-1,-2
1470345944777966,-1,-1,-1,0,-1,-1,0,0
1470345944779468,0,-2,-2,-1,-2,0,0,-1
1470345944779468,1,1,-1,-2,-1,1,0,-3
1470345944800067,-2,-3,1,1,-3,-1,-1,1
1470345944800067,-1,2,-4,-2,-2,1,-1,-1
1470345944802034,1,3,-4,-3,-1,-1,-1,-1
1470345944802034,-1,-2,2,0,-2,-2,-2,-1
1470345944814006,2,0,-2,-2,0,0,-1,-1
1470345944814006,-2,-3,-1,-1,-1,0,-2,-2
1470345944823013,-1,-2,-1,-1,-1,-2,-1,-1
1470345944823013,0,11,0,-1,-1,-1,0,1
1470345944838026,-3,-4,-2,-3,1,-1,-1,0
1470345944838026,2,5,-1,-1,-1,0,-1,-1
1470345944839027,-2,-5,-1,-1,-2,0,0,1
1470345944839027,-3,-6,-1,-1,0,-2,-2,-1
1470345944860070,-3,1,-1,0,-1,-1,0,-2
1470345944860070,-2,-6,1,1,1,-1,-2,0
1470345944862049,2,3,-3,-1,-1,-1,0,-2
1470345944862049,-4,-6,-2,-1,-1,-2,0,0
1470345944874115,3,-5,1,-1,-1,0,-2,-1
1470345944874115,-1,-4,-2,-1,-2,0,-3,-1
1470345944883114,-4,-3,1,-1,-1,-1,-1,-1
1470345944883114,-4,-6,0,-2,-2,-1,-1,-3
1470345944898187,-1,-1,-1,-1,-2,-1,-2,-2
1470345944898187,-2,-1,0,0,0,-1,-1,-2
1470345944899155,0,1,-2,0,0,-1,-3,0
1470345944899155,-2,-7,-2,-1,-1,-2,0,-1
1470345944920190,-2,7,-2,-2,0,0,0,-1
1470345944920190,-1,-2,-3,-2,-3,0,-1,-2
1470345944922150,-1,1,-1,-1,0,0,1,-2
1470345944922150,0,0,0,-1,-2,-1,-2,0
1470345944934191,-3,-2,-3,-1,1,-2,0,1
1470345944934191,1,2,-2,0,0,-2,-1,1
1470345944943200,-1,-3,-1,-1,-2,0,0,-1
1470345944943200,3,0,-2,-3,1,-1,-1,-1
1470345944958237,-3,-3,-1,-1,-1,-2,-1,-2
1470345944958237,-1,-3,2,-3,-1,-1,-1,-1
1470345944960183,-1,0,-1,-2,0,-1,0,-1
1470345944960183,0,4,-1,-2,-1,-1,-1,0
1470345944980339,-1,-4,-4,-1,0,-2,-1,-1
1470345944980339,-4,-11,-1,-1,-2,-1,1,-1
1470345944982055,-3,-4,-2,-2,-1,0,-3,-1
1470345944982055,3,4,-3,0,0,0,0,-1
1470345944994025,-2,-2,1,-2,-2,-2,0,-1
1470345944994025,-1,1,-3,-1,1,-1,0,-1
1470345945003032,-1,-1,-3,-1,-1,-1,0,-2
1470345945003032,-2,-7,0,-1,-1,0,-1,0
1470345945018046,-2,-6,-4,-2,-3,-3,-1,-1
1470345945018046,-2,-4,1,0,-1,0,0,0
1470345945019048,-2,-3,-1,-2,0,-1,-2,-1
1470345945019048,-3,1,1,-1,0,0,-3,-3
1470345945040120,2,0,0,-1,0,0,0,-2
1470345945040120,0,0,-2,-2,-2,1,-1,-3
1470345945042072,-2,-3,-2,0,-1,-2,-1,-1
1470345945042072,2,-4,-2,-2,-2,-1,-1,1
1470345945054173,-3,5,-1,-2,-1,0,-1,1
1470345945054173,-1,-1,-2,-2,-3,0,-2,-1
1470345945063086,1,5,0,0,-4,0,-2,0
1470345945063086,-1,2,-1,-1,0,0,0,-1
1470345945077780,-1,-5,-3,-1,-1,0,-2,-1
1470345945077780,0,1,1,0,1,-2,0,0
1470345945079740,-2,-3,0,-1,-2,-1,0,0
1470345945079740,-3,2,-1,-1,-1,0,0,-1
1470345945099946,-4,-4,1,0,0,-1,0,0
1470345945099946,-1,1,-4,-2,-1,-1,1,-1
1470345945101945,-2,0,0,-2,-1,0,-2,-1
1470345945101945,-1,-1,0,-1,-3,-4,-1,0
1470345945123047,-2,-2,-2,0,-1,-1,-2,-1
1470345945123047,1,2,-2,0,-4,5,-1,1
1470345945123964,-1,-1,3,1,2,-3,0,-2
1470345945123964,-2,0,-4,-5,-2,-3,-1,-1
1470345945138034,0,1,1,1,1,0,-1,-1
1470345945138034,-2,-2,3,3,2,-1,-1,0
1470345945138978,-2,-5,-7,-1,-4,-1,1,1
1470345945138978,-1,-2,12,-4,0,2,0,-3
1470345945160025,-1,1,-13,-6,-6,-5,-2,-1
1470345945160025,-3,-7,-14,-15,-10,-4,-2,-3
1470345945162003,-1,4,5,12,2,1,-3,-2
1470345945162003,0,2,6,12,12,1,0,0
1470345945182679,1,4,17,-22,0,2,0,0
1470345945182679,-5,-6,-32,0,0,-3,-1,-2
1470345945184651,-2,-7,16,0,-5,-3,0,2
1470345945184651,-2,-1,2,-1,-9,-5,-3,-2
1470345945196705,-4,-13,9,2,-17,-5,-1,-1
1470345945196705,-3,-1,24,8,29,3,-1,-2
1470345945203711,3,-1,-10,-4,-5,5,1,1
1470345945203711,2,18,4,11,2,4,2,1
1470345945219683,-3,0,-18,-3,5,-2,0,-1
1470345945219683,0,0,-4,-12,-16,-5,-1,-3
1470345945221673,-3,-12,-8,-3,0,-3,-4,-3
1470345945221673,-5,-24,0,-7,-2,-2,-1,-1
1470345945242718,0,14,-7,4,-5,-3,-2,-2
1470345945242718,-1,2,7,12,-1,1,-1,0
1470345945244695,-3,3,0,-14,9,1,1,-1
1470345945244695,0,-2,-13,-6,-6,-1,0,1
1470345945256705,-1,-4,0,13,4,-2,-1,-2
1470345945256705,1,-4,-2,-18,-17,-4,0,1
1470345945263728,-1,1,-1,5,-7,-7,0,-2
1470345945263728,-2,-3,15,-8,-9,-7,-1,-3
1470345945280293,0,-5,-11,5,24,14,0,1
1470345945280293,1,5,4,6,7,-2,0,-1
1470345945281234,1,2,-8,2,-3,3,-1,0
1470345945281234,0,-5,-9,-2,-19,-12,-1,0
1470345945302661,-1,-6,12,-15,2,-1,-2,0
1470345945302661,-3,8,5,11,-1,3,0,-3
1470345945304626,0,-1,-9,-13,0,-4,-2,0
1470345945304626,-1,1,-4,12,5,1,-2,0
1470345945316648,2,1,3,2,-7,-4,1,0
1470345945316648,2,5,1,-2,-1,-1,0,1
1470345945325638,-2,-7,-2,3,5,-2,0,-3
1470345945325638,-1,2,-5,-6,-10,-8,-1,-1
1470345945340652,0,-6,-12,-1,13,9,-2,-1
1470345945340652,-2,1,1,-3,-2,8,1,-1
1470345945341653,0,8,7,5,0,-4,-2,-2
1470345945341653,-2,-3,-9,-4,2,-4,-2,-3
1470345945362727,0,-3,0,-4,-9,2,-1,-1
1470345945362727,-1,-10,-1,1,-7,-10,-4,-2
1470345945364675,-1,2,1,5,6,5,-1,-1
1470345945364675,-3,0,-2,-12,1,0,-2,-2
1470345945376696,-4,-2,2,6,-5,-9,-2,-1
1470345945376696,0,-4,0,-7,1,6,-1,-2
1470345945384708,-1,6,0,-10,-9,-2,0,-2
1470345945384708,-1,-4,-4,3,9,-1,-1,0
1470345945400724,0,5,-2,0,-13,-5,-1,0
1470345945400724,-1,-8,-4,-2,2,-4,-1,-1
1470345945401725,-2,-3,-4,-3,-1,1,-1,-1
1470345945401725,-2,0,-1,5,7,11,0,0
1470345945422746,0,3,0,6,9,0,-1,-3
1470345945422746,-3,3,0,-2,0,-5,-1,-3
1470345945423745,1,-9,1,2,-4,1,-1,2
1470345945423745,1,1,-6,-5,-2,0,-2,-4
1470345945435800,0,-5,-3,-1,-3,-5,0,2
1470345945435800,-1,0,3,-5,-1,-1,-3,-1
1470345945444764,1,4,0,-1,-5,-6,1,-1
1470345945444764,-2,-5,-3,0,2,3,-1,-1
1470345945459791,-3,-4,2,2,-3,0,-1,-2
1470345945459791,-1,7,3,-5,-2,-1,0,1
1470345945461778,0,-4,-2,-1,3,-5,0,0
1470345945461778,1,-1,-5,2,-7,-10,-2,0
1470345945482856,0,0,2,0,14,19,2,0
1470345945482856,1,2,-3,1,-6,-6,0,0
1470345945483852,-1,-2,-8,-1,-8,-5,-1,0
1470345945483852,-3,-4,0,2,-20,-14,1,-1
1470345945495880,1,10,1,-2,22,5,0,-3
1470345945495880,-2,-20,-1,1,-2,-4,1,2
1470345945504879,-3,6,-2,-17,-10,-3,-5,-5
1470345945504879,-2,-17,-7,0,4,-2,-1,-1
1470345945519946,4,29,9,3,-7,0,-1,1
1470345945519946,-2,-20,-14,-6,-1,1,-1,0
1470345945521885,-2,11,7,4,-3,-7,-3,-1
1470345945521885,0,6,-2,-5,5,7,0,-1
1470345945542921,-4,-16,0,7,-3,-8,-2,-1
1470345945542921,0,-10,0,6,3,6,-2,0
1470345945543906,2,5,-4,3,7,-4,-2,0
1470345945543906,-1,9,-3,-1,-5,-1,-2,-2
1470345945555916,-2,-4,-2,-6,4,4,-3,-2
1470345945555916,-3,-14,-11,-10,-24,-20,-3,-3
1470345945564924,1,-19,-9,5,16,13,2,-1
1470345945564924,2,20,21,2,10,4,-1,-1
1470345945580486,-6,-41,-12,-3,-14,-8,-3,-3
1470345945580486,3,32,-7,-1,5,1,-3,-2
1470345945581944,-3,-14,15,-1,-6,-3,-3,0
1470345945581944,-2,14,8,-7,0,-6,-1,-2
1470345945603049,2,12,13,1,-9,6,1,5
1470345945603049,-1,8,-11,4,4,4,0,0
1470345945603968,0,2,-12,2,3,-1,1,1
1470345945603968,0,-8,2,0,1,0,-2,-1
1470345945616023,-1,-10,-1,-2,-9,-10,-1,-3
1470345945616023,2,12,29,9,9,3,2,1
1470345945624986,-5,-11,-37,-5,-3,1,-1,-3
1470345945624986,-2,-34,-6,-5,0,1,-1,0
1470345945640045,2,28,-12,-4,-7,-7,-1,-1
1470345945640045,-3,-19,-11,-13,-19,-20,-4,0
1470345945642047,1,20,32,5,15,17,2,-2
1470345945642047,0,7,4,8,4,5,4,2
1470345945663022,-2,-20,-29,-8,-9,-7,-1,-1
1470345945663022,-1,11,53,2,9,2,-1,-2
1470345945664023,-1,-10,-3,3,-10,-4,-1,0
1470345945664023,0,-7,-8,-13,-4,-2,-4,-3
1470345945676599,-1,19,34,16,-4,-1,0,-1
1470345945676599,-6,-29,-27,-13,6,2,-2,-3
1470345945685110,4,9,17,11,0,-2,-1,0
1470345945685110,-3,-17,-35,-10,5,7,-1,-1
1470345945700124,3,17,13,-9,-6,-6,-2,-2
1470345945700124,1,1,-13,14,-5,-1,-1,-3
1470345945702126,-2,0,5,4,5,0,0,-2
1470345945702126,1,0,-23,-23,-7,-2,1,0
1470345945723216,0,9,28,11,-5,-6,-2,0
1470345945723216,-4,-9,-30,6,10,3,0,-1
1470345945724146,-1,-8,17,-8,-6,-3,0,2
1470345945724146,0,14,-5,2,-2,0,0,-2
1470345945736212,-4,-13,-3,-8,-3,-3,-2,-4
1470345945736212,0,9,3,-4,-2,-4,-1,1
1470345945745200,0,-2,-2,-5,4,8,0,0
1470345945745200,-1,3,12,-2,0,-2,-2,2
1470345945760209,-5,-16,-16,-7,-2,0,-2,-3
1470345945760209,0,2,15,9,-6,-5,-2,-1
1470345945762211,0,5,-15,5,-24,-16,-3,0
1470345945762211,-2,-3,5,-6,18,11,0,0
1470345945782259,1,-6,0,8,7,6,3,-1
1470345945782259,2,6,-4,0,2,1,-1,1
1470345945784261,-1,-5,-9,-12,-10,-8,-2,-2
1470345945784261,0,0,4,8,-8,-1,-3,-1
1470345945796326,-1,-4,-11,-12,-4,-5,-2,-2
1470345945796326,3,5,8,-19,7,5,2,0
1470345945805283,1,-6,-5,6,6,3,1,-2
1470345945805283,-6,-5,9,-6,-3,-5,-2,-3
1470345945819334,-6,0,-8,-10,0,-2,-3,-2
1470345945819334,-3,-3,1,4,-2,0,-2,0
1470345945826341,0,2,2,-15,7,1,-1,-3
1470345945826341,2,2,-1,19,9,4,2,1
1470345945842368,0,3,-1,-4,-4,-2,-1,-1
1470345945842368,-1,4,3,5,-5,-1,-3,0
1470345945844314,-1,0,-18,0,-2,-2,-1,-1
1470345945844314,-3,-4,7,9,-7,-4,-1,-3
1470345945856368,2,9,-1,-28,0,-1,0,0
1470345945856368,1,-12,-16,2,-1,2,1,-2
1470345945865333,-1,5,3,-3,1,0,-1,-1
1470345945865333,-3,2,11,10,-5,-3,-1,-1
1470345945879859,-4,-30,-11,-1,-3,-2,-1,-1
1470345945879859,4,7,10,3,2,1,-2,-2
1470345945885983,-14,-8,14,12,-1,-1,0,-2
1470345945885983,0,0,-20,-9,-11,-4,-2,-1
1470345945903007,0,5,23,6,8,0,1,1
1470345945903007,5,0,-28,-5,2,0,1,1
1470345945904002,2,-2,1,-9,-5,-2,-2,0
1470345945904002,-1,-3,15,23,11,2,0,-1
1470345945925074,-1,5,-2,11,-6,-4,-1,-1
1470345945925074,-5,1,18,1,-3,-1,-1,-1
1470345945927019,0,3,-30,-13,-2,-3,-2,1
1470345945927019,-2,-1,-3,-15,-4,-1,-2,0
1470345945940032,-2,-12,-27,2,1,2,1,1
1470345945940032,0,6,14,12,-1,1,0,-1
1470345945946068,-6,0,-7,-13,-4,-4,-1,-2
1470345945946068,0,-3,19,-8,1,1,-1,-1
1470345945963052,1,-22,-25,7,2,0,-2,-2
1470345945963052,-6,-6,-16,-15,-6,-4,-2,-3
1470345945964053,10,-6,20,11,0,1,-1,1
1470345945964053,7,16,-32,-10,-4,-4,-2,-1
1470345945985691,-49,-50,-31,-12,-3,-3,-4,-8
1470345945985691,5,4,-13,-7,-1,2,-3,-1
1470345945986689,2,5,6,4,0,-3,1,1
1470345945986689,8,9,14,6,1,-2,-1,1
1470345945999785,15,24,-2,1,2,1,0,1
1470345945999785,-6,-6,8,-1,0,-1,1,-3
1470345946006740,-3,-11,-6,2,0,-1,-2,-4
1470345946006740,1,5,6,2,-2,1,0,0
1470345946022721,3,10,3,0,-1,2,0,1
1470345946022721,-5,-7,5,3,-1,-2,-2,0
1470345946024794,0,-1,0,-6,0,1,-1,-2
1470345946024794,-5,-7,-4,-2,-2,-2,-1,-2
1470345946044784,4,5,3,3,-3,-1,0,0
1470345946044784,2,2,0,-8,-1,0,-1,-2
1470345946046777,-2,4,-2,10,-2,-2,0,-1
1470345946046777,-5,-8,-2,-5,-1,0,-2,-2
1470345946058789,3,8,5,-2,-1,2,1,0
1470345946058789,1,3,14,8,3,2,0,0
1470345946067808,-5,-2,13,5,-1,-1,-1,-1
1470345946067808,-2,-6,-7,-5,1,1,-1,0
1470345946082378,5,9,5,-1,-4,-2,-1,0
1470345946082378,-1,-1,-15,-15,-4,-2,-1,-2
1470345946084486,-1,-3,-19,-10,9,3,-1,-2
1470345946084486,-1,-1,5,19,-8,-5,-2,-2
1470345946105506,3,5,12,0,-3,-2,-1,1
1470345946105506,-3,-3,-19,-6,0,-1,0,1
1470345946106506,0,-7,13,1,-4,0,0,1
1470345946106506,-4,-2,-16,-9,-1,-2,-1,-2
1470345946118519,2,4,-5,-3,1,-1,0,-2
1470345946118519,-3,-10,11,11,-4,-2,-3,-2
1470345946127523,-10,-1,5,-8,-2,0,-3,0
1470345946127523,10,2,1,-5,-1,-1,0,-1
1470345946142538,-24,-2,4,14,0,0,0,-1
1470345946142538,5,2,-3,-19,-1,-2,0,-1
1470345946144540,2,-2,-12,1,-2,-2,0,-1
1470345946144540,-5,0,5,-4,-3,-2,-1,-2
1470345946165558,0,1,-1,-2,1,1,-2,-1
1470345946165558,3,7,3,22,0,0,0,0
1470345946166559,9,5,7,-7,0,0,-1,0
1470345946166559,-2,-12,-8,-3,-3,0,-1,-1
1470345946179079,-12,0,2,7,-1,-2,1,-5
1470345946179079,-5,-2,-5,-28,-1,-1,0,1
1470345946187757,9,0,-8,21,-2,-2,-1,0
1470345946187757,-6,-5,6,-3,2,0,-2,1
1470345946202775,7,4,7,-4,1,-3,-2,1
1470345946202775,-6,-3,-7,7,-1,0,1,1
1470345946203772,-6,2,-3,-4,0,-3,0,-1
1470345946203772,-2,-4,-5,-10,0,-1,-1,-3
1470345946225847,9,-3,-6,1,1,0,0,1
1470345946225847,2,1,24,7,-1,0,-3,-1
1470345946226823,3,0,1,-11,-6,-1,-1,-1
1470345946226823,-2,-1,-14,14,-1,-2,-1,0
1470345946239839,8,3,-6,-22,-3,-1,-1,0
1470345946239839,-2,-6,-9,6,-3,-1,-1,-4
1470345946245835,-7,-3,19,-4,0,0,-3,0
1470345946245835,-1,5,-21,6,4,1,1,-1
1470345946262868,5,-5,12,-7,-2,-2,-3,0
1470345946262868,7,-3,-11,9,5,0,-2,0
1470345946264846,-19,-5,-21,-3,-3,0,-1,-3
1470345946264846,3,2,6,-9,-3,-1,-1,0
1470345946285446,1,-1,2,7,1,-1,-2,-2
1470345946285446,-1,1,17,6,-3,-1,1,0
1470345946286429,5,1,0,-5,1,-1,1,0
1470345946286429,-4,-6,-10,-1,-5,-2,-2,-1
1470345946299440,0,4,6,5,-1,-1,0,-2
1470345946299440,-4,-3,-5,-13,-3,-1,-2,-2
1470345946306447,0,3,4,28,5,-2,-1,-1
1470345946306447,1,-4,3,-25,-1,0,0,0
1470345946322478,-2,-3,-8,-4,-4,-2,-1,0
1470345946322478,-7,-2,-1,4,1,-1,-1,-2
1470345946324466,-1,-6,-18,-14,-3,-2,-1,0
1470345946324466,2,4,7,0,0,-1,-1,0
1470345946345482,-1,-10,-17,-8,-1,-3,-3,-2
1470345946345482,1,8,7,-2,-5,-1,0,0
1470345946346483,0,2,1,-2,-4,-1,-1,-1
1470345946346483,-4,-2,10,20,3,-3,-1,-2
1470345946359584,0,-4,-1,-11,2,0,0,0
1470345946359584,-3,-3,-5,-16,-5,-4,-2,-2
1470345946366509,-2,-2,-14,-10,-2,0,0,-1
1470345946366509,-4,-5,5,15,0,-2,0,0
1470345946383073,3,2,7,8,-3,-3,-1,-3
1470345946383073,-3,0,4,1,2,0,0,-1
1470345946384394,0,-1,-6,-8,-4,-1,-2,-1
1470345946384394,-1,2,10,8,0,-1,-1,-1
1470345946412417,-3,1,-8,1,1,0,0,1
1470345946412417,-1,-1,-8,2,-1,1,0,0
1470345946414419,0,0,13,0,0,-1,-2,-1
1470345946414419,-1,-4,-13,-8,-4,-1,1,-1
1470345946419423,0,2,5,-14,-2,-2,-1,0
1470345946419423,-10,-5,1,-3,-3,-2,-1,-3
1470345946426428,-2,3,6,20,2,-1,-1,-1
1470345946426428,2,-1,-4,-5,-3,-2,-1,-1
1470345946442456,0,0,4,-8,6,0,1,-1
1470345946442456,2,0,-15,11,-1,-2,-2,1
1470345946444445,-2,-1,8,6,3,-3,-2,0
1470345946444445,-6,-3,-10,-12,-3,0,-1,-2
1470345946465482,1,1,8,8,-7,0,-2,-1
1470345946465482,1,-2,-5,-6,4,0,-2,-1
1470345946466465,-1,-2,3,2,-1,-1,-1,-1
1470345946466465,-1,-4,1,-2,0,-2,-1,0
1470345946479994,-4,5,1,4,0,-2,-2,-3
1470345946479994,1,-9,-9,-2,0,0,-1,-1
1470345946486518,-1,-2,-8,-5,-3,0,-1,-1
1470345946486518,-2,-7,7,-1,-1,-1,0,0
1470345946502533,-3,-6,-17,0,-4,-1,-1,-1
1470345946502533,-1,2,7,23,2,-3,-2,-3
1470345946504533,4,8,-5,-15,0,2,-1,0
1470345946504533,0,-1,-11,-23,-1,1,-2,-1
1470345946525551,0,-1,12,9,0,1,0,-1
1470345946525551,-1,3,-7,3,1,0,-1,1
1470345946526553,-2,-7,-1,3,-3,-4,0,-1
1470345946526553,4,4,-5,-5,0,-1,-2,-1
1470345946539653,4,-3,6,3,-4,-4,-2,0
1470345946539653,-11,1,-7,-10,-3,-3,-1,-1
1470345946546570,-4,-6,8,-1,-2,-3,-1,-4
1470345946546570,-1,0,-5,7,5,3,0,-2
1470345946562584,-2,-6,-8,-12,-3,-1,0,0
1470345946562584,1,-1,4,0,-1,0,1,1
1470345946564587,9,0,10,-8,-2,-2,0,-3
1470345946564587,-8,-3,-32,0,-2,-3,0,-3
1470345946585634,-6,1,6,3,0,-2,-3,0
1470345946585634,3,-2,-1,-12,-1,-1,-2,0
1470345946586633,1,-6,3,3,-1,0,-1,2
1470345946586633,2,3,17,2,-6,-2,-1,-2
1470345946598659,0,2,-13,6,6,2,0,-3
1470345946598659,-2,-13,-2,-19,-6,-4,-2,-2
1470345946607649,-2,-1,0,6,0,0,-2,-1
1470345946607649,-1,-3,5,9,0,0,0,-1
1470345946622667,-3,1,10,-6,-2,-2,-2,0
1470345946622667,0,-2,-4,-7,-2,0,-2,-3
1470345946624665,-2,-2,-11,-4,-1,-1,0,-1
1470345946624665,-3,0,-15,-2,-1,-4,-1,0
1470345946645683,1,-3,19,13,4,-1,0,0
1470345946645683,5,5,-2,11,1,-3,0,0
1470345946646685,-5,5,-3,-31,-5,-1,-1,-2
1470345946646685,5,10,-7,-5,-3,-1,0,2
1470345946658739,6,-3,-6,0,0,-1,0,-1
1470345946658739,-16,0,17,13,0,0,-2,-2
1470345946668237,-2,-2,-10,1,-2,-1,-1,0
1470345946668237,0,0,15,-1,0,-1,-1,0
1470345946682767,-2,0,-12,-9,-2,-1,-1,0
1470345946682767,11,-5,-23,-12,-1,1,-1,1
1470345946684685,-2,-1,0,7,-2,-1,-1,-3
1470345946684685,-6,-8,6,-10,1,1,-1,-1
1470345946704705,0,0,4,8,0,-1,0,-3
1470345946704705,-5,-1,-3,-2,-1,-1,0,0
1470345946706704,1,0,-14,-3,-1,-1,-1,0
1470345946706704,4,3,4,-2,-3,-1,-2,-3
1470345946718719,-15,-5,-1,0,-3,-2,-1,-2
1470345946718719,2,-1,14,8,-1,-1,-2,-1
1470345946727724,2,-1,-21,-11,4,1,-2,-1
1470345946727724,-5,0,14,14,2,-2,-1,0
1470345946742736,-2,-5,-4,-9,-4,0,0,0
1470345946742736,3,15,-10,0,-2,-1,1,-1
1470345946744740,0,-5,14,9,-1,-1,-2,-1
1470345946744740,4,-3,-11,-17,4,3,-1,0
1470345946764799,0,9,1,6,-3,-1,0,1
1470345946764799,1,-3,0,-6,-10,-2,0,2
1470345946766759,-2,-4,7,-3,-7,-2,-1,-1
1470345946766759,-3,-1,-8,-32,7,0,-1,0
1470345946779279,5,-4,-3,15,3,1,0,-1
1470345946779279,-1,6,-9,-2,-2,-5,-2,-2
1470345946787843,-2,0,8,12,-5,-5,1,0
1470345946787843,5,-3,-3,10,-8,-4,-1,-2
1470345946802806,0,-1,-3,-10,0,-2,-1,0
1470345946802806,-9,-1,14,0,3,1,0,-2
1470345946804886,-1,-7,-5,0,3,-2,0,0
1470345946804886,2,3,-3,12,-2,-1,0,-2
1470345946823823,-1,4,-4,-4,-2,-1,-1,-1
1470345946823823,2,-5,-6,-1,-1,0,-1,-1
1470345946840891,0,3,-18,-8,2,-1,0,0
1470345946840891,-2,-9,1,0,-4,-2,-1,0
1470345946841839,-4,-2,3,0,-2,-1,0,-1
1470345946841839,3,-2,16,1,2,1,0,-1
1470345946847846,-2,-4,-4,-6,0,0,0,-2
1470345946847846,0,-1,-8,7,-3,-1,-2,-1
1470345946862903,-1,-2,0,8,-1,-2,-2,-3
1470345946862903,-4,-1,11,-16,-1,0,0,0
1470345946863862,-2,-7,-2,4,2,-1,-1,-1
1470345946863862,0,0,2,7,-6,-1,-1,-1
1470345946885011,0,0,2,-2,-1,-1,-2,-2
1470345946885011,1,-2,3,4,3,-2,-2,-2
1470345946887008,0,4,-10,-5,-3,0,-1,-1
1470345946887008,-3,-4,16,-7,-3,0,-1,-2
1470345946898982,0,-3,-9,-9,-2,0,-1,-2
1470345946898982,-1,-6,-13,2,0,-1,-1,-1
1470345946907994,-2,4,2,5,-1,-2,-1,-2
1470345946907994,-5,-6,1,4,-1,-3,-2,-2
1470345946923005,-1,0,-9,-8,-5,-2,0,-1
1470345946923005,-2,0,-10,-16,-3,-2,-2,-1
1470345946924004,-2,-4,10,13,2,0,-1,-2
1470345946924004,-2,1,-3,7,0,-1,-1,-2
1470345946945055,-6,-10,-9,-14,0,-1,-1,-2
1470345946945055,-1,-2,-12,8,0,0,-1,0
1470345946947042,2,-1,-4,-3,-3,1,-3,0
1470345946947042,2,8,5,-3,-3,-3,-1,-1
1470345946959040,-3,-8,-3,6,4,-1,-2,0
1470345946959040,-2,-5,-7,-11,0,-2,-2,-2
1470345946968046,-1,-1,3,2,-3,-2,-2,0
1470345946968046,-1,-3,15,-1,1,-2,-1,-1
1470345946983067,0,4,-2,-4,-5,1,-1,0
1470345946983067,0,2,4,6,0,0,1,-1
1470345946984068,-3,-3,-4,-16,-7,-2,-1,-1
1470345946984068,0,9,-4,-8,-1,-2,0,1
1470345947005112,2,1,0,10,-2,-2,-2,-1
1470345947005112,1,-3,5,1,-1,-2,-3,-2
1470345947007095,-1,2,-1,3,-2,0,-1,-2
1470345947007095,-1,-4,-3,0,1,2,-2,-1
1470345947027111,2,0,-3,-1,-2,-1,-1,-1
1470345947027111,-11,0,8,5,-5,-1,-2,-1
1470345947029113,2,-8,-1,1,5,1,1,1
1470345947029113,-8,-5,-6,-6,-2,0,-2,-2
1470345947043125,-2,3,1,5,1,-2,0,-1
1470345947043125,1,6,-2,13,1,0,-2,0
1470345947044127,-3,6,15,-8,2,1,-1,-1
1470345947044127,1,-13,-14,0,-2,-1,-1,-1
1470345947065171,-4,1,-1,-7,-5,-2,-1,-2
1470345947065171,0,-7,3,3,0,-1,0,-1
1470345947067148,-2,2,-18,-3,1,-1,0,2
1470345947067148,-1,2,8,-1,-2,-4,-1,-1
1470345947087220,0,-1,-3,-10,-3,-2,0,-1
1470345947087220,2,0,2,11,-4,-2,-2,0
1470345947089249,-1,1,1,-14,7,0,-1,-1
1470345947089249,0,-5,-3,7,-3,-2,-1,-2
1470345947102308,-1,-2,-1,-9,0,-3,-1,0
1470345947102308,0,0,-4,3,7,3,-1,-3
1470345947109301,0,0,-9,5,-6,0,0,-1
1470345947109301,0,2,0,-6,1,0,-2,0
1470345947125326,0,1,2,3,-1,1,-1,0
1470345947125326,-1,-1,7,-2,-4,-4,-2,-1
1470345947127256,-3,-8,-13,2,3,-1,-1,-1
1470345947127256,1,2,9,-4,-3,-1,-1,0
1470345947147276,0,-9,6,5,-2,1,-2,-3
1470345947147276,2,2,-1,-13,-3,-2,-1,-2
1470345947149276,-6,1,12,2,-5,-1,-1,-2
1470345947149276,-5,-4,-15,-2,0,0,-1,-1
1470345947161287,2,-9,7,-2,1,-1,-2,-1
1470345947161287,-1,9,-5,-3,-3,0,1,-1
1470345947170392,1,0,9,3,0,0,-2,-2
1470345947170392,-2,-4,-8,10,-2,-2,0,-3
1470345947185508,-6,0,-15,-7,1,-2,0,0
1470345947185508,-1,-6,-3,-13,-2,-1,1,0
1470345947187416,0,3,0,-4,-2,-4,-1,-1
1470345947187416,-1,-1,-6,-14,-3,-1,-2,-1
1470345947207430,0,0,-3,12,4,0,-1,0
1470345947207430,1,-7,5,1,-4,-2,0,-1
1470345947209434,-3,5,17,13,0,-3,-3,-3
1470345947209434,0,0,-5,3,3,-1,-2,1
1470345947222443,-2,-3,-2,-20,-7,-1,-1,-2
1470345947222443,-1,5,2,3,-2,-1,-2,-3
1470345947228452,4,2,3,-2,-3,0,1,-1
1470345947228452,-1,0,2,1,0,-1,-1,-3
1470345947245517,-4,-1,-5,-3,-3,-2,-2,-3
1470345947245517,-2,-5,-13,-3,3,1,0,-2
1470345947246465,-3,-7,-10,-6,-6,-1,-2,-1
1470345947246465,1,8,9,2,1,0,-1,-2
1470345947267498,2,-7,4,28,0,0,-1,-2
1470345947267498,-2,-1,1,-32,-4,-1,0,-2
1470345947269587,-2,0,3,2,2,-1,1,0
1470345947269587,-4,-9,-28,-8,-4,-2,-1,0
1470345947282541,-3,-3,10,14,3,-1,-1,-2
1470345947282541,-2,2,-1,-4,0,-1,-1,0
1470345947289484,2,0,1,7,-3,-1,-1,-2
1470345947289484,0,-4,6,7,-1,1,-1,-1
1470345947305456,0,4,5,-14,-1,-1,-1,-2
1470345947305456,-1,-6,-3,5,1,1,-1,-1
1470345947306430,-1,1,-12,-6,-3,-1,-2,1
1470345947306430,-3,-11,10,0,-2,0,1,-1
1470345947335547,0,-2,-23,-6,-4,-3,-1,-2
1470345947335547,-1,-1,2,7,0,-2,-2,-1
1470345947336441,0,-3,2,-10,-2,-1,1,-1
1470345947336441,0,6,21,23,2,-1,-1,-2
1470345947342475,-4,-3,-34,-31,-4,-1,-2,-2
1470345947342475,0,-3,4,2,-2,-1,-2,-1
1470345947348510,-2,0,0,5,2,-4,-2,0
1470345947348510,-2,-8,-12,-6,-1,0,-1,-2
1470345947365508,1,11,12,8,2,1,1,0
1470345947365508,1,-1,-13,-12,1,-2,-1,-2
1470345947366470,1,-5,-9,-2,-2,-2,-1,-2
1470345947366470,-3,3,14,3,1,-2,-2,-1
1470345947387207,-2,-3,-6,0,-3,-3,-1,-2
1470345947387207,0,-4,-7,-4,-4,0,0,0
1470345947389175,-2,-2,1,11,-2,0,-2,0
1470345947389175,2,8,-4,-18,0,0,0,1
1470345947402220,-2,1,11,7,2,-1,0,-1
1470345947402220,-2,0,3,0,-2,-1,-1,-1
1470345947409193,0,-3,-11,-3,2,-1,-2,-3
1470345947409193,1,4,3,1,0,-1,0,-1
1470345947425208,-2,-2,14,5,0,1,0,1
1470345947425208,-2,-2,4,-2,-1,-2,0,-1
1470345947427210,-3,3,8,5,-4,-2,-1,-1
1470345947427210,-4,-4,-14,-18,-4,-1,0,-2
1470345947447227,3,7,2,9,1,0,0,-2
1470345947447227,-4,-12,-1,7,4,1,-1,-1
1470345947449230,2,-5,0,-4,-1,2,-1,-3
1470345947449230,0,-6,-1,-4,-2,-3,-1,-2
1470345947461242,-1,-1,-7,-1,0,2,-1,1
1470345947461242,-2,4,11,10,-2,-2,-1,0
1470345947470268,-2,-5,-7,-7,-4,-1,0,0
1470345947470268,-3,-9,-5,-6,-2,-1,-1,-1
1470345947485402,1,-2,5,-4,-3,-1,-2,-3
1470345947485402,0,-5,-2,1,-4,-1,-3,-2
1470345947486370,-1,3,-5,-3,1,-2,-2,-1
1470345947486370,-1,1,2,0,-3,0,-1,-2
1470345947507407,-1,-5,-7,-9,-3,-1,-2,0
1470345947507407,1,0,0,-8,-3,-2,-1,0
1470345947509390,-1,-4,18,5,-2,0,0,-1
1470345947509390,0,6,-7,4,-3,-1,-2,-2
1470345947522487,-3,-4,-14,-5,-3,0,-2,-1
1470345947522487,-2,0,3,2,-1,-1,-2,-2
1470345947530426,-3,-1,-3,-5,-1,-1,-2,0
1470345947530426,1,0,2,3,4,0,-1,-1
1470345947545471,0,2,3,-3,0,-1,-2,1
1470345947545471,-1,1,0,1,-4,-1,-1,-1
1470345947546424,0,-6,-3,-4,-1,-3,-2,-2
1470345947546424,-1,-1,-2,-6,-2,2,0,-1
1470345947567443,1,-1,9,-5,-3,-2,-1,-1
1470345947567443,-2,15,-19,-2,-1,-1,-1,0
1470345947569445,-2,-3,-1,-3,-2,-1,0,-2
1470345947569445,1,-2,2,9,-1,-2,-1,-1
1470345947581479,-2,-1,0,0,1,-1,1,0
1470345947581479,-1,-4,-4,-2,1,-2,-1,-3
1470345947590509,0,10,-1,-4,-1,-1,-1,-1
1470345947590509,-1,0,0,2,-1,-1,-2,0
1470345947605522,-2,-7,-23,-2,-1,-3,-1,-3
1470345947605522,2,-4,7,-9,-4,-1,0,-1
1470345947606526,-1,0,0,-4,-2,-1,-3,-2
1470345947606526,-1,-4,-22,0,3,-1,0,-1
1470345947627573,-2,-1,-1,8,-2,0,0,-1
1470345947627573,-3,-3,1,6,2,-2,-1,0
1470345947629548,-1,-2,-3,-13,-5,0,0,-2
1470345947629548,0,3,15,1,-1,-3,-1,-1
1470345947641571,-5,-5,5,5,-2,-1,0,-2
1470345947641571,-4,-10,-23,5,-4,-1,0,-2
1470345947650564,1,11,13,-10,4,2,1,0
1470345947650564,-3,-4,-20,2,-6,-2,-2,-1
1470345947664576,-1,4,3,-10,1,0,0,-2
1470345947664576,2,-1,12,4,0,-1,-1,-1
1470345947673089,-4,-2,-5,10,0,-3,-2,-1
1470345947673089,0,3,1,-1,-2,-1,-1,-1
1470345947688148,1,-1,-1,-10,0,-1,0,0
1470345947688148,-2,1,8,-1,1,-1,-1,-2
1470345947689149,0,-2,-3,15,-1,-1,-1,-1
1470345947689149,1,2,10,-14,0,1,1,1
1470345947701160,-2,-3,-6,1,-6,-4,-4,-1
1470345947701160,-1,-2,12,-6,5,3,-1,-1
1470345947711173,-2,-4,4,4,-3,-3,-3,0
1470345947711173,-1,-9,5,0,-2,0,0,0
1470345947725181,0,6,-4,-3,-3,1,-1,-1
1470345947725181,1,-9,-22,-8,2,1,0,0
1470345947727186,0,12,-3,1,-3,-2,0,0
1470345947727186,-1,0,6,10,-3,-2,-3,-1
1470345947747204,2,2,12,-7,6,3,0,-1
1470345947747204,-1,7,-8,-6,-5,-2,-1,0
1470345947749204,-4,-14,5,-2,1,0,-2,-2
1470345947749204,-2,2,-2,-6,-3,-2,-2,-2
1470345947761249,-1,1,-1,5,-3,-1,-1,-2
1470345947761249,-5,-1,2,-1,1,-1,-2,-1
1470345947778237,2,0,-20,0,-2,-2,0,-1
1470345947778237,-2,0,17,-4,-1,-2,0,-2
1470345947785280,-1,-4,-24,-4,-1,-2,0,-1
1470345947785280,3,-11,4,2,0,-2,0,0
1470345947787281,-2,1,-1,-5,-6,-3,-1,0
1470345947787281,-2,-6,3,7,1,-2,-1,0
1470345947807354,-1,2,5,-2,-2,-1,1,1
1470345947807354,-1,-3,-2,0,-3,-1,-1,-1
1470345947809311,2,1,-15,-3,4,2,-1,-1
1470345947809311,0,7,10,4,1,0,-1,-1
1470345947821363,-5,-9,-3,2,1,0,-2,-1
1470345947821363,-1,5,-12,-5,-5,-3,-2,-1
1470345947830320,-2,-5,12,-2,-2,-1,-1,1
1470345947830320,-1,-3,-10,-4,0,-1,-1,-2
1470345947845375,1,5,9,13,0,-1,-1,-2
1470345947845375,-1,-4,4,-3,0,-2,-3,-1
1470345947847334,0,0,-11,-6,-1,0,1,0
1470345947847334,-1,-1,7,6,1,0,-1,0
1470345947867429,-3,-9,-6,-15,-5,-2,0,-2
1470345947867429,1,12,-7,5,4,1,0,0
1470345947869357,-2,-4,4,-3,-1,-2,-1,-2
1470345947869357,2,-3,-2,-2,-1,-2,0,-1
1470345947881874,-4,-4,4,7,0,-1,-1,-1
1470345947881874,-1,0,18,3,-3,-1,-2,-2
1470345947896391,1,3,-20,-4,-3,-2,-1,-2
1470345947896391,0,-6,-13,-11,1,1,-2,0
1470345947905418,0,-1,6,-2,2,-1,-1,-1
1470345947905418,-1,-4,3,1,-1,0,1,-1
1470345947907429,0,-5,0,1,1,1,0,-1
1470345947907429,-2,1,-9,-1,-3,-3,-2,-2
1470345947927427,-1,1,-5,3,-1,-1,-2,-1
1470345947927427,-4,-2,-5,-6,-1,0,-1,0
1470345947929459,0,5,5,-2,-2,0,-2,-1
1470345947929459,2,-2,-24,-5,0,-1,1,1
1470345947941487,2,0,3,3,2,0,-3,0
1470345947941487,1,-4,7,4,-1,0,-2,-2
1470345947950439,-2,-3,8,-3,-2,0,-2,-1
1470345947950439,-3,-4,-1,-4,-2,0,-1,-1
1470345947965498,1,4,5,0,2,-3,2,0
1470345947965498,1,-3,-6,0,-3,-1,0,1
1470345947966453,-1,-5,2,-2,4,-1,-2,-1
1470345947966453,-3,-4,3,9,0,-1,0,-1
1470345947988063,-3,-1,6,-3,-3,-1,0,-3
1470345947988063,-1,4,-3,0,0,-1,-1,0
1470345947989031,-3,-16,-19,-8,-3,-2,-1,0
1470345947989031,-2,2,6,1,-3,-1,-2,-2
1470345948010103,1,0,6,3,0,0,-2,-1
1470345948010103,-1,-4,-8,-2,0,-3,-2,-3
1470345948012094,0,0,5,-9,-4,-2,-2,-1
1470345948012094,-1,3,5,-1,0,0,-2,-1
1470345948025117,-2,-3,-8,3,-3,-2,-2,0
1470345948025117,-4,0,10,6,1,0,-1,-1
1470345948027110,-2,-1,-6,7,0,-2,2,-1
1470345948027110,-1,-4,12,-10,-1,0,0,-2
1470345948048164,1,-3,-2,-6,-5,-2,-1,-1
1470345948048164,1,5,-6,12,0,0,0,0
1470345948049084,-1,2,-1,-10,1,-1,0,-1
1470345948049084,0,-10,-3,5,-3,-1,-1,-2
1470345948070610,-2,4,-1,0,-4,0,-2,0
1470345948070610,-3,-19,-2,-2,2,0,0,-1
1470345948072112,-2,3,-4,3,-4,-2,-1,-2
1470345948072112,-2,7,-9,-11,-4,-1,0,0
1470345948085175,-3,-3,0,13,1,-1,-1,0
1470345948085175,-1,-2,-7,-22,-3,-2,-1,0
1470345948087247,-1,-1,9,4,1,-1,-1,0
1470345948087247,1,2,-3,7,1,-1,0,0
1470345948107266,-1,5,15,-1,0,1,-1,-1
1470345948107266,-2,1,-4,-6,-5,-1,-1,-1
1470345948109269,1,2,-3,7,6,1,0,1
1470345948109269,0,3,13,7,-2,-2,0,-2
1470345948130318,-1,-1,4,-4,-1,-4,-1,-3
1470345948130318,0,7,-1,-3,-4,-2,-1,1
1470345948132303,-3,-17,-3,8,7,2,-2,-2
1470345948132303,-2,0,-7,-7,1,-1,1,-1
1470345948144298,-1,-2,1,-15,0,0,0,1
1470345948144298,-4,-5,-9,6,-4,-1,-1,-2
1470345948151304,0,2,-1,-4,-4,-1,-2,-1
1470345948151304,-6,-4,-8,5,-3,-2,0,0
1470345948167374,1,-5,0,-3,0,-2,-1,-2
1470345948167374,1,3,6,6,-2,-2,-1,-1
1470345948169321,0,-2,-6,-15,0,-1,0,1
1470345948169321,0,-3,-6,0,-3,-3,-2,-2
1470345948190431,-3,-2,-16,-5,-2,-1,-1,-1
1470345948190431,0,1,2,8,2,1,0,-1
1470345948191381,-3,-4,-5,-7,-4,-3,-2,-1
1470345948191381,0,-4,1,-9,-4,-1,-1,0
1470345948204440,2,4,-5,8,1,0,-2,1
1470345948204440,-2,1,4,-4,-2,0,1,-1
1470345948211453,-1,3,9,14,-6,-3,-1,-1
1470345948211453,-2,2,2,-21,2,1,-1,-1
1470345948227413,0,-14,0,6,-2,-1,0,-1
1470345948227413,-1,4,-3,-7,2,-1,1,-1
1470345948229415,-3,2,2,-5,-5,-2,1,-2
1470345948229415,-3,-1,3,16,3,0,-3,-1
1470345948250525,-2,3,0,-1,-1,-1,-1,-1
1470345948250525,0,-8,1,-12,-4,-2,-1,1
1470345948251434,0,-1,0,-10,-5,-2,-1,-1
1470345948251434,-1,0,-15,4,-1,-1,0,-2
1470345948264489,-1,3,0,-8,0,-1,0,-1
1470345948264489,-2,-6,-2,10,2,1,-2,-3
1470345948271503,-2,0,-11,3,-4,-1,-2,-1
1470345948271503,2,-4,-3,-11,-2,1,-1,-1
1470345948288017,-4,4,4,-2,1,0,-1,-1
1470345948288017,1,2,6,-1,-4,-2,-2,-1
1470345948289019,0,-2,5,1,0,-1,-1,0
1470345948289019,-2,-7,-8,2,6,1,-1,-1
1470345948310127,-1,-2,-3,10,-1,-2,0,0
1470345948310127,-2,-5,-3,-11,2,-1,0,-2
1470345948312041,-4,-1,2,0,-2,0,-2,-3
1470345948312041,3,8,6,10,-2,-1,0,0
1470345948325051,-1,0,-9,-13,-5,-1,-3,0
1470345948325051,-1,0,-8,0,-2,-2,-1,-1
1470345948331115,0,-4,-6,-4,0,-1,1,0
1470345948331115,-1,0,16,4,-2,-1,-1,-1
1470345948348071,-1,-4,-7,6,0,0,0,-1
1470345948348071,-1,-3,-9,0,-3,0,-2,1
1470345948349074,1,6,15,-8,1,-1,0,0
1470345948349074,0,3,-12,5,5,0,-2,0
1470345948370652,-4,-1,-11,-9,-1,0,-1,-1
1470345948370652,0,1,-2,3,-2,-1,-3,-2
1470345948372142,-1,-1,2,8,0,1,-1,-1
1470345948372142,-2,-6,-12,-9,-5,-1,-2,-2
1470345948384702,-1,-3,5,-1,-1,-1,-1,-2
1470345948384702,-2,-6,2,2,1,-1,-2,-1
1470345948391093,0,-3,9,-2,-2,-1,0,-2
1470345948391093,-2,-7,-18,-8,-3,-2,-3,-1
1470345948408065,0,1,-4,-3,-1,-2,0,-1
1470345948408065,0,-2,8,-4,-3,-1,-1,-1
1470345948409067,-1,-2,-13,-4,0,-2,-1,-1
1470345948409067,-1,4,6,2,0,-1,-1,0
1470345948430085,-2,-1,6,-12,1,0,-1,-1
1470345948430085,-1,-2,-5,-2,-1,-1,2,0
1470345948432120,-1,-5,-14,-2,-1,-1,-1,-1
1470345948432120,0,4,10,2,-2,-2,-1,-2
1470345948444098,1,-1,0,-1,-1,0,-1,-1
1470345948444098,-3,-7,-7,-2,-1,0,-3,0
1470345948453106,-1,4,7,3,1,0,-2,-1
1470345948453106,0,-3,5,0,-2,-1,0,-1
1470345948468212,-3,-1,-3,2,-2,-1,0,-1
1470345948468212,-2,1,0,1,2,0,0,-1
1470345948469122,-4,0,1,17,-2,-3,-1,-2
1470345948469122,-1,-4,-3,-33,-2,-2,-1,0
1470345948490207,-3,-5,1,4,-3,-2,-1,-1
1470345948490207,1,8,-9,-4,-2,-1,0,-1
1470345948492198,-3,-13,6,6,3,2,-2,-1
1470345948492198,-3,6,10,4,-3,-2,-2,-1
1470345948504283,0,-5,-20,-6,-1,-2,-2,0
1470345948504283,-1,-4,-5,6,-1,-1,-1,-1
1470345948513201,-5,-9,0,-16,-3,-2,-1,-2
1470345948513201,1,-5,-10,4,-2,-1,-2,-2
1470345948527212,-1,-3,-9,-17,-2,-1,-2,-2
1470345948527212,0,1,3,5,0,0,-1,-2
1470345948529215,1,2,-3,-2,-3,-1,1,0
1470345948529215,-4,-1,1,-1,-5,0,0,-1
1470345948550317,2,2,6,13,-2,0,0,1
1470345948550317,0,0,-3,-4,3,-1,-2,0
1470345948552284,-1,4,-6,2,-1,-2,-3,-1
1470345948552284,0,1,-1,1,-1,-1,0,0
1470345948564246,1,-2,8,3,3,0,-1,-1
1470345948564246,-3,-2,5,-8,-7,-2,-1,-1
1470345948572791,1,0,-13,-4,-3,0,0,-1
1470345948572791,0,1,0,8,-2,-1,-1,1
1470345948587405,-3,-2,6,-4,-1,-3,-1,-3
1470345948587405,0,3,-7,2,1,0,-1,-1
1470345948589365,0,-1,1,0,0,-4,-2,-1
1470345948589365,-2,6,-6,-6,-2,-1,-2,-3
1470345948610439,-1,-10,4,-1,-2,-1,-1,-2
1470345948610439,0,3,0,-6,-5,0,0,1
1470345948611381,3,-1,0,1,-1,1,0,0
1470345948611381,-3,-3,5,15,0,-1,-1,-2
1470345948632434,-1,8,-14,-16,-1,0,0,-1
1470345948632434,0,-1,13,2,-1,-2,-1,-2
1470345948634403,0,-1,-20,-4,1,1,-1,-1
1470345948634403,1,-6,9,2,0,-3,-1,0
1470345948647415,-1,1,-4,5,-2,1,-2,-2
1470345948647415,1,-2,11,-2,0,-2,0,0
1470345948649466,-3,0,-5,-9,-2,1,-1,0
1470345948649466,-1,-3,4,0,0,0,-1,0
1470345948670478,-1,2,-2,-1,-1,-2,1,0
1470345948670478,-2,1,-5,-6,-1,0,0,-1
1470345948672056,-3,-1,1,6,0,-1,-1,-1
1470345948672056,1,2,-7,-5,-6,-2,-2,-1
1470345948684054,-2,-2,5,-8,0,0,-1,-1
1470345948684054,-4,-8,-20,6,3,0,-1,-1
1470345948692561,0,2,8,3,-2,-3,0,-1
1470345948692561,0,2,-2,-7,0,1,0,-1
1470345948707577,0,0,12,14,-4,-2,-1,0
1470345948707577,-3,-1,-29,-9,-2,-2,-1,-2
1470345948709579,-1,1,8,-10,-1,-2,-1,-2
1470345948709579,-1,-1,-12,-1,1,-2,-1,-2
1470345948730595,-1,-4,18,6,-2,-1,-2,0
1470345948730595,1,3,11,5,0,-1,-1,-3
1470345948731599,1,-2,-8,3,-2,-2,-2,0
1470345948731599,-1,0,-8,-6,-5,-1,0,-1
1470345948744609,0,-3,-3,-7,3,0,-1,0
1470345948744609,-2,-8,-5,8,-3,-1,-1,1
1470345948752637,-1,-3,0,5,-2,-1,-1,0
1470345948752637,-2,-1,16,-13,-1,-1,-1,-3
1470345948767633,0,5,-19,-6,-2,0,0,-1
1470345948767633,-1,-10,7,-1,0,0,-2,-1
1470345948769631,1,-2,-5,12,0,-1,-1,0
1470345948769631,-2,-2,3,4,4,1,0,0
1470345948790417,0,6,-3,-12,-5,-1,-1,-1
1470345948790417,0,2,-1,-4,0,-1,0,1
1470345948791417,-3,0,1,4,0,0,-2,-1
1470345948791417,1,-2,-3,8,-3,-1,1,0
1470345948804486,-3,-8,-1,-2,-2,-1,-1,-2
1470345948804486,1,2,-4,-3,2,0,-2,-1
1470345948812436,2,3,5,-5,-1,1,-1,1
1470345948812436,-1,-3,-24,-4,-2,-2,-1,0
1470345948835459,-1,0,8,4,0,-1,-1,-2
1470345948835459,-1,-3,6,3,0,-2,-1,-1
1470345948836459,-4,-7,-3,-6,-1,0,-1,-3
1470345948836459,-1,-5,4,-1,-1,0,-3,1
1470345948850489,-2,3,10,4,-1,0,0,0
1470345948850489,0,3,-6,-2,-4,-1,0,-1
1470345948852491,-2,4,8,23,-2,-3,0,-1
1470345948852491,-1,-3,-9,-41,3,-1,-2,-2
1470345948863537,-1,-3,-19,5,-1,-2,0,0
1470345948863537,-1,2,6,-2,-3,-1,-3,-1
1470345948873052,-3,-7,-1,1,1,-1,0,-1
1470345948873052,0,3,4,-1,-5,-1,-1,-1
1470345948888662,0,0,-10,3,0,-1,-3,-2
1470345948888662,-2,4,4,-10,1,2,-1,-1
1470345948889676,3,7,1,-2,-1,0,0,-1
1470345948889676,-3,-14,5,8,-2,-1,-2,-2
1470345948910657,-2,-2,-7,-6,0,-1,1,0
1470345948910657,-4,1,1,0,-2,-2,0,0
1470345948911655,-2,-1,-8,-8,1,-1,-2,1
1470345948911655,-1,1,13,11,-2,0,0,-3
1470345948932728,-2,-4,-8,-7,-1,-1,-2,-2
1470345948932728,0,-4,-3,-3,-1,-3,0,-2
1470345948934717,-3,-1,-3,-9,-1,-2,-1,-3
1470345948934717,0,2,-5,-7,-1,-1,-3,-2
1470345948947742,0,-2,7,12,-2,-3,-1,0
1470345948947742,-1,2,-11,-9,-4,-1,-1,0
1470345948949689,1,0,11,20,-2,-2,-1,1
1470345948949689,-3,-9,-17,-23,12,3,-1,-2
1470345948970707,-1,-1,5,1,-6,-3,-2,-1
1470345948970707,-1,-2,3,9,1,-1,-2,-2
1470345948972215,-1,-3,-4,-23,-3,0,0,-1
1470345948972215,-2,-2,23,30,-2,-3,0,-1
1470345948992541,-3,3,-8,-4,0,-2,-1,-2
1470345948992541,-2,-3,-1,-2,-4,-1,-1,-1
1470345948994538,-2,-12,-18,-9,-1,0,0,-2
1470345948994538,1,3,5,4,-1,-1,-1,0
1470345949007557,0,3,-4,-12,-1,0,-2,-1
1470345949007557,-2,-2,20,12,-1,-1,0,-1
1470345949009675,-1,2,-5,-4,2,2,-1,-1
1470345949009675,1,2,-12,-3,0,-1,-2,1
1470345949030636,1,0,22,13,3,1,0,0
1470345949030636,0,-5,-23,-11,-3,-2,-2,-1
1470345949031571,0,0,8,-12,0,-1,-1,1
1470345949031571,-1,-1,-8,5,-1,-1,0,-2
1470345949052684,-1,1,-5,10,-1,-5,-3,-1
1470345949052684,-1,-6,15,-6,2,0,0,-1
1470345949054592,2,2,5,14,-3,-2,0,-2
1470345949054592,-1,0,-10,-9,-2,-2,0,0
1470345949066613,1,-6,-5,-9,0,0,1,-2
1470345949066613,-2,-1,0,-4,-2,-1,-1,-1
1470345949074176,-1,-1,2,0,-2,-2,-3,-1
1470345949074176,-1,4,4,8,-1,0,0,0
1470345949090561,-3,-10,1,6,2,2,0,-2
1470345949090561,-2,4,-1,-9,-1,0,0,0
1470345949091516,-1,0,1,0,0,-2,0,0
1470345949091516,0,-1,-9,0,0,-1,-1,0
1470345949112562,1,7,2,-6,-3,1,0,2
1470345949112562,-4,-2,-6,2,-2,-1,-1,-4
1470345949114535,0,-1,-5,-5,-3,0,-2,-2
1470345949114535,-1,0,1,4,-3,-3,-1,-2
1470345949126548,-2,-1,-4,0,-4,-3,-3,0
1470345949126548,0,-5,-12,-6,0,-1,-2,-1
1470345949133583,-2,-3,-9,-6,-1,1,0,-1
1470345949133583,-2,0,5,-1,-2,-1,-1,0
1470345949150565,0,-5,-3,-5,0,0,0,1
1470345949150565,2,-2,-1,7,3,0,-1,-1
1470345949151567,0,10,20,1,-2,-2,-2,-2
1470345949151567,1,-3,-30,-9,-1,0,0,-2
1470345949173185,-1,-4,-5,1,-3,-1,-1,-3
1470345949173185,-3,2,2,-3,0,-2,-2,-2
1470345949174686,-3,-6,0,-3,-2,0,0,0
1470345949174686,-2,4,6,6,-3,0,0,0
1470345949186747,-1,2,-8,-8,1,1,0,0
1470345949186747,1,-2,7,-12,-6,-2,0,-1
1470345949193754,0,-2,-11,-2,4,0,-1,0
1470345949193754,-2,-3,6,5,-2,-1,-2,0
1470345949209767,-1,-2,-3,1,-2,-4,0,-1
1470345949209767,0,3,2,6,0,1,0,0
1470345949211770,-1,-1,10,3,0,-2,-1,-1
1470345949211770,1,-4,-2,-4,-3,-1,-2,-1
1470345949232823,-2,-2,0,3,0,-3,-1,-1
1470345949232823,-2,3,-5,-13,-1,1,-1,1
1470345949234789,-1,-2,0,-3,-2,-4,-2,1
1470345949234789,-2,-3,6,5,0,-2,-1,-2
1470345949246800,0,-2,-2,-2,-1,-3,-2,-1
1470345949246800,-6,5,11,13,1,0,-1,-1
1470345949253834,-3,2,-9,2,-2,-1,-1,-2
1470345949253834,-1,-5,-21,-18,0,-1,-1,-1
1470345949269853,1,8,1,-6,-1,-1,-1,-1
1470345949269853,2,-5,18,11,-1,-1,0,0
1470345949272405,-2,-2,-4,-2,-5,-2,-2,-2
1470345949272405,0,5,11,-2,0,0,0,0
1470345949292571,-3,-8,-13,-8,-1,1,-2,-1
1470345949292571,0,-3,-17,-1,-1,-1,-1,-1
1470345949294540,-1,0,10,-5,-3,-2,-1,1
1470345949294540,0,1,14,-1,-2,-1,-2,-1
1470345949307550,-2,-5,-1,-3,2,1,-1,-2
1470345949307550,-1,-2,-11,2,-3,-3,-2,-1
1470345949313611,-1,0,-2,-5,1,2,-1,-1
1470345949313611,-1,-3,6,-3,-4,-1,-1,-1
1470345949330618,-1,-1,-1,10,-1,-2,-2,-3
1470345949330618,1,0,-7,1,-3,-1,1,-1
1470345949331572,-1,-2,-1,-14,-3,-1,-1,0
1470345949331572,-2,-3,-13,-6,-1,-1,-3,-1
1470345949352591,-1,-2,4,-3,-1,0,0,-2
1470345949352591,-1,-2,-14,3,-2,-1,0,0
1470345949354679,-1,-1,5,2,0,-1,1,-1
1470345949354679,0,-1,12,10,-1,-1,0,-1
1470345949366646,-4,1,-8,-1,-4,-2,-1,0
1470345949366646,1,-3,7,-6,-2,0,0,0
1470345949374151,0,1,-7,-3,2,0,0,-1
1470345949374151,-1,-4,1,-2,-4,-2,-1,-3
1470345949390140,-2,-7,3,4,3,0,-1,0
1470345949390140,-1,-1,-9,-10,0,-1,-2,-2
1470345949392143,-2,-2,-9,14,-5,-4,-2,-3
1470345949392143,-3,3,5,-15,2,0,-1,0
1470345949413162,-2,-6,5,9,-4,-3,-2,0
1470345949413162,-1,-7,3,-13,0,-1,-2,-1
1470345949414163,0,-1,-15,-10,-3,1,-1,0
1470345949414163,2,-2,-2,5,-1,-1,-1,0
1470345949426174,0,3,-7,-5,3,2,-2,-3
1470345949426174,-2,-1,23,13,-3,-4,-2,-3
1470345949435182,-2,-4,-25,-9,-1,0,0,-1
1470345949435182,-1,-4,-5,5,-1,0,0,0
1470345949450195,-4,2,5,-5,-1,-1,-1,-2
1470345949450195,1,0,0,-1,2,-1,0,-2
1470345949452196,-1,-2,-2,-2,0,-1,-2,0
1470345949452196,0,1,-3,3,-1,-1,-1,-1
1470345949472859,1,-2,3,-2,-2,-1,-2,-1
1470345949472859,-1,1,-12,6,2,0,0,0
1470345949474927,-1,-2,11,4,1,-2,0,-1
1470345949474927,-1,1,-8,-3,0,-1,0,-1
1470345949486854,0,1,-7,-7,-1,1,0,1
1470345949486854,1,18,15,2,-4,-2,-1,-2
1470345949503231,-3,-14,-15,0,1,0,-3,-1
1470345949503231,-3,-5,8,2,-1,-3,-2,-2
1470345949510311,0,7,9,-6,-2,0,-1,-2
1470345949510311,-1,-6,-7,3,4,0,-1,0
1470345949512239,-2,1,4,-13,-3,-3,-3,0
1470345949512239,-1,3,7,9,2,1,0,-1
1470345949533258,0,-3,-15,6,-3,-4,-1,0
1470345949533258,-1,-8,-8,-14,-1,0,-1,0
1470345949534259,-3,3,17,14,-2,-2,-1,-2
1470345949534259,-2,-5,-11,-8,-3,-2,-1,-1
1470345949546327,0,-6,12,-3,-2,-1,0,-2
1470345949546327,0,-2,-17,10,2,0,0,-1
1470345949555278,1,0,-6,-16,-1,1,-1,-2
1470345949555278,-2,2,6,-3,-2,-2,-1,-2
1470345949570294,-1,-3,5,2,-1,-2,-1,-2
1470345949570294,-2,0,1,0,-3,-1,-3,-2
1470345949571799,0,-1,1,3,-1,1,-1,-1
1470345949571799,0,0,-2,-4,2,0,-2,0
1470345949592379,0,1,0,-3,-4,-3,-1,-2
1470345949592379,-3,-4,4,3,-1,-2,-1,1
1470345949594339,1,2,-1,-17,0,0,1,0
1470345949594339,-4,2,0,6,-1,-1,-1,0
1470345949606350,0,0,-3,-1,-1,-2,1,0
1470345949606350,1,-1,-9,-5,-2,-2,-2,0
1470345949615358,0,-1,1,0,-2,-1,1,-1
1470345949615358,0,8,-15,7,1,-1,-2,-3
1470345949630376,-2,-2,8,-14,-5,-2,-2,0
1470345949630376,0,-1,-2,5,0,0,-1,-1
1470345949631372,-1,-1,2,6,2,0,1,0
1470345949631372,-2,-5,-2,-16,-6,-2,-2,-2
1470345949652391,1,2,-12,9,2,2,1,-1
1470345949652391,-1,-1,17,-3,-1,0,-1,-1
1470345949653393,-4,3,7,8,-2,-3,-2,-2
1470345949653393,0,-6,-4,-4,-4,-2,-1,-2
1470345949675001,-2,0,13,0,-2,-2,-2,0
1470345949675001,1,-2,2,0,1,1,0,1
1470345949675474,-1,0,-29,-3,1,-1,0,-3
1470345949675474,-4,0,4,10,-1,-2,0,-1
1470345949689585,1,0,0,-2,-1,-1,-1,-1
1470345949689585,-2,-2,-9,-6,-2,-4,-1,-3
1470345949690531,2,-3,8,1,-2,1,-1,0
1470345949690531,0,-1,-10,-8,-3,-2,-1,-1
1470345949711610,-2,-13,-5,9,2,-2,-3,1
1470345949711610,-3,3,-5,-10,0,-1,-1,0
1470345949712551,-2,-2,5,0,-2,-1,-2,0
1470345949712551,0,-3,-7,-1,3,1,0,-2
1470345949734628,1,2,8,-2,0,0,-1,1
1470345949734628,-3,-5,-10,-6,-3,-2,-1,0
1470345949735572,2,0,10,6,0,0,-1,1
1470345949735572,-1,0,16,4,-2,-2,-1,-1
1470345949749611,-1,0,-13,-6,-2,0,-2,-4
1470345949749611,-2,-1,-1,-1,-6,-1,0,-1
1470345949750585,-1,-8,-7,-4,-1,-1,-2,-1
1470345949750585,2,16,7,-1,1,1,-1,1
1470345949772211,-2,-3,-17,-13,3,1,-1,-1
1470345949772211,1,-2,3,-4,0,-1,-2,-2
1470345949773158,-1,0,5,7,-1,-3,-2,0
1470345949773158,-3,-6,-6,11,1,-1,-1,-1
1470345949794782,-1,-1,5,-7,-1,-2,-1,1
1470345949794782,0,2,-1,-1,-1,0,0,-2
1470345949795736,-2,4,-5,-7,1,2,0,-1
1470345949795736,0,-15,-7,-6,-2,-1,-2,-1
1470345949809790,-3,0,-25,5,-3,-2,0,-2
1470345949809790,0,-1,13,-11,-1,-1,-1,-1
1470345949810749,1,6,5,3,-2,-2,1,-1
1470345949810749,0,-5,-7,-5,-2,-2,-1,-1
1470345949831768,0,0,8,-3,2,-1,0,0
1470345949831768,-2,-2,3,11,-1,0,0,0
1470345949832770,-1,-2,-2,-1,-3,-1,-2,-1
1470345949832770,-2,-8,-4,-10,-1,-2,-2,0
1470345949854789,1,5,8,0,-2,-1,-3,-3
1470345949854789,0,4,11,1,-4,-1,-2,-3
1470345949855790,-4,-4,1,19,4,-1,-3,-2
1470345949855790,1,-8,-5,3,2,1,1,0
1470345949869803,0,2,11,-11,-2,-2,-1,-2
1470345949869803,-2,-9,-20,-12,-4,-4,-2,-2
1470345949870804,-1,0,-1,-3,-2,-1,-2,-1
1470345949870804,0,1,6,12,-4,-3,-2,-1
1470345949891747,1,2,9,9,3,0,1,1
1470345949891747,-4,-4,-19,-18,-4,0,-2,-3
1470345949892730,-2,-10,-2,-4,-3,-4,-3,-2
1470345949892730,-1,4,-8,2,1,1,1,-2
1470345949914782,-1,-2,0,0,2,-1,0,0
1470345949914782,1,1,7,10,2,-1,-1,-1
1470345949915738,-1,-3,3,0,2,-1,-1,0
1470345949915738,1,5,-7,-18,-2,-1,-2,-1
1470345949929752,-1,-6,-18,9,-2,-2,-1,-2
1470345949929752,-3,-3,12,-10,-3,-2,-2,-2
1470345949930752,0,5,0,5,-1,0,0,-3
1470345949930752,-1,-7,-15,2,2,-1,-2,0
1470345949951826,-2,-1,17,-1,-3,-2,0,-2
1470345949951826,0,4,3,4,6,2,-1,1
1470345949952817,-1,1,0,1,-4,-2,-3,-1
1470345949952817,-1,-1,-5,-6,-3,-1,-2,-1
1470345949974904,-1,-1,-6,1,0,-1,-4,-2
1470345949974904,1,-1,-3,-5,-1,-3,0,-1
1470345949975324,-1,0,9,3,-1,1,0,0
1470345949975324,-2,1,7,2,0,0,0,-1
1470345949989488,-1,-1,-8,-3,-2,-1,1,0
1470345949989488,0,-2,-8,3,-1,-2,0,-1
1470345949990443,-3,-2,9,-7,2,0,0,-2
1470345949990443,-2,2,2,20,-1,-2,1,-1
1470345950012485,-4,-1,-9,-21,-5,-2,-3,-5
1470345950012485,-2,-4,-13,10,0,1,-1,-1
1470345950012485,1,4,16,-14,-1,-3,0,-1
1470345950012485,-1,-15,-17,-9,-4,-1,-2,-3
1470345950034525,2,2,6,3,4,1,-1,1
1470345950034525,-1,1,9,6,-4,-2,-3,-2
1470345950035514,-1,-3,11,11,-1,-2,-1,1
1470345950035514,1,8,-2,-19,5,1,0,0
1470345950049495,-1,-6,-11,3,-4,-1,-2,-1
1470345950049495,-1,3,-17,-2,0,-1,-3,-2
1470345950050496,1,4,7,-19,-1,2,2,0
1470345950050496,-1,-2,10,14,-1,-2,-1,0
1470345950071515,-1,-4,-25,1,-3,-1,0,-1
1470345950071515,-1,-2,9,-3,4,0,0,0
1470345950073026,0,-3,-20,-12,-3,-1,-4,-1
1470345950073026,-3,2,10,3,-1,-1,-2,0
1470345950094078,0,-1,12,-2,0,-3,0,-2
1470345950094078,-2,-2,-15,0,-5,-3,-2,-2
1470345950095147,-1,-3,-12,5,0,2,0,-1
1470345950095147,0,-1,-5,-11,-3,-1,-1,-1
1470345950109122,-1,4,18,3,-2,-1,0,0
1470345950109122,-2,-5,7,9,2,0,-2,-1
1470345950110093,-2,-6,-4,-6,0,-2,-2,0
1470345950110093,-2,0,-1,-6,-2,-1,0,0
1470345950132153,-1,0,-9,-1,-1,-2,0,-2
1470345950132153,-1,1,16,-1,0,0,-1,0
1470345950133115,-2,-9,-38,-12,-2,-1,-2,-1
1470345950133115,0,15,37,14,0,-1,-1,-1
1470345950154175,-2,-14,-14,-5,0,-1,-2,-1
1470345950154175,-2,1,1,-4,-2,-2,1,-1
1470345950155136,-2,-2,2,0,-2,-2,-2,-1
1470345950155136,-2,-4,-7,-8,-3,-1,0,-2
1470345950169235,0,-2,4,7,1,0,0,0
1470345950169235,1,5,17,2,-4,-2,1,0
1470345950170146,0,-4,4,-8,-2,-2,-1,-2
1470345950170146,-2,-2,-16,1,-2,-1,-1,1
1470345950192392,0,2,2,-11,3,1,-1,0
1470345950192392,0,-4,8,29,0,0,-2,0
1470345950192392,-3,1,-2,-18,0,-2,-1,-2
1470345950192392,-1,-2,11,-15,-5,-1,0,-3
1470345950222389,0,-2,-7,0,0,0,-1,-1
