timestamp,emg1,emg2,emg3,emg4,emg5,emg6,emg7,emg8
1470344759340839,-3,-5,-30,-28,-1,3,3,0
1470344759340839,2,-5,4,-3,-2,-3,-3,-2
1470344759341841,-3,9,14,33,0,-1,-4,0
1470344759341841,-1,-7,9,-24,-4,-2,-8,-1
1470344759362859,-1,-2,13,-2,-6,-3,1,-3
1470344759362859,-2,-4,10,5,-1,-1,-1,1
1470344759363861,-1,-5,-25,-25,-3,-6,-3,-1
1470344759363861,-5,-10,-34,1,1,3,-2,-3
1470344759377874,1,1,-9,-2,4,1,0,2
1470344759377874,-3,3,12,-2,-2,-1,-5,-3
1470344759378874,3,12,4,2,0,1,0,0
1470344759378874,-2,12,17,13,-1,-3,0,0
1470344759399893,3,-11,-13,-9,-3,-1,-10,-1
1470344759399893,-12,6,5,3,-1,-3,0,6
1470344759401895,4,-11,9,2,3,7,11,-1
1470344759401895,-3,0,-14,-2,-3,0,1,-5
1470344759414409,1,-3,0,1,0,-1,2,1
1470344759414409,2,-5,-8,1,-2,-4,0,-3
1470344759423424,-4,-10,-14,-9,-2,0,-10,1
1470344759423424,-2,0,-1,2,-1,0,9,-1
1470344759437436,-3,-1,-6,0,-2,-2,-12,-6
1470344759437436,0,-7,-6,-2,-2,-1,0,0
1470344759439438,-1,4,-12,-14,-3,-5,-1,-1
1470344759439438,1,-1,-1,-5,-1,2,5,-1
1470344759460457,0,11,-4,9,-2,-3,-4,-1
1470344759460457,-1,-15,0,5,0,-1,-1,-5
1470344759461459,-2,-1,-3,0,-3,-1,0,2
1470344759461459,2,2,7,-1,4,-1,-14,-2
1470344759474471,1,-6,-4,-4,-4,-3,5,6
1470344759474471,-1,-3,-5,-8,-3,-3,2,-1
1470344759482477,-4,5,-6,1,-1,-2,-5,-5
1470344759482477,0,-1,9,4,-2,-2,2,4
1470344759497490,1,6,-4,0,-2,-3,-3,-2
1470344759497490,1,-34,-23,1,-1,-5,-7,-4
1470344759504496,-5,27,2,-1,0,6,38,7
1470344759504496,8,-6,-12,-1,-1,-1,-34,3
1470344759520515,3,-19,-16,-8,1,2,10,0
1470344759520515,-12,44,7,0,-3,-4,8,-3
1470344759522017,16,-15,-4,-2,0,-5,-9,0
1470344759522017,-24,-5,2,2,1,9,31,10
1470344759534028,-3,-13,0,-2,-2,-4,-24,-3
1470344759534028,9,-1,23,14,2,0,-10,-3
1470344759543036,-5,-2,-11,-11,-4,-3,1,-5
1470344759543036,4,4,-9,-11,-2,-4,-2,-5
1470344759558050,-3,4,2,18,-3,-1,-4,-3
1470344759558050,-5,0,9,-24,-1,3,2,1
1470344759559551,-2,-9,-5,-2,-2,-1,-7,1
1470344759559551,2,-9,-20,-5,-13,-6,-6,-4
1470344759580570,-4,14,13,7,1,-4,1,-2
1470344759580570,5,-1,4,-20,6,4,3,1
1470344759582071,1,-9,-11,29,9,6,-2,0
1470344759582071,-1,-12,-6,17,-2,-4,-2,-6
1470344759594081,-2,-5,-6,-24,-7,-1,7,1
1470344759594081,-2,13,28,-1,-2,-1,0,0
1470344759603090,-1,-3,-10,8,0,1,-9,-1
1470344759603090,2,9,23,12,4,1,3,-1
1470344759618102,1,16,29,-16,-2,-3,2,5
1470344759618102,2,0,1,-10,3,2,-2,-1
1470344759619605,2,-10,-9,27,-3,-2,-8,2
1470344759619605,-3,-2,7,11,0,-3,-6,-12
1470344759640623,1,2,-8,-2,4,7,13,3
1470344759640623,2,0,-22,-20,-3,-3,-1,2
1470344759642127,-5,9,22,17,-6,-3,1,-2
1470344759642127,-2,-3,-21,-39,-5,-4,0,-1
1470344759654137,-1,2,3,2,5,2,-3,-2
1470344759654137,-1,-5,7,23,-5,-2,0,-2
1470344759663144,-4,-9,-7,-22,-3,-3,-3,-4
1470344759663144,-1,0,-4,0,-4,-7,-9,0
1470344759678157,-5,-3,0,-9,0,1,-1,-5
1470344759678157,1,-5,-1,12,0,-2,5,0
1470344759679659,-2,5,30,-10,0,-2,-7,-2
1470344759679659,1,-10,-39,-12,4,2,2,2
1470344759700677,-2,3,27,27,-4,-2,-2,-1
1470344759700677,-1,-7,-32,-3,-4,1,-1,1
1470344759702179,0,3,4,-17,-14,-15,-3,-2
1470344759702179,-1,4,19,-1,18,13,2,-1
1470344759723198,0,-2,-19,17,2,-2,3,-1
1470344759723198,-2,0,3,-4,-3,-1,-2,-1
1470344759724699,-4,-11,-32,-11,-5,-3,-2,-1
1470344759724699,3,6,19,9,-8,-5,0,0
1470344759737211,2,1,4,-11,-8,-5,-2,-1
1470344759737211,-2,1,7,5,2,-1,-4,0
1470344759744216,-3,-3,-16,12,10,6,-7,-5
1470344759744216,-1,1,-8,-10,-3,-3,3,1
1470344759760265,0,0,-2,1,0,-1,-3,-2
1470344759760265,1,-4,-19,-9,-13,-7,6,0
1470344759762266,-3,0,-2,-2,20,9,-1,-2
1470344759762266,2,-2,26,4,-14,0,-4,1
1470344759782285,-2,0,22,-10,2,3,-4,-4
1470344759782285,-3,-8,2,4,-3,-2,0,-1
1470344759789289,-1,-4,-1,-7,9,-2,2,0
1470344759789289,-3,1,2,10,-1,-7,-8,-3
1470344759797296,2,-3,-3,-5,-10,-8,-4,0
1470344759797296,1,0,-4,-5,-4,-6,-1,-6
1470344759804304,-1,-1,9,0,-8,-5,-17,4
1470344759804304,-1,-3,-2,-4,1,0,13,-1
1470344759820317,-4,-6,-2,1,0,3,3,-4
1470344759820317,3,-1,-6,4,4,6,-1,1
1470344759821318,0,-3,-5,-8,-5,-2,-6,1
1470344759821318,-6,-3,-6,2,-3,-3,2,-9
1470344759843342,3,-3,-22,-6,0,-3,2,-12
1470344759843342,-8,3,2,7,20,15,2,12
1470344759844843,3,-5,4,-8,-5,0,-20,-9
1470344759844843,-3,-1,-3,3,-5,-9,-14,2
1470344759856872,3,-1,-5,0,5,5,13,5
1470344759856872,0,-4,0,0,-8,-11,-12,-8
1470344759863876,1,4,7,-5,-6,-5,17,6
1470344759863876,1,0,-2,2,5,7,0,-3
1470344759879889,-3,-3,-13,-3,-3,-9,-31,-5
1470344759879889,0,0,0,1,-1,1,23,3
1470344759881891,0,-1,10,-5,-3,4,-6,0
1470344759881891,0,-2,-10,3,-4,-4,2,-2
1470344759902909,-5,-2,-13,-10,1,-2,-1,0
1470344759902909,-1,0,3,0,-6,-1,-1,-3
1470344759904912,-3,2,6,1,7,5,6,-4
1470344759904912,0,1,7,5,-1,-1,1,1
1470344759917925,-1,-1,6,1,-1,0,1,1
1470344759917925,0,0,3,0,0,0,-8,-1
1470344759923928,-2,-5,-8,-3,-5,-6,7,-3
1470344759923928,1,3,14,-9,-13,-9,-6,0
1470344759940449,-1,-6,-19,-1,13,11,5,8
1470344759940449,1,1,0,1,-9,-5,-4,-5
1470344759941949,0,5,-5,-7,-4,-2,2,-4
1470344759941949,-3,-12,-17,-8,-4,-7,-2,-1
1470344759962975,-6,0,-5,4,-3,6,2,-4
1470344759962975,-10,-8,-1,11,4,1,-5,-1
1470344759963974,4,4,-4,-14,-3,-1,3,1
1470344759963974,-1,-7,-3,2,0,3,1,3
1470344759976988,-7,4,-21,-9,-11,-7,-4,-5
1470344759976988,3,2,5,6,5,1,-5,1
1470344759983993,-4,-3,-2,7,5,7,3,-3
1470344759983993,-1,-3,2,-13,0,3,-3,0
1470344760000007,1,-1,9,12,-2,-1,0,3
1470344760000007,0,14,14,-7,-8,-4,-6,-1
1470344760002010,2,8,-12,7,-2,-1,12,0
1470344760002010,-1,-6,-11,-1,3,2,0,-2
1470344760023030,8,14,38,-5,1,1,2,-2
1470344760023030,-10,-11,-37,0,-1,-3,6,-4
1470344760024029,18,7,4,-7,-18,-15,-15,-2
1470344760024029,-12,1,2,4,18,17,-8,-2
1470344760036040,0,-3,-4,0,-4,-7,-7,-2
1470344760036040,14,-2,-7,5,1,1,10,2
1470344760045554,6,-5,-7,-16,-1,-1,3,5
1470344760045554,1,6,-16,2,-6,-6,1,-1
1470344760060075,-9,-3,9,-2,-4,-10,-8,0
1470344760060075,-5,6,11,-8,5,10,-2,-4
1470344760062078,0,-11,-10,0,-1,1,2,0
1470344760062078,2,4,6,3,-8,-7,-3,0
1470344760083095,0,0,-8,5,17,6,7,0
1470344760083095,14,-1,15,15,-8,-8,-4,3
1470344760084096,-25,-6,13,16,8,1,-3,-7
1470344760084096,-22,-3,6,-5,-1,0,-1,-3
1470344760096106,-7,-21,-23,-15,-8,-3,4,1
1470344760096106,-4,4,-4,1,4,1,-2,-6
1470344760105114,-3,7,25,14,4,2,-2,1
1470344760105114,11,-24,-30,0,3,-1,1,3
1470344760135142,17,6,-4,-4,-5,-3,-2,-3
1470344760135142,-11,-3,-10,-11,-2,3,-3,1
1470344760137143,1,-3,24,19,-3,-2,-4,-4
1470344760137143,15,3,-1,4,-4,-3,1,7
1470344760143156,-34,-13,-7,-17,3,5,7,-9
1470344760143156,-5,-3,-20,-18,-6,-5,-6,-1
1470344760144658,5,-1,7,-11,-1,2,0,0
1470344760144658,4,10,9,9,-1,-1,5,0
1470344760156175,18,8,0,7,1,-6,-5,-4
1470344760156175,-31,-39,6,-3,0,-3,3,7
1470344760182198,11,-25,-20,-18,2,4,-8,-18
1470344760182198,-11,25,54,14,5,0,-9,9
1470344760183198,29,-7,-40,-17,-10,-4,-3,7
1470344760183198,-25,2,27,-3,1,-2,-4,-18
1470344760186201,3,-13,-19,14,-2,2,6,36
1470344760186201,-5,-5,-18,-44,-8,-7,2,-4
1470344760203217,-15,-1,1,-2,2,0,-27,-11
1470344760203217,7,-1,10,-7,-3,-4,-11,-4
1470344760204217,-5,-2,-19,-1,-2,1,14,12
1470344760204217,3,13,-4,12,2,1,-4,-16
1470344760216228,-3,-3,-16,-4,-2,2,15,24
1470344760216228,11,11,23,1,-3,-4,0,-5
1470344760233244,-17,10,23,1,-2,-5,-10,-21
1470344760233244,4,-20,-24,-2,-2,0,8,-1
1470344760240259,-23,-5,-13,-15,-4,1,-1,-13
1470344760240259,20,-3,-5,10,-3,0,-7,12
1470344760242261,1,10,38,5,3,1,-2,6
1470344760242261,0,-3,-26,-4,2,2,0,-2
1470344760263284,-1,-1,-3,13,-1,-2,9,-13
1470344760263284,0,6,-12,-15,-5,0,12,-4
1470344760264285,2,7,8,11,0,0,9,4
1470344760264285,-3,-2,-5,-12,0,2,-15,-21
1470344760285305,0,-9,46,1,1,0,0,10
1470344760285305,6,26,-16,35,-1,-10,-2,-25
1470344760287306,7,-18,-38,-15,2,3,-22,-13
1470344760287306,-1,-1,4,6,-4,-2,16,44
1470344760300318,1,13,8,-13,-2,-2,41,-37
1470344760300318,15,-9,-11,-2,0,3,-87,54
1470344760302319,-21,-7,-9,-13,-3,1,40,-18
1470344760302319,-1,9,-6,-4,2,2,-68,21
1470344760323338,-2,-6,13,29,-4,-2,11,-7
1470344760323338,3,-13,-68,-33,-1,-2,2,18
1470344760324340,-2,12,11,-3,-3,-2,-9,-24
1470344760324340,0,8,28,10,4,7,6,-4
1470344760336350,6,7,-47,-14,-2,-2,6,10
1470344760336350,9,3,39,19,0,-2,10,6
1470344760345865,-22,0,-54,-17,-3,-3,-16,-19
1470344760345865,6,-8,17,12,-1,-1,29,-48
1470344760360386,9,6,36,8,-2,-2,-27,41
1470344760360386,-5,-6,-31,-13,3,4,27,-14
1470344760362387,9,-2,-3,-1,-2,-7,-15,-14
1470344760362387,-5,-20,5,-1,-1,-2,27,30
1470344760382408,-3,1,-16,2,-2,1,-23,-46
1470344760382408,0,10,36,-9,-4,0,19,3
1470344760384405,-5,6,1,-2,1,3,2,14
1470344760384405,-2,-49,23,-2,-20,-15,-2,-13
1470344760396416,-2,15,28,12,16,7,-14,14
1470344760396416,-3,-5,7,10,5,-1,11,-11
1470344760405424,5,-27,43,-2,-3,0,-2,4
1470344760405424,-2,62,-24,-9,-7,-10,3,-3
1470344760420438,4,8,-7,-14,-5,0,26,8
1470344760420438,-18,-28,45,13,6,9,25,-1
1470344760421440,3,22,-12,1,-10,-13,-34,-10
1470344760421440,12,2,-6,-6,5,1,12,8
1470344760442965,-13,-6,-2,9,0,3,-2,3
1470344760442965,-1,26,2,-16,1,1,5,-11
1470344760444467,6,-20,25,-1,-5,-4,7,12
1470344760444467,-9,-12,-32,1,2,1,-3,-3
1470344760456477,3,20,37,30,1,-1,-5,-7
1470344760456477,-2,-9,1,0,-2,0,8,2
1470344760465484,0,-2,-22,-7,-1,1,-7,11
1470344760465484,7,5,6,-9,-2,1,14,-14
1470344760480498,6,-12,-1,0,1,-1,-16,23
1470344760480498,-2,-3,-20,-8,-7,-5,-15,-66
1470344760482000,-1,8,2,4,6,10,12,14
1470344760482000,-10,-19,-3,2,-8,-8,-20,-22
1470344760503018,-5,-5,-32,-6,4,2,7,1
1470344760503018,-4,1,-14,-3,0,-2,-3,11
1470344760509025,-1,-22,4,-1,-5,-8,0,-3
1470344760509025,-20,25,11,10,5,3,-22,-8
1470344760517031,4,-9,-17,-30,-8,-2,-6,4
1470344760517031,7,-21,11,20,-5,0,-9,9
1470344760525541,-9,15,6,-6,-2,-8,1,2
1470344760525541,4,-11,-44,5,10,8,4,13
1470344760540552,2,-17,18,8,7,6,1,-2
1470344760540552,-2,9,-16,-6,-5,-8,-4,0
1470344760542055,5,10,22,-4,2,4,11,8
1470344760542055,3,7,-4,1,-1,0,0,5
1470344760564574,-13,-43,7,-6,-10,-7,-7,-10
1470344760564574,4,26,-35,-16,2,-1,3,19
1470344760566076,-11,4,17,8,1,1,7,26
1470344760566076,1,-26,16,-4,1,-1,-26,-59
1470344760576584,4,18,1,0,-9,-5,19,17
1470344760576584,0,-7,4,5,2,4,-4,17
1470344760585593,13,2,3,1,3,0,6,5
1470344760585593,-1,-1,5,-1,-5,-5,-7,6
1470344760600605,14,-10,-21,-5,-3,-6,-8,1
1470344760600605,-19,-5,17,4,0,4,-13,-24
1470344760602107,6,10,-6,2,-6,-5,3,-3
1470344760602107,7,-11,-14,-11,0,1,-5,10
1470344760623126,3,9,9,5,1,-3,-15,-12
1470344760623126,-8,-2,16,0,-3,-2,-3,0
1470344760624628,-10,-11,-23,-14,-5,-5,-25,-9
1470344760624628,5,0,-26,-7,-3,0,13,12
1470344760645646,-12,-11,12,18,-4,1,5,-4
1470344760645646,5,16,-9,-20,0,-1,6,-2
1470344760647147,-4,6,-17,-1,2,-2,-1,-10
1470344760647147,-8,-5,115,26,-2,0,8,5
1470344760660660,-4,-4,-47,-29,6,3,-8,3
1470344760660660,6,-1,-5,32,0,-2,2,-3
1470344760662161,5,-3,-22,6,-3,1,3,-4
1470344760662161,2,4,10,-8,7,2,3,9
1470344760683180,-8,10,-6,-22,-8,-6,0,-8
1470344760683180,4,-15,2,0,-1,-5,-4,0
1470344760684682,-5,3,11,3,-1,1,6,1
1470344760684682,5,50,-15,-2,-4,-4,-2,-9
1470344760705700,2,-11,26,9,1,3,11,13
1470344760705700,-27,-6,-12,-5,-1,-5,-24,-20
1470344760707202,-1,-26,-19,-3,-1,-1,21,22
1470344760707202,-14,-12,3,-2,1,4,11,-11
1470344760721214,9,13,-8,4,-1,1,19,5
1470344760721214,19,11,-12,-7,-1,4,-6,10
1470344760724718,-8,-15,-2,1,3,-4,-13,-16
1470344760724718,-6,-13,-2,-6,-7,-9,-7,5
1470344760742734,-6,12,16,9,-2,-1,-7,-1
1470344760742734,-3,-28,-38,-6,-1,2,4,6
1470344760744735,4,24,9,-9,-3,0,-2,-26
1470344760744735,-9,-21,-7,6,-4,-4,-3,30
1470344760765754,-9,1,1,2,-2,1,-9,-29
1470344760765754,-4,-3,15,-4,0,1,3,-3
1470344760767257,2,1,10,-2,0,2,-13,2
1470344760767257,-5,8,-22,-5,1,3,29,-4
1470344760780767,-5,-52,4,0,1,2,-68,-20
1470344760780767,2,8,-2,-4,-7,-6,1,23
1470344760782270,-3,-8,11,-4,-1,3,-4,-22
1470344760782270,15,1,-38,-4,0,2,-7,0
1470344760802787,-9,15,20,-5,-7,-10,18,1
1470344760802787,6,-9,-3,4,10,6,3,-13
1470344760804789,-4,8,0,43,-5,-6,-10,14
1470344760804789,5,-31,-9,-39,0,-8,-8,-26
1470344760825808,2,9,-32,-28,2,5,12,2
1470344760825808,1,32,-16,-27,-23,-20,-4,40
1470344760827031,-1,-24,40,32,7,5,10,-48
1470344760827031,-2,1,-5,-10,-2,1,-2,16
1470344760840544,-3,14,-17,20,-5,-13,-1,-2
1470344760840544,9,-2,-3,8,14,14,15,5
1470344760846549,-5,-15,-3,-28,-14,-8,1,13
1470344760846549,1,6,-9,-11,-1,-1,-7,-9
1470344760863564,0,23,17,8,6,1,-1,3
1470344760863564,5,-18,10,3,-4,-2,9,-7
1470344760865065,19,-18,-30,-13,-3,-4,-5,25
1470344760865065,-32,27,-7,4,-3,-2,-7,-9
1470344760885584,8,-10,18,19,10,10,16,21
1470344760885584,4,-6,11,5,2,1,-2,-27
1470344760887085,-1,17,-38,-19,4,0,1,9
1470344760887085,3,-9,5,22,2,2,0,24
1470344760900096,-6,-9,-3,-10,-11,-7,-3,-50
1470344760900096,6,13,12,-5,-12,-18,-10,59
1470344760906602,-21,-1,-37,-1,14,18,-2,-50
1470344760906602,-2,-10,6,5,0,-2,10,-3
1470344760923117,49,10,8,15,-6,-1,-1,31
1470344760923117,-45,-15,-10,-8,6,-7,1,-41
1470344760924619,11,5,3,3,-3,-1,-9,6
1470344760924619,0,1,18,8,-4,2,26,6
1470344760945137,-3,-2,-10,-10,-3,-4,-8,-4
1470344760945137,10,7,14,7,2,2,9,7
1470344760947148,-10,-14,-8,-9,-6,-9,-20,-44
1470344760947148,4,13,3,1,2,3,-7,6
1470344760960155,-7,5,1,-4,-2,-2,14,18
1470344760960155,1,-15,-5,1,-3,1,-5,-8
1470344760966162,-14,6,10,-5,-4,-7,4,7
1470344760966162,15,0,-15,-1,3,2,0,5
1470344760983177,-8,-12,2,-10,0,2,-4,-6
1470344760983177,-10,-1,22,37,3,0,-5,-15
1470344760984179,17,9,11,-3,3,3,8,19
1470344760984179,-1,-5,2,8,1,-2,-9,-8
1470344761005223,-12,-16,-35,-19,-2,1,-6,2
1470344761005223,-2,1,-15,-11,1,3,-3,-22
1470344761007226,1,1,30,-2,-21,-20,9,31
1470344761007226,-2,-13,-28,-16,18,18,-5,-12
1470344761019235,-14,-2,36,41,-2,-6,-6,-13
1470344761019235,8,9,6,-22,-3,-2,3,1
1470344761026216,3,-10,-20,3,7,4,3,10
1470344761026216,-11,6,36,-4,-11,-10,-8,-4
1470344761043262,2,-4,-21,-12,2,1,1,2
1470344761043262,2,-2,3,-1,0,0,1,-4
1470344761044864,-1,7,-4,0,1,1,10,24
1470344761044864,2,4,6,3,-3,-3,-2,-4
1470344761065234,12,17,-8,1,0,-1,7,7
1470344761065234,-10,-19,-14,-5,-7,-1,4,-11
1470344761067182,-26,1,4,-12,1,1,-1,11
1470344761067182,8,-5,-18,6,-3,-2,-2,9
1470344761080206,-14,-9,9,2,1,-3,-2,-5
1470344761080206,7,12,-5,-7,-2,-1,2,-12
1470344761086219,7,1,-33,-16,-2,3,-2,5
1470344761086219,-1,4,51,26,1,-2,-4,-6
1470344761103242,-3,-3,-27,-15,-3,-1,-6,1
1470344761103242,2,-2,21,24,5,0,4,3
1470344761104216,2,6,13,-11,3,7,2,-6
1470344761104216,2,-10,-50,-9,-5,-7,-4,-2
1470344761125232,1,3,18,-11,-2,-4,-3,-2
1470344761125232,-6,-8,-41,-13,-1,3,-4,2
1470344761127237,0,-1,17,4,-14,-16,-2,7
1470344761127237,-3,11,11,3,13,16,-4,-33
1470344761140785,14,-3,1,2,-4,-6,-1,2
1470344761140785,-4,-5,25,9,2,0,2,8
1470344761148327,11,-6,-23,2,1,-1,-5,-35
1470344761148327,-7,-11,-10,-13,-10,-10,-1,34
1470344761170349,-10,1,8,0,0,1,-5,-21
1470344761170349,9,5,0,-5,1,-1,-4,1
1470344761172357,-4,0,-9,1,0,0,-1,3
1470344761172357,3,0,-6,2,-1,-4,-1,3
1470344761185397,1,0,1,-1,2,5,2,3
1470344761185397,-1,-6,-2,-1,-2,1,0,6
1470344761187366,-3,2,9,0,5,3,0,1
1470344761187366,-1,-2,18,5,-5,-3,0,-6
1470344761199398,-3,-4,-8,-5,-2,-3,-1,4
1470344761199398,-3,3,1,-3,-5,-4,-3,-1
1470344761208380,-2,0,16,3,1,0,-3,-8
1470344761208380,1,-3,11,-5,-2,-3,-3,-4
1470344761230477,-3,-2,-15,-7,-4,-2,0,-3
1470344761230477,2,-3,9,-4,0,0,1,10
1470344761231978,0,2,5,3,1,1,-1,4
1470344761231978,0,-22,-17,3,-18,-19,-6,-30
1470344761245521,-1,6,3,3,13,13,0,13
1470344761245521,-12,-7,-7,-14,-8,-8,-7,-12
1470344761247525,21,4,13,9,4,1,5,20
1470344761247525,-26,-8,-27,-5,0,2,1,-2
1470344761258532,1,1,18,5,-4,-5,-1,0
1470344761258532,8,-3,-18,-10,-1,-2,-1,4
1470344761275549,-7,7,7,11,5,5,-2,-8
1470344761275549,12,6,8,-6,3,-1,-1,9
1470344761282552,-5,0,10,-6,-5,-2,5,-2
1470344761282552,0,1,-13,5,4,4,1,5
1470344761284555,2,-6,-5,-9,-9,-5,-5,-50
1470344761284555,8,3,-12,-6,4,3,-1,1
1470344761305572,-9,-5,8,5,1,1,1,-1
1470344761305572,-2,0,16,13,4,-4,0,1
1470344761306576,1,2,0,6,0,2,5,11
1470344761306576,2,0,-7,-3,4,3,-6,27
1470344761318632,-3,-8,-4,-21,-13,-11,-3,-36
1470344761318632,-1,3,-5,-7,-5,-2,-3,8
1470344761327605,-7,-12,-33,-14,-7,-1,-1,5
1470344761327605,-9,0,4,1,0,1,1,10
1470344761343221,2,2,22,11,3,-1,-1,22
1470344761343221,8,0,-24,-8,0,-3,-8,-30
1470344761344691,-5,2,-10,-1,-1,-1,0,26
1470344761344691,-1,-4,39,2,-2,-3,-1,-15
1470344761365771,-9,-2,-28,2,0,3,0,-1
1470344761365771,12,-1,14,3,0,0,-2,-1
1470344761366774,-14,-12,-16,-6,-7,-4,-2,-10
1470344761366774,-19,11,18,11,0,0,-2,-1
1470344761378824,4,-2,-17,-2,2,-2,2,-6
1470344761378824,-4,-4,-4,-8,-1,1,2,26
1470344761387792,2,-1,9,16,2,-2,-2,1
1470344761387792,4,-7,-11,-19,-5,0,4,-7
1470344761402838,2,6,6,6,-4,-3,-4,5
1470344761402838,-4,2,4,6,2,6,3,-1
1470344761405809,-3,-7,-7,-12,-11,-18,-6,-24
1470344761405809,5,5,-7,6,15,15,-2,-4
1470344761425826,1,0,-3,-5,-7,-5,1,4
1470344761425826,-2,-3,-21,-5,-3,-5,0,-10
1470344761426828,-3,1,20,2,0,-1,-1,4
1470344761426828,6,-1,-21,-2,-6,-5,1,4
1470344761439351,-3,2,-3,-10,-6,-2,-2,-1
1470344761439351,-4,0,17,-3,0,0,-4,-15
1470344761447635,0,13,19,6,3,4,1,7
1470344761447635,4,1,-11,1,-1,-4,-1,-1
1470344761462651,3,-12,-8,-7,1,1,-1,14
1470344761462651,-9,-5,7,0,-1,0,-1,5
1470344761464651,-20,1,21,5,0,-2,-5,-16
1470344761464651,3,-12,-27,-9,-7,-6,0,-5
1470344761485685,-3,-6,2,15,5,3,-1,2
1470344761485685,5,3,6,-9,-1,-3,1,9
1470344761486671,3,-7,-12,-5,-1,-2,-4,0
1470344761486671,2,4,16,4,-1,-3,-2,4
1470344761507689,-12,-1,-6,-6,-3,-3,-5,-5
1470344761507689,1,-1,-15,1,-3,-2,-9,-9
1470344761509692,-4,2,4,4,5,6,10,-1
1470344761509692,3,-2,15,11,-2,-3,3,-6
1470344761522702,3,1,4,-5,1,1,-2,-2
1470344761522702,-5,1,-17,0,0,1,0,-4
1470344761524705,6,0,-2,-5,-21,-16,-8,8
1470344761524705,1,3,1,-8,9,7,2,4
1470344761545228,-3,-7,-7,0,-2,-2,1,-6
1470344761545228,-1,6,34,11,-3,-3,0,-3
1470344761546692,2,-9,-21,-10,2,2,-3,14
1470344761546692,-13,0,-10,0,-2,-3,-3,-13
1470344761558734,13,2,-9,-5,-2,-1,-4,-21
1470344761558734,-1,-8,1,-3,-8,-6,1,-5
1470344761567712,10,4,14,9,14,5,-2,13
1470344761567712,-18,-12,-23,-5,-6,-2,-2,-26
1470344761582759,2,-3,8,1,5,3,3,5
1470344761582759,-6,-4,-15,1,-5,-5,0,5
1470344761584728,12,2,3,-10,4,9,5,-8
1470344761584728,6,4,49,8,-4,-4,-4,23
1470344761605747,-6,5,7,6,-3,-7,-5,-7
1470344761605747,-8,-4,1,-6,-9,-7,-2,-7
1470344761606747,-16,-1,-5,-2,16,19,3,-2
1470344761606747,22,3,11,5,7,-2,4,6
1470344761627769,6,4,17,2,-2,1,4,7
1470344761627769,8,-3,11,7,4,0,0,-7
1470344761629768,-32,-10,-23,-2,-15,-14,-6,33
1470344761629768,-5,-5,-60,-23,-4,-2,-6,-21
1470344761643286,0,0,-5,18,2,2,3,8
1470344761643286,1,-1,-7,-4,3,2,-7,-13
1470344761644789,6,-1,-14,-4,-1,0,7,2
1470344761644789,1,0,12,-6,-6,-1,-7,8
1470344761665813,-6,-8,-24,-9,-2,-4,-4,-18
1470344761665813,-1,9,32,6,2,0,3,13
1470344761666815,4,-4,-5,6,0,-4,-1,-12
1470344761666815,-3,4,5,-1,-2,-2,1,-6
1470344761687835,-5,2,11,2,1,1,-2,5
1470344761687835,2,3,14,2,4,5,-1,1
1470344761689835,10,6,-15,-5,0,0,-5,-16
1470344761689835,2,-7,-13,5,-4,0,4,4
1470344761702847,-7,9,10,-6,-6,-4,-4,3
1470344761702847,-3,-2,-39,-16,-3,-2,-2,-3
1470344761704848,1,-15,25,9,6,2,-1,-7
1470344761704848,1,3,-29,7,-4,-5,-1,5
1470344761724885,-2,-4,25,8,-1,-5,-3,8
1470344761724885,-7,3,-17,-8,-1,-2,-9,-16
1470344761731905,8,-2,4,-5,-3,3,15,4
1470344761731905,-11,-7,13,-2,-1,1,3,-7
1470344761747968,4,-5,-7,-7,3,0,2,-5
1470344761747968,6,-7,-4,3,1,8,15,36
1470344761750048,-30,-10,-9,-5,-3,-3,-2,-57
1470344761750048,7,5,10,2,-2,-4,8,27
1470344761761947,9,9,3,-7,-3,3,-9,-33
1470344761761947,3,-6,-26,-1,3,-2,-9,4
1470344761769986,8,-10,11,-3,-6,-6,-13,0
1470344761769986,-14,-10,-64,1,-1,0,0,-35
1470344761785987,-6,-2,16,22,-2,-6,12,-20
1470344761785987,4,-10,14,3,7,5,0,38
1470344761786970,-9,6,-12,-22,-6,-1,-3,19
1470344761786970,1,-4,10,8,-5,-4,-18,-17
1470344761807988,0,-2,-2,-9,-4,1,2,21
1470344761807988,-6,-2,-10,-10,-2,0,13,-22
1470344761808991,9,5,29,13,-2,-4,-1,16
1470344761808991,-5,5,-14,-23,-3,-2,-1,-5
1470344761822044,-6,-9,-23,-8,-1,-3,-6,7
1470344761822044,3,3,23,9,-4,-7,-10,-14
1470344761829078,-1,-2,4,-11,1,5,17,6
1470344761829078,3,-2,0,-3,0,-3,-7,13
1470344761845563,-4,-2,6,6,1,0,-1,-6
1470344761845563,2,4,9,-9,-4,0,6,-1
1470344761846716,2,6,-19,10,-1,-5,-8,-9
1470344761846716,-3,-20,14,2,-2,1,25,10
1470344761867790,1,6,-27,-10,-2,-1,-42,6
1470344761867790,-4,33,-14,-1,-2,-2,-3,3
1470344761869783,-1,16,14,3,-1,-1,2,-2
1470344761869783,3,7,21,1,-2,3,5,0
1470344761881782,-10,-14,-23,-11,-2,-4,13,19
1470344761881782,0,-6,1,4,6,-1,-37,-25
1470344761888826,16,10,2,8,7,6,17,-9
1470344761888826,-7,-1,23,-3,1,-7,4,25
1470344761905769,5,2,-13,-5,-5,6,-6,6
1470344761905769,-21,-9,8,5,-2,-5,24,-13
1470344761906771,8,-7,-39,-7,-16,-14,-4,-2
1470344761906771,1,3,28,4,13,4,-28,-18
1470344761927789,17,3,6,4,1,1,11,10
1470344761927789,-1,-6,5,2,-2,-3,14,-1
1470344761929793,0,-13,-3,-5,-4,-5,-18,-1
1470344761929793,-12,9,4,0,-4,1,9,0
1470344761942332,5,-4,-13,-1,1,1,3,-5
1470344761942332,-18,-9,-10,-5,-12,-4,-5,-5
1470344761949385,0,-3,11,-3,2,1,-2,10
1470344761949385,-2,-2,-26,-3,-1,2,-10,-4
1470344761965399,1,14,53,22,3,0,14,-3
1470344761965399,17,10,37,9,7,8,-5,16
1470344761967350,-1,-9,25,12,12,8,-10,38
1470344761967350,6,17,-53,-19,-1,-1,-1,-69
1470344761987395,-18,-11,16,-12,-8,-9,-8,6
1470344761987395,19,21,-12,-2,-7,-10,2,21
1470344761989364,-20,-31,-25,6,-3,-2,0,-52
1470344761989364,8,6,6,-12,10,3,0,56
1470344762001418,7,-8,1,-6,-12,-6,-6,-3
1470344762001418,-7,-8,21,11,2,9,2,-8
1470344762010382,-20,-1,-29,-1,0,-3,2,9
1470344762010382,14,6,38,21,-5,0,-2,9
1470344762025450,-6,-8,-65,-22,5,3,8,-9
1470344762025450,4,-11,20,-1,3,4,3,4
1470344762027398,9,9,24,3,-3,-1,-7,-3
1470344762027398,-9,-3,13,2,-5,-4,-2,1
1470344762047513,-2,3,19,16,-2,-7,0,5
1470344762047513,-7,-14,-37,-14,-18,-16,-5,-20
1470344762049519,1,4,-9,6,20,18,0,2
1470344762049519,0,3,26,5,-4,-1,0,0
1470344762061592,-7,-4,9,11,2,-1,-3,-8
1470344762061592,-3,-16,-60,-20,-7,-7,-6,-4
1470344762070516,-3,4,7,-13,-12,-6,-3,-2
1470344762070516,1,-15,11,1,-6,-7,0,2
1470344762085577,-1,-9,-19,-5,4,4,-3,-8
1470344762085577,-7,8,19,3,4,8,2,-2
1470344762086521,10,6,13,3,0,-4,14,7
1470344762086521,-3,-4,0,2,-1,1,-15,4
1470344762106551,-8,-5,-11,-5,-3,-3,3,7
1470344762106551,-2,-10,-9,-7,3,1,0,-4
1470344762115547,3,-1,8,-5,-6,-1,-1,-2
1470344762115547,1,-1,3,10,-3,-7,-2,-4
1470344762121554,-2,5,-2,-6,0,4,11,2
1470344762121554,1,-6,0,3,4,0,-13,0
1470344762136572,-2,0,-8,-5,-1,-8,1,3
1470344762136572,-4,-7,-14,-8,1,7,8,3
1470344762145581,4,13,51,19,0,-4,-13,-3
1470344762145581,1,-17,-75,-29,-8,-6,-2,-10
1470344762147202,-2,5,21,0,10,17,-2,1
1470344762147202,-4,0,-2,-4,-5,-7,-2,-5
1470344762175274,-1,1,3,5,3,-1,0,-6
1470344762175274,-2,6,18,9,2,1,1,-2
1470344762177229,-2,1,-14,-1,-10,-5,-3,4
1470344762177229,-2,-9,-7,-4,-2,-1,7,1
1470344762181241,0,3,-14,-6,3,5,-10,-5
1470344762181241,3,4,-17,10,-3,-1,18,8
1470344762190242,3,0,27,-6,-4,-7,-4,-1
1470344762190242,-19,-4,20,10,2,0,2,-4
1470344762205282,8,-7,-11,-11,-6,-7,-11,-7
1470344762205282,-3,7,11,5,5,4,-8,-1
1470344762207351,1,-3,-17,-9,-3,-2,-6,-3
1470344762207351,0,-3,-6,-4,-2,0,-4,-6
1470344762228274,1,-1,0,2,-1,-10,-19,4
1470344762228274,-2,-8,-10,-17,-1,3,6,0
1470344762229276,-1,3,11,17,-2,-2,-13,-5
1470344762229276,0,0,-20,-20,-5,-2,9,5
1470344762241832,-4,-3,7,-2,-2,-2,12,-2
1470344762241832,5,5,16,10,0,-3,-5,1
1470344762250857,-12,-8,-54,-15,-4,-4,6,-9
1470344762250857,3,-5,-19,0,-2,-2,-15,-3
1470344762265871,-2,3,2,-1,1,5,2,-1
1470344762265871,1,0,18,2,0,-2,5,-4
1470344762266872,0,-2,-1,1,0,-4,-1,2
1470344762266872,3,-3,-13,1,-3,-2,-17,-3
1470344762287893,-8,2,-5,-4,3,7,6,-1
1470344762287893,1,-2,0,9,1,-2,-7,2
1470344762289893,0,-3,-26,-18,-5,-5,-3,-4
1470344762289893,1,3,30,11,-5,0,2,-4
1470344762301903,0,-2,-18,-6,0,-3,7,-3
1470344762301903,-1,-2,-4,-4,-4,-5,10,0
1470344762310912,-5,1,18,2,5,3,-22,3
1470344762310912,3,-3,-39,0,3,2,7,4
1470344762324980,10,-5,-1,1,-1,-2,1,4
1470344762324980,-14,-3,5,-3,-4,-3,7,-3
1470344762326926,0,-2,-13,-1,-5,0,7,3
1470344762326926,-1,0,19,3,-1,-1,-9,-2
1470344762348012,-1,-5,6,1,-1,-3,2,5
1470344762348012,-11,-1,13,-3,2,1,-9,-5
1470344762349013,1,5,-3,4,2,-1,2,-2
1470344762349013,-2,-2,14,1,0,1,-5,0
1470344762362043,4,-4,-23,-20,-3,1,4,-3
1470344762362043,2,-2,32,25,0,1,3,-5
1470344762370032,0,0,3,6,0,-2,-12,-2
1470344762370032,-1,0,-16,-9,-2,-5,6,1
1470344762385045,-5,5,-3,-4,0,2,22,-4
1470344762385045,4,0,0,-8,0,7,-14,3
1470344762387046,-2,-5,5,-1,1,-5,-26,-6
1470344762387046,3,5,6,23,-1,3,34,1
1470344762408065,-3,-2,-17,-15,-3,0,3,3
1470344762408065,-5,-2,8,-6,-2,-4,2,0
1470344762409068,6,-2,16,6,0,7,12,4
1470344762409068,-5,-2,-13,-15,0,-3,-16,-7
1470344762421083,-7,-5,-1,16,1,-2,-18,-6
1470344762421083,5,-2,-19,-15,-3,-4,7,-1
1470344762430085,0,-1,4,0,-2,-3,-1,-1
1470344762430085,-8,5,10,1,-1,-2,-6,4
1470344762445621,5,-9,-2,1,-3,2,6,-5
1470344762445621,-2,7,-2,-3,-1,-2,-14,-3
1470344762447108,-4,-7,2,-7,-6,-4,14,2
1470344762447108,1,-2,6,13,-3,0,-3,-3
1470344762468159,-5,-1,-21,-17,-1,-1,-8,-1
1470344762468159,5,-4,18,16,3,0,0,1
1470344762469132,0,4,-26,-14,-3,-2,-1,-4
1470344762469132,3,-5,6,9,3,0,4,1
1470344762482159,-5,0,5,-7,-5,-4,0,-1
1470344762482159,-2,-10,-24,-8,-4,-4,-42,-2
1470344762490151,6,1,12,1,-2,-2,31,-6
1470344762490151,-5,-7,-18,-2,4,5,-31,-5
1470344762505206,-2,1,6,-9,-11,-9,5,0
1470344762505206,-2,-3,-7,-12,2,2,7,1
1470344762507196,0,-2,6,5,-2,-2,-5,-1
1470344762507196,4,6,1,-9,-2,-3,3,-2
1470344762528188,-4,-22,13,15,2,4,-5,-4
1470344762528188,-1,-4,-10,-2,-9,-6,7,-4
1470344762529186,-8,17,7,-12,2,0,-5,-2
1470344762529186,5,0,-23,6,4,3,13,2
1470344762541721,-9,7,13,16,-5,-5,-13,-3
1470344762541721,-1,6,-13,-5,3,1,6,-4
1470344762550235,3,0,0,9,6,10,8,2
1470344762550235,7,-13,9,-20,-7,-3,24,9
1470344762565249,-11,12,-8,4,2,1,-27,-5
1470344762565249,4,5,-2,5,5,-2,-12,2
1470344762567249,-1,-13,9,5,-4,-4,35,0
1470344762567249,-3,7,15,-1,-7,-2,-19,4
1470344762588271,9,4,-15,-6,4,3,16,7
1470344762588271,-7,-6,17,6,1,2,8,-8
1470344762589269,5,-3,-20,-9,-5,-7,9,4
1470344762589269,-2,7,9,0,-1,0,-29,0
1470344762610324,2,21,17,6,0,-11,-65,0
1470344762610324,-13,-17,-14,-7,-1,7,28,-18
1470344762612289,12,-8,37,9,-1,2,15,11
1470344762612289,-12,-4,-15,-6,-2,-6,-3,-4
1470344762625302,0,0,21,-6,-1,4,2,-16
1470344762625302,7,9,-7,12,3,1,-11,14
1470344762627305,-10,-11,8,-4,-5,-6,-16,-9
1470344762627305,5,11,18,-3,0,-3,11,-4
1470344762648077,-3,-13,0,24,1,1,8,5
1470344762648077,-1,-13,-14,-27,-7,-2,7,0
1470344762649076,0,5,-16,10,-2,0,-9,1
1470344762649076,-3,-5,-24,-23,4,0,-1,-4
1470344762670148,2,-10,-6,-10,1,1,14,4
1470344762670148,-2,3,23,-4,0,-3,1,2
1470344762676139,-3,11,-17,-3,-8,-5,-20,-3
1470344762676139,-2,-10,11,9,-4,-1,1,-3
1470344762685191,-1,-3,-22,-23,2,1,15,0
1470344762685191,0,4,-12,8,-4,-4,-4,-4
1470344762687110,-7,-4,2,-7,1,3,-11,-1
1470344762687110,-3,-8,-2,3,-1,-3,3,-4
1470344762708132,4,4,-8,2,-5,2,9,0
1470344762708132,-2,2,-19,2,-1,-1,-7,2
1470344762709132,-10,-5,14,3,2,2,-9,-5
1470344762709132,4,3,-9,-1,-2,-2,6,1
1470344762730205,-6,-7,-12,-3,-1,-3,1,-6
1470344762730205,0,6,32,2,-2,-2,-3,3
1470344762732177,1,0,-25,4,0,0,-1,0
1470344762732177,-7,9,12,-10,-1,-2,1,-3
1470344762745188,-3,-13,2,-2,1,-1,2,1
1470344762745188,0,2,4,7,-2,-2,-1,-1
1470344762751267,-1,-10,-19,-11,-1,2,-3,-3
1470344762751267,-1,4,-16,4,0,-1,0,-1
1470344762768274,-2,-5,3,-3,-2,-3,2,-1
1470344762768274,-2,-8,-2,3,-2,1,1,1
1470344762769285,1,9,13,1,-1,-5,-1,1
1470344762769285,-2,-9,-3,2,-1,0,-6,0
1470344762790291,3,2,-1,5,-1,0,4,2
1470344762790291,1,7,-11,-8,1,-1,3,-2
1470344762792294,0,-6,22,-1,2,0,4,-1
1470344762792294,-2,-6,-12,-1,-4,-5,-3,1
1470344762805360,-7,0,-11,-3,-2,-2,-7,-3
1470344762805360,3,-12,13,3,-1,2,4,1
1470344762811309,0,8,-24,-7,0,-3,-6,-2
1470344762811309,-3,4,19,1,-2,1,5,4
1470344762828323,3,-13,10,0,0,-1,0,0
1470344762828323,-3,14,-16,-10,-6,-4,-4,-6
1470344762829328,-7,-5,4,5,-3,-4,-3,2
1470344762829328,1,-13,3,4,4,4,0,-3
1470344762850462,2,7,5,1,-5,-2,-2,0
1470344762850462,0,5,-8,-6,-3,-3,-1,0
1470344762852409,-3,0,24,1,0,1,-2,-3
1470344762852409,-8,-12,-4,-10,-10,-11,-4,-6
1470344762864506,-2,9,-2,5,0,4,2,3
1470344762864506,0,0,18,2,4,5,0,0
1470344762871481,2,-20,-13,-2,-4,-3,-7,-1
1470344762871481,-1,19,-2,-4,-1,-1,0,-4
1470344762888458,-1,-5,4,-7,-2,-2,1,-2
1470344762888458,3,-8,13,5,3,1,0,5
1470344762889442,-9,12,0,0,-2,-3,-3,-3
1470344762889442,1,-5,-29,1,1,0,0,-6
1470344762910494,1,3,-8,-4,4,2,1,0
1470344762910494,-8,-13,-4,-4,-8,-7,-5,-1
1470344762911463,1,4,-17,2,4,4,0,1
1470344762911463,5,3,11,4,5,2,8,2
1470344762924519,-7,-5,19,6,-6,-3,-4,3
1470344762924519,-7,1,-31,-10,0,-3,-3,-9
1470344762931523,2,-2,5,3,-1,-3,-2,3
1470344762931523,3,-4,9,0,-2,0,-3,1
1470344762948108,0,5,-8,-2,-2,0,2,-2
1470344762948108,0,1,3,8,1,0,-2,1
1470344762949107,3,1,6,-10,-2,-2,-3,-3
1470344762949107,-3,-7,-16,3,1,2,-4,-2
1470344762970188,1,9,-6,6,1,-4,-1,1
1470344762970188,-1,-6,5,-11,-4,-1,-4,-4
1470344762972132,-3,24,-24,-8,-1,-3,-3,-3
1470344762972132,5,-26,35,0,3,3,6,5
1470344762985139,-8,-19,-59,-3,-8,-5,-3,-5
1470344762985139,-3,13,9,3,-7,-10,-7,-5
1470344762991237,4,-2,16,4,7,6,7,2
1470344762991237,0,0,-3,-7,-1,-1,-1,-3
1470344763008160,-5,-3,23,-5,3,1,0,-2
1470344763008160,3,8,4,14,2,1,-1,4
1470344763009164,-10,-27,-30,-23,-8,-6,-2,-7
1470344763009164,3,13,-5,7,-2,-2,-2,-1
1470344763030235,-3,3,5,-4,1,0,-2,-3
1470344763030235,3,-8,18,7,6,3,1,3
1470344763032182,-10,3,-19,3,-2,0,-4,-6
1470344763032182,-10,-7,1,-3,-3,-1,-3,3
1470344763045198,-3,-11,-2,-7,-8,-7,-3,-8
1470344763045198,-2,5,11,-2,2,2,0,-3
1470344763051825,10,18,-5,6,3,0,0,1
1470344763051825,-3,3,19,-5,-7,-6,-3,-4
1470344763067866,1,-10,-17,11,4,3,3,3
1470344763067866,6,-3,12,1,4,3,-1,0
1470344763069815,-6,-20,-22,-10,0,1,-1,-2
1470344763069815,12,46,24,18,1,-1,1,-4
1470344763090832,-3,-11,-4,-16,1,0,1,4
1470344763090832,3,-4,11,7,-4,2,2,2
1470344763091834,-2,-3,-18,-7,-5,-7,-3,0
1470344763091834,2,0,3,-2,-1,1,-4,-3
1470344763103844,-11,-4,-3,1,0,1,1,-2
1470344763103844,0,-10,-7,-13,-4,-4,1,0
1470344763112852,2,-13,8,-1,-2,-1,-5,-2
1470344763112852,-4,-10,-7,-9,-1,-1,0,1
1470344763127886,6,7,-2,0,-2,-2,-3,1
1470344763127886,-6,-3,-9,-1,-1,0,7,-2
1470344763129867,8,-1,13,6,0,0,-11,0
1470344763129867,-5,-11,-55,-8,-2,-1,4,-3
1470344763150943,3,9,20,3,4,4,-2,2
1470344763150943,-3,1,-8,-2,-2,-5,0,-3
1470344763151925,3,1,3,3,-2,-5,-2,2
1470344763151925,-8,-5,-5,-4,0,1,0,-1
1470344763163971,8,-5,-12,-12,-6,-7,-4,-5
1470344763163971,-7,-14,12,10,-1,-1,-3,-1
1470344763172946,-1,21,5,-5,0,0,3,1
1470344763172946,1,-30,22,4,-1,-1,-3,-1
1470344763187978,-6,-9,-9,2,-2,1,4,-3
1470344763187978,1,7,3,-11,-2,-1,-3,-2
1470344763189960,-1,-4,-8,5,-2,-2,-3,-1
1470344763189960,0,6,-2,-5,1,0,2,0
1470344763209980,3,10,26,6,-3,-4,-3,-2
1470344763209980,-2,1,-23,2,2,2,-2,2
1470344763211980,0,-14,14,-2,-5,0,0,-4
1470344763211980,-5,1,-9,-9,-4,-2,-3,-1
1470344763233066,-1,14,14,5,1,-2,-3,0
1470344763233066,1,-8,6,-1,-2,-1,-3,2
1470344763234507,-1,-4,-10,1,3,-1,3,0
1470344763234507,1,1,-7,-8,-1,-4,-5,-3
1470344763247585,-4,3,11,11,7,5,0,1
1470344763247585,-4,-1,-1,-6,-7,-4,-2,-3
1470344763249841,-3,-11,-18,-5,-3,-1,-2,-1
1470344763249841,2,14,17,10,-1,0,0,1
1470344763277922,3,-7,-9,-4,1,0,1,1
1470344763277922,0,10,7,-1,-2,-3,-1,0
1470344763279868,-6,3,6,-3,-2,0,-2,-3
1470344763279868,-1,-10,-22,-5,0,-2,-1,1
1470344763283937,3,3,20,2,-4,-1,-1,-3
1470344763283937,-2,2,-9,-4,-1,-3,-3,4
1470344763292889,1,-8,3,2,1,4,4,0
1470344763292889,-3,-3,10,-3,-2,-4,-2,-4
1470344763307950,1,6,-7,-4,0,-1,-3,-2
1470344763307950,0,-11,-49,-2,1,1,3,-2
1470344763309895,-2,1,26,4,-3,-4,1,1
1470344763309895,2,3,0,3,1,0,3,-1
1470344763329955,-1,3,-50,-7,-3,-3,-4,-4
1470344763329955,-5,-3,11,5,2,1,-12,-2
1470344763331915,0,1,-3,-1,-1,-2,9,-4
1470344763331915,-2,3,1,0,-1,0,-10,1
1470344763344536,1,-5,-12,-8,0,2,-3,-1
1470344763344536,-5,-4,1,-1,-2,-3,-1,-1
1470344763360032,-2,7,4,-2,-2,-2,1,0
1470344763360032,0,9,20,10,-2,-2,0,1
1470344763368057,-2,-3,-5,-2,-3,-2,1,-4
1470344763368057,1,0,-15,-9,-2,-2,3,-2
1470344763368999,0,-2,-7,2,1,0,-4,1
1470344763368999,0,-3,12,-5,-4,-1,4,-1
1470344763390022,-1,3,20,-6,-2,-1,-2,0
1470344763390022,-1,12,16,9,1,-1,-2,-9
1470344763392020,3,-7,4,-12,2,-1,0,0
1470344763392020,-4,-5,28,7,-3,-3,-4,-3
1470344763404030,0,2,-11,-1,-1,1,2,1
1470344763404030,6,-4,2,-1,5,2,1,5
1470344763413040,-6,0,23,5,-3,-1,-1,3
1470344763413040,-4,-7,-42,-16,2,2,0,-4
1470344763428052,-2,0,7,1,-4,-6,-1,0
1470344763428052,2,5,39,6,2,2,-5,2
1470344763429053,-3,-2,-44,-8,-3,-6,-1,-4
1470344763429053,-2,-8,-24,-5,-6,-2,-3,-1
1470344763449093,-2,-3,9,8,2,2,0,0
1470344763449093,-4,-5,-15,-9,-3,0,0,2
1470344763450094,2,-8,5,-5,-1,1,-2,-2
1470344763450094,1,3,2,8,2,-2,-1,0
1470344763472114,-2,-7,16,-5,-1,-2,1,-2
1470344763472114,2,6,-8,-3,-3,-1,1,0
1470344763473118,1,21,12,5,0,0,0,-1
1470344763473118,-3,-19,1,-11,-3,-1,2,0
1470344763487128,-3,-9,-34,5,-1,-3,-3,-3
1470344763487128,0,-3,-20,-2,-4,-3,2,2
1470344763488128,1,1,23,1,2,2,0,1
1470344763488128,0,-4,-49,-8,-2,-3,1,1
1470344763509148,-6,4,27,-1,-1,1,-6,3
1470344763509148,-3,-14,-11,-4,-2,-2,-2,-4
1470344763510148,2,-6,-8,-4,0,1,0,3
1470344763510148,-5,2,36,15,2,-1,0,-20
1470344763532169,-10,-13,-2,-7,-8,-3,-10,-2
1470344763532169,7,18,-16,-3,1,-2,-2,-4
1470344763533174,-8,-4,23,7,5,3,-7,-7
1470344763533174,8,-5,-12,-6,-1,4,16,10
1470344763547204,1,4,11,-2,1,-4,0,-1
1470344763547204,8,12,-17,-2,-1,3,22,-14
1470344763547687,3,-1,30,10,2,1,-15,6
1470344763547687,0,22,3,-1,-2,1,-14,-2
1470344763569844,-2,-5,2,-3,-3,3,4,11
1470344763569844,6,-6,9,3,0,-11,-3,15
1470344763570810,-10,10,-10,-2,-4,-4,12,-5
1470344763570810,-8,-2,26,6,3,-5,-11,-6
1470344763591863,4,-4,-24,-11,1,1,6,6
1470344763591863,-7,-1,18,-6,0,3,-2,-3
1470344763592832,2,-4,-8,15,-5,-5,-4,-1
1470344763592832,-1,-1,-16,-10,6,2,-5,2
1470344763606890,0,4,8,4,4,5,3,-4
1470344763606890,-4,-14,0,-23,-5,-1,-4,0
1470344763607844,-4,-3,-19,14,-12,0,-9,-12
1470344763607844,-1,-4,-13,-3,1,-7,3,3
1470344763629865,6,-3,0,-14,8,3,4,0
1470344763629865,-9,-9,-1,2,-3,1,-6,-5
1470344763630865,0,-5,-15,-8,-5,-6,2,1
1470344763630865,-3,0,2,3,-10,-6,-4,0
1470344763652020,1,0,0,0,-4,0,-1,-5
1470344763652020,-6,-2,-18,7,0,-4,-5,-2
1470344763653025,-1,-2,-7,-12,-2,-5,1,4
1470344763653025,2,7,37,18,5,5,4,3
1470344763667035,-3,-13,-33,-13,-6,-5,-3,-6
1470344763667035,0,31,27,9,0,1,-3,1
1470344763668032,2,-15,-28,-8,4,-3,-2,-2
1470344763668032,2,1,-20,1,3,3,2,0
1470344763690139,3,-2,-12,13,-5,-4,-1,0
1470344763690139,-6,-3,7,-12,-6,-9,-7,-8
1470344763690139,-2,0,2,-4,4,4,1,0
1470344763690139,-3,2,-5,16,-6,-3,0,1
1470344763712072,-5,-16,2,-6,-1,-4,-5,-6
1470344763712072,2,-8,7,7,-3,-4,6,4
1470344763714074,-4,-6,-36,-20,-1,2,-16,-6
1470344763714074,0,10,42,-3,0,1,0,3
1470344763727086,1,17,17,6,-5,-12,-7,-4
1470344763727086,0,-5,-63,-7,-1,3,-13,-4
1470344763728087,-8,-10,14,10,-3,0,41,13
1470344763728087,20,0,22,-7,1,2,10,-7
1470344763749696,-6,9,2,2,3,4,5,8
1470344763749696,9,-26,26,8,2,0,1,-14
1470344763750669,1,-2,7,-5,-1,-5,-32,-3
1470344763750669,-6,3,2,-10,-5,-4,25,-4
1470344763772682,6,-7,28,8,4,-5,-34,-17
1470344763772682,1,-14,-39,-2,1,3,1,0
1470344763772682,-17,1,0,4,2,0,-20,-4
1470344763772682,-12,-8,1,-20,-5,0,-2,-3
1470344763787700,2,6,-1,7,-4,-1,0,0
1470344763787700,-6,0,-8,-3,-3,2,6,2
1470344763787700,7,-8,-2,-3,-1,-3,4,0
1470344763787700,-5,-3,-27,7,2,-4,-15,-2
1470344763809736,-6,0,-14,-7,-7,-9,7,-2
1470344763809736,-1,2,-16,-17,3,10,-2,2
1470344763810716,5,10,10,27,4,0,10,1
1470344763810716,-4,-15,-25,-20,-6,-2,6,2
1470344763832736,2,2,-9,-11,-2,0,-8,0
1470344763832736,-2,4,38,19,1,3,8,-1
1470344763833243,1,-3,-15,-37,4,3,-6,-4
1470344763833243,-1,-2,-1,32,-3,-6,-18,-2
1470344763847843,-2,-3,-17,-13,1,9,32,7
1470344763847843,-2,5,16,-4,-4,-5,0,3
1470344763848254,2,2,-19,-2,-2,-2,12,-5
1470344763848254,8,-3,1,-3,1,-1,-53,5
1470344763869833,-9,3,17,-6,-1,3,53,6
1470344763869833,-2,-3,17,24,-3,-8,-13,0
1470344763870778,-4,2,2,9,2,-2,4,8
1470344763870778,3,-8,-5,-18,1,4,-2,-1
1470344763891800,2,1,-17,7,-3,-8,20,-1
1470344763891800,-4,0,6,7,0,-10,-32,4
1470344763892800,-5,-1,1,-1,-5,7,-10,-4
1470344763892800,-12,-6,-26,2,2,1,20,-12
1470344763906813,0,-8,-12,-10,-1,-6,-30,0
1470344763906813,3,3,20,11,-5,-8,24,11
1470344763907813,-6,-4,-37,-22,1,2,-11,16
1470344763907813,-2,5,25,-1,-1,-11,58,-12
1470344763929847,1,-8,13,24,4,16,-25,1
1470344763929847,-11,6,18,-19,-3,-11,-16,-16
1470344763930832,10,-3,-16,14,-1,-1,22,3
1470344763930832,-11,-19,-28,-12,-4,-4,-20,6
1470344763951979,-10,14,16,3,0,1,41,3
1470344763951979,7,7,-7,5,6,4,-28,0
1470344763952950,-4,-13,-28,-14,-4,-6,-15,-4
1470344763952950,-3,-7,14,11,3,4,-17,-11
1470344763967006,-5,5,-6,-1,-2,-7,18,8
1470344763967006,-1,-19,18,-11,1,12,-3,-6
1470344763967974,12,21,21,6,2,1,7,-5
1470344763967974,1,-9,7,0,-2,-1,10,12
1470344763989987,2,-15,14,3,3,-7,-15,4
1470344763989987,2,5,-4,-3,2,6,11,-4
1470344763989987,-1,-8,48,12,-9,-10,-7,-4
1470344763989987,3,15,-37,-8,2,4,3,-1
1470344764012060,-2,-16,16,4,-4,-5,-27,-12
1470344764012060,0,11,-3,-15,0,3,6,9
1470344764013003,-8,4,7,8,-5,-3,9,-7
1470344764013003,1,-4,-8,7,-7,-3,-12,6
1470344764027021,2,1,4,-9,-2,-1,-14,-9
1470344764027021,-3,-9,-26,-15,-7,-6,12,-5
1470344764028018,5,11,7,-20,3,2,-2,-1
1470344764028018,-3,-20,8,3,-12,-6,-10,-4
1470344764050153,4,24,-11,3,10,8,-7,-2
1470344764050153,1,0,-10,3,-4,-1,6,-1
1470344764050153,-1,-22,27,0,-7,-3,-4,-4
1470344764050153,-2,12,-7,-14,-6,-7,-9,-2
1470344764080219,-1,3,-21,18,14,6,-3,-7
1470344764080219,5,-16,-2,1,5,5,3,14
1470344764081176,-1,18,-24,8,-11,-11,-5,-9
1470344764081176,-3,13,-4,-2,7,4,7,11
1470344764087183,4,-10,28,17,-4,4,-5,-4
1470344764087183,-3,-12,7,-13,-8,-11,-4,-8
1470344764088182,-1,8,-9,-10,4,6,2,0
1470344764088182,0,3,16,5,9,5,-1,-2
1470344764110202,0,-11,-6,-5,-10,-4,-10,-1
1470344764110202,-2,19,4,16,5,1,4,7
1470344764110202,-1,-4,14,1,-1,0,0,-2
1470344764110202,5,0,-3,0,0,2,0,-1
1470344764132280,-7,-14,2,-20,-6,-5,-5,-1
1470344764132280,-1,7,-11,1,-5,-3,-2,-10
1470344764133222,-6,-17,8,-1,2,-3,-3,2
1470344764133222,-3,0,4,4,-1,1,7,0
1470344764146738,-3,-5,-22,-10,-7,-7,-18,0
1470344764146738,-4,-14,-15,-5,-3,1,1,0
1470344764155313,1,40,-4,0,4,-1,-2,-7
1470344764155313,-2,-23,6,8,1,3,1,-3
1470344764169321,10,-2,-10,-11,-5,-3,0,0
1470344764169321,-12,18,16,2,0,-3,-3,-3
1470344764170322,3,-22,-1,-2,2,2,0,2
1470344764170322,1,5,-3,-16,-4,-4,-4,-2
1470344764192374,4,10,-5,2,1,2,-1,-2
1470344764192374,-1,-19,-7,-4,-6,-1,-4,-1
1470344764193343,0,3,0,6,2,0,11,-1
1470344764193343,-2,0,-7,7,2,3,-7,1
1470344764206354,-2,-10,13,-11,-4,-2,0,-9
1470344764206354,-5,8,-2,0,1,1,0,1
1470344764215422,1,-2,-15,-2,-2,-1,1,1
1470344764215422,-1,-13,23,-19,-5,-2,-3,-3
1470344764229444,-8,14,-23,-2,-6,-7,-1,7
1470344764229444,4,-2,-1,9,5,2,3,1
1470344764230377,0,-10,6,5,0,1,-3,3
1470344764230377,-4,13,-17,-3,-5,-6,-2,-5
1470344764252528,-1,-16,10,1,4,1,2,1
1470344764252528,-1,15,-5,-5,-5,-3,2,0
1470344764252528,-3,-14,4,-5,-7,-6,-12,-4
1470344764252528,2,17,-7,1,6,2,10,2
1470344764266541,1,0,16,1,1,2,-5,-6
1470344764266541,-2,-19,0,3,-1,-1,5,-1
1470344764274583,-7,3,-4,-8,-6,-4,-5,-9
1470344764274583,-6,0,8,6,-7,-8,-4,-3
1470344764289585,1,-1,-34,9,5,6,-3,0
1470344764289585,-3,-5,-14,-16,-5,-3,-2,-1
1470344764290562,0,0,20,3,4,-1,-5,0
1470344764290562,1,-3,-1,14,7,6,0,3
1470344764312583,1,3,-9,-17,-11,-7,3,2
1470344764312583,1,2,15,-9,0,1,-3,-3
1470344764312583,-3,-10,-11,7,0,-2,-1,2
1470344764312583,0,-5,-13,-5,-4,-2,-7,-5
1470344764326598,-5,7,-5,8,-4,-1,0,-1
1470344764326598,1,-1,-4,-3,4,0,-17,-1
1470344764335122,3,3,8,4,5,6,25,5
1470344764335122,2,-3,8,-5,-2,-1,12,2
1470344764349136,-7,-5,-23,5,2,-2,-17,-5
1470344764349136,4,-4,-14,-9,-10,-7,39,-1
1470344764350471,0,-1,6,2,-4,0,-58,-5
1470344764350471,5,3,-2,-4,2,12,18,14
1470344764372520,-5,-1,25,2,2,-2,23,2
1470344764372520,-5,-4,-13,-2,-3,-3,-14,-9
1470344764373491,-8,-1,-13,4,2,7,0,0
1470344764373491,0,0,-5,6,-3,-5,-8,-2
1470344764386537,10,0,12,-13,1,2,-8,-2
1470344764386537,-11,-4,-11,7,1,-4,10,-4
1470344764394511,1,-3,-15,-12,-8,-9,-22,-1
1470344764394511,-5,1,3,-5,-2,0,31,-9
1470344764409527,4,-2,11,-4,-4,-3,13,-9
1470344764409527,7,8,11,9,5,3,-14,20
1470344764410526,-11,-9,-16,-5,-2,5,4,-17
1470344764410526,-10,-8,26,4,-2,-11,9,1
1470344764432544,9,0,-22,-2,2,6,4,3
1470344764432544,4,1,10,2,-2,-1,-5,9
1470344764432544,4,-2,6,-6,-6,-9,-14,2
1470344764432544,5,14,-1,-6,-2,3,5,-6
1470344764454606,-3,5,28,2,0,0,5,-12
1470344764454606,-1,-5,-52,-8,-1,-1,-13,3
1470344764462613,1,11,17,15,-1,-6,11,3
1470344764462613,2,3,-6,-5,-4,-4,-19,-7
1470344764469619,-6,-8,5,2,2,-5,-7,6
1470344764469619,0,5,7,3,-1,3,-11,-7
1470344764470621,6,6,37,18,5,0,16,3
1470344764470621,-5,0,-22,-9,-7,-3,-7,-4
1470344764491666,-9,11,-26,-19,-12,-10,-17,-6
1470344764491666,2,-11,31,5,15,9,13,5
1470344764492641,-1,-23,-5,-10,-5,-2,12,0
1470344764492641,-6,0,-16,-15,-4,-3,-18,-2
1470344764515664,0,15,14,32,2,0,0,6
1470344764515664,-4,-34,26,-51,-14,-9,-5,-13
1470344764515664,-3,-5,-22,7,-2,-3,5,1
1470344764515664,6,-10,10,4,3,-2,-15,-1
1470344764529691,0,1,-18,-28,3,6,3,5
1470344764529691,-3,-14,-14,20,-3,-2,3,-4
1470344764530675,-10,-4,-36,-9,-4,-3,-5,-4
1470344764530675,-4,-20,17,-2,4,5,1,5
1470344764552792,2,-3,-25,-5,-1,0,2,4
1470344764552792,-8,12,17,-3,-7,-8,-6,-11
1470344764552792,5,6,-18,-17,6,7,6,-2
1470344764552792,-5,-9,-4,37,-1,-3,-6,-1
1470344764575725,2,-1,14,2,0,3,7,1
1470344764575725,-2,17,-12,0,-2,-5,-37,-7
1470344764575725,2,-11,11,-9,2,3,26,5
1470344764575725,-1,-3,-5,-7,-1,0,-2,-1
1470344764589740,-14,-7,-15,-5,-3,-5,11,-7
1470344764589740,1,-1,-12,4,2,2,4,4
1470344764590740,-8,-1,-2,-3,-5,-1,-8,-7
1470344764590740,7,2,-8,-8,-2,-3,-10,2
1470344764611758,-5,-12,18,-2,-1,-4,-6,1
1470344764611758,9,4,34,18,7,8,10,0
1470344764612789,9,17,14,2,-1,-2,-1,2
1470344764612789,-29,-1,-43,-8,-5,-5,-4,-10
1470344764635783,7,11,38,2,0,0,-7,-2
1470344764635783,-6,-6,-11,1,-4,-1,6,-5
1470344764636285,4,-22,3,5,4,3,-1,4
1470344764636285,-2,-11,1,-14,-8,-13,-7,-1
1470344764649298,7,12,16,6,4,8,5,18
1470344764649298,-2,4,-15,8,6,3,3,10
1470344764650402,-4,-7,11,-3,-6,-2,9,-11
1470344764650402,5,6,-23,-2,2,1,-4,8
1470344764672454,-5,-8,-2,-3,-3,-4,-12,-11
1470344764672454,6,-13,0,4,0,-2,7,6
1470344764673425,-15,21,0,-1,-3,-9,-13,-13
1470344764673425,8,2,6,1,3,7,11,29
1470344764695502,5,-13,-16,0,-1,-1,-2,-5
1470344764695502,-8,6,-7,-12,-11,-10,-8,-11
1470344764696442,2,1,-4,-7,-1,2,0,-1
1470344764696442,2,3,-5,9,9,3,0,-11
1470344764709456,-4,-16,-6,15,-7,-7,-6,-2
1470344764709456,-3,-1,-23,-18,1,-3,1,-1
1470344764711458,4,14,21,-1,0,-1,2,7
1470344764711458,-2,-18,-20,-14,-19,-10,-5,-10
1470344764732501,0,-11,5,6,8,8,2,6
1470344764732501,-4,10,23,12,-3,-3,-8,-5
1470344764732501,-3,11,-13,1,-9,-7,0,-4
1470344764732501,7,-3,13,-29,7,9,6,1
1470344764755165,-6,3,-33,-21,-8,-8,-7,-4
1470344764755165,5,-2,-3,11,-8,-6,-5,-2
1470344764756131,-2,3,-11,27,12,7,-8,1
1470344764756131,-2,-10,1,-12,-5,-5,16,-7
1470344764769106,-8,-5,13,-34,-4,-4,-22,-9
1470344764769106,2,10,-23,-8,2,4,1,2
1470344764770102,1,-21,14,10,-2,-3,-9,10
1470344764770102,3,12,8,7,0,1,39,-3
1470344764792215,-3,11,-1,8,-5,-1,-31,-4
1470344764792215,0,-11,3,4,0,-3,-15,-4
1470344764793123,-3,-7,-13,-21,-8,-4,-8,-4
1470344764793123,-2,10,18,11,1,3,-2,-4
1470344764815144,2,0,-13,7,4,-5,6,10
1470344764815144,-2,-6,26,7,-4,1,15,2
1470344764816143,-1,-1,-22,-15,0,-8,-9,0
1470344764816143,5,0,-33,-20,-2,4,-6,-3
1470344764829190,2,-6,14,46,1,-3,-9,-7
1470344764829190,-8,-3,3,-61,-8,-6,39,1
1470344764837716,3,-5,13,14,2,3,-38,-7
1470344764837716,-4,17,-32,-11,-7,-10,44,2
1470344764851855,0,0,28,3,-1,-2,-28,4
1470344764851855,5,-6,13,38,10,9,-20,-1
1470344764852889,-1,-7,-5,-13,-3,0,19,0
1470344764852889,1,10,25,8,5,3,-13,5
1470344764875861,0,0,-5,-17,-1,0,17,-5
1470344764875861,-6,-16,-4,-5,-8,-7,-13,-5
1470344764875861,4,17,-14,0,1,2,24,3
1470344764875861,4,-4,6,14,2,0,-56,1
1470344764889873,-13,-14,27,-7,-3,-5,23,2
1470344764889873,-8,18,-2,0,-6,-3,5,0
1470344764890878,8,11,-34,-13,-4,-4,-13,0
1470344764890878,-3,-14,20,15,3,2,-5,-3
1470344764911894,-1,-2,0,-4,-8,-4,17,-4
1470344764911894,0,-37,-6,-6,4,0,-21,-8
1470344764912944,-2,8,-5,-2,-3,-1,11,-1
1470344764912944,-3,-14,-5,4,-5,-2,-12,-9
1470344764935516,-12,5,-19,-2,-1,1,3,4
1470344764935516,22,7,37,11,2,6,7,0
1470344764936476,-18,-25,-64,-18,-3,0,11,-7
1470344764936476,2,-11,33,9,-2,-2,-17,-2
1470344764949988,6,6,-28,-14,-2,0,9,0
1470344764949988,0,7,10,4,2,3,6,1
1470344764950489,3,-5,35,15,0,0,-9,2
1470344764950489,-1,9,17,6,1,-1,6,0
1470344764972516,3,1,-20,-5,4,3,1,0
1470344764972516,-3,-3,-10,14,-4,-7,-5,0
1470344764972516,-1,-8,14,-12,-1,-1,2,2
1470344764972516,-2,8,-3,14,-1,1,-5,0
1470344764995601,3,-11,-8,-14,0,-6,-6,-10
1470344764995601,-2,17,5,1,4,3,1,5
1470344764996536,-2,-1,-3,2,-2,-1,18,5
1470344764996536,1,4,18,1,3,2,-10,-8
1470344765009561,-2,-22,-19,-13,-3,-1,-3,-4
1470344765009561,-2,23,1,26,-3,-3,-1,-1
1470344765010551,1,9,20,-17,1,3,-4,0
1470344765010551,1,5,-2,2,-4,-5,-1,1
1470344765032569,-4,12,-2,6,-5,2,1,2
1470344765032569,-6,-13,-29,-47,-2,-3,-3,-3
1470344765032569,-2,-27,23,29,2,-3,-4,-3
1470344765032569,2,21,24,-2,3,0,2,2
1470344765055256,1,10,-73,-9,-1,1,1,0
1470344765055256,-2,-8,-8,-8,-9,-5,1,-4
1470344765056167,-10,-15,16,15,-6,-4,-7,-5
1470344765056167,-2,-32,-83,-40,-11,-7,-3,0
1470344765069237,9,-18,70,30,6,2,2,5
1470344765069237,-11,16,-5,-17,-10,-6,-5,-7
1470344765077186,15,-33,28,9,4,2,1,1
1470344765077186,-10,3,-6,8,-2,-3,-3,0
1470344765092221,-5,3,-47,-25,-10,-8,-4,10
1470344765092221,21,23,40,25,17,14,11,1
1470344765093201,-11,32,18,-15,-5,-2,-5,1
1470344765093201,-8,-19,2,-5,-11,-10,-3,-4
1470344765115264,7,21,-20,-1,9,7,6,3
1470344765115264,-7,-10,-3,4,-3,-4,-3,-1
1470344765116221,-2,-32,21,-9,-6,-2,6,-2
1470344765116221,8,23,8,3,8,5,7,1
1470344765129285,2,17,1,12,-2,0,37,-9
1470344765129285,-26,-53,-60,-10,-8,-3,-2,4
1470344765137354,-1,51,4,-7,1,-6,-4,-14
1470344765137354,-1,-21,3,3,3,1,2,16
1470344765151926,3,-16,61,10,-2,2,5,10
1470344765151926,17,66,33,10,2,-3,-2,-7
1470344765152873,-14,-15,-107,-41,-5,-2,-16,3
1470344765152873,-10,23,56,19,-2,-3,1,-16
1470344765175870,4,-3,49,12,4,0,-9,1
1470344765175870,-9,-19,-31,-5,-11,-13,-8,-1
1470344765175870,6,37,11,7,11,10,4,10
1470344765175870,5,-21,-23,-11,-3,-2,-8,-7
1470344765188882,-6,-17,19,5,-5,-4,-11,-7
1470344765188882,-4,2,-3,-11,-1,-1,-4,-4
1470344765196890,7,2,15,8,-2,-2,5,-6
1470344765196890,-1,-21,-17,-3,-1,4,0,3
1470344765211905,-9,9,-19,-17,-5,-7,-9,-5
1470344765211905,2,-5,9,4,13,9,10,5
1470344765212905,2,-23,-12,10,6,0,1,1
1470344765212905,-1,17,27,11,-2,-2,-5,1
1470344765236027,-4,13,-15,3,-3,0,-8,-1
1470344765236027,4,0,13,7,-3,-1,-1,-5
1470344765236986,-2,-14,-23,-18,-4,-2,0,-2
1470344765236986,-3,10,27,-1,0,0,-3,-3
1470344765249497,0,-6,-36,-9,-2,-2,-1,-5
1470344765249497,-3,5,6,-8,-4,1,1,1
1470344765257087,0,-8,-2,7,0,-2,-1,1
1470344765257087,1,10,13,42,6,5,2,0
1470344765272144,-4,-10,-26,-51,-3,-2,-6,-2
1470344765272144,2,-2,8,17,3,1,-2,1
1470344765273129,0,-7,-18,5,-5,-3,-4,-3
1470344765273129,-7,-17,-54,-41,-7,-3,-7,-8
1470344765303129,3,9,38,35,8,3,4,16
1470344765303129,3,-12,-2,-6,1,-1,0,2
1470344765304130,-3,10,17,15,-2,-3,-3,-6
1470344765304130,6,9,-9,-43,-6,0,0,-1
1470344765309169,4,5,37,25,12,7,0,0
1470344765309169,-5,-11,-39,-15,-3,-1,-1,-2
1470344765317200,0,2,22,6,0,1,0,3
1470344765317200,-1,6,-37,-3,-1,-1,1,2
1470344765340722,-4,-9,9,-8,-4,-6,-8,-3
1470344765340722,8,-6,8,1,3,0,0,2
1470344765341224,10,38,19,0,-5,-3,-3,-3
1470344765341224,-1,-2,12,15,6,2,-2,1
1470344765355313,-5,-6,-30,-14,-2,0,-1,-8
1470344765355313,3,-3,0,13,1,-3,-2,-4
1470344765356241,-9,-10,-27,-6,-3,-1,-1,1
1470344765356241,3,-4,-3,-6,-3,-3,0,-1
1470344765369309,-7,5,18,3,-7,-6,-5,-5
1470344765369309,4,3,31,6,5,4,5,3
1470344765377262,6,-8,9,-4,-10,-3,-16,-12
1470344765377262,-10,-2,9,-1,-5,-4,-1,-1
1470344765392277,17,10,-16,14,12,7,4,-1
1470344765392277,-12,-15,10,1,-2,2,-4,-2
1470344765393276,8,2,-10,-7,-2,-5,2,1
1470344765393276,-6,6,9,3,-7,-8,-6,-7
1470344765415297,5,-6,-7,-10,-2,2,-1,1
1470344765415297,-8,8,-50,-7,-7,-4,-1,-3
1470344765416297,7,2,20,-6,-1,-5,-1,0
1470344765416297,-4,4,42,36,9,6,-1,3
1470344765438333,-9,5,12,-4,1,1,-3,-6
1470344765438333,3,4,-18,-4,-1,-2,-3,-2
1470344765438834,-9,0,-25,-16,5,3,2,2
1470344765438834,5,-15,0,-6,-3,-1,1,2
1470344765452376,0,3,-19,-5,-3,-4,-3,-1
1470344765452376,-12,4,11,1,-3,-6,-3,-1
1470344765453363,17,-6,-19,10,3,6,2,0
1470344765453363,-8,-12,-34,-17,1,-1,-1,2
1470344765475382,-6,-3,-4,22,1,1,0,-3
1470344765475382,5,-6,-1,-12,2,1,-2,-2
1470344765476384,-5,-14,25,2,-1,-2,2,1
1470344765476384,11,20,-6,-2,-2,-4,0,-2
1470344765505444,10,-1,-1,-13,-8,-6,-3,0
1470344765505444,-21,3,20,14,-2,-1,-1,-5
1470344765506412,-2,2,3,-15,3,3,1,2
1470344765506412,4,-2,4,8,0,-3,-4,-2
1470344765512450,-19,-14,23,0,-4,-2,-2,-9
1470344765512450,14,9,35,5,-1,0,0,2
1470344765512450,1,0,-42,-3,-2,-1,-1,0
1470344765512450,-30,-11,-35,4,2,1,2,-3
1470344765535465,8,-4,15,-19,-6,-4,-3,-1
1470344765535465,-1,-11,-1,10,-2,-3,-4,-1
1470344765536470,-3,1,3,-1,0,-2,1,3
1470344765536470,4,-21,0,2,3,2,1,1
1470344765558573,1,2,15,12,-2,-1,0,-1
1470344765558573,2,3,-7,-32,-6,-4,-5,0
1470344765559520,-7,2,26,23,3,-2,-1,-9
1470344765559520,8,-10,-16,-21,-3,-3,1,1
1470344765572531,-5,-3,18,5,-3,-2,1,0
1470344765572531,17,3,-24,-4,3,2,3,4
1470344765572531,-9,11,-4,-4,-2,0,-1,2
1470344765572531,-1,0,26,16,0,1,-4,-3
1470344765595566,-4,1,-49,-14,-4,-4,-4,-2
1470344765595566,5,-10,-39,-8,-1,2,0,2
1470344765596552,-18,7,0,1,-2,-2,0,-3
1470344765596552,1,5,-5,5,-1,-3,-2,0
1470344765617573,15,0,6,1,4,5,1,5
1470344765617573,-21,-17,-5,-4,-8,-6,-3,-8
1470344765618573,6,-11,-12,-11,-1,-1,-5,1
1470344765618573,3,-2,0,-20,-5,-6,2,-1
1470344765632590,-4,16,6,13,1,2,-2,-2
1470344765632590,7,-10,-20,-8,1,0,-4,2
1470344765632590,-4,7,11,18,-2,-2,7,-4
1470344765632590,0,-7,-11,-12,-1,3,5,-3
1470344765655237,7,0,5,3,1,-5,-6,1
1470344765655237,-36,-2,-2,-4,-3,0,-8,-3
1470344765656224,16,0,9,10,2,-2,3,-1
1470344765656224,-6,5,13,-6,-4,6,17,4
1470344765678263,-4,-9,-4,-6,-2,-2,-2,-1
1470344765678263,-2,2,7,7,-3,-6,-27,-5
1470344765678263,4,-7,10,-11,-2,3,26,4
1470344765678263,-9,-3,-2,-1,-2,-7,-18,-8
1470344765692259,-5,2,-10,-1,0,2,5,-10
1470344765692259,3,0,25,5,3,-3,4,1
1470344765693258,-10,-11,21,4,-5,-9,-48,-7
1470344765693258,8,0,-59,-17,0,7,51,4
1470344765724284,-4,-9,-7,-9,-3,-10,-18,6
1470344765724284,3,16,31,36,3,11,49,-6
1470344765725285,-6,-14,-33,-32,-5,-5,-38,0
1470344765725285,0,-6,0,8,-2,-5,-1,1
1470344765745812,-1,1,1,0,3,2,4,3
1470344765745812,4,-1,3,-13,-2,-6,-5,-3
1470344765746308,-3,-8,6,13,0,4,17,4
1470344765746308,3,3,-18,-5,-1,0,-20,-1
1470344765752499,-7,-12,-5,8,-4,-4,-6,-5
1470344765752499,10,-24,6,-1,5,9,30,6
1470344765753466,-10,25,-17,-7,-9,-9,-44,4
1470344765753466,1,-38,19,0,3,-3,-19,-2
1470344765775518,4,-13,31,7,2,8,7,1
1470344765775518,-6,18,-45,-11,-13,-16,-13,-6
1470344765776479,-2,-10,15,-4,3,7,45,9
1470344765776479,6,3,43,26,10,12,-31,5
1470344765798499,-7,-11,12,-11,-13,-13,-27,-3
1470344765798499,-5,-8,11,-5,0,-3,-24,-10
1470344765798499,5,-10,-5,-4,2,6,36,4
1470344765798499,2,-30,-5,3,-10,-14,-19,-5
1470344765812513,-4,42,11,-8,-1,4,24,-11
1470344765812513,-2,-1,-41,-10,-1,0,-14,0
1470344765812513,0,-12,26,16,3,2,0,-5
1470344765812513,1,27,3,-9,-3,-6,6,-4
1470344765835546,5,-4,4,7,3,-1,-8,4
1470344765835546,10,-12,-7,3,2,5,10,5
1470344765836532,-5,12,-16,-13,-4,-7,-8,-10
1470344765836532,0,1,16,2,3,3,8,3
1470344765857977,-1,-9,-28,-3,-3,0,4,3
1470344765857977,1,2,-7,-8,-5,-4,-7,3
1470344765858961,0,11,12,22,-1,2,6,0
1470344765858961,0,13,-15,9,-2,-8,-8,-2
1470344765871975,3,-11,-3,-17,8,12,14,4
1470344765871975,0,14,13,2,-1,-2,1,-2
1470344765880979,0,-7,-19,-21,1,2,-7,-3
1470344765880979,-1,-1,-4,19,4,0,6,-2
1470344765895026,-1,6,10,5,-7,-9,-5,-4
1470344765895026,2,-5,-16,-11,9,1,-17,-1
1470344765895993,-2,-5,5,8,-6,-2,17,-2
1470344765895993,1,7,-1,-14,-1,1,2,-2
1470344765918047,-4,-4,-28,-16,-2,-1,-7,-2
1470344765918047,4,4,22,11,6,0,-3,1
1470344765919013,-2,-7,-4,9,-4,-2,-10,-2
1470344765919013,-5,13,9,-9,-3,-3,-2,-4
1470344765932026,-2,-12,17,0,-4,-9,-17,-11
1470344765932026,-3,-6,-51,-7,-8,2,37,0
1470344765940538,6,5,11,-9,3,6,23,13
1470344765940538,-1,0,14,6,0,4,10,-4
1470344765955151,-1,-4,-15,-4,0,5,5,6
1470344765955151,-1,-3,6,-1,-4,-2,-27,-8
1470344765957100,5,10,8,15,4,-2,-3,-3
1470344765957100,-14,1,-22,-19,-5,1,21,11
1470344765978189,-7,12,5,14,1,-5,-14,-5
1470344765978189,6,-12,20,2,3,6,4,0
1470344765979120,0,-4,-7,-1,-2,-1,-3,2
1470344765979120,3,23,-8,-14,-10,-13,-26,-10
1470344765992137,-21,12,35,14,11,7,10,9
1470344765992137,5,-23,-21,10,-6,-4,4,-12
1470344766000138,11,-47,-57,-40,-9,-6,-23,-5
1470344766000138,-4,25,24,10,6,1,0,-1
1470344766015152,-5,-30,-22,0,-4,3,31,5
1470344766015152,8,34,25,-4,-2,-4,-36,7
1470344766017159,-31,9,72,29,5,-2,-25,-10
1470344766017159,10,-12,-9,21,2,6,18,-1
1470344766038181,10,14,-23,-26,-7,-6,22,-5
1470344766038181,-15,-16,-24,6,-5,-1,0,0
1470344766039682,11,28,-18,1,9,4,3,2
1470344766039682,-5,-19,23,37,-3,-3,-11,2
1470344766051737,3,-1,-1,-50,1,0,1,-4
1470344766051737,4,-1,-14,13,1,-5,-1,1
1470344766060988,0,10,1,-7,0,0,-1,2
1470344766060988,3,36,7,13,1,4,13,-2
1470344766075003,-4,-59,-51,-6,-8,-10,-23,-7
1470344766075003,-12,-40,-28,-20,-1,-2,3,-1
1470344766077004,2,24,-2,39,0,0,9,-1
1470344766077004,-12,-18,-16,-34,-8,-8,-13,-4
1470344766098066,15,25,80,28,6,2,-6,0
1470344766098066,5,45,9,-6,3,6,10,11
1470344766100024,8,-2,16,18,3,4,10,-5
1470344766100024,-12,4,-16,-33,-8,-6,-12,-1
1470344766122085,10,-8,-2,32,1,-4,-2,1
1470344766122085,-7,22,47,1,2,3,7,-6
1470344766123045,2,16,-41,-6,-6,-9,-8,-3
1470344766123045,14,3,-11,-14,9,9,4,5
1470344766135055,-4,19,-6,19,-3,-4,-5,1
1470344766135055,-6,-79,36,9,-2,-3,0,1
1470344766137063,-14,7,-66,-57,-11,-5,-5,-7
1470344766137063,5,17,32,5,3,1,0,0
1470344766158155,-8,-9,-68,-20,-5,-2,2,-10
1470344766158155,12,5,19,18,12,10,11,41
1470344766159104,-6,10,15,6,-2,-4,-10,16
1470344766159104,-9,-23,-1,1,2,-5,-17,-43
1470344766172116,-6,-8,14,1,0,8,-1,-4
1470344766172116,23,32,-17,-18,-7,-8,9,-7
1470344766180160,-1,-11,16,1,-1,2,11,69
1470344766180160,-14,-1,14,7,8,8,19,-63
1470344766195188,8,7,-4,-5,-10,-13,-40,-44
1470344766195188,19,36,38,-18,-1,2,1,-5
1470344766197184,-11,-51,-20,3,-4,-4,-1,57
1470344766197184,-4,-32,-41,2,-11,-11,1,1
1470344766218154,11,25,8,-13,0,0,7,12
1470344766218154,-12,34,8,-1,-4,-1,-1,-17
1470344766219155,18,-4,22,-5,-2,6,5,-22
1470344766219155,6,-7,0,0,5,5,0,39
1470344766231258,-5,5,-6,8,-11,-1,5,6
1470344766231258,-2,-26,21,12,13,4,-4,14
1470344766240680,-15,-13,-13,-1,-13,-13,-8,-44
1470344766240680,-1,-20,-32,-8,-6,-1,-5,16
1470344766255874,7,36,8,-3,1,3,5,9
1470344766255874,-16,-27,-50,-22,-16,-15,-6,-19
1470344766256896,0,10,-6,4,4,3,3,-13
1470344766256896,4,10,6,5,5,9,1,-1
1470344766277867,-15,-27,-14,-6,-2,-3,14,6
1470344766277867,3,3,-27,12,2,-3,-35,-4
1470344766279869,4,-12,5,-12,1,2,23,0
1470344766279869,21,3,0,-8,-10,-13,-11,20
1470344766291878,-6,1,16,5,2,1,4,2
1470344766291878,2,-3,1,5,4,6,3,22
1470344766300889,-7,2,41,2,4,5,-11,-28
1470344766300889,4,26,29,-6,-6,-5,-7,-23
1470344766315901,0,-1,1,7,5,0,-21,-6
1470344766315901,-4,-9,-34,5,-4,-5,22,-14
1470344766316901,12,4,29,-20,0,3,-4,5
1470344766316901,-13,-3,-31,-32,-5,-4,3,15
1470344766337987,4,-18,11,1,3,4,8,-5
1470344766337987,-11,8,24,11,-8,1,-12,2
1470344766339967,-12,-24,-48,-30,-7,-13,-17,-15
1470344766339967,0,-13,-32,7,2,5,-5,1
1470344766360486,1,2,22,5,1,-2,-18,8
1470344766360486,-8,-2,9,-20,-11,1,45,-3
1470344766362497,-2,-8,-12,-6,4,0,-27,-10
1470344766362497,3,-3,17,3,-2,-9,27,-1
1470344766374586,4,-6,-49,5,0,4,-21,7
1470344766374586,-11,3,0,-17,-8,-10,-26,-1
1470344766389508,0,2,16,22,1,3,41,-12
1470344766389508,3,0,5,14,7,2,-7,16
1470344766397531,-9,-16,-23,-21,-7,-2,21,-4
1470344766397531,-5,-17,-57,-40,-7,-5,-10,-6
1470344766399518,9,43,41,13,4,2,-2,0
1470344766399518,-4,-10,37,16,-1,-2,-5,-1
1470344766420537,7,-3,21,10,5,1,4,6
1470344766420537,-3,15,-26,-2,-2,-2,-5,-13
1470344766422546,0,-17,-2,0,-2,-5,-8,-3
1470344766422546,-1,6,-25,-1,-3,1,1,3
1470344766435584,0,19,20,1,5,0,0,-4
1470344766435584,-3,-39,8,4,3,2,1,-3
1470344766437559,-10,2,-4,4,0,-1,6,-9
1470344766437559,6,-2,-17,-2,2,6,-8,12
1470344766457583,-3,-20,8,0,-1,-4,17,3
1470344766457583,-15,15,12,10,3,-4,-10,-5
1470344766459588,4,-12,15,9,0,6,3,-4
1470344766459588,-4,-6,-16,-14,-3,-3,-3,-2
1470344766480602,-4,-3,-13,-7,-5,-5,-1,-3
1470344766480602,14,32,110,33,13,11,2,9
1470344766482604,3,-26,-80,-34,-14,-14,-29,-5
1470344766482604,-14,-3,32,17,0,-1,-1,-6
1470344766495616,2,15,24,18,4,1,19,5
1470344766495616,10,2,12,-10,0,-4,-3,-13
1470344766496617,-3,-5,1,1,-3,-3,0,-1
1470344766496617,1,6,-4,-22,-6,-3,-5,-2
1470344766517637,-1,-12,-25,-4,3,-1,-9,-1
1470344766517637,2,-9,-3,40,1,4,4,2
1470344766519637,-7,-2,-20,-43,-6,-4,1,-2
1470344766519637,3,-2,4,13,0,1,4,-1
1470344766540662,-6,2,-30,-41,-5,-6,-7,-3
1470344766540662,-5,-9,-13,-11,-10,-5,13,2
1470344766542162,4,11,15,1,0,2,-9,0
1470344766542162,0,2,7,-11,-6,-6,1,-3
1470344766554615,-4,-6,13,67,2,-3,-13,-5
1470344766554615,-3,7,-8,-30,8,1,21,1
1470344766561623,-1,-1,4,-12,-4,-1,-71,2
1470344766561623,-2,-3,12,5,5,3,57,0
1470344766577642,9,0,4,10,1,4,-17,-4
1470344766577642,-3,-15,-14,-5,-4,-3,-6,-2
1470344766579613,3,11,33,40,4,6,23,5
1470344766579613,-6,-7,-11,-16,-3,-8,-20,-4
1470344766616692,-6,6,-28,-18,-7,-5,-4,-2
1470344766616692,2,6,15,8,0,-1,-17,0
1470344766618650,-2,-4,4,-1,-2,-6,19,0
1470344766618650,-1,-4,-19,13,3,1,-16,-5
1470344766619648,-2,-5,13,-18,-1,4,18,2
1470344766619648,0,4,6,18,-1,1,-8,2
1470344766622650,-4,-9,-40,-4,14,1,12,-1
1470344766622650,1,-5,15,-1,4,4,-7,1
1470344766638171,4,6,15,9,-6,4,11,3
1470344766638171,0,-5,-12,-11,-9,-12,-39,-5
1470344766639673,-18,10,25,4,1,-2,45,-3
1470344766639673,-1,-6,8,26,4,4,-35,-8
1470344766667844,10,6,-33,-36,-4,1,-17,12
1470344766667844,-13,3,21,9,-2,0,3,1
1470344766669791,4,1,-68,0,-4,-8,29,9
1470344766669791,-3,-15,22,-2,-1,2,-23,-7
1470344766673795,6,38,-7,-1,-2,-6,-6,33
1470344766673795,-20,-29,-10,-1,-1,-5,-17,-11
1470344766690826,19,18,32,10,-2,9,-6,9
1470344766690826,-11,26,-45,-23,-9,-12,43,4
1470344766697823,3,-34,4,1,8,9,-10,-8
1470344766697823,-1,-9,-9,-6,-2,-3,32,1
1470344766699818,-16,13,7,0,-6,-5,-62,-9
1470344766699818,32,-3,-4,5,10,9,9,8
1470344766727844,-7,-24,30,-3,-10,-12,10,-6
1470344766727844,-21,7,-1,-6,-3,1,-13,-7
1470344766729846,8,0,1,1,6,5,13,-3
1470344766729846,-1,-20,34,2,-13,-6,-11,-1
1470344766734850,-10,9,-6,14,1,1,-18,-14
1470344766734850,15,16,-8,-17,7,-1,19,1
1470344766743365,-1,-16,38,18,1,8,4,4
1470344766743365,5,-14,16,-1,-13,-20,-8,-1
1470344766757939,-34,11,-34,28,-1,11,13,-13
1470344766757939,22,12,-8,-57,4,0,0,5
1470344766759926,10,-15,45,42,0,-3,7,4
1470344766759926,1,-5,-48,-18,-4,-3,-13,-6
1470344766780928,-14,9,6,37,4,-2,3,-6
1470344766780928,8,-9,25,9,-6,-1,0,1
1470344766781929,-7,-8,-30,-9,-2,-5,-10,-11
1470344766781929,-34,-4,-34,-23,-9,-3,3,-7
1470344766793969,21,11,73,16,3,-1,1,6
1470344766793969,-27,-33,-79,-31,-9,-4,-3,-2
1470344766802951,15,3,31,-14,-3,-9,6,-1
1470344766802951,-47,7,-7,14,13,23,1,-1
1470344766817974,-19,4,-41,-46,-7,-10,1,-7
1470344766817974,92,28,41,48,11,10,3,15
1470344766820007,-13,-16,1,23,-16,-15,-13,-23
1470344766820007,25,-20,-90,-68,-5,1,16,6
1470344766840569,15,-16,20,28,7,3,-20,-2
1470344766840569,-3,68,-40,-17,-5,-5,-5,-6
1470344766842516,-1,19,-42,-15,11,12,17,22
1470344766842516,-18,7,103,40,0,-3,-9,-15
1470344766854818,10,-8,-56,-43,-11,-11,-6,-19
1470344766854818,-20,-85,14,13,-1,3,22,-16
1470344766862815,-11,26,110,22,6,2,-48,-14
1470344766862815,-31,-19,55,3,1,3,10,33
1470344766877827,15,16,19,1,9,7,24,-66
1470344766877827,-34,5,-30,-3,-7,-5,-13,-4
1470344766879824,-7,-13,-80,-27,-5,0,9,8
1470344766879824,32,19,34,11,7,2,4,-15
1470344766901857,2,-14,-23,0,-9,-6,-15,80
1470344766901857,-35,-1,27,21,1,1,8,-51
1470344766903845,48,6,-12,42,-5,-5,8,-18
1470344766903845,20,2,-73,-46,4,0,-17,86
1470344766913889,-39,-5,19,32,-6,-11,-5,-34
1470344766913889,0,9,-4,-32,2,8,0,18
1470344766922862,-20,-10,-20,17,-6,-10,6,-4
1470344766922862,14,9,11,3,-5,-13,-11,-34
1470344766937884,12,-11,-30,13,7,15,19,30
1470344766937884,-12,-22,-2,14,8,6,-5,68
1470344766939886,-10,0,10,5,-7,-15,-15,-27
1470344766939886,11,12,2,12,-6,-4,5,2
1470344766959869,0,-43,20,-21,13,13,6,7
1470344766959869,4,30,-39,-21,-25,-20,-14,-16
1470344766967876,2,8,-1,-2,5,5,13,22
1470344766967876,-6,-3,-19,-25,-21,-6,-6,-22
1470344766973883,-6,7,12,-5,8,-4,-4,-14
1470344766973883,8,-18,33,4,3,3,-3,6
1470344766982889,-1,-7,21,-23,0,1,2,1
1470344766982889,-9,4,3,21,-2,0,-1,-21
1470344766997904,5,-10,-2,-19,-6,-2,-1,2
1470344766997904,3,4,47,11,0,-4,0,0
1470344766999905,-13,-12,-61,-32,-4,-2,-2,-3
1470344766999905,3,-33,15,15,14,7,2,-6
1470344767020941,4,39,1,-7,-11,-4,0,4
1470344767020941,-3,4,1,24,2,-3,-4,-9
1470344767021924,-4,1,2,-26,8,8,4,0
1470344767021924,10,-17,-19,9,1,-1,-3,0
1470344767033963,-11,-6,3,-17,-1,-5,-2,-4
1470344767033963,4,4,5,13,2,-1,-3,-7
1470344767043478,-6,-3,8,-6,0,5,1,6
1470344767043478,1,6,3,-1,-5,-6,0,-2
1470344767058081,0,-4,-5,-10,-8,-8,-2,-4
1470344767058081,11,4,18,12,9,12,3,1
1470344767060025,-7,-3,5,-10,0,4,1,1
1470344767060025,-5,6,9,11,-1,-9,-3,-8
1470344767080059,-1,7,-2,-7,-4,-2,-1,-3
1470344767080059,-3,-4,-15,-1,0,-4,-2,1
1470344767082044,2,-7,8,-5,-2,-1,-1,-2
1470344767082044,-4,11,19,7,1,0,-1,-4
1470344767094063,1,-7,14,-5,2,1,-3,0
1470344767094063,-2,-15,-4,-8,-1,5,0,-1
1470344767103062,0,3,11,3,-2,1,-1,0
1470344767103062,-4,14,-1,5,3,3,-1,-4
1470344767118077,1,-17,-19,-8,-7,-10,-1,-1
1470344767118077,0,5,0,-1,-3,-1,-1,-4
1470344767119078,-5,-25,-23,-1,0,1,1,-2
1470344767119078,-1,2,-6,-8,-1,4,0,-3
1470344767142113,1,-6,-2,10,2,2,-5,-3
1470344767142113,-2,2,11,-10,0,-3,1,-2
1470344767143610,4,4,18,14,8,5,2,2
1470344767143610,-1,6,-3,-9,-7,-9,-2,0
1470344767154130,4,5,13,4,5,10,-1,1
1470344767154130,-2,-8,-57,-9,-19,-14,-1,-2
1470344767163138,-3,0,6,-14,1,-7,-5,-2
1470344767163138,-4,-13,-18,-1,5,1,-3,-5
1470344767178166,-1,-2,16,-9,-7,-3,0,-2
1470344767178166,1,6,-2,1,-2,-7,-3,-1
1470344767179152,-4,-17,8,1,-8,-6,-4,-4
1470344767179152,-4,12,3,8,-2,1,-1,-2
1470344767200183,-1,1,-7,-13,-2,-4,-1,0
1470344767200183,-3,-20,16,10,3,2,-3,-3
1470344767202173,1,3,-8,-11,-6,-5,0,-1
1470344767202173,-1,-3,10,1,2,5,-1,-1
1470344767214183,-1,1,0,8,1,-1,-4,-4
1470344767214183,-2,2,-9,-9,3,7,-1,0
1470344767223191,-1,-6,-8,-6,-5,-2,0,0
1470344767223191,1,2,1,6,-4,-6,-2,-1
1470344767237203,-1,1,-13,-4,1,6,-3,-2
1470344767237203,-1,0,-3,-10,3,3,7,-1
1470344767244213,1,5,15,15,0,1,-10,-1
1470344767244213,-1,-5,-11,-10,4,-2,0,2
1470344767260232,-1,2,-2,9,-6,-6,1,-1
1470344767260232,-3,-1,10,3,-1,-1,-3,0
1470344767262234,2,4,-1,4,-2,1,6,3
1470344767262234,0,2,-1,-12,-4,-2,-2,-5
1470344767283252,-3,-3,-7,-8,-9,0,0,1
1470344767283252,-2,-1,8,13,11,4,-2,-2
1470344767284254,-3,-1,-17,-26,-7,-4,-1,-1
1470344767284254,0,1,6,8,0,-3,-4,0
1470344767297265,0,0,5,-2,-13,-4,0,-1
1470344767297265,0,-1,-8,4,6,-6,-3,-1
1470344767304272,-2,5,7,13,4,3,1,0
1470344767304272,-2,-6,-6,-11,-2,5,4,-1
1470344767320286,1,0,6,1,6,-5,-1,1
1470344767320286,-3,0,-3,-17,-12,-1,-2,-2
1470344767322288,-1,-7,-5,8,2,-9,-3,-1
1470344767322288,0,2,-9,-2,-2,1,0,2
1470344767343316,-3,-2,11,16,1,0,1,1
1470344767343316,-1,1,1,-17,-3,-6,-3,-3
1470344767344818,-1,6,-22,-19,-4,2,0,0
1470344767344818,-5,-13,15,27,-5,-1,-3,-3
1470344767357014,3,-4,20,-7,-1,-2,-2,0
1470344767357014,0,8,-25,15,-6,-4,1,-1
1470344767364021,2,7,21,-20,0,3,-2,-2
1470344767364021,1,1,-2,-4,4,3,1,1
1470344767380037,0,1,12,5,-4,-4,-3,-2
1470344767380037,-1,-5,-4,-5,-1,1,-1,1
1470344767382036,-5,-6,-7,2,2,1,0,-2
1470344767382036,0,-3,7,-2,0,-5,-2,-1
1470344767403054,-8,18,-3,1,2,-1,1,-3
1470344767403054,-10,-7,7,-5,-2,1,-4,-3
1470344767405058,5,-8,-16,6,-3,-2,-1,1
1470344767405058,4,9,6,-3,-3,-1,1,-1
1470344767417069,-6,-11,-19,-6,-1,0,-1,-4
1470344767417069,6,0,3,4,0,-1,0,0
1470344767424076,-1,-10,-23,-6,1,-2,2,-1
1470344767424076,-1,6,32,15,0,-1,-1,1
1470344767440593,14,2,44,-7,0,2,2,3
1470344767440593,-11,11,-3,4,-2,-3,-2,-3
1470344767442095,2,6,40,10,2,-1,0,2
1470344767442095,-2,-12,-60,-22,0,1,-1,-4
1470344767463160,2,5,44,2,0,-1,1,0
1470344767463160,3,-5,5,7,1,0,0,1
1470344767464161,2,-6,30,11,-4,-1,-2,0
1470344767464161,-3,30,0,1,3,-2,-2,0
1470344767477173,-7,-27,-42,2,1,1,-2,-4
1470344767477173,4,-2,-13,-16,11,6,1,-1
1470344767484178,3,-3,-8,9,-5,-1,-1,-4
1470344767484178,-5,-12,-1,0,-5,-2,0,1
1470344767500194,-1,3,-27,-4,-3,-3,-4,-2
1470344767500194,3,3,14,4,-5,-3,-2,-2
1470344767502196,-3,1,-12,-7,-2,-2,-1,-1
1470344767502196,0,-5,-7,-13,-3,-2,-2,-4
1470344767523215,-3,2,1,8,2,-1,0,1
1470344767523215,2,-1,-9,-6,-1,-2,1,0
1470344767524214,-6,3,-1,-1,1,-2,-4,-2
1470344767524214,0,-4,-2,6,-2,-1,-1,0
1470344767536227,-4,-3,-30,-7,-2,1,-2,0
1470344767536227,2,2,2,-6,0,3,2,1
1470344767545740,-5,-4,-11,22,-4,-3,-1,-2
1470344767545740,2,15,7,-11,-1,-3,-1,-1
1470344767560529,-3,2,0,11,-1,-3,2,1
1470344767560529,-3,-21,9,-9,-1,-1,-1,-3
1470344767562531,1,13,-10,-2,-1,1,0,1
1470344767562531,4,-13,-7,-2,-3,-1,-2,-3
1470344767582578,-1,-3,-10,-11,-3,-2,0,1
1470344767582578,-8,-5,1,1,-4,-3,-4,1
1470344767584551,-3,1,6,-6,1,-1,-1,1
1470344767584551,5,-4,-12,0,-2,-3,1,-15
1470344767596577,-5,-4,0,-7,0,0,-1,19
1470344767596577,-2,-3,-3,5,-1,-2,-7,-22
1470344767605569,2,-3,-4,-6,0,-2,-1,3
1470344767605569,-17,-1,-7,-11,-1,1,-2,-11
1470344767620612,-3,-16,-6,5,-1,-2,1,-5
1470344767620612,1,7,9,6,-5,-1,1,11
1470344767621583,3,6,-10,-9,1,-1,-1,6
1470344767621583,5,-9,14,8,2,1,2,3
1470344767643143,10,-3,-16,-10,2,0,-1,-1
1470344767643143,-8,-4,-1,-2,-1,-1,-1,3
1470344767644662,-3,-4,7,-5,-1,0,-1,-8
1470344767644662,1,5,-17,6,1,0,0,7
1470344767657706,-10,1,0,-5,-1,-1,-3,-6
1470344767657706,14,0,1,4,-1,-2,0,0
1470344767663735,-16,-10,-4,-6,-3,-1,0,-5
1470344767663735,14,4,-7,-4,2,-1,0,4
1470344767680718,-25,-9,10,-4,-1,-2,-2,-5
1470344767680718,2,10,0,11,-4,-2,-1,-5
1470344767681723,2,-6,8,8,0,2,0,1
1470344767681723,-6,-4,0,2,-3,-4,-3,5
1470344767702740,7,-4,-7,-18,-5,-2,-2,-7
1470344767702740,-11,6,9,15,11,3,0,1
1470344767704740,6,0,6,-5,2,0,-1,-2
1470344767704740,-6,-7,-2,-6,1,1,0,1
1470344767716786,18,11,1,6,-1,-1,-1,1
1470344767716786,-7,-14,-13,-8,-9,-7,-4,-3
1470344767723758,3,-14,-2,4,0,-1,-1,-2
1470344767723758,-7,18,15,7,-5,-3,-3,-3
1470344767740866,-1,6,2,-4,1,-1,0,0
1470344767740866,4,1,-7,-7,0,2,0,2
1470344767742337,-9,-6,-8,13,0,-2,-5,-3
1470344767742337,11,7,8,-25,-4,-2,2,2
1470344767763861,-11,-11,-7,-2,-2,0,1,-6
1470344767763861,1,-1,18,10,-2,-3,-1,-1
1470344767764860,10,7,9,-3,-1,0,0,1
1470344767764860,-8,-6,0,0,-2,-3,-4,-1
1470344767776873,4,16,-6,3,0,-1,-7,-2
1470344767776873,-4,-21,-9,-12,-1,-1,10,0
1470344767783878,-7,17,-21,-8,-6,-3,-5,-4
1470344767783878,13,0,3,14,1,2,4,2
1470344767800894,-23,-36,17,12,-2,-2,-5,-4
1470344767800894,-4,4,-27,-12,-3,-2,-10,-2
1470344767802895,-1,-15,-5,5,-2,-4,6,-4
1470344767802895,-5,-10,4,-15,-5,-1,-6,-2
1470344767822914,10,18,-10,7,5,0,4,0
1470344767822914,-9,-35,-15,-7,-5,-1,8,0
1470344767823915,-2,27,-13,-5,0,-2,-10,-1
1470344767823915,-5,-11,-5,2,2,-2,-10,0
1470344767836924,9,16,27,3,-3,2,7,3
1470344767836924,3,3,-3,-1,2,-2,-9,0
1470344767845940,-8,-7,1,-17,1,5,16,0
1470344767845940,-6,-3,1,28,-4,-2,1,-1
1470344767860588,4,3,-6,-19,0,-1,-12,0
1470344767860588,1,1,6,6,-3,-2,8,-2
1470344767861591,-2,6,6,4,-1,1,-4,2
1470344767861591,4,1,-12,-9,-1,-1,-3,-1
1470344767882607,3,-7,-19,-8,-1,0,3,1
1470344767882607,13,18,9,9,0,1,-5,-1
1470344767884609,-19,-27,8,12,1,-2,-6,-3
1470344767884609,-2,-3,-4,-9,-1,-2,3,-1
1470344767896621,-5,11,6,5,-2,-3,-1,0
1470344767896621,-8,-19,-15,-17,0,-3,-2,0
1470344767905629,13,6,2,-13,-3,-4,0,0
1470344767905629,-12,-26,-11,8,4,4,0,-2
1470344767920644,2,8,19,2,-3,-1,-2,-1
1470344767920644,4,12,7,0,-4,-2,-2,0
1470344767921644,-1,-14,-21,-5,-7,0,0,1
1470344767921644,-1,2,21,-3,-2,-2,-2,-1
1470344767943169,3,1,-19,-4,4,0,-1,-1
1470344767943169,7,-2,-1,-12,-11,0,-2,-1
1470344767944670,7,7,2,8,0,-3,-2,-2
1470344767944670,-1,11,1,-13,-1,-1,0,-1
1470344767965193,12,-13,-10,7,-2,-1,-1,-2
1470344767965193,-14,-1,5,-14,-3,-4,-2,1
1470344767967194,21,4,-3,-4,-2,1,-5,-3
1470344767967194,-48,-20,-9,4,2,-4,-6,-10
1470344767980205,7,4,7,-17,-2,1,0,0
1470344767980205,6,-2,7,11,3,-1,1,3
1470344767982209,1,14,18,9,1,-1,0,2
1470344767982209,7,-4,-71,-7,-14,-4,-1,-1
1470344768003231,3,-2,3,-20,1,1,-1,-1
1470344768003231,-10,-5,-14,19,-2,-1,-1,-3
1470344768004227,-3,-1,0,-23,7,2,0,1
1470344768004227,8,9,24,-2,3,4,3,2
1470344768016239,-7,-13,-31,-1,-6,-7,-2,-1
1470344768016239,-2,11,57,15,3,1,-4,-3
1470344768026249,-6,-6,-10,14,8,3,-1,0
1470344768026249,4,5,52,6,-4,-2,-1,-1
1470344768040765,-6,-5,-3,12,2,0,-1,-2
1470344768040765,4,4,10,-11,5,1,-1,-1
1470344768042769,-7,-10,-20,2,-3,-1,-2,-2
1470344768042769,5,5,12,3,3,0,0,1
1470344768063291,-6,-5,-17,-7,-6,0,-1,-2
1470344768063291,0,4,-15,4,2,0,-1,-3
1470344768064291,-3,-7,7,-5,-6,-3,-3,-3
1470344768064291,7,7,14,-2,6,2,1,1
1470344768076302,-4,0,22,10,-3,0,0,1
1470344768076302,-2,-3,-49,-3,-4,-2,-1,-3
1470344768085310,-3,1,4,-27,-5,-2,-3,-3
1470344768085310,2,-4,-4,3,1,1,1,2
1470344768100324,0,11,21,12,2,0,1,-3
1470344768100324,-2,-15,-34,-13,-2,-1,0,-1
1470344768102326,-1,-2,-15,10,1,-2,-2,-2
1470344768102326,-2,-4,-13,-8,-5,-4,-5,-3
1470344768123343,-2,-16,10,0,1,0,0,-1
1470344768123343,-1,9,-1,-8,-4,-1,0,-1
1470344768124346,-1,5,18,3,-5,-2,2,2
1470344768124346,0,-9,-17,13,13,3,0,0
1470344768136356,-5,-4,-20,-11,-5,-4,-7,-1
1470344768136356,0,1,17,-5,3,-2,5,2
1470344768145885,-1,-3,-3,3,-4,0,0,0
1470344768145885,-1,8,3,1,-2,-2,-3,-1
1470344768161151,-2,-6,2,6,-2,-1,1,0
1470344768161151,-4,-1,6,3,1,1,-5,-2
1470344768162153,-5,3,4,-2,-1,-3,0,1
1470344768162153,10,1,-10,-2,-4,-3,1,-1
1470344768183171,1,4,3,2,0,0,-1,0
1470344768183171,7,3,1,-3,0,-2,-3,-1
1470344768184174,-3,-19,-10,-5,-3,-2,-2,-1
1470344768184174,-6,8,6,8,-3,-2,-8,0
1470344768196185,-3,1,4,2,0,0,5,2
1470344768196185,5,2,-1,-9,0,2,-2,0
1470344768205193,1,-6,10,16,15,5,0,-1
1470344768205193,-5,-13,-9,-23,-8,-1,-2,-1
1470344768228213,2,18,0,0,-4,-1,-2,-2
1470344768228213,-15,-1,6,8,0,-1,-1,0
1470344768229215,3,-44,-14,-14,-8,-4,-2,-1
1470344768229215,-1,25,-43,-6,-2,-4,1,-3
1470344768243232,-4,-4,6,3,0,-2,-10,-2
1470344768243232,-1,2,12,3,0,1,-1,-10
1470344768244733,2,16,4,-2,-2,-1,-1,8
1470344768244733,-4,-3,-6,1,2,5,1,-2
1470344768265757,1,-22,-6,-9,-4,-4,-4,0
1470344768265757,-1,6,0,4,-2,-1,5,-1
1470344768266758,-6,-1,-13,-3,-5,0,1,-5
1470344768266758,4,-3,-11,-7,7,4,-1,-2
1470344768281771,-9,9,30,25,2,-1,-1,-3
1470344768281771,3,-7,0,-11,-2,-2,-9,1
1470344768282770,-1,12,3,0,-4,-1,2,-2
1470344768282770,5,-5,5,-6,-5,-3,1,2
1470344768302789,-2,-2,-12,-6,2,-1,-9,-5
1470344768302789,-4,-7,-1,-6,-2,-1,3,2
1470344768304791,1,7,15,21,-1,-2,3,-1
1470344768304791,-4,-11,-11,-12,-5,-4,4,-1
1470344768325811,-2,-2,-6,-8,2,1,2,-1
1470344768325811,0,-2,0,-2,-6,-3,-3,-2
1470344768326811,1,7,-17,-12,1,1,-1,-2
1470344768326811,-1,-2,29,21,1,-1,-2,3
1470344768340826,-2,1,2,4,-2,-1,2,-1
1470344768340826,3,-5,-15,-6,0,0,3,4
1470344768345332,0,3,-6,-9,-3,-1,-5,-8
1470344768345332,-3,-2,17,-1,0,-1,-2,-1
1470344768362852,-2,-34,-30,-14,-2,0,2,0
1470344768362852,1,17,5,3,-3,-2,-3,0
1470344768364853,-5,-12,-1,-3,-1,0,-2,-1
1470344768364853,0,5,2,-6,-5,-2,3,-4
1470344768385871,0,-12,11,13,1,0,-1,1
1470344768385871,0,10,13,-2,1,-1,-3,-1
1470344768386872,1,-3,-23,-4,-6,-2,-2,1
1470344768386872,-3,-2,2,13,11,5,0,-1
1470344768399884,-3,7,-3,-19,-2,-1,0,-1
1470344768399884,6,-15,-40,-13,-2,-1,2,-1
1470344768406891,-7,3,14,2,-2,-2,-1,1
1470344768406891,-7,-3,3,3,-4,-4,-5,0
1470344768422907,6,15,7,7,-1,-2,-1,0
1470344768422907,-10,-6,1,5,1,2,0,-3
1470344768424908,2,0,2,-9,-2,-1,2,0
1470344768424908,0,-7,-5,-1,-3,-2,-8,-2
1470344768445432,-2,9,1,0,-2,-1,-5,-2
1470344768445432,1,-4,-6,-6,-3,0,2,-3
1470344768447434,-1,3,10,-2,-2,0,-3,-6
1470344768447434,-2,3,13,13,-1,-3,-1,2
1470344768459955,-5,6,-17,-16,-3,-2,8,-5
1470344768459955,2,-7,14,20,3,0,-7,2
1470344768466959,-3,3,-11,0,3,1,5,0
1470344768466959,0,-5,-1,-21,-4,0,-1,-1
1470344768482974,4,6,7,1,-1,-1,-8,1
1470344768482974,-6,-7,-31,1,-6,-4,-3,-4
1470344768484975,2,6,18,-5,3,1,-4,-1
1470344768484975,-3,-5,-18,24,-3,-2,2,0
1470344768504993,1,-9,-21,-27,3,1,3,0
1470344768504993,0,5,34,10,5,-1,1,0
1470344768506994,4,-4,-8,13,1,-3,-5,-1
1470344768506994,-7,-2,-15,-9,0,0,1,-2
1470344768520007,-1,-5,9,1,-3,0,2,-2
1470344768520007,-2,-2,13,18,-4,-3,-3,2
1470344768527012,-1,4,15,-11,-4,-2,-1,-1
1470344768527012,3,7,11,-6,-1,-1,-1,2
1470344768543035,-3,5,0,10,0,-1,1,0
1470344768543035,2,2,2,-9,-2,1,0,0
1470344768544534,-2,-7,-4,6,-2,0,-2,-1
1470344768544534,5,2,-8,-12,-1,0,0,-1
1470344768564898,-3,1,7,6,-1,-1,-2,-3
1470344768564898,0,0,1,2,1,-1,-1,0
1470344768566900,-2,1,-10,-5,-1,0,0,1
1470344768566900,-3,-4,6,-3,-2,-1,-2,-1
1470344768579912,-2,3,-6,-4,-2,-1,0,0
1470344768579912,-1,-4,6,2,2,-1,-4,-2
1470344768586919,-1,-4,-3,-2,-2,-3,2,0
1470344768586919,0,-4,1,1,-1,1,2,1
1470344768602947,1,-2,-5,12,-3,0,2,3
1470344768602947,-7,-1,0,-23,-3,-1,-2,-4
1470344768604933,0,-3,-9,-5,-3,-2,-6,0
1470344768604933,0,2,16,8,-2,-2,-1,-2
1470344768625956,0,0,-14,-8,-6,0,1,2
1470344768625956,-3,-4,-6,10,7,1,0,-1
1470344768631958,-1,-2,2,-8,-5,-2,-1,-1
1470344768631958,1,3,-16,-15,-1,-2,-1,-1
1470344768639975,-2,0,30,12,-3,0,-2,-4
1470344768639975,0,0,-20,4,-1,1,1,-1
1470344768646979,-2,7,10,-3,1,-2,-1,-2
1470344768646979,0,-8,0,0,-3,0,1,-1
1470344768662998,-1,-4,-26,1,-3,-2,-2,1
1470344768662998,0,4,2,-6,1,-2,0,-1
1470344768665001,-2,-2,3,7,-2,-3,-2,-1
1470344768665001,-1,-4,-6,-6,-4,-2,-2,-1
1470344768686020,-1,-3,-7,-4,12,2,-2,0
1470344768686020,-1,-7,9,-3,-6,-2,0,0
1470344768687021,-1,4,-15,2,-1,1,0,1
1470344768687021,-1,-10,3,-5,-4,-2,-3,-1
1470344768700033,-1,3,12,5,-1,-2,-2,-3
1470344768700033,-1,-1,-11,-1,-3,-1,0,-1
1470344768707038,-2,-5,4,9,2,2,-1,-3
1470344768707038,0,1,-5,-8,-2,-2,-3,-2
1470344768723053,-3,-3,-1,1,0,-1,-8,-1
1470344768723053,-1,-1,1,-8,-3,-1,4,-1
1470344768725056,1,-1,5,5,-1,0,1,0
1470344768725056,-3,2,-5,5,2,-2,0,0
1470344768745577,-1,-4,7,-1,-2,-2,-2,-1
1470344768745577,-1,-2,-23,-15,0,-1,-3,0
1470344768747078,-1,-2,25,0,-1,-3,-2,-3
1470344768747078,0,5,17,37,3,-1,-1,-1
1470344768758855,-1,-2,-10,-36,-4,-2,0,-1
1470344768758855,-1,2,0,25,-1,-2,-1,0
1470344768767862,2,-1,-14,-13,1,-1,1,0
1470344768767862,-2,-1,4,-9,-1,-2,-2,-1
1470344768782876,0,0,-2,14,1,0,1,-2
1470344768782876,2,-2,-6,-6,-2,0,-3,-1
1470344768784878,-4,-2,-2,-9,-3,-2,0,-3
1470344768784878,-2,-6,7,4,-2,-4,-1,-1
1470344768805896,-3,0,-5,2,-1,1,0,-2
1470344768805896,1,-5,1,-19,-5,-1,-1,-1
1470344768806897,-2,-1,-6,14,1,-1,-2,-2
1470344768806897,-1,6,6,-10,-2,1,-1,0
1470344768818908,1,0,-21,-2,3,0,0,2
1470344768818908,-1,-8,12,-3,0,1,-2,0
1470344768827916,-2,-10,-6,7,-2,-3,-2,-3
1470344768827916,-4,-3,-13,-11,-1,-1,-1,-1
1470344768843440,-2,-9,17,-3,-4,-4,-2,-3
1470344768843440,-3,0,-5,4,-2,-1,-1,-2
1470344768844941,0,-9,-7,-9,-1,-1,0,2
1470344768844941,0,-4,-6,-1,-1,-2,-1,-2
1470344768865489,-7,0,-2,-2,-2,-3,0,-2
1470344768865489,0,-3,0,-2,0,-1,-1,-3
1470344768871495,-1,1,12,2,-1,0,-1,1
1470344768871495,-1,-5,-7,-2,-1,-1,0,0
1470344768879502,1,3,2,2,-1,0,2,1
1470344768879502,-1,1,0,3,1,-3,0,-2
1470344768888509,-1,4,-4,-3,0,0,-2,-4
1470344768888509,0,0,-2,0,0,0,-1,-2
1470344768902522,3,-1,1,4,-2,-3,-1,-1
1470344768902522,-5,-3,-4,-6,0,-3,-1,-3
1470344768904524,2,3,6,4,0,-1,-2,0
1470344768904524,-1,5,0,-3,-2,-1,-1,-3
1470344768925542,-1,-7,-2,0,4,0,0,0
1470344768925542,0,-3,-5,-2,-3,-2,-1,-3
1470344768926545,5,-14,-6,-3,-1,0,-1,2
1470344768926545,0,32,11,2,-1,-1,-1,-3
1470344768939555,-3,-11,-7,-2,-3,-1,-2,-3
1470344768939555,1,6,-2,2,-2,2,0,-2
1470344768948071,-2,-5,-3,-5,0,0,0,2
1470344768948071,-1,-2,0,1,-1,-2,-1,0
1470344768962615,2,-4,-9,-8,-4,-2,-2,-4
1470344768962615,-7,-13,4,3,0,-2,-4,0
1470344768964617,0,11,2,6,-1,0,0,-3
1470344768964617,5,-5,-7,-5,-1,1,-1,1
1470344768985636,1,-2,19,-4,0,0,0,2
1470344768985636,3,2,13,14,3,0,0,2
1470344768986636,-2,-3,-25,1,-3,-3,-1,-3
1470344768986636,-3,-8,15,-18,-3,-2,-3,-4
1470344768998647,-1,-1,-10,9,2,2,-1,-1
1470344768998647,-6,-4,4,-13,-5,-5,-3,0
1470344769007656,-3,0,-8,-42,-3,-3,-6,-4
1470344769007656,2,3,-1,30,2,9,18,5
1470344769022669,-2,-7,-23,-34,-3,-3,-8,-1
1470344769022669,1,13,21,10,2,2,6,0
1470344769024670,3,8,7,3,-1,-1,-1,1
1470344769024670,-5,-13,0,-2,-2,-4,-13,-5
1470344769045695,-2,23,10,9,0,-2,1,3
1470344769045695,3,-2,-5,7,-1,-2,-7,-1
1470344769047197,-5,-5,-12,-5,-1,1,4,-2
1470344769047197,-2,-4,1,1,1,-3,0,-1
1470344769059215,2,3,33,23,0,2,1,0
1470344769059215,-4,-2,-58,-35,-5,-5,-5,-3
1470344769068222,-3,-2,20,18,2,0,-1,0
1470344769068222,-2,-4,-12,-11,-4,-1,-2,-1
1470344769083236,-3,7,32,17,-2,-4,-3,-4
1470344769083236,1,-3,-3,-1,-6,-1,3,1
1470344769084235,1,-8,-2,-2,10,1,0,-1
1470344769084235,-1,-6,-10,0,-4,0,-2,0
1470344769105253,0,-4,-8,3,0,0,-1,-2
1470344769105253,2,14,4,-1,-2,0,-1,-1
1470344769107255,-4,-15,-13,-16,-4,-1,-1,-2
1470344769107255,0,3,-9,-2,-2,-1,-3,-1
1470344769119299,-2,4,-1,9,5,-1,2,1
1470344769119299,-3,-16,7,-2,5,3,1,-1
1470344769128274,-4,-1,5,9,-5,-4,-6,-3
1470344769128274,0,1,-3,5,-1,-3,-1,0
1470344769143311,0,-6,-19,-9,-5,-2,-3,0
1470344769143311,0,-3,-2,-5,0,0,0,-2
1470344769144812,1,2,7,2,-2,-2,0,0
1470344769144812,0,-8,-2,-12,0,0,-1,-2
1470344769165365,-3,-2,10,13,-1,-1,1,-2
1470344769165365,-1,-5,-14,-19,-2,-2,-1,1
1470344769167367,-1,3,4,19,-5,-1,-2,-1
1470344769167367,-2,3,6,0,1,-3,-2,-1
1470344769188373,1,-7,-24,-25,-2,2,-1,1
1470344769188373,-1,0,9,9,0,-1,1,-1
1470344769189375,0,0,-14,-17,-3,-3,-1,0
1470344769189375,-2,0,9,-13,-4,-4,-3,-2
1470344769202402,-3,-8,3,-2,3,1,1,-4
1470344769202402,-1,3,-6,-6,-1,0,-1,0
1470344769209397,-1,-1,-2,5,4,3,0,0
1470344769209397,-6,-7,-6,-2,-1,0,-1,0
1470344769225409,-2,-2,9,1,-6,-5,-3,-1
1470344769225409,0,-2,1,14,7,2,0,0
1470344769227409,-2,-4,8,2,1,-2,-3,-1
1470344769227409,0,-3,-13,-5,1,-1,0,0
1470344769248440,0,7,-10,-16,-1,-1,-1,-1
1470344769248440,0,-1,15,22,2,0,-1,0
1470344769249940,-3,6,-20,-22,-8,-3,-3,-4
1470344769249940,1,-4,14,1,2,0,0,0
1470344769263435,-1,-6,-8,1,-3,-2,1,0
1470344769263435,-1,3,6,6,-3,-3,-3,-2
1470344769264432,1,2,16,1,0,0,0,0
1470344769264432,0,-2,-7,5,-2,-1,0,0
1470344769285453,-1,-11,-1,-1,2,0,-1,0
1470344769285453,-2,-2,8,4,-1,-2,-1,-1
1470344769287453,0,3,-25,-7,-2,-3,-3,-1
1470344769287453,0,6,14,9,1,-1,-3,-2
1470344769307498,-3,-3,-5,2,-2,-3,-3,-2
1470344769307498,-1,-5,-4,-12,-4,0,0,-1
1470344769309474,1,5,4,5,0,-1,0,2
1470344769309474,0,-3,5,5,-1,-1,0,0
1470344769323485,2,3,-29,-35,-4,-1,-2,-1
1470344769323485,-2,-4,36,46,10,2,0,-3
1470344769324487,-1,0,19,-2,-4,0,0,0
1470344769324487,-2,-9,-17,-8,3,1,-1,-2
1470344769346009,0,0,2,5,-3,0,0,-1
1470344769346009,0,-1,-12,-16,-5,0,1,-1
1470344769347010,1,-3,3,6,1,-1,0,-2
1470344769347010,-1,3,3,1,-1,-3,0,-1
1470344769367535,1,-5,-8,-1,-2,-1,-2,-1
1470344769367535,-1,5,-2,-10,-5,-2,-2,1
1470344769369537,-3,-17,-7,2,0,1,1,0
1470344769369537,0,12,-5,-6,-4,-3,-1,-3
1470344769382549,0,3,14,1,1,0,0,-1
1470344769382549,0,-6,-5,-4,-2,-2,1,1
1470344769389553,-3,-7,-7,0,-4,-3,-4,-1
1470344769389553,0,-3,-1,-4,0,1,-2,0
1470344769405572,0,-1,3,17,0,-2,-1,1
1470344769405572,0,-4,-3,-2,-3,-2,-2,-1
1470344769406568,1,3,-8,0,2,0,2,-1
1470344769406568,-2,-5,-1,1,1,-1,0,-3
1470344769427591,-1,3,-4,2,-1,-1,-1,-1
1470344769427591,-1,-3,-9,-19,-3,-2,-1,-1
1470344769429591,-2,3,4,13,4,-1,0,-1
1470344769429591,-1,-2,-2,6,-2,-1,1,0
1470344769450614,0,-7,3,-5,-4,-1,-2,-1
1470344769450614,0,7,-4,1,1,0,-2,-1
1470344769452117,0,0,-2,-7,-4,-2,-1,0
1470344769452117,1,-6,3,-14,3,0,0,0
1470344769465632,-6,-3,-34,13,-2,-5,-2,-3
1470344769465632,-1,1,13,-5,-8,-2,-2,0
1470344769466632,-1,8,3,17,0,0,-1,-2
1470344769466632,0,-2,-6,-8,-4,-1,1,1
1470344769487652,2,10,14,-5,1,0,1,0
1470344769487652,-2,-11,-8,-6,0,0,-1,-1
1470344769489653,-1,3,-1,-4,0,0,-2,1
1470344769489653,-3,-2,4,2,-3,-2,-3,-2
1470344769502670,0,-2,-1,-2,0,1,-2,-1
1470344769502670,-2,9,0,1,0,-1,-2,-1
1470344769508670,1,-2,2,-9,-2,2,0,-2
1470344769508670,-1,-6,-7,7,2,-1,-2,-2
1470344769528688,0,1,5,-8,-2,-1,0,-2
1470344769528688,-3,-7,-8,-6,-1,-1,0,-1
1470344769528688,-2,-2,9,-3,-1,-1,-1,0
1470344769528688,-1,4,-16,-6,-1,-2,-1,0
1470344769555722,-1,-15,-1,7,0,0,-1,0
1470344769555722,-1,1,11,-3,-2,-3,-2,-2
1470344769556728,-2,-2,1,7,0,-2,-1,-1
1470344769556728,0,-1,-14,-19,-5,-3,-2,-1
1470344769562733,0,3,-8,-13,0,-1,-1,1
1470344769562733,-1,-1,-5,13,-3,-3,-2,-1
1470344769568739,0,-14,10,-8,-3,-2,-1,-3
1470344769568739,2,16,10,0,7,0,0,1
1470344769585755,-3,0,-1,-6,-1,0,-1,0
1470344769585755,-1,-8,-5,-4,0,-1,-2,0
1470344769586755,0,2,-5,-2,-1,-1,-2,-2
1470344769586755,-1,-8,-2,16,2,-1,-2,-2
1470344769607773,0,-3,-14,-6,-2,0,-1,0
1470344769607773,-4,0,33,7,-2,-3,-2,-2
1470344769609777,0,-5,-10,-8,-5,-3,-2,-3
1470344769609777,-1,2,4,8,-4,-1,-1,0
1470344769621787,-1,2,-3,-2,2,0,0,0
1470344769621787,-1,0,-4,-3,-1,0,0,-1
1470344769630794,1,-17,-10,0,0,-1,0,0
1470344769630794,-3,10,25,4,-3,0,-1,-4
1470344769645811,-6,-15,-21,0,-4,-3,-1,-2
1470344769645811,-1,-4,-1,-10,-2,-1,0,0
1470344769647313,-1,0,3,-1,1,1,-1,1
1470344769647313,-3,-14,-10,0,-3,-2,-1,-2
1470344769667836,0,5,24,9,1,0,0,0
1470344769667836,-1,0,-16,-4,1,-1,-1,-2
1470344769669839,-2,-1,-4,-2,1,-1,-2,-2
1470344769669839,-2,-5,6,1,-3,-2,-1,-2
1470344769682848,-2,-2,-27,-4,-2,-2,-2,-3
1470344769682848,-1,-3,-15,-16,-2,-2,-1,0
1470344769688853,-2,7,9,4,1,1,0,2
1470344769688853,-2,-3,-9,-11,-3,-2,-2,-1
1470344769705869,-2,3,8,3,-1,-2,-1,-1
1470344769705869,2,0,-9,0,2,1,1,0
1470344769706872,-2,-1,-2,-1,-7,-4,-3,-1
1470344769706872,1,-4,-5,5,0,0,-1,-1
1470344769727890,-1,1,6,-8,-1,-1,0,-1
1470344769727890,-1,-3,-6,12,-1,-1,1,1
1470344769729891,-1,2,-7,-19,2,0,0,-1
1470344769729891,0,-1,10,18,0,0,0,0
1470344769741914,1,5,19,12,-2,-2,-3,-1
1470344769741914,-3,1,9,4,2,-1,-1,-1
1470344769751924,1,3,-14,12,-1,0,-1,-1
1470344769751924,-3,-5,-7,-6,-2,-2,-1,-3
1470344769765493,0,-2,6,1,1,-1,0,-1
1470344769765493,2,5,4,-3,-3,-2,-3,-1
1470344769767494,-3,-8,-4,-1,2,-1,1,-2
1470344769767494,0,9,9,-13,-5,0,-1,0
1470344769787511,-1,1,2,2,4,1,0,0
1470344769787511,-2,-3,-3,3,3,-1,0,0
1470344769791516,-2,2,6,-2,-1,-2,-2,-1
1470344769791516,1,-3,-10,-4,-2,0,-2,1
1470344769801525,-3,-2,-3,-5,-5,-1,-2,0
1470344769801525,1,-3,-3,-1,-1,-1,0,0
1470344769810532,0,2,2,1,1,0,-1,-1
1470344769810532,-3,-4,-4,2,0,0,0,0
1470344769825546,0,-4,-3,-5,-3,0,-1,-1
1470344769825546,-2,2,2,4,0,0,-1,-1
1470344769826550,-1,-4,1,-1,-5,-1,-1,0
1470344769826550,-1,2,-25,-2,0,0,1,-2
1470344769848069,-2,-7,13,-18,-3,0,-1,-2
1470344769848069,-2,-2,-15,-4,-1,-1,-1,-2
1470344769849571,1,-1,-15,-7,0,0,1,0
1470344769849571,-2,-4,29,18,-1,-3,-1,-3
1470344769861086,0,1,-3,1,2,2,1,1
1470344769861086,-3,-14,-4,-7,0,0,-2,-3
1470344769870094,-1,18,-1,4,-4,-3,-2,0
1470344769870094,0,-4,-3,-4,0,1,-1,-2
1470344769885107,0,-1,-10,0,-2,-2,-1,-1
1470344769885107,0,7,5,-4,0,-1,-2,0
1470344769887110,-1,-20,7,11,-1,2,-1,0
1470344769887110,1,11,-12,3,-2,1,0,-1
1470344769908132,-2,-7,-19,-28,-5,-2,-1,-1
1470344769908132,-2,-4,3,8,-3,0,-1,-2
1470344769909129,-1,1,8,5,1,-1,0,-2
1470344769909129,-2,-5,-2,-3,-1,-1,-1,1
1470344769921139,1,2,3,5,0,0,0,-2
1470344769921139,-2,0,-11,-4,-2,-2,-2,0
1470344769938155,-2,-2,3,-2,-1,0,1,-1
1470344769938155,-1,-3,-3,-2,-2,-1,0,-2
1470344769945665,0,2,3,5,-1,-2,0,0
1470344769945665,-2,-2,5,-4,1,-3,-2,0
1470344769947166,-2,2,0,3,0,1,0,-1
1470344769947166,-3,-5,8,6,3,-1,-3,-2
1470344769968187,0,0,1,2,-3,-1,-2,0
1470344769968187,2,-3,3,-1,-4,-1,-1,1
1470344769969188,-1,-1,-8,-4,-1,-2,-3,-1
1470344769969188,1,-5,-9,-10,-1,-2,0,0
1470344769981198,-1,2,2,6,-1,0,-2,-2
1470344769981198,-1,-9,2,3,1,0,-2,-2
1470344769990208,0,-1,-4,-12,-2,-2,-2,0
1470344769990208,-4,-16,-7,15,-4,-2,-3,-1
1470344770005222,0,7,-26,-25,-1,1,0,0
1470344770005222,-5,-7,26,-5,-6,-3,-1,-3
1470344770007223,0,0,2,5,0,-3,-1,-1
1470344770007223,-2,-2,-4,-5,-1,0,-1,0
1470344770028244,-1,-7,2,8,0,-3,-2,-2
1470344770028244,0,3,-16,-9,0,0,0,-3
1470344770029244,-3,-1,2,-4,-1,-2,-2,0
1470344770029244,-1,5,6,-2,-1,-1,-1,0
1470344770041762,0,-1,8,5,2,0,1,-1
1470344770041762,-1,0,-7,-6,-3,0,0,-1
1470344770050771,1,11,7,7,1,1,0,-2
1470344770050771,0,-1,-21,-17,1,0,1,0
1470344770065286,-2,0,18,9,0,-2,-1,-2
1470344770065286,1,1,23,38,0,-2,-3,-3
1470344770067288,-4,-1,-16,-7,-3,-1,-1,-2
1470344770067288,0,1,4,-12,1,-1,-1,-1
1470344770088306,1,-1,-14,-6,-2,0,1,1
1470344770088306,-2,1,-5,-10,-1,-1,0,1
1470344770089308,-1,1,4,5,-1,0,-3,-2
1470344770089308,-1,6,4,-8,-1,-3,-3,-2
1470344770110328,-2,-4,8,10,0,-2,-2,-2
1470344770110328,-1,5,-3,-3,0,1,-2,-2
1470344770112330,1,-15,-9,-7,-4,-1,1,1
1470344770112330,-3,-1,-1,4,-2,-2,-2,-2
1470344770124341,-2,-2,5,6,0,-3,-1,0
1470344770124341,2,4,-15,-1,0,0,-1,0
1470344770131346,1,-10,-10,-29,-3,-1,-3,-2
1470344770131346,-1,7,30,20,-5,-2,-1,0
1470344770148369,-2,-2,-10,0,0,-2,-3,-1
1470344770148369,0,-7,-5,0,-2,0,0,0
1470344770149872,-1,8,7,3,1,0,-2,-1
1470344770149872,-1,-4,-4,-8,-2,-1,-2,-1
1470344770170392,0,4,1,1,-2,-1,-1,-1
1470344770170392,-1,-9,-5,-7,-2,-1,0,-2
1470344770172394,0,2,-1,1,-2,-2,0,-1
1470344770172394,1,-5,-5,-4,0,0,-1,0
1470344770185406,-2,-3,1,2,1,0,-1,0
1470344770185406,-3,1,-14,0,0,0,-1,-2
1470344770187409,-4,-2,8,-24,-3,-2,-2,-2
1470344770187409,-1,-2,-4,25,-3,0,0,-2
1470344770208427,-1,-4,-12,-25,-6,-3,0,-1
1470344770208427,-2,0,4,-6,2,-2,-1,0
1470344770209431,1,1,7,10,-1,-1,0,0
1470344770209431,-2,-5,-6,-4,1,-1,-2,-2
1470344770230446,-2,-2,3,2,-3,-1,-2,1
1470344770230446,-2,1,-7,-1,-2,-2,-1,1
1470344770232449,-1,-2,4,9,3,1,0,0
1470344770232449,-1,0,0,-18,-4,-1,-2,-1
1470344770245463,0,-1,3,13,0,1,-1,-1
1470344770245463,-1,-2,-8,-16,-3,-2,-1,1
1470344770247466,-1,-3,4,12,-1,0,-2,0
1470344770247466,-2,-6,-9,-6,-1,-2,0,1
1470344770267490,-2,5,8,0,2,0,-2,-4
1470344770267490,-1,2,4,4,-2,1,1,-1
1470344770269493,-2,-1,-11,-8,-3,-2,-3,0
1470344770269493,-3,-7,-6,-2,-1,-1,-1,-1
1470344770290510,2,10,6,3,2,0,-1,-1
1470344770290510,-3,6,13,2,0,-1,-3,-2
1470344770292512,0,-8,-24,0,-1,0,-1,-2
1470344770292512,2,4,16,4,-1,-2,-2,0
1470344770304522,-2,-6,-18,-8,-2,-2,0,-1
1470344770304522,2,-4,4,1,-2,-2,-1,-1
1470344770311529,-1,1,-2,-2,0,-4,0,0
1470344770311529,-1,-4,-3,4,-1,1,1,-1
1470344770327545,-3,-4,0,-11,-1,0,-2,-1
1470344770327545,1,4,-4,3,1,1,-2,1
1470344770329546,0,-8,14,-2,-3,-3,0,-2
1470344770329546,0,3,-16,-14,-1,-2,-1,-1
1470344770350568,-2,-7,23,10,-1,-1,-2,0
1470344770350568,-2,4,1,12,-2,0,-1,-1
1470344770352070,0,2,0,-9,1,-2,-2,-1
1470344770352070,0,11,2,-3,-1,-2,-1,1
1470344770364584,0,-6,-12,7,-4,-3,-1,-1
1470344770364584,0,-4,5,-6,0,-2,0,1
1470344770371591,1,-2,-2,7,-2,0,0,0
1470344770371591,-5,-4,-3,-9,-1,-1,-2,-2
1470344770387610,-2,-3,0,4,1,0,-1,-3
1470344770387610,-5,-12,-11,-14,-3,-1,-1,-3
1470344770389608,6,12,3,6,2,-1,0,1
1470344770389608,-4,-4,-5,-2,-1,0,-2,-1
1470344770410628,0,-13,4,-1,-1,-3,0,0
1470344770410628,11,0,-8,-2,-2,-4,-2,0
1470344770411628,-18,6,4,2,-1,1,-1,-4
1470344770411628,0,-1,0,-9,-1,-1,0,-2
1470344770424641,-3,0,3,4,-2,-3,-1,0
1470344770424641,2,1,-1,7,2,1,0,1
1470344770431645,4,-4,-10,-13,-5,0,0,0
1470344770431645,1,2,10,19,2,-2,-1,-1
1470344770448165,-3,-2,-17,-7,-2,-1,-1,-2
1470344770448165,-7,0,4,-5,0,-1,-1,-1
1470344770449666,3,2,1,6,1,0,-1,-1
1470344770449666,-7,-14,-25,-2,-4,-1,-2,0
1470344770470693,6,2,-10,-25,-3,-2,0,0
1470344770470693,4,10,11,3,0,-1,-2,-2
1470344770471693,8,-6,-1,4,0,-2,-1,-3
1470344770471693,-15,3,-1,-6,-2,0,2,-2
1470344770484706,-5,-5,10,-9,0,0,-1,-4
1470344770484706,-4,-6,-19,-3,0,0,-2,-2
1470344770491712,2,1,17,-7,-4,-4,1,2
1470344770491712,13,3,-12,-1,-4,-1,-1,-1
1470344770507724,1,15,-5,-2,2,2,-1,1
1470344770507724,10,-25,-4,8,-4,-1,-1,-1
1470344770509728,-46,-2,7,4,-7,-5,-3,-5
1470344770509728,20,-3,9,-22,0,0,1,2
1470344770530745,-39,16,2,8,-1,0,0,-4
1470344770530745,4,1,-32,-9,5,1,0,1
1470344770531747,21,-6,21,15,0,-1,1,2
1470344770531747,-24,1,-6,12,-1,-1,-2,-6
1470344770545263,9,-4,-5,-3,-6,-3,-2,-2
1470344770545263,2,4,0,-11,1,-2,1,0
1470344770551769,-18,-6,-25,2,-1,1,-2,-4
1470344770551769,8,1,1,-6,-1,-1,-2,1
1470344770567788,7,-2,12,11,-1,-2,-1,-1
1470344770567788,-14,-7,1,-5,-6,-2,-1,-2
1470344770569790,8,14,4,2,0,-2,-2,-1
1470344770569790,-2,-10,-3,-15,4,3,-2,0
1470344770590807,-1,-2,-8,6,-2,-4,-1,-1
1470344770590807,-2,-1,6,1,-3,-1,-2,-2
1470344770591809,3,-4,-22,-10,1,1,-1,-1
1470344770591809,0,3,-1,10,-3,-3,-2,-2
1470344770604822,0,-2,11,-6,-4,-1,-1,0
1470344770604822,5,8,15,5,4,2,3,2
1470344770611829,-12,-11,-34,-6,0,-3,-5,-5
1470344770611829,-2,-3,28,14,0,0,0,0
1470344770627843,2,-14,2,-1,1,-2,-1,1
1470344770627843,-4,10,-14,-12,-7,-5,-3,-3
1470344770629844,6,2,10,-3,-1,0,0,0
1470344770629844,2,0,-2,-3,-3,-4,0,-1
1470344770650870,0,-7,-15,1,-2,1,0,-1
1470344770650870,-2,-7,2,-1,0,-1,0,1
1470344770652371,3,0,10,-3,0,1,1,1
1470344770652371,-2,1,1,1,0,-2,-2,-2
1470344770663886,5,4,4,6,2,-1,1,0
1470344770663886,-5,-5,-5,-8,-3,-1,-1,-3
1470344770672894,1,-2,-3,11,-1,0,0,0
1470344770672894,0,-2,-2,-3,0,-2,-1,1
1470344770687906,-1,2,3,13,-1,-2,-2,-2
1470344770687906,-2,-2,0,-10,-3,-1,-2,-3
1470344770689910,4,1,6,9,0,0,0,1
1470344770689910,1,0,-3,2,0,-2,0,0
1470344770710930,1,-3,-8,2,-1,0,0,-1
1470344770710930,-4,-3,3,-1,-2,-1,-2,-1
1470344770711929,1,-1,-4,-10,-1,2,0,-2
1470344770711929,-2,-1,3,11,1,1,0,-1
1470344770723939,0,3,-2,-10,-3,-1,-1,-1
1470344770723939,-3,-8,-3,1,-3,0,-1,0
1470344770732947,3,-1,-8,-13,-2,-1,0,1
1470344770732947,2,-2,3,-7,-2,-2,-2,-1
1470344770747967,-7,2,25,11,0,0,-1,-2
1470344770747967,0,-1,-6,1,-1,0,-1,-1
1470344770749968,-1,5,4,3,-1,-2,-2,-1
1470344770749968,0,9,-13,-16,-2,0,1,0
1470344770777997,3,-9,-6,-6,1,0,-1,0
1470344770777997,-3,0,1,8,-1,-1,-1,-1
1470344770780000,-2,-4,7,-2,-2,-1,-1,2
1470344770780000,2,-1,-2,0,-3,-3,-3,-1
1470344770784004,-1,-1,1,1,0,1,-1,0
1470344770784004,-4,-2,-1,-5,1,-1,-1,-1
1470344770793013,-2,1,-9,-6,-4,-2,-1,-2
1470344770793013,-1,-2,4,2,1,-1,0,-1
1470344770808026,2,2,-11,-4,-1,-1,-1,-1
1470344770808026,-1,-1,3,1,-1,0,0,0
1470344770810028,-1,-3,1,-1,0,0,-2,-1
1470344770810028,4,0,6,9,0,-1,-1,-1
1470344770830045,-15,-4,-7,-16,-3,-2,-2,-4
1470344770830045,4,5,4,16,4,0,1,-1
1470344770832048,-4,-4,1,-9,-1,-3,-1,-1
1470344770832048,1,-3,-1,-7,-2,-1,1,-1
1470344770844567,5,1,-4,5,2,1,0,1
1470344770844567,-8,-2,-8,-4,-2,1,-1,-1
1470344770853576,-5,-2,1,-1,-2,-1,-2,-1
1470344770853576,-1,1,4,10,-1,1,-1,-1
1470344770868092,-7,-7,-6,-12,-4,-3,-2,-3
1470344770868092,9,0,3,2,-2,0,1,0
1470344770869092,10,-1,-9,-5,0,1,-2,1
1470344770869092,-25,7,4,2,-2,-1,-3,-2
1470344770890113,3,-22,-6,0,-2,-2,-2,-1
1470344770890113,0,14,2,-5,-3,-2,-1,-2
1470344770892113,1,-15,4,5,1,0,0,-1
1470344770892113,2,2,-14,-4,-1,-2,-1,1
1470344770904123,5,9,4,0,-1,1,0,-1
1470344770904123,-6,-7,-17,-10,-1,-1,-2,-1
1470344770913132,-1,6,23,9,0,-1,-2,-2
1470344770913132,1,-5,-7,1,1,0,1,-1
1470344770928145,-1,-2,-5,-1,-2,-1,-2,0
1470344770928145,0,1,8,-8,-3,0,-2,1
1470344770929146,-1,-3,-23,-4,-1,-1,-2,-1
1470344770929146,0,-6,-4,-6,-2,-2,-1,-3
1470344770950697,3,5,-1,3,-1,1,-1,0
1470344770950697,-3,-4,2,3,0,-4,-2,-1
1470344770952172,-1,0,5,12,-2,0,0,-1
1470344770952172,-1,-5,-12,-19,0,0,-2,0
1470344770964217,1,2,-1,-5,-1,-1,-1,-1
1470344770964217,-4,1,7,3,3,-2,-1,-3
1470344770973206,-1,-2,-16,-7,2,0,0,0
1470344770973206,3,-3,11,10,-2,-2,-3,-2
1470344770988246,0,4,2,9,0,0,0,-1
1470344770988246,-1,-4,2,-8,-2,-1,-1,1
1470344770989221,1,4,-10,-11,-1,0,1,1
1470344770989221,-3,-2,8,5,-3,-1,-1,-1
1470344771010244,0,0,-2,-1,0,-1,-3,-1
1470344771010244,-2,-5,-3,5,-4,-2,-1,-3
1470344771012242,-1,-1,1,-2,1,0,0,-2
1470344771012242,3,-2,-12,-7,0,-1,-1,0
1470344771024317,-2,0,1,-3,-2,-3,-1,-2
1470344771024317,-1,-1,-3,6,-1,-1,0,0
1470344771033288,-3,-1,0,-16,0,-1,-1,-1
1470344771033288,0,-2,5,1,1,-1,-1,-2
1470344771048311,-1,1,-10,-4,1,-2,-2,-2
1470344771048311,3,0,4,2,-1,-1,0,-1
1470344771049813,-1,-4,5,5,-1,0,-1,0
1470344771049813,-1,-3,-7,-4,-1,0,0,-1
1470344771070907,-1,0,6,1,-3,-3,0,-1
1470344771070907,0,-2,-5,-12,-2,-1,-1,-1
1470344771071909,-2,-5,-1,3,-3,-1,-1,-2
1470344771071909,1,10,2,-2,-2,-1,-1,-1
1470344771092961,-3,-2,-4,-2,-1,-1,0,0
1470344771092961,-1,-4,-3,0,0,-2,0,-1
1470344771094929,-1,1,5,-1,-1,-2,0,-1
1470344771094929,-1,-3,-15,-3,0,0,1,-2
1470344771107983,-1,0,30,4,-2,-1,-2,-3
1470344771107983,0,2,-12,4,0,-1,-2,-1
1470344771109943,-3,-9,-5,-7,2,-1,-1,-2
1470344771109943,1,-1,-7,5,-2,-3,-1,0
1470344771130961,2,-3,-2,-7,-1,1,0,-1
1470344771130961,-3,1,6,4,-1,0,-2,0
1470344771132962,-1,-3,1,2,-2,0,1,-1
1470344771132962,0,-3,2,-4,1,-1,0,-2
1470344771153094,-1,-4,6,3,0,-1,1,0
1470344771153094,-4,6,3,-3,-1,-2,1,0
1470344771159610,-3,-4,-8,-1,-1,0,-2,-2
1470344771159610,-2,-3,3,-1,-1,-2,0,-1
1470344771167631,0,-3,-22,-8,2,0,0,2
1470344771167631,3,-2,-2,-1,-1,0,-1,-2
1470344771167631,-2,4,16,12,-2,-2,-2,1
1470344771167631,-4,-9,-6,-8,-1,0,-1,-1
1470344771189691,1,5,-2,0,0,-1,-1,-1
1470344771189691,-5,-4,-2,6,-2,-3,-2,-3
1470344771190678,1,-6,0,-4,-1,-2,-1,-2
1470344771190678,1,0,1,-1,-2,-1,-1,0
1470344771212748,-1,0,-5,-3,-3,-1,-1,0
1470344771212748,-1,-5,-1,-1,-1,0,-1,-1
1470344771212748,1,7,-1,1,0,-1,-1,-1
1470344771212748,-3,-2,4,1,-1,-3,-2,0
1470344771227688,0,0,-1,2,-1,0,-1,-1
1470344771227688,1,-2,-9,-13,-2,1,-1,0
1470344771227688,-2,0,10,5,-4,0,-1,-2
1470344771227688,-2,-3,-5,2,-3,0,-2,-1
1470344771249807,-3,-6,-7,-6,0,0,0,-2
1470344771249807,-2,1,15,5,-1,0,0,0
1470344771250752,0,-1,-14,-4,-1,-2,1,-3
1470344771250752,1,1,11,4,0,-1,0,-3
1470344771272616,-1,-5,-15,-10,-2,1,1,2
1470344771272616,-1,2,14,5,0,-2,-1,-3
1470344771272616,-1,-3,1,-1,-1,1,-1,0
1470344771272616,2,3,-5,8,0,-1,1,-1
1470344771287604,-2,1,-8,-19,-2,-2,0,-2
1470344771287604,-5,-4,18,6,3,-1,-2,-1
1470344771287604,-3,-9,-13,2,1,-2,-4,-2
1470344771287604,0,0,-5,-6,-3,0,1,2
1470344771309629,1,-3,1,6,-2,-2,-2,-2
1470344771309629,0,3,-14,-6,-1,2,0,-2
1470344771310631,-1,1,13,-1,-2,-4,-1,0
1470344771310631,-1,-3,-2,1,-1,0,-2,-2
1470344771332647,-1,3,4,4,0,0,-1,0
1470344771332647,-1,-9,-9,-8,-1,0,-1,-2
1470344771332647,-2,3,-9,4,1,-1,-1,0
1470344771332647,-1,0,3,-4,-4,-2,-2,0
1470344771347700,0,-7,1,1,1,-1,0,-2
1470344771347700,1,0,-7,0,-3,-1,-2,0
1470344771348201,2,1,-11,-13,2,0,0,1
1470344771348201,-4,0,21,16,0,-2,-3,-1
1470344771369730,0,-4,-9,-8,0,-3,-2,-1
1470344771369730,-3,-3,0,-1,-1,-2,-2,0
1470344771370726,1,5,-12,-10,-2,-1,0,-1
1470344771370726,-2,-10,5,-2,-1,-1,1,-3
1470344771392747,-1,2,-3,6,0,-1,0,0
1470344771392747,-2,-2,1,3,0,-2,-1,0
1470344771392747,-3,-1,-5,-9,-2,-1,-3,-1
1470344771392747,0,3,-10,-6,0,-1,-1,-3
1470344771407759,-3,-2,-2,4,-3,-1,-2,-2
1470344771407759,3,1,3,-5,-3,-2,0,1
1470344771407759,0,-1,0,5,0,2,-1,0
1470344771407759,-4,-8,-7,-10,-3,-2,-4,-1
1470344771429779,-2,-8,1,-4,-2,-1,-2,-1
1470344771429779,0,6,2,3,0,-2,1,0
1470344771430781,3,1,9,8,-1,-2,-1,-1
1470344771430781,-2,1,-6,-9,3,0,-1,-2
1470344771452308,-1,-2,-1,5,-2,-2,0,-2
1470344771452308,-1,-3,-6,-13,-2,-1,-2,-1
1470344771453307,-2,-3,7,8,-2,-2,0,-1
1470344771453307,-1,2,-8,-2,0,0,0,-1
1470344771466826,-2,5,5,9,0,0,-2,0
1470344771466826,-1,-6,-2,-1,-1,0,-1,-1
1470344771467824,-2,-3,1,-9,-3,-1,0,0
1470344771467824,1,0,-2,14,-3,-1,-2,0
1470344771489859,0,5,7,-6,1,-1,1,0
1470344771489859,-4,-3,-8,9,-2,-1,0,-1
1470344771490845,-1,-3,0,-3,-2,0,0,0
1470344771490845,-1,-2,-1,0,-1,1,-2,1
1470344771512865,4,0,10,4,-1,-1,-3,-1
1470344771512865,0,-2,-13,-3,0,1,-1,-1
1470344771512865,-5,-1,14,5,1,-1,-3,-4
1470344771512865,-2,0,-21,-4,-1,-3,-1,-2
1470344771527880,-2,-1,9,-7,-2,-1,-1,0
1470344771527880,0,3,9,16,-1,-3,-2,-2
1470344771527880,1,1,-15,-22,-1,-1,0,0
1470344771527880,-1,0,5,-3,-1,-1,-1,-3
1470344771549905,-2,1,-3,1,0,-1,-1,-2
1470344771549905,1,-3,4,-1,1,-2,0,-2
1470344771551406,4,3,-12,-2,-1,0,-2,0
1470344771551406,0,0,21,4,-1,-1,-2,-1
1470344771572518,-5,0,-4,10,0,-1,-1,-2
1470344771572518,8,-3,-16,-9,-3,-1,-2,-1
1470344771572518,-12,-2,5,3,0,-2,-1,-3
1470344771572518,1,-5,-14,-8,0,0,0,1
1470344771587531,-4,-1,-6,-16,-2,-2,-1,-1
1470344771587531,0,-1,6,-3,-1,-2,-2,-1
1470344771587531,-5,-8,-7,3,-3,-2,0,-2
1470344771587531,-1,0,2,-1,1,0,-1,2
1470344771609555,3,-4,2,-1,-1,1,0,-2
1470344771609555,-2,3,-3,2,-3,-3,0,-1
1470344771610554,1,2,-3,-2,-1,0,0,-1
1470344771610554,-8,-11,1,1,-3,-2,-2,-4
1470344771632575,-2,-6,-11,0,-2,-1,0,0
1470344771632575,-1,4,-4,-5,0,1,-2,0
1470344771633575,2,0,8,7,-1,-1,-2,-1
1470344771633575,3,0,-8,-8,-2,0,-2,-1
1470344771647597,1,-3,-12,-13,1,2,-1,0
1470344771647597,-3,-4,26,24,-3,-4,-3,-2
1470344771648094,-2,1,-3,-4,0,-1,-2,-1
1470344771648094,2,6,-11,-7,-1,-1,-1,-1
1470344771670121,-2,-5,4,-1,-2,-2,-1,-1
1470344771670121,-3,0,-14,-10,1,1,0,-3
1470344771670121,1,0,2,1,0,1,1,-2
1470344771670121,-2,-1,1,0,-2,-2,0,-1
1470344771692143,1,5,0,0,0,-1,0,-1
1470344771692143,-2,-6,-4,-5,-1,-1,1,-1
1470344771693141,-2,-3,3,2,-1,-1,0,-2
1470344771693141,-1,3,-1,-3,0,1,0,2
1470344771706152,0,-1,1,3,-1,-2,0,-1
1470344771706152,-1,-7,-14,-13,-1,1,0,0
1470344771715162,-6,-4,9,-4,-1,-1,-2,-3
1470344771715162,4,-3,12,25,-2,-1,-2,-3
1470344771730173,3,3,7,2,-3,0,-2,-2
1470344771730173,-9,-6,-14,-19,-1,-3,-2,-2
1470344771730173,3,2,-8,-8,2,0,1,2
1470344771730173,-2,-3,1,1,-1,0,0,0
1470344771752703,5,-2,-1,7,1,0,0,0
1470344771752703,2,2,3,0,1,1,0,0
1470344771753206,0,-2,-5,-1,-2,-3,-2,-2
1470344771753206,-2,1,4,-4,1,-3,-1,-3
1470344771766224,-3,1,-4,0,-2,-1,-2,-1
1470344771766224,-1,0,2,1,0,2,-1,-2
1470344771775230,0,0,-1,2,-1,-3,-1,-2
1470344771775230,1,-1,-3,-4,0,0,-1,-1
1470344771790243,-4,0,6,2,0,-1,-1,-2
1470344771790243,0,-5,-4,-4,-1,0,-1,-1
1470344771790243,3,4,-5,-8,-3,0,1,0
1470344771790243,-3,2,8,18,0,0,-2,-1
1470344771812265,-6,-9,-7,-11,0,-1,-2,-4
1470344771812265,1,-2,-14,-11,-2,-3,0,-1
1470344771813266,1,-3,8,11,0,-1,-1,1
1470344771813266,-1,1,-1,-1,-2,-1,-1,0
1470344771826277,0,3,-5,-20,-3,0,0,-1
1470344771826277,0,3,7,12,3,-2,-2,-2
1470344771834286,0,-1,-10,-5,-3,-2,-2,-2
1470344771834286,-3,-4,0,-6,0,1,0,1
1470344771850317,-2,0,6,13,2,-1,-1,-2
1470344771850317,-3,3,-2,-5,-3,-1,-1,-2
1470344771850803,1,-1,4,5,-1,-1,-2,1
1470344771850803,-1,-4,-2,-1,0,0,-1,-2
1470344771872389,-2,0,-12,-5,0,-2,-1,-1
1470344771872389,2,-3,12,-4,-2,-2,0,1
1470344771873357,-7,-1,11,21,0,-2,-1,-5
1470344771873357,0,-14,0,-3,-2,-4,-2,-1
1470344771886396,0,2,-15,-4,0,-2,0,1
1470344771886396,2,2,2,1,0,-1,-1,-1
1470344771894374,4,0,-8,-12,-1,0,-1,-1
1470344771894374,-1,6,7,-10,-1,0,-1,0
1470344771909388,-3,-3,3,6,-3,-2,-2,-2
1470344771909388,1,3,-3,1,-1,0,1,0
1470344771910389,-2,-10,-1,-4,-1,-1,-2,0
1470344771910389,-1,3,6,-2,0,-2,-2,-1
1470344771932409,-1,1,-9,-1,-2,1,-1,0
1470344771932409,-3,5,2,10,0,-1,-3,-1
1470344771933410,-2,3,4,-8,0,-1,-2,-1
1470344771933410,-2,-7,-21,-6,-3,-2,-1,-1
1470344771946971,-2,-6,6,-9,-3,-2,-2,-2
1470344771946971,0,-1,2,9,0,-1,-1,-1
1470344771954966,0,0,0,7,0,0,-2,-1
1470344771954966,2,7,-17,-9,-1,1,-1,-2
1470344771970079,-2,0,0,-9,-3,-2,-3,-2
1470344771970079,0,-5,-4,-3,-1,0,-1,0
1470344771970079,0,-1,2,1,2,-1,-1,-2
1470344771970079,-1,2,2,1,0,-1,-1,0
1470344771992129,0,-2,-2,3,0,-1,0,0
1470344771992129,-4,-1,3,-1,-2,-3,-1,-1
1470344771993100,-2,-1,-7,-8,-1,-2,0,-2
1470344771993100,0,0,0,-1,-1,0,1,-1
1470344772007111,2,0,8,7,1,-1,0,1
1470344772007111,1,0,-13,-8,0,-1,0,0
1470344772015177,-4,4,4,1,-3,-1,-1,-2
1470344772015177,-6,-8,3,3,0,0,-1,-4
1470344772030168,1,-4,-6,0,1,-1,-2,-1
1470344772030168,4,8,8,3,0,0,-1,0
1470344772030168,-2,-14,-11,-8,-3,-2,0,-1
1470344772030168,1,6,1,-6,-1,1,-1,1
1470344772052690,-1,-5,4,14,-1,0,-1,-1
1470344772052690,-4,-2,5,-7,-2,-2,1,0
1470344772053190,0,-1,-4,-1,-1,-1,-1,-2
1470344772053190,-5,0,-3,1,-1,-2,0,-2
1470344772075750,-1,5,0,1,-2,0,0,0
1470344772075750,0,-5,-9,-2,-1,-1,-3,-1
1470344772075750,-1,8,5,-1,0,0,0,0
1470344772075750,0,-14,5,4,0,-2,-1,-2
1470344772089798,-1,4,-2,-2,-1,-2,-1,-2
1470344772089798,-2,0,12,5,3,1,0,-1
1470344772090741,1,0,-13,-6,-2,0,-1,1
1470344772090741,0,-4,-7,-4,-1,1,-1,-1
1470344772112759,-2,9,3,-2,-2,-2,-2,-3
1470344772112759,-3,-10,-1,0,-2,-1,0,0
1470344772112759,0,-2,-1,0,-1,-1,-2,-1
1470344772112759,2,7,-12,-16,-3,-2,1,-2
1470344772135844,-1,-4,18,11,1,-1,-2,-2
1470344772135844,-2,0,-5,9,-5,-4,-2,-2
1470344772135844,1,5,0,-4,0,0,-2,-2
1470344772135844,-2,-11,-11,3,-1,-1,0,0
1470344772149821,-6,-6,-10,-11,-1,-1,-3,-1
1470344772149821,-1,3,-1,-1,1,-1,-1,-3
1470344772150806,-1,-14,3,6,-2,-2,-1,0
1470344772150806,0,5,1,-3,-2,-1,0,-2
1470344772172834,2,-3,0,1,-2,-1,-1,0
1470344772172834,-3,2,-4,-2,1,0,0,-1
1470344772172834,-3,-4,0,-2,0,0,0,-2
1470344772172834,1,5,8,-2,-1,-1,-2,1
1470344772195852,-2,-4,-4,0,-2,-2,-1,0
1470344772195852,0,-3,-7,-8,-1,-1,-1,-2
1470344772195852,-1,-4,2,-6,-1,0,0,-1
1470344772195852,-2,-5,2,4,-2,-3,-2,-1
1470344772209866,-7,-3,-3,-3,-1,-1,-1,-2
1470344772209866,1,5,3,0,-2,-1,0,2
1470344772210868,-1,-1,-8,-3,-1,-1,-1,-1
1470344772210868,0,-4,9,2,0,-1,-1,0
1470344772232889,3,3,-5,-2,-1,-2,-1,-2
1470344772232889,-2,-4,-6,-4,-2,0,-2,-1
1470344772232889,-2,1,5,8,1,-1,0,-1
1470344772232889,-6,1,-2,-4,-2,-1,-1,-1
1470344772255981,2,-5,3,-3,-3,-3,0,1
1470344772255981,-1,0,-1,-2,-1,-2,0,-1
1470344772256446,-1,2,5,1,-3,-1,-1,-1
1470344772256446,-3,-1,-4,0,1,-1,-2,-3
1470344772270076,0,0,-6,-3,0,-2,0,-1
1470344772270076,1,-1,-3,-6,0,-1,-1,-2
1470344772270988,0,-6,-5,-3,-1,0,-2,-2
1470344772270988,-3,4,16,8,-1,-3,-1,-4
1470344772292062,-1,0,1,-7,-1,0,-3,1
1470344772292062,0,-2,-8,-3,1,0,-1,-3
1470344772293008,-2,-2,-3,-1,-1,-2,-2,0
1470344772293008,-1,-3,-6,-3,0,0,0,0
1470344772315032,-1,-4,-5,1,0,-2,-1,-2
1470344772315032,1,6,3,-4,-1,-2,0,-1
1470344772316032,0,0,-6,-3,-1,-1,-1,-1
1470344772316032,-3,2,-3,-1,-1,0,-2,-1
1470344772330044,-2,-3,-3,-12,-2,-3,0,1
1470344772330044,-1,-6,5,3,1,0,-1,0
1470344772330044,-1,3,8,6,-2,-1,-2,-1
1470344772330044,1,5,2,4,-1,0,-2,0
1470344772352571,-3,-3,-10,-2,-2,1,0,-1
1470344772352571,0,-3,4,1,-1,-1,-1,-1
1470344772353069,0,0,-2,-6,0,-2,-1,-1
1470344772353069,1,1,1,-1,-2,-1,-1,0
1470344772375737,0,0,-1,5,-2,0,-1,-1
1470344772375737,-2,-6,-2,-2,-2,-1,-1,1
1470344772376735,0,1,4,2,-2,-2,-1,-2
1470344772376735,1,-3,-9,-4,1,1,1,-2
1470344772389780,0,-4,0,5,0,-1,-1,-1
1470344772389780,-4,0,10,3,-1,-2,1,1
1470344772390747,-1,1,-7,-1,1,-3,0,-1
1470344772390747,0,-1,-4,-3,-1,-1,0,-1
1470344772412767,-3,-6,4,1,0,1,-1,-2
1470344772412767,1,4,-2,-1,-2,0,-2,-1
1470344772412767,-3,-3,-4,-3,-1,-1,-2,-2
1470344772412767,0,-2,-5,-6,-2,-3,0,0
1470344772435795,1,-3,8,2,1,-1,0,0
1470344772435795,-3,1,7,12,-3,-3,-4,-3
1470344772435795,-2,-2,-6,-6,-2,-2,0,-1
1470344772435795,0,0,4,1,-1,-2,-2,1
1470344772449804,1,2,-6,-2,-1,0,0,-1
1470344772449804,0,-2,-5,-6,2,0,-1,-2
1470344772450806,-1,0,1,0,-2,0,-2,1
1470344772450806,-2,-3,-11,-4,-1,-2,0,-2
1470344772472330,-1,7,11,1,-2,-2,-1,0
1470344772472330,-4,-9,2,-9,-4,-2,-2,-2
1470344772473333,-1,0,-3,6,0,0,-1,-1
1470344772473333,1,-3,0,-1,-1,-1,1,-1
1470344772495351,-2,-3,-4,0,-1,-1,-1,-1
1470344772495351,1,10,-2,-3,-1,-1,-1,1
1470344772496352,-4,-1,-2,-1,-3,-2,-1,-1
1470344772496352,-2,-4,-2,-3,-2,1,-1,-2
1470344772509364,-4,2,-13,-11,0,-1,-1,-1
1470344772509364,1,-3,11,12,1,2,-1,0
1470344772510364,-2,0,9,3,-2,-3,-2,-2
1470344772510364,-2,0,-4,0,-1,-2,-1,-2
1470344772532385,0,7,1,-1,-2,-1,-1,-2
1470344772532385,-3,-20,-17,-8,-1,0,0,-1
1470344772533385,-1,-1,-2,-2,-2,0,-2,1
1470344772533385,-3,-4,3,1,-2,1,-2,0
1470344772555910,-2,1,0,-1,-2,-2,0,0
1470344772555910,-2,1,-7,-8,-1,0,0,-2
1470344772556410,-2,-4,4,7,0,-2,1,-1
1470344772556410,1,-2,-6,-8,-2,-3,-2,1
1470344772570074,0,-2,0,-1,1,0,-2,-1
1470344772570074,-4,1,-4,0,0,-1,-1,-2
1470344772570074,0,-4,-5,-6,-2,1,-2,-1
1470344772570074,0,2,0,-1,-1,-1,-1,0
1470344772592068,3,-5,1,2,-1,0,-1,-1
1470344772592068,1,-3,-15,-11,0,-1,0,0
1470344772593066,-1,3,16,5,-1,0,0,-1
1470344772593066,-1,-1,-8,21,-2,-4,-3,-2
1470344772615087,-1,2,-1,-14,-1,0,0,0
1470344772615087,-4,-4,-10,-2,-3,-1,-2,1
1470344772616089,0,2,-21,-13,-1,2,0,1
1470344772616089,-2,-11,10,-3,1,0,-1,0
1470344772629102,-2,-8,4,8,0,-2,0,-1
1470344772629102,-1,3,-4,-4,-1,-2,-1,-1
1470344772637106,0,-1,4,0,0,-1,0,-2
1470344772637106,-4,6,9,2,-1,1,1,-1
1470344772652633,0,1,-15,-7,-2,-1,-1,1
1470344772652633,-1,2,22,13,-1,-2,0,-1
1470344772653134,1,-2,-13,-1,-2,0,-1,0
1470344772653134,-1,-3,-2,-7,-1,0,-1,0
1470344772675200,-3,-6,2,1,0,-2,-2,-1
1470344772675200,3,3,-3,-2,-2,0,0,0
1470344772676173,-2,-3,5,1,-1,0,-1,-3
1470344772676173,1,1,-6,-2,0,1,0,-1
1470344772689215,-4,-8,6,1,-1,0,-1,-2
1470344772689215,-3,2,0,4,-3,-4,-1,-2
1470344772697221,-1,0,-5,-2,-1,-2,0,-1
1470344772697221,-2,-3,-4,-6,-1,1,-2,-2
1470344772712208,3,1,1,1,0,-2,-1,0
1470344772712208,0,5,13,4,1,-1,0,0
1470344772713208,-1,0,-7,-6,-1,-2,-1,1
1470344772713208,0,-4,-1,-5,-1,-2,0,-1
1470344772735230,-1,5,5,6,-3,-1,-1,0
1470344772735230,-2,-9,-12,-7,1,0,-1,-1
1470344772736227,-1,-4,10,6,-1,-3,-1,-2
1470344772736227,-1,6,-1,-4,0,-2,0,-1
1470344772749252,-1,0,-6,-1,0,-2,-1,-3
1470344772749252,-2,-2,-6,-6,-3,0,-1,-1
1470344772757761,1,1,-3,-1,0,0,1,-1
1470344772757761,0,-1,1,-1,-1,-1,-1,-1
1470344772772793,-1,-3,-1,-1,0,0,-1,-2
1470344772772793,-2,-1,-9,-3,0,-1,-2,-2
1470344772772793,-3,-6,14,8,-1,-2,-2,-1
1470344772772793,1,8,-1,-2,0,-1,-1,-1
1470344772795805,1,1,-10,-15,-3,-1,-2,-1
1470344772795805,-3,-4,11,4,0,-2,-2,0
1470344772796804,-1,-1,-14,-7,-1,1,0,-1
1470344772796804,-4,-5,1,-6,-2,-2,-2,-1
1470344772808814,-2,-1,0,10,-1,1,0,-2
1470344772808814,0,4,-4,-3,0,-1,0,-1
1470344772816823,0,1,3,-1,-1,-1,-2,-1
1470344772816823,-3,-2,4,0,0,-2,-1,-1
1470344772835842,0,0,1,4,-1,2,-2,0
1470344772835842,-3,-1,4,-1,-3,-4,0,1
1470344772835842,0,-1,-12,-5,-3,-1,-1,-1
1470344772835842,1,4,-1,0,-1,-1,1,3
1470344772855866,-2,0,-1,1,1,-2,-1,-3
1470344772855866,0,-9,2,0,0,0,-1,-1
1470344772856366,-4,2,4,-2,-1,-2,-1,-1
1470344772856366,1,-6,-5,-7,-2,-1,-1,-1
1470344772868885,-1,3,9,14,-1,-4,0,0
1470344772868885,1,-2,-2,-5,-2,-1,0,-3
1470344772877892,0,-3,-2,4,0,-1,0,1
1470344772877892,-1,0,-6,0,0,0,-1,-1
1470344772891904,-1,-5,-2,-9,-3,-1,-1,-1
1470344772891904,0,2,-1,-1,0,1,-3,-1
1470344772892907,-2,-4,4,-2,-1,-2,-1,-2
1470344772892907,-1,-2,-1,-3,-3,-2,-1,0
1470344772915929,-1,-3,-4,-3,-4,0,0,0
1470344772915929,-2,2,-9,9,-2,-4,-1,-1
1470344772915929,-1,0,-5,-5,-2,1,-1,-1
1470344772915929,-2,-1,13,5,-2,0,-3,-1
1470344772928940,-1,-7,2,-1,0,-1,-1,0
1470344772928940,-2,-1,-8,-4,-1,1,-1,-2
1470344772936946,1,2,-2,-6,-1,-1,1,1
1470344772936946,-1,-7,-14,-5,0,0,-1,-1
1470344772952497,-3,5,24,18,-1,-3,-1,-2
1470344772952497,-1,-1,-12,-4,-2,-1,-1,0
1470344772953468,-2,1,-2,-4,0,-1,-1,-2
1470344772953468,-1,-1,-8,-4,-1,0,-1,-2
1470344772974994,0,-3,-9,-10,1,-1,-2,0
1470344772974994,-2,-7,6,-2,-4,-3,-2,-1
1470344772975994,-1,2,19,16,-1,-2,-3,-2
1470344772975994,-1,-1,-12,-1,-2,1,-2,0
1470344772998016,-3,1,-4,-4,-1,2,-1,-2
1470344772998016,0,4,3,-3,1,-1,0,0
1470344772999016,-1,-3,-8,0,-2,-1,-3,0
1470344772999016,-2,0,10,1,-3,-2,-1,-2
1470344773012042,2,-1,-3,0,3,1,0,-1
1470344773012042,-1,-2,-12,-7,-2,0,-2,-2
1470344773013028,-1,0,1,-7,0,0,1,1
1470344773013028,-5,-3,22,18,-3,-5,-1,-2
1470344773035049,1,1,-11,-5,0,-2,-2,1
1470344773035049,1,1,0,-2,-1,-1,1,-1
1470344773037050,-2,-6,-12,-6,-3,0,-2,-1
1470344773037050,2,8,-6,-4,0,0,-2,-1
1470344773058574,-1,-1,-2,-4,-3,-2,-1,-1
1470344773058574,1,1,8,2,-1,0,1,-2
1470344773059075,2,-4,-8,-6,0,0,-1,-2
1470344773059075,0,-2,3,5,-1,-2,-1,-1
1470344773072092,-2,0,1,-4,-2,-1,-1,0
1470344773072092,2,1,-1,-2,0,-1,-3,-3
1470344773073093,0,-1,-4,-3,-2,-1,0,0
1470344773073093,-1,-1,0,-2,-1,0,0,-2
1470344773095113,-3,-3,-10,-7,-1,-1,0,-1
1470344773095113,-2,-4,3,4,-2,-1,-1,-2
1470344773096113,-1,-1,2,0,0,0,-2,-2
1470344773096113,-2,-4,6,2,-1,-2,-1,-1
1470344773118132,-3,-2,5,0,-1,-2,-1,1
1470344773118132,1,0,-10,-6,0,0,1,2
1470344773119135,-4,-3,-2,0,0,-1,1,-1
1470344773119135,-1,0,-3,5,-1,-2,-1,-2
1470344773132147,0,-4,-7,-4,-1,0,-1,-2
1470344773132147,-1,-1,5,2,1,-1,-2,0
1470344773133146,-4,-8,-3,-5,-1,0,-1,-2
1470344773133146,-1,-1,-6,-11,-1,1,-1,-2
1470344773155672,1,6,12,13,-1,-1,-2,-1
1470344773155672,-2,-12,-15,-4,-3,-1,-2,0
1470344773156672,-1,1,1,1,0,-1,-1,-1
1470344773156672,-1,-1,-7,-9,-1,0,-1,-2
1470344773178196,-2,-4,6,1,-1,-2,-1,-2
1470344773178196,-1,-1,2,0,0,-2,-1,1
1470344773179197,0,5,2,3,-1,-2,-2,-2
1470344773179197,1,-4,-20,-14,-1,0,0,-1
1470344773192236,-2,1,14,5,-3,-3,-2,-3
1470344773192236,1,4,4,4,-1,1,0,-2
1470344773193212,-1,-3,5,-5,-1,0,-1,0
1470344773193212,-3,0,-3,7,0,-1,-1,1
1470344773215230,3,-2,-12,-14,-3,-1,-1,-1
1470344773215230,-4,0,4,0,-1,1,-1,0
1470344773216234,-1,2,-2,0,-2,-2,-2,-2
1470344773216234,-1,-4,-2,-7,-1,0,1,-1
1470344773238306,-3,-3,1,4,-1,-1,0,-1
1470344773238306,-2,2,7,1,-2,-2,-1,-1
1470344773238306,1,0,-11,-5,-1,-1,-1,1
1470344773238306,0,-1,7,1,-1,-2,-2,-1
1470344773252861,1,-4,-13,-6,-2,1,-1,-1
1470344773252861,-2,-4,-2,-5,-1,-1,-1,-1
1470344773253361,0,-1,0,4,-3,-2,-2,0
1470344773253361,-2,-8,-2,0,0,-1,0,-2
1470344773275390,-1,1,-4,-1,-1,-1,-1,0
1470344773275390,0,1,8,-1,-4,1,1,-1
1470344773276388,-1,-1,-6,-2,-1,1,-1,0
1470344773276388,-2,2,9,3,0,-1,-1,0
1470344773298448,1,6,-6,-4,1,-1,-1,0
1470344773298448,-3,-4,1,2,1,-2,-3,-3
1470344773298448,0,0,-2,-4,-2,-3,-2,0
1470344773298448,-1,1,2,-2,-3,-2,-2,-2
1470344773312500,-3,-2,0,-2,-1,-1,0,0
1470344773312500,0,-3,-7,-4,0,0,2,-2
1470344773313420,-1,-1,-1,-5,1,0,1,0
1470344773313420,-2,-3,-1,2,0,-1,-1,-3
1470344773335486,-1,2,7,4,0,0,-1,0
1470344773335486,-1,1,-5,-2,-1,-2,-1,0
1470344773336480,-1,-8,4,1,-2,-2,-1,-2
1470344773336480,1,3,-9,-8,-1,0,-1,-2
1470344773358600,0,-3,4,0,-3,-1,0,-3
1470344773358600,0,-3,-15,-4,-1,-3,-3,0
1470344773359095,-4,1,2,3,-2,-2,-2,-3
1470344773359095,-1,-2,-4,-4,-1,0,0,0
1470344773372658,-2,-2,-3,-2,1,0,-1,0
1470344773372658,0,-1,5,1,-2,1,-1,0
1470344773372658,1,-1,-6,-5,0,-1,-2,0
1470344773372658,-2,0,-2,4,-1,-1,0,-1
1470344773395689,-2,-3,11,1,-1,0,-1,-3
1470344773395689,0,2,-3,2,0,-2,-1,0
1470344773396635,0,-2,4,-2,-1,1,0,1
1470344773396635,0,-3,2,0,-4,-1,-1,0
1470344773417656,-2,-3,-14,-6,-1,-1,-1,0
1470344773417656,-1,1,9,4,0,-2,-1,-1
1470344773418656,-2,-1,-4,-5,0,-1,-2,0
1470344773418656,1,-1,8,6,1,-1,1,-2
1470344773432668,0,-3,-8,-3,-2,-1,-1,0
1470344773432668,-2,-1,-2,-2,-2,0,-2,0
1470344773432668,1,1,0,0,-2,-3,0,-4
1470344773432668,-2,0,-1,-4,-2,-1,-1,0
1470344773455696,-3,-1,2,1,1,-1,0,-2
1470344773455696,-4,-3,1,-1,0,0,-2,-5
1470344773456695,1,-1,-14,-4,-1,0,-1,0
1470344773456695,0,1,13,3,-1,-1,-3,-1
1470344773477720,-3,-2,4,-2,-5,-4,-2,-2
1470344773477720,1,5,-2,0,-1,-1,-1,0
1470344773478720,-4,-2,2,3,-1,1,-2,-1
1470344773478720,0,-1,-12,-6,0,-1,-1,-2
1470344773492733,5,-2,-5,-5,-1,1,-1,1
1470344773492733,-3,6,3,-2,0,-1,0,-1
1470344773493735,-1,3,2,1,0,-2,-1,0
1470344773493735,-1,-5,-6,-3,0,-1,0,-2
1470344773515754,0,1,-4,-4,-1,0,-3,-2
1470344773515754,1,-2,6,2,-2,0,0,-1
1470344773516754,1,-1,-1,-3,1,-2,-1,-2
1470344773516754,-2,3,2,3,-1,0,-1,-1
1470344773537773,-3,-3,-2,2,0,-2,-1,-1
1470344773537773,0,-2,-5,-5,-1,0,1,0
1470344773538773,-1,-2,2,-1,-2,0,-1,1
1470344773538773,0,-4,-1,0,-1,-3,-1,0
1470344773552791,-1,-1,-4,-2,-1,0,0,-1
1470344773552791,1,-3,-7,-3,-1,-1,-2,0
1470344773553295,2,0,10,4,0,-1,1,-2
1470344773553295,-2,-2,-8,-1,-1,-2,-1,1
1470344773575843,-2,0,-2,-2,-2,-1,-1,0
1470344773575843,-1,-3,3,6,-1,-2,0,-2
1470344773576845,-2,1,-9,-7,-1,0,-1,-2
1470344773576845,-2,0,5,4,-1,-1,-2,-1
1470344773597929,1,-1,-8,-3,-1,-1,0,0
1470344773597929,0,-4,-5,-7,-2,-1,-2,-1
1470344773598909,0,1,2,1,-1,-2,-1,-2
1470344773598909,-1,-1,1,-3,-1,-1,0,-1
1470344773611890,0,0,3,2,1,-2,-1,-2
1470344773611890,1,0,0,4,-3,-2,-3,-1
1470344773619943,0,-5,-3,-1,-1,0,-2,-2
1470344773619943,-1,-1,-6,-3,0,-1,0,0
1470344773635898,0,-1,5,7,-1,-1,-1,-3
1470344773635898,-1,-3,-5,-4,0,-2,0,-2
1470344773636900,-2,-4,-2,-1,-3,-1,0,1
1470344773636900,0,3,4,-4,-1,0,-1,-1
1470344773658515,-5,-6,-5,-2,-1,0,0,-1
1470344773658515,-3,-2,7,2,-2,-1,-3,-1
1470344773660066,-3,1,1,6,0,-2,-2,-2
1470344773660066,-1,-2,-4,-2,-1,0,-1,-1
1470344773671184,2,0,0,-5,-1,-1,-2,0
1470344773671184,-2,-1,-8,-11,0,0,1,1
1470344773680179,-1,-3,-1,-1,-2,-1,-1,-1
1470344773680179,0,2,0,2,-2,0,-1,-1
1470344773695163,-3,-3,1,-1,-1,-3,0,-1
1470344773695163,-3,-3,-1,0,0,-2,1,-2
1470344773697152,0,-2,0,-2,-2,-2,-1,0
1470344773697152,0,-4,-12,-10,-3,-1,0,0
1470344773718171,-1,-1,7,2,0,0,0,0
1470344773718171,-2,-1,6,4,-3,-3,-1,0
1470344773719172,0,-1,-3,0,-1,0,0,-3
1470344773719172,-1,-4,-2,-2,1,0,0,-1
1470344773731182,1,-3,-9,-4,0,-1,0,-1
1470344773731182,-4,-7,6,0,-2,1,-2,-3
1470344773741197,1,2,-3,-8,-1,-1,-1,0
1470344773741197,-3,-6,7,9,-2,-1,-2,-2
1470344773755770,-2,-2,-5,-3,-2,-1,-3,-2
1470344773755770,-1,-3,-2,-2,0,-2,0,0
1470344773757240,0,2,3,-2,-1,-2,0,0
1470344773757240,1,-4,-1,-1,-1,0,-1,-3
1470344773777296,-1,-2,-4,0,-1,-1,-1,-1
1470344773777296,1,3,-6,-5,0,0,0,0
1470344773792358,-3,-5,-4,-5,-1,-1,-1,0
1470344773792358,-1,2,18,11,-3,-2,-1,-2
1470344773793310,0,3,7,9,-1,-1,-2,-1
1470344773793310,-1,1,-4,-2,-1,-1,-1,-1
1470344773800317,1,1,-10,-4,0,-1,0,-1
1470344773800317,1,-5,-8,-5,-1,-1,-1,1
1470344773815385,-2,-4,2,-2,-2,-2,-1,-3
1470344773815385,0,2,-1,0,-1,-1,1,-1
1470344773817332,-3,-3,1,0,0,0,-2,-2
1470344773817332,-1,3,-9,-6,-1,0,-1,0
1470344773838350,-2,1,10,2,-4,-1,1,-1
1470344773838350,-1,-2,-3,2,-5,-3,-2,-2
1470344773839351,-2,3,-2,0,-1,-1,-2,-1
1470344773839351,-1,-1,-1,4,1,-2,-2,-1
1470344773851955,-1,-1,-5,-7,1,1,1,2
1470344773851955,1,-1,1,-3,0,-1,1,-1
1470344773860941,1,0,2,0,-1,-1,-1,-3
1470344773860941,0,9,-1,-4,-2,0,0,-3
1470344773875471,-1,-5,-11,-8,-2,-3,-1,0
1470344773875471,0,-3,11,3,-2,-3,-2,-4
1470344773877474,-2,0,4,4,-2,-1,-1,-1
1470344773877474,0,1,-2,-3,-1,-1,-2,-1
1470344773898452,-1,-1,-3,-1,-1,0,0,-1
1470344773898452,-2,1,-8,-7,0,0,-1,0
1470344773899450,-3,-1,-3,-6,0,-1,0,-1
1470344773899450,-1,-7,-1,-2,-1,-2,-1,-1
1470344773911460,-2,0,6,2,-2,-2,-3,-2
1470344773911460,-1,-1,-8,-2,0,-1,-1,-2
1470344773920467,0,-2,10,6,0,-2,0,-3
1470344773920467,-1,-2,-1,-2,0,-1,0,-1
1470344773935481,0,3,-5,-5,1,1,-1,1
1470344773935481,2,-1,-5,-2,0,0,-2,-1
1470344773937487,-1,0,-1,1,-2,1,-2,0
1470344773937487,-1,-3,-2,-3,-2,-1,-1,-3
1470344773958548,0,1,-1,-1,0,-1,-1,-4
1470344773958548,-2,-4,5,2,-1,-1,-2,0
1470344773959522,-3,2,-4,-3,0,-1,-1,-1
1470344773959522,-1,-3,2,3,-1,0,-2,-1
1470344773980627,0,-6,-2,2,-3,-3,-1,-1
1470344773980627,0,5,-4,-3,-1,-1,2,1
1470344773982576,1,0,2,-3,-1,-2,0,-1
1470344773982576,-3,-10,-6,0,-3,-1,-2,-1
1470344773995630,-3,1,2,-2,0,-1,0,-2
1470344773995630,-1,-4,-2,1,0,1,0,0
1470344773997592,0,-2,-4,-1,-1,0,-1,-1
1470344773997592,-1,1,2,-4,-2,-2,-1,0
1470344774018662,0,0,-8,-2,0,1,0,0
1470344774018662,-1,-1,1,-3,-2,-1,-2,-2
1470344774019611,-1,-5,-4,-2,-3,-2,-1,1
1470344774019611,-5,2,-2,-1,1,0,1,0
1470344774040663,-2,0,7,4,-3,-1,-2,-2
1470344774040663,-2,-1,1,-3,-1,-2,-2,-1
1470344774042631,-2,-2,1,4,-2,-2,-1,-3
1470344774042631,0,-4,-3,-1,0,-1,-2,0
1470344774055747,-1,-3,-10,-12,-2,-2,-1,-2
1470344774055747,-2,-1,1,-3,-1,-2,-2,-1
1470344774057204,0,-2,5,3,-1,-2,-1,-2
1470344774057204,0,-2,3,2,-2,-1,0,-1
1470344774077782,0,1,1,3,0,-2,-1,0
1470344774077782,-1,-4,-5,1,-1,1,-1,-1
1470344774079729,-2,0,-3,-5,-2,0,-3,-1
1470344774079729,0,0,-3,-4,-1,-1,-3,-1
1470344774100803,1,0,1,0,-1,-2,-1,-1
1470344774100803,1,-2,-1,-3,-1,-1,-3,-1
1470344774101749,-1,2,-5,7,-2,-2,0,1
1470344774101749,-1,-2,9,2,-2,-1,-1,-1
1470344774114815,-1,-1,-6,-1,-2,-2,-2,1
1470344774114815,-3,1,-3,-2,1,-1,0,-2
1470344774121819,0,-2,-1,-1,-2,-1,-2,-1
1470344774121819,-1,0,-5,-2,-2,-2,0,-1
1470344774137782,-1,2,1,-3,0,0,0,0
1470344774137782,-4,1,5,3,-3,-1,-2,-2
1470344774139784,-2,-5,-3,-3,-1,0,0,0
1470344774139784,0,-1,-2,-3,-1,-2,-1,-2
1470344774160868,-2,-2,-6,-4,-1,0,-1,-1
1470344774160868,3,-4,-4,-2,0,0,-1,0
1470344774161868,-3,2,4,-1,-1,-2,-2,-1
1470344774161868,0,0,-6,-3,-1,0,0,0
1470344774174931,-4,-6,6,0,-1,-1,-1,-2
1470344774174931,-3,0,3,4,-1,-2,-1,-2
1470344774181939,0,-5,1,3,-1,-2,-1,-2
1470344774181939,1,7,-3,-4,0,-1,0,0
1470344774197954,-4,-8,-5,0,-1,0,-1,-2
1470344774197954,-3,-2,-1,-3,-1,-1,0,-3
1470344774199952,-2,-1,-16,-8,-1,-1,-1,1
1470344774199952,-3,-6,6,-1,-3,-1,-2,-1
1470344774220981,0,7,3,7,-1,0,-1,-1
1470344774220981,-2,-2,-1,-1,-1,0,-1,1
1470344774221928,0,-5,-1,-1,-1,0,-1,-1
1470344774221928,0,12,-1,-1,-2,0,-1,-1
1470344774234999,-1,0,-6,-6,-2,-2,-1,-2
1470344774234999,-2,-9,6,1,-2,-2,0,-1
1470344774241948,0,6,0,3,-2,-2,-2,-1
1470344774241948,-1,-4,-5,-2,0,0,-1,-1
1470344774258526,-1,-2,6,2,-2,-2,-3,0
1470344774258526,1,3,-2,-4,-1,-2,-1,2
1470344774260056,-4,-5,-1,1,0,-2,-1,-1
1470344774260056,-2,-3,-4,-3,-1,-2,-2,-2
1470344774280157,1,-3,-4,-3,0,0,0,0
1470344774280157,-1,1,1,2,-2,-3,-2,-2
1470344774282101,-4,0,7,1,-1,-2,-1,-2
1470344774282101,0,-5,-2,3,1,-2,0,-1
1470344774295132,-2,-1,-5,-2,0,-1,-1,-2
1470344774295132,0,-3,-7,-5,-1,-1,-1,-1
1470344774302144,1,2,1,-2,-1,-1,0,-3
1470344774302144,0,-4,-4,-4,-2,-1,-2,-1
1470344774318189,0,1,-5,-6,-1,-2,-1,1
1470344774318189,-2,-1,14,14,-3,-2,-1,-1
1470344774320135,2,-2,-4,-2,0,0,-2,2
1470344774320135,-4,2,3,-2,0,0,0,-2
1470344774348250,1,3,-7,-6,0,-1,-1,1
1470344774348250,-3,-9,-8,-6,-2,0,0,-2
1470344774350194,1,2,-2,-3,1,0,2,0
1470344774350194,-3,-1,1,3,1,0,-1,-1
1470344774355199,-3,-5,0,-1,-3,-1,0,-3
1470344774355199,-2,3,-4,-5,0,1,-2,-1
1470344774361722,0,-3,11,4,-3,1,0,-1
1470344774361722,0,-7,-2,1,-1,-2,-3,1
1470344774378841,-1,-1,-3,5,0,-2,-1,-2
1470344774378841,2,1,-6,-4,0,-2,0,0
1470344774379836,0,-4,-9,-7,-1,0,-1,-1
1470344774379836,1,0,-5,-7,-2,1,0,0
1470344774400859,-2,-2,9,5,-2,-1,-1,-1
1470344774400859,-2,-1,0,0,-3,-1,-1,-2
1470344774401856,-3,1,-2,-1,-1,-2,-2,-3
1470344774401856,-2,-3,-2,0,0,0,-2,-2
1470344774414867,1,4,1,-2,-1,-1,0,1
1470344774414867,-2,0,-7,-4,-1,1,1,-1
1470344774421873,-1,-5,2,0,0,-1,0,-1
1470344774421873,-2,2,1,0,-3,-2,-1,-1
1470344774437890,-2,-11,5,2,-2,0,-2,-2
1470344774437890,0,-2,-5,-2,0,-1,-1,0
1470344774439890,0,-2,4,0,-1,-1,-1,1
1470344774439890,-2,-2,-12,-7,-3,-2,-2,0
1470344774460913,-3,1,4,2,-2,1,0,0
1470344774460913,-1,0,-1,0,1,-2,-1,0
1470344774462415,-2,-8,-4,-4,-1,-3,0,-1
1470344774462415,1,0,0,3,3,-1,0,0
1470344774474430,-1,-2,-3,-6,-1,-2,-2,-1
1470344774474430,-2,0,2,2,-2,-1,-2,-2
1470344774483440,-1,1,-4,-1,-1,0,-1,0
1470344774483440,-1,-4,5,-4,-3,-3,-2,0
1470344774498452,1,0,2,5,-1,1,0,0
1470344774498452,-2,-2,2,3,-1,-1,0,-1
1470344774499452,0,2,-2,1,-1,-1,-1,-2
1470344774499452,-3,-5,-5,-2,-3,-2,1,-2
1470344774520471,0,2,-10,-7,0,-1,1,0
1470344774520471,-2,-2,14,4,-4,-4,-1,-2
1470344774522475,-2,1,-2,0,-2,-1,-2,-2
1470344774522475,-2,-6,2,3,0,-1,-1,-2
1470344774534483,-3,-4,-11,-5,0,-1,-1,-2
1470344774534483,0,-2,-12,-9,-2,-1,-2,0
1470344774543492,-1,-1,14,6,0,-2,-2,-1
1470344774543492,-1,2,12,2,-2,-3,-2,0
1470344774558509,-1,0,-4,-1,-1,-1,-1,-2
1470344774558509,-1,-1,-2,-2,0,1,0,0
1470344774559511,0,-2,-9,-5,-1,-2,0,-1
1470344774559511,0,0,0,0,-1,0,-2,-1
1470344774580533,-1,-4,-7,-3,-1,-1,-1,-2
1470344774580533,-3,1,6,3,1,-1,-1,-1
1470344774582535,-2,-1,-9,-6,-1,-1,-1,-1
1470344774582535,-3,-1,9,10,1,-4,0,-1
1470344774594546,-1,6,-1,1,0,0,-3,-1
1470344774594546,1,-3,-7,-1,0,0,0,-1
1470344774603553,0,-2,-4,-5,-3,0,0,-1
1470344774603553,0,-2,-7,-2,-1,-2,1,-2
1470344774618566,0,-2,8,-1,-1,0,0,-2
1470344774618566,-2,2,1,-2,-1,0,-2,0
1470344774619568,-2,-4,2,2,-3,-1,0,0
1470344774619568,1,1,-2,4,0,0,-1,1
1470344774640614,-1,-2,3,2,-1,-3,0,-2
1470344774640614,2,-2,-5,-5,0,1,0,-1
1470344774642587,0,0,-12,-8,-1,-1,-1,-1
1470344774642587,0,-3,-2,-6,-1,0,1,1
1470344774654631,-3,-3,14,10,-3,-4,-2,0
1470344774654631,0,-4,-2,3,-1,-1,0,-1
1470344774663544,2,11,-3,-1,0,-1,-1,-1
1470344774663544,-1,-1,-9,-6,-2,1,-1,-1
1470344774678556,0,-3,-2,-3,0,-1,-1,1
1470344774678556,0,1,-2,-2,-1,-3,-1,-1
1470344774679558,-4,-6,-5,-4,0,0,0,-1
1470344774679558,0,-1,12,1,-3,-1,-3,-1
1470344774700607,0,0,-5,6,-1,2,-1,1
1470344774700607,-2,-1,2,-5,-1,0,-3,-1
1470344774702579,0,-3,-5,-3,-2,-2,0,-1
1470344774702579,-2,-1,-4,-1,-1,0,-1,-2
1470344774714588,-3,-2,-3,-3,-1,0,-2,-2
1470344774714588,0,2,-5,0,-1,0,-1,0
1470344774723598,-1,-2,-3,-2,2,-2,-1,0
1470344774723598,-1,-1,6,1,-3,-2,0,-1
1470344774738660,-2,3,3,8,0,-1,-2,-1
1470344774738660,-1,-1,-3,-2,-1,-1,0,-1
1470344774739614,-3,-3,5,0,-2,-1,1,0
1470344774739614,0,-3,-14,-6,1,0,0,1
1470344774760754,2,-1,-3,-7,-2,-1,0,0
1470344774760754,-2,-1,10,5,-2,-1,-2,-1
1470344774762204,0,-3,-6,-3,0,0,-2,-2
1470344774762204,1,1,-11,-5,1,1,-1,-2
1470344774774714,-3,0,18,8,-2,-1,-3,-3
1470344774774714,-1,0,-9,-5,-2,-1,-1,-2
1470344774782723,1,0,6,1,-1,0,-2,2
1470344774782723,-2,-3,-8,-3,-2,0,-1,-3
1470344774797740,-1,-5,-7,-10,0,-1,-2,-2
1470344774797740,-2,3,0,-1,1,-1,1,-1
1470344774799738,-1,-5,2,5,-3,-2,0,-3
1470344774799738,-2,4,6,0,0,-1,-1,-1
1470344774820757,-2,-2,-8,-9,-1,0,0,1
1470344774820757,-1,-6,4,8,-2,-2,-1,-2
