timestamp,emg1,emg2,emg3,emg4,emg5,emg6,emg7,emg8
1470242920883165,-21,-9,20,-4,-5,0,4,4
1470242920883165,12,6,-12,0,0,-3,-2,-3
1470242920884167,2,-3,5,2,1,0,-3,-2
1470242920884167,-9,-3,-4,-5,-4,0,1,0
1470242920885165,1,5,-4,-4,-3,-1,0,-2
1470242920885165,3,-5,-5,1,1,0,-3,-2
1470242920885667,-1,0,20,2,1,0,0,0
1470242920885667,-13,-2,-10,-1,-5,-2,-1,-1
1470242920896676,17,-1,-15,2,4,-2,-3,-3
1470242920896676,-7,2,5,-2,-1,-1,0,-1
1470242920905686,-11,-5,-6,-12,-5,0,0,4
1470242920905686,9,-3,-10,1,0,-3,-3,-4
1470242920911690,3,-4,2,2,2,0,-2,-1
1470242920911690,-8,3,0,-9,-1,1,1,3
1470242920927205,-3,0,16,6,-3,-4,-2,-5
1470242920927205,5,9,2,1,0,-3,-2,-1
1470242920935212,-3,-2,-4,-3,-1,-2,0,-1
1470242920935212,-7,-6,8,-2,-4,0,-1,-1
1470242920950226,8,2,-19,-2,1,-2,-2,-1
1470242920950226,0,-7,3,-3,0,0,-2,3
1470242920958232,-8,-6,-4,-3,-2,1,-1,1
1470242920958232,4,2,4,3,-2,0,-1,-1
1470242920971244,-3,1,-7,2,-2,0,-1,-2
1470242920971244,-3,-3,4,-2,-1,-1,-2,1
1470242921012281,-1,-6,-6,-2,1,0,-1,-2
1470242921012281,-21,1,22,-8,-5,0,2,3
1470242921012781,14,-6,-35,-2,0,-4,-2,-8
1470242921012781,-1,4,9,3,1,-1,-2,1
1470242921013782,-7,-2,-1,-2,-2,2,0,3
1470242921013782,8,0,2,1,-1,0,-2,-3
1470242921016285,0,1,1,0,-1,1,-2,0
1470242921016285,-5,-4,-4,-3,-2,0,-1,-2
1470242921024792,-8,-1,3,-2,-5,-1,-1,0
1470242921024792,15,2,-17,0,4,-3,-3,-3
1470242921032799,-6,-8,6,-1,-1,-2,1,0
1470242921032799,-11,3,14,-2,-5,1,0,1
1470242921038804,11,-6,-10,5,1,-2,-2,-3
1470242921038804,-3,0,5,2,-1,0,-1,-1
1470242921061825,-8,-2,-6,-7,-3,-2,0,0
1470242921061825,3,2,12,6,-1,-3,-3,-3
1470242921062826,-4,-1,9,4,1,-1,-3,0
1470242921062826,-1,0,-14,-4,0,-1,-2,0
1470242921085346,-5,2,6,0,-2,-1,-1,1
1470242921085346,6,-4,-12,0,3,0,0,0
1470242921085847,-1,1,13,0,-4,-2,-1,-3
1470242921085847,-8,-4,-5,-1,-3,1,1,-1
1470242921099359,4,9,-2,1,0,1,-1,-1
1470242921099359,0,-1,1,-1,-1,0,-2,-2
1470242921100360,-7,4,-7,-4,-1,-1,1,0
1470242921100360,1,-6,6,1,0,-2,-2,-3
1470242921122379,0,8,3,-1,-1,1,1,1
1470242921122379,-3,-4,-7,-3,0,-2,-1,-1
1470242921122879,1,0,-3,-2,-1,-1,0,-1
1470242921122879,1,-3,-7,-2,-2,-2,-1,-1
1470242921145400,0,-1,14,5,0,0,-2,-2
1470242921145400,-6,-6,-21,-6,0,-2,0,0
1470242921145900,3,-4,11,-1,0,-2,0,-1
1470242921145900,1,2,-9,-4,-2,-2,-1,0
1470242921159413,-6,-8,7,0,-3,0,1,1
1470242921159413,4,4,-2,-1,-1,2,0,-1
1470242921160413,-2,3,-8,-5,0,-1,0,0
1470242921160413,-1,-11,4,3,-1,0,0,-1
1470242921181933,-3,-4,13,6,-2,-4,-2,-1
1470242921181933,-3,0,-22,-1,-2,-2,0,-2
1470242921182934,0,-6,-3,-3,-1,-1,-2,0
1470242921182934,-1,2,10,-2,-3,-1,-1,0
1470242921204954,3,-2,-9,-2,0,0,0,-1
1470242921204954,-1,-5,8,-3,-1,0,-1,-1
1470242921205955,-2,-2,2,1,0,0,-1,0
1470242921205955,0,-1,-2,3,-2,0,-2,-1
1470242921219467,-5,-6,-12,-6,-2,-2,-2,-4
1470242921219467,0,-1,5,-1,-4,-2,-1,-1
1470242921220467,3,1,-9,-6,-3,-1,-1,-2
1470242921220467,0,6,0,-1,2,0,-1,1
1470242921241987,-4,3,17,6,-2,2,-1,2
1470242921241987,-3,-3,-9,-9,-1,-1,-3,-3
1470242921242487,-1,1,-6,-1,-1,-2,-2,-2
1470242921242487,0,-2,-4,-1,-1,-2,-1,-1
1470242921265007,-2,-4,-7,-6,-1,-1,1,0
1470242921265007,2,2,5,1,3,0,-2,0
1470242921266008,-4,-2,3,2,-3,0,0,-1
1470242921266008,-3,-3,-6,-1,-2,0,-1,-1
1470242921279524,5,0,-6,-1,-1,-2,-2,-2
1470242921279524,-5,-6,2,0,-3,-1,-1,-2
1470242921280021,-1,1,6,0,0,-3,-1,-1
1470242921280021,-4,-4,-22,-3,-3,-3,-2,1
1470242921302041,-2,-1,12,2,2,-2,0,1
1470242921302041,-4,-3,-7,5,-1,-2,-3,-2
1470242921302542,-5,-4,-2,0,-4,-2,-2,-1
1470242921302542,2,4,-2,1,0,-1,1,0
1470242921325062,-1,4,-1,-4,-2,0,-1,0
1470242921325062,-2,-12,5,4,-1,-2,2,-1
1470242921326063,2,7,0,1,0,-1,-2,-1
1470242921326063,-2,-2,5,1,0,2,-2,-2
1470242921339576,-3,-8,-31,-10,0,-1,-1,-5
1470242921339576,2,4,7,-3,-1,-2,0,0
1470242921340077,-1,-14,7,3,-2,0,-2,-2
1470242921340077,1,13,3,0,-1,-2,-1,0
1470242921362094,-3,-3,-1,-2,-1,-1,-2,0
1470242921362094,1,1,-1,-2,-1,-2,-3,0
1470242921362596,-3,-3,-4,-7,-2,0,0,-1
1470242921362596,1,-5,2,0,0,0,-1,-2
1470242921385117,-2,4,-2,1,0,1,-2,-1
1470242921385117,-3,-2,2,1,-1,-1,0,-1
1470242921385616,-2,0,-5,-4,-1,-2,-1,0
1470242921385616,-1,1,10,2,-2,0,-2,-1
1470242921398628,-1,-8,-18,-6,-3,-3,-1,-1
1470242921398628,0,-2,1,-4,0,1,-1,1
1470242921407135,-3,8,2,2,-1,-3,-1,-2
1470242921407135,-3,-1,-1,4,-1,0,1,-1
1470242921422148,0,-5,0,-1,-1,-1,-2,-1
1470242921422148,-2,-1,-7,-9,0,0,0,-1
1470242921422649,3,-3,21,0,-1,0,-3,-1
1470242921422649,-5,-4,-8,2,0,-1,-1,-1
1470242921445170,-4,0,26,5,1,0,-2,-3
1470242921445170,0,-3,-34,-8,-1,-3,-2,-2
1470242921446170,-1,2,-5,-1,1,-1,0,-1
1470242921446170,-1,-2,7,-4,-4,-2,0,-2
1470242921459183,0,2,4,1,0,0,1,-1
1470242921459183,1,-3,7,-1,-1,0,-2,-1
1470242921467189,-2,-5,-9,-3,-1,-2,2,0
1470242921467189,-1,0,-10,-4,0,-1,-1,-3
1470242921481702,7,8,1,-1,-2,-2,0,0
1470242921481702,-4,4,16,9,-2,-1,-1,-2
1470242921482703,0,-3,-15,-3,0,1,1,1
1470242921482703,-1,-8,-9,0,-1,0,-2,-2
1470242921505224,-3,3,6,-1,-1,-2,-3,0
1470242921505224,0,5,17,4,-2,0,-1,-2
1470242921505724,-1,-9,-49,-14,-2,-2,-1,-2
1470242921505724,-3,4,20,9,-2,-1,-2,0
1470242921518735,-1,-5,-8,-5,-1,0,-1,-1
1470242921518735,-4,-3,-8,-2,-1,-1,-1,-1
1470242921527242,-1,1,0,4,1,-1,-1,-1
1470242921527242,-2,-4,-5,-6,-1,1,0,1
1470242921542257,-1,-3,-9,-3,-1,-4,-4,-2
1470242921542257,2,7,12,0,0,-1,0,0
1470242921542757,0,-8,7,2,0,0,0,1
1470242921542757,-1,3,-5,-5,-2,-2,0,-1
1470242921565277,-5,-1,10,5,-1,0,0,-1
1470242921565277,5,-4,-5,-6,-1,0,0,0
1470242921565778,-2,4,22,10,0,-1,-2,0
1470242921565778,-1,-5,-1,-7,-4,-2,-2,2
1470242921578789,1,-3,-5,-2,0,-1,-1,-3
1470242921578789,-4,0,2,-4,-2,0,-1,-2
1470242921587296,-1,1,-9,-2,-1,-1,-2,1
1470242921587296,3,-4,5,0,0,-2,-1,-2
1470242921601812,0,-2,6,2,-2,-2,0,1
1470242921601812,-3,-4,2,-3,-3,-2,-1,-3
1470242921602813,-3,7,8,2,-2,-1,1,0
1470242921602813,1,3,-27,-10,1,0,-1,0
1470242921625330,-8,-18,14,-1,-3,-1,-1,1
1470242921625330,-3,0,-1,-1,-1,-2,-1,-3
1470242921625831,0,-2,3,0,-1,0,0,0
1470242921625831,0,0,2,1,0,-1,0,-2
1470242921638845,0,4,5,-3,-1,0,0,-1
1470242921638845,0,-3,-18,1,0,-2,-3,1
1470242921646854,-2,2,-1,-5,-3,0,-1,-1
1470242921646854,-5,-8,-4,-2,-1,-2,-1,-2
1470242921670371,0,3,-5,-6,-1,0,0,1
1470242921670371,-2,-2,17,5,-1,-1,-1,-2
1470242921670872,1,-1,-25,-8,-2,-1,-1,-1
1470242921670872,-6,-3,7,-2,-1,-1,-3,-2
1470242921685385,2,2,-11,1,1,-2,-1,-1
1470242921685385,-3,-4,-13,-1,0,-1,0,1
1470242921685886,1,-2,0,-5,-2,1,-1,-2
1470242921685886,0,-2,12,3,-1,-2,-1,-1
1470242921698897,-3,7,-7,-1,-1,1,1,-2
1470242921698897,-2,-3,-14,-5,1,-1,-2,0
1470242921707405,0,-1,5,2,1,0,1,0
1470242921707405,1,3,0,2,-1,1,-2,0
1470242921721918,0,2,-4,-6,-2,-1,0,-2
1470242921721918,0,2,2,-1,-1,-1,-1,0
1470242921722918,1,-1,7,-2,1,-1,-2,-2
1470242921722918,-2,2,3,0,-2,-2,0,1
1470242921744939,-4,-20,-1,1,-4,-1,0,-1
1470242921744939,1,2,-12,-3,-1,0,0,-1
1470242921745940,-2,-2,12,-1,0,-1,-3,0
1470242921745940,0,0,-4,0,-2,1,1,-1
1470242921758950,-1,-1,6,3,1,-1,-2,-1
1470242921758950,-2,1,7,6,-1,-2,0,-2
1470242921766959,-3,-4,-10,-7,-4,-3,-2,-2
1470242921766959,-2,-3,6,-2,-1,-1,-1,-2
1470242921781972,2,4,-8,0,-1,-1,-1,0
1470242921781972,0,0,8,-2,-3,-1,-3,-1
1470242921782973,0,2,-7,0,0,-2,0,0
1470242921782973,0,-5,-3,-1,-1,-3,-2,-1
1470242921804993,-3,2,3,-5,-1,-1,-1,-2
1470242921804993,-1,-1,4,-1,1,1,1,0
1470242921805994,-1,-3,12,2,-2,0,-1,0
1470242921805994,1,-1,-3,4,0,-1,-1,0
1470242921827514,-1,0,-6,0,-1,0,-1,0
1470242921827514,-1,1,5,-1,-3,-2,-2,0
1470242921828514,0,0,-5,-2,0,-2,-1,-1
1470242921828514,-3,-4,0,-3,-1,-1,-2,-1
1470242921842025,0,3,-1,3,-1,-2,-2,-1
1470242921842025,0,-8,-7,-2,-2,1,-1,-2
1470242921842526,-5,-5,-3,4,0,-1,-1,-1
1470242921842526,-1,12,16,0,-1,-1,0,0
1470242921865046,1,0,-10,-2,1,1,0,-1
1470242921865046,0,-10,-14,-3,-2,-2,1,-3
1470242921866047,-3,-1,10,-3,-3,-3,-2,-2
1470242921866047,-2,-8,-15,-6,-3,0,0,0
1470242921895073,0,1,8,3,-1,-2,-2,-1
1470242921895073,-5,2,0,-4,-2,-1,-1,0
1470242921896074,-4,0,-6,-3,0,0,-1,-2
1470242921896074,3,1,-4,-2,-2,-1,-2,-2
1470242921902080,-3,0,1,-3,-1,0,-1,3
1470242921902080,-1,1,-3,2,0,-2,-1,-2
1470242921902580,-3,-4,-6,-3,-3,-2,0,1
1470242921902580,-2,-1,-9,-3,1,-1,-2,-4
1470242921925101,-1,-2,8,4,0,-1,-2,-2
1470242921925101,-2,2,-11,0,0,0,0,2
1470242921926101,1,-6,-7,-1,-1,-3,-2,-1
1470242921926101,-3,-5,6,-2,-2,0,-2,0
1470242921947620,-2,-3,-1,-2,-2,-2,-1,-2
1470242921947620,2,7,-4,-5,0,-1,0,-3
1470242921948621,-1,-4,20,3,1,0,1,-2
1470242921948621,-2,-5,-23,-2,-1,0,-2,-1
1470242921961633,-1,-4,16,1,-2,-1,0,-2
1470242921961633,-2,1,-2,-5,-2,-1,-2,0
1470242921962635,-1,4,1,3,-3,1,-2,-1
1470242921962635,-2,-1,1,1,-1,-2,-1,0
1470242921983653,1,-1,-1,0,0,-1,0,-1
1470242921983653,0,-2,6,-3,0,1,0,-1
1470242921992661,-6,3,2,-2,-2,-1,-2,-2
1470242921992661,0,4,14,9,-3,-2,-2,-2
1470242922007675,0,-1,-13,-7,-1,0,-2,-1
1470242922007675,2,-1,2,1,0,0,1,-2
1470242922009176,1,1,-6,-5,0,0,1,-2
1470242922009176,-2,-2,2,-1,-1,0,-1,1
1470242922030194,-2,-5,-14,-8,-1,-1,0,-1
1470242922030194,-4,2,8,2,-1,0,-3,0
1470242922031696,3,3,9,6,0,-2,-1,0
1470242922031696,-1,-5,-1,0,1,0,1,-2
1470242922043707,-4,0,-34,-10,-4,-2,-2,-1
1470242922043707,1,-5,15,-1,-3,-1,-2,-2
1470242922052715,-1,11,-3,-2,0,1,-1,0
1470242922052715,-1,-7,3,-1,1,-1,-1,0
1470242922067729,0,1,-4,0,0,-1,-1,-2
1470242922067729,-1,0,9,4,-1,-1,-1,1
1470242922069229,-2,-3,-9,-1,-2,-1,-1,1
1470242922069229,-1,5,0,-4,-2,0,-1,0
1470242922090249,1,-1,0,3,0,-2,-1,0
1470242922090249,-3,-2,-8,-2,-2,-2,0,-3
1470242922091750,0,-3,-11,0,-3,0,0,0
1470242922091750,2,-2,-6,-2,0,1,-1,-1
1470242922103761,-5,-3,15,5,-3,0,-2,2
1470242922103761,-2,0,-7,-3,-2,-1,-1,0
1470242922120276,2,-3,4,0,-2,-3,-1,-2
1470242922120276,3,-1,-3,-4,0,0,0,-2
1470242922127783,0,2,2,2,-2,0,0,-2
1470242922127783,-4,-3,-4,-2,-1,-2,-1,0
1470242922129285,-4,-3,-1,4,0,1,-1,-2
1470242922129285,-4,-4,-6,-2,-1,-3,0,-1
1470242922150302,0,-2,9,-1,0,-1,-1,0
1470242922150302,4,3,-12,-3,0,-1,-1,-1
1470242922151804,-4,-11,20,2,-1,-2,-1,-2
1470242922151804,-1,-2,-8,-8,-2,-3,0,1
1470242922163815,-5,-2,13,3,-2,-2,-2,-3
1470242922163815,-1,-6,-10,3,-2,-2,-1,0
1470242922172822,0,1,-11,-2,-2,-2,-1,0
1470242922172822,-1,0,10,1,-2,1,0,-3
1470242922187836,1,0,-12,-6,0,-2,-1,0
1470242922187836,-3,-1,7,0,-1,-1,-2,-1
1470242922189337,-2,-1,-12,-4,-2,0,-2,0
1470242922189337,2,-2,4,1,-2,0,-1,1
1470242922210357,-1,10,-5,1,0,-1,0,0
1470242922210357,-3,-4,0,-5,0,0,-2,-2
1470242922211857,1,-3,-3,-1,-1,-2,-1,-1
1470242922211857,0,7,1,-2,-1,-2,-2,0
1470242922223868,1,-12,-5,-1,-2,-1,-1,-1
1470242922223868,0,-1,5,3,-1,-1,0,0
1470242922232876,-4,5,16,-1,0,-2,-3,-1
1470242922232876,-1,-7,1,2,-2,-3,-3,-2
1470242922247890,-1,-1,-14,-3,-1,1,-3,-1
1470242922247890,-5,-3,7,2,0,-3,1,-1
1470242922249391,0,8,7,-1,-1,0,1,0
1470242922249391,-1,-4,-2,5,0,0,-1,-3
1470242922269911,5,2,2,-3,-1,-2,-1,0
1470242922269911,-2,-5,-6,-6,-2,-1,-1,1
1470242922271911,0,-9,0,-2,-1,-1,0,0
1470242922271911,0,8,1,-1,-2,0,-1,2
1470242922283922,0,-1,-2,-1,-1,1,1,-1
1470242922283922,-2,-1,-2,-1,-2,-1,-2,-2
1470242922292930,-3,-6,0,-3,-2,-3,1,1
1470242922292930,3,8,-1,0,0,-2,-1,-2
1470242922307444,-5,-5,-7,-6,-3,-1,1,1
1470242922307444,0,0,7,1,-1,-1,-1,-1
1470242922309446,0,5,-11,-1,0,0,-1,-2
1470242922309446,-7,-9,-2,-2,0,-1,0,-1
1470242922329964,-2,0,10,5,-1,-1,0,-2
1470242922329964,-1,0,-3,-3,-3,-4,-1,-1
1470242922331465,2,5,-20,-5,-2,0,-1,-2
1470242922331465,-2,-3,0,-2,-1,-1,-1,0
1470242922352484,-1,-2,3,-4,-1,-2,0,-2
1470242922352484,0,-1,2,-1,-2,0,-1,-1
1470242922353986,-3,-7,-10,-2,0,-1,-2,-1
1470242922353986,-2,-5,-9,-4,-1,0,-1,-1
1470242922375004,0,-1,-15,-5,0,-3,-2,-1
1470242922375004,1,6,22,2,-1,-1,-1,-1
1470242922376505,1,-7,-11,-4,1,-2,0,-1
1470242922376505,-3,0,0,2,0,-1,0,0
1470242922390018,1,-2,1,2,-2,1,-1,-1
1470242922390018,-5,-5,-16,-5,-1,1,-1,0
1470242922391519,-1,2,10,0,-3,0,-2,-1
1470242922391519,1,-2,-3,-1,0,-3,-2,-2
1470242922412538,-4,-8,7,2,0,-1,-2,1
1470242922412538,-1,0,-8,-1,0,0,1,-1
1470242922414039,0,-3,7,0,0,1,-1,0
1470242922414039,-2,2,1,-5,0,0,-1,0
1470242922427051,-1,0,1,1,1,-1,0,-2
1470242922427051,0,0,5,-1,-2,-3,-2,-1
1470242922433557,2,0,-5,4,0,-2,0,2
1470242922433557,-3,-2,8,-8,-2,-1,-1,0
1470242922450071,-2,8,-13,-4,-1,-1,0,2
1470242922450071,5,1,-4,1,0,-2,-1,-2
1470242922451573,-2,-1,-5,-5,-2,-2,-1,-1
1470242922451573,-5,-10,4,2,-2,1,-2,-3
1470242922472592,0,3,18,8,-1,-1,-1,-2
1470242922472592,-2,-5,-9,-4,-2,-3,-1,0
1470242922474094,0,2,1,-5,-1,-1,-2,-2
1470242922474094,1,-2,-3,-1,-1,1,-2,0
1470242922487106,-2,2,-4,-3,-3,-2,-2,0
1470242922487106,-2,-4,5,2,-1,-1,0,-2
1470242922494111,-2,-5,1,-1,-3,-1,0,-1
1470242922494111,-1,0,-4,0,0,0,0,0
1470242922510125,-3,-2,-1,-3,0,-1,0,-1
1470242922510125,-2,-2,-4,3,0,-2,-1,0
1470242922511628,0,-1,2,-3,-3,-1,-1,-3
1470242922511628,-3,0,1,3,-1,-2,-2,-1
1470242922532645,0,-4,-2,-1,0,1,-1,-2
1470242922532645,1,2,-7,-1,-1,1,2,0
1470242922534147,-1,-1,8,-1,1,0,-2,1
1470242922534147,0,1,-4,-2,-2,-1,0,-2
1470242922547158,-11,-4,-7,-3,-4,-3,-2,-3
1470242922547158,2,-2,-7,-1,0,-1,-1,-2
1470242922553664,-5,1,9,3,1,-2,0,2
1470242922553664,0,4,-2,-2,-1,-2,-2,-1
1470242922570180,3,-15,-3,1,0,-1,-1,0
1470242922570180,-3,16,4,-3,-1,1,-1,0
1470242922571682,0,1,-9,-1,-2,0,-1,-1
1470242922571682,2,-3,3,-2,-2,-3,-1,-3
1470242922592699,-4,-5,6,-4,-6,-2,-2,-2
1470242922592699,-2,-5,-2,0,-1,1,-2,0
1470242922594201,-2,2,2,-1,-1,-1,-2,-1
1470242922594201,2,-9,-8,0,-1,-2,-2,-1
1470242922615220,1,5,-2,0,1,1,-1,1
1470242922615220,-2,4,0,-2,-1,0,-1,-3
1470242922617221,2,-4,-5,1,1,1,-1,-2
1470242922617221,-2,2,-4,1,-3,-1,0,0
1470242922630234,1,-1,-2,-2,0,-2,-2,-1
1470242922630234,1,-4,-3,-4,-2,-1,-1,-2
1470242922631735,1,-8,-10,0,-1,-3,-1,-1
1470242922631735,-4,2,11,8,-1,-2,0,-2
1470242922652756,0,2,-2,-1,-2,-1,1,-1
1470242922652756,2,-1,-5,1,0,-2,-3,0
1470242922654756,-3,-1,-2,0,0,-1,-2,-2
1470242922654756,1,-4,-6,-7,-1,0,0,-1
1470242922675274,1,10,1,2,-1,-1,-2,-3
1470242922675274,-4,-6,7,-2,-1,-1,0,0
1470242922676776,-2,-3,-3,1,-1,-2,0,-1
1470242922676776,0,-1,-10,-4,-1,0,-2,-1
1470242922690288,0,1,15,-1,0,1,-1,-2
1470242922690288,-2,-2,-5,5,-4,-2,-1,1
1470242922691792,-3,-1,6,-4,-2,-1,1,1
1470242922691792,0,1,-7,-2,0,-1,-1,-2
1470242922712807,-1,-3,-7,-6,-1,-1,1,0
1470242922712807,-3,-2,1,-3,-1,-2,-1,-3
1470242922714309,0,-1,-1,-1,-1,-2,-1,-1
1470242922714309,-3,-3,0,-1,-1,-2,-1,-3
1470242922726820,-3,-3,-6,-2,-2,-2,-2,-1
1470242922726820,-1,-3,0,-1,0,-1,-1,-2
1470242922733826,0,-2,-2,-2,-4,-1,-1,-1
1470242922733826,-1,0,-3,-3,-2,-1,-1,-2
1470242922750341,-4,0,3,-1,-1,1,0,0
1470242922750341,2,0,0,5,-1,-1,-3,-1
1470242922751842,0,-3,-6,-4,-2,-2,0,-1
1470242922751842,-4,1,24,5,-4,-3,-2,-1
1470242922772539,0,0,-11,-1,0,-1,-1,1
1470242922772539,-3,-6,0,-3,0,0,0,-1
1470242922774541,-1,3,-7,0,0,3,1,-3
1470242922774541,3,6,-1,-2,-2,2,0,0
1470242922787552,-4,-17,-2,0,-2,0,-1,-3
1470242922787552,2,7,-2,-3,-1,-1,-1,0
1470242922793559,-3,-2,-2,-2,-1,-1,-1,-2
1470242922793559,1,-4,-12,-4,0,-1,-2,-1
1470242922810072,-2,3,7,3,-2,-2,-2,-3
1470242922810072,-2,-7,-7,-3,0,0,0,-1
1470242922811574,0,-2,10,4,0,-3,-1,-1
1470242922811574,-1,1,-3,-2,-1,-1,1,1
1470242922832592,3,5,5,-3,2,0,1,0
1470242922832592,-1,-7,-22,-7,-2,-2,-2,-1
1470242922834094,-3,10,35,12,-4,-4,-3,-2
1470242922834094,-3,-4,-10,-10,-1,0,-2,0
1470242922846106,-2,-2,-2,-1,-1,-1,-1,-3
1470242922846106,4,3,-4,-3,0,1,0,-3
1470242922855113,-2,-4,-5,-1,0,0,1,-2
1470242922855113,-4,-2,-4,0,-3,-1,-2,0
1470242922870127,4,-1,2,1,-2,-2,-2,0
1470242922870127,-4,-1,4,-6,-2,-1,-1,0
1470242922871629,-2,-3,-13,-4,-1,-2,-3,-1
1470242922871629,2,1,4,2,-1,-1,-1,-3
1470242922892647,0,3,-8,-2,2,-1,-2,0
1470242922892647,-2,-8,-4,-1,-2,-1,-1,0
1470242922894147,-1,-4,17,1,3,-1,-2,-2
1470242922894147,-5,6,-26,0,-3,-3,-1,-2
1470242922906707,-2,1,-8,-7,-3,-1,-1,0
1470242922906707,-1,-5,0,0,-3,-2,-3,-2
1470242922915166,4,3,0,0,-1,-2,1,0
1470242922915166,0,-6,3,0,2,1,1,-1
1470242922930683,-4,-8,0,1,-2,-1,-2,-2
1470242922930683,-1,4,-1,0,-1,-1,-3,-3
1470242922932182,-4,-4,-10,-4,-2,0,0,0
1470242922932182,0,-4,6,3,-1,-2,-1,-1
1470242922952705,-1,-2,-9,-3,-3,-1,0,-1
1470242922952705,-2,-6,5,1,2,1,0,-1
1470242922954201,-1,0,-7,-3,-3,0,-2,0
1470242922954201,-1,-3,0,-2,-1,-2,0,-1
1470242922966212,2,0,5,0,2,-2,-1,-3
1470242922966212,-4,0,2,-1,-3,-3,-1,0
1470242922975221,-3,2,-6,0,-2,0,-2,0
1470242922975221,1,2,2,0,-1,-1,0,0
1470242922990242,-2,1,-1,0,-2,0,-1,0
1470242922990242,-2,-6,2,-1,0,-1,-1,-1
1470242922991735,1,10,1,0,-1,2,-1,0
1470242922991735,5,-1,-16,-2,2,-1,-2,0
1470242923012754,-3,-1,15,4,-3,-2,-2,0
1470242923012754,-4,4,7,5,-1,-1,-1,1
1470242923014256,1,-5,-9,-4,0,-1,-1,-3
1470242923014256,-1,-2,7,2,-2,0,-2,-1
1470242923026267,2,2,-11,-7,-1,0,1,1
1470242923026267,1,0,-1,-2,0,-3,-1,-1
1470242923035275,-3,-3,1,0,-1,0,0,0
1470242923035275,-2,0,1,-4,-1,-2,-2,-3
1470242923050287,-1,-3,-4,-1,-2,-2,1,-1
1470242923050287,4,-1,3,-2,-2,0,-1,1
1470242923051789,-3,-4,-6,-3,-1,0,-1,1
1470242923051789,-3,8,2,-1,-1,0,-1,1
1470242923072807,0,-9,-2,-2,-1,-2,-1,-2
1470242923072807,-4,0,4,0,-1,-1,0,-1
1470242923074310,2,3,-10,-6,-1,-2,-1,0
1470242923074310,-1,-4,23,3,-3,-2,-3,-2
1470242923086321,-6,1,-12,0,0,0,-1,0
1470242923086321,-4,2,-11,-2,-3,-1,-1,0
1470242923095329,0,-10,1,4,0,-1,0,-1
1470242923095329,1,-3,-4,-4,-2,-1,0,0
1470242923110342,1,2,2,-5,2,-1,0,1
1470242923110342,-4,0,-3,-3,-2,-1,-1,1
1470242923111843,1,2,0,1,1,-2,-2,-2
1470242923111843,-4,-10,-1,1,-2,-1,1,-2
1470242923132862,-2,0,-3,0,-2,-1,-1,-1
1470242923132862,2,4,-2,-3,-1,-1,-2,-2
1470242923134363,-2,-2,4,0,-2,0,0,0
1470242923134363,4,-1,-2,-1,0,-2,0,0
1470242923146374,1,0,9,2,-2,-2,-1,1
1470242923146374,-1,-7,-25,-6,1,1,-1,-3
1470242923155382,-5,1,11,2,-3,-2,-1,-2
1470242923155382,-3,-2,-8,-5,-4,-1,-1,-2
1470242923169896,1,2,3,2,-1,-2,-2,-2
1470242923169896,-3,-6,16,6,-2,-4,-2,-3
1470242923171897,-1,4,-13,-4,1,0,-1,0
1470242923171897,0,-1,-5,-3,0,-1,0,-1
1470242923192916,-3,2,2,-3,-1,0,-1,-2
1470242923192916,1,-3,-5,-3,-1,-1,-2,0
1470242923194417,0,-5,-5,-3,-3,-2,-1,-2
1470242923194417,-2,7,1,2,1,-2,-2,0
1470242923206428,-3,-10,-4,0,-2,0,-2,-2
1470242923206428,-2,7,3,-3,-4,-1,-2,-2
1470242923214936,0,-6,-5,-1,0,0,-3,0
1470242923214936,-3,2,-6,-2,1,0,-1,0
1470242923229950,1,-1,-2,-4,0,1,-1,0
1470242923229950,1,-3,-23,-4,-1,-1,1,-2
1470242923231450,-7,-8,3,10,-6,-3,-1,1
1470242923231450,0,-6,-9,-14,-1,-2,-2,0
1470242923252970,-2,3,-2,0,-2,-3,-1,-1
1470242923252970,0,-3,-8,-4,0,1,0,0
1470242923253971,1,-2,-5,-6,-2,-2,0,-1
1470242923253971,-4,-4,6,4,-2,0,0,-1
1470242923266482,0,-1,-7,0,0,-1,-1,-1
1470242923266482,0,-3,7,-2,0,0,-1,1
1470242923275489,-3,7,3,-1,1,-1,0,-3
1470242923275489,0,9,1,2,-1,-2,0,-3
1470242923290029,-3,-17,-6,-3,-3,-1,0,1
1470242923290029,1,3,11,5,-2,0,-2,-2
1470242923291504,-1,1,-1,-5,-2,-1,-1,-1
1470242923291504,0,-2,-3,-2,2,1,-2,-3
1470242923313024,-3,-1,5,0,-1,-1,0,-2
1470242923313024,-6,-5,-13,-2,-3,-2,-1,1
1470242923314525,1,-5,10,2,0,0,-1,1
1470242923314525,-2,3,4,3,-1,-1,1,1
1470242923335048,-3,2,0,0,1,0,-1,-2
1470242923335048,2,-7,4,3,0,-2,-1,-2
1470242923336561,-2,-7,-3,-6,1,1,-1,-2
1470242923336561,-2,-3,-3,2,-1,-2,-1,-1
1470242923350091,0,6,1,-2,-2,-3,-1,-1
1470242923350091,-2,1,5,1,0,-1,0,-1
1470242923351589,-1,-4,-6,-3,-3,-2,-1,-3
1470242923351589,-1,1,4,0,-1,-1,-2,0
1470242923372577,2,-2,-10,-1,0,-2,-1,0
1470242923372577,0,1,4,-2,-2,-2,1,0
1470242923374078,-2,2,-5,-3,0,0,-1,-1
1470242923374078,4,-3,9,2,-1,-1,-2,-1
1470242923395100,1,3,-18,-5,-2,1,0,0
1470242923395100,-5,-9,9,-3,-1,-2,-3,-1
1470242923396601,3,2,11,8,0,-1,-1,-1
1470242923396601,-4,-4,-4,1,-3,-1,0,-2
1470242923410145,0,6,-12,0,1,-2,0,0
1470242923410145,-1,-10,-6,-4,-1,0,0,-2
1470242923411613,-1,2,-6,-3,-1,0,-1,0
1470242923411613,-2,-7,-3,-4,-1,-1,-1,0
1470242923432658,-4,-4,6,-3,-3,0,-2,1
1470242923432658,0,18,1,2,0,-3,-1,-3
1470242923434132,-4,-4,-4,-1,-1,0,-1,-2
1470242923434132,-1,-1,-5,1,-2,-1,-1,-3
1470242923455152,-1,0,5,1,-1,-1,-1,-1
1470242923455152,-1,0,4,-2,-1,0,-1,0
1470242923456653,0,-1,-4,-1,-1,-2,-2,-2
1470242923456653,-3,-3,-2,-3,0,-1,-2,-2
1470242923469688,1,-1,13,4,-1,-1,0,-3
1470242923469688,-3,-4,-14,-6,-3,-1,-2,1
1470242923483738,-2,6,12,2,0,-1,-1,0
1470242923483738,-2,2,1,1,-1,-3,0,-2
1470242923492713,-2,3,3,0,-2,-2,-1,-1
1470242923492713,1,0,-8,0,0,0,0,0
1470242923494188,2,0,-6,-6,-2,-1,0,0
1470242923494188,-4,-5,3,4,-1,0,1,-1
1470242923515221,-3,-1,2,0,-2,0,-1,-1
1470242923515221,-1,3,4,-2,-2,-1,-2,0
1470242923516708,0,-5,-3,-3,1,-1,-1,-1
1470242923516708,-3,-8,-19,-7,-1,0,-2,-1
1470242923529719,-2,2,6,-2,-1,-2,-2,-2
1470242923529719,0,-5,7,4,-1,0,-2,-2
1470242923536259,-2,10,3,-2,0,-2,-1,0
1470242923536259,-1,-4,-5,-5,-2,-2,0,1
1470242923552812,2,-1,9,6,-4,-1,-2,-2
1470242923552812,-4,1,1,-3,-3,-3,0,-2
1470242923554244,-3,-8,2,2,-1,-2,-1,-2
1470242923554244,1,2,-8,-4,-1,-1,1,-2
1470242923575304,0,-5,-1,-1,0,-1,-1,-1
1470242923575304,-1,5,4,1,1,-1,1,-3
1470242923576762,-2,-4,-1,2,-3,-1,0,-1
1470242923576762,4,0,-6,-3,-3,-3,-3,-1
1470242923589272,-3,-6,-13,-6,-1,-1,-2,-2
1470242923589272,1,3,3,1,1,-1,-1,-2
1470242923596280,3,6,-5,-1,-2,-1,-2,-1
1470242923596280,-2,-3,14,4,0,0,-2,1
1470242923612794,-1,-4,-3,-1,1,-2,0,0
1470242923612794,-3,-11,1,-2,-5,-2,-3,-2
1470242923614295,1,-1,-25,-7,-2,-2,-2,-2
1470242923614295,-3,3,20,6,0,-1,0,-4
1470242923635313,0,-3,-11,-2,0,0,0,1
1470242923635313,1,1,1,0,-2,0,1,-1
1470242923636815,-5,-4,11,4,-1,-2,-1,0
1470242923636815,-2,0,-8,-6,-2,-1,-1,-2
1470242923649838,2,-9,-2,3,1,-2,-1,-2
1470242923649838,-2,-5,-3,-6,0,-1,-2,2
1470242923656332,0,2,-2,-1,-2,-2,-1,-1
1470242923656332,1,2,6,1,-1,-2,-1,-1
1470242923672847,-1,4,-3,1,-1,0,1,1
1470242923672847,-1,3,5,2,1,0,-2,-1
1470242923674348,-5,-10,-12,-1,-4,0,0,-2
1470242923674348,-4,-2,-5,-1,0,0,-1,-2
1470242923695367,-2,-3,0,-3,-1,-1,1,-3
1470242923695367,0,1,11,-3,-2,-1,-1,-1
1470242923696868,3,-2,-5,0,1,1,0,-3
1470242923696868,-4,1,2,2,-2,-1,0,0
1470242923708923,0,4,-3,0,-1,-1,-1,-2
1470242923708923,-1,-11,-21,-11,-2,-1,0,0
1470242923717921,1,0,21,3,1,-1,-2,0
1470242923717921,1,6,-34,-11,-4,-1,-1,-1
1470242923732900,-5,-12,-2,-4,-3,0,-1,-4
1470242923732900,-1,-2,0,4,-2,-3,-3,-1
1470242923734430,-4,-1,4,0,0,-1,0,-1
1470242923734430,1,0,15,-1,-1,-2,-1,1
1470242923755420,0,-1,0,2,-2,0,0,-1
1470242923755420,-1,1,-11,-3,1,1,1,-1
1470242923756924,-1,1,3,-4,-1,-1,1,-1
1470242923756924,-2,-2,0,3,-1,-1,-2,-3
1470242923769435,2,0,-3,-3,-1,-2,-1,-1
1470242923769435,-2,3,-2,1,-2,-1,-3,-2
1470242923776440,-4,-1,-4,-2,-2,-1,-2,0
1470242923776440,5,2,5,-1,3,1,-2,1
1470242923792955,-5,-7,2,0,-2,-3,0,-2
1470242923792955,0,3,4,-3,-3,-1,0,0
1470242923794457,1,-3,-10,-6,-1,-1,-1,-1
1470242923794457,1,-2,3,3,0,0,-1,2
1470242923814975,1,13,12,4,-1,0,0,1
1470242923814975,-1,-3,-1,0,0,1,-1,-1
1470242923816508,0,-2,-10,-3,-1,0,0,-2
1470242923816508,-2,-9,20,1,-2,-1,-2,-1
1470242923828986,-3,4,-27,-6,-1,-1,-1,-1
1470242923828986,2,0,-3,4,1,0,0,-2
1470242923837995,0,2,7,-1,-1,-1,0,1
1470242923837995,-3,10,-1,3,-2,0,-1,-3
1470242923852508,2,-9,8,-4,-2,-2,0,-3
1470242923852508,-4,1,-4,0,1,0,2,0
1470242923854010,-1,-8,-5,1,-2,-1,-1,-1
1470242923854010,0,6,6,1,-1,-3,0,-1
1470242923875030,1,2,-2,-3,-1,-1,-4,-2
1470242923875030,1,-2,-1,-2,0,0,0,-3
1470242923877030,-3,4,13,3,-2,0,-1,0
1470242923877030,0,-5,-11,-2,-3,-2,-1,-1
1470242923889041,-4,-5,-1,3,-4,-2,-2,0
1470242923889041,-1,-2,-3,-9,-1,-2,-2,0
1470242923898050,0,-3,-16,-8,1,-2,0,-3
1470242923898050,-7,-9,3,-6,-4,0,-1,-1
1470242923913063,-2,8,3,7,-1,-2,1,0
1470242923913063,0,-5,10,-5,-1,-1,-3,0
1470242923914065,2,-7,-19,-3,0,1,0,1
1470242923914065,-2,-4,6,3,1,-1,-1,-4
1470242923935116,-2,11,16,-1,-1,0,0,-1
1470242923935116,-2,-10,-6,15,-3,-1,0,-3
1470242923937084,-1,-7,14,-6,-2,-2,0,-1
1470242923937084,0,14,-30,-3,0,0,-1,0
1470242923949128,2,-3,10,2,1,-1,-2,1
1470242923949128,-3,1,0,1,-1,-2,1,-1
1470242923957618,-5,0,3,-3,-1,1,-1,-3
1470242923957618,1,-6,-5,-1,0,0,0,1
1470242923973150,1,4,-4,-6,-1,0,-3,1
1470242923973150,-2,-1,4,-2,-1,-3,-1,1
1470242923974621,-3,4,-9,3,-3,-3,1,-2
1470242923974621,3,-7,8,-1,0,-1,-2,-2
1470242923995181,-2,-7,-3,-8,-2,2,1,-2
1470242923995181,-1,8,8,-1,-2,-1,-1,-1
1470242923996638,-1,-8,2,5,0,-2,-2,0
1470242923996638,-1,2,0,2,-2,-2,-1,-1
1470242924009256,0,1,-32,-4,-1,-2,-1,-1
1470242924009256,2,3,4,0,-1,-3,-1,-3
1470242924018158,-1,-4,2,2,-1,-1,-2,-1
1470242924018158,-1,-2,8,-7,4,0,-2,-1
1470242924040179,-2,-5,-23,0,-3,0,1,0
1470242924040179,2,4,6,-8,-1,-1,-3,-1
1470242924041679,-2,5,-6,3,-1,-2,-1,0
1470242924041679,-2,-6,11,3,-1,0,-1,-3
1470242924055190,3,1,4,3,0,0,0,0
1470242924055190,-2,-2,-16,-5,-1,2,2,1
1470242924056692,-5,-2,23,-1,-6,-4,-4,-4
1470242924056692,4,10,-11,5,2,1,-1,-2
1470242924069264,-1,-8,15,1,0,-3,-2,-1
1470242924069264,-2,21,5,-1,-4,-2,-1,-1
1470242924077711,1,-10,-27,-12,1,0,-3,-1
1470242924077711,-3,-7,-18,3,-5,-4,-2,-1
1470242924092815,0,-2,12,-10,-2,0,-1,-2
1470242924092815,0,-11,-2,4,1,0,2,0
1470242924094251,0,-2,-2,-3,-4,-4,-2,-3
1470242924094251,-6,-5,-7,-6,-1,0,0,2
1470242924115303,0,-6,-2,-2,-1,1,-2,0
1470242924115303,2,1,8,10,2,0,-1,-1
1470242924116756,-3,2,11,8,0,-1,-2,0
1470242924116756,-2,-9,-21,-18,-6,-3,0,-3
1470242924128772,-4,2,24,3,1,-1,-2,-2
1470242924128772,1,1,-12,-1,-1,-1,-2,-1
1470242924145271,-1,-4,4,-1,1,0,-1,1
1470242924145271,-1,1,0,1,-2,0,1,1
1470242924152778,2,5,-4,-1,-1,-1,0,-1
1470242924152778,-4,-12,-3,0,-1,-1,-3,-2
1470242924154284,1,6,-17,-1,2,1,0,0
1470242924154284,1,2,-1,9,-1,-3,-2,-2
1470242924175299,-2,2,12,-9,1,0,0,-2
1470242924175299,-4,-11,-12,-4,-2,-1,-2,1
1470242924176862,0,-2,-1,-10,-2,-1,0,-1
1470242924176862,-2,-1,3,6,1,1,0,-2
1470242924188827,-2,0,-4,-2,-1,-2,0,-2
1470242924188827,0,2,0,-9,0,0,-1,2
1470242924197818,4,4,-1,3,-2,0,0,0
1470242924197818,-1,-1,19,0,1,0,-2,0
1470242924212375,-6,-4,-38,0,-3,-3,-2,-3
1470242924212375,-3,-4,-7,1,-4,-4,-1,-1
1470242924218844,-3,5,4,-6,-2,0,1,1
1470242924218844,1,3,-15,-6,-2,-1,1,-1
1470242924235352,-1,-13,8,10,0,1,-1,1
1470242924235352,2,1,5,2,1,0,-2,-4
1470242924236853,-1,7,-3,-1,0,1,1,0
1470242924236853,-1,0,-2,-5,1,1,-1,2
1470242924257872,3,8,1,0,1,-2,-1,0
1470242924257872,-3,-2,4,-5,-3,-3,-1,-1
1470242924259374,0,-2,22,11,2,-1,0,-1
1470242924259374,-1,-1,-41,-21,-5,-4,-2,-4
1470242924272885,-4,-10,6,3,-1,0,0,0
1470242924272885,-3,2,13,11,3,3,0,-4
1470242924274388,0,1,-9,-4,-1,-3,-2,-2
1470242924274388,0,-6,17,4,2,-1,-1,0
1470242924295448,0,0,-9,-3,-4,-2,-3,-1
1470242924295448,-3,-3,-12,-5,-6,-5,0,0
1470242924296907,-2,1,9,-1,-3,1,-3,-1
1470242924296907,-3,-7,11,4,-2,-3,-1,-2
1470242924317926,-2,19,-10,10,4,2,3,-1
1470242924317926,1,-17,16,-13,-2,-2,-1,-2
1470242924319428,1,0,-13,-6,1,2,0,-1
1470242924319428,-2,-1,17,-5,-2,-6,1,1
1470242924331466,0,3,20,13,-1,-3,-1,0
1470242924331466,-2,-6,-29,10,3,3,1,0
1470242924340455,-2,0,-4,-14,0,2,0,-1
1470242924340455,-4,-9,-2,-1,-7,1,-3,-1
1470242924355460,0,-9,-13,-10,4,-3,-1,-1
1470242924355460,-1,5,7,5,-4,-7,-2,0
1470242924356962,-3,-3,-1,-7,-7,-4,-4,0
1470242924356962,2,-6,-3,9,0,1,0,-2
1470242924377981,-4,-3,5,-10,-3,0,-3,-3
1470242924377981,0,4,-4,0,-1,0,-3,-2
1470242924379505,1,-2,2,-2,2,-4,0,-3
1470242924379505,0,-2,-1,-1,-4,1,-1,-1
1470242924391492,-2,-3,-10,-2,-5,0,-1,-2
1470242924391492,0,2,13,-7,4,0,-1,0
1470242924400500,0,-6,-1,7,0,0,-2,-4
1470242924400500,-3,3,12,-1,-3,-3,-1,0
1470242924423063,-2,-5,3,4,-1,0,-2,-3
1470242924423063,-1,4,-12,-11,-3,-1,0,-2
1470242924424053,-3,2,0,0,-1,-2,0,1
1470242924424053,0,-8,-12,-5,1,-2,-2,-3
1470242924445096,3,13,10,0,-3,-2,-2,-1
1470242924445096,-2,1,2,0,0,-1,-1,-3
1470242924447042,-1,5,2,3,-4,-7,-1,0
1470242924447042,-6,-6,1,-5,1,2,-3,0
1470242924451546,1,1,-6,-9,2,2,7,0
1470242924451546,-5,-3,7,2,-4,-3,-10,-3
1470242924460571,0,3,-4,-1,3,1,1,-2
1470242924460571,1,-8,2,5,-1,-3,-3,0
1470242924475067,-6,-2,7,-5,-2,-2,-4,-2
1470242924475067,0,3,-1,-3,-1,-4,2,0
1470242924477070,0,-2,-5,-2,-1,-5,-1,0
1470242924477070,-2,1,1,2,-4,-1,0,-1
1470242924497674,0,-4,-11,-9,-4,0,-1,0
1470242924497674,0,-4,18,-5,-1,-1,1,1
1470242924504093,0,-1,-8,14,8,5,-4,2
1470242924504093,-2,3,-6,10,6,2,4,-1
1470242924511601,-3,-6,2,-8,-3,-4,-3,-1
1470242924511601,2,1,-14,0,-3,-1,-1,-1
1470242924520110,0,-3,15,-5,-5,-5,2,1
1470242924520110,-2,1,-27,-8,-1,1,-3,-3
1470242924535149,-1,0,4,7,-1,-3,-1,-3
1470242924535149,3,5,-2,-1,3,6,3,2
1470242924536624,0,-8,-18,-6,-5,-2,3,-1
1470242924536624,-2,5,16,1,-1,-1,-2,-1
1470242924558159,1,-1,4,-7,-2,-1,-3,-1
1470242924558159,-3,0,-7,4,1,2,0,2
1470242924559664,0,8,5,8,0,2,-2,-3
1470242924559664,-7,-32,-40,-28,-15,-11,-2,-4
1470242924571189,-3,5,7,-7,2,3,2,3
1470242924571189,-4,-12,-5,10,-3,-13,0,0
1470242924580161,-2,4,-8,5,-1,8,-3,-4
1470242924580161,5,17,44,8,5,-4,-3,-1
1470242924595251,-7,-22,-39,-12,-3,0,0,-1
1470242924595251,1,1,6,-1,-3,-2,-1,0
1470242924596677,2,0,-8,-1,-2,-4,-1,0
1470242924596677,1,5,10,2,0,0,-1,-2
1470242924617752,-1,-1,-2,1,0,2,0,2
1470242924617752,1,5,-1,-3,0,2,-4,-5
1470242924619198,-5,-9,1,-4,-3,-1,-1,1
1470242924619198,0,7,1,1,1,3,1,1
1470242924640216,3,0,7,8,0,-3,-2,-3
1470242924640216,-5,-5,-15,-10,-3,2,-1,-3
1470242924641717,-4,-4,8,-9,-3,-1,-1,0
1470242924641717,-3,-1,-5,1,1,-2,1,0
1470242924655230,2,0,-7,-6,-3,-3,-3,0
1470242924655230,-3,1,2,6,3,1,-1,-1
1470242924656731,-3,-5,-4,0,-2,0,3,1
1470242924656731,2,5,3,-3,4,2,0,-2
1470242924677749,-2,-1,10,9,-2,-1,-2,-1
1470242924677749,2,5,5,-7,-4,-1,-2,-1
1470242924679251,0,-6,-12,-4,-4,-4,-2,-2
1470242924679251,-4,-3,-23,1,1,1,1,0
1470242924691261,0,2,21,1,1,2,-1,-1
1470242924691261,-1,1,1,3,2,-1,1,0
1470242924700270,-2,3,-5,-4,-1,-1,-3,-4
1470242924700270,0,0,-4,-7,-3,-3,-2,1
1470242924715283,3,-1,7,10,-2,-4,-2,-3
1470242924715283,-1,0,-10,-9,3,0,0,0
1470242924716789,-5,-3,4,4,-2,-2,-2,-3
1470242924716789,2,14,18,2,1,3,0,1
1470242924737899,1,-10,-18,-3,3,0,-2,-2
1470242924737899,-6,-8,-10,2,-3,-1,-2,0
1470242924739305,0,-4,14,-5,-1,-1,-2,-1
1470242924739305,3,5,4,6,-3,-3,-1,-3
1470242924751343,-3,-2,2,-4,1,0,1,-4
1470242924751343,-1,-4,-12,-6,-2,0,1,1
1470242924760347,-1,0,19,2,0,0,-2,-1
1470242924760347,0,-8,-2,9,-1,-3,-1,-2
1470242924775338,-5,2,-5,-2,-4,-1,-4,-1
1470242924775338,-2,-6,-16,-3,-4,-3,-2,-1
1470242924776838,4,2,-12,-10,0,-2,0,-1
1470242924776838,-6,-2,16,7,-1,0,-3,-2
1470242924797926,-4,-4,2,-6,1,-1,-1,-1
1470242924797926,1,2,7,1,-1,-1,0,-2
1470242924799359,-3,-7,-9,6,-2,2,-4,0
1470242924799359,-4,-4,-14,-14,-4,-4,-1,-3
1470242924811395,2,5,-5,2,-2,-1,1,-1
1470242924811395,2,-1,6,1,-1,-1,-2,-2
1470242924820377,-3,1,9,2,6,0,-2,-1
1470242924820377,3,-2,-8,0,2,1,-2,0
1470242924835425,-1,3,23,6,-1,-3,6,0
1470242924835425,-5,-3,-6,-5,-2,-1,-4,-2
1470242924836894,0,1,-3,-1,-1,-2,1,-2
1470242924836894,1,-2,6,2,0,-2,-3,-1
1470242924857913,2,1,-4,-13,-4,-1,-2,-1
1470242924857913,0,1,-2,2,-2,-2,-2,-1
1470242924859412,-3,0,-1,-1,0,2,4,1
1470242924859412,0,-3,2,5,0,-2,-4,2
1470242924871434,-1,0,-14,-4,-1,-1,-3,-2
1470242924871434,0,-4,1,-1,-4,-7,-4,-2
1470242924880432,3,1,3,3,-1,-4,5,-2
1470242924880432,-4,-4,-16,-9,-2,-3,-9,-1
1470242924894944,-3,-3,-6,1,-1,8,8,-2
1470242924894944,-1,2,6,1,1,0,-1,0
1470242924896946,-2,-2,-1,-2,-1,-4,-4,0
1470242924896946,-1,-2,-3,-2,-2,-2,0,-1
1470242924917994,-1,-1,-7,0,-1,-6,-5,0
1470242924917994,0,0,5,3,2,4,3,-1
1470242924919468,-2,-1,3,0,-2,0,-9,0
1470242924919468,-1,-2,-9,7,-2,-4,1,-2
1470242924931502,-1,-2,-5,-12,1,3,-4,-3
1470242924931502,-4,-1,-10,-5,0,4,4,0
1470242924947998,-1,-2,15,1,0,-1,-3,0
1470242924947998,-2,0,-9,-2,-2,-1,-1,-1
1470242924954512,0,-4,-10,0,-2,-4,-2,2
1470242924954512,-1,0,14,-1,-5,-2,-2,-2
1470242924961504,-3,1,-14,-4,-1,1,3,-4
1470242924961504,0,0,16,4,3,1,-1,-2
1470242924978134,-2,-1,-8,-1,-2,-5,-3,-1
1470242924978134,-2,-2,-1,-1,0,1,7,1
1470242924979020,-1,-2,-6,-4,-3,-1,-23,0
1470242924979020,1,2,9,-1,0,4,18,-1
1470242924991531,-1,-1,1,4,-2,-6,-5,0
1470242924991531,-1,-1,0,-2,-4,0,-3,0
1470242925000540,-2,0,3,2,-2,-3,1,-1
1470242925000540,-3,-3,-19,-11,-2,-2,-8,-1
1470242925014579,-3,0,10,1,-1,-8,1,0
1470242925014579,-2,-1,1,4,-2,5,1,-2
1470242925029065,-1,-2,-5,-2,-1,-3,4,-2
1470242925029065,-2,-2,1,-8,-1,0,-3,-2
1470242925038104,2,2,-6,6,-1,-1,-4,-1
1470242925038104,-4,0,10,-5,0,-5,-8,-3
1470242925039575,-2,-6,-18,-7,-3,-2,2,-3
1470242925039575,0,2,1,3,-1,4,0,-1
1470242925051084,1,-2,5,-3,0,0,-3,-1
1470242925051084,-1,2,16,-1,-1,-3,1,-1
1470242925066102,-2,-2,-2,-3,-3,1,0,0
1470242925066102,1,1,7,0,-1,-3,0,-2
1470242925075631,-4,-4,-15,-3,-3,2,2,0
1470242925075631,0,1,4,1,0,-2,-2,-2
1470242925076607,1,-1,-2,1,-1,-2,1,1
1470242925076607,-2,0,7,-2,0,1,-3,-2
1470242925097655,0,-3,-9,-2,-1,2,-1,-4
1470242925097655,1,-4,-9,0,1,-2,-3,-3
1470242925099161,-1,2,-1,1,-1,1,0,-1
1470242925099161,-2,0,-11,0,-2,1,2,0
1470242925111755,-2,0,2,-4,-3,0,-1,0
1470242925111755,0,-4,-10,-8,0,-3,-3,-1
1470242925120647,-1,-2,2,1,0,-1,1,-1
1470242925120647,0,1,-1,-2,-1,-1,0,-1
1470242925135661,-2,-1,3,-3,-1,0,-1,-1
1470242925135661,-3,-1,-3,2,-2,-2,0,-1
1470242925136662,-3,0,2,0,-2,0,0,-1
1470242925136662,-1,-3,-10,-5,-2,-3,-1,1
1470242925157693,-1,1,10,2,-1,-3,-3,-2
1470242925157693,-1,2,-10,0,-1,5,1,-1
1470242925159183,-1,-1,0,-4,-2,0,-1,-1
1470242925159183,0,-2,3,-1,0,-4,-3,-2
1470242925180200,-2,1,-2,3,-1,1,1,0
1470242925180200,2,1,-4,3,0,-2,-1,1
1470242925181702,-1,-2,8,-7,0,-1,2,-4
1470242925181702,-2,-2,1,-4,-2,-2,-3,0
1470242925195249,0,-1,3,5,-1,-1,1,-2
1470242925195249,-2,-4,-8,-2,0,-1,-1,-1
1470242925196716,-1,-1,-3,-2,-2,1,-1,-1
1470242925196716,0,-1,-2,0,-3,-2,-2,-3
1470242925216754,-2,-2,-1,-6,-2,0,0,0
1470242925216754,0,0,-1,3,0,-2,-1,-3
1470242925225242,0,-1,-13,1,-1,-2,0,-1
1470242925225242,-3,0,11,0,1,1,0,0
1470242925240283,1,3,0,3,1,1,-3,-3
1470242925240283,-2,-1,3,2,0,-4,0,0
1470242925241757,-2,-6,-24,-6,-1,-1,-2,-2
1470242925241757,-3,0,19,4,-2,-2,-1,-2
1470242925262796,-3,1,-4,1,-1,-1,0,-1
1470242925262796,0,0,-1,-10,-3,1,0,-1
1470242925264229,-2,2,-6,1,-2,2,2,-1
1470242925264229,-3,-3,3,2,-2,-1,-2,-2
1470242925277751,-2,-3,-8,-5,-1,-3,1,-1
1470242925277751,-2,-1,-4,-1,-2,-2,-1,-1
1470242925279221,1,-4,-1,-2,-1,0,-2,1
1470242925279221,2,-1,-6,-6,-3,1,0,0
1470242925300240,-2,-2,5,-1,-2,-2,-2,-2
1470242925300240,-1,-2,-5,-1,0,-2,-3,-1
1470242925301742,2,1,1,-2,-1,2,2,-2
1470242925301742,-2,1,4,0,-2,-2,-1,-2
1470242925315256,-1,-2,-6,2,-1,0,1,-1
1470242925315256,1,0,1,-4,-3,-3,-2,1
1470242925316756,-4,-1,5,1,-1,-4,-2,0
1470242925316756,-1,-1,-21,-6,1,0,-1,-3
1470242925337790,2,-1,19,0,0,-2,-2,0
1470242925337790,-6,2,9,9,-2,1,0,0
1470242925339279,-2,0,9,0,-2,-1,2,0
1470242925339279,-2,-3,-27,-9,-2,1,0,-1
1470242925360329,0,0,-12,-6,0,0,-2,0
1470242925360329,-1,-1,1,-5,1,0,0,-2
1470242925361796,-4,0,20,6,-2,-4,-3,-1
1470242925361796,1,-3,-13,-7,0,-1,-1,-2
1470242925374807,-3,-1,-3,-2,-1,0,0,-1
1470242925374807,-4,-4,-2,-1,-1,0,2,-2
1470242925381313,1,0,4,2,0,0,-2,-1
1470242925381313,-3,-1,8,1,-2,-3,-2,-2
1470242925397878,-1,0,-3,-5,-2,0,-1,-1
1470242925397878,0,0,0,-1,-1,-1,-2,0
1470242925399332,1,-2,-12,-3,0,-1,1,-1
1470242925399332,-3,-4,-9,0,-1,-2,-1,-2
1470242925420349,-4,1,12,7,-1,-2,-1,1
1470242925420349,-3,-1,-7,-1,-1,1,-2,0
1470242925421850,-1,-1,-2,-1,-1,-3,-2,-1
1470242925421850,-2,-4,-1,-4,-1,-2,-1,0
1470242925434875,2,-2,0,1,-2,-3,0,0
1470242925434875,-3,0,2,-2,-2,-1,-1,-3
1470242925441382,-1,-1,-5,-6,1,0,-2,-2
1470242925441382,0,0,0,3,-2,1,-1,-3
1470242925457952,-1,1,2,1,0,-1,-1,2
1470242925457952,0,-5,-6,-2,-2,-3,-4,-3
1470242925459385,-1,1,5,2,-1,-1,0,-2
1470242925459385,1,-2,-7,-2,-3,-1,-2,-2
1470242925480413,-2,0,8,0,0,1,-1,-2
1470242925480413,-1,-1,-3,-1,0,-1,-2,-2
1470242925481906,2,-1,-3,2,0,-2,0,0
1470242925481906,-1,-1,9,-1,-1,0,0,1
1470242925493996,1,-1,-8,-4,-1,-2,-2,2
1470242925493996,0,-1,7,-1,0,-2,-2,-1
1470242925502922,-2,-4,1,-3,-2,-1,-1,-2
1470242925502922,-3,-1,-3,0,1,-1,-2,-1
1470242925517935,-4,-1,4,1,-1,-3,-3,-4
1470242925517935,1,0,-11,0,1,-2,0,-2
1470242925519443,-2,-1,3,-3,-2,-1,-2,1
1470242925519443,-1,2,4,1,0,1,0,0
1470242925540456,2,-1,-8,-3,0,-1,0,-3
1470242925540456,-2,0,3,-2,-3,-1,-2,-1
1470242925541957,-3,-2,-4,2,-2,0,-1,-1
1470242925541957,1,0,2,2,-1,0,0,2
1470242925553970,-3,-5,-6,-6,-2,-1,-1,-2
1470242925553970,0,1,4,-1,-1,0,-1,-1
1470242925562976,1,1,5,2,-2,-1,-2,-1
1470242925562976,0,-3,-1,0,-1,-3,-1,0
1470242925577989,-2,1,8,4,-2,-2,-2,-2
1470242925577989,-1,-5,-6,-5,-2,-1,0,-2
1470242925579509,3,0,-3,-3,-1,-1,-2,2
1470242925579509,-2,0,21,4,-1,-2,0,-3
1470242925600510,-3,-2,-24,-2,-1,-1,0,-3
1470242925600510,-1,-1,3,0,-1,3,-1,0
1470242925602012,-3,-1,1,5,0,-1,-1,-2
1470242925602012,0,-1,-9,-4,-1,-1,-1,1
1470242925614022,0,-2,2,-2,0,-1,-2,-1
1470242925614022,0,0,-3,0,0,-2,0,-1
1470242925623030,-1,0,-4,0,0,0,-1,-2
1470242925623030,-2,-1,-4,-5,-1,-2,-3,0
1470242925637571,1,0,1,-1,0,-3,1,-1
1470242925637571,-2,-2,-7,-3,-1,-1,-1,1
1470242925639545,-2,-4,19,1,-4,-3,-2,-1
1470242925639545,1,1,-2,0,0,1,1,-2
1470242925659563,-4,-4,-11,-5,-2,-1,-1,-3
1470242925659563,0,0,4,2,0,-2,-1,0
1470242925668073,-1,-3,-9,-3,-1,-2,-1,-1
1470242925668073,-2,1,-1,0,1,-2,-2,0
1470242925674076,-1,-2,3,-1,-2,1,-1,1
1470242925674076,-3,-3,19,1,-1,-1,1,-1
1470242925683092,-1,-1,-7,-2,-1,-1,0,-1
1470242925683092,-3,-2,0,0,-1,-1,-3,-1
1470242925705104,1,-2,-9,-2,-1,1,-2,1
1470242925705104,0,0,-10,-2,-1,0,-2,-1
1470242925707105,-1,-1,2,-3,-2,0,-1,0
1470242925707105,0,1,6,6,0,-1,-1,-1
1470242925720122,-5,-1,-4,-5,-3,-1,-1,0
1470242925720122,2,-1,9,2,0,1,-2,-2
1470242925721619,-3,-5,-23,-5,-1,-2,-1,-2
1470242925721619,-1,-1,-5,-3,-1,-2,-1,-2
1470242925733642,0,0,6,1,-1,2,3,0
1470242925733642,-3,-1,-1,-1,-1,0,-1,-2
1470242925742638,-1,-2,-7,-1,-1,-2,-3,-2
1470242925742638,-2,-3,-12,-2,-3,-3,-1,-1
1470242925757651,-3,2,6,1,-1,-2,-2,-2
1470242925757651,-3,-5,-9,-5,-2,0,-1,-1
1470242925759152,-1,0,3,1,0,-4,3,-1
1470242925759152,-1,-4,5,-1,-1,1,-4,-2
1470242925780673,-1,0,2,0,-1,-3,-1,-2
1470242925780673,-3,0,-7,-1,-3,-1,-1,-2
1470242925781673,0,-1,-3,-3,1,1,-4,-2
1470242925781673,0,-3,4,-1,-3,-1,0,2
1470242925794185,-3,-1,11,-2,-2,0,-1,-2
1470242925794185,-1,1,-1,0,-1,-1,-2,-1
1470242925802692,-2,-4,-10,-4,-1,0,-2,-1
1470242925802692,0,2,9,1,1,1,4,-1
1470242925817740,-1,-4,-27,-3,-1,-2,-2,0
1470242925817740,-2,0,3,6,-3,-3,-3,-1
1470242925819208,0,-2,8,-3,-2,-1,1,-2
1470242925819208,-1,-2,0,-1,-2,1,-1,0
1470242925840226,1,1,3,1,-1,0,-1,-2
1470242925840226,-1,-1,-10,-4,-3,0,1,1
1470242925841730,-1,-2,-2,-4,1,1,-2,0
1470242925841730,0,1,-10,-2,0,-1,-1,-2
1470242925853741,-2,1,19,6,0,-3,-1,0
1470242925853741,1,-3,-1,-6,-1,-2,-3,1
1470242925862770,0,1,5,3,-2,1,1,-1
1470242925862770,-1,-2,-6,-2,-2,-4,-4,-2
1470242925877763,-2,-1,-4,-1,0,-2,0,0
1470242925877763,-2,-1,0,0,0,2,1,-2
1470242925879260,1,-2,0,0,-1,-2,-1,-2
1470242925879260,-3,-2,0,-1,-1,0,-2,0
1470242925900283,0,1,3,-1,-1,-1,-1,0
1470242925900283,0,-3,-4,-2,-1,-4,-3,-4
1470242925901780,-2,1,-10,0,-2,0,0,0
1470242925901780,-1,2,5,0,-2,0,-1,-2
1470242925913819,-2,-3,-3,1,-1,-1,0,-2
1470242925913819,0,5,0,2,2,-1,0,0
1470242925922799,0,-2,6,1,0,-1,-2,-2
1470242925922799,-1,-2,-15,-6,-2,-2,-1,-3
1470242925937832,1,-1,3,1,0,1,-2,0
1470242925937832,-1,0,3,-1,-1,-2,-1,0
1470242925939315,-4,1,9,1,-1,1,0,0
1470242925939315,1,0,7,2,1,-1,-2,-1
1470242925960334,-1,1,-1,-3,-2,0,-3,-3
1470242925960334,-2,-2,-2,-2,-3,-2,0,-1
1470242925961834,0,2,3,-1,-3,-3,0,-1
1470242925961834,-4,-3,-12,-3,-2,0,0,-1
1470242925982858,-1,-2,-6,-2,-2,-2,0,0
1470242925982858,-1,-3,2,-2,0,-1,-3,-1
1470242925984363,1,-1,-7,0,-1,-1,2,-3
1470242925984363,-1,0,1,1,-3,-1,0,-1
1470242925997869,-2,-4,2,-3,-1,0,-4,-1
1470242925997869,1,1,0,-3,0,0,0,1
1470242925999369,-1,-3,0,1,-2,-3,-2,0
1470242925999369,-2,-1,-4,-1,0,-1,-1,-1
1470242926020387,3,-2,-1,-2,1,0,1,0
1470242926020387,-3,-1,4,4,0,-3,0,-1
1470242926021890,-2,-7,-11,-6,-2,-2,0,-2
1470242926021890,-1,0,10,-1,-1,0,-1,0
1470242926033900,-2,-2,-13,-5,-2,-3,-2,0
1470242926033900,-1,0,8,-1,-2,1,-2,-1
1470242926042907,-2,-1,-1,3,-1,-2,-2,-2
1470242926042907,-1,-4,-7,-8,-3,-2,-2,-1
1470242926057921,-1,-1,1,-3,0,2,0,0
1470242926057921,-1,0,1,-1,-1,-3,1,-2
1470242926059422,1,-1,1,-1,0,-1,-2,-2
1470242926059422,-2,0,1,0,-2,-2,0,0
1470242926080472,-2,1,6,3,-1,-2,-1,0
1470242926080472,-1,0,-14,-1,-3,-1,-1,0
1470242926081942,-2,0,11,-2,1,1,-3,-1
1470242926081942,-1,-3,-9,0,0,-1,-1,-3
1470242926094024,1,-2,-7,-6,-3,-1,-3,0
1470242926094024,2,0,1,3,0,1,1,1
1470242926102963,-1,-1,-4,-3,0,-3,-2,0
1470242926102963,1,-1,4,1,-1,-1,-1,0
1470242926117975,-1,0,2,2,0,-3,-2,-3
1470242926117975,-1,-5,-12,-5,-2,0,-1,-1
1470242926119477,-1,2,5,1,0,1,0,-1
1470242926119477,-2,-1,24,4,-1,-1,-2,-1
1470242926140594,-1,-3,-24,-5,-2,-2,-1,-2
1470242926140594,-4,-2,5,-5,-1,-1,-1,-2
1470242926141998,-2,-2,-6,-3,-4,-1,-1,0
1470242926141998,1,1,2,-2,-1,0,-1,1
1470242926163015,0,-2,12,2,-1,0,1,-2
1470242926163015,-3,-1,1,-2,-1,-1,-1,-1
1470242926164553,0,-1,-1,-1,-1,0,1,1
1470242926164553,0,1,-12,-1,-2,0,0,-3
1470242926177545,0,-2,11,7,-1,0,0,-1
1470242926177545,-4,-5,-16,-5,-2,-3,0,-3
1470242926179529,0,-3,-5,0,1,-1,-1,0
1470242926179529,-1,0,0,-2,-1,-1,0,-1
1470242926207572,-2,3,-1,2,0,0,0,-2
1470242926207572,3,0,-1,0,-2,-2,-1,-1
1470242926209556,-4,-2,10,-2,-2,0,-1,-1
1470242926209556,-2,-2,-6,2,-2,0,1,-1
1470242926222569,-2,-4,7,-3,-3,-2,-2,-2
1470242926222569,-2,-1,-7,1,0,-2,-1,0
1470242926224071,-1,-2,-12,-6,-2,-2,0,-3
1470242926224071,-1,-3,6,0,-1,0,1,-1
1470242926238142,0,0,5,0,0,-2,-1,-2
1470242926238142,0,-1,3,0,0,0,-1,3
1470242926239584,-1,0,-4,-2,-1,0,0,-1
1470242926239584,0,-4,-6,-4,-1,-2,-1,-3
1470242926261136,-3,-2,-7,-4,-1,-3,0,-2
1470242926261136,1,3,9,2,0,0,0,-2
1470242926262107,-1,-2,4,4,-2,-1,-2,-1
1470242926262107,-1,-2,-2,0,-1,-3,-1,1
1470242926282640,1,1,-5,-4,-2,1,-2,0
1470242926282640,0,2,8,-2,-1,0,-1,-1
1470242926284124,-2,-5,-1,0,-1,-4,-3,-2
1470242926284124,-2,1,-3,-4,-2,1,1,-1
1470242926297158,-7,-2,-3,-2,-2,0,-1,-1
1470242926297158,-1,-1,-5,0,-2,-2,-2,-1
1470242926304143,0,1,6,3,0,-1,0,-2
1470242926304143,-1,-2,-1,-2,-1,-3,-1,-1
1470242926320656,1,-2,-11,-3,-1,1,-2,-1
1470242926320656,-5,-3,10,-2,-2,0,0,-2
1470242926321658,0,0,-14,-6,-1,0,-3,-3
1470242926321658,-1,-1,-4,1,-1,-3,-1,1
1470242926342176,2,2,4,-1,1,-2,-1,-1
1470242926342176,0,-3,-1,-1,-1,0,2,1
1470242926342681,-3,2,-2,-1,-1,0,-2,1
1470242926342681,1,-2,-1,-3,-1,0,-1,0
1470242926356696,-2,-3,-4,-2,-1,-2,-2,-1
1470242926356696,-3,-4,-3,-1,-2,-1,-1,0
1470242926364712,1,-2,-6,-3,-1,0,1,0
1470242926364712,-4,1,2,1,-1,1,-2,-1
1470242926379710,0,-2,0,2,0,-1,-1,0
1470242926379710,-1,-1,-5,-4,-2,-3,0,-3
1470242926380211,1,1,-1,1,0,0,0,-2
1470242926380211,-1,-5,-3,-6,-2,-2,-3,0
1470242926402232,-3,-3,0,-2,-3,-3,-1,-2
1470242926402232,2,3,23,6,0,-1,0,0
1470242926402731,-3,0,-16,-3,-1,-3,1,1
1470242926402731,-1,-2,-4,-5,-1,0,-1,-1
1470242926416243,1,-1,-2,1,-1,1,0,0
1470242926416243,0,-2,-5,-4,-2,-1,-3,-2
1470242926424754,0,1,10,-1,1,-1,0,-1
1470242926424754,-1,-1,0,2,2,-1,1,-2
1470242926439263,-2,0,1,-2,0,-1,-2,-2
1470242926439263,-3,0,-5,1,0,2,-1,-3
1470242926440265,0,-2,-1,-4,-3,-3,-4,-1
1470242926440265,1,-1,-5,0,-3,2,-2,-3
1470242926461783,0,0,0,-3,0,1,2,1
1470242926461783,1,-1,-6,1,-1,-2,-2,2
1470242926462784,-2,0,-2,0,-1,-4,-4,-3
1470242926462784,-2,0,-2,-1,-1,-2,-1,-1
1470242926476299,0,0,3,2,0,0,-2,0
1470242926476299,0,-2,3,1,0,-1,-2,-1
1470242926484809,0,-3,-2,-8,0,1,0,1
1470242926484809,-3,-3,-8,1,-5,-2,-3,-2
1470242926499821,-2,0,-10,-10,-3,-2,-1,0
1470242926499821,0,-4,-4,-2,-1,0,-1,-3
1470242926500318,-2,2,9,3,-2,0,0,1
1470242926500318,-2,-4,-12,-3,0,-2,0,-2
1470242926522338,-1,-2,-2,-1,-2,-3,-2,-2
1470242926522338,-4,-3,-4,-7,-5,-7,-3,-1
1470242926522839,-2,-1,0,3,8,11,-1,-3
1470242926522839,0,2,5,7,-1,-4,2,1
1470242926545416,-1,-1,-6,-1,3,0,0,1
1470242926545416,-3,-1,0,-6,-6,-2,2,-3
1470242926545873,-3,-3,-1,2,-3,-2,-2,-2
1470242926545873,0,1,6,3,0,-2,-3,-1
1470242926559401,-2,0,0,-5,-7,-1,1,-1
1470242926559401,-2,-5,-16,-14,-4,-1,-2,-2
1470242926560372,3,-2,0,7,3,-1,0,-1
1470242926560372,-1,2,5,-1,2,2,-1,-1
1470242926581934,0,1,5,9,-3,-9,-5,-2
1470242926581934,1,5,4,2,4,0,-2,0
1470242926582892,-1,0,0,-8,-5,1,1,1
1470242926582892,-4,-3,0,-2,-2,-6,-3,-2
1470242926605412,-3,-3,0,-9,-5,-4,0,1
1470242926605412,2,1,-4,3,1,-1,-2,-1
1470242926605916,0,0,-2,1,11,4,1,-1
1470242926605916,-1,-3,3,-1,-6,-3,-1,-1
1470242926619424,1,1,-5,2,4,1,-2,-3
1470242926619424,-2,-2,14,6,-6,-3,0,-1
1470242926620429,-2,-1,-4,-5,-6,-4,-2,-1
1470242926620429,1,1,0,-3,-2,1,-2,0
1470242926641948,-1,-3,-2,7,5,0,0,-2
1470242926641948,-2,0,-2,-9,-2,1,-1,1
1470242926642947,-3,-4,1,-2,-15,-8,-2,-1
1470242926642947,1,-1,-18,-1,17,4,2,0
1470242926665466,-1,-2,7,3,-3,9,0,0
1470242926665466,-2,-2,-8,0,1,-1,0,-2
1470242926665967,0,-1,-4,-10,-8,-5,0,-1
1470242926665967,1,-2,-5,-3,10,-1,-3,-1
1470242926679509,-1,-2,6,2,-1,2,0,-1
1470242926679509,2,-1,-4,0,0,1,0,0
1470242926680480,-3,0,-1,7,-3,-3,-2,-3
1470242926680480,2,3,5,0,-6,-2,-4,-1
1470242926702028,-1,-1,0,-5,3,1,2,-2
1470242926702028,-3,-5,-9,-3,8,3,-1,2
1470242926702999,-2,-2,7,0,-7,-7,-2,-1
1470242926702999,-2,-5,-9,-1,-7,-1,1,0
1470242926732531,0,1,6,-2,-2,-1,-1,-3
1470242926732531,0,0,1,9,-4,-4,0,-2
1470242926733529,-1,-1,2,-6,1,-1,-1,-1
1470242926733529,1,-1,0,-3,-1,1,-1,-3
1470242926739533,-6,-4,-10,-3,-7,-3,-2,-1
1470242926739533,0,0,2,0,-2,-1,-1,2
1470242926740534,0,0,-3,4,6,2,0,-1
1470242926740534,3,0,6,-4,-3,-1,1,-1
1470242926762081,-4,-3,-8,-7,-6,-4,-2,1
1470242926762081,-1,-1,-9,-1,0,1,-1,-1
1470242926763054,3,1,0,-1,2,1,-2,-1
1470242926763054,-5,0,1,-1,-6,-2,0,-1
1470242926785073,-1,-1,0,-1,1,-1,0,-2
1470242926785073,0,-1,-1,-1,0,-2,-1,-1
1470242926786074,-2,-3,-6,0,-1,-1,0,1
1470242926786074,-1,-2,2,-7,-3,-2,-2,-2
1470242926799587,2,-1,1,8,1,0,-3,0
1470242926799587,-2,1,-1,-5,1,0,-1,-2
1470242926800087,0,-2,1,-4,-3,-6,0,-2
1470242926800087,-2,-2,-7,-4,0,6,1,1
1470242926822107,2,0,8,3,2,-1,0,0
1470242926822107,-3,-1,-6,-11,-14,-8,-1,-2
1470242926822608,1,-1,17,3,-2,3,1,0
1470242926822608,-3,2,1,4,11,3,-1,-3
1470242926845130,-5,-2,2,-5,-3,-1,-2,0
1470242926845130,3,0,-6,9,4,-1,-1,-2
1470242926846128,-2,-4,-2,-5,-8,-8,-4,-2
1470242926846128,1,2,8,-1,-3,4,-2,-2
1470242926859642,-1,-3,-16,-8,0,-1,1,-2
1470242926859642,-2,-1,0,-2,-2,-2,-2,-1
1470242926860646,1,2,-10,3,5,1,0,0
1470242926860646,3,-2,-1,1,-4,-4,0,-1
1470242926882164,-5,-2,-4,7,-2,-1,-2,-2
1470242926882164,-2,-6,-9,-9,-12,-3,-2,-2
1470242926882661,-5,2,2,2,10,3,-2,-1
1470242926882661,0,0,-4,4,20,9,0,0
1470242926905182,2,3,7,0,-7,-8,-1,0
1470242926905182,-4,-3,-7,-2,-2,-1,0,-1
1470242926905682,-1,-3,-7,-3,-13,-2,0,0
1470242926905682,-1,-1,2,5,3,-6,-3,-2
1470242926919699,-2,-4,-9,-16,-6,0,-2,-1
1470242926919699,1,3,6,13,10,4,1,1
1470242926920197,-9,-5,-8,-12,0,-1,-1,-1
1470242926920197,0,-3,-4,-4,-10,-5,0,0
1470242926942215,-10,-2,-1,1,1,0,0,-1
1470242926942215,0,-1,8,1,-2,-1,0,0
1470242926942719,1,1,-2,2,1,0,-2,-5
1470242926942719,-6,0,-1,-2,-7,-5,0,-5
1470242926965237,-1,0,7,3,3,-1,-1,0
1470242926965237,-1,-2,0,-3,1,2,0,1
1470242926966237,0,0,-3,1,3,2,-1,0
1470242926966237,-6,-3,-3,-5,-4,-3,0,1
1470242926979749,5,0,0,-1,1,-1,-1,-2
1470242926979749,0,-1,-3,-2,3,0,-1,-1
1470242926980253,-2,-3,-2,-3,0,-1,1,-1
1470242926980253,2,0,1,0,-7,-3,1,-2
1470242927002269,1,1,-1,3,0,1,-2,-3
1470242927002269,-1,-1,2,0,-1,-1,-1,-1
1470242927002769,-1,0,0,-1,0,0,-2,-1
1470242927002769,-1,-1,-3,-2,-9,-5,-3,-1
1470242927025314,-1,3,-2,-3,0,-1,0,0
1470242927025314,-3,-4,2,-2,0,0,-3,-1
1470242927025790,2,1,1,1,-4,-1,-4,0
1470242927025790,0,-1,-1,-1,3,0,4,0
1470242927039802,-1,0,-2,1,-17,0,-1,0
1470242927039802,0,0,0,2,19,5,-1,-2
1470242927040304,2,-3,-3,-7,3,-5,-2,-1
1470242927040304,-2,0,7,3,-13,-3,-3,0
1470242927061835,1,-1,-7,1,13,1,-1,-1
1470242927061835,-1,0,0,-2,-8,-3,-1,-2
1470242927062823,-3,-2,-1,0,-2,-2,-1,-1
1470242927062823,-1,0,-1,-2,-1,-3,-3,1
1470242927085347,1,-1,-1,-3,-2,-3,-1,1
1470242927085347,-1,1,-2,-2,0,6,1,0
1470242927085844,-4,-3,-4,-2,0,1,0,-3
1470242927085844,-1,-1,3,-3,-3,-3,5,-1
1470242927099385,0,0,-1,0,1,-2,-6,-1
1470242927099385,-3,-2,-1,-3,-1,-5,-2,-2
1470242927100359,-2,0,0,1,-3,1,-1,0
1470242927100359,1,0,-5,-3,2,2,3,0
1470242927121878,1,-5,1,-2,1,-1,-2,-1
1470242927121878,-1,1,-1,0,-3,-4,-3,-2
1470242927122877,1,-1,-2,0,-1,1,4,-3
1470242927122877,-1,-2,-4,1,0,-2,-5,-1
1470242927145400,-2,0,1,-1,0,-3,2,-1
1470242927145400,-1,-1,-1,-1,-6,0,-4,-1
1470242927145897,2,0,-2,-1,0,-1,-3,0
1470242927145897,-4,-2,-1,-1,-2,-3,-6,-2
1470242927159443,-3,-3,-1,-3,-2,1,2,0
1470242927159443,1,-1,-2,-1,-2,-4,-1,-1
1470242927160411,-1,-1,-1,1,-1,-2,-1,-1
1470242927160411,-2,-3,0,-3,1,0,-3,0
1470242927182491,0,-2,-1,-1,-1,0,-2,-3
1470242927182491,0,-2,-1,-1,-2,-2,-1,0
1470242927182932,-3,-1,0,0,1,-2,-2,0
1470242927182932,0,-2,-1,1,-2,-3,-3,-2
1470242927205453,1,-1,0,0,0,2,3,-1
1470242927205453,-4,0,-1,-2,0,-1,1,-1
1470242927205952,0,-1,-2,-1,-2,-2,-2,-2
1470242927205952,0,-2,-1,0,-2,-1,-1,-1
1470242927219487,-4,0,0,2,-2,-5,-3,-2
1470242927219487,2,0,-3,-2,1,6,1,-1
1470242927220495,-4,0,0,-3,0,-4,2,-1
1470242927220495,0,-1,0,-3,0,-3,-2,-3
1470242927242012,1,1,0,-2,-2,-3,-2,-1
1470242927242012,-1,0,-2,1,-3,-1,-1,-1
1470242927243001,-1,-2,-3,-1,-1,0,-2,-1
1470242927243001,-2,-2,-1,-3,0,2,2,-1
1470242927265509,0,-2,0,-1,-2,-2,-4,1
1470242927265509,1,0,-1,2,-2,-3,1,0
1470242927266005,0,-2,0,-1,0,1,2,0
1470242927266005,0,-1,-3,0,0,-2,-1,0
1470242927279517,-2,-1,-1,-1,-2,0,-3,-1
1470242927279517,-1,-1,1,-4,-1,-5,-5,-2
1470242927280518,-2,-6,-1,0,-1,-1,-1,0
1470242927280518,-3,0,-2,-1,-1,-2,2,-2
1470242927302539,-2,0,-1,-1,0,2,-4,-2
1470242927302539,-3,0,1,0,-2,0,1,0
1470242927303039,-1,-1,-1,-3,-3,-2,-4,-3
1470242927303039,1,1,-1,0,-1,-1,-5,0
1470242927325058,-1,-3,-2,-3,1,-1,2,-1
1470242927325058,-3,-3,-1,-2,-2,-2,-3,-2
1470242927326075,0,0,-1,-2,0,0,2,-2
1470242927326075,-1,0,-2,2,0,-1,1,-1
1470242927339571,-1,1,-5,-4,-1,-1,-1,-1
1470242927339571,-2,-1,-2,-3,-1,-2,-3,0
1470242927340072,0,-1,-1,0,-2,0,1,-1
1470242927340072,0,-1,1,-3,0,-4,-5,-1
1470242927370616,-1,0,-1,-1,0,2,5,1
1470242927370616,-1,-2,-2,0,-1,0,-9,-2
1470242927371099,-1,2,-1,-2,-1,1,3,1
1470242927371099,-2,-2,2,0,-1,-3,-15,-3
1470242927385613,-1,0,1,0,-1,-2,-1,1
1470242927385613,1,-3,0,-1,-1,-2,3,-1
1470242927386113,-2,0,-2,1,-2,-7,-4,-1
1470242927386113,-3,-2,-3,-4,-3,4,2,-3
1470242927399632,0,-2,-1,-2,-1,-2,-2,-3
1470242927399632,-2,2,-1,-1,1,1,-1,-2
1470242927400127,-1,-1,1,-1,0,1,-1,0
1470242927400127,0,-1,-2,2,-1,-3,2,-1
1470242927422145,-1,0,1,-1,-1,-2,-2,-2
1470242927422145,-2,-1,-1,1,-3,-2,1,-1
1470242927422647,-2,-3,-1,0,0,0,-3,-1
1470242927422647,-3,0,-2,-1,-1,1,2,-1
1470242927444666,-2,-1,-3,-2,-2,-1,-1,-1
1470242927444666,0,0,0,-2,0,-2,0,3
1470242927445166,0,0,0,-1,-1,-1,-4,-1
1470242927445166,1,-2,-1,0,-1,-1,1,0
1470242927459683,1,0,-1,1,0,1,0,-1
1470242927459683,-2,-2,-2,-5,0,0,2,-1
1470242927460180,-3,-1,-1,-1,-1,-1,-3,0
1470242927460180,-2,-2,-2,-1,-2,-1,2,0
1470242927482209,-1,-2,-1,1,-1,-3,-3,-1
1470242927482209,-1,0,0,1,-1,-1,2,-1
1470242927482700,-2,0,-1,-1,-2,2,-3,-1
1470242927482700,0,0,-2,-2,-1,-1,6,0
1470242927505222,0,1,-2,-1,-1,-5,-6,1
1470242927505222,-3,-2,-1,0,-2,-3,1,-1
1470242927505721,0,-1,-4,0,-1,4,2,-3
1470242927505721,-2,-2,0,-2,0,0,2,-1
1470242927527740,-3,0,0,1,0,-1,-1,-3
1470242927527740,-2,0,-2,-1,-2,-5,-6,0
1470242927528241,-2,-1,-1,-4,-2,-1,2,0
1470242927528241,1,0,0,-1,-2,-2,-4,-3
1470242927542253,1,0,1,-1,-3,-1,2,0
1470242927542253,-1,-2,-1,0,-2,-2,-10,-1
1470242927542754,-1,-3,-2,0,-3,-1,1,0
1470242927542754,-2,1,-2,0,-2,3,-2,1
1470242927565274,0,-2,-3,-1,-1,-2,-2,-1
1470242927565274,2,0,-1,-1,-1,1,4,0
1470242927566275,-1,-4,0,-1,1,-3,-2,-1
1470242927566275,1,0,0,-3,-1,-1,-2,1
1470242927579793,-1,-2,-1,-1,-3,-4,2,-1
1470242927579793,-1,0,-2,0,1,4,-3,-1
1470242927580289,0,0,0,-1,1,-3,-2,0
1470242927580289,0,-2,-1,1,-2,1,0,-2
1470242927602363,0,0,-1,0,-2,2,3,0
1470242927602363,-2,-1,0,-2,-1,-4,5,0
1470242927602833,-2,1,2,0,0,-5,-17,0
1470242927602833,-2,-3,-3,0,-1,-1,-2,-2
1470242927625429,0,-2,-1,-2,-1,0,1,-1
1470242927625429,0,-1,-1,0,0,6,4,1
1470242927625833,-2,0,-3,-2,-2,-3,3,-2
1470242927625833,-3,0,1,-2,-3,-4,-1,1
1470242927647870,-3,-1,0,0,-1,0,-4,-1
1470242927647870,0,-2,-2,-3,-1,-4,-2,0
1470242927648349,1,0,-2,-3,-2,1,0,-1
1470242927648349,-2,-1,-1,-1,-2,0,-3,-1
1470242927661891,-2,-3,1,1,0,2,7,1
1470242927661891,-1,-1,0,-1,-2,1,-5,-2
1470242927662866,0,0,0,1,-1,-2,-3,0
1470242927662866,0,1,-1,-1,-1,0,3,3
1470242927685440,-3,-2,-1,-3,-1,-3,-3,-1
1470242927685440,1,0,-3,-1,-2,-2,-1,-5
1470242927685883,-2,-1,-2,-4,0,0,3,0
1470242927685883,-2,-1,-1,0,-2,-1,-5,-2
1470242927698910,-1,-3,-1,0,-1,-2,0,-2
1470242927698910,-2,-1,0,-3,-1,1,2,1
1470242927707402,-2,0,1,1,-3,-3,-1,-1
1470242927707402,1,-2,-2,-2,-1,-3,0,-2
1470242927722416,2,0,-3,-2,-1,9,7,0
1470242927722416,-1,-3,-2,-1,-1,-6,-4,-1
1470242927722916,0,-2,-1,-1,0,2,2,-1
1470242927722916,-2,-2,-2,-1,-2,-4,-3,-1
1470242927745436,-2,1,1,-1,-1,-4,-7,-1
1470242927745436,-4,-1,0,0,1,0,-1,-3
1470242927745937,0,-2,-1,-1,0,-1,0,-1
1470242927745937,-1,1,0,-1,0,0,-3,-2
1470242927758948,-1,0,-1,-2,-1,-3,-3,-2
1470242927758948,-1,1,1,0,-3,1,1,-1
1470242927766956,0,1,-1,-2,-3,-3,2,0
1470242927766956,0,-1,-1,1,0,-4,-3,-1
1470242927781970,-1,0,-2,-2,-3,2,0,1
1470242927781970,-3,-3,-1,-2,0,-3,1,0
1470242927782969,-1,0,-3,-2,-1,1,3,-2
1470242927782969,0,-1,-3,-3,1,-1,-2,-1
1470242927805489,0,-1,1,1,-2,-5,-5,-2
1470242927805489,-1,1,0,-1,-1,-2,1,0
1470242927805991,-3,-1,-2,1,-4,-1,-4,-3
1470242927805991,-2,-1,-1,-2,-1,-2,2,1
1470242927819002,-1,0,-2,-2,0,-2,-4,0
1470242927819002,1,-1,-3,-1,-2,-1,-3,-1
1470242927827009,-2,0,-3,-1,-1,-1,-3,-1
1470242927827009,-3,1,1,-2,-2,0,-1,1
1470242927842023,-2,-3,0,-2,0,-1,0,-4
1470242927842023,-1,-2,0,-2,0,0,-1,-2
1470242927843023,-1,-1,0,1,-2,0,-5,2
1470242927843023,0,-2,0,2,-4,-1,-1,-1
1470242927865044,1,-1,-2,-2,0,2,1,-2
1470242927865044,-2,-2,0,-2,-1,-3,-3,0
1470242927866044,-1,-2,-2,-2,1,0,1,-3
1470242927866044,-2,0,-1,-2,-1,1,4,-1
1470242927879056,-3,-1,1,0,-3,-4,-7,1
1470242927879056,0,-1,-2,0,-2,0,1,-2
1470242927887095,1,-1,-2,-1,-1,0,-2,-1
1470242927887095,1,0,-5,-1,0,3,4,1
1470242927902079,-2,0,-2,-1,2,1,1,-3
1470242927902079,-1,0,1,-1,0,-2,-3,-1
1470242927903077,-1,-2,0,-1,-1,-2,0,1
1470242927903077,0,-3,-1,-1,-1,-1,-4,-1
1470242927925143,-1,-2,0,0,-3,-2,0,2
1470242927925143,-2,-1,-2,0,-2,-1,-4,-1
1470242927926130,-1,-1,-1,-2,-2,0,-1,-2
1470242927926130,0,0,-2,-3,-2,-1,0,-1
1470242927939110,0,0,-1,-1,-2,-3,-4,-1
1470242927939110,-2,-2,1,0,1,2,3,0
1470242927954642,-2,-1,-1,0,0,-3,-4,-1
1470242927954642,-4,-4,-2,0,-2,-2,-2,0
1470242927962130,-1,-1,-2,0,-1,2,2,1
1470242927962130,1,1,-2,0,-3,-1,-3,0
1470242927962631,-1,-2,-1,-1,-2,0,1,1
1470242927962631,-2,0,-1,-1,0,-1,-4,-2
1470242927985186,-2,0,0,-3,-1,-3,-2,-2
1470242927985186,-3,-1,-1,-3,0,-1,3,0
1470242927985654,0,-1,-2,-1,0,-3,3,0
1470242927985654,-2,0,0,1,0,-1,-1,-2
1470242927999164,-1,-1,0,1,-1,-1,-1,-2
1470242927999164,0,-3,0,-1,-2,2,0,0
1470242928007172,-1,3,-2,-2,-2,-2,0,-2
1470242928007172,-1,-1,0,-3,1,0,-1,0
1470242928022185,-3,0,-3,-2,0,-4,0,-2
1470242928022185,-1,0,0,-1,-1,-1,-1,-2
1470242928022686,-3,-2,-3,-1,-1,-1,-1,-2
1470242928022686,-1,0,0,-1,-3,-2,-3,0
1470242928045243,0,-1,-1,-1,-2,0,-1,-2
1470242928045243,-1,-4,-5,-1,-2,-2,-2,0
1470242928046206,-2,-2,0,-1,0,-1,0,-1
1470242928046206,1,0,-1,-1,-2,-1,-2,-2
1470242928067756,0,-2,-1,-2,0,-4,0,2
1470242928067756,-1,-1,-1,-1,-2,0,-4,-2
1470242928068227,1,-3,1,0,0,0,-1,-2
1470242928068227,-1,-3,0,-2,-1,1,2,-2
1470242928082289,-3,-3,-3,-1,0,-4,-4,0
1470242928082289,1,0,1,0,-1,2,-1,-2
1470242928082769,0,0,2,0,0,-3,-6,0
1470242928082769,-4,0,-1,0,0,-2,7,-1
1470242928105261,0,-3,-2,-2,-1,0,-12,-3
1470242928105261,0,1,-2,0,0,-3,-3,0
1470242928105761,-3,-4,-1,0,-2,0,-3,1
1470242928105761,2,0,0,-1,-1,1,3,-1
1470242928127782,0,-2,0,0,-3,1,2,1
1470242928127782,-1,0,-1,-1,-1,-4,0,0
1470242928128280,0,0,0,-1,0,-1,-3,-4
1470242928128280,0,-4,-1,-1,-1,-2,-5,-2
1470242928142292,-1,0,0,-1,-1,0,1,-1
1470242928142292,-1,1,0,-2,-1,-3,-1,0
1470242928142793,0,0,-3,0,-1,0,1,1
1470242928142793,-1,0,1,-1,0,-1,-2,1
1470242928165327,-1,-1,-1,-1,-1,1,0,-3
1470242928165327,-2,-2,-2,0,-1,-2,-1,0
1470242928165814,-2,-2,0,-1,-3,-2,-2,-3
1470242928165814,-1,-3,1,-3,-2,0,4,-1
1470242928187833,-1,0,-2,-1,-2,-1,-15,0
1470242928187833,1,0,-2,-2,-1,-1,0,-2
1470242928188834,0,0,0,-2,-2,2,1,0
1470242928188834,0,3,-4,0,-2,-1,-1,-2
1470242928201846,-4,-1,0,-2,-1,-2,0,-1
1470242928201846,-2,-1,-3,-1,0,1,1,-2
1470242928202846,-1,0,0,0,-2,-2,-2,0
1470242928202846,-1,-1,0,1,-2,1,-4,-1
1470242928225374,-2,-1,0,1,0,-2,5,0
1470242928225374,-1,-2,0,0,0,0,-3,-1
1470242928225867,-1,-3,-1,-2,-1,-4,1,1
1470242928225867,-1,-1,-3,-1,0,1,-5,0
1470242928247889,-1,0,-1,-1,0,0,5,-6
1470242928247889,-1,0,1,-1,-1,1,0,-2
1470242928248387,-1,-1,-1,0,0,-3,-3,0
1470242928248387,-1,-2,-1,0,-1,-2,-2,-1
1470242928261930,-1,0,0,-2,-1,-2,-1,-1
1470242928261930,1,-1,-1,1,-1,-1,-1,0
1470242928262900,-3,1,-1,-1,-1,0,6,-2
1470242928262900,-3,0,-1,-1,-1,-4,-8,-3
1470242928285420,-3,-3,0,0,-1,1,4,-2
1470242928285420,-4,-1,0,-2,-2,-4,-3,-2
1470242928285921,1,-2,-2,0,-2,-1,3,-2
1470242928285921,-2,-3,0,-2,0,0,0,0
1470242928307941,0,-2,-2,-1,-3,-2,-1,1
1470242928307941,-2,0,0,-3,-1,-4,-6,0
1470242928308478,-1,-2,1,-1,-1,3,-2,-1
1470242928308478,-1,-1,1,-1,-1,3,5,-1
1470242928321956,1,0,-1,-1,-1,-3,-2,-1
1470242928321956,1,-1,-2,-2,-3,-2,-1,-1
1470242928322954,-1,1,-2,-2,-3,-3,-4,0
1470242928322954,-1,-3,-2,-1,-2,-1,0,-2
1470242928345475,0,-1,0,-2,0,0,2,1
1470242928345475,-1,0,-1,1,-2,0,3,-4
1470242928346030,-3,0,0,-1,-1,-1,-1,0
1470242928346030,-2,-2,-1,-2,-2,-2,-1,-3
1470242928367996,-1,-1,0,-2,0,0,0,-2
1470242928367996,-2,-1,-2,-1,-1,-3,-3,1
1470242928368495,-2,-3,-3,-2,0,-2,0,0
1470242928368495,-2,0,0,1,-2,-2,0,0
1470242928390515,-1,-1,-1,-2,-2,-2,0,0
1470242928390515,-1,-4,-2,0,-1,-1,-3,-2
1470242928391015,-1,-1,1,1,0,3,0,0
1470242928391015,0,-1,0,0,1,-4,-5,0
1470242928405528,1,0,-2,0,-1,-2,-2,-3
1470242928405528,-3,-1,-2,0,-1,0,-2,-1
1470242928406030,-2,-2,-1,-1,-1,-2,4,-2
1470242928406030,-1,0,-2,-2,-1,-6,-20,0
1470242928428123,-2,-2,-2,-1,-1,3,2,2
1470242928428123,-1,-1,-1,-1,1,-1,1,-1
1470242928428549,0,-1,0,0,-3,-4,-1,-4
1470242928428549,-2,1,0,-3,-2,2,3,-1
1470242928442563,-3,-3,-2,2,-3,-1,-3,-1
1470242928442563,-1,2,-3,-1,-1,-2,-3,1
1470242928442563,-2,-1,0,-2,1,-1,-4,-5
1470242928442563,-1,-3,-1,-1,0,-2,2,0
1470242928465172,0,0,0,-2,1,-2,-2,1
1470242928465172,0,-3,1,-1,0,2,2,0
1470242928466083,0,-2,-3,-2,-2,1,-2,-1
1470242928466083,1,0,-1,0,-3,1,3,-1
1470242928487645,-2,0,0,-1,-2,-8,-4,-2
1470242928487645,0,-1,-3,-1,-2,5,3,0
1470242928488603,-1,0,-1,-2,0,-2,-13,-2
1470242928488603,-2,-1,-1,0,0,-1,4,-1
1470242928502116,-1,1,-2,-1,-1,0,-1,1
1470242928502116,-1,-1,0,-1,-1,-3,2,-2
1470242928502616,2,-1,0,-1,-1,0,0,0
1470242928502616,-1,-2,-4,-1,-1,-1,1,0
1470242928525644,-1,-1,1,-1,-1,-4,-4,-1
1470242928525644,1,0,-1,1,-1,-4,-2,0
1470242928526137,0,-1,0,0,-1,3,3,2
1470242928526137,-2,2,-1,-1,-1,-2,-3,-1
1470242928547700,0,1,-1,-1,-1,-4,2,0
1470242928547700,-2,-2,0,-4,-1,1,-2,0
1470242928548657,0,0,-2,2,-1,-2,-1,-1
1470242928548657,0,-3,-2,-1,-2,-4,-2,-2
1470242928562193,-1,-2,0,-1,-1,6,1,-1
1470242928562193,-1,-1,-2,-2,-1,-4,-3,-2
1470242928562707,-2,0,-2,-2,0,1,4,-4
1470242928562707,-1,-1,0,0,0,-3,-12,-4
1470242928585233,1,-2,0,-1,1,2,0,1
1470242928585233,-1,-1,0,-1,-2,-4,-1,-2
1470242928585709,-3,0,-1,0,-2,-2,2,1
1470242928585709,0,-2,2,0,-2,1,0,-2
1470242928607730,-1,-1,-3,1,-1,-1,1,-1
1470242928607730,-2,-3,0,-1,-1,2,-3,-1
1470242928608739,-1,1,0,-1,-1,-5,-5,0
1470242928608739,0,0,-3,-2,-1,-1,4,-2
1470242928621723,-1,0,-1,-3,-1,-4,-4,1
1470242928621723,0,-1,-1,-1,0,-1,1,0
1470242928629741,2,-1,-1,-2,-1,-1,-2,1
1470242928629741,-3,-1,0,-1,-2,2,5,-3
1470242928645262,-1,-3,-6,-2,0,0,-2,-3
1470242928645262,-2,-1,-1,-1,-1,-2,-2,-1
1470242928646244,-1,-1,-2,-1,-2,-3,-2,0
1470242928646244,1,-3,-1,0,-1,-2,-2,0
1470242928667765,-1,0,0,1,-1,-1,-1,-2
1470242928667765,0,0,-1,-2,-1,-1,1,0
1470242928668264,-3,0,-1,-2,0,2,-2,-2
1470242928668264,-4,-2,-2,-2,-1,0,3,-5
1470242928681319,-2,-2,0,-1,-1,-2,-1,-2
1470242928681319,-1,-2,1,1,0,-1,-3,-2
1470242928689784,0,0,0,-1,-2,-2,2,-2
1470242928689784,0,0,0,-3,0,-2,-2,1
1470242928705299,-1,-1,-1,-1,-2,-1,1,-2
1470242928705299,-2,3,-2,2,-2,-4,-4,-3
1470242928706298,-1,-1,-1,-1,-1,1,-2,2
1470242928706298,-1,-3,-2,-1,-1,1,0,2
1470242928727914,-2,1,1,-1,-1,0,-2,1
1470242928727914,0,-1,-1,-2,-1,-1,0,1
1470242928728327,0,-2,-1,0,-1,-6,-4,-2
1470242928728327,-1,0,-1,0,-1,2,-1,-2
1470242928741365,-4,-2,0,0,-2,0,3,-2
1470242928741365,-1,-1,0,0,-3,0,4,-1
1470242928749838,-2,1,-1,1,0,-5,-14,-2
1470242928749838,-1,-1,-1,-1,-2,-2,-2,2
1470242928765351,-2,-2,-1,-1,0,1,4,-2
1470242928765351,-1,-3,2,-1,-2,0,-6,-4
1470242928765857,-1,-3,-2,-3,-4,1,6,2
1470242928765857,-1,-1,2,-1,-2,-5,-1,3
1470242928787871,1,0,-1,-1,0,-1,-6,-3
1470242928787871,-1,0,-2,0,0,0,3,2
1470242928788373,-5,-3,0,-4,-2,1,-1,-3
1470242928788373,-3,-3,-4,2,-2,-2,-1,-3
1470242928801384,0,-1,-2,-3,-2,0,1,0
1470242928801384,1,-1,1,4,-5,-4,-3,-3
1470242928809991,0,0,2,-5,3,0,1,-1
1470242928809991,-3,-1,2,-1,-2,0,2,0
1470242928823928,-4,-2,-5,-6,-3,-4,-2,-3
1470242928823928,1,-2,2,-3,0,-1,0,5
1470242928832913,-1,-1,0,-8,-2,0,-1,-6
1470242928832913,0,0,-3,11,-1,-1,0,-3
1470242928847925,-1,-3,0,-5,2,3,0,1
1470242928847925,4,1,-1,2,1,0,0,1
1470242928849428,-2,0,-3,5,-4,-2,-1,-4
1470242928849428,0,-3,-1,-11,2,2,-1,0
1470242928861439,1,-3,0,3,-5,-4,0,1
1470242928861439,-10,5,-1,0,-2,-2,-2,-3
1470242928870448,2,-18,-3,-1,-1,0,0,2
1470242928870448,2,12,-4,-3,2,0,-3,-4
1470242928883957,2,-1,6,3,-2,-2,-3,-1
1470242928883957,-8,-4,-8,-7,-2,-3,1,-1
1470242928892967,-1,2,1,10,-5,-1,0,2
1470242928892967,4,-1,-2,-10,-2,-3,-1,0
1470242928907980,3,-5,-1,-4,0,0,0,0
1470242928907980,-10,-3,4,2,-1,1,-3,-2
1470242928909499,-4,-1,-6,3,-3,-2,1,-2
1470242928909499,-3,-4,-9,-16,0,2,1,0
1470242928921539,2,5,3,7,0,-1,-2,2
1470242928921539,4,-1,10,-6,-3,0,0,-3
1470242928930501,2,3,-21,-3,-1,0,-2,0
1470242928930501,0,-6,24,11,-1,-1,-2,0
1470242928944036,-6,-5,-21,1,-6,-3,-3,-4
1470242928944036,1,1,3,-2,9,2,-2,0
1470242928952520,-3,0,-1,2,3,0,1,0
1470242928952520,0,0,-3,4,-5,-3,0,-1
1470242928967534,-2,3,6,-4,2,-1,0,-2
1470242928967534,1,-4,-1,-4,-6,-2,-2,-2
1470242928969039,0,-6,-25,1,7,-1,0,-1
1470242928969039,-2,10,6,14,3,0,-6,-2
1470242928989552,-2,-3,19,10,2,4,4,0
1470242928989552,0,2,-12,-18,0,0,1,-1
1470242928998082,-2,-5,7,-6,-5,-1,-1,0
1470242928998082,-5,-5,-15,-2,-8,-4,-1,-2
1470242929004066,2,2,9,18,-6,-4,-3,-3
1470242929004066,0,-4,-13,-15,-1,0,-2,0
1470242929012584,0,9,3,3,1,1,2,-2
1470242929012584,1,-3,8,-2,-3,-5,0,1
1470242929035094,-1,-7,-6,-14,1,-1,0,-1
1470242929035094,2,3,1,18,-4,-3,0,-3
1470242929036597,0,7,10,-16,-1,-2,-3,-1
1470242929036597,-2,-5,-8,6,-1,3,1,0
1470242929050132,-1,-3,0,-17,0,-2,-2,0
1470242929050132,0,-3,-5,11,-3,-2,-4,0
1470242929052109,1,1,14,17,10,1,0,1
1470242929052109,-3,3,-9,-2,1,-1,0,-1
1470242929064120,-6,-7,-11,-13,-3,-3,-3,1
1470242929064120,-1,-4,-3,-6,-4,-2,1,-2
1470242929073127,2,1,2,-2,-4,0,-1,-2
1470242929073127,0,-2,-1,-11,0,-1,1,-3
1470242929087657,-3,1,-4,6,2,3,-2,-1
1470242929087657,-1,0,1,-1,-2,-3,-2,0
1470242929089143,-2,-2,3,-3,-5,-1,0,-1
1470242929089143,-2,-2,-6,2,2,-1,-1,0
1470242929110189,2,0,-5,-1,-4,-3,-2,-3
1470242929110189,-7,-1,2,-4,1,0,-1,1
1470242929111662,-1,-3,2,2,-8,-2,-2,0
1470242929111662,0,-3,1,-12,0,-3,-1,-1
1470242929124174,1,0,-4,18,10,4,-1,-3
1470242929124174,0,-4,3,3,3,0,-2,-2
1470242929132681,-5,-2,4,-2,-3,-4,0,-2
1470242929132681,-4,-4,0,8,-5,0,-1,-1
1470242929147750,-4,1,-12,-13,-2,-1,0,1
1470242929147750,2,0,-7,7,8,2,0,-2
1470242929149196,-2,-2,5,-1,-4,-4,-1,0
1470242929149196,-2,-2,0,-13,-2,-2,-1,-1
1470242929170260,-1,1,2,2,-7,-4,-3,0
1470242929170260,1,0,-7,-11,-5,-2,0,-1
1470242929171717,-2,1,-2,-8,-1,-1,-1,-1
1470242929171717,0,-2,0,8,-1,-2,0,-3
1470242929184227,0,1,-3,-5,-2,-2,0,-2
1470242929184227,-2,-2,3,1,0,-1,-1,0
1470242929192750,1,-1,-4,-1,-1,-1,0,0
1470242929192750,-2,0,1,-3,-4,0,-2,-1
1470242929207749,1,2,-1,1,-1,-3,0,-1
1470242929207749,-1,-1,1,1,2,-1,0,-2
1470242929209251,-1,-3,-3,1,2,0,1,0
1470242929209251,2,-2,1,-6,-1,-2,-3,-1
1470242929230270,-2,1,11,2,3,1,0,1
1470242929230270,-2,-3,-21,-8,-2,-3,-2,0
1470242929231796,-1,-1,3,-1,2,1,0,-2
1470242929231796,3,0,-5,-3,-4,-2,-2,1
1470242929244282,2,1,11,12,0,1,-1,-2
1470242929244282,1,-4,-5,-14,3,1,0,-3
1470242929252790,1,-2,2,-1,-1,0,-4,-2
1470242929252790,-2,3,7,6,4,1,0,2
1470242929267830,-6,-3,-2,-11,-7,0,-1,0
1470242929267830,0,0,-1,15,-1,-3,-1,-1
1470242929269304,-3,-1,4,-6,-5,-1,-1,-2
1470242929269304,-2,-1,-2,13,8,1,0,1
1470242929290323,0,-5,-10,-9,-3,-2,-1,-1
1470242929290323,-4,2,7,-2,-6,-1,-2,0
1470242929291825,-1,-2,-7,-5,-4,-2,0,-1
1470242929291825,1,-1,-3,-4,-4,-3,-2,0
1470242929312897,-2,0,-8,-1,0,0,-2,-1
1470242929312897,-4,-1,4,-6,-1,0,-1,-1
1470242929314344,-2,0,-3,3,2,2,-2,0
1470242929314344,-1,0,-1,-6,1,2,1,-3
1470242929327695,0,-1,-2,1,1,-2,-1,0
1470242929327695,-1,1,1,-4,-5,-3,1,0
1470242929329184,-1,0,-1,3,-3,-3,-1,-2
1470242929329184,-3,-1,0,-3,-6,-4,-3,-2
1470242929350215,-1,-1,-2,-3,-2,-1,-1,-3
1470242929350215,-1,-2,7,3,2,2,0,1
1470242929351690,-1,-2,-11,3,4,-3,-1,-2
1470242929351690,0,0,-3,-8,-8,-4,0,-2
1470242929364250,-1,0,2,1,-1,-2,-1,-1
1470242929364250,-1,-1,4,4,-1,0,-1,-1
1470242929372709,0,0,0,-1,3,-1,-1,0
1470242929372709,-2,-2,10,-10,-5,-1,-2,-3
1470242929387766,0,-1,-20,-4,-1,-3,-2,-2
1470242929387766,1,-2,-1,-3,-1,0,-1,-2
1470242929389224,-3,0,7,1,0,1,-1,2
1470242929389224,1,-2,-4,6,0,-3,-1,1
1470242929410761,-1,-2,4,-3,-3,-1,-1,-2
1470242929410761,0,-2,1,-1,-2,-1,-1,0
1470242929412244,-1,-3,-7,-2,-3,1,0,-2
1470242929412244,1,1,-3,2,2,0,-2,-1
1470242929424264,0,1,1,-2,-1,0,0,0
1470242929424264,0,0,-4,-1,-3,-2,-2,-2
1470242929432765,-2,-1,3,-2,-2,-2,-1,-2
1470242929432765,-2,-3,-5,0,-1,0,-1,-1
1470242929447804,-1,0,5,1,1,0,-2,1
1470242929447804,-2,-3,-4,-11,1,-2,-2,-1
1470242929449278,-2,-1,0,4,0,1,-1,0
1470242929449278,-2,-2,-1,1,3,1,0,-1
1470242929470300,-4,0,-1,5,-5,-1,-1,-2
1470242929470300,2,-1,-10,-9,-2,-1,1,0
1470242929471798,-1,-2,1,-6,-5,-4,-3,-1
1470242929471798,-4,-1,-5,-8,-3,-3,-1,-1
1470242929483809,1,-1,12,3,0,1,0,-4
1470242929483809,-1,1,-2,6,0,0,0,0
1470242929492817,-1,1,3,0,2,-2,-1,-1
1470242929492817,-1,-2,-7,-1,0,1,0,-1
1470242929507830,0,-3,-1,-8,-3,-6,-2,-1
1470242929507830,-4,1,0,3,-3,-3,-2,-2
1470242929509332,-1,3,4,-4,-4,-3,-1,0
1470242929509332,3,1,6,4,0,-1,0,-1
1470242929530351,-4,-4,-21,-7,1,0,0,-2
1470242929530351,-2,-1,8,8,2,-2,0,-1
1470242929531851,-1,-1,-6,-3,-1,-1,-1,0
1470242929531851,-1,-1,4,4,0,1,-1,-2
1470242929543889,-1,-1,-2,0,1,0,-1,0
1470242929543889,0,-4,1,0,-6,-1,-3,-1
1470242929552871,-1,-1,-5,-5,-4,-3,-2,-3
1470242929552871,-3,-3,-4,3,0,-2,0,1
1470242929567885,2,-2,8,-4,-3,-2,-2,-2
1470242929567885,-1,0,-1,7,1,0,0,-1
1470242929569385,-2,0,-2,-6,-3,0,1,0
1470242929569385,-6,-1,-2,2,-1,-1,0,-1
1470242929590423,0,1,-3,-2,-1,-2,-1,1
1470242929590423,0,1,2,-6,-2,0,-3,0
1470242929591905,0,-3,-4,4,0,0,0,-2
1470242929591905,1,-2,-2,-5,-3,-3,-1,-1
1470242929612924,-2,0,2,1,0,-1,0,-1
1470242929612924,-1,-1,0,-1,-2,0,-1,-1
1470242929614426,-1,-3,0,-3,0,0,-1,-1
1470242929614426,1,-1,-3,2,-1,-1,-1,-2
1470242929627441,2,-2,0,-3,-1,-1,-2,0
1470242929627441,-3,-3,1,-3,-3,0,1,0
1470242929633945,1,0,-3,-2,0,-1,-2,-2
1470242929633945,-2,-1,0,0,1,-1,-2,-2
1470242929650458,-3,1,-2,1,-1,-1,-2,-3
1470242929650458,1,0,-3,-1,-1,-2,-2,-2
1470242929651960,0,-2,0,1,1,1,0,0
1470242929651960,1,-1,0,-2,0,-2,-3,1
1470242929663987,-2,-1,-1,2,-1,0,0,0
1470242929663987,0,0,2,0,0,-1,-2,-1
1470242929672981,0,-3,-5,0,-2,-1,-1,-1
1470242929672981,-2,0,0,0,-4,-1,-1,-2
1470242929687991,2,0,-2,-6,-16,-11,-2,3
1470242929687991,0,0,-4,-3,18,9,0,-3
1470242929689494,-2,2,-1,1,-3,-2,2,-1
1470242929689494,1,-1,0,0,-2,-4,0,1
1470242929710513,-4,-2,2,-2,-2,-2,0,1
1470242929710513,-4,-2,-3,-1,-7,-6,-2,1
1470242929712014,-2,0,-2,-2,1,1,-2,-1
1470242929712014,2,-1,0,3,0,2,-1,-3
1470242929724024,-2,-1,-2,2,3,0,-2,-2
1470242929724024,-2,-1,0,-2,-6,0,-1,0
1470242929733045,1,-1,-1,3,3,0,0,1
1470242929733045,0,0,0,-9,-4,-1,-1,0
1470242929747078,-3,0,0,0,3,1,-1,-2
1470242929747078,1,-4,-6,-1,-5,-1,-2,-2
1470242929754051,-3,-1,1,2,-23,-13,-2,0
1470242929754051,2,-3,4,6,23,9,0,-1
1470242929770067,-2,-1,-11,-18,0,2,2,-1
1470242929770067,-2,-2,8,8,-11,-2,0,-1
1470242929772069,0,0,-1,-1,10,-2,0,0
1470242929772069,-5,-3,1,-2,-10,-1,-1,0
1470242929784094,-1,0,1,8,8,4,1,-2
1470242929784094,1,-1,3,-6,-5,-5,0,0
1470242929792585,-2,0,-1,0,1,0,-3,-2
1470242929792585,-1,0,4,-3,-10,-4,-1,-1
1470242929807099,-2,-2,5,9,10,3,1,-1
1470242929807099,-2,0,-10,-3,-3,-1,0,-1
1470242929814105,-1,-2,-3,-11,0,0,0,-2
1470242929814105,-1,-1,7,6,1,-3,-1,-1
1470242929830164,0,-3,-15,-1,-11,-3,-2,-1
1470242929830164,-2,-1,4,2,2,-1,-2,-2
1470242929831649,2,-2,-1,-4,5,1,-3,-2
1470242929831649,0,1,-5,-3,-5,0,0,0
1470242929844227,-2,-2,1,-5,-1,0,0,-2
1470242929844227,0,-1,-1,0,-2,-4,-2,-2
1470242929853141,-1,-1,-4,3,2,-1,-1,-2
1470242929853141,-2,-1,-1,-9,-11,1,0,0
1470242929866153,0,1,-2,4,6,2,0,1
1470242929866153,0,0,-2,-4,0,-4,1,-1
1470242929875197,-2,0,6,-2,-4,2,-1,-3
1470242929875197,-3,-4,-8,-3,-4,-4,-1,-2
1470242929890208,0,-1,3,-4,-2,0,-2,-1
1470242929890208,-2,0,6,1,0,1,0,-1
1470242929891675,-1,-4,-6,-9,-7,-2,0,-2
1470242929891675,-1,0,-9,-1,5,-1,0,-2
1470242929912694,-2,-3,8,5,-4,-1,-2,-2
1470242929912694,0,1,7,0,3,-2,-1,-1
1470242929914195,-1,-1,-9,-4,-1,0,-1,-2
1470242929914195,-3,-1,0,0,2,0,-1,-1
1470242929926206,-1,-1,4,-1,-8,-4,-2,-1
1470242929926206,-2,-3,-3,0,6,1,-2,0
1470242929935216,0,-1,-1,3,0,-2,-1,0
1470242929935216,-1,-2,-1,-6,3,4,-1,-2
1470242929950257,-2,-1,5,-4,-6,-4,0,0
1470242929950257,1,-2,-7,-3,4,-2,-2,-1
1470242929951733,-5,0,12,10,0,-1,1,0
1470242929951733,-2,-1,-16,-11,-6,-6,0,2
1470242929972750,-1,1,0,2,3,3,-2,1
1470242929972750,-2,0,2,0,-6,0,-3,-2
1470242929974269,0,-3,-5,-4,3,2,-1,2
1470242929974269,-1,1,2,-4,0,0,-2,0
1470242929987261,0,-3,-9,4,-4,-4,-4,-2
1470242929987261,-1,-2,-14,-7,-2,-1,0,-1
1470242929993766,-2,0,2,3,-4,-1,1,-3
1470242929993766,-1,0,-4,-2,-3,0,0,-3
1470242930009724,0,0,3,-7,2,-1,-1,-2
1470242930009724,-2,-1,1,2,-4,-3,-1,-3
1470242930025708,1,-1,-2,0,4,0,-2,-3
1470242930025708,-1,-1,3,4,3,-1,-2,0
1470242930032700,2,-1,12,1,-1,-1,0,0
1470242930032700,-2,-3,-27,-6,-20,-7,-2,0
1470242930034216,1,-2,7,-4,12,6,-2,-1
1470242930034216,-3,-3,4,1,-3,-6,-1,-1
1470242930055205,-3,2,7,-2,0,5,0,-2
1470242930055205,0,1,-9,4,-2,-3,0,-1
1470242930056759,0,0,2,10,-4,-1,-2,0
1470242930056759,-1,-3,-2,-12,3,-1,-2,0
1470242930070233,1,-1,-2,-1,2,-2,-1,-2
1470242930070233,1,-1,10,0,1,1,-1,-1
1470242930071718,-3,-1,-9,-3,-3,-3,0,-2
1470242930071718,-1,-2,1,3,-1,1,-1,-1
1470242930092779,0,-3,-10,-4,-3,-3,-3,-1
1470242930092779,-2,-1,5,-1,3,2,-2,1
1470242930094238,-4,0,-1,1,-6,-6,-2,0
1470242930094238,2,0,1,5,-5,5,0,0
1470242930115279,-3,0,6,-6,-3,-1,1,-1
1470242930115279,-3,-6,-12,1,10,4,1,-2
1470242930116758,1,2,6,-1,-3,0,-1,-1
1470242930116758,-1,-1,3,-2,-3,-5,-2,-3
1470242930130289,-1,-3,-2,1,-2,-2,-3,-2
1470242930130289,0,0,11,0,0,1,-1,0
1470242930131772,-3,-4,-16,-6,-3,0,-1,-1
1470242930131772,-1,0,-5,2,1,-3,-1,-1
1470242930152865,-2,0,-3,-2,-1,-1,0,1
1470242930152865,1,-2,8,-1,-1,-3,-2,1
1470242930154327,-1,-4,-12,-5,9,3,0,-2
1470242930154327,-2,2,1,2,-4,-2,0,0
1470242930167335,1,1,-12,0,1,0,0,0
1470242930167335,-1,-1,6,-1,1,2,1,-1
1470242930173843,-3,-1,1,-1,-10,-6,0,-3
1470242930173843,-1,-1,-1,0,0,1,-2,-2
1470242930190391,-1,-3,-2,0,2,-2,0,0
1470242930190391,-2,-2,-1,-3,-14,-4,0,-1
1470242930191859,1,-2,3,-3,9,0,0,0
1470242930191859,1,-1,-3,2,-2,0,-2,-3
1470242930212897,0,0,-3,-1,1,2,-1,-1
1470242930212897,-1,-3,-1,0,-1,-2,-1,0
1470242930214377,1,-1,0,-1,-6,-3,-1,1
1470242930214377,-1,1,-2,0,1,-1,-1,0
1470242930227484,-4,-2,3,1,-2,-2,1,1
1470242930227484,0,0,-3,-2,3,-2,-1,-1
1470242930233897,-1,-2,-5,-2,-2,-3,-2,-2
1470242930233897,-3,-2,4,0,1,6,0,-2
1470242930250411,-3,-3,3,-1,-8,-4,-1,-3
1470242930250411,1,0,-1,-1,16,4,-1,-1
1470242930251911,-1,-3,1,1,1,-3,0,1
1470242930251911,-2,-1,-4,-3,-3,0,-2,0
1470242930272929,2,2,-1,2,1,-2,-2,-1
1470242930272929,-4,-2,6,1,-4,-2,0,-2
1470242930274436,-4,-1,-8,-2,-6,-1,-2,-3
1470242930274436,0,-2,2,-2,3,-1,0,0
1470242930287476,0,-1,-1,-1,0,-1,0,-1
1470242930287476,-2,-1,-6,-1,-7,0,-1,0
1470242930293950,-2,-2,5,-1,3,2,1,-2
1470242930293950,0,-3,-4,0,-2,-4,-2,-2
1470242930310493,-3,2,-2,-2,-2,0,-2,-1
1470242930310493,-4,-1,-2,-3,-2,-1,0,-2
1470242930311988,-1,-1,1,-1,-5,0,-2,-2
1470242930311988,-2,-2,9,2,1,-6,-2,-1
1470242930332984,-3,-3,-12,-3,-9,2,-3,-1
1470242930332984,0,-3,-26,-2,25,3,0,1
1470242930334486,-1,-2,4,1,-2,-3,-1,-1
1470242930334486,-1,0,2,0,-9,-3,0,-1
1470242930346497,-3,1,1,1,1,-1,-1,-3
1470242930346497,2,4,5,0,-11,-3,-2,0
1470242930355504,0,-3,0,-2,-1,1,-1,0
1470242930355504,-2,-4,-19,-4,4,-2,0,-3
1470242930370017,0,-2,5,1,-2,1,0,1
1470242930370017,-1,-4,8,0,-3,-1,-3,-1
1470242930372020,-2,-1,-4,-3,-2,-1,0,0
1470242930372020,-1,1,2,0,-7,-1,-1,-1
1470242930393038,0,-1,3,1,3,-2,-2,0
1470242930393038,-2,-1,-4,-1,-8,-7,-2,-1
1470242930394539,-2,-2,-3,-4,-3,7,-1,1
1470242930394539,-3,-1,3,1,13,0,0,-5
1470242930406565,0,1,-2,-2,7,0,0,0
1470242930406565,-3,3,9,2,3,-1,-2,-10
1470242930415058,0,-1,-1,1,-16,-6,0,10
1470242930415058,0,-3,-6,-3,1,-2,-1,8
1470242930430127,-1,14,15,3,2,6,-1,-6
1470242930430127,-4,-12,-7,-2,-6,-3,-1,-4
1470242930431572,-2,-3,-7,-5,0,-3,-4,-16
1470242930431572,1,11,2,-3,-9,-3,-1,11
1470242930452635,-3,-1,1,2,-6,-6,0,5
1470242930452635,3,8,-22,-2,6,12,0,-1
1470242930454593,-2,-1,8,-7,0,-3,0,-2
1470242930454593,-2,-12,-1,0,-2,-3,-1,-4
1470242930466612,7,7,-1,2,-4,-2,0,-1
1470242930466612,-8,-26,17,-2,-8,-6,-1,0
1470242930475612,1,3,-18,-5,6,0,-1,1
1470242930475612,2,1,4,5,16,5,1,-4
1470242930490625,-4,-9,-25,-13,-1,-1,-1,-1
1470242930490625,0,4,17,3,-11,-2,0,2
1470242930491627,-3,1,7,1,0,-5,0,2
1470242930491627,-1,-5,7,-2,-8,-1,-3,-5
1470242930512663,-1,2,-5,12,-5,-2,-3,-4
1470242930512663,-1,3,5,-10,14,7,2,1
1470242930514685,1,-1,-3,0,-8,-3,0,3
1470242930514685,-2,4,-3,-2,-2,-2,0,-3
1470242930526722,-1,-9,-3,-2,7,-1,-2,-2
1470242930526722,4,6,0,2,-9,-6,0,-4
1470242930535166,-1,3,7,6,0,0,-1,-4
1470242930535166,0,-3,-3,-1,-12,-2,1,6
1470242930550198,-3,-23,-6,-1,33,4,-2,-18
1470242930550198,-2,6,-4,-2,-5,3,-3,2
1470242930551682,-2,-2,6,-2,-2,-3,-1,-1
1470242930551682,3,-4,-22,-3,-6,-3,-1,5
1470242930580227,-7,-3,-17,-10,-16,-7,0,-9
1470242930580227,0,4,15,4,13,1,-1,6
1470242930581707,-6,-2,-22,-2,4,6,-2,-11
1470242930581707,0,6,4,2,-7,-2,-2,-5
1470242930586229,0,-3,6,-1,-3,-1,-2,9
1470242930586229,-4,-6,-10,-2,-12,-1,0,-1
1470242930595234,2,-4,8,1,5,-1,-1,5
1470242930595234,-1,18,10,-1,5,1,-3,-5
1470242930610250,0,-6,-13,-6,-9,-2,2,6
1470242930610250,-5,-8,-11,0,-2,-5,-2,-13
1470242930611752,3,-5,7,-5,-2,-3,-1,1
1470242930611752,-4,-7,-5,0,-2,0,-1,-4
1470242930632766,-1,7,14,-1,-11,-3,-2,2
1470242930632766,-1,0,3,1,6,1,-2,-3
1470242930634256,-2,0,-7,-2,0,-5,0,6
1470242930634256,-3,-2,5,-2,2,5,1,-4
1470242930646766,-1,-11,-2,1,-12,-6,-1,1
1470242930646766,3,3,6,-3,-10,-6,-1,0
1470242930655274,-2,2,1,2,9,4,-1,-2
1470242930655274,-3,-5,-13,-3,0,0,-1,3
1470242930669803,0,1,8,0,5,2,-2,-1
1470242930669803,-2,2,-1,0,-2,-5,-2,1
1470242930676292,-2,4,8,-7,-6,-1,-3,-4
1470242930676292,1,-4,-20,-2,-2,-3,0,0
1470242930692830,-5,0,-6,-2,2,1,-3,-8
1470242930692830,3,21,-4,-5,-2,-3,1,5
1470242930694308,-4,-15,4,3,-7,0,0,0
1470242930694308,2,3,1,0,2,0,-2,-2
1470242930706319,-2,-4,0,4,-4,-2,-1,0
1470242930706319,-2,-10,-4,-3,-2,-1,-1,-1
1470242930722834,2,1,-7,-6,0,-2,-2,-1
1470242930722834,-2,1,3,0,0,-2,-1,-4
1470242930729344,-1,3,2,1,0,-1,1,2
1470242930729344,1,-3,4,2,10,-3,-3,0
1470242930744393,-2,0,-6,5,6,7,0,-2
1470242930744393,-1,-8,-1,-7,3,-1,-1,-3
1470242930752897,-1,-2,-20,-3,6,0,0,2
1470242930752897,0,-4,5,-1,-12,-3,1,2
1470242930754362,0,-4,-5,2,-5,-6,0,1
1470242930754362,-1,14,6,-1,0,1,1,0
1470242930775381,2,0,0,-1,-5,0,-2,-2
1470242930775381,-1,-1,-8,-2,-2,-2,-3,-1
1470242930776883,-1,5,2,1,1,0,0,-2
1470242930776883,0,-7,1,4,-5,-1,-2,1
1470242930789895,-4,-13,5,-2,2,1,0,-2
1470242930789895,0,-2,-9,-1,-3,-1,0,-1
1470242930796401,1,4,5,-4,-2,-2,-1,-1
1470242930796401,-3,-6,1,-4,-5,-1,-2,-2
1470242930812915,0,9,0,5,16,1,-2,0
1470242930812915,-3,-8,9,-9,1,6,1,0
1470242930814445,-3,-4,-36,-3,-13,-7,-1,-1
1470242930814445,0,-1,8,2,5,-3,-2,-2
1470242930835532,1,-2,1,-4,-10,-3,-2,1
1470242930835532,2,8,0,3,1,-2,-2,-3
1470242930836938,2,5,11,3,9,6,-1,-2
1470242930836938,-2,-13,-23,-9,-13,-6,6,-1
1470242930849501,-5,-18,4,2,-1,-2,-11,0
1470242930849501,0,6,2,0,-5,-4,-1,1
1470242930856954,-1,8,1,0,-1,3,-2,-1
1470242930856954,0,3,4,3,6,1,-1,2
1470242930872969,3,8,3,1,-4,2,5,-4
1470242930872969,-5,-20,-13,-5,-20,-9,0,0
1470242930874470,-3,-6,7,-1,11,5,-4,-1
1470242930874470,1,-2,-11,0,-1,-2,0,-2
1470242930895545,-2,14,5,-3,3,1,0,-2
1470242930895545,-2,0,3,0,-11,-5,-2,5
1470242930896991,1,1,7,1,-4,-3,1,-1
1470242930896991,-1,-5,0,-2,2,0,1,-1
1470242930910029,-2,-4,-2,-5,-5,-4,-2,3
1470242930910029,-6,8,-2,4,9,3,-2,-8
1470242930916508,0,-8,-4,-3,-4,-5,-1,2
1470242930916508,-3,0,-6,-5,-4,-5,-2,-3
1470242930933022,-4,-15,-1,2,1,2,0,-3
1470242930933022,8,11,-1,2,12,4,2,-3
1470242930934526,-9,-7,2,-6,-3,-5,-1,-3
1470242930934526,-4,-1,5,1,-10,-5,-5,-1
1470242930955542,3,2,13,0,-11,-3,-1,-12
1470242930955542,2,-10,-15,-2,9,1,1,13
1470242930957044,0,5,1,1,1,-1,1,2
1470242930957044,-2,-1,6,5,3,6,-2,2
1470242930970055,0,12,-4,-3,-2,-3,4,-1
1470242930970055,0,-15,4,-2,-1,2,0,1
1470242930976563,2,4,-1,-2,-9,-4,0,9
1470242930976563,-2,-4,-1,-2,2,-3,-3,-5
1470242930993076,-1,5,-1,-7,-2,-2,-1,2
1470242930993076,3,0,-5,-1,-6,1,0,-9
1470242930994077,-11,-5,5,3,2,-1,-2,-21
1470242930994077,2,2,3,1,0,2,0,11
1470242931015097,4,-2,-25,-12,0,1,1,8
1470242931015097,-9,-1,17,8,2,-4,-6,-18
1470242931017098,3,1,7,8,-2,-1,3,-5
1470242931017098,-1,3,-1,0,1,-1,-2,-12
1470242931029609,3,0,-2,-1,-3,-2,0,17
1470242931029609,1,-3,-20,-6,2,-1,2,0
1470242931036117,1,0,1,1,-1,1,-1,8
1470242931036117,-2,-2,6,1,-8,-3,-1,-3
1470242931052646,0,-8,-4,-4,7,5,-2,-6
1470242931052646,-2,4,4,0,-6,-4,-1,3
1470242931054132,-5,-1,-4,0,5,-3,-2,-7
1470242931054132,-2,-6,-7,-5,-1,-2,-1,0
1470242931075166,-5,-5,25,5,-5,-4,-3,-5
1470242931075166,-6,1,-3,0,-1,3,-2,-2
1470242931077152,-1,6,-6,-5,-4,-2,-2,3
1470242931077152,-4,-12,-11,-3,1,-3,-2,1
1470242931089667,0,5,-1,-1,0,1,-1,2
1470242931089667,-4,-3,9,1,-2,-2,1,-3
1470242931096185,-4,1,-7,-2,-2,-1,-4,0
1470242931096185,0,-1,0,1,-11,-2,3,-8
1470242931112709,2,3,-1,1,35,5,-4,-3
1470242931112709,-5,-3,0,-3,-9,0,1,-1
1470242931114206,13,-8,1,-2,-5,-5,1,11
1470242931114206,-8,3,6,4,2,5,-1,-6
1470242931135750,-1,-7,-24,-16,-15,-10,-4,-1
1470242931135750,5,0,9,3,5,-1,-3,-3
1470242931136705,-1,2,-1,2,1,2,-2,4
1470242931136705,4,-2,3,3,2,-1,-2,-1
1470242931149223,-9,3,-4,4,-8,-1,2,-3
1470242931149223,8,-2,-14,-10,3,0,-2,5
1470242931165267,0,-2,2,-2,-9,-3,-1,-5
1470242931165267,0,0,2,-1,2,-1,-2,-2
1470242931172745,2,-2,-6,1,-2,0,0,-5
1470242931172745,1,0,-1,0,0,0,1,6
1470242931174744,-12,0,-1,0,-3,0,0,-4
1470242931174744,3,3,-1,-2,2,-1,-2,-3
1470242931195275,-7,-5,7,5,-3,0,4,-1
1470242931195275,-2,1,2,6,-6,-3,-3,-2
1470242931196759,4,-1,-6,-8,1,-2,0,-1
1470242931196759,6,5,-6,-4,-1,-2,-1,0
1470242931217778,-9,-2,1,4,-7,-3,-2,-4
1470242931217778,-3,-5,3,0,-2,-1,0,3
1470242931219280,-2,-4,-3,8,1,4,-2,-3
1470242931219280,1,1,-1,-4,-2,-3,-2,5
1470242931232808,6,-1,3,-9,-4,0,-1,2
1470242931232808,-1,-3,-9,-3,1,-1,-3,-5
1470242931234295,-1,-6,-1,0,3,0,-1,1
1470242931234295,-8,8,7,3,-5,-4,-2,-8
1470242931255316,5,1,6,7,-2,-2,0,3
1470242931255316,-1,-10,-4,-6,1,3,-2,-2
1470242931256816,-2,21,-3,-5,-4,-5,0,-4
1470242931256816,-4,-17,-1,-4,0,-1,-1,4
1470242931269830,-7,1,0,3,-1,0,0,0
1470242931269830,1,5,-2,1,-2,2,0,2
1470242931276366,2,-10,0,-5,-2,-3,0,-13
1470242931276366,-8,-1,-13,-6,0,0,3,3
1470242931292882,0,4,10,1,-2,-5,-5,-8
1470242931292882,-1,-4,2,-1,-4,0,8,2
1470242931294351,-4,-4,-8,1,0,-3,-11,1
1470242931294351,1,1,0,-2,1,1,-3,5
1470242931315383,2,-2,-6,-3,-3,1,3,-1
1470242931315383,-2,0,-1,-5,0,-1,-3,1
1470242931316867,6,-5,-4,2,1,0,4,-6
1470242931316867,-2,1,8,-6,-3,-1,-3,-10
1470242931328878,-2,0,4,2,-2,-1,-4,5
1470242931328878,-4,7,-3,-1,-3,-4,-3,-4
1470242931337886,1,1,-6,-9,-2,2,1,0
1470242931337886,0,0,-6,6,0,-1,-1,6
1470242931352942,-2,-4,6,-6,1,2,3,-2
1470242931352942,-7,-4,-8,0,-1,-1,-4,-9
1470242931354434,-2,-2,7,2,-2,0,0,6
1470242931354434,0,2,4,1,-1,0,-1,-2
1470242931375420,4,-1,-9,-1,-2,-2,-1,5
1470242931375420,-8,0,2,-1,0,-3,-1,-10
1470242931376922,-3,-4,4,1,0,-1,-4,-2
1470242931376922,4,-14,-13,-4,-1,-1,-1,-5
1470242931388935,-10,16,1,2,-2,-1,-2,-4
1470242931388935,2,-1,-3,-7,-3,-2,-2,3
1470242931397963,0,-4,5,-3,1,-2,1,4
1470242931397963,-3,5,8,0,-2,-1,-2,-9
1470242931413017,2,-4,-13,-5,-3,0,1,0
1470242931413017,-3,0,9,9,0,-3,-3,3
1470242931414494,-1,11,-5,0,1,1,0,0
1470242931414494,1,-8,13,-1,1,0,0,5
1470242931436040,0,1,-7,1,-2,-1,-2,0
1470242931436040,0,0,-6,-9,-3,-1,-1,-3
1470242931437546,-1,-2,4,-1,-2,1,-3,-1
1470242931437546,-1,4,4,3,0,-2,1,2
1470242931449026,3,-5,6,2,-3,-2,0,-1
1470242931449026,6,-3,0,-4,-1,-1,-1,2
1470242931458034,-11,-11,-9,1,0,-1,0,-4
1470242931458034,1,-2,-12,-7,1,0,-1,0
1470242931472548,-4,-12,-5,2,0,-1,-3,-5
1470242931472548,0,18,-10,4,0,-4,-1,2
1470242931474049,-2,-1,0,-5,-6,-4,-1,-1
1470242931474049,2,0,-8,3,1,-3,2,-1
1470242931495568,1,-2,-5,-5,-2,-2,-2,-1
1470242931495568,-1,-10,12,-2,-1,0,1,1
1470242931497099,4,-7,-7,3,0,2,-1,0
1470242931497099,-3,39,-1,4,-1,0,-3,-3
1470242931509080,-6,-40,-1,-3,-3,-1,-2,-2
1470242931509080,-2,3,9,8,0,1,1,0
1470242931518095,0,-3,-26,-8,-3,-2,-1,-2
1470242931518095,-1,-6,17,4,0,0,-1,2
1470242931532619,0,11,-12,-8,-2,-3,0,0
1470242931532619,1,-5,10,9,3,1,0,-1
1470242931534602,-3,-9,-11,2,-5,-3,-3,0
1470242931534602,-6,-33,-14,-2,-3,-2,0,0
1470242931555127,2,42,20,-1,0,-2,-4,-4
1470242931555127,-2,-15,-31,-9,0,-1,0,2
1470242931556623,1,-1,8,0,2,-1,1,1
1470242931556623,-2,-5,-4,4,-1,-1,0,0
1470242931569150,-1,3,-1,-3,-3,-2,0,0
1470242931569150,-1,-5,6,0,-1,-1,-2,-1
1470242931578142,-2,8,9,2,-2,-1,-2,-3
1470242931578142,2,4,-16,-12,2,-2,-2,-3
1470242931593155,-1,-4,8,18,0,-1,0,-3
1470242931593155,-3,5,-2,-14,-3,-2,-1,0
1470242931594158,-1,-13,6,-3,-2,-1,1,2
1470242931594158,-3,26,14,4,-2,-2,-2,-3
1470242931615203,1,0,-24,-1,5,1,-1,0
1470242931615203,-4,13,14,-2,-4,-2,-4,-2
1470242931617178,7,0,10,4,-3,-2,-1,0
1470242931617178,4,14,-5,-12,-3,-1,0,1
1470242931629212,-3,-27,12,0,1,0,1,-1
1470242931629212,-6,-1,-10,8,0,-1,-1,-1
1470242931637697,2,9,4,-2,-3,-1,-1,-1
1470242931637697,-10,-21,-1,-8,-5,-2,-2,-4
1470242931652208,-2,-3,5,-3,0,0,-2,0
1470242931652208,2,-7,-16,-4,-1,1,-2,-1
1470242931659214,0,2,9,2,4,-1,0,-1
1470242931659214,0,-6,-3,1,-3,-2,-1,-1
1470242931675229,0,1,4,-2,-4,-1,-3,-4
1470242931675229,0,-2,-3,-2,-2,-2,0,1
1470242931676730,-4,-3,6,0,1,0,-1,-1
1470242931676730,4,4,6,10,1,-2,-3,-1
1470242931688741,-1,-6,-15,-5,-1,0,-1,-1
1470242931688741,-5,-1,12,-7,-1,0,-1,-1
1470242931697749,-1,3,1,2,1,-3,-1,0
1470242931697749,-1,-10,-15,9,1,0,0,-2
1470242931720285,-3,4,-8,-8,-5,-1,-1,-2
1470242931720285,3,-2,-4,0,1,0,-1,0
1470242931721770,2,-3,-13,-3,-1,-3,-1,0
1470242931721770,0,4,6,-4,-2,1,-2,1
1470242931735298,-3,-5,15,7,0,-1,0,-1
1470242931735298,8,25,-5,-4,-3,-1,-2,0
1470242931737285,-2,-6,5,0,0,2,-1,-2
1470242931737285,-3,-9,-1,-3,-1,-3,-1,-3
1470242931748797,4,10,6,-2,-2,-1,-2,-2
1470242931748797,-7,-40,-1,1,-1,-3,-1,-3
1470242931757802,-4,15,-4,5,-2,-1,-1,0
1470242931757802,0,-3,-6,-5,0,1,-2,0
1470242931772318,-3,-2,1,0,-2,-2,-1,0
1470242931772318,-2,2,-9,-2,-2,1,1,-1
1470242931779323,-1,0,-11,-6,-2,-1,0,-1
1470242931779323,-5,-11,3,7,2,0,0,-3
1470242931795338,1,7,-3,-7,0,1,-3,2
1470242931795338,-3,2,15,8,-2,-1,-1,-1
1470242931796838,0,-2,1,-6,-3,-3,0,-1
1470242931796838,-2,4,-17,-9,-4,-1,-1,0
1470242931808849,0,-2,9,-1,2,0,0,-2
1470242931808849,0,-17,3,10,-1,-2,-2,-1
1470242931817856,-2,20,-10,-20,-5,-1,-2,-2
1470242931817856,-2,-9,4,1,0,0,0,1
1470242931832369,-3,1,-12,-4,1,0,1,-2
1470242931832369,1,-2,4,5,0,-2,-3,-3
1470242931838882,-3,-25,8,5,1,0,0,-1
1470242931838882,1,4,-14,-8,-1,-1,-1,1
1470242931855390,2,-8,-7,-2,-2,-3,-2,0
1470242931855390,-2,8,-2,-2,-1,-1,0,-2
1470242931856892,-4,1,4,1,-1,-1,-2,-2
1470242931856892,4,7,21,3,-2,-2,0,-2
1470242931877910,-6,-35,-30,-6,-1,-2,-1,0
1470242931877910,0,27,9,-1,-1,-2,-2,-1
1470242931879412,1,-1,-3,0,-1,1,-2,-2
1470242931879412,1,-6,-1,-2,-2,-3,-1,-2
1470242931891923,-3,11,9,4,-1,-1,-1,-1
1470242931891923,-1,-6,-13,-6,-2,0,0,0
1470242931898930,-1,-2,-4,0,0,-1,-2,-2
1470242931898930,-2,5,2,-4,-2,0,-2,2
1470242931915444,1,2,4,8,-3,-1,0,-1
1470242931915444,3,-9,-15,-6,-1,-1,-1,2
1470242931916946,-5,-2,3,-3,-1,-2,0,-1
1470242931916946,-2,-6,3,7,-3,0,0,-2
1470242931937964,3,16,-4,-3,0,-1,-2,1
1470242931937964,3,-6,-3,-3,1,-1,1,0
1470242931939466,-4,0,-4,-2,-3,-2,-1,-1
1470242931939466,-4,-1,10,2,0,0,-3,1
1470242931951477,1,3,-1,-3,-2,-3,-1,-1
1470242931951477,-2,0,0,9,-1,0,0,-3
1470242931960485,2,0,-3,-9,0,-1,0,-1
1470242931960485,2,-1,-9,-2,-1,-1,-1,-2
1470242931975498,-1,-2,16,5,-1,0,-1,1
1470242931975498,0,-2,-4,-2,1,1,0,2
1470242931977003,1,-6,-2,2,-1,0,-2,-1
1470242931977003,-1,-1,-5,0,2,2,-3,-2
1470242931998031,-5,-2,0,1,-4,-2,-1,0
1470242931998031,-2,8,2,-4,-4,-1,-1,0
1470242931999519,2,-5,-1,4,1,-3,-2,-1
1470242931999519,-3,11,-3,-5,-2,-1,0,-2
1470242932011565,0,1,10,0,-1,0,0,-2
1470242932011565,-1,-9,-44,-7,-1,0,-1,-2
1470242932020540,-5,2,16,-3,-5,-3,-1,-1
1470242932020540,-3,-8,-21,-7,-1,-2,0,0
1470242932035552,-2,-3,26,8,-1,-2,0,-3
1470242932035552,-3,-6,0,5,0,0,0,-2
1470242932037053,0,5,-10,-2,1,2,-2,-2
1470242932037053,-1,1,0,2,-2,-2,-1,-1
1470242932058072,-2,-15,-20,-8,-1,-1,-3,-2
1470242932058072,-1,-8,10,-6,-1,-3,-1,0
1470242932059075,1,22,-6,4,-1,0,-2,-3
1470242932059075,2,-8,6,2,-1,-2,-1,-1
1470242932071585,-4,2,5,2,0,-1,-1,-3
1470242932071585,-1,-1,-9,-3,-3,-4,-2,0
1470242932080593,-1,-11,2,2,0,0,1,0
1470242932080593,2,4,1,-2,-2,-2,-1,-1
1470242932095606,-1,3,-5,-2,-1,-1,-1,1
1470242932095606,-4,-1,0,-4,-2,-1,-2,-1
1470242932097107,-2,-4,25,5,-2,-1,-3,-1
1470242932097107,-4,-6,-6,3,-1,-1,-1,-3
1470242932118135,3,3,-2,-8,0,-2,0,0
1470242932118135,0,5,12,6,1,0,0,-1
1470242932119627,-4,2,-6,0,0,-2,0,-2
1470242932119627,-2,-6,0,-4,-1,-1,-1,0
1470242932131660,1,9,-27,-9,-2,-1,-2,-3
1470242932131660,0,-23,-4,-11,-2,0,0,0
1470242932140646,-4,5,8,2,-2,-2,-1,0
1470242932140646,1,14,0,1,0,-1,-1,1
1470242932163216,-2,-1,-7,0,0,-1,-2,-2
1470242932163216,-1,6,4,4,0,-1,-1,0
1470242932164167,-1,-14,-11,-6,-1,-1,-2,0
1470242932164167,1,-6,-3,-3,-1,-3,-1,-2
1470242932178222,-4,-2,4,0,-2,0,-1,-1
1470242932178222,1,4,0,4,2,-1,-1,-2
1470242932179181,-1,-5,16,4,-2,-1,0,1
1470242932179181,-1,11,-16,-6,-3,-2,-2,1
1470242932192224,1,-6,-8,-3,-2,0,-1,-1
1470242932192224,0,6,14,0,-3,-1,-2,-1
1470242932198732,2,-3,-16,-3,-1,-1,0,-3
1470242932198732,-5,1,6,2,0,1,-2,-1
1470242932215232,-1,-5,1,-4,-2,0,-1,1
1470242932215232,0,-4,-7,3,-2,-2,-2,-2
1470242932216714,-1,1,-8,-5,1,1,0,-1
1470242932216714,0,-6,16,2,0,0,0,-1
1470242932238236,-5,-6,-41,-13,-5,-6,-1,-1
1470242932238236,1,3,12,2,-1,1,1,-2
1470242932239235,-1,-6,-7,-3,-1,-1,0,-2
1470242932239235,-2,-5,2,-1,-3,-4,-2,-5
1470242932252249,5,22,11,4,4,3,-1,0
1470242932252249,-5,2,-2,-5,0,0,-2,-2
1470242932259252,-3,-5,-4,0,-1,-1,-1,-2
1470242932259252,1,-6,-3,0,0,-2,-1,-1
1470242932282827,-4,-4,2,4,0,0,1,-1
1470242932282827,1,12,9,-2,-5,-3,-1,-1
1470242932284275,2,0,-4,2,-1,-1,1,2
1470242932284275,0,1,0,-4,-2,0,-1,1
1470242932297792,-4,-3,12,7,-2,0,-3,-2
1470242932297792,0,2,-8,-6,1,0,-2,-2
1470242932299290,2,4,8,3,1,0,-1,-1
1470242932299290,-3,-17,-12,-5,-4,-1,-1,-1
1470242932312301,-5,-1,2,-1,1,0,-1,-1
1470242932312301,3,3,9,5,-1,-2,-2,-1
1470242932326870,-1,-5,-18,-7,-2,-1,-2,0
1470242932326870,-1,-2,4,0,0,2,-1,-2
1470242932335322,4,16,12,4,-1,0,-1,-1
1470242932335322,-3,-9,-6,-3,1,-2,-1,-2
1470242932336823,-1,-4,-4,-2,-1,2,-2,-1
1470242932336823,-1,13,12,2,0,0,0,-1
1470242932365363,0,-7,3,4,-1,-2,1,0
1470242932365363,-2,15,-17,-5,0,-1,0,1
1470242932366850,-5,-26,-11,-3,-1,-2,-2,-1
1470242932366850,1,1,-7,2,-1,-2,-1,2
1470242932371353,-5,-6,2,4,-2,-1,-1,-1
1470242932371353,-2,5,15,-12,-4,-1,0,-3
1470242932380364,3,18,-20,-1,0,1,0,2
1470242932380364,-2,-4,7,-3,-1,-1,0,-1
1470242932395380,1,-11,-2,3,-1,-1,-2,-1
1470242932395380,-4,-4,-18,-1,-1,-1,-3,-3
1470242932396881,4,9,14,-2,-2,-2,-2,-2
1470242932396881,-3,-8,2,2,-1,-1,0,-1
1470242932417951,-1,4,-1,-8,-4,-5,2,1
1470242932417951,2,-11,1,0,1,0,0,0
1470242932419405,-3,-1,5,2,-3,0,-1,0
1470242932419405,-1,0,-10,-6,0,0,-2,-1
1470242932431463,-1,-17,2,0,0,0,0,-3
1470242932431463,-2,-2,-17,-5,-1,-2,-2,-1
1470242932440443,-3,-1,7,3,1,-3,-1,0
1470242932440443,-2,0,3,0,-1,-3,1,0
1470242932455429,1,2,-2,-1,-1,0,-2,0
1470242932455429,-1,-9,6,2,-1,1,-1,1
1470242932456936,-3,5,0,-3,-2,-1,0,-2
1470242932456936,2,6,0,1,1,0,-3,-2
1470242932477997,-1,-9,-32,-11,0,0,0,0
1470242932477997,-9,-2,25,10,-5,-3,-1,-1
1470242932479450,1,-3,-4,4,1,1,0,2
1470242932479450,-1,-1,-3,0,-1,-1,-2,-1
1470242932491509,0,7,1,-6,-1,-2,-1,0
1470242932491509,1,0,-3,-4,0,-1,1,-2
1470242932500471,0,-7,2,-1,0,-3,0,-3
1470242932500471,-4,-13,0,0,-2,0,0,-2
1470242932515026,-6,2,4,0,0,0,-1,1
1470242932515026,3,4,9,3,-1,-2,-1,0
1470242932521993,-4,1,-6,-2,-4,-2,0,-1
1470242932521993,0,-2,-4,-3,-1,0,0,0
1470242932538043,-1,-2,14,5,-1,-2,-2,-3
1470242932538043,1,2,6,4,1,1,0,1
1470242932539505,-2,-3,-10,-3,-2,0,-2,-1
1470242932539505,2,4,3,-1,-1,-2,-1,-1
1470242932551518,3,-1,-3,-2,-1,0,1,0
1470242932551518,-1,-6,-7,1,-2,1,-1,-1
1470242932560525,0,1,4,-3,-2,-2,-1,-1
1470242932560525,-2,-1,-5,0,-2,-1,-2,-3
1470242932575537,-5,2,4,-1,-1,-1,-2,-2
1470242932575537,-2,-9,-9,-2,0,1,-2,0
1470242932577040,-1,-16,0,-2,0,1,0,-1
1470242932577040,3,11,3,-5,-3,-1,-2,-1
1470242932598057,-4,3,2,0,-3,-2,-2,-3
1470242932598057,-5,2,12,1,-4,-2,-1,-5
1470242932599058,0,-2,-2,1,1,-2,-1,-1
1470242932599058,-1,-5,4,1,-1,-2,-1,0
1470242932611609,0,-1,-10,-3,-1,2,0,-2
1470242932611609,2,2,-2,-3,2,-1,-1,-3
1470242932620577,-2,5,4,-3,-3,0,-2,-1
1470242932620577,-3,-2,-7,-1,-1,-1,-1,-1
1470242932635091,2,1,-3,-2,-1,-3,-1,0
1470242932635091,-3,-4,-3,-3,0,-2,-2,0
1470242932637092,0,0,-2,1,-1,0,-1,-3
1470242932637092,0,1,-3,-2,-1,1,1,-1
1470242932658111,0,-4,-3,-1,-2,-1,-2,0
1470242932658111,-2,-3,-1,0,-1,0,1,2
1470242932659633,-2,0,1,-3,-2,-3,0,0
1470242932659633,1,-1,-5,-1,-2,-2,-1,-2
1470242932671623,-3,0,4,1,0,1,-1,0
1470242932671623,0,-1,-4,-3,-1,0,1,0
1470242932680631,1,2,4,4,0,-1,1,-2
1470242932680631,-2,-4,-30,-8,-2,-2,-1,-1
1470242932695645,-6,-10,16,-2,-6,-4,-2,-2
1470242932695645,5,10,14,2,-1,0,-1,0
1470242932697147,-5,-6,-17,-2,-2,-2,-2,-2
1470242932697147,-1,3,3,5,0,0,-1,1
1470242932717681,1,-1,-11,-7,1,0,0,-1
1470242932717681,-1,-1,-4,-2,0,-2,-2,-3
1470242932719168,-2,3,13,2,-1,0,-2,-1
1470242932719168,-4,-9,0,0,-1,-1,0,0
1470242932731677,3,7,-10,-2,-1,-1,-1,-2
1470242932731677,-4,-15,-1,-3,-1,-1,-2,2
1470242932747692,0,5,-2,-4,-1,-1,0,-1
1470242932747692,-2,-6,6,0,0,-2,-1,0
1470242932755699,-1,-1,-16,-1,0,-1,-1,-1
1470242932755699,1,2,5,-4,0,0,0,-1
1470242932757200,-5,-13,5,-2,-2,-1,-1,1
1470242932757200,0,7,9,6,-2,0,0,-2
1470242932777719,2,2,-19,-6,1,-2,-1,-1
1470242932777719,-5,-5,-20,-1,-3,-1,-1,-2
1470242932779220,2,-2,-6,-6,-1,0,-1,0
1470242932779220,-5,0,15,-2,0,1,0,-4
1470242932800238,2,1,10,4,-1,-2,0,1
1470242932800238,0,-1,-7,-4,-2,-3,-2,-2
1470242932801740,1,-9,3,0,0,0,2,-1
1470242932801740,-6,21,-7,-4,-1,-2,-1,-2
1470242932815270,-2,-13,4,2,-2,-2,0,-2
1470242932815270,-2,15,-14,0,-3,-3,-3,-3
1470242932816755,-4,-16,7,1,0,0,0,0
1470242932816755,2,4,5,-3,-1,0,0,0
1470242932837773,-1,-4,5,-1,-1,0,0,-2
1470242932837773,-1,7,12,-2,-3,2,0,1
1470242932839275,-1,-5,-5,-1,-2,-2,-2,-1
1470242932839275,0,-3,-16,-4,0,-1,-3,-1
1470242932860293,-1,1,15,2,-3,-2,-1,-3
1470242932860293,-3,-6,2,-1,1,-1,0,-1
1470242932861794,0,8,-4,-2,-2,-2,-1,0
1470242932861794,2,-10,0,-3,1,0,-1,1
1470242932882832,-9,-9,-8,-4,0,0,0,-1
1470242932882832,1,2,8,4,-1,0,0,-1
1470242932884314,0,8,-5,0,-1,-3,-4,-1
1470242932884314,-4,-13,-1,-5,-3,1,0,1
1470242932897864,-2,1,8,6,2,0,-2,1
1470242932897864,-2,2,-23,-4,-2,0,1,-4
1470242932899341,-1,0,5,-3,0,0,1,0
1470242932899341,2,0,4,1,-1,-1,1,0
1470242932920389,-1,-5,0,-2,0,-1,0,1
1470242932920389,1,-10,-3,-2,-1,-1,-2,1
1470242932922350,-2,13,-12,-6,-2,-1,-2,-1
1470242932922350,-3,-10,1,0,-5,-1,-1,-2
1470242932934860,0,1,3,2,0,-1,-1,-3
1470242932934860,-2,2,14,2,1,-2,-1,-1
1470242932941866,-2,4,-18,-4,0,0,0,-1
1470242932941866,0,-5,12,-4,-1,-2,-3,0
1470242932957882,-1,3,-7,-1,-3,-2,-1,0
1470242932957882,1,-7,4,-4,-2,-1,0,2
1470242932959404,-3,1,6,-2,0,-2,-1,-3
1470242932959404,-1,-8,-8,0,-1,-2,-3,-3
1470242932980403,2,8,3,-2,-2,-1,-1,-1
1470242932980403,-5,-2,-1,-4,-2,-2,-2,-2
1470242932981902,3,-2,-2,-1,1,-1,1,-1
1470242932981902,-5,-7,7,-1,-3,-2,-2,0
1470242932994914,-5,16,3,2,-2,-1,-3,-1
1470242932994914,6,0,-8,0,1,0,-1,-2
1470242933001419,-2,-5,-6,-4,-2,-3,-2,-3
1470242933001419,2,5,3,5,-3,-1,0,-2
1470242933018007,-2,-6,-8,-5,-3,0,-1,-3
1470242933018007,2,-7,-13,-4,-1,-2,1,-1
1470242933019438,-2,0,6,3,-3,-2,0,0
1470242933019438,-2,3,5,0,2,-1,0,0
1470242933040478,2,-4,2,-1,-1,-2,-2,3
1470242933040478,-5,-7,-13,-1,0,-2,0,-2
1470242933041991,1,0,6,1,-1,-1,-1,0
1470242933041991,-2,-6,-10,-2,-1,-2,-2,-1
1470242933054987,4,15,6,-1,0,-1,0,-2
1470242933054987,-4,-4,-7,0,-2,-1,0,-3
1470242933061484,-6,-7,14,3,-2,-1,0,0
1470242933061484,2,1,-16,-7,-2,0,-2,0
1470242933078013,-4,-5,-3,-2,1,0,0,-1
1470242933078013,0,3,11,4,-2,-1,-2,2
1470242933079489,1,1,-11,0,0,0,-2,-1
1470242933079489,-3,0,0,0,-3,-1,0,-2
1470242933100508,0,-9,-8,-3,0,0,0,-1
1470242933100508,-3,1,-1,-1,0,0,-1,-2
1470242933102011,-1,-3,6,1,-1,1,0,-1
1470242933102011,1,6,-20,-5,0,0,-1,-2
1470242933115107,-1,-6,0,-1,-2,-1,-1,-1
1470242933115107,-2,-4,4,1,0,-1,-1,0
1470242933121556,1,0,1,-2,-2,-2,-2,0
1470242933121556,-1,7,2,-1,-2,0,0,0
1470242933138042,4,-10,4,0,-2,-1,0,-2
1470242933138042,-1,0,-2,-1,-1,-1,-2,-2
1470242933139545,-3,-3,-4,-3,-2,-2,-1,-3
1470242933139545,0,-1,6,2,1,-2,0,0
1470242933160082,-4,4,1,0,-2,-3,-1,0
1470242933160082,-2,-15,4,-1,0,-1,-1,0
1470242933162064,2,18,-5,-2,0,0,-1,-1
1470242933162064,0,1,1,1,0,0,-3,-1
1470242933174590,-2,-10,-4,-2,-1,0,0,-2
1470242933174590,-2,1,4,-3,-1,1,0,-1
1470242933181581,3,-2,-18,-7,1,-1,-2,-1
1470242933181581,1,0,15,-1,-1,-1,-1,0
1470242933198096,-2,3,1,4,-2,1,-1,0
1470242933198096,1,-2,-28,-6,-3,0,-2,-1
1470242933199597,-4,-6,8,1,-1,1,-1,1
1470242933199597,1,6,-4,-1,-1,-1,-1,-2
1470242933220681,0,-3,-1,-5,0,-2,-2,1
1470242933220681,3,5,8,0,-1,-1,0,-1
1470242933222618,-4,4,7,0,-1,0,-1,0
1470242933222618,0,-2,-19,-5,0,-2,0,1
1470242933234128,-4,-9,15,4,0,-2,-1,-3
1470242933234128,-5,3,3,4,-3,-1,-2,-1
1470242933243136,1,4,1,-3,-1,-1,-2,0
1470242933243136,-3,-18,-3,-2,2,-1,-1,-2
1470242933257680,-1,-1,-6,-4,-1,1,-1,-1
1470242933257680,-1,6,10,0,2,0,0,-1
1470242933259651,-4,-5,1,1,-1,-1,-2,-1
1470242933259651,0,1,5,2,-1,-2,-1,0
1470242933280202,-1,2,-14,-4,0,0,0,0
1470242933280202,-2,-4,7,-2,-1,-2,0,-2
1470242933282172,2,-3,-2,0,-1,-1,-2,-2
1470242933282172,-2,0,-3,-2,-2,-1,-1,-1
1470242933294182,-3,-2,0,-3,-1,-3,-2,-1
1470242933294182,-1,0,-4,-3,-2,0,-1,-1
1470242933302690,-3,-8,0,-3,-1,1,0,1
1470242933302690,3,12,7,-1,-2,-1,0,0
1470242933318237,-6,-17,-36,-3,-2,-4,-2,-3
1470242933318237,1,3,5,8,1,-1,-2,-1
1470242933319238,-3,0,-1,-1,-2,-3,-1,-2
1470242933319238,-4,-5,0,0,-2,1,-2,-1
1470242933340723,5,5,-2,-3,0,1,0,-1
1470242933340723,-5,-6,-8,-5,-1,-2,-1,-1
1470242933341725,-1,-5,-4,1,-1,0,0,-1
1470242933341725,0,-5,3,-5,-4,-3,-1,-2
1470242933354237,-3,7,22,7,-1,-2,-2,0
1470242933354237,0,-2,-3,-4,-1,0,-2,1
1470242933362792,-1,-3,12,0,-3,-1,-1,-2
1470242933362792,-4,-5,-6,-1,2,0,-1,-1
1470242933392772,-2,4,-3,-4,0,2,1,-2
1470242933392772,-2,-3,1,-2,-1,-4,-1,-3
1470242933394273,2,0,-7,0,1,-1,-1,1
1470242933394273,-2,-2,-1,-1,-3,-1,-2,0
1470242933400283,1,-2,-7,-3,-2,1,0,1
1470242933400283,4,-9,10,-2,2,0,-2,0
1470242933402280,-4,15,12,4,-5,-3,-2,-1
1470242933402280,-4,-3,-10,3,-3,0,-1,-2
1470242933414351,4,15,16,1,-2,-1,-1,-1
1470242933414351,0,0,-8,-2,-2,0,1,-2
1470242933422798,1,-6,-4,-5,1,-1,-2,-2
1470242933422798,-2,0,10,2,-1,0,0,-2
1470242933437844,2,-2,-7,-5,0,-1,-2,-1
1470242933437844,-1,0,3,-2,-1,-1,-1,0
1470242933439813,-2,-10,-10,-4,-1,-1,-1,1
1470242933439813,0,13,1,4,0,-1,-2,-2
1470242933460360,-3,-4,4,2,-2,-1,-1,-1
1470242933460360,-2,-9,-17,-2,-2,-1,0,-1
1470242933461838,-1,-11,-11,-3,-2,-2,0,-2
1470242933461838,0,0,-3,-2,1,-2,-2,-2
1470242933474355,-4,-2,-4,-4,-5,-2,-2,1
1470242933474355,-1,4,1,-1,-2,-2,-2,1
1470242933482870,1,1,1,2,1,-1,0,-1
1470242933482870,-3,-5,-6,-5,-2,-2,-1,-2
1470242933497890,-2,-2,-1,0,2,-1,0,-1
1470242933497890,2,2,-3,-1,-4,-3,-3,0
1470242933499366,-2,0,-4,-5,0,0,-2,0
1470242933499366,-3,-5,6,0,0,-1,0,0
1470242933520403,0,0,1,2,0,1,-1,-1
1470242933520403,-3,-1,2,-4,1,0,-1,-2
1470242933522387,-1,-1,-10,-5,-1,-1,0,-1
1470242933522387,0,1,12,2,-1,-3,-2,0
1470242933533901,2,-16,-6,2,0,-2,0,-2
1470242933533901,-1,3,-12,-3,-4,-1,-1,0
1470242933542906,1,20,6,0,-3,1,-1,0
1470242933542906,2,-7,-4,-1,0,1,0,-1
1470242933557961,-4,-1,-1,-3,-1,-2,0,-1
1470242933557961,-2,0,10,2,0,-1,0,-1
1470242933559422,-3,-11,-3,-2,-2,-1,-1,-1
1470242933559422,-2,1,-4,1,-2,-1,-2,0
1470242933580440,-2,7,0,-2,-1,0,-2,0
1470242933580440,-2,-5,-6,0,-2,-3,-1,-3
1470242933581942,1,-3,3,0,1,-2,-2,-2
1470242933581942,-1,-5,-11,-5,-2,-2,0,-1
1470242933593951,-4,0,0,0,-2,1,-1,-2
1470242933593951,1,1,-10,-1,-1,-1,0,0
1470242933602959,-5,-8,-18,-8,-2,-2,-2,-1
1470242933602959,0,-3,4,1,0,-2,-2,-2
1470242933617973,4,4,-1,-1,-1,-4,0,-2
1470242933617973,-1,0,2,-3,-2,1,-2,1
1470242933619474,-3,2,-2,-2,-3,-2,0,-1
1470242933619474,-3,-3,4,-4,-1,0,0,0
1470242933640493,-4,-5,-10,-1,-1,1,-2,0
1470242933640493,-3,-2,3,1,2,0,1,-3
1470242933641995,-1,2,2,1,-1,-2,-1,-2
1470242933641995,3,0,3,-2,0,-1,-1,-2
1470242933654007,-2,-6,-23,-6,-2,-3,0,-2
1470242933654007,-3,-6,2,-3,-2,-1,-1,-2
1470242933663042,-1,-5,2,4,-1,1,-2,0
1470242933663042,-3,2,-1,-1,1,0,0,-1
1470242933678030,2,4,6,2,0,-1,-1,-2
1470242933678030,-1,-1,-5,-5,-2,-1,-1,-2
1470242933679531,1,-4,5,2,-1,-1,0,-1
1470242933679531,-1,0,-5,-2,-1,0,-1,-1
1470242933700571,-4,-6,-3,-4,-2,0,-1,1
1470242933700571,3,3,11,3,-1,-1,-3,1
1470242933702063,-4,-4,-23,-8,-1,0,-1,-1
1470242933702063,-4,3,17,2,-1,-2,-2,-3
1470242933723067,-1,1,3,9,-2,-3,-1,0
1470242933723067,-1,1,-16,-6,0,-1,-1,-2
1470242933724569,-2,2,5,2,-1,-3,0,2
1470242933724569,-1,-5,-14,-7,0,-1,1,-1
1470242933738081,4,10,9,-3,2,-1,0,-3
1470242933738081,-3,-20,1,3,-1,-1,-2,0
1470242933739582,2,19,1,-1,1,1,0,0
1470242933739582,0,-5,1,-2,0,0,0,-1
1470242933760601,-2,4,15,2,-3,-3,-3,-2
1470242933760601,-3,-3,-10,-3,-2,-1,-3,0
1470242933762102,-2,3,6,4,0,-3,-2,-1
1470242933762102,-3,-4,-1,1,-2,-1,-3,3
1470242933783197,-1,3,-4,-3,-1,0,0,-1
1470242933783197,-3,2,11,2,-1,-2,-1,-2
1470242933784652,-1,-10,-15,-3,0,0,-1,-4
1470242933784652,0,6,5,6,-1,0,0,-1
1470242933798134,-1,-8,-4,-5,-3,-1,-1,-1
1470242933798134,2,2,0,-2,0,0,0,-2
1470242933799636,-4,-4,14,-1,-2,-2,-1,-1
1470242933799636,-4,-4,-13,-6,-2,-1,0,-1
1470242933820155,2,-1,-6,-3,0,-1,-1,0
1470242933820155,-2,4,12,3,-1,-1,-1,-2
1470242933822657,0,-8,-23,-4,-1,0,-2,0
1470242933822657,1,-1,-5,-2,-2,-2,-1,-2
1470242933843186,0,-7,10,1,-2,-1,-1,-1
1470242933843186,0,8,-14,0,-3,-1,-1,1
1470242933844176,-3,-11,5,1,-3,-2,-2,-2
1470242933844176,1,7,1,-2,-1,-1,-1,-2
1470242933858188,-3,-14,-3,-1,0,-1,-2,-1
1470242933858188,0,3,-6,0,-2,-1,0,1
1470242933859190,-1,4,11,-1,0,-1,0,-3
1470242933859190,-2,0,0,-3,-2,-2,-1,0
1470242933880713,-2,-11,-3,2,-1,1,0,-1
1470242933880713,0,-3,2,-2,0,-2,-1,-1
1470242933882211,2,-4,1,4,-1,-1,-1,0
1470242933882211,-4,-2,-1,-5,0,-1,-2,-2
1470242933903235,-3,2,1,-1,-2,-1,-1,0
1470242933903235,2,-2,-4,0,0,-3,-1,-2
1470242933904730,-1,-1,4,0,-2,0,-1,-1
1470242933904730,-3,7,-4,0,-1,-2,-1,-1
1470242933917269,1,1,-6,-3,0,-2,-2,0
1470242933917269,-5,-2,9,2,-1,0,-1,0
1470242933924248,1,1,-14,-6,-4,-2,1,1
1470242933924248,1,-3,4,2,-2,0,-2,-1
1470242933940296,-3,1,-2,1,-1,0,0,-1
1470242933940296,-1,2,4,0,-1,0,1,0
1470242933941763,-5,3,1,-3,-1,-2,-1,-3
1470242933941763,5,-5,-5,-1,2,0,-1,0
1470242933962837,-3,-2,1,0,-1,-2,-3,0
1470242933962837,-1,-5,-1,3,-2,-1,-1,-2
1470242933964284,2,2,8,0,-2,-2,-2,0
1470242933964284,0,-1,-11,-3,-2,0,0,-1
1470242933977297,-1,3,3,-5,-2,-1,1,-1
1470242933977297,1,-2,-4,-5,0,-1,0,-1
1470242933984814,-3,-5,6,1,0,-1,-3,1
1470242933984814,-2,-5,3,1,-2,-1,-1,-2
1470242933999890,0,5,-9,1,1,-1,-1,0
1470242933999890,0,-16,-10,-5,1,-1,-1,0
1470242934000320,1,32,12,1,-1,-1,-1,-1
1470242934000320,-4,-8,1,1,-1,-1,0,1
1470242934021836,-1,-6,-12,-4,-3,-3,-2,-3
1470242934021836,-3,-4,1,0,-4,-2,-1,1
1470242934029842,1,-6,-3,-2,2,0,0,-1
1470242934029842,1,3,-3,0,-1,-3,-1,-1
1470242934036349,1,4,-1,0,-2,-1,-1,1
1470242934036349,-2,2,4,-1,0,-2,0,-1
1470242934052363,-2,-8,-3,-4,-2,-1,0,0
1470242934052363,1,2,-3,-1,-1,-3,-2,-2
1470242934059869,-3,-3,-8,-6,1,3,0,-1
1470242934059869,0,0,10,2,0,0,-1,0
1470242934060372,-4,0,4,5,-2,-3,-2,-2
1470242934060372,-5,-3,-3,-1,-2,-2,1,-2
1470242934081904,0,1,4,-1,-1,-2,-2,-1
1470242934081904,3,5,-11,-4,-1,-1,-1,0
1470242934082892,-3,-5,0,-2,-1,-1,-1,-1
1470242934082892,0,-5,-1,-2,-2,-1,-2,-2
1470242934105412,1,10,3,0,-1,-1,1,0
1470242934105412,-3,1,-2,0,-3,-1,-1,-1
1470242934105911,0,-13,-4,-1,-3,-2,-1,1
1470242934105911,-3,3,1,-1,-1,0,-2,0
1470242934119928,1,-3,-1,0,-1,0,-2,-1
1470242934119928,0,-1,1,-6,-2,0,-2,-2
1470242934120431,0,0,-1,0,0,-1,-1,-2
1470242934120431,2,-2,-13,0,-3,-1,-3,-2
1470242934142459,-3,-1,9,0,-2,-1,0,0
1470242934142459,-3,1,5,0,-1,-1,1,-1
1470242934142964,0,-5,-25,-7,0,0,-2,-2
1470242934142964,-1,-3,5,3,1,-1,-1,-1
1470242934156457,1,2,-2,-2,-2,-2,0,-1
1470242934156457,-2,3,-1,-1,-1,-1,-2,-1
1470242934164964,2,-1,6,0,-3,0,0,-4
1470242934164964,-6,-1,5,-1,-2,-2,1,0
1470242934179477,-2,-2,-6,1,-2,-2,-2,-1
1470242934179477,-2,-5,0,2,-1,-2,-2,-2
1470242934180478,-1,-1,-1,1,-1,-2,1,-1
1470242934180478,-3,-2,-3,0,-1,-1,1,-1
1470242934201999,-1,-2,1,-3,-1,-2,0,0
1470242934201999,0,-1,-11,-2,-1,0,-2,-3
1470242934203032,-2,-7,-2,-2,-1,-1,-2,-2
1470242934203032,-1,0,-1,-3,-2,0,-1,-1
1470242934216560,3,1,3,4,0,-1,-2,1
1470242934216560,1,-2,-7,-4,-2,-1,0,-2
1470242934225099,-4,3,12,3,0,1,0,-2
1470242934225099,0,0,-2,5,-2,-2,0,-1
1470242934240032,-4,2,-3,-2,-1,0,-1,-1
1470242934240032,-1,-1,2,0,0,0,-1,0
1470242934240532,-1,2,-2,-4,1,0,-1,1
1470242934240532,1,0,-1,-3,1,-2,-2,-1
1470242934262077,-3,-4,-3,0,-1,-1,-2,-1
1470242934262077,0,2,-5,-2,-1,-2,1,-2
1470242934263054,6,4,11,-1,1,0,-2,0
1470242934263054,-6,-6,-2,0,-2,-2,-2,-1
1470242934276564,-3,-13,-7,-5,-3,-1,0,-2
1470242934276564,1,2,2,0,-2,-1,-2,0
1470242934284572,-2,-2,3,3,0,1,0,0
1470242934284572,3,1,0,-2,-2,-1,1,0
1470242934299614,-6,-1,-3,-1,1,1,0,-1
1470242934299614,-1,1,4,1,-1,-1,0,-1
1470242934300585,-1,-6,-7,-1,-5,-1,-1,0
1470242934300585,-3,2,-1,-3,-2,0,0,-1
1470242934322110,1,-2,-4,-1,-1,0,-2,-2
1470242934322110,-3,-3,-3,-1,0,-2,-2,-2
1470242934323106,-5,-5,-3,2,0,-1,0,0
1470242934323106,-2,-1,-2,-1,-1,0,-3,-1
1470242934336618,-2,2,6,-1,-2,1,-2,-1
1470242934336618,-1,-5,-6,-2,-2,0,-2,0
1470242934344711,-1,0,-4,-4,-2,-1,-1,-1
1470242934344711,-1,-7,-1,-1,0,1,-1,-1
1470242934360141,0,0,-4,0,0,-2,1,0
1470242934360141,-4,1,3,0,-2,-1,-2,0
1470242934360141,0,-6,-6,-1,0,-2,0,1
1470242934360141,-1,-1,9,-2,0,0,0,2
1470242934382261,-4,1,3,-1,-3,-2,-2,-1
1470242934382261,0,-1,5,1,-1,-1,-2,-1
1470242934382662,-3,-3,-18,-9,-2,-2,-1,-1
1470242934382662,1,2,-3,-1,0,0,-1,-1
1470242934396672,-4,-7,-5,0,3,-1,0,-2
1470242934396672,-1,2,11,0,-1,-2,-1,-2
1470242934404735,0,-2,-2,1,-1,-2,-1,-1
1470242934404735,-3,0,-6,-2,-2,0,-3,-2
1470242934419692,2,-1,0,0,-2,-1,-1,-2
1470242934419692,-3,-5,-12,-3,0,0,0,1
1470242934420194,-1,-2,9,2,-2,-1,0,0
1470242934420194,0,1,-3,-5,-1,-1,-2,-1
1470242934442247,-5,-6,9,3,0,-1,-2,-1
1470242934442247,2,1,-7,-2,0,0,0,-3
1470242934442724,1,2,0,0,0,-2,0,2
1470242934442724,1,-1,6,2,-1,-2,-1,-2
1470242934456726,0,2,-8,-4,-2,-2,-1,-1
1470242934456726,-3,0,1,0,0,0,0,-1
1470242934464738,0,-8,-3,-4,1,1,-1,-1
1470242934464738,1,3,3,3,-3,-2,-2,-1
1470242934479749,-1,-1,-7,0,-1,-1,-1,1
1470242934479749,0,-5,-5,0,-1,-2,-2,-4
1470242934480247,0,7,2,1,0,-1,-1,-1
1470242934480247,-2,-2,-8,-5,-1,-1,-1,-1
1470242934502267,2,3,1,-2,-1,0,-1,-1
1470242934502267,-1,1,2,1,-2,-2,-1,0
1470242934502769,-2,0,0,-1,1,-1,-1,-3
1470242934502769,1,-8,0,1,0,-1,0,1
1470242934516292,0,0,-24,-7,-3,-3,-2,-1
1470242934516292,-6,0,8,2,-1,-2,0,0
1470242934524787,-1,-4,-1,-2,-4,0,-3,-2
1470242934524787,4,1,4,0,0,-1,0,-2
1470242934547865,1,-1,3,0,-1,1,0,0
1470242934547865,-1,2,-8,-4,-1,0,-1,1
1470242934548809,-2,-1,0,2,-1,-1,-1,-2
1470242934548809,-2,-4,-1,0,0,0,-1,-2
1470242934562409,-1,-1,4,-2,-2,-1,-1,-1
1470242934562409,-2,-2,-1,-2,-1,0,1,-1
1470242934562838,2,-3,2,-1,0,-2,-2,-3
1470242934562838,-3,-2,-9,-3,-2,0,-1,-2
1470242934576364,0,3,5,1,0,-1,0,0
1470242934576364,6,0,0,0,-2,-1,-3,0
1470242934584894,-7,-3,5,1,-2,1,-1,-2
1470242934584894,1,2,-6,-3,0,-1,-2,-1
1470242934599855,0,-3,-11,-5,-2,0,0,-2
1470242934599855,-2,-8,16,3,0,-3,-1,-1
1470242934600355,5,17,-15,1,-2,-2,0,-1
1470242934600355,-4,-3,7,-4,-4,0,-2,0
1470242934622375,-1,-1,-6,0,-1,-2,-1,-3
1470242934622375,-2,1,5,-2,-3,-1,-1,-1
1470242934622876,-1,-5,1,0,-2,-2,-1,-1
1470242934622876,0,4,-2,2,1,-2,1,-2
1470242934645408,-3,0,1,0,-1,-1,-1,0
1470242934645408,-1,-2,-7,-4,-4,-2,-1,-2
1470242934646396,0,-3,1,0,-2,-2,-1,-1
1470242934646396,0,-1,1,2,-1,-2,2,-1
1470242934659908,-4,-2,8,3,1,-1,0,0
1470242934659908,-1,1,-5,-1,1,-1,-1,1
1470242934660409,0,-3,-5,-2,0,-1,-1,-3
1470242934660409,0,2,5,2,0,-1,-2,0
1470242934682462,-3,-4,-10,-6,-2,0,0,-3
1470242934682462,0,5,17,6,-2,-2,-1,-2
1470242934682933,-6,-8,1,-3,0,0,-1,1
1470242934682933,-4,0,-5,-3,0,-2,-1,0
1470242934705449,3,2,6,2,-2,-2,-1,-1
1470242934705449,1,-1,-14,-5,-2,0,0,1
1470242934705951,-1,-3,0,-2,-2,-1,2,-2
1470242934705951,-2,0,4,-3,-2,-1,-1,-1
1470242934719560,1,-3,4,3,0,-1,-1,0
1470242934719560,-3,-3,-7,-3,-1,-2,0,1
1470242934720463,-3,1,0,-1,-1,-1,-1,0
1470242934720463,-1,-1,-4,-1,-2,0,-1,-3
1470242934742484,-4,3,-2,-4,-1,-1,-1,-1
1470242934742484,-2,-4,2,-1,-2,-1,-1,-3
1470242934742985,2,2,-1,-2,-1,-3,-2,-1
1470242934742985,0,-9,-6,-3,-2,0,-1,-2
1470242934765503,-4,-1,13,-1,-1,-2,-2,0
1470242934765503,-3,-4,-4,-1,-1,0,0,-1
1470242934766006,0,2,-11,-4,0,-1,0,-2
1470242934766006,-2,-5,-5,-5,0,-1,-1,-2
1470242934780034,0,-1,10,3,-3,-1,-1,-1
1470242934780034,0,2,-10,2,0,0,-1,-2
1470242934780519,-1,3,3,1,-2,-2,-1,1
1470242934780519,-2,0,6,-2,-1,-2,-1,-2
1470242934802083,-3,-7,-16,-3,-1,0,-1,1
1470242934802083,0,3,-1,-2,1,0,-3,-1
1470242934803038,-1,-1,4,1,1,0,-1,-4
1470242934803038,-3,0,0,0,-2,-2,0,-1
1470242934825557,3,2,6,0,0,-3,-1,0
1470242934825557,-5,-2,0,-1,-2,-1,0,-4
1470242934826058,-4,-4,-2,-1,-1,0,-1,-2
1470242934826058,3,0,-5,0,0,-1,-2,0
1470242934839583,-2,-3,1,-1,0,-1,-1,-1
1470242934839583,0,3,2,1,0,-2,-1,0
1470242934840094,0,-3,1,-3,-2,-2,-1,0
1470242934840094,-1,-2,-20,-4,-1,0,-2,3
1470242934862590,0,-1,13,0,0,1,-1,-1
1470242934862590,-1,3,-6,-3,-1,0,1,-1
1470242934863097,0,-8,3,0,0,-2,0,0
1470242934863097,-2,8,9,4,0,-1,0,0
1470242934885694,0,-15,8,-3,-4,-2,-3,-1
1470242934885694,4,-1,-21,-4,0,0,-3,2
1470242934886112,-1,4,11,-2,-2,0,-2,-2
1470242934886112,0,0,-4,-1,0,0,-1,0
1470242934899624,0,-3,-6,-1,-1,0,-3,-2
1470242934899624,-2,-5,8,2,-1,0,0,-3
1470242934900624,4,-2,-4,0,-2,-2,-1,1
1470242934900624,-2,0,4,-1,-1,1,-1,0
1470242934922149,-2,0,-1,0,0,-1,-2,-3
1470242934922149,-2,-2,2,-3,-2,-3,-2,0
1470242934923144,-3,-4,-10,-2,0,1,-1,-2
1470242934923144,1,-4,-7,-2,0,-2,-1,-1
1470242934945711,-2,2,2,0,-3,-3,0,0
1470242934945711,-4,-4,-15,-3,-1,-1,-1,0
1470242934946168,0,11,1,1,-1,0,-1,-2
1470242934946168,-3,-12,-8,0,-1,-2,1,0
1470242934959712,-1,3,1,1,0,-1,-1,-2
1470242934959712,0,-1,-3,-3,0,1,-1,-1
1470242934960188,-3,-7,9,3,0,-2,-3,-2
1470242934960188,-1,-1,-3,-2,-1,-1,-1,-2
1470242934982198,-3,3,-3,-3,-1,-1,1,2
1470242934982198,1,-4,-2,1,-1,-1,-2,-4
1470242934982699,-2,0,-1,-1,0,0,0,2
1470242934982699,0,1,5,0,0,0,-1,0
1470242935005218,2,-5,-8,-1,0,-1,0,-2
1470242935005218,-2,1,-1,-2,-1,-3,0,-1
1470242935006219,-3,-4,-8,-1,-2,-1,0,-1
1470242935006219,-3,0,6,0,-1,-1,0,-2
1470242935019804,0,-2,-11,-1,0,0,0,-3
1470242935019804,-2,-2,2,-2,0,-2,0,2
1470242935020271,-3,-3,-3,-3,-2,-2,-1,0
1470242935020271,5,3,0,0,-2,0,-2,-1
1470242935050349,-3,1,-4,-4,-1,-3,-1,-2
1470242935050349,-2,-3,12,1,-1,1,1,-1
1470242935051285,0,-2,-7,-2,-2,-2,-1,0
1470242935051285,0,1,6,1,-1,-2,0,-2
1470242935065296,0,2,-6,-4,-1,0,-3,-2
1470242935065296,0,1,14,2,0,-1,-2,-2
1470242935065811,0,-3,-12,-1,1,-1,-3,-2
1470242935065811,-3,-2,2,1,-1,-1,0,0
1470242935079804,0,8,3,-4,-2,-1,-1,0
1470242935079804,0,-1,4,1,0,-3,0,-3
1470242935080291,-6,-12,-6,-4,-2,-1,0,-3
1470242935080291,0,2,-6,0,-2,-1,-2,-1
1470242935102345,1,-3,-8,-3,-3,-1,-1,1
1470242935102345,-1,1,2,-1,-1,1,-1,1
1470242935102813,-2,0,0,-1,-1,0,0,-2
1470242935102813,-1,-3,-7,-2,-1,-3,0,-1
1470242935125353,1,-2,7,1,-2,-1,-3,-2
1470242935125353,-5,-1,-5,-2,-1,-1,-2,-1
1470242935125826,-1,-3,-7,-1,0,-1,0,0
1470242935125826,1,2,1,-2,-3,-2,-2,-2
1470242935140340,-2,-2,3,1,0,-2,1,3
1470242935140340,0,2,-6,-3,-2,-4,-2,-1
1470242935140842,0,-1,2,0,-1,-1,-1,-1
1470242935140842,-6,-3,15,-2,-2,0,0,-1
1470242935162416,0,-1,-1,0,2,0,0,-1
1470242935162416,0,-4,-4,-3,-2,-1,-1,-2
1470242935162861,1,2,11,1,2,0,-2,-2
1470242935162861,1,-1,-15,-4,0,-1,-1,-2
1470242935185442,-4,-2,0,2,-2,-1,-2,-2
1470242935185442,-1,1,-7,-2,-3,-2,-3,-2
1470242935186381,-3,0,4,-2,-2,-1,-2,0
1470242935186381,0,-1,-1,0,0,-2,0,-1
1470242935199895,0,2,-7,1,-2,-1,-3,-2
1470242935199895,-1,1,-5,-1,-2,1,-1,-2
1470242935200394,-1,-3,-1,-3,-1,-1,0,1
1470242935200394,-1,2,-11,-1,-2,0,-3,-2
1470242935222414,-2,-3,22,3,0,-3,0,-1
1470242935222414,-1,-4,0,-1,-4,-1,-1,-1
1470242935222917,-4,-5,-3,0,-2,-1,-1,-1
1470242935222917,4,7,-2,1,0,0,0,2
1470242935245510,-2,1,1,-5,-1,0,-1,-3
1470242935245510,0,-2,7,-1,-1,-1,-1,0
1470242935245935,3,7,-2,1,2,1,-1,-1
1470242935245935,-3,-8,2,-3,-2,-2,-2,-1
1470242935258974,-2,2,0,3,0,-3,-1,-2
1470242935258974,2,-2,-3,-5,0,-2,-1,0
1470242935267454,1,0,-6,-1,-1,-1,-2,-1
1470242935267454,-4,-4,0,-3,0,-1,-1,-2
1470242935282485,-2,-2,-9,-6,-1,1,0,-1
1470242935282485,0,2,-2,1,2,-2,-3,-2
1470242935282986,-1,-3,3,-2,-1,-1,-1,-1
1470242935282986,0,-3,-2,-4,-1,-2,-1,-1
1470242935305488,4,-4,-8,0,-1,-2,-1,0
1470242935305488,0,-5,-2,-1,-1,2,-2,0
1470242935305992,0,4,-1,-3,1,-1,0,-1
1470242935305992,-2,2,3,-1,0,-1,-2,1
1470242935319002,-2,-6,3,-1,-3,1,-1,-1
1470242935319002,-7,-3,-3,1,-3,-2,-3,-2
1470242935327007,0,-2,0,-3,-4,-2,-1,-2
1470242935327007,0,1,-4,1,-1,-1,-4,-2
1470242935342521,3,0,6,2,2,-1,-1,2
1470242935342521,0,0,-1,-1,0,0,0,0
1470242935343022,1,-2,-8,-2,-1,-1,-1,-1
1470242935343022,-4,-3,8,-2,-2,-1,0,2
1470242935365542,0,2,-14,-1,-2,0,-1,-1
1470242935365542,-1,-6,1,0,-1,-2,-2,0
1470242935366044,0,0,0,0,-1,-1,-1,-1
1470242935366044,-1,-3,2,-4,-1,-1,0,-2
1470242935379097,-2,-2,2,-3,-1,-1,1,-2
1470242935379097,2,1,-24,-8,0,0,0,0
1470242935387613,-5,-4,27,6,-2,-2,-3,-1
1470242935387613,-3,1,-36,-5,-4,-1,-1,-1
1470242935402119,1,2,-2,-2,-1,0,-2,-2
1470242935402119,-3,-3,7,-1,-2,0,-1,-3
1470242935403075,2,-1,-1,-2,-1,-1,0,0
1470242935403075,0,-3,5,0,1,-1,-1,1
1470242935425704,-4,-3,-9,-2,-2,-3,0,-1
1470242935425704,-1,-3,2,0,-1,-1,1,0
1470242935426101,-5,-5,-5,0,0,0,-1,-2
1470242935426101,-1,-5,-1,0,-1,0,-1,-3
1470242935439108,2,-4,1,-1,0,0,0,1
1470242935439108,-1,2,1,-4,-1,0,-2,-1
1470242935447147,2,-1,-8,-5,-2,-1,-2,0
1470242935447147,-1,-1,6,-3,-1,-2,0,-3
1470242935462154,-3,1,6,4,-1,-2,-1,1
1470242935462154,1,-1,-8,1,-1,0,0,-1
1470242935463129,-1,0,5,1,-1,0,-1,0
1470242935463129,-1,-3,-30,-7,-1,0,-1,-2
1470242935493173,0,4,1,-5,-2,-1,-2,0
1470242935493173,0,-1,4,2,-1,-2,-2,-2
1470242935493663,-1,-2,-4,-2,-2,0,-1,1
1470242935493663,-1,2,16,3,0,-2,-1,-1
1470242935499162,1,-1,-9,-1,0,-1,-1,-2
1470242935499162,-8,-5,3,0,0,-2,-1,0
1470242935507200,1,-2,-4,-2,-1,-1,-1,0
1470242935507200,1,-2,9,3,-1,-1,0,0
1470242935522184,-2,-1,-8,-3,0,-1,1,-3
1470242935522184,-1,0,5,-1,-1,-3,-2,2
1470242935522684,-2,1,-7,-3,-2,0,1,-4
1470242935522684,0,-2,17,2,-1,-2,-2,-2
1470242935545206,-2,-1,-9,-4,-4,-3,-1,0
1470242935545206,-1,4,3,-1,1,-1,-1,-1
1470242935546206,1,6,-1,1,-1,-2,-2,3
1470242935546206,-2,-9,-3,-1,0,1,-2,-1
1470242935559216,-2,4,4,-2,-1,-1,-3,-2
1470242935559216,3,1,8,1,-2,0,0,-1
1470242935567239,-4,-3,-17,-7,-3,-2,-1,-2
1470242935567239,3,0,-3,-1,-1,-2,0,1
1470242935582236,-2,-3,9,2,-3,0,-1,0
1470242935582236,2,6,1,0,1,-1,-2,-1
1470242935583238,-2,-3,7,0,-1,-1,-1,-2
1470242935583238,-2,2,1,1,-2,-1,0,-1
1470242935605262,0,-5,-11,-1,-1,2,-2,0
1470242935605262,-4,-7,-3,-1,-2,1,-1,-2
1470242935606258,-1,1,-1,-1,-1,1,0,-4
1470242935606258,3,9,7,-2,-1,-1,-2,0
1470242935627779,0,-9,-9,0,-1,-1,-1,-1
1470242935627779,-3,-1,9,3,-4,-2,0,-2
1470242935628778,1,0,-11,-4,-2,-3,-1,0
1470242935628778,0,-12,4,-1,-1,0,0,-3
1470242935642290,-4,2,-1,-1,1,-2,-1,-1
1470242935642290,-1,4,-7,-4,-2,0,-2,0
1470242935642791,1,-5,4,2,1,-2,0,0
1470242935642791,-2,5,6,1,-2,-3,0,-1
1470242935665365,0,1,-7,-2,-3,-1,-1,0
1470242935665365,1,-3,-8,-3,-2,-1,-1,-2
1470242935666362,-2,0,9,-3,-1,-2,-2,1
1470242935666362,-3,-3,0,1,0,0,-1,0
1470242935687906,-2,1,-3,1,0,-1,-1,-2
1470242935687906,-2,0,-1,-2,0,0,-1,-1
1470242935688883,-1,-2,-2,-4,-2,-1,0,1
1470242935688883,-4,-2,2,3,-1,0,-3,-2
1470242935701894,2,-2,9,-1,-1,-3,0,-1
1470242935701894,0,4,-11,-3,-1,-2,-1,-1
1470242935702897,-2,-12,-5,-1,-1,0,-2,-3
1470242935702897,2,3,-6,-2,-1,-1,-2,-1
1470242935725458,-1,-2,4,-2,-1,-3,-1,1
1470242935725458,-2,0,-2,0,0,0,0,0
1470242935725915,-2,2,9,0,-2,0,-1,-4
1470242935725915,-3,-3,-7,-1,-1,-2,-2,-1
1470242935747935,3,1,-4,-2,-1,0,-2,1
1470242935747935,-3,-2,1,-3,-2,-3,2,0
1470242935748436,2,-1,-5,2,-2,-2,-1,0
1470242935748436,-4,1,-5,-3,-1,0,-1,-1
1470242935762448,-3,-3,-1,-2,-1,-1,-1,-1
1470242935762448,3,-1,-4,0,-1,1,-3,-1
1470242935762948,-1,2,9,-1,-1,-3,-1,-3
1470242935762948,-1,-1,0,1,-1,-1,-1,-2
1470242935785486,-3,-7,2,2,0,0,-2,1
1470242935785486,-2,-2,-23,-7,-3,-1,-1,0
1470242935785992,-2,-4,-5,1,-1,-1,-1,1
1470242935785992,1,0,1,-4,0,-2,1,-1
1470242935807989,1,0,5,2,1,0,-1,-1
1470242935807989,-2,-1,-1,3,-1,-2,-1,-3
1470242935808489,1,3,-6,-2,-1,0,0,0
1470242935808489,4,2,-3,-3,2,-2,-1,-3
1470242935822502,-7,-1,5,2,-2,0,-1,-2
1470242935822502,-5,-11,5,2,1,-2,-1,-1
1470242935823004,0,0,-6,-3,-2,-1,-1,1
1470242935823004,-1,2,1,-1,-2,-1,1,0
1470242935845523,-2,-2,-6,-6,0,1,0,-2
1470242935845523,-1,-3,4,-2,-1,-1,-1,0
1470242935846044,0,-3,1,2,0,0,-2,-2
1470242935846044,-2,6,-1,-2,-2,0,-1,2
1470242935868084,1,-2,-11,-5,-3,-1,0,-1
1470242935868084,4,2,15,2,-2,-2,0,0
1470242935868544,-2,1,-17,2,2,1,-1,-1
1470242935868544,-3,-9,-22,-5,-3,-2,-2,-2
1470242935882588,-3,-1,4,2,0,-1,-2,-3
1470242935882588,0,5,-3,0,-2,-1,-2,0
1470242935883056,-3,-7,0,0,-1,-1,-1,-4
1470242935883056,-3,-4,4,-2,-2,-1,-1,0
1470242935905577,2,2,-3,0,0,-3,-3,-1
1470242935905577,-2,-3,-2,-1,-1,-1,1,-1
1470242935906078,-2,2,6,-2,-1,0,-3,1
1470242935906078,-1,-3,5,1,-2,-2,-2,-1
1470242935935103,-4,3,-5,-2,-1,0,1,0
1470242935935103,-3,1,4,0,1,-1,0,-1
1470242935936104,-1,-11,-7,-1,-3,-2,-1,-2
1470242935936104,-2,8,17,3,-1,-2,-2,-3
1470242935942111,-2,-5,0,-3,-1,0,-2,-2
1470242935942111,-4,-3,-3,0,-1,-1,-1,-3
1470242935943110,3,4,1,-1,0,0,1,0
1470242935943110,-2,-3,2,-2,-2,0,-2,0
1470242935973138,-1,-8,-5,-1,-2,-1,-1,-2
1470242935973138,-2,-1,0,-1,-1,1,-3,0
1470242935973638,-3,2,-2,-2,-1,-2,-1,1
1470242935973638,-2,-1,-4,1,0,-1,0,1
1470242935987650,5,3,1,0,-2,-3,0,-1
1470242935987650,2,-1,-4,-2,-2,0,0,0
1470242935988651,-2,0,-2,-4,-2,-1,-2,0
1470242935988651,-2,-6,6,-1,0,0,0,-1
1470242936002191,-2,-6,-24,-3,-1,-2,1,-4
1470242936002191,2,4,11,4,-1,-2,-1,-2
1470242936003164,-4,2,-14,0,-1,-1,-3,0
1470242936003164,6,6,-3,-2,1,0,0,-1
1470242936025213,-3,-4,8,-4,-2,-1,-3,0
1470242936025213,2,-2,-6,-6,-1,0,0,0
1470242936026201,1,-4,2,0,-2,-3,0,-1
1470242936026201,-1,2,-6,0,-1,-2,-1,-2
1470242936047720,-3,-2,0,-2,0,-1,-1,-1
1470242936047720,-2,5,-4,0,-2,-1,-2,-3
1470242936048705,1,-8,8,1,0,0,-2,-2
1470242936048705,-3,-2,-8,-1,-1,-2,-2,-1
1470242936062245,-1,3,10,0,-2,-3,-1,1
1470242936062245,0,1,0,-1,-1,1,-1,-3
1470242936062722,-7,-1,-1,0,1,-1,0,0
1470242936062722,1,-7,-2,-2,-3,-1,0,-1
1470242936085265,1,0,1,1,-1,-1,-3,-2
1470242936085265,-3,-3,-7,1,-2,-3,2,1
1470242936086239,1,5,1,-2,-2,0,-2,0
1470242936086239,-4,-4,-10,-2,0,0,-2,-5
1470242936107784,3,4,5,3,-1,-1,-1,1
1470242936107784,-1,-1,3,-3,1,-1,0,-2
1470242936108765,-3,0,6,0,-2,-2,-2,0
1470242936108765,1,-4,-17,-3,0,-2,-1,-1
1470242936122274,-1,0,9,-4,-1,-1,1,2
1470242936122274,0,4,-1,0,-3,-1,0,-2
1470242936122773,1,2,-1,0,-3,-1,-1,-3
1470242936122773,-3,-3,-14,0,0,-1,-2,0
1470242936145316,-2,0,-4,0,-2,-1,-2,0
1470242936145316,-3,-4,-2,-3,-1,-1,-3,0
1470242936145794,0,3,4,-1,0,-1,-1,-1
1470242936145794,1,-2,6,-5,-1,-1,-1,-2
1470242936167839,0,2,7,-1,0,1,-1,0
1470242936167839,-3,-10,-5,6,0,0,0,1
1470242936168814,0,2,-1,-2,0,1,1,0
1470242936168814,-2,-5,7,0,-3,-1,-2,1
1470242936182325,0,3,-8,-2,1,0,1,0
1470242936182325,1,-3,2,-2,-1,-2,-3,-2
1470242936182826,-1,-3,-2,-2,-2,-1,0,-1
1470242936182826,-3,-1,1,1,-1,-1,-2,-1
1470242936205359,2,-2,1,0,-2,-2,-1,-1
1470242936205359,-2,7,-11,-3,1,0,-1,1
1470242936206347,-8,-9,19,1,-2,-1,-1,-3
1470242936206347,-1,-1,-9,1,-3,0,-3,1
1470242936227899,-3,0,-1,-1,-1,-1,0,-2
1470242936227899,-2,-6,-13,-5,-3,-1,-2,-2
1470242936228867,3,4,9,1,1,-2,1,-1
1470242936228867,-1,-4,-13,-3,1,0,0,-2
1470242936241378,-4,-5,-4,-3,-4,1,-2,-1
1470242936241378,-1,-2,-11,-5,-2,1,1,-1
1470242936249900,0,0,15,3,-1,1,-2,-2
1470242936249900,-1,3,-8,0,-2,-1,-1,0
1470242936272940,-6,-7,0,-3,-2,-1,-1,-3
1470242936272940,3,-3,-9,-2,-1,0,-1,-1
1470242936273909,0,1,-3,-2,-2,-3,0,-1
1470242936273909,0,0,8,1,-1,-1,0,0
1470242936287920,1,-1,-5,-2,1,-3,-1,-2
1470242936287920,0,-1,12,-2,0,-2,-2,0
1470242936289422,-2,-1,-15,-2,-3,-2,-2,-1
1470242936289422,-2,-3,6,1,0,-1,-1,-1
1470242936301434,3,2,5,0,0,-1,0,1
1470242936301434,-2,-6,-2,-2,-1,-1,-2,-3
1470242936309940,-1,3,-7,-4,-1,-1,1,-1
1470242936309940,3,1,11,1,-1,-3,0,-1
1470242936325509,-6,-2,-1,-1,-2,-3,-2,0
1470242936325509,0,1,9,1,0,-1,-1,0
1470242936325970,3,-3,-10,-2,0,0,-1,-2
1470242936325970,-4,3,6,-2,0,1,0,-2
1470242936347994,0,0,-7,-2,-1,0,1,0
1470242936347994,-4,-5,12,3,-2,0,-2,0
1470242936348476,1,3,-6,1,1,0,-2,0
1470242936348476,-1,-7,-7,-2,-2,0,-1,1
1470242936361486,-3,-3,-3,-4,-3,-1,-1,-3
1470242936361486,1,2,-4,-1,0,-1,0,0
1470242936370063,-3,-2,-1,-3,-3,-2,1,1
1470242936370063,0,0,8,1,-1,-1,0,-3
1470242936385507,0,0,-8,0,1,-1,-3,-2
1470242936385507,0,1,9,0,0,0,-1,0
1470242936386008,-6,-4,-12,-5,-1,-1,-1,1
1470242936386008,0,2,10,7,-2,-2,-1,-1
1470242936408055,-3,-7,2,1,-1,-1,-2,-1
1470242936408055,1,11,3,-2,-1,-4,0,-2
1470242936408530,-1,-2,-9,-4,-1,-3,-1,-1
1470242936408530,1,0,-3,-3,-1,-2,-1,-1
1470242936421557,-1,2,7,-1,-2,1,1,0
1470242936421557,-4,-6,-7,2,0,-2,-3,-3
1470242936430098,1,7,0,1,-1,-1,-1,-2
1470242936430098,-1,-9,-1,-2,-2,0,-1,1
1470242936445571,-1,4,4,1,-2,-1,0,-2
1470242936445571,1,-2,-2,-3,-1,-1,0,0
1470242936446067,0,-2,2,1,2,-2,-3,-2
1470242936446067,-2,-2,-3,-3,-2,-2,0,-3
1470242936467582,-3,-1,-7,-1,0,0,-2,0
1470242936467582,3,4,-2,1,0,1,0,1
1470242936468602,-4,-13,-3,1,-2,-1,-1,-1
1470242936468602,-4,9,6,0,-1,-1,0,0
1470242936481620,-1,-3,-5,-3,-2,-3,-1,1
1470242936481620,-4,0,-2,-1,-4,-2,-1,-2
1470242936490603,0,1,0,0,-2,0,1,-1
1470242936490603,-1,-2,6,-2,-1,-1,-1,-1
1470242936504641,-4,-5,-19,-3,0,-4,0,-2
1470242936504641,-2,-2,2,-3,-1,0,0,0
1470242936519128,-4,-4,1,-4,0,0,-2,1
1470242936519128,2,-1,5,4,0,-1,-2,-1
1470242936527651,-5,0,1,-1,-2,-1,-1,-2
1470242936527651,0,1,-5,-1,-1,-1,-2,2
1470242936529136,2,-8,-4,-1,-1,-2,-2,-1
1470242936529136,-3,-1,-12,-6,0,0,-1,-1
1470242936550156,-1,1,15,4,-1,-1,-3,-3
1470242936550156,0,-1,1,2,0,-1,0,-1
1470242936551657,-1,6,10,2,-1,-2,-2,0
1470242936551657,-1,-10,-21,-8,-2,-1,-1,0
1470242936564694,0,-2,2,-2,-2,1,0,0
1470242936564694,-1,1,-9,-2,-2,-2,0,-1
1470242936571675,-1,2,-1,-1,-2,0,-3,-2
1470242936571675,-1,-3,5,-1,-2,-1,0,0
1470242936587734,1,4,-7,1,0,0,-1,-1
1470242936587734,-5,0,6,0,0,-1,-1,-1
1470242936589192,1,-2,-7,-3,0,-1,0,-1
1470242936589192,1,2,2,-1,-1,-4,-1,-1
1470242936610210,-1,-2,3,4,0,-1,0,-2
1470242936610210,-1,-5,-8,-5,-1,-2,-1,-2
1470242936611711,-2,-1,6,-1,-1,-1,1,0
1470242936611711,-3,8,-2,-1,0,1,0,-1
1470242936624723,-2,-9,-2,-1,1,0,0,1
1470242936624723,0,-3,-5,1,0,0,-1,-1
