timestamp,emg1,emg2,emg3,emg4,emg5,emg6,emg7,emg8
1470330784532709,0,-3,-3,2,0,1,0,0
1470330784532709,-4,-1,-1,-1,-3,0,0,-2
1470330784533209,-1,-3,-2,0,-2,0,-1,-1
1470330784533209,0,-1,0,-1,0,-1,-2,0
1470330784534211,-4,1,-1,-1,-2,-2,-2,-2
1470330784534211,-1,-2,0,0,1,-1,-1,-1
1470330784537714,-1,-2,-1,1,0,0,1,0
1470330784537714,-2,-3,-1,-2,-2,-3,-2,0
1470330784544218,-1,-1,-4,-7,-3,-2,-1,-1
1470330784544218,-1,0,0,1,-1,0,-3,-1
1470330784552727,0,0,4,8,-1,-1,-1,-2
1470330784552727,-2,-3,-9,-10,-1,-1,-1,-3
1470330784560733,-1,-2,1,-1,0,-4,0,-1
1470330784560733,1,-1,-6,-4,1,-1,0,0
1470330784574746,-2,-1,5,2,0,-2,-2,-1
1470330784574746,1,-1,-2,-3,-2,1,0,-1
1470330784582753,0,-1,2,2,0,-1,-2,-1
1470330784582753,0,-1,-2,-3,-4,-2,1,-2
1470330784597768,-1,0,-2,-4,0,-1,1,0
1470330784597768,-2,0,0,2,0,-2,-1,1
1470330784605774,1,-4,-2,-1,-1,-1,-2,-1
1470330784605774,-2,-1,-1,2,-1,-1,0,-2
1470330784618787,-2,2,-4,-3,-1,-2,-2,2
1470330784618787,1,-2,0,0,-2,-2,-1,-3
1470330784659823,0,1,3,1,-1,-1,-1,1
1470330784659823,1,-1,-5,-2,0,0,-1,1
1470330784660824,-3,-1,-2,-2,-1,-1,0,-2
1470330784660824,-2,0,-2,-2,-1,0,1,1
1470330784664326,0,0,-7,-1,-1,1,0,-1
1470330784664326,-3,-1,9,-1,-2,-2,-1,-2
1470330784665327,1,0,-11,-3,-1,-1,-1,-1
1470330784665327,2,-3,-1,1,-1,0,-2,-1
1470330784671333,-2,-1,-2,1,1,-2,-1,-1
1470330784671333,-2,-1,-10,-5,-2,-2,-2,-2
1470330784680342,-1,0,5,2,-1,-1,1,2
1470330784680342,-3,1,5,-1,-1,0,-2,0
1470330784686346,-3,1,-1,1,-2,0,-2,-3
1470330784686346,-2,-1,2,0,0,-2,-1,-2
1470330784701360,-1,-3,-3,1,-1,-2,0,1
1470330784701360,-3,-2,-4,-4,-2,-2,-1,-2
1470330784708866,-1,-1,9,-2,-1,-3,-2,0
1470330784708866,1,-1,-2,1,2,-1,0,-2
1470330784732389,-2,-2,0,-1,-2,-1,-2,-1
1470330784732389,-1,1,3,1,0,0,-1,-2
1470330784732888,-2,-3,-4,-1,-2,-1,-1,-1
1470330784732888,0,-3,-1,0,0,0,-1,-1
1470330784746901,-1,1,1,0,0,-1,-2,-3
1470330784746901,0,-4,-6,-3,-1,-1,0,-3
1470330784747903,-1,-2,3,-1,0,-2,-2,0
1470330784747903,-1,0,-3,1,-2,2,0,0
1470330784769421,0,-1,-2,0,-1,0,-2,-2
1470330784769421,0,-2,1,-1,-1,-1,-2,-1
1470330784770423,0,-1,-3,2,-2,1,-1,-1
1470330784770423,0,0,-8,-5,-1,-1,-2,1
1470330784791941,1,3,5,-3,-1,0,0,-3
1470330784791941,-1,-1,-3,0,0,-2,-2,-2
1470330784792943,0,-1,3,1,0,-1,-1,-2
1470330784792943,0,-2,-6,2,0,-1,-1,0
1470330784806955,0,-1,0,-2,0,0,-2,-3
1470330784806955,0,-1,-3,-1,-1,-1,-3,-1
1470330784807956,1,2,6,-1,-2,-1,-2,-2
1470330784807956,-1,-2,-4,0,-2,-3,-1,-1
1470330784837983,-2,0,-8,-5,-3,-2,-1,-1
1470330784837983,0,0,11,-2,-1,-1,-1,0
1470330784838483,1,-1,-3,-1,-1,2,-1,1
1470330784838483,-2,1,4,0,-1,-1,-1,-1
1470330784851996,-1,-1,-1,0,0,-1,2,1
1470330784851996,0,-1,-6,-3,-1,-1,0,0
1470330784852996,0,-2,-2,-4,-1,-1,-1,0
1470330784852996,-2,0,-1,-2,-1,-1,0,-1
1470330784867009,-2,-3,-1,2,-2,0,-1,-2
1470330784867009,0,-1,1,4,0,-1,0,-2
1470330784868009,-2,-6,-4,-8,-1,-1,-1,-1
1470330784868009,0,0,-5,-3,-1,-1,0,-2
1470330784890032,0,-1,-6,2,1,1,-3,-1
1470330784890032,0,1,4,-1,-1,-1,1,3
1470330784891030,-1,-1,-3,1,0,-2,-3,-3
1470330784891030,-1,-3,-12,0,-2,0,-2,-1
1470330784912049,0,-1,8,-2,-2,-1,-1,0
1470330784912049,-2,-2,-4,1,-1,0,0,0
1470330784913050,-2,-2,-6,2,-1,0,1,-2
1470330784913050,-1,-2,1,-11,-2,-1,-3,-1
1470330784927063,-2,-2,3,2,-1,-1,-2,-3
1470330784927063,-1,1,-5,-3,-2,1,0,-2
1470330784928063,0,-1,0,-2,0,-2,-1,1
1470330784928063,0,-4,6,2,-2,0,-1,0
1470330784949583,-1,-4,-15,-7,-2,-1,0,0
1470330784949583,-2,-4,0,-1,-3,0,-1,1
1470330784950584,1,1,1,1,-1,-1,-1,-1
1470330784950584,-1,0,3,1,0,0,-1,0
1470330784972103,-1,-1,4,1,-2,-2,0,0
1470330784972103,0,-1,-5,-5,-1,-2,-3,-1
1470330784972604,-1,1,-3,-3,-1,-1,1,0
1470330784972604,-2,-2,-2,0,-2,-3,-1,-2
1470330784987116,-1,-1,3,2,-2,0,1,-2
1470330784987116,-1,1,-5,-3,-1,-1,0,0
1470330784987617,0,-2,2,2,-2,-2,-2,-2
1470330784987617,1,-2,-2,-1,0,-1,0,-1
1470330785009637,-1,1,0,-3,-2,-2,-1,-1
1470330785009637,1,-1,-1,1,-1,-2,-2,-2
1470330785010638,-2,-1,-1,-4,0,1,0,-2
1470330785010638,-1,-1,2,1,-2,-1,1,-2
1470330785032158,-3,-3,-1,-2,-1,0,-2,2
1470330785032158,-1,1,3,-2,-1,-1,0,-1
1470330785032657,-1,-3,-3,1,0,0,2,-1
1470330785032657,1,0,-3,-5,-3,-1,-2,-3
1470330785046671,1,0,3,2,-1,-3,-1,-2
1470330785046671,-4,-2,-5,-2,0,0,-1,-1
1470330785054677,-2,-1,3,-1,-1,-2,-1,0
1470330785054677,0,1,7,2,0,1,0,-1
1470330785069691,0,-5,-11,1,0,-1,-2,1
1470330785069691,-2,0,3,-4,-1,-3,1,-1
1470330785070191,-2,0,-4,-4,-2,-1,-1,-2
1470330785070191,0,-1,-2,0,-2,-1,-1,0
1470330785092211,-1,0,5,0,0,-1,-1,-1
1470330785092211,0,-3,-4,2,-1,-1,-2,-3
1470330785092711,0,-3,-2,1,0,0,-1,0
1470330785092711,1,-2,4,-2,-2,1,0,-1
1470330785106224,0,-2,-2,-3,-1,2,-2,-1
1470330785106224,0,0,0,0,-1,-2,-2,-1
1470330785114731,0,1,0,0,-4,-2,-3,-1
1470330785114731,-1,1,-2,1,-2,0,0,1
1470330785129744,-1,0,-2,-2,-2,-1,-1,-1
1470330785129744,-2,0,0,-1,0,0,-1,-1
1470330785130245,-1,-3,2,0,-1,-1,-1,0
1470330785130245,-1,-1,-7,-5,-2,-2,-2,0
1470330785152265,-1,-1,0,-2,-1,0,1,-1
1470330785152265,-1,-2,10,0,-3,0,-1,-1
1470330785152765,-1,0,-4,-1,0,-3,-3,-1
1470330785152765,-1,-2,2,0,0,-2,-2,-1
1470330785166277,-1,-1,-1,-2,-2,-1,-1,-1
1470330785166277,0,-1,-3,-2,-1,-1,-1,0
1470330785174784,0,-1,-3,-2,-1,0,1,-2
1470330785174784,-1,-1,-1,-2,0,-1,0,0
1470330785189799,-2,-1,-1,-1,-1,-1,-2,-1
1470330785189799,-1,-1,-3,0,-1,0,-3,-2
1470330785190299,1,-2,0,-2,-1,-1,-1,1
1470330785190299,-2,-2,1,1,1,-2,0,-2
1470330785212319,2,0,-1,-2,-2,-1,-1,0
1470330785212319,0,0,-4,0,0,-2,1,-1
1470330785212819,-3,0,-1,-3,-2,-1,-2,-2
1470330785212819,-1,-1,2,2,-2,2,0,-1
1470330785226332,0,-3,1,-1,-1,-3,-1,0
1470330785226332,2,2,-2,0,0,0,1,0
1470330785234839,-1,-2,0,-1,0,0,0,-3
1470330785234839,0,-2,-1,0,0,-1,-3,-2
1470330785249852,-1,0,-3,-1,-1,0,-2,1
1470330785249852,-2,-2,-2,-2,0,-2,-1,0
1470330785250353,0,-1,-3,1,0,-2,-2,1
1470330785250353,-1,0,-6,-1,-1,1,-3,-1
1470330785271872,-2,-1,9,-1,0,0,-2,1
1470330785271872,-1,-1,-4,0,-1,-1,0,-3
1470330785272873,-1,0,-2,-2,-1,2,-1,-2
1470330785272873,0,-1,-2,0,-1,-3,0,-1
1470330785286386,-2,0,-3,0,-2,1,-1,-1
1470330785286386,-2,-1,0,1,-2,-1,0,0
1470330785294393,-1,-1,1,-1,1,-2,-2,0
1470330785294393,0,-2,-1,-3,-1,-1,-1,-1
1470330785309407,-1,0,-3,-2,0,-1,-1,-1
1470330785309407,-2,0,-2,-3,-2,-1,-1,-2
1470330785310407,-2,-2,-3,0,-1,0,0,-3
1470330785310407,0,0,1,0,-1,-4,-1,-1
1470330785331926,-2,-2,-2,-1,-1,-1,-1,-3
1470330785331926,0,-3,-1,-2,1,-2,-2,0
1470330785332927,0,-2,-2,0,-2,-1,-1,0
1470330785332927,-2,-1,2,-1,-2,0,-1,0
1470330785346440,0,-1,0,-1,-2,0,-1,0
1470330785346440,0,0,-1,-2,0,0,-2,0
1470330785354447,-2,1,0,-1,-2,-1,0,-1
1470330785354447,-1,-1,-2,-1,-1,0,-1,-2
1470330785369960,1,-2,-1,-2,0,-3,-1,-3
1470330785369960,-2,-2,-2,-1,0,-2,0,1
1470330785370461,0,-2,0,-1,0,-3,-1,-1
1470330785370461,-1,1,0,-1,-2,-2,-1,-1
1470330785391980,-1,-2,0,0,-3,-2,-1,-1
1470330785391980,0,-3,1,0,-2,-2,-2,-2
1470330785392981,1,-1,0,0,0,-3,-2,-1
1470330785392981,0,-1,-4,0,-3,-1,-2,-1
1470330785406494,-2,-1,-4,-3,1,-1,0,-1
1470330785406494,-2,-1,0,-1,-2,-2,0,-4
1470330785414500,1,-4,-2,-1,-1,-1,-1,4
1470330785414500,-1,-1,1,-1,-1,0,0,-2
1470330785429514,-1,0,0,0,0,-2,0,-1
1470330785429514,1,-1,0,0,0,1,-1,-2
1470330785430515,-2,-2,0,-1,-2,-2,-1,-2
1470330785430515,-3,-2,-2,-2,-2,-1,-2,0
1470330785452034,-2,-1,-1,2,-2,0,-2,-3
1470330785452034,0,0,-2,0,-1,-2,-1,1
1470330785452535,-1,-1,-1,-1,-2,0,0,-2
1470330785452535,1,0,-1,-1,-1,-2,-1,-1
1470330785474555,-1,-1,0,0,-2,-3,-3,-1
1470330785474555,-1,-1,-1,-1,-1,1,0,-1
1470330785475556,0,0,-4,-2,-1,-1,-2,-4
1470330785475556,0,-1,1,0,-2,0,-1,-2
1470330785489568,-1,0,1,-1,-1,-1,0,0
1470330785489568,1,-1,-2,-2,-1,-1,-2,-1
1470330785490068,0,-2,0,-1,-1,0,0,1
1470330785490068,-4,0,-1,-1,-1,-2,-1,-1
1470330785512089,1,-2,-2,-2,0,-3,0,-1
1470330785512089,0,-2,-1,0,-2,-3,-1,1
1470330785513089,-2,0,0,0,-1,0,0,-1
1470330785513089,-2,-1,0,-2,-2,0,0,-1
1470330785535109,-1,-2,-1,-2,-1,2,-2,-2
1470330785535109,-2,-2,-2,-1,-1,-1,0,-2
1470330785536111,-1,0,-1,-2,-1,-3,-1,-2
1470330785536111,-1,0,-1,-1,0,-1,0,1
1470330785549622,-2,1,-2,0,-1,-1,0,-1
1470330785549622,0,0,-1,-1,-3,0,-1,-1
1470330785550123,0,-3,-1,-1,0,-1,-2,-2
1470330785550123,-2,-1,0,0,0,0,0,-1
1470330785572142,1,-2,-2,-1,-1,-2,-4,0
1470330785572142,-2,-3,0,0,-1,-1,-2,-2
1470330785572643,0,0,-1,0,-2,-2,-1,-1
1470330785572643,0,-1,0,-1,-1,-1,-1,-1
1470330785595163,-1,-2,0,-3,-1,-1,-1,-1
1470330785595163,-2,0,-1,0,-2,-1,-2,-2
1470330785596164,1,0,-1,-2,-1,-2,-2,-1
1470330785596164,1,-2,-2,0,1,1,0,-3
1470330785609676,-2,-1,0,0,0,0,0,-1
1470330785609676,0,-2,-2,0,0,0,0,3
1470330785610176,-2,1,-1,-2,0,0,-2,-2
1470330785610176,0,-4,1,-1,-2,-2,0,-1
1470330785631195,0,-3,-3,1,-1,-3,-3,0
1470330785631195,1,0,-1,0,-1,-1,-1,0
1470330785639702,0,-2,-2,-1,-3,1,0,0
1470330785639702,0,0,-3,-1,-2,-1,-2,-2
1470330785654987,-1,1,2,-1,-1,-1,-1,-1
1470330785654987,-1,2,1,-2,-2,-2,-1,0
1470330785655988,0,-2,-2,-1,-3,0,0,1
1470330785655988,-1,0,0,-3,-1,-1,0,0
1470330785678009,-1,0,-3,-2,-2,-1,-1,-1
1470330785678009,1,-2,-2,-2,-2,0,-2,0
1470330785678509,-1,-2,0,-1,1,0,0,-1
1470330785678509,-1,-3,-1,0,0,-2,-1,-2
1470330785691520,0,-2,-1,0,-1,-1,1,-1
1470330785691520,-1,0,0,-2,0,-1,-2,1
1470330785699527,0,0,-2,-2,-1,-2,-1,0
1470330785699527,-3,0,-1,-1,0,-1,-1,0
1470330785714540,-2,1,-2,-1,-3,-2,0,-1
1470330785714540,-1,0,-1,-1,-2,1,1,-5
1470330785722048,1,0,-1,0,0,0,2,0
1470330785722048,0,-1,-2,-1,-1,0,-1,-1
1470330785737562,-1,-2,0,-1,-3,-1,-1,1
1470330785737562,-1,-3,-1,-2,-4,-2,-1,-1
1470330785738562,-1,1,-3,-1,0,-1,-3,-2
1470330785738562,0,1,1,0,-1,-2,-1,1
1470330785751573,1,-1,-2,-2,0,2,0,-2
1470330785751573,-1,-1,-2,1,0,-1,-1,-1
1470330785759581,-5,-1,0,-3,-1,-1,0,-1
1470330785759581,1,0,-2,0,-1,-3,-2,-1
1470330785775123,-1,-2,2,-1,-1,-3,-2,-2
1470330785775123,0,-1,-2,-2,0,0,-2,-1
1470330785776100,1,-4,-1,0,-1,-2,-1,0
1470330785776100,1,-1,-1,-1,-1,1,-1,-3
1470330785798116,-1,-2,-2,1,1,0,-2,-1
1470330785798116,-1,-1,-3,-1,0,-2,-2,-2
1470330785798620,1,1,-1,0,-3,0,-1,-2
1470330785798620,-1,-2,-2,0,-1,-2,-2,-1
1470330785811628,-2,-1,-2,-2,0,-2,0,-1
1470330785811628,-1,-4,1,-2,1,0,-1,0
1470330785819663,-2,0,-1,0,1,-1,-4,0
1470330785819663,-2,1,-1,-1,-2,1,0,1
1470330785835150,-1,1,-1,1,0,-1,-2,-1
1470330785835150,-2,1,0,1,-1,-1,0,1
1470330785836151,-1,0,1,-1,-1,-3,1,-2
1470330785836151,0,-1,-3,-1,-1,-1,-2,-2
1470330785857670,0,-1,-1,0,0,-1,0,0
1470330785857670,-2,-2,-2,-2,-2,-2,-1,-1
1470330785858672,-2,-3,-3,-2,0,0,-1,0
1470330785858672,-2,-3,0,-1,-1,-1,1,1
1470330785871682,2,-3,-1,-1,-2,1,-1,0
1470330785871682,-1,3,0,-1,-1,-2,-2,-3
1470330785879718,-1,-2,0,1,-2,1,-1,1
1470330785879718,-2,-2,-1,1,-1,-2,-2,-1
1470330785902709,-2,-1,0,-2,-3,-4,-2,-1
1470330785902709,-1,-1,-2,-2,0,-1,-1,-1
1470330785903711,-2,0,1,-1,-1,-1,-3,0
1470330785903711,-3,-2,-1,-2,-1,-2,-1,0
1470330785917725,-1,0,-2,0,-2,-1,0,0
1470330785917725,-1,-2,-1,-1,-1,0,0,-2
1470330785918723,0,-2,-1,0,0,-2,-1,-2
1470330785918723,-2,-2,0,-2,-1,0,-3,-1
1470330785940296,-1,-3,1,-2,0,0,0,0
1470330785940296,0,1,0,-1,0,-2,-3,0
1470330785941244,-1,-1,-2,-1,-3,-1,0,0
1470330785941244,0,-1,1,-1,-2,-3,-1,-2
1470330785953786,-1,-1,-4,-2,-2,-3,-1,-3
1470330785953786,0,0,-1,-2,1,-2,1,-2
1470330785962763,-3,-4,-1,-1,0,0,0,1
1470330785962763,-1,0,-1,1,1,-1,0,-1
1470330785977810,-2,0,-1,-1,-2,2,-2,0
1470330785977810,-1,-1,-1,0,-3,0,-1,0
1470330785979279,0,0,-1,-1,-1,-2,-2,-3
1470330785979279,-2,-2,-1,-2,-2,-1,0,-1
1470330786000297,0,-3,-2,-3,-2,-1,-2,1
1470330786000297,-1,-1,0,-1,-1,-2,-1,1
1470330786001801,-1,1,-1,-1,-1,-2,0,-1
1470330786001801,0,0,-1,-2,0,-1,-1,0
1470330786013858,-1,-1,1,0,-1,-3,-1,-2
1470330786013858,-2,-1,-2,-1,-2,1,-1,-1
1470330786022818,1,-1,0,-1,-2,-2,-3,-3
1470330786022818,1,-1,-1,-2,0,0,-1,0
1470330786037832,-3,0,-3,0,1,0,0,-1
1470330786037832,-1,-1,-1,-2,-2,-1,0,0
1470330786039332,-1,1,0,-1,0,1,1,0
1470330786039332,-2,-2,-1,-2,-1,-1,-1,0
1470330786060351,-2,-1,0,-2,0,-3,-1,-1
1470330786060351,0,-2,-1,-1,-3,-4,1,-2
1470330786061852,-2,-2,0,0,-2,-1,-1,1
1470330786061852,-1,0,-1,-3,-2,-2,-2,0
1470330786073863,-2,0,0,-1,-2,1,0,-1
1470330786073863,1,-2,-3,2,0,-1,0,-1
1470330786082872,0,0,-1,-2,0,-3,-2,-1
1470330786082872,1,-2,-1,1,-1,-1,-1,-3
1470330786105391,-1,-1,-1,0,0,-1,-1,-2
1470330786105391,-1,-1,0,-1,0,0,-2,-2
1470330786106893,-1,-2,-2,0,0,0,0,0
1470330786106893,-2,-1,-1,0,-1,-3,-2,-3
1470330786120404,-2,-2,-3,-1,0,-1,-1,1
1470330786120404,-1,0,2,-1,-1,0,-2,-1
1470330786121907,-2,-2,-3,0,-1,-2,-2,-2
1470330786121907,-2,-2,-2,-1,-2,-2,-2,-1
1470330786134417,1,-1,-1,0,0,0,-1,1
1470330786134417,0,-1,-1,-1,-3,-2,-1,0
1470330786141424,0,-2,-1,-2,-1,-2,1,-2
1470330786141424,-2,-1,-2,-1,-1,-2,-2,-3
1470330786157938,0,-1,0,-1,-2,-2,-1,-1
1470330786157938,0,-3,-2,-2,0,0,1,0
1470330786159442,1,-1,-1,-1,-3,-1,-1,-1
1470330786159442,-1,-3,-1,0,1,-2,0,1
1470330786180459,-1,-1,-1,-1,-1,-1,-1,-2
1470330786180459,-1,2,0,0,-1,0,-2,-2
1470330786181960,2,-1,-1,-1,-3,0,-2,-1
1470330786181960,-1,-1,1,0,-2,1,-2,-1
1470330786194501,0,-1,0,-4,0,-1,-2,0
1470330786194501,-1,-3,0,-1,0,-2,0,0
1470330786201481,0,-1,0,1,-3,0,-2,-2
1470330786201481,-2,1,-2,-1,-1,0,-1,-2
1470330786217492,-3,-2,-1,1,-1,-1,-1,0
1470330786217492,1,-2,-2,-2,-1,-2,-2,1
1470330786219494,-1,-2,-1,-1,1,-1,0,-2
1470330786219494,2,0,-1,-2,-3,-2,0,0
1470330786240534,-2,0,0,-1,-1,-1,-1,-1
1470330786240534,0,-2,-1,-1,-2,1,-1,0
1470330786242077,-2,1,-2,-1,1,-4,-1,0
1470330786242077,-2,-2,0,-1,1,0,0,-2
1470330786254025,-1,1,-3,-1,2,1,-2,-2
1470330786254025,-1,-4,0,0,0,-3,-2,-2
1470330786263035,-2,-1,-3,-1,0,1,-2,-1
1470330786263035,-2,0,-1,0,-1,-1,0,0
1470330786278046,1,-2,-1,-2,-1,-3,-3,0
1470330786278046,-1,0,-3,-1,1,1,-3,-2
1470330786279548,-1,0,0,-2,0,0,-2,-1
1470330786279548,-1,0,-2,-2,-1,-1,-2,-1
1470330786300132,0,-2,-1,1,-1,-1,0,-4
1470330786300132,-1,-1,0,-1,-2,-1,1,-2
1470330786301568,-4,-2,-2,-2,-3,-1,0,0
1470330786301568,-1,-2,-2,-3,-2,-1,-1,0
1470330786314609,-2,-2,-1,-1,-2,-2,-1,-2
1470330786314609,-2,1,-1,0,1,-1,-2,-1
1470330786321641,-1,1,-1,1,-1,-2,-1,-1
1470330786321641,-1,-1,-2,-1,0,-1,0,-1
1470330786338169,-1,0,-1,-2,-1,-1,-1,-1
1470330786338169,0,-1,-1,-3,-2,-1,0,-1
1470330786339625,0,-4,-3,-2,0,-1,1,0
1470330786339625,1,1,-1,0,0,-2,-1,-3
1470330786360123,-1,-1,2,-2,0,0,-2,1
1470330786360123,-1,-1,-2,-1,-1,2,-1,-1
1470330786362122,-2,-1,0,-1,-2,0,0,-3
1470330786362122,-3,-1,0,-1,-2,0,-1,-1
1470330786374634,-1,0,-2,2,-2,-2,-2,-2
1470330786374634,-2,-1,-1,-1,-2,0,-4,0
1470330786381639,-1,-1,-1,-2,0,0,-1,-1
1470330786381639,-1,-1,-1,-1,-1,-1,-1,0
1470330786398154,-2,0,0,-1,-2,-2,-1,-2
1470330786398154,-2,-1,0,0,-3,-1,-1,-1
1470330786399656,0,-1,-1,2,-3,-3,-2,-2
1470330786399656,0,-2,0,-2,-1,-1,-1,-2
1470330786420175,-3,-2,-2,-2,-2,-1,1,0
1470330786420175,-4,-1,-1,-1,-1,-1,1,-1
1470330786421677,-1,-2,1,-1,-1,-2,-1,-2
1470330786421677,-1,0,0,-1,0,-1,0,-2
1470330786434187,-1,-1,-1,0,1,0,0,-2
1470330786434187,-1,-3,-2,-1,0,-1,-2,-1
1470330786442698,-3,0,-2,-1,-1,-1,-1,-1
1470330786442698,1,-3,-1,-1,-1,-1,-1,-1
1470330786457739,1,0,-2,-2,-1,0,-1,0
1470330786457739,0,-1,1,0,-1,-1,0,-1
1470330786459210,-4,-2,0,-3,-2,-2,-2,-3
1470330786459210,-1,-2,-4,1,-3,-1,-1,-2
1470330786480232,0,-2,0,-2,-1,-1,-1,-1
1470330786480232,1,1,-3,-1,-1,-2,0,-3
1470330786482230,0,1,2,-1,-1,0,1,2
1470330786482230,-2,0,-1,0,0,-1,-1,0
1470330786493765,-3,-2,1,0,0,-1,-1,-1
1470330786493765,-2,0,-1,-3,-2,-2,-1,-1
1470330786503249,1,-2,-3,-1,0,0,-4,-2
1470330786503249,1,-1,-1,0,-2,2,-1,-1
1470330786518262,-2,-2,-2,-1,-3,-2,-1,-4
1470330786518262,-1,0,-4,0,0,-1,-1,0
1470330786519764,-2,0,0,-1,0,1,-1,-2
1470330786519764,-1,-2,0,-2,0,-1,-2,-2
1470330786540285,-2,0,1,-2,-1,-1,-2,-2
1470330786540285,-1,-1,-2,-2,-3,-1,0,-1
1470330786541783,-1,-2,-2,0,-1,-2,0,-1
1470330786541783,0,-1,0,0,-1,-1,0,0
1470330786553801,0,-1,0,0,-1,0,0,-2
1470330786553801,-1,-2,-1,0,0,0,-2,-2
1470330786562851,1,-2,-2,-1,-2,-2,-1,-1
1470330786562851,0,0,-1,-1,-1,-1,-1,-2
1470330786577850,-2,-2,-3,-1,-2,-2,-2,-1
1470330786577850,-1,1,-1,-1,0,-3,1,-2
1470330786579317,1,-1,-1,-1,-1,0,0,0
1470330786579317,-3,-1,-1,-3,-3,0,-1,1
1470330786600336,-2,1,-1,-3,0,1,-2,0
1470330786600336,2,-3,-2,0,1,-1,-3,0
1470330786601838,-2,-1,1,0,0,-1,0,-2
1470330786601838,-1,0,-2,0,-1,-3,0,-2
1470330786614364,-2,1,-2,0,-2,1,-1,-1
1470330786614364,-2,-1,1,-1,-2,0,-2,-1
1470330786622856,-2,-2,-1,-1,0,-2,-1,-1
1470330786622856,-2,-1,0,-1,-1,-2,-1,0
1470330786637901,0,-3,-2,0,-2,-3,-1,0
1470330786637901,-2,0,-1,0,-1,-1,0,0
1470330786639371,0,0,-2,-1,-1,-1,-1,0
1470330786639371,0,-2,-2,-2,-1,-1,-1,-1
1470330786660392,1,-1,-3,-2,0,1,0,-4
1470330786660392,-1,-2,-1,-2,-1,-1,1,-2
1470330786661907,0,-2,-1,-2,-2,-2,-2,-1
1470330786661907,-1,-1,-1,-1,0,-1,-1,-1
1470330786673935,0,1,0,1,1,-2,-1,0
1470330786673935,1,-3,0,-1,-2,-1,-1,-2
1470330786682957,-1,0,-2,-1,-2,0,-1,1
1470330786682957,1,-2,-1,-1,-1,-1,1,0
1470330786697924,-1,0,0,1,0,-2,0,2
1470330786697924,-1,0,-1,-2,0,0,-1,-3
1470330786699426,0,1,0,-2,-2,-1,-2,-1
1470330786699426,-1,-1,-1,-1,-2,-3,-1,0
1470330786720491,0,-2,-1,0,-3,-1,-1,2
1470330786720491,0,-1,-1,-1,-1,0,0,0
1470330786722446,-3,0,1,-1,0,1,-1,0
1470330786722446,0,-3,-2,-3,-1,-3,-2,-4
1470330786733992,0,0,-2,0,1,-2,0,-2
1470330786733992,-1,-1,-1,0,-2,-2,-2,-1
1470330786742965,-2,0,-1,-3,-2,-1,1,-2
1470330786742965,0,2,0,-2,-1,0,0,-1
1470330786757977,2,1,-1,-1,-1,-2,-2,1
1470330786757977,1,-1,-1,-2,0,-1,-2,1
1470330786759478,-2,-1,0,0,0,0,0,-1
1470330786759478,-1,-1,0,-2,0,-2,-1,-1
1470330786780497,-2,-3,-2,-2,-1,0,-1,-1
1470330786780497,-2,-1,0,-1,-1,-2,-2,1
1470330786782037,0,-2,-2,1,-2,0,0,-3
1470330786782037,-3,0,-1,-1,-1,-1,-2,-1
1470330786794039,0,-2,-2,-4,-2,-1,1,-2
1470330786794039,-2,-1,-3,-3,-2,0,-1,-1
1470330786803018,0,0,-2,-1,-1,-3,-3,-1
1470330786803018,0,0,-2,-2,0,0,-2,1
1470330786817531,-1,0,0,-2,-1,-1,0,-3
1470330786817531,0,-2,-2,-2,-1,-1,-1,-3
1470330786819558,0,-2,0,0,-1,1,-1,0
1470330786819558,-1,-3,-1,-1,-1,0,-1,-3
1470330786840054,0,-1,-2,-1,-1,-1,-1,-1
1470330786840054,-1,-1,2,0,0,-2,0,-1
1470330786841552,1,-1,-2,-3,0,-1,-1,0
1470330786841552,0,0,-1,0,1,-2,0,2
1470330786854155,-1,-2,0,0,-2,-1,-1,-1
1470330786854155,-2,-1,0,-1,-2,0,-1,0
1470330786863072,0,-1,-2,-2,-2,0,-1,0
1470330786863072,-2,-2,-2,1,-2,-2,-1,-2
1470330786878092,-2,1,1,0,-2,0,-1,-4
1470330786878092,-1,-1,1,0,1,-2,-1,-1
1470330786879651,-1,0,-2,-2,-1,-2,-1,-1
1470330786879651,1,-1,1,-1,0,0,-2,-3
1470330786900185,0,-2,-2,-2,-2,0,-1,-4
1470330786900185,-3,1,-1,-2,-1,-2,-1,0
1470330786901615,0,0,-1,-2,1,-1,-1,-1
1470330786901615,1,-2,0,-1,-1,-1,0,-3
1470330786923126,-1,1,-1,1,-1,-1,-2,0
1470330786923126,0,0,-1,-1,-2,-2,0,-1
1470330786924627,-1,-2,-2,-2,-2,-2,-3,0
1470330786924627,-1,-2,-3,0,-1,-1,0,-1
1470330786937663,-2,0,-1,-2,0,-1,-1,-1
1470330786937663,0,-1,0,-2,-2,-1,-2,-2
1470330786939641,-3,1,-1,0,-1,-1,-1,-1
1470330786939641,-2,-1,-1,-1,-2,-1,-2,-2
1470330786960191,-2,-2,-2,0,-2,0,0,-1
1470330786960191,1,0,-1,-1,0,1,-2,-1
1470330786962193,-1,-1,0,1,0,-2,0,-2
1470330786962193,-3,0,-1,0,0,0,-2,0
1470330786982703,-2,0,0,-1,-1,-1,-2,-1
1470330786982703,-3,-2,-2,-1,-4,-2,-1,0
1470330786984680,-1,-2,1,0,-2,-1,-2,-1
1470330786984680,-2,-1,-4,-3,-1,-2,-2,-1
1470330786997748,1,-1,-1,-1,-2,-2,-2,1
1470330786997748,-1,0,-1,0,0,1,-2,0
1470330786999731,-1,-1,1,-2,-2,-1,-1,-1
1470330786999731,0,-1,0,0,0,0,1,1
1470330787020238,-2,-1,-1,-1,-1,-1,-1,-1
1470330787020238,-1,-3,-2,-1,0,-1,-2,-2
1470330787021714,-2,-1,0,-1,1,0,0,-3
1470330787021714,0,-1,0,-2,-1,1,-3,-2
1470330787042778,-2,-1,0,0,0,-1,0,-2
1470330787042778,-1,-1,-1,0,-2,0,0,0
1470330787044234,1,1,-1,0,-2,-2,-1,0
1470330787044234,-2,-2,-3,-2,-2,-1,-2,-2
1470330787057298,-1,-2,-1,-1,0,-1,-2,-1
1470330787057298,-4,1,-3,-1,1,-1,-3,0
1470330787064284,1,-2,-2,-2,-1,-2,0,0
1470330787064284,0,0,0,-1,-2,-2,-1,1
1470330787080292,-2,-1,-1,0,-2,-1,-1,-2
1470330787080292,0,0,0,-2,0,-1,-2,-1
1470330787081784,-1,-3,-1,-2,-2,-1,-1,-2
1470330787081784,-1,2,0,-1,-2,-2,-1,1
1470330787102822,-3,-3,2,-2,-1,-3,-1,1
1470330787102822,0,0,0,-1,-1,-2,0,-1
1470330787104288,-2,-2,-1,-2,-2,0,-1,-2
1470330787104288,0,-4,-1,1,-2,2,-2,-1
1470330787117300,1,0,-1,-3,-1,-2,1,2
1470330787117300,0,-3,-1,1,0,-3,0,1
1470330787131369,-2,-2,-1,-2,0,-1,-2,-1
1470330787131369,-1,-1,0,-2,-2,-1,0,0
1470330787140324,1,2,0,-1,-1,1,-1,-3
1470330787140324,-1,-1,0,-2,-1,0,0,-3
1470330787141827,0,-2,-3,-1,-2,0,-1,-2
1470330787141827,1,-1,-1,0,-2,0,-1,-1
1470330787162842,0,-2,-1,0,-1,-2,0,0
1470330787162842,0,-1,0,-2,-1,-1,-2,-1
1470330787164345,0,-4,0,0,-1,0,0,0
1470330787164345,-4,0,2,-2,-1,-1,1,-1
1470330787176856,0,-1,-1,-1,-2,0,0,0
1470330787176856,-3,-1,-1,-1,0,0,0,-2
1470330787183861,-1,0,0,-2,-1,0,-2,-1
1470330787183861,-1,-2,-3,-3,0,-2,0,-1
1470330787200387,0,-2,-2,-3,-2,1,-1,0
1470330787200387,0,-3,-2,-3,-1,-1,0,-2
1470330787201920,-1,-2,0,-3,-4,-1,0,0
1470330787201920,-1,-1,0,-3,-1,-2,0,-1
1470330787222895,0,-1,-1,-3,-1,-1,-2,-1
1470330787222895,1,-2,-2,-1,-1,0,-1,1
1470330787224441,1,-1,-2,-1,0,-2,-1,-1
1470330787224441,-1,0,-2,1,0,-2,0,-3
1470330787237416,-1,-2,-1,-1,-2,0,0,-2
1470330787237416,0,-1,-1,-1,-3,3,0,1
1470330787243914,-2,-1,0,0,-1,-3,-2,-1
1470330787243914,1,-2,-1,0,-2,0,0,-1
1470330787260520,-2,-2,-1,-1,0,-2,-3,-2
1470330787260520,-2,-1,-2,-1,-1,-2,-2,-1
1470330787261949,0,-1,-2,-1,-2,1,0,-3
1470330787261949,-1,-3,-2,-2,1,-1,-2,-2
1470330787282950,-3,-1,-1,0,-1,-1,-1,-1
1470330787282950,0,1,-1,-2,-1,-1,-2,-1
1470330787284450,-1,0,-2,-1,-1,-1,0,-2
1470330787284450,-2,-1,0,-2,-1,1,-1,0
1470330787296995,1,-1,-2,-3,0,0,0,1
1470330787296995,0,-2,-2,-1,-3,-2,0,-1
1470330787303970,-2,-1,-1,-1,-1,0,1,0
1470330787303970,0,0,-1,-1,-3,-1,-1,-1
1470330787320491,-4,-2,0,0,0,-2,0,0
1470330787320491,-2,0,0,0,-1,-1,-2,-2
1470330787322006,-2,-1,-4,-1,-1,-1,-1,0
1470330787322006,-1,-1,-1,-2,-1,-2,1,0
1470330787343006,0,0,-2,-2,0,-1,0,-2
1470330787343006,0,-1,1,-1,-2,-2,-1,-1
1470330787344545,0,-1,-1,0,-1,-2,-1,0
1470330787344545,-2,-1,0,2,0,0,0,-1
1470330787357016,-1,0,-1,-1,-2,1,-2,-3
1470330787357016,-2,0,-3,-1,-2,0,1,0
1470330787364046,0,-1,1,-1,-1,-1,-2,1
1470330787364046,-3,0,0,0,-2,-1,-1,-2
1470330787380037,-2,-4,-2,1,0,-1,0,-1
1470330787380037,0,0,-1,0,0,-2,-2,-2
1470330787382038,0,0,0,-1,0,-1,0,-1
1470330787382038,0,0,0,0,-3,0,-2,0
1470330787403056,-1,-2,-1,0,-1,0,-2,0
1470330787403056,-1,0,1,-1,-2,1,-2,-2
1470330787404558,-1,0,0,-2,-1,-2,1,-2
1470330787404558,-3,-3,0,-2,2,-2,-1,-3
1470330787416592,-3,-1,-1,-1,-1,-1,-3,-1
1470330787416592,-3,-3,-1,-1,-2,-1,3,-1
1470330787425577,0,0,-2,-2,-2,0,-1,-1
1470330787425577,-1,-1,-3,-1,-3,-2,0,-2
1470330787440590,0,0,-1,0,-1,-1,-1,-1
1470330787440590,-1,-2,-2,0,-1,-1,-2,1
1470330787442112,-1,-2,0,-1,-1,0,-2,-1
1470330787442112,-2,0,-2,-3,1,-1,-1,-1
1470330787462611,0,-1,-2,-1,-1,-2,-1,-2
1470330787462611,0,-3,-1,-1,-2,0,-3,-1
1470330787464111,0,-3,0,0,0,-2,-1,2
1470330787464111,0,0,-1,1,-1,-1,-2,1
1470330787476650,-1,-1,-1,-3,0,0,-1,-1
1470330787476650,0,2,-3,-2,0,-1,1,0
1470330787485630,-2,1,-1,-1,0,-1,-1,-1
1470330787485630,0,-2,0,-3,-1,-1,-2,0
1470330787500644,-2,-2,-1,0,-2,0,0,-2
1470330787500644,-2,-3,0,0,0,-1,0,-2
1470330787506662,0,-2,-1,-2,-1,1,-1,-1
1470330787506662,-4,0,-1,-2,-1,-2,-1,-2
1470330787523170,0,-1,0,1,-1,-1,1,-2
1470330787523170,-1,-2,-2,-2,0,-3,-2,-1
1470330787524666,-2,1,-3,-1,-2,-2,1,-3
1470330787524666,1,-2,-2,-2,-3,0,0,-1
1470330787536676,0,-3,-1,-1,-1,-1,-2,1
1470330787536676,0,-2,0,-4,-1,0,1,-3
1470330787545684,0,-2,-1,0,-1,0,0,-1
1470330787545684,1,-1,0,0,-2,-1,-1,0
1470330787560249,-1,-2,1,0,-1,-3,-2,0
1470330787560249,-1,-1,-1,-1,-1,0,0,-1
1470330787562199,-1,-2,-1,0,-1,1,-3,-1
1470330787562199,0,-1,-1,-3,-1,-1,0,-2
1470330787582718,-1,1,-1,-2,1,-1,-1,1
1470330787582718,1,1,1,0,-1,0,-1,0
1470330787584720,-2,-2,-3,-2,-2,-1,1,-1
1470330787584720,-1,0,-1,1,-2,-1,-1,0
1470330787596730,-1,-1,-1,-2,-2,0,-2,-3
1470330787596730,-1,0,1,-2,-2,-2,-1,0
1470330787605240,2,-1,0,-3,-1,-2,-1,0
1470330787605240,-3,0,-2,-1,0,0,-1,-2
1470330787620258,2,-2,-1,-2,-3,1,0,0
1470330787620258,0,1,0,0,0,-2,-1,-1
1470330787622328,0,0,1,-1,0,-1,-1,-3
1470330787622328,-2,-2,0,0,-1,-3,-3,-1
1470330787642804,-2,0,0,-1,0,1,-1,-3
1470330787642804,-1,-2,-1,-1,-1,-1,-1,0
1470330787644273,-2,-4,-1,-3,1,1,0,-2
1470330787644273,0,0,0,0,-1,-1,-2,1
1470330787665792,-2,1,-1,0,-2,-2,-2,-2
1470330787665792,-2,0,-5,-1,-1,-2,-1,-1
1470330787666842,-1,1,0,-1,0,-1,-2,0
1470330787666842,1,-2,-2,-2,0,-2,-1,0
1470330787680305,0,0,-2,0,-2,-2,-1,0
1470330787680305,0,0,-1,1,-2,-1,-1,-1
1470330787681808,1,-3,0,0,0,-4,-2,0
1470330787681808,0,1,-3,0,-1,-1,1,-1
1470330787702856,-1,-2,0,-1,-1,-3,0,-1
1470330787702856,-2,-1,-3,1,-1,0,-2,-2
1470330787704836,-2,0,0,-1,-1,0,-3,-3
1470330787704836,-1,-1,0,-1,0,-2,-3,-3
1470330787716417,-1,-2,-1,0,1,-2,-1,-1
1470330787716417,1,-2,2,-2,-1,-1,-1,-2
1470330787725354,-4,-2,-1,-3,-1,-1,0,0
1470330787725354,-1,-2,-1,0,0,-1,-1,0
1470330787740390,-3,-1,-1,-2,-1,-1,0,-3
1470330787740390,2,-2,-1,-1,0,0,1,-2
1470330787741865,0,-1,-3,-1,-2,0,-1,-1
1470330787741865,-1,0,0,-2,0,0,0,-1
1470330787762700,-1,2,-2,0,-2,-1,-1,1
1470330787762700,-3,-3,-2,-1,-1,-3,-1,-2
1470330787764646,0,-1,0,-2,-1,-2,-1,0
1470330787764646,-4,-3,-2,-1,-2,0,-1,0
1470330787776659,2,-3,-1,-2,-3,0,-1,-1
1470330787776659,0,0,1,-2,-2,-2,-1,0
1470330787785665,0,0,-1,1,0,-1,-1,-2
1470330787785665,-2,-1,-1,0,0,-1,0,-1
1470330787800205,-2,-1,0,-3,-2,0,-2,0
1470330787800205,-2,-3,-1,-1,-3,-2,-1,0
1470330787802181,-1,1,-3,-1,-3,-1,0,-2
1470330787802181,0,-1,-2,-3,-1,-1,-1,-2
1470330787822728,-2,-1,-1,-3,0,0,1,-1
1470330787822728,0,-1,0,1,1,0,-2,-1
1470330787824819,-3,0,-2,-1,-1,-2,-1,1
1470330787824819,-1,-1,0,0,-1,-1,1,0
1470330787845263,-1,-1,0,-1,0,-3,0,2
1470330787845263,0,1,-2,-1,-2,-2,-2,-3
1470330787846767,1,-3,0,-1,0,-1,-1,-2
1470330787846767,0,1,-1,-1,-2,-2,-2,-3
1470330787860276,-1,-2,-3,-1,-1,-1,-2,0
1470330787860276,-3,-1,0,1,-1,-2,1,-1
1470330787861734,1,-2,-2,-2,0,-1,-1,2
1470330787861734,0,-4,0,-2,-1,-1,-1,0
1470330787882755,-2,-1,-1,-2,0,-1,-2,-2
1470330787882755,0,0,-1,-1,-2,0,-1,-2
1470330787884254,-2,-3,-1,-2,-2,-1,-1,0
1470330787884254,1,-1,-1,-1,-2,0,-2,-1
1470330787905277,1,-1,0,-1,0,-2,-1,-2
1470330787905277,-1,-1,-1,-4,-2,-1,1,-1
1470330787907285,-2,-2,0,-1,-3,-1,0,1
1470330787907285,1,-1,0,0,0,1,-2,0
1470330787920319,1,0,-1,1,-1,-2,-1,-3
1470330787920319,-3,-2,-1,-1,0,-1,-3,1
1470330787921789,-1,-2,1,0,-2,-1,-2,-2
1470330787921789,-1,-1,-2,-1,-1,-2,-1,-2
1470330787943316,-1,-2,0,-1,-3,0,0,-1
1470330787943316,0,-1,-2,-3,0,2,0,3
1470330787944811,-2,0,-2,0,-2,0,-1,0
1470330787944811,0,-2,0,0,0,-1,0,0
1470330787965428,0,-1,-3,-3,-2,1,-2,0
1470330787965428,0,-2,0,-1,-1,0,-1,-1
1470330787966875,-1,1,-2,-1,-2,-1,-2,-1
1470330787966875,-2,0,-2,0,-1,-2,-1,-2
1470330787979858,-3,-3,-2,-1,-2,-4,0,0
1470330787979858,1,-1,1,0,0,-3,-1,0
1470330787986396,-1,-2,-1,-1,-1,-1,0,-2
1470330787986396,0,-1,0,-2,-1,0,-1,-1
1470330788002861,-2,0,0,-1,-1,-2,-1,-1
1470330788002861,-1,-2,-3,-3,-2,0,-3,-1
1470330788004363,0,1,-3,1,-2,-3,-1,-1
1470330788004363,-1,-2,-3,-2,-3,-1,-1,-2
1470330788025382,-1,-2,1,1,1,-1,1,-1
1470330788025382,-1,-1,1,-2,0,-2,-2,-1
1470330788026885,-1,-1,0,-2,-1,0,-1,-2
1470330788026885,-2,-1,-2,-2,0,-1,-2,-1
1470330788039925,0,-1,-1,-1,0,0,-1,-3
1470330788039925,-1,-2,-2,1,1,-1,-1,-4
1470330788046414,0,0,-2,-3,0,-2,-2,-2
1470330788046414,0,-1,-1,-2,-3,-2,-1,-1
1470330788062931,0,0,0,-2,-1,-2,-2,0
1470330788062931,-2,-1,1,0,-1,-1,-1,-1
1470330788064417,-4,-2,-2,0,-2,0,-3,-3
1470330788064417,-3,1,0,0,0,-1,-1,-1
1470330788085437,-1,0,-1,-1,-2,-1,-1,0
1470330788085437,-2,-2,-3,-2,-1,-1,1,-1
1470330788086970,-1,0,0,0,-1,-3,-1,1
1470330788086970,-3,-4,-2,1,-2,0,1,-3
1470330788099947,-3,-1,0,-1,-2,0,-2,-2
1470330788099947,0,0,-2,-1,-1,-2,-4,0
1470330788106484,-1,-1,0,-3,-2,-1,2,1
1470330788106484,-1,0,-1,-2,-1,0,-2,0
1470330788123001,0,-3,-1,-2,-1,0,-2,-1
1470330788123001,0,1,-2,0,-1,-2,1,0
1470330788124498,0,-3,-1,0,0,-2,-3,-1
1470330788124498,0,0,0,-1,0,0,0,1
1470330788145492,0,-2,-1,-1,-1,-1,1,1
1470330788145492,0,0,1,0,-1,-2,-1,0
1470330788146991,-1,-2,0,0,-1,-1,0,-3
1470330788146991,0,0,-2,-1,0,-3,0,-2
1470330788160061,-2,-1,2,-1,-1,-1,-2,-1
1470330788160061,-2,-1,-3,-1,0,1,0,1
1470330788166550,0,0,-2,0,-1,0,-1,1
1470330788166550,0,-1,-2,-1,0,-1,-1,0
1470330788183022,-2,0,-3,-1,-1,-2,0,0
1470330788183022,-1,1,0,-2,-2,-2,0,-2
1470330788184524,-2,-1,-1,0,-1,0,0,-1
1470330788184524,-1,-2,-1,-1,-2,-2,-2,1
1470330788205542,2,-2,0,-2,0,1,-1,-1
1470330788205542,-1,-5,-1,-1,0,0,-2,-1
1470330788207100,-4,-1,-2,0,0,-1,-2,-3
1470330788207100,-1,-2,-2,-1,-2,-2,-1,-1
1470330788220058,-1,-1,-2,-2,-2,-1,-2,-1
1470330788220058,0,0,-1,-2,-1,1,0,0
1470330788226569,1,0,0,-2,2,-1,-1,-1
1470330788226569,-1,-1,-1,-1,-3,-1,-3,-2
1470330788242576,-1,-2,0,-2,-3,-2,-2,-1
1470330788242576,-3,-2,0,0,-2,1,-2,-1
1470330788244577,-1,0,-1,-2,-2,-1,-2,0
1470330788244577,-3,0,0,0,0,-2,1,-2
1470330788265607,0,-3,-2,-1,-2,-1,-1,0
1470330788265607,-3,0,1,0,-1,-1,-1,-3
1470330788267097,0,-1,-1,-2,0,1,0,0
1470330788267097,-1,-1,-2,-1,-1,1,-2,-1
1470330788279611,-2,-2,-2,-1,0,-1,-2,1
1470330788279611,1,-3,-2,-1,-1,-2,-2,-1
1470330788286617,0,-2,0,-2,-1,-3,0,-3
1470330788286617,-2,-1,-1,-1,0,-2,0,0
1470330788303131,0,-1,-1,-1,-2,-1,0,-2
1470330788303131,0,-2,-2,-2,-1,0,1,-2
1470330788304660,0,1,0,-2,-3,0,0,-1
1470330788304660,-2,0,-2,-2,-1,0,-2,-3
1470330788325689,-4,-1,-3,0,1,1,-2,0
1470330788325689,0,0,0,-1,-1,-1,0,0
1470330788327170,-1,-3,-2,-1,-3,-1,-1,0
1470330788327170,-2,-1,0,-2,0,-3,0,-1
1470330788339162,-1,-1,-3,0,0,-1,0,-2
1470330788339162,0,1,-1,-1,-1,-1,-2,-2
1470330788348170,-1,-1,-2,0,0,0,-2,1
1470330788348170,-1,0,-2,1,0,0,-1,0
1470330788362793,0,0,2,-2,0,-4,-2,-1
1470330788362793,-2,-3,-2,-3,-2,-1,0,-1
1470330788364709,-1,-1,-1,-1,-1,-3,0,-1
1470330788364709,0,2,-2,-1,-2,0,0,-3
1470330788385272,-1,0,-2,-2,0,0,1,-2
1470330788385272,-3,-2,1,-2,-1,1,-2,0
1470330788386728,-2,-1,-1,-1,-3,-1,-1,-1
1470330788386728,-1,-3,-1,-1,-1,1,-1,0
1470330788399317,0,0,1,-1,-1,-4,0,0
1470330788399317,-1,-1,-3,0,1,0,0,0
1470330788408247,0,-1,-1,1,-1,-1,-3,-2
1470330788408247,-1,-1,0,0,-3,-1,1,-1
1470330788422761,-5,-2,-3,1,-2,0,0,0
1470330788422761,-1,0,-1,0,-1,-3,-1,0
1470330788424263,0,0,1,-2,0,-1,-3,-1
1470330788424263,-1,-2,0,-1,-1,-2,0,-2
1470330788445282,1,-2,0,-1,-2,-2,-2,-2
1470330788445282,0,-3,-3,-1,-2,-1,0,-1
1470330788446783,-2,0,-1,0,0,-2,-1,-2
1470330788446783,-1,0,-1,0,-2,-2,-1,0
1470330788459301,-1,-3,-2,-2,0,-2,0,-2
1470330788459301,0,-2,1,0,-1,-2,-3,1
1470330788468802,-1,-2,-2,-1,-1,0,-2,-1
1470330788468802,-2,-1,-2,-1,0,0,-2,-3
1470330788482814,-3,0,-1,0,-2,0,0,1
1470330788482814,-3,0,-2,-3,-1,-2,-2,-1
1470330788484315,-3,-3,1,-1,1,-2,0,-2
1470330788484315,-2,-3,0,0,-1,-1,-1,-1
1470330788505336,-2,-2,-3,0,-1,0,-1,-4
1470330788505336,-1,2,0,0,-1,-2,-3,0
1470330788506854,0,-1,-1,0,-2,-2,-2,1
1470330788506854,-2,-2,-1,-1,0,-2,-1,-1
1470330788519348,-1,-2,-2,-3,-1,-1,0,-2
1470330788519348,-1,-1,-2,0,-2,0,-1,-1
1470330788527903,0,1,-2,-3,-1,0,-2,-1
1470330788527903,2,-1,-1,1,-2,-2,0,1
1470330788542912,1,-1,0,-1,-2,-1,-1,1
1470330788542912,-1,-1,-3,-1,-2,-2,1,-3
1470330788544370,-1,-1,0,1,-3,-1,-1,-1
1470330788544370,1,1,-1,-1,-1,-1,-1,-1
1470330788565416,0,0,-2,-2,0,0,-1,-2
1470330788565416,-1,-2,0,-2,-1,1,-2,-1
1470330788566891,-2,-3,0,-2,-1,0,0,-2
1470330788566891,-1,0,-3,-2,-1,-1,-1,-1
1470330788578933,-3,-1,-1,0,0,-3,-3,-1
1470330788578933,0,-2,-4,0,-2,-3,-1,-2
1470330788587910,0,-1,-1,-1,-1,-2,0,1
1470330788587910,0,-1,0,-2,-2,-1,-2,-3
1470330788602922,1,0,1,-1,1,0,-2,-3
1470330788602922,0,-2,-1,-1,1,-1,0,-1
1470330788604425,0,0,-2,-1,-1,0,0,0
1470330788604425,-2,-1,-1,-1,-1,0,-1,0
1470330788625505,-1,-3,-2,-1,-1,-1,-3,-2
1470330788625505,-2,0,0,-2,-2,-1,0,-1
1470330788626948,-3,-3,-1,-1,-1,0,-1,0
1470330788626948,-1,-1,0,-1,-2,-3,-2,-1
1470330788638956,0,-2,0,-1,-1,0,0,-2
1470330788638956,-2,-2,-1,-3,0,-2,-2,2
1470330788647964,-1,0,-3,-2,0,-1,0,-2
1470330788647964,-1,-1,-1,-1,-1,0,-2,-1
1470330788662977,-3,1,0,0,-1,-2,1,1
1470330788662977,-1,-1,-1,-1,-3,0,-2,-2
1470330788664478,1,-2,-1,-2,0,-2,-1,-2
1470330788664478,-1,1,0,-2,-1,-2,-3,-1
1470330788685496,-1,2,-2,-1,-3,-2,0,0
1470330788685496,-2,-2,-2,1,0,0,0,-1
1470330788686998,-1,-1,-4,-3,-1,-2,-1,-1
1470330788686998,-1,-2,2,1,-1,-2,-2,-2
1470330788699037,-2,0,0,-2,-1,0,0,-2
1470330788699037,0,0,-2,-1,0,-2,-1,0
1470330788708018,0,-1,-1,0,-1,-1,0,-1
1470330788708018,0,-1,-3,-1,0,-2,0,-1
1470330788723030,0,-2,-1,0,-3,-1,-1,0
1470330788723030,-3,-1,0,-1,-1,-1,-2,0
1470330788724546,-1,0,-1,-2,-2,-1,-3,-2
1470330788724546,-1,1,0,-1,0,1,0,-2
1470330788745550,-1,-2,0,-2,0,0,-3,-3
1470330788745550,0,-3,0,-1,0,-1,1,-3
1470330788747142,-1,1,-1,-2,-2,0,-2,-1
1470330788747142,-1,-3,-2,-2,-3,-1,-1,0
1470330788759063,-1,1,1,-2,0,-1,-2,0
1470330788759063,0,-2,-2,-1,-1,-1,-1,-1
1470330788768104,-1,0,0,-3,0,-3,0,2
1470330788768104,-3,-1,-2,-2,-2,-1,0,0
1470330788783084,-2,-3,-2,-1,0,-1,-2,-1
1470330788783084,1,-1,0,-2,-3,-1,-2,-2
1470330788784586,0,0,-1,-1,-2,-1,-1,-2
1470330788784586,0,-1,-3,-2,-1,0,-2,-1
1470330788805622,-2,-2,-3,-1,-1,-2,-1,-2
1470330788805622,-1,0,-2,-1,-1,0,0,0
1470330788807107,0,-1,-1,0,1,-1,0,-1
1470330788807107,0,-1,-2,1,-2,-1,-3,-2
1470330788827625,0,-1,-1,-1,-2,0,0,-1
1470330788827625,1,1,-1,-1,0,-2,-1,-3
1470330788829640,-2,-1,-3,-2,-1,1,1,-1
1470330788829640,0,-1,-2,0,-1,-1,0,-2
1470330788842656,-2,0,0,0,0,-3,-1,1
1470330788842656,-2,-2,1,-1,-2,-1,-1,-1
1470330788844663,0,0,-1,-1,0,0,-2,-1
1470330788844663,-1,-2,-1,0,0,0,0,-1
1470330788865659,0,1,1,0,-2,-2,-1,-1
1470330788865659,0,-2,-2,-1,-2,-1,0,0
1470330788867161,-2,-2,-1,0,-3,-2,1,-1
1470330788867161,-1,-2,-3,0,1,0,-2,0
1470330788887704,-2,0,-2,-1,-2,-2,0,-1
1470330788887704,-1,0,-2,-1,0,-1,-2,-3
1470330788889680,-2,-5,0,1,-1,-2,-2,1
1470330788889680,-1,-2,1,-1,-2,-1,2,0
1470330788903193,1,-2,0,0,-1,0,0,2
1470330788903193,1,1,-1,-2,-2,0,-1,-1
1470330788904695,1,0,-1,0,-2,-4,0,-2
1470330788904695,-2,-2,-2,-4,-2,0,-1,-2
1470330788925712,1,-1,-1,0,0,-3,-1,-3
1470330788925712,-1,-1,-1,-3,-3,-1,0,-1
1470330788927226,-2,-2,-2,-2,1,-3,-2,-1
1470330788927226,0,0,-2,-1,-2,-3,-1,2
1470330788947761,0,-3,-1,-1,-2,2,0,-1
1470330788947761,-2,-2,0,3,0,0,-1,-2
1470330788949749,-1,1,0,-1,-2,0,-1,-2
1470330788949749,-1,-1,0,-1,0,-2,-2,-2
1470330788962260,0,-1,-3,-2,-2,0,-1,0
1470330788962260,-2,1,-1,-2,-1,-2,0,-1
1470330788969297,-2,-2,0,0,-1,0,-1,-2
1470330788969297,0,0,-1,1,0,-3,-1,1
1470330788985314,-2,-1,1,0,-2,0,-2,-1
1470330788985314,-1,-4,-1,0,-2,-2,-3,-1
1470330788986767,-1,1,0,-2,-1,1,0,0
1470330788986767,-2,1,-1,-1,0,-1,0,-2
1470330789007788,0,0,-3,-2,-1,-2,-1,-2
1470330789007788,-1,0,-2,0,-1,-2,-2,1
1470330789009287,-1,-1,0,-3,-3,-2,0,-1
1470330789009287,-1,-2,-1,-2,0,0,0,-1
1470330789022391,0,-2,-3,-2,-2,-1,-1,1
1470330789022391,0,-1,0,-1,1,-2,1,-1
1470330789028839,2,-2,-3,1,0,-1,-1,0
1470330789028839,-1,-1,2,-2,-2,-3,0,-2
1470330789045348,-2,-1,-1,1,1,-3,-1,-1
1470330789045348,-1,-2,0,-1,-1,-2,-1,-3
1470330789046826,0,-2,-1,-1,-3,2,-1,0
1470330789046826,-1,-3,-2,-1,-1,-2,0,-1
1470330789067840,-2,0,-2,-2,0,-1,-1,-1
1470330789067840,-2,-1,-2,-1,-2,-1,1,0
1470330789069342,0,1,-1,0,1,-1,0,-1
1470330789069342,-1,-2,-1,-2,-1,-1,-1,1
1470330789082353,-1,-2,-1,-2,-2,-1,0,-1
1470330789082353,0,-1,-1,0,-1,1,0,-2
1470330789088863,-3,-1,-2,-3,0,0,-2,-2
1470330789088863,-2,-2,1,-2,-1,-1,-2,-2
1470330789105374,0,-2,-2,0,0,0,-2,0
1470330789105374,1,-1,-2,-1,-2,-1,-1,0
1470330789106875,-1,1,-1,0,0,-1,0,2
1470330789106875,-2,-1,-2,0,0,1,-3,-2
1470330789127896,-2,-1,-1,-1,-2,0,-1,-3
1470330789127896,0,-1,-2,-1,0,-1,0,0
1470330789129442,-1,1,2,0,0,0,-1,-1
1470330789129442,-3,-1,-1,-2,-1,-1,0,0
1470330789141962,-2,-2,-2,-1,0,0,-3,-2
1470330789141962,-2,-2,0,-3,-1,-2,-3,-2
1470330789148913,-2,-3,-1,1,-2,-2,-1,0
1470330789148913,1,-1,-1,0,-1,-2,-2,-2
1470330789165485,-2,0,0,-2,-2,-3,0,1
1470330789165485,0,-2,-2,0,-1,-1,-1,0
1470330789166957,0,-2,-2,-2,0,-1,-3,-2
1470330789166957,-2,1,-3,0,-1,-1,-1,-1
1470330789188014,-1,-1,-2,-2,-3,-1,-2,-1
1470330789188014,0,0,-1,-2,-1,1,-1,0
1470330789189463,-1,0,0,-2,-1,-1,0,-4
1470330789189463,-1,-1,0,-2,0,0,0,-2
1470330789202039,0,0,0,-2,1,-1,0,0
1470330789202039,-2,-1,1,0,0,-2,-1,-4
1470330789208994,-2,-3,-1,-2,-3,-1,-1,-1
1470330789208994,-1,1,-2,0,-1,1,-1,-2
1470330789225481,-2,-1,-1,-1,-2,-1,-2,-2
1470330789225481,-2,-1,-2,-1,-2,-2,-1,-1
1470330789226987,0,-2,0,0,0,-2,-2,-2
1470330789226987,-3,0,0,-3,-1,-1,-1,1
1470330789248007,0,0,1,-1,1,-1,0,-1
1470330789248007,-2,0,0,-1,0,0,1,-2
1470330789249546,0,0,-1,0,-1,-1,-1,-1
1470330789249546,-1,0,-2,-3,-1,-2,-1,-1
1470330789262039,-1,-1,-1,1,-3,-1,1,-2
1470330789262039,-4,-2,-1,-3,1,0,-1,1
1470330789269020,-2,-2,-1,0,0,-1,0,0
1470330789269020,0,0,-3,0,0,1,-3,-2
1470330789285535,-2,1,0,-1,-2,-1,0,-2
1470330789285535,1,0,1,-1,-2,0,0,-1
1470330789287037,-1,-1,0,-1,-1,0,0,0
1470330789287037,-1,-3,0,1,-1,-3,-1,0
1470330789308055,-1,-2,-3,-1,0,-3,-2,-1
1470330789308055,-4,2,-3,-2,0,-1,0,0
1470330789309557,-3,-2,-1,-3,-2,1,-2,0
1470330789309557,-1,-1,0,0,-1,0,0,-3
1470330789321568,3,-2,-2,1,0,-1,0,1
1470330789321568,0,-2,-1,-1,0,-2,-1,-2
1470330789330575,1,-3,-3,-2,-1,-1,0,2
1470330789330575,-2,0,-3,2,-1,0,-1,0
1470330789345107,-2,-3,-3,-1,-1,0,-2,0
1470330789345107,0,0,0,0,-1,-2,-2,-3
1470330789347090,0,1,-2,1,-1,-3,-2,0
1470330789347090,0,-2,-1,-1,-1,-2,2,-2
1470330789368109,0,0,-1,0,-1,-1,0,-1
1470330789368109,1,-1,-1,0,-2,-1,-1,1
1470330789369611,-2,1,-1,-3,-1,-1,-2,0
1470330789369611,-1,-2,-1,0,-1,-2,0,0
1470330789381624,-2,-1,-1,-2,-1,-2,-2,0
1470330789381624,2,-3,0,-2,-2,-1,0,-1
1470330789390129,-1,0,1,-2,-1,0,0,-1
1470330789390129,1,-1,-1,-1,-2,-1,-1,0
1470330789405709,-2,-1,-1,-1,0,-1,-1,1
1470330789405709,-1,-1,-1,-1,1,-3,-1,0
1470330789407183,0,-3,-3,-1,-1,-1,-1,0
1470330789407183,-1,-1,-1,-2,-2,-2,0,-2
1470330789428166,0,0,-1,-1,-2,-2,0,-1
1470330789428166,-3,-3,0,-1,-2,0,-1,2
1470330789429179,1,-4,0,-1,1,-1,0,-1
1470330789429179,0,-1,0,-1,-1,0,-1,-1
1470330789441687,-2,-1,0,-1,0,0,-1,-1
1470330789441687,-2,-2,-2,0,-1,-1,-1,0
1470330789450183,-1,0,-2,-1,-2,-3,1,-4
1470330789450183,1,-4,-1,-2,-1,-3,-2,-1
1470330789465277,0,-1,-2,-2,-1,-1,-1,-2
1470330789465277,-2,-1,0,-2,-2,0,-3,-2
1470330789466746,0,-3,-1,-2,-3,1,-2,1
1470330789466746,-4,0,-1,-2,-2,-1,-1,-1
1470330789487738,0,1,-3,-2,-1,0,-1,0
1470330789487738,-1,-2,-3,-1,-1,-2,0,-1
1470330789489826,0,0,1,-1,-1,-1,-1,0
1470330789489826,0,-1,0,-2,-2,-1,0,0
1470330789501729,-2,-1,1,-2,-2,0,-2,-1
1470330789501729,0,1,-1,-2,-2,-3,-1,-2
1470330789510237,-1,0,-3,1,-2,-2,-1,-3
1470330789510237,-2,-2,-1,-1,-4,0,-1,-1
1470330789525350,-2,-1,-1,-1,-1,-1,-1,-1
1470330789525350,-1,-3,-3,-1,0,0,-2,-1
1470330789526784,-1,-2,0,-2,-2,0,0,-1
1470330789526784,-1,-2,-1,0,0,-2,-2,0
1470330789547773,0,0,-2,0,0,-3,0,0
1470330789547773,1,0,0,1,-2,-1,-1,2
1470330789549787,-1,-2,-1,0,0,-1,-1,0
1470330789549787,-4,-4,0,-3,-2,0,1,-2
1470330789561847,0,-2,-1,-2,-1,0,-3,-1
1470330789561847,-4,-1,0,-2,-2,-1,0,-3
1470330789570312,0,0,0,-1,0,-3,-2,1
1470330789570312,1,-1,-2,1,0,-2,-4,-1
1470330789585338,-2,-2,0,-1,-2,0,-2,-3
1470330789585338,-1,-2,-1,-1,0,-1,0,-2
1470330789586830,-2,-1,-1,-1,-1,-1,-1,-2
1470330789586830,-1,-1,-1,-1,-1,0,-1,0
1470330789607866,1,-1,1,-3,-1,-1,-2,-1
1470330789607866,-2,-2,1,0,-2,0,0,-1
1470330789609361,-2,0,-2,-3,-1,-2,0,-2
1470330789609361,0,0,-2,0,0,-1,0,-1
1470330789621850,-1,-1,-2,-1,0,-2,-1,-1
1470330789621850,-1,0,-2,-3,-2,-2,-1,0
1470330789630348,-2,-1,-1,-2,0,0,-1,-1
1470330789630348,-1,0,-1,-2,-1,-1,-1,0
1470330789645359,-2,-3,-2,0,-1,1,-1,0
1470330789645359,-1,0,0,-1,0,0,0,0
1470330789646860,-2,1,-1,0,-2,-1,0,-2
1470330789646860,-2,-2,-1,0,-1,0,-1,0
1470330789667909,-2,-1,0,1,-1,-3,0,-2
1470330789667909,2,0,-2,-2,-1,-1,-1,0
1470330789669381,0,-1,-2,0,-1,0,1,-3
1470330789669381,0,0,-2,-1,-1,1,-1,0
1470330789681393,-1,-1,-4,-1,0,-2,-1,-2
1470330789681393,-2,-1,-1,-2,-2,1,-1,1
1470330789690399,0,-2,-1,-2,-1,-1,0,0
1470330789690399,-3,-3,0,0,-1,-2,-2,-1
1470330789705416,-3,-3,-1,0,0,-1,1,0
1470330789705416,1,-2,-1,-1,0,-1,-1,-3
1470330789706920,-1,-1,-1,-1,-2,-1,-1,-2
1470330789706920,1,-2,-2,-1,-1,-1,1,-1
1470330789727932,-1,2,-1,-2,-2,-3,-1,1
1470330789727932,-1,0,-1,1,-2,-1,0,-2
1470330789729434,-2,0,-1,-1,-1,1,-1,-2
1470330789729434,1,0,1,-1,-2,-2,1,0
1470330789750474,-2,-2,-1,0,-1,0,0,0
1470330789750474,1,0,-1,1,0,0,-3,-2
1470330789751954,-1,-2,-2,-1,1,0,-1,-1
1470330789751954,-1,-2,-2,-1,-3,-1,0,-3
1470330789765507,0,1,1,-2,0,0,-2,-2
1470330789765507,-1,2,1,-1,-2,-1,0,-2
1470330789766967,-1,0,-1,-1,-1,1,-2,0
1470330789766967,0,-2,-1,-2,-2,0,-2,0
1470330789788003,-1,-1,-1,-2,-3,-1,-1,-4
1470330789788003,1,0,-1,-2,-2,-1,-1,0
1470330789789520,-2,-1,0,-1,-2,-1,-3,-1
1470330789789520,-2,0,-1,-2,-1,-2,-1,-3
1470330789810507,0,-3,1,0,0,-2,0,-1
1470330789810507,-2,-4,-2,0,0,0,-2,0
1470330789812007,-1,-2,-1,0,-1,-2,-1,0
1470330789812007,-3,1,0,-1,-2,1,-2,-2
1470330789825520,-1,-3,-3,-1,-1,0,-4,-3
1470330789825520,-3,-1,-2,-1,-1,-2,0,-1
1470330789827056,0,1,0,-1,-2,-2,0,1
1470330789827056,-1,-1,0,1,0,-1,-1,-1
1470330789848040,-2,-1,-1,-2,-2,-1,0,-2
1470330789848040,-2,-1,-3,-1,-2,0,0,-1
1470330789849544,1,0,-1,1,-2,0,-2,-1
1470330789849544,-1,-1,1,-3,-1,-1,0,1
1470330789870560,1,0,0,0,-1,-1,-2,1
1470330789870560,-1,-1,-2,-2,0,-2,-2,-2
1470330789872077,-1,-2,-2,-2,1,-2,-2,0
1470330789872077,-2,-1,-1,1,1,-1,-1,-2
1470330789884629,2,-3,-1,-2,-2,1,0,0
1470330789884629,0,1,0,0,-1,-2,0,1
1470330789891645,-1,-2,-1,-2,-1,-3,-2,-2
1470330789891645,-2,-1,-2,-1,-2,-1,-2,-1
1470330789908102,-2,0,-3,0,-1,0,1,-3
1470330789908102,-2,-1,1,-1,0,-1,0,-1
1470330789909599,0,-1,-2,0,-2,-3,-1,-1
1470330789909599,0,0,-1,-1,0,-2,-2,-1
1470330789930629,-2,-1,-3,-2,-3,-1,0,-1
1470330789930629,0,-3,-3,-2,-1,-1,-2,-1
1470330789932116,-3,-1,0,0,0,0,-1,2
1470330789932116,1,-1,0,-3,-3,1,-3,-2
1470330789944645,-1,-2,1,-2,-2,-1,-2,-3
1470330789944645,-1,-1,0,0,-1,-1,-2,-2
1470330789951634,-1,-3,-2,0,0,0,0,2
1470330789951634,0,1,-3,0,-1,-1,0,2
1470330789968149,-1,0,-1,1,1,-2,-1,0
1470330789968149,-2,-2,-1,-1,-2,0,0,-2
1470330789969650,-2,0,0,-2,-3,0,0,-2
1470330789969650,-2,0,-1,-2,-1,0,0,-1
1470330789990171,-1,-2,-2,1,-1,-3,-2,-3
1470330789990171,-2,-1,-1,-2,-2,0,-2,1
1470330789991672,-1,-1,0,0,-2,-2,-2,-3
1470330789991672,-2,-2,-2,-1,1,-1,-2,0
1470330790004767,-3,2,-1,1,-2,-1,2,2
1470330790004767,2,-3,-2,1,0,1,-1,-1
1470330790011698,-1,-2,-2,-2,-1,0,-1,-3
1470330790011698,-1,-2,-1,0,0,0,-1,0
1470330790027702,-1,-1,-1,-2,-2,1,-2,-1
1470330790027702,-2,-2,0,-2,-2,-1,-1,-1
1470330790029203,0,-2,-1,-1,0,-1,2,0
1470330790029203,-1,-1,-2,-1,0,-3,-2,-2
1470330790050248,-2,0,0,-1,0,0,0,0
1470330790050248,-1,0,-1,-1,0,-2,-1,-1
1470330790051724,-1,0,0,-3,0,-1,-1,-2
1470330790051724,-1,-3,0,0,-3,-3,-2,-1
1470330790064778,-2,2,-1,0,0,-1,-3,-3
1470330790064778,1,0,-1,-3,-1,0,-1,-1
1470330790071741,-2,-1,-3,-1,0,-1,-1,0
1470330790071741,1,-2,-1,0,-2,0,0,-1
1470330790087760,0,-2,-2,-3,0,-1,-2,1
1470330790087760,-2,-1,-2,0,2,-2,-1,0
1470330790089761,0,-1,1,0,-3,-2,-1,-3
1470330790089761,-2,-2,-2,1,-2,-2,0,-1
1470330790110331,1,-2,0,-2,-2,-2,0,0
1470330790110331,-1,-2,0,0,0,-2,-2,-1
1470330790111778,0,-2,-1,0,-1,0,-1,-2
1470330790111778,0,0,1,-1,0,0,0,-2
1470330790124888,0,-2,-1,-4,0,-1,0,1
1470330790124888,-2,-1,0,-2,-3,-1,-1,2
1470330790131344,-2,2,-1,0,-2,-1,-2,1
1470330790131344,-1,-4,0,-2,0,0,-1,-2
1470330790147842,-1,-1,-1,0,-1,-1,-1,-1
1470330790147842,-1,-1,0,-1,0,0,1,-2
1470330790149312,0,-1,-2,0,-1,-1,-1,-2
1470330790149312,0,0,0,-2,0,0,0,-1
1470330790170331,-3,1,1,-1,-1,-1,-2,-2
1470330790170331,0,-1,-1,0,-1,0,-2,1
1470330790171833,1,-2,-1,-3,-2,-1,-2,-2
1470330790171833,-2,-3,-3,-3,0,-1,-2,0
1470330790184844,-1,-3,0,2,-2,1,-1,-1
1470330790184844,0,1,0,0,-2,-3,0,-1
1470330790191352,-2,-1,-2,-1,0,-5,0,1
1470330790191352,-2,-2,0,-2,-1,-2,1,-2
1470330790207865,-2,-1,-3,-2,-1,-1,-1,-2
1470330790207865,-1,-3,-1,-2,-3,-1,0,-2
1470330790209366,0,-2,-2,-1,-1,-1,-2,-1
1470330790209366,-1,0,-1,-3,0,-1,-3,1
1470330790230413,-2,3,1,0,-1,-2,-3,-1
1470330790230413,2,-1,-2,-1,-2,-2,0,-1
1470330790231884,-2,0,-1,-1,0,-2,-1,0
1470330790231884,-1,-2,-1,0,0,1,0,-1
1470330790243931,-2,-1,-1,-2,1,-1,0,-1
1470330790243931,-3,-3,-3,-2,0,-1,-2,-2
1470330790252918,2,0,-1,0,-2,2,-2,-2
1470330790252918,1,-1,-1,-1,-2,-2,-1,-1
1470330790267917,-1,-4,1,-1,-3,-1,-2,-2
1470330790267917,-1,0,-1,0,0,-3,1,-2
1470330790269419,-2,-2,-3,1,-1,-2,0,-2
1470330790269419,-2,1,-2,0,-2,-1,-2,2
1470330790290526,-1,-1,-3,-2,-1,0,1,0
1470330790290526,0,0,-1,-3,-2,-1,-2,0
1470330790291974,-3,-3,-1,-3,-2,1,0,-1
1470330790291974,0,-1,-1,-1,-2,-1,0,-1
1470330790303965,-3,0,0,0,-1,-3,0,1
1470330790303965,-1,0,0,-2,0,-1,0,-1
1470330790312973,0,-1,-2,-1,-1,-3,-1,-1
1470330790312973,-3,0,-2,0,-2,-1,-1,-2
1470330790328004,1,-2,-2,-4,1,0,0,-2
1470330790328004,-4,0,0,0,-2,0,-2,-2
1470330790329507,-2,0,-1,-1,0,-1,-2,0
1470330790329507,-1,0,0,0,-3,-2,0,1
1470330790350508,1,-2,-2,-1,-2,-1,0,-3
1470330790350508,0,-1,-1,-1,-2,0,-1,-1
1470330790352027,-2,0,1,-1,-1,-1,-2,0
1470330790352027,-1,0,-2,-1,-2,0,-1,-1
1470330790364007,-2,0,-2,-1,0,-1,-2,-1
1470330790364007,1,0,-2,0,1,-2,0,-3
1470330790373027,-2,0,0,-2,-2,1,0,-1
1470330790373027,-1,-2,-1,-1,-1,-1,-2,0
1470330790388025,-2,1,-1,-1,-1,-1,-1,0
1470330790388025,-1,-2,-1,0,-1,-2,-2,1
1470330790389529,-1,0,0,-1,0,-3,-1,-1
1470330790389529,-2,-1,-3,-3,1,-1,-1,-2
1470330790410576,0,0,0,0,-4,0,-1,-1
1470330790410576,-1,-1,-1,0,-2,0,-3,-2
1470330790412051,-2,-5,-1,-2,0,-1,-1,1
1470330790412051,0,-1,-1,-1,-2,0,-1,-2
1470330790424058,-1,-2,-1,-4,-3,1,-1,1
1470330790424058,0,0,-3,-3,0,0,0,-2
1470330790439071,0,-3,-3,-1,-1,-2,-1,-2
1470330790439071,-1,-2,-1,2,-1,0,0,-1
1470330790448097,0,0,0,1,-1,-1,-2,-2
1470330790448097,-1,-3,1,-2,-1,-2,0,-1
1470330790449580,0,-3,-1,-1,0,1,0,-1
1470330790449580,-2,0,-3,-3,0,-1,-1,-1
1470330790470667,-2,-2,-1,0,-1,-1,0,0
1470330790470667,0,-2,-1,-1,0,-2,-3,-1
1470330790472100,1,0,1,-2,0,-1,0,-1
1470330790472100,-1,-1,1,-1,-2,-1,-2,-1
1470330790484136,0,-2,-3,-2,-1,-1,-1,-1
1470330790484136,-2,-2,0,1,-2,-1,1,-1
1470330790493120,-2,0,-3,-1,-2,0,0,-2
1470330790493120,-1,1,-2,-1,-1,-3,-1,-3
1470330790508133,-1,1,-1,1,-2,-2,-1,-1
1470330790508133,0,0,-1,-3,-1,-1,-1,-1
1470330790509635,-2,-2,-3,1,-1,-1,-1,-1
1470330790509635,0,-5,1,-2,0,0,0,-2
1470330790530653,-3,-1,-2,0,0,0,-1,-1
1470330790530653,-1,0,-2,-2,-1,0,-1,1
1470330790532229,0,1,0,-1,0,-1,0,-1
1470330790532229,-1,-1,0,0,0,-2,-1,0
1470330790544198,0,-1,0,-1,-1,-1,-1,-1
1470330790544198,-1,-2,-2,0,-2,1,-2,-2
1470330790553173,0,-1,-1,-1,-2,-1,-2,-1
1470330790553173,-1,0,-1,-1,-3,0,-1,-2
1470330790567718,-1,-2,-1,-1,1,-2,-1,-1
1470330790567718,-1,1,-2,-1,-2,-1,-1,-1
1470330790569189,-1,-1,0,-2,1,-2,0,-1
1470330790569189,-1,0,-2,1,-1,-2,-1,-1
1470330790590726,0,-2,0,-1,-2,1,-1,-1
1470330790590726,-3,-2,-1,-1,-1,-1,1,0
1470330790592264,1,-1,-2,-1,-2,0,-3,-2
1470330790592264,0,-2,-2,0,1,-1,0,-3
1470330790604274,-2,-1,-2,-1,0,1,-2,-3
1470330790604274,0,0,0,1,-2,0,-2,0
1470330790613230,1,-1,-2,-1,-3,-1,0,0
1470330790613230,1,-2,-1,-1,-2,-1,-3,1
1470330790628254,-2,-1,-1,0,0,-3,1,0
1470330790628254,0,-2,-3,-4,-2,0,-1,-2
1470330790634247,-1,-1,0,0,1,-2,0,-1
1470330790634247,-1,-3,0,-3,1,1,0,-1
1470330790650314,-3,-2,-1,1,0,-1,0,-2
1470330790650314,-4,-1,-1,1,0,-2,0,-4
1470330790651763,0,0,-2,-2,-1,1,-2,-2
1470330790651763,-1,-3,-1,0,-3,-2,-1,0
1470330790672781,1,0,-1,-1,-1,0,-1,-1
1470330790672781,0,-1,1,-3,-1,-1,0,-1
1470330790674284,0,-1,0,0,-1,-4,-2,0
1470330790674284,-2,1,-4,0,-1,-1,0,-1
1470330790687794,-1,0,-1,-3,-4,-1,-2,1
1470330790687794,0,-2,0,0,-1,-1,0,2
1470330790689296,0,-2,-2,-2,-2,1,-1,1
1470330790689296,-3,0,0,-2,0,0,0,1
1470330790710315,-1,-2,-2,-2,-1,-2,-1,0
1470330790710315,-1,-2,-1,0,-1,-2,0,-3
1470330790716831,-1,-1,1,-2,-1,-2,0,-3
1470330790716831,-1,-2,-2,-2,0,-2,-2,-1
1470330790732868,0,-1,0,-1,-2,0,0,-2
1470330790732868,-2,-1,0,-1,-2,0,-2,0
1470330790734339,-2,0,1,-1,-1,-1,0,1
1470330790734339,-2,0,0,0,-2,-1,-2,-3
1470330790747892,1,0,-1,-1,1,-2,-1,0
1470330790747892,0,0,-3,0,-1,0,-1,0
1470330790749394,-2,-1,0,0,-2,0,-2,0
1470330790749394,0,0,-1,-3,-1,-2,0,-2
1470330790770396,-1,-3,-1,-1,-2,-2,-1,-3
1470330790770396,-4,-3,-1,-1,0,-1,0,-1
1470330790771871,0,-2,-2,-1,-2,1,-1,-1
1470330790771871,-2,-1,-1,-2,-1,0,-1,0
1470330790792889,-1,1,-1,-2,0,-2,-2,-2
1470330790792889,0,0,-2,0,1,-2,-4,1
1470330790794397,-3,1,-1,-1,-1,-1,-1,-2
1470330790794397,1,1,1,-2,-2,0,0,0
1470330790807928,-1,-1,-2,1,-1,-3,-2,0
1470330790807928,0,-1,-2,-1,-1,-1,-1,0
1470330790809406,-1,0,-1,-1,0,-2,1,-1
1470330790809406,0,-2,-2,0,-2,-1,0,-1
1470330790830439,-1,-1,-1,-2,-2,0,-1,-1
1470330790830439,-2,-2,0,-2,-1,-1,0,-3
1470330790831925,-2,-3,-2,0,-1,-2,-1,0
1470330790831925,-1,0,-1,0,-1,-2,-2,-2
1470330790852943,0,-4,-2,-2,-2,-1,-1,-2
1470330790852943,-1,-1,0,-1,0,0,-2,-1
1470330790854446,-1,-1,-3,0,0,0,1,-2
1470330790854446,1,-1,-1,0,0,-1,-3,1
1470330790867456,0,-2,-2,-2,1,-1,0,-2
1470330790867456,0,-1,-3,-1,-4,0,-3,-1
1470330790873961,-1,0,0,0,0,-2,-1,0
1470330790873961,-2,0,-1,-1,0,-3,-1,2
1470330790898024,-2,-1,-3,-1,-4,-1,-1,-1
1470330790898024,1,-3,0,-1,-2,-1,-1,-3
1470330790899490,0,-2,-2,-1,-2,0,-1,0
1470330790899490,-2,-2,-2,-1,0,1,-1,-1
1470330790912997,-1,0,2,0,-1,-2,-1,0
1470330790912997,-2,1,-2,-3,0,-2,2,-1
1470330790914528,-2,-2,-1,-2,-3,-1,-1,-3
1470330790914528,0,-1,-1,-1,0,-2,-1,-1
1470330790927524,-1,-2,-3,-2,-2,0,-2,2
1470330790927524,0,-4,-3,-1,-2,-2,0,0
1470330790934016,-3,0,0,-3,-2,-1,-2,0
1470330790934016,-2,-3,-2,-1,0,0,0,-2
1470330790950549,-2,-1,-2,0,-1,0,-2,-1
1470330790950549,0,1,1,-2,-1,-2,0,0
1470330790952032,0,-1,-2,-1,-2,-1,-3,0
1470330790952032,0,-1,1,0,-4,-1,-2,-2
1470330790973050,1,0,0,-1,-1,-1,0,0
1470330790973050,0,-2,0,1,0,1,0,-2
1470330790974553,0,-1,-2,-2,-1,-1,0,-1
1470330790974553,-2,-1,0,-1,1,-1,-2,-1
1470330790995571,-1,-1,-3,0,1,-1,-2,-3
1470330790995571,-4,0,-3,-1,-1,-1,-2,-2
1470330790997088,1,-1,0,-1,-2,-1,-2,-2
1470330790997088,-1,-2,0,-2,-2,-1,-2,0
1470330791010584,-1,0,-2,0,0,0,1,0
1470330791010584,0,-2,-1,1,-2,0,-1,1
1470330791012085,-1,-1,-2,-1,-2,-1,-1,-1
1470330791012085,-1,-2,-2,-3,-2,0,-2,-1
1470330791033104,-2,0,0,-1,-1,0,0,-2
1470330791033104,-1,0,-4,-2,-1,-2,-3,-1
1470330791034607,1,-1,0,-1,0,0,0,-2
1470330791034607,-2,0,0,1,-1,-4,0,-2
1470330791047166,-2,-1,-1,-1,-2,1,-1,-2
1470330791047166,-3,-1,0,1,1,0,-1,-1
1470330791054124,0,-2,-1,-2,0,-1,-1,1
1470330791054124,-1,0,-1,0,-1,-1,-1,-2
1470330791070141,1,0,-1,-1,-2,-2,-1,-2
1470330791070141,-1,-1,1,1,0,-1,0,-1
1470330791072141,-1,-3,-2,-2,-1,0,-2,-2
1470330791072141,-4,-1,-1,-1,-1,0,0,-1
1470330791093158,-1,-1,1,-1,0,-3,-1,-1
1470330791093158,0,-2,-1,-2,-1,-1,0,-2
1470330791094660,-4,-2,0,-2,-1,-1,-1,-2
1470330791094660,-2,-2,-3,0,-1,-2,-2,-2
1470330791107226,-1,-2,-1,-1,0,0,-1,-1
1470330791107226,1,1,-1,-2,-2,-2,0,-3
1470330791114713,-2,-1,-2,1,-1,-1,-1,0
1470330791114713,0,-1,-2,0,0,0,1,0
1470330791129692,-4,-1,-2,-2,-1,-3,-1,0
1470330791129692,-1,0,0,-2,0,-2,0,-1
1470330791130207,-2,0,-1,-1,-1,1,-1,-1
1470330791130207,0,-1,-1,-1,-1,-1,-1,-1
1470330791152275,-3,-3,-1,0,-1,-2,-1,-2
1470330791152275,-1,-2,0,-2,-1,-1,-1,-1
1470330791152747,-1,-2,-3,-1,0,-3,-2,-2
1470330791152747,0,-1,1,-1,0,0,0,-1
1470330791166814,-1,-3,0,0,-2,-2,-1,0
1470330791166814,-1,0,-2,-1,-1,0,-1,0
1470330791174737,0,-1,0,-1,-2,-1,-1,-2
1470330791174737,-1,-1,1,-1,-2,-2,-1,-3
1470330791189771,0,-2,-1,-2,-1,-1,1,2
1470330791189771,-1,-2,0,-1,-1,0,-1,-3
1470330791190248,-4,-1,0,0,0,-1,0,-3
1470330791190248,-1,-2,-1,0,-2,-1,-2,1
1470330791212300,-2,0,0,-3,-1,0,-2,-1
1470330791212300,1,0,0,-3,1,-1,0,-1
1470330791212768,-2,-1,-2,-1,-1,-2,0,0
1470330791212768,1,-1,-1,0,-1,-1,-2,-1
1470330791226778,0,-3,1,1,-1,0,-1,0
1470330791226778,-2,1,-1,-1,-3,-1,-2,0
1470330791234799,0,1,-2,-3,1,-1,0,1
1470330791234799,-1,-2,-3,-2,-3,-1,-1,-2
1470330791249885,0,-1,-2,0,-1,0,-1,-1
1470330791249885,-1,-1,-1,-1,-2,-2,0,0
1470330791250301,0,-1,0,-2,0,-2,-1,-1
1470330791250301,-3,-2,-3,-2,-1,-2,-2,-3
1470330791272319,-1,0,-1,-4,-3,0,-1,-3
1470330791272319,-1,-1,-2,-2,-1,0,-3,-1
1470330791272820,0,0,-1,2,-2,-1,-2,0
1470330791272820,-1,1,-1,-1,0,-1,0,-2
1470330791286334,1,-2,-1,-1,-2,0,0,1
1470330791286334,-1,-2,1,0,-1,-1,-2,-1
1470330791294840,-1,-3,0,-2,-1,-1,-3,-1
1470330791294840,-1,-3,0,-1,-1,-1,0,-2
1470330791309872,-1,-1,-1,-1,0,-2,1,-2
1470330791309872,-2,0,-4,1,-2,-1,0,0
1470330791310353,-1,-1,-1,0,-1,-1,0,-2
1470330791310353,0,0,0,0,-1,0,-3,-1
1470330791332440,-1,1,1,-1,-3,-1,-3,-1
1470330791332440,1,-2,-3,-1,-1,-1,-1,0
1470330791332890,-1,-1,-2,-2,-2,-1,-1,-1
1470330791332890,0,-2,-4,-1,2,0,0,-1
1470330791346397,0,-1,0,-3,1,-2,0,1
1470330791346397,-1,0,0,0,0,-1,-2,0
1470330791354938,0,0,1,-2,-1,1,-2,-1
1470330791354938,-2,-1,0,-3,-3,-1,-1,-1
1470330791369958,-1,0,-3,-2,0,-1,-3,-3
1470330791369958,-2,-3,-2,-1,-1,-1,0,-1
1470330791370407,-1,0,-2,-1,0,-2,2,-1
1470330791370407,-1,0,0,-1,-3,0,-1,-3
1470330791391973,-3,-2,-1,2,-1,-1,-2,-2
1470330791391973,0,0,-1,-2,-2,-1,-1,0
1470330791392968,0,-1,-2,-1,-2,-1,-1,-3
1470330791392968,-1,-2,-2,0,-1,-1,0,2
1470330791406454,0,0,-2,-1,1,0,-1,1
1470330791406454,-2,-3,-1,-1,-1,-2,-2,-1
1470330791414948,0,-1,0,-1,-1,0,0,-1
1470330791414948,-3,-1,-1,-1,-1,-1,-2,-2
1470330791429504,-1,-3,-2,1,-3,-1,-1,-1
1470330791429504,-1,0,0,-1,-1,-1,-2,0
1470330791430461,-1,0,-2,-2,-1,-3,-3,1
1470330791430461,0,-1,1,-2,-1,-2,0,1
1470330791452533,-1,-1,0,-2,-1,0,0,-2
1470330791452533,-1,0,0,1,-1,-1,1,0
1470330791452986,-2,-1,-1,1,0,-2,-2,-3
1470330791452986,0,1,-3,-1,-2,-1,-2,0
1470330791466522,2,-1,0,-1,-1,-2,-1,-1
1470330791466522,0,0,-1,0,-2,-1,-1,-1
1470330791475001,0,-1,0,0,-1,0,-2,0
1470330791475001,-2,0,-1,1,1,-3,-1,-3
1470330791489514,-2,-1,-1,0,-2,-3,0,-1
1470330791489514,-2,-3,-3,-3,-2,-2,-1,-2
1470330791490515,-2,-1,-1,-3,-3,0,-1,0
1470330791490515,-2,-2,-2,-4,2,0,0,-2
1470330791512034,-2,1,-1,-1,-1,-1,-3,-1
1470330791512034,-2,0,-1,0,2,-1,-2,-2
1470330791513035,-1,-2,-3,-5,-3,0,-1,1
1470330791513035,-1,-1,0,8,1,-3,-1,0
1470330791535575,1,-2,-4,-10,-4,0,-1,0
1470330791535575,-1,-1,-1,-1,-4,-2,-3,-2
1470330791536056,-1,0,2,3,-4,-2,-1,-2
1470330791536056,-3,-1,2,1,6,5,0,-1
1470330791549573,-1,-1,-4,-7,4,-2,0,-2
1470330791549573,0,-1,0,2,2,1,-1,-2
1470330791550568,-2,-2,4,-2,-5,-2,0,-2
1470330791550568,-2,-1,-7,-4,-6,-1,-2,-3
1470330791572609,-4,-1,8,10,-4,-3,-1,-1
1470330791572609,-1,0,-4,-2,5,3,-2,-2
1470330791573089,-2,0,0,0,-2,-2,-1,1
1470330791573089,0,2,2,-1,-2,0,0,-1
1470330791594642,-1,-3,1,4,-8,-6,-3,-3
1470330791594642,-3,-6,-22,0,6,2,-2,-2
1470330791595609,-1,2,12,-7,-3,-2,-1,-2
1470330791595609,1,-5,-19,-7,1,-2,-1,2
1470330791609655,-1,2,-8,7,13,3,1,1
1470330791609655,-3,-2,-4,0,-15,-7,-2,-3
1470330791610622,-2,-6,-1,0,0,0,-1,-2
1470330791610622,2,4,8,-5,-2,1,0,-1
1470330791632142,-3,-2,1,3,-9,-2,0,-1
1470330791632142,0,-7,-15,24,30,6,0,2
1470330791632642,1,-3,0,4,8,1,0,-1
1470330791632642,0,-2,4,-4,-11,-5,-3,0
1470330791654715,2,0,-6,-17,-8,-1,-1,-1
1470330791654715,-2,-2,9,11,-6,-2,-1,-3
1470330791655194,2,9,-3,-16,-5,-3,-2,1
1470330791655194,-1,-6,4,11,-3,-3,0,0
1470330791669707,-2,-1,-11,-4,5,1,-2,0
1470330791669707,0,2,8,-37,-23,-9,0,1
1470330791670178,-1,-12,-8,16,18,8,0,0
1470330791670178,-1,-4,-13,-3,-3,0,0,-3
1470330791692282,-1,0,14,6,-4,3,1,-1
1470330791692282,2,8,2,0,2,-2,0,-1
1470330791692699,0,-1,-5,-7,-6,-4,-2,-2
1470330791692699,-3,0,5,0,-2,-4,-1,0
1470330791714716,-2,-3,-11,1,2,0,-1,-2
1470330791714716,-1,-3,4,11,1,4,-1,0
1470330791715217,-2,-8,4,-7,-1,0,0,-2
1470330791715217,3,17,-2,-3,2,1,0,0
1470330791729729,-2,-14,2,-4,-7,-8,-4,1
1470330791729729,-3,8,-2,-12,-1,9,-1,-2
1470330791730231,0,-2,-3,13,-3,-7,-1,0
1470330791730231,1,-3,2,-7,-2,0,-1,-2
1470330791752266,-5,2,2,-3,-1,-2,-2,-2
1470330791752266,-1,-1,-3,-8,-4,-3,-1,-3
1470330791753250,-2,-1,-1,-20,-7,-3,-2,-1
1470330791753250,-2,-7,-1,7,-1,-4,-2,-1
1470330791774782,5,5,0,0,5,4,2,0
1470330791774782,2,-6,3,21,9,1,-1,0
1470330791775274,5,10,-1,0,-9,-4,-2,-1
1470330791775274,-2,3,-2,6,0,-2,-2,3
1470330791789813,-32,-20,-7,7,5,2,-1,-1
1470330791789813,9,-4,0,-12,-9,-6,-1,1
1470330791790287,1,3,-6,6,-2,0,-1,-1
1470330791790287,8,5,0,-12,-4,-1,-2,0
1470330791812395,4,-4,-3,0,-4,-3,-1,1
1470330791812395,-7,-9,4,-2,-2,-3,-1,0
1470330791812810,-4,-2,-3,-3,-3,-1,-3,-2
1470330791812810,-1,3,-1,0,0,1,-4,-3
1470330791835325,6,-2,2,0,0,-1,-4,-2
1470330791835325,-5,3,0,-7,-4,-3,7,0
1470330791835827,2,-1,0,1,1,-1,-2,0
1470330791835827,-1,12,2,1,2,2,-3,-2
1470330791849837,-5,-31,-8,-2,-3,-2,7,-3
1470330791849837,2,6,-5,-7,-2,-3,-7,-2
1470330791850338,-1,5,5,5,2,-1,-1,-2
1470330791850338,-3,-8,3,2,3,0,2,-1
1470330791872374,3,17,4,-5,-4,-1,-4,-1
1470330791872374,-5,-3,-7,-6,-4,-3,-2,0
1470330791872863,-3,-10,9,0,1,2,2,0
1470330791872863,-1,-16,10,0,1,-2,0,-2
1470330791894884,2,12,-26,-10,-3,-1,-3,2
1470330791894884,-4,-19,9,2,0,-2,1,1
1470330791895378,0,8,-23,0,0,-1,-1,-1
1470330791895378,-4,-10,-4,-9,-19,-7,-4,-2
1470330791909893,1,8,19,-2,16,7,-2,-2
1470330791909893,3,-5,-12,6,-4,-1,1,2
1470330791910394,-5,-2,-3,-7,-17,-13,-3,-2
1470330791910394,-2,-15,-15,6,22,9,1,-1
1470330791932411,4,7,-21,-4,-12,-2,1,1
1470330791932411,-5,-11,0,-6,-5,-9,-5,-4
1470330791932912,-1,-4,11,3,4,4,-1,0
1470330791932912,-1,-4,-25,-8,-7,-5,1,-2
1470330791954932,-1,-4,19,0,-1,-4,-2,-4
1470330791954932,0,1,10,-1,3,0,-2,-3
1470330791955433,0,-2,-10,2,-5,-4,0,0
1470330791955433,-2,-12,8,6,7,0,-2,0
1470330791969945,3,23,2,-2,-1,3,0,-2
1470330791969945,-2,-8,21,1,-3,-1,1,-3
1470330791970445,-2,-5,3,-2,3,3,-4,0
1470330791970445,-4,3,-19,-5,-2,0,0,0
1470330791992481,3,-9,-13,3,0,-2,-3,0
1470330791992481,-1,27,18,2,-2,-2,-2,-2
1470330791992971,-3,-2,-2,0,2,1,0,0
1470330791992971,-4,-10,-12,-13,-6,-3,-1,-3
1470330792014987,-2,-3,-5,3,-5,-6,0,1
1470330792014987,5,2,-34,11,8,3,0,4
1470330792015508,-2,-2,0,-16,-3,-1,-1,-4
1470330792015508,2,3,-22,2,-7,-3,0,1
1470330792030096,0,5,28,-3,1,0,-1,-1
1470330792030096,-2,4,23,12,-4,-4,-3,-2
1470330792030500,-1,3,-25,-5,2,4,3,-1
1470330792030500,1,3,31,2,1,1,1,0
1470330792052519,2,7,16,9,2,-3,-1,-2
1470330792052519,-2,-14,-6,-6,0,2,-2,-1
1470330792053021,-1,11,5,3,-3,0,-1,-1
1470330792053021,0,-2,1,-4,-3,0,-2,-2
1470330792074548,-4,-9,-9,-1,-1,1,1,-1
1470330792074548,-1,9,-3,-5,-2,-7,-3,-2
1470330792075541,1,-8,2,0,-1,7,5,-1
1470330792075541,-2,1,1,0,2,-4,-3,-2
1470330792089585,-1,-7,0,0,-1,-2,-3,-2
1470330792089585,-2,-8,-16,-6,0,0,-2,1
1470330792090554,-5,3,-10,-2,-3,-4,-5,-4
1470330792090554,-1,6,30,3,1,2,-1,0
1470330792112086,0,-5,-10,0,-2,-1,0,1
1470330792112086,-1,8,9,-12,-3,0,-2,-1
1470330792113087,-3,-9,-32,3,5,0,0,-1
1470330792113087,-1,8,20,10,0,-1,-1,-2
1470330792134597,1,-3,-6,-3,-3,-3,-2,0
1470330792134597,-1,-1,-8,-2,0,4,1,-1
1470330792135594,-1,2,15,4,3,-4,-4,-1
1470330792135594,1,-4,-8,-5,-4,-3,-2,0
1470330792149149,-2,-1,-6,-10,-4,-2,1,1
1470330792149149,-4,0,-2,5,-5,0,1,-3
1470330792157142,3,-1,6,11,4,-1,0,0
1470330792157142,1,2,-9,9,-1,-3,-2,-1
1470330792172140,-4,-2,-10,-15,3,1,0,-2
1470330792172140,-1,-1,-2,-4,-3,0,0,0
1470330792173127,1,-2,18,8,-6,-6,-3,0
1470330792173127,-4,3,-10,3,6,0,-1,0
1470330792194703,1,0,-14,-12,-4,-2,-1,3
1470330792194703,0,-5,-13,-4,-3,-2,0,-2
1470330792195648,-2,0,20,-3,-2,-2,-2,-2
1470330792195648,-1,-4,-36,-5,-4,-2,-1,-2
1470330792209681,0,4,13,9,-2,0,-1,-2
1470330792209681,-2,0,4,-4,0,-2,0,1
1470330792210662,-2,2,3,5,0,0,-1,-2
1470330792210662,1,3,5,-3,-2,0,1,1
1470330792232233,-1,2,-7,-14,-4,1,0,-2
1470330792232233,-4,-15,5,-2,-1,-1,-3,-2
1470330792233182,-1,6,11,1,-3,1,-1,0
1470330792233182,-1,2,17,11,1,1,-1,-1
1470330792254734,-2,4,-30,-8,-5,-2,-2,-4
1470330792254734,4,2,-11,-10,-2,-2,0,1
1470330792255202,-2,-9,-9,-12,0,-4,0,-2
1470330792255202,-2,0,1,-2,-2,-1,-3,0
1470330792269214,-6,-6,15,16,2,-3,-1,-3
1470330792269214,-1,5,13,-6,-1,1,-1,-1
1470330792277251,1,-2,-15,-5,-2,0,0,0
1470330792277251,-1,-12,-11,-5,-2,-1,-2,-4
1470330792292262,1,13,27,8,-1,-2,-2,2
1470330792292262,1,-5,-6,5,2,1,0,-1
1470330792293235,0,23,-11,-3,0,0,0,0
1470330792293235,0,-9,-3,-2,-1,-2,2,-2
1470330792314784,-2,-16,24,2,-2,-4,-2,1
1470330792314784,3,13,-25,-2,-1,-1,-3,-2
1470330792315255,-2,-14,3,-2,0,-1,-2,-1
1470330792315255,-2,10,-8,-6,-1,1,0,0
1470330792329268,4,6,56,11,0,2,0,-1
1470330792329268,-2,-3,1,9,2,1,-1,0
1470330792337303,0,-3,12,1,-1,0,0,0
1470330792337303,1,-1,-17,-10,-4,1,-1,1
1470330792352289,-2,-13,-35,-8,-2,-2,-1,-2
1470330792352289,-3,0,10,2,-3,-2,0,0
1470330792353791,0,-4,7,4,1,-1,-1,0
1470330792353791,-5,-5,-19,-15,-5,-5,-3,-1
1470330792374337,1,4,2,10,0,-3,-1,0
1470330792374337,0,-3,-15,-9,1,-1,-1,-2
1470330792382317,-2,-6,-8,-6,-3,-3,-1,-1
1470330792382317,-1,0,17,4,-2,-2,-1,-2
1470330792389322,0,-3,-28,-11,0,0,0,1
1470330792389322,-2,-2,10,0,-1,-2,-2,-2
1470330792397410,-3,-6,-3,2,0,-1,-1,-1
1470330792397410,2,2,10,-4,-3,-2,-2,-1
1470330792412361,-1,-2,-25,-3,-2,2,-1,-1
1470330792412361,-2,2,8,5,1,-3,-2,-1
1470330792412845,0,-2,-4,-6,-4,-1,-2,-2
1470330792412845,-2,4,23,7,1,0,-1,1
1470330792435363,-1,-5,-8,0,2,1,-1,-1
1470330792435363,-1,-1,-20,-4,-3,-2,-2,-1
1470330792436365,-2,-5,-24,-8,-5,-2,-2,-1
1470330792436365,1,3,1,-8,1,0,0,-2
1470330792449460,-3,-5,-9,-5,-6,-3,-1,-1
1470330792449460,-1,-6,12,4,0,-1,-1,-1
1470330792457383,-2,-2,-2,2,-2,-2,-1,1
1470330792457383,-1,-4,-1,2,-4,-1,0,-1
1470330792472396,1,6,12,6,0,-1,0,1
1470330792472396,1,2,14,-3,-3,-1,0,-1
1470330792472897,-2,-2,-7,-2,-2,-1,-2,-2
1470330792472897,-3,-4,6,0,0,-2,-2,-2
1470330792495446,-1,1,-7,-1,1,1,-1,-1
1470330792495446,2,-3,-2,-5,-1,-2,1,1
1470330792496418,0,4,18,3,1,-1,-1,-1
1470330792496418,-2,-5,-26,-2,-1,-1,-2,1
1470330792509019,-1,2,12,0,-1,-2,-2,0
1470330792509019,-2,0,-3,-2,-2,0,-2,-3
1470330792517467,-1,-2,0,-1,-2,-2,0,-2
1470330792517467,0,1,1,-1,-2,-2,-1,-1
1470330792532451,-2,-4,1,-2,-1,-1,-2,-4
1470330792532451,-3,-4,-4,0,-1,-3,1,1
1470330792532951,-4,-2,2,-1,0,0,-1,-2
1470330792532951,0,1,2,3,0,-1,1,-1
1470330792555498,-2,0,-4,-8,-1,-1,0,-3
1470330792555498,-2,-1,2,1,-1,1,-1,-3
1470330792555973,1,1,3,-1,0,-1,-1,0
1470330792555973,-2,-3,-6,-8,-2,-1,-1,-2
1470330792577993,0,-5,2,7,0,-2,-3,-1
1470330792577993,-3,-1,-14,-2,0,0,-1,0
1470330792578506,0,0,6,1,0,0,-1,-2
1470330792578506,-2,-5,-4,-3,-1,-1,-1,0
1470330792592007,-1,7,9,-2,-2,-2,-3,0
1470330792592007,-1,-3,1,-1,-1,1,1,3
1470330792593007,-2,-2,-3,4,-1,0,0,-1
1470330792593007,2,9,7,-1,-1,-2,1,1
1470330792615531,-3,-5,-12,-3,-1,0,-1,-4
1470330792615531,-1,3,3,-4,-1,-2,-2,-5
1470330792616026,0,-6,-2,-3,0,1,0,2
1470330792616026,1,0,-7,-2,-2,-1,-2,-2
1470330792638071,-2,-4,11,2,-1,-1,0,0
1470330792638071,-2,-2,17,0,-1,-4,-1,0
1470330792638546,-2,-3,-19,-1,-1,-2,-2,-1
1470330792638546,-1,-1,1,-6,-2,-2,-3,-3
1470330792652558,-1,-1,2,3,-1,-1,-1,0
1470330792652558,1,0,-3,1,-2,0,-2,-2
1470330792653058,0,-2,-1,0,1,-3,-1,-2
1470330792653058,-2,-1,2,2,-1,0,0,1
1470330792683125,1,-5,-11,-6,-1,0,-2,1
1470330792683125,0,-3,-5,-3,-1,-1,-2,-1
1470330792683586,0,1,5,1,-3,-1,1,-1
1470330792683586,-1,-4,-12,2,-1,-2,-1,-3
1470330792697618,-1,1,5,-1,0,-1,0,-1
1470330792697618,0,-6,-31,-6,-2,-1,0,0
1470330792698601,-1,0,0,-5,-2,-2,-3,-3
1470330792698601,-1,4,38,8,-1,-2,-1,-1
1470330792712141,2,-2,3,6,-1,1,-1,-1
1470330792712141,-4,1,2,-3,0,-1,-2,-1
1470330792713112,-3,-1,-17,-5,1,0,-1,-1
1470330792713112,-1,-6,-8,-6,-2,-1,-1,-2
1470330792735635,0,3,7,0,0,1,0,-3
1470330792735635,0,0,-1,-2,0,0,-2,-1
1470330792736136,-1,-5,-2,-3,0,0,-1,0
1470330792736136,1,3,8,6,-1,-2,0,0
1470330792757654,-3,-1,-18,-4,-1,-2,-1,-3
1470330792757654,2,1,0,-8,-2,-3,-1,1
1470330792758677,-4,-6,-19,-4,-3,-1,0,0
1470330792758677,0,3,11,0,0,0,-1,-3
1470330792772199,-6,-2,3,6,0,-1,0,-2
1470330792772199,0,-2,-4,0,-1,0,-1,-3
1470330792773187,2,0,-1,-3,-1,-2,-1,-1
1470330792773187,2,-4,-8,-2,0,0,0,1
1470330792795189,0,2,2,-1,-2,-2,-2,-1
1470330792795189,-2,-5,-1,0,0,1,0,-2
1470330792796188,-3,-2,-10,-3,-1,-2,-1,-2
1470330792796188,-1,-3,-2,-1,0,0,-2,-1
1470330792818207,1,0,-1,-6,-2,-1,0,0
1470330792818207,-2,-2,6,5,-2,-1,-2,-2
1470330792818713,2,1,4,0,-2,-2,-2,2
1470330792818713,-2,0,-20,-6,0,-2,-1,-2
1470330792832264,-7,-5,6,-3,0,-2,-1,-3
1470330792832264,-2,-3,-3,-2,0,-1,0,0
1470330792833221,2,4,12,4,0,-1,-1,-2
1470330792833221,-1,-4,0,3,-2,-1,-2,-1
1470330792855810,2,2,-9,-2,-1,-3,-3,3
1470330792855810,-1,-1,1,-2,0,-1,1,-2
1470330792856241,-2,-3,0,0,0,2,-1,-1
1470330792856241,-3,-2,-7,-6,-1,-1,0,0
1470330792877793,3,1,4,3,-2,-2,1,-2
1470330792877793,-1,2,-9,-3,-2,-1,-1,0
1470330792878761,-2,1,0,-1,0,-3,-2,0
1470330792878761,3,-1,-2,-2,1,-1,0,-3
1470330792892302,-6,-7,-4,-4,-2,2,0,-4
1470330792892302,-2,1,7,3,1,-1,-3,-1
1470330792893274,-6,-3,-6,-4,-3,0,-2,-3
1470330792893274,4,-3,0,0,-2,-1,-1,0
1470330792915347,2,-2,-19,-8,-2,-1,-1,0
1470330792915347,-2,-2,6,-1,-1,-1,-2,-2
1470330792916295,1,6,20,8,-1,0,0,-1
1470330792916295,0,-2,-2,-1,-3,-1,0,-2
1470330792937846,4,0,-4,1,0,-1,-1,1
1470330792937846,-11,-1,-11,-2,0,0,1,0
1470330792938835,2,-6,-4,-6,-2,-1,-1,-1
1470330792938835,0,1,0,1,-1,-1,-2,-1
1470330792952391,2,1,-4,0,1,1,-2,-2
1470330792952391,3,0,12,1,-2,-1,-1,2
1470330792952827,0,-1,0,-3,0,-1,-2,-3
1470330792952827,-15,-3,-10,-2,-3,-1,-2,-3
1470330792975377,4,-1,-5,-1,-2,-3,0,1
1470330792975377,1,3,8,0,-1,-1,0,-1
1470330792976349,-3,3,1,-1,-2,-1,-1,-1
1470330792976349,2,-2,-2,-1,0,0,-2,-1
1470330792997868,0,-4,-9,-3,-2,-1,0,-2
1470330792997868,1,-3,15,6,-2,-2,-1,-1
1470330792998869,-2,-1,-8,-2,0,-1,1,-1
1470330792998869,1,2,10,-2,0,-1,-1,1
1470330793012382,-1,1,-4,-3,1,1,-2,0
1470330793012382,-1,-1,-21,-3,1,-1,-1,-4
1470330793012882,1,-3,5,-2,-1,-1,0,-1
1470330793012882,-2,-3,-2,1,1,-1,1,1
1470330793035404,-8,-3,11,-2,0,-3,-3,-2
1470330793035404,0,-7,-14,-5,-1,-1,-3,0
1470330793036403,5,0,-4,1,0,-1,0,-1
1470330793036403,-2,3,10,4,-1,-2,0,-1
1470330793057964,4,1,7,-1,-2,-1,-1,-1
1470330793057964,-9,0,1,-3,-2,-1,-1,0
1470330793058449,-2,-1,-16,-3,-2,-1,-1,1
1470330793058449,-2,0,7,0,-2,-1,-1,-1
1470330793072435,1,-1,-9,0,1,-1,1,-1
1470330793072435,2,0,16,8,-2,-1,-3,-1
1470330793072936,-1,-1,9,-2,-1,1,-1,-3
1470330793072936,2,-6,-21,-7,-2,0,0,0
1470330793095502,-2,1,6,-2,-1,-2,0,1
1470330793095502,2,-3,-10,-3,0,0,0,2
1470330793095977,-4,-2,0,3,0,-2,-1,-1
1470330793095977,-1,-1,6,-3,1,-2,-3,-3
1470330793117976,0,-5,-13,-4,-1,-2,-2,-3
1470330793117976,5,6,2,-2,-2,-1,0,2
1470330793118478,2,-3,7,2,-1,0,-1,0
1470330793118478,-12,0,-2,3,-2,-1,1,-1
1470330793132579,-3,-3,3,2,-1,-2,0,-3
1470330793132579,1,-2,-20,-6,-1,-1,2,-1
1470330793132990,0,0,0,0,-2,-3,-2,0
1470330793132990,4,-1,9,3,0,0,-1,-1
1470330793155510,-4,0,-5,-2,-3,-1,-2,1
1470330793155510,-5,-2,16,1,-1,-1,-2,-4
1470330793156010,3,-2,-12,-5,0,-1,1,1
1470330793156010,-1,-3,-11,-5,-3,-2,-1,-1
1470330793178031,-5,0,14,3,-3,-2,-1,-3
1470330793178031,-1,-1,-8,-1,1,2,-1,0
1470330793178532,-6,-2,-9,-4,-2,0,-2,-2
1470330793178532,0,0,17,-2,-2,0,-2,0
1470330793191578,1,-4,-19,-3,-1,0,0,-1
1470330793191578,1,-1,3,1,-2,-2,-1,-3
1470330793200087,-1,0,7,7,1,-1,-1,0
1470330793200087,2,-2,-6,-2,1,-1,1,1
1470330793215066,0,4,6,2,-2,-1,-2,1
1470330793215066,-4,-2,5,-5,-3,-2,0,-2
1470330793216064,-8,-2,4,1,-2,-1,-1,-1
1470330793216064,6,-4,-19,-4,1,-1,-1,-3
1470330793238084,1,-3,13,-1,-3,-1,-2,1
1470330793238084,2,1,-9,-1,-1,-1,1,-1
1470330793238584,1,-2,0,0,0,1,-1,-2
1470330793238584,-2,4,11,4,-3,-2,-2,0
1470330793251596,-4,-6,-22,-8,0,-1,-1,-1
1470330793251596,-5,-5,-13,3,-1,-2,-2,-3
1470330793259604,2,-2,7,-2,1,0,-3,0
1470330793259604,-2,-1,-5,4,-1,1,0,-2
1470330793275646,-2,4,5,0,-2,-2,-1,-1
1470330793275646,8,-3,-11,-4,-1,-1,-2,-1
1470330793276118,-1,-1,0,-4,-3,-1,-2,-1
1470330793276118,-1,3,16,8,-1,-2,-2,-2
1470330793298146,-1,-3,-8,1,0,0,-1,2
1470330793298146,-13,-2,1,-3,-2,-1,-1,-1
1470330793298639,2,-2,-3,-4,-3,-3,0,0
1470330793298639,1,-2,-13,-9,-2,0,-1,-1
1470330793311649,1,0,13,13,-2,0,0,-3
1470330793311649,1,-4,-11,-6,2,-1,-2,-1
1470330793319691,-2,-3,-16,-10,-3,0,0,1
1470330793319691,0,3,7,-5,-3,-3,-1,-2
1470330793335173,-12,-4,-6,-1,-1,-2,-4,-2
1470330793335173,0,-3,-8,-1,-2,0,-1,3
1470330793336172,-8,-2,7,10,6,-1,0,-4
1470330793336172,5,-3,1,2,-3,0,0,3
1470330793357738,1,3,-8,-4,-5,-1,0,0
1470330793357738,3,6,13,-8,-1,0,0,-2
1470330793358725,-7,-6,1,4,2,1,-1,-4
1470330793358725,2,-3,-11,-11,-4,-2,0,-2
1470330793371753,3,-2,8,9,1,-2,1,-2
1470330793371753,2,0,-2,-4,-2,-1,-1,1
1470330793379711,-8,6,-2,-3,-5,-2,-1,-1
1470330793379711,-3,0,-2,1,0,-2,-2,-2
1470330793395738,3,-1,-12,-10,-2,0,-1,1
1470330793395738,-15,-3,1,2,-2,-2,-1,-3
1470330793396237,7,3,19,3,-2,-2,0,0
1470330793396237,-3,-1,6,4,-1,0,-2,-2
1470330793417746,8,-1,-15,-3,1,0,0,1
1470330793417746,1,1,12,2,0,1,0,0
1470330793418747,0,1,-17,-11,-4,-4,-2,-1
1470330793418747,-6,-6,4,-1,-2,-2,-1,1
1470330793431759,1,3,-1,-5,2,0,-1,0
1470330793431759,2,2,10,8,0,-1,-1,-1
1470330793439792,4,-5,-8,-2,-4,-2,-2,0
1470330793439792,-1,-5,-1,-1,-1,0,-1,0
1470330793455281,-5,5,12,4,3,-1,-3,-5
1470330793455281,-6,-2,10,7,0,0,0,-3
1470330793456280,1,4,5,4,-3,-2,0,0
1470330793456280,2,-3,-28,-14,0,-2,0,-1
1470330793477832,0,-6,19,2,-3,-2,0,0
1470330793477832,5,-2,-5,-3,-4,-2,-3,0
1470330793478800,1,0,-5,-1,-1,1,0,1
1470330793478800,-4,0,0,-1,-1,0,-1,-1
1470330793491841,0,-4,-4,-6,-1,-1,-2,-1
1470330793491841,-1,-1,13,2,-1,-3,-3,-2
1470330793499879,0,-2,-6,1,-2,-1,-1,0
1470330793499879,0,2,0,-1,0,-1,1,3
1470330793515362,-6,-2,-1,-2,-2,0,1,-1
1470330793515362,-2,5,-1,2,-2,-3,0,-1
1470330793516334,-1,-7,-26,-13,-2,-1,-1,-2
1470330793516334,-3,3,13,12,6,0,-1,-2
1470330793537886,1,-2,-4,1,0,0,-1,-2
1470330793537886,-1,-8,-3,-7,-1,-2,0,0
1470330793538854,-2,3,5,0,-2,-1,-4,-1
1470330793538854,-2,-1,-1,-4,-4,-3,-1,-2
1470330793560430,3,-4,5,7,-2,0,0,-1
1470330793560430,-4,-1,0,-4,1,-1,-2,1
1470330793561415,-1,0,8,1,1,-1,0,2
1470330793561415,-4,-4,-6,-3,-2,-1,0,-3
1470330793574386,7,0,-8,-3,0,1,-1,0
1470330793574386,-2,-1,-10,-3,-2,-1,-2,-1
1470330793582897,-6,-2,12,0,0,-1,-2,-4
1470330793582897,-1,-3,-3,1,-2,1,-3,1
1470330793597920,-4,-2,1,-5,-2,-3,1,0
1470330793597920,2,-1,-6,1,0,-1,-1,-1
1470330793598908,2,0,0,1,1,1,-2,0
1470330793598908,2,0,-1,-3,-1,1,0,1
1470330793620428,-4,-4,-11,0,-1,-1,-1,-2
1470330793620428,-4,-1,1,1,-2,-3,0,-3
1470330793621933,3,-3,-1,1,0,1,-1,0
1470330793621933,2,2,-6,-2,-1,-2,-1,-3
1470330793633984,-2,-4,-2,-9,-3,0,-2,0
1470330793633984,2,-3,4,3,-3,-1,-2,-2
1470330793642948,3,-6,-2,2,-2,0,-2,0
1470330793642948,-6,-1,-3,-6,-1,-1,1,0
1470330793657961,0,-1,-4,1,0,-1,-3,0
1470330793657961,2,0,-13,-3,-1,0,1,0
1470330793659462,-2,2,9,-2,-1,-1,-1,-2
1470330793659462,0,-2,4,-1,-1,-3,-1,1
1470330793680512,-3,-6,0,0,-1,-1,-1,-1
1470330793680512,6,1,-1,-2,-2,0,-2,-1
1470330793681985,-2,-2,-6,-1,-1,0,-3,-4
1470330793681985,-4,-2,-6,2,-2,-1,-1,-1
1470330793694496,-4,1,9,-3,-2,-1,-1,-2
1470330793694496,0,1,5,1,0,-2,-1,0
1470330793703002,-2,2,-9,-1,2,-1,0,1
1470330793703002,-2,-5,-8,-4,0,0,-2,-2
1470330793718015,-2,4,13,5,-1,-1,-1,-3
1470330793718015,-1,-4,-5,-1,0,1,1,-1
1470330793719516,-1,0,-4,-1,-4,-3,-3,0
1470330793719516,0,-3,-11,-1,0,-1,0,2
1470330793740568,3,4,18,-4,-2,-3,-1,-1
1470330793740568,-2,-7,-10,-1,0,-2,-1,-1
1470330793742051,-9,-2,7,1,-1,-1,0,-1
1470330793742051,-5,-3,-6,-1,-2,1,-2,-4
1470330793754082,2,0,1,16,-2,0,-1,0
1470330793754082,6,-1,-4,-9,2,0,-1,1
1470330793769108,1,-1,0,-2,-1,-2,0,-2
1470330793769108,-1,-3,5,-2,0,-1,0,-2
1470330793778077,5,0,-18,-9,0,0,-1,0
1470330793778077,-4,0,15,5,-1,0,-2,-2
1470330793779570,-3,-2,0,1,-1,1,-3,-1
1470330793779570,-2,0,6,9,0,-1,-3,2
1470330793800629,-1,-3,-3,-8,-3,-3,-2,-2
1470330793800629,2,4,-12,-1,-2,-2,-1,0
1470330793802092,1,-5,1,-4,-1,-1,-1,0
1470330793802092,0,-3,0,1,-3,-1,-2,-1
1470330793814620,-9,5,2,0,3,0,0,2
1470330793814620,2,-2,-9,-3,-1,-1,-2,-2
1470330793821620,-12,-5,-1,4,0,-2,1,-4
1470330793821620,2,-2,7,-5,0,-1,-1,1
1470330793837641,2,-3,-6,0,-1,0,0,-4
1470330793837641,-5,2,2,-6,-3,0,-1,-2
1470330793839625,3,-5,-13,-3,-2,1,0,0
1470330793839625,-1,7,8,1,0,-2,0,-2
1470330793860643,-5,-7,-2,-5,-2,0,1,-1
1470330793860643,-1,2,-8,-2,0,-2,-1,-2
1470330793862147,4,0,27,8,2,0,-1,1
1470330793862147,-6,-1,-9,6,-1,-1,-3,-2
1470330793874656,2,0,-5,-8,0,-3,-2,-1
1470330793874656,-4,-5,-10,12,3,0,1,-3
1470330793881662,-4,-1,4,-17,-3,-3,0,-2
1470330793881662,12,2,9,1,-1,-2,-1,0
1470330793897676,-9,-2,2,9,3,0,-1,-1
1470330793897676,3,-1,-6,-3,-4,0,-2,0
1470330793899737,1,0,-7,7,1,-1,-1,0
1470330793899737,0,0,10,-5,-2,1,-1,-3
1470330793920732,5,1,-8,-5,0,-3,-2,-2
1470330793920732,-9,-14,1,-5,-1,-1,-1,-2
1470330793922304,-8,4,-19,-7,-3,-2,-2,-1
1470330793922304,-2,-4,-5,-4,-3,-2,-1,-2
1470330793934710,-10,4,14,2,0,-2,-2,-4
1470330793934710,8,-4,-2,-4,-1,-2,-2,3
1470330793941716,1,2,0,-2,-1,1,-1,0
1470330793941716,-4,-4,-20,-2,-2,-1,0,-2
1470330793958231,-2,-1,-3,-2,-2,0,-1,0
1470330793958231,0,5,17,10,-2,0,-1,-1
1470330793959736,9,-3,-7,-11,-1,-2,-1,1
1470330793959736,-5,-4,16,-8,0,0,-3,-1
1470330793980307,-4,-8,-16,2,0,-3,0,-2
1470330793980307,2,2,4,1,-1,-1,-2,2
1470330793982253,3,0,1,9,0,-1,-1,-2
1470330793982253,-8,0,-4,-3,-1,-3,-1,-2
1470330793994771,2,-4,9,-4,-2,-1,-1,-2
1470330793994771,-10,1,0,-1,-3,0,-1,-3
1470330794001770,6,2,-1,-6,-3,-2,-1,-2
1470330794001770,8,-2,-7,-3,-2,-2,-2,-3
1470330794017816,2,-3,-8,-8,-1,0,-1,2
1470330794017816,-6,1,1,-3,-1,-3,0,-4
1470330794019786,1,-2,2,-1,-3,0,0,1
1470330794019786,-9,-4,-5,14,4,0,1,-2
1470330794039351,4,-3,-2,-3,-1,0,-2,-1
1470330794039351,5,-1,1,-3,-2,-1,-3,1
1470330794047811,-6,3,10,9,-1,0,-2,-2
1470330794047811,5,-5,-21,-6,-2,-1,0,2
1470330794054317,-4,0,17,-6,-4,-4,0,-2
1470330794054317,-10,-2,-12,-4,0,0,0,-2
1470330794062824,4,-6,-10,-3,-4,-1,-1,-2
1470330794062824,-2,5,15,-3,-1,0,-4,1
1470330794077869,9,0,-4,3,1,0,0,3
1470330794077869,1,2,1,-8,0,0,-2,-2
1470330794079341,-9,-7,-7,-4,-1,-2,-1,-6
1470330794079341,3,6,-5,-6,-4,-1,-1,0
1470330794100358,-6,-6,-4,5,1,2,-2,-2
1470330794100358,-1,1,17,11,0,-1,-1,-3
1470330794101860,-3,-1,0,-4,1,0,1,2
1470330794101860,-4,-5,-2,2,0,1,0,1
1470330794114371,1,4,-2,4,-4,-1,-2,-1
1470330794114371,-1,-3,-8,-4,-3,-1,0,-2
1470330794122901,1,-1,0,-7,1,-1,-1,-1
1470330794122901,5,0,2,7,0,-2,0,0
1470330794137925,-16,-1,6,-4,-4,-1,0,-3
1470330794137925,3,-6,-8,-3,0,-2,-2,1
1470330794139940,-2,0,0,-5,-4,-1,-2,-1
1470330794139940,-3,-1,-6,1,0,0,-1,-1
1470330794160458,4,-3,1,2,0,-1,-2,0
1470330794160458,-7,-7,-12,-12,-4,1,1,-2
1470330794161914,4,7,6,9,0,-1,-1,1
1470330794161914,-2,-2,8,5,2,0,-2,-2
1470330794174442,-1,-6,-37,-7,0,-2,0,-1
1470330794174442,3,6,30,7,-2,0,-1,4
1470330794182936,-6,1,-6,-1,-2,-2,-1,-5
1470330794182936,4,-5,-5,-14,-3,-2,-3,-3
1470330794197968,0,1,0,-1,-1,-2,0,0
1470330794197968,-2,2,-1,-2,0,0,1,-4
1470330794199447,6,-1,1,7,0,1,0,3
1470330794199447,-7,-3,9,0,-1,-2,-1,-2
1470330794220467,-6,-5,-8,-8,-2,-1,-3,-3
1470330794220467,2,-3,-4,1,1,-3,-1,-1
1470330794221968,-3,0,-3,1,-2,0,-1,-3
1470330794221968,6,0,-8,-2,-3,0,0,0
1470330794233980,0,2,28,5,-2,-3,-2,-1
1470330794233980,-2,-2,-9,-10,2,-2,-1,1
1470330794242986,-1,-1,-5,-11,-1,0,0,-1
1470330794242986,-4,2,-9,-8,-4,-1,0,-1
1470330794258000,-5,-3,14,10,1,1,-1,-2
1470330794258000,5,-1,-13,-2,-2,-1,-1,0
1470330794259521,-3,-7,-4,0,-2,0,-1,1
1470330794259521,2,8,14,-9,-1,-3,-1,-2
1470330794280548,-1,-5,12,6,0,-2,-2,-1
1470330794280548,0,-5,-16,-4,-2,1,0,-4
1470330794282022,2,-7,-15,-2,2,-2,0,3
1470330794282022,-2,7,2,2,-3,-3,0,-2
1470330794294034,-5,1,4,-2,0,1,-1,-3
1470330794294034,-13,0,0,2,0,1,-2,-5
1470330794303541,-2,-3,-3,1,-2,-1,-1,-1
1470330794303541,0,-6,-9,4,-2,0,1,3
1470330794318555,7,3,-12,-5,-2,-3,0,2
1470330794318555,3,0,5,-1,-1,1,-1,0
1470330794319555,-1,-4,-1,-2,0,-2,-2,-3
1470330794319555,-3,-3,12,1,1,0,-1,-1
1470330794340627,-2,-2,-15,-4,-2,2,0,1
1470330794340627,0,2,-4,-3,0,-3,0,0
1470330794342080,-2,4,15,6,0,-2,1,0
1470330794342080,-1,-7,2,2,-2,-2,-2,-3
1470330794354086,1,1,-7,-14,-1,1,-1,-2
1470330794354086,5,7,6,5,4,-2,-1,2
1470330794363094,-3,-13,-6,2,1,0,-2,-2
1470330794363094,-6,0,-2,5,2,-2,-2,-3
1470330794378108,-3,-4,-3,-8,-5,0,0,-2
1470330794378108,1,0,14,1,-4,-2,-1,-1
1470330794379609,-3,5,-5,-4,-2,0,-2,-2
1470330794379609,2,-4,-9,-2,-1,-1,-2,1
1470330794400184,-8,1,3,8,-1,-2,-2,-2
1470330794400184,3,-3,0,-3,-1,-2,-2,-1
1470330794402129,-1,-1,4,2,-1,-3,0,1
1470330794402129,2,0,-2,-4,-1,-1,0,-2
1470330794414175,3,1,-5,-2,-2,-1,-1,1
1470330794414175,1,0,-3,0,-3,0,0,-1
1470330794423148,-2,1,3,1,0,-2,-3,-2
1470330794423148,3,-4,2,-2,-1,-1,-2,-1
1470330794438161,-3,-2,-19,-3,-1,-3,-1,-1
1470330794438161,-3,-6,4,-2,-1,-1,-1,1
1470330794439670,2,5,25,5,-3,-2,-4,0
1470330794439670,-3,0,-1,-3,-1,-1,-2,-1
1470330794460225,2,0,7,6,2,-1,0,-1
1470330794460225,-4,-5,-16,-8,-5,-2,-1,-1
1470330794462205,-5,-1,-10,-6,-1,0,-2,-1
1470330794462205,0,0,12,3,-1,-1,-1,0
1470330794483239,3,-1,-22,-5,-1,-1,1,-1
1470330794483239,2,2,5,3,0,-2,-3,1
1470330794484733,-3,-4,0,-5,-2,2,0,-2
1470330794484733,-8,0,-7,0,1,-3,-1,4
1470330794498245,-1,0,-3,-3,-2,3,-1,-4
1470330794498245,1,-3,-2,1,-1,1,-2,-3
1470330794499878,1,7,1,4,0,0,6,2
1470330794499878,7,-10,-16,-2,-3,-1,-3,2
1470330794520265,-4,5,0,-2,-1,-1,0,3
1470330794520265,-5,2,-5,0,-3,-2,0,-3
1470330794522266,1,-1,0,-4,-1,3,1,3
1470330794522266,0,0,-6,-2,-2,-4,-3,-6
1470330794542799,2,4,19,6,2,0,4,2
1470330794542799,2,-1,-2,-2,-2,-3,-3,-2
1470330794544287,3,-2,-6,-3,1,-2,0,1
1470330794544287,-8,-4,-1,-4,-2,0,1,-1
1470330794557798,2,-2,1,0,-4,0,-4,-4
1470330794557798,-6,1,1,0,-1,0,-1,-4
1470330794559313,-1,-3,2,0,0,-4,-3,-5
1470330794559313,0,2,1,2,-2,1,-3,-4
1470330794580333,-3,-5,-11,-8,-2,-1,0,-1
1470330794580333,2,-1,9,1,0,0,3,4
1470330794581820,-2,-1,0,8,0,-1,-4,-5
1470330794581820,-1,0,-17,-8,-5,-2,-1,-1
1470330794602843,-1,-2,9,-13,0,-4,-3,2
1470330794602843,-2,-3,-16,-1,-3,-2,-3,-1
1470330794604342,1,-2,-18,-13,0,0,-1,-3
1470330794604342,-2,3,42,28,2,-1,-1,-2
1470330794617354,0,-6,-18,-15,-4,0,-1,-2
1470330794617354,1,1,-4,2,0,0,0,-2
1470330794624461,-1,0,-6,-2,-3,-2,-3,1
1470330794624461,1,-2,-9,-10,1,0,0,-2
1470330794640391,-3,-2,1,3,1,-1,-1,-3
1470330794640391,-1,0,6,4,0,1,-1,-1
1470330794642439,0,-6,-6,-2,-2,-1,1,0
1470330794642439,-3,3,-2,-9,-1,0,-1,-1
1470330794662910,-2,-4,9,9,1,-3,-3,-2
1470330794662910,-3,-2,-13,-4,-2,-3,-1,-1
1470330794664410,-1,0,8,3,-2,-2,0,-2
1470330794664410,4,-3,2,-8,1,0,0,-1
1470330794677406,0,-1,0,4,0,0,-2,-1
1470330794677406,-2,-2,-5,-9,-1,-1,0,-1
1470330794683945,-2,0,6,4,-2,-1,-2,-3
1470330794683945,-1,1,4,9,-2,0,-1,-1
1470330794700427,1,-2,-6,-2,-1,-3,1,-1
1470330794700427,0,-2,5,-4,0,-2,0,-1
1470330794706460,-1,2,0,-3,0,-1,-2,0
1470330794706460,-2,-4,-11,0,0,0,-1,0
1470330794722969,0,1,9,-6,-2,-3,-2,0
1470330794722969,0,1,-7,2,4,0,-1,2
1470330794724492,-3,-1,3,-2,0,-1,1,-2
1470330794724492,0,-5,-3,-11,-2,0,-2,-1
1470330794737460,-1,-1,-9,-1,-2,-1,-1,-3
1470330794737460,-2,1,15,16,-1,1,-1,-2
1470330794743981,1,-2,-11,-13,-1,-1,-1,1
1470330794743981,0,-1,-12,0,-3,-2,1,1
1470330794760480,-2,4,6,-4,-3,0,-2,-1
1470330794760480,1,0,2,1,0,0,1,0
1470330794761983,-5,7,7,4,-2,-2,-2,-4
1470330794761983,1,-12,-7,-4,-2,0,-1,0
1470330794783083,3,-3,-1,3,-1,-1,-1,0
1470330794783083,-8,-6,-10,1,-1,-2,-1,-1
1470330794784503,0,-3,-2,-6,0,1,0,-2
1470330794784503,3,4,-3,-5,-3,-3,0,-1
1470330794797575,8,2,8,2,-3,0,-2,-2
1470330794797575,-13,-3,-8,-6,0,-1,0,-1
1470330794804052,1,-4,4,-4,-1,-3,-2,0
1470330794804052,0,5,15,-1,0,1,-1,1
1470330794820535,0,-2,-4,13,2,-3,0,0
1470330794820535,4,-1,-17,-15,-5,-2,0,-3
1470330794822035,1,-6,-6,-8,-1,1,-3,0
1470330794822035,9,5,16,7,0,-2,-2,-3
1470330794843117,-10,-2,-9,-1,-1,1,-2,-2
1470330794843117,-6,-5,9,0,-2,-2,-2,0
1470330794844607,-2,3,-15,6,1,-1,0,1
1470330794844607,4,13,16,1,-3,-1,-3,-1
1470330794865590,2,-12,3,-9,-3,-1,0,-3
1470330794865590,-6,-1,-18,-14,-5,-3,-2,-4
1470330794867076,8,-3,9,16,2,-1,0,-1
1470330794867076,-17,-5,-15,-8,-1,-1,-1,-3
1470330794880588,-4,-1,14,2,-2,-1,-1,-2
1470330794880588,3,2,16,1,-1,-1,-2,-3
1470330794882090,-1,3,-1,0,6,1,0,1
1470330794882090,2,-1,-6,6,-2,-1,0,-1
1470330794903108,-3,-2,-14,-12,-2,1,-2,-1
1470330794903108,2,-6,-4,-13,-6,-1,-1,0
1470330794904610,-11,-3,-4,4,-3,-2,-3,-5
1470330794904610,9,0,-1,7,2,-2,-2,2
1470330794917167,-8,-3,-12,-26,-1,-1,-3,0
1470330794917167,9,4,11,33,12,3,1,-1
1470330794924188,-1,-4,-26,-2,1,0,-1,-2
1470330794924188,-11,-4,23,2,-10,-4,-1,-2
1470330794940642,6,4,-4,5,-7,-4,1,-1
1470330794940642,1,2,-1,-11,1,-1,-1,3
1470330794942157,-2,-3,10,-5,-7,-1,-3,-4
1470330794942157,7,-10,-21,11,2,0,0,-2
1470330794963260,-4,-1,10,-3,0,2,1,1
1470330794963260,-33,-1,-6,13,2,-1,-1,-4
1470330794964678,6,0,14,0,-3,-3,-1,-1
1470330794964678,-1,3,-2,-4,-2,-1,-2,1
1470330794976703,14,-4,-11,-15,-8,-2,1,3
1470330794976703,11,0,-7,0,1,-2,-3,-1
1470330794985683,-5,4,-4,-12,-3,-1,0,-6
1470330794985683,-9,-2,20,-3,0,0,0,-3
1470330795000701,-6,-1,10,30,2,-2,-1,0
1470330795000701,6,0,-11,-13,11,6,2,3
1470330795002198,-3,-1,-21,12,-4,0,0,0
1470330795002198,-8,-5,11,-9,5,1,-1,0
1470330795023223,-6,3,-4,-17,-7,-5,-2,-3
1470330795023223,18,-3,-26,-9,-11,-3,-1,1
1470330795024719,1,-1,29,13,5,-2,-2,2
1470330795024719,-16,-5,-28,-15,-1,0,-1,-3
1470330795036810,-5,-9,2,6,0,-4,-3,-3
1470330795036810,0,5,0,-19,-3,-2,-2,-2
1470330795051768,6,0,28,2,-5,-3,0,5
1470330795051768,-1,-12,-30,4,-5,-3,-3,-4
1470330795060838,0,6,0,-1,4,1,-1,0
1470330795060838,-2,-6,7,9,-4,-1,-1,-3
1470330795062253,-3,-3,-21,-15,-2,0,-1,0
1470330795062253,2,1,13,-1,-1,0,-1,2
1470330795083271,1,3,0,8,2,1,0,-2
1470330795083271,-3,-2,6,5,-4,-1,-3,0
1470330795084773,3,-2,-7,-14,2,0,0,-1
1470330795084773,-2,-1,-6,-5,-3,-2,0,-2
1470330795096782,3,1,10,6,1,0,-2,0
1470330795096782,2,4,10,4,-4,-3,-1,0
1470330795105290,-6,-13,-13,-13,-4,-2,-2,-1
1470330795105290,7,11,-17,-4,3,0,1,-1
1470330795120366,-12,2,22,11,-1,0,0,-4
1470330795120366,3,2,9,6,1,1,1,1
1470330795121806,0,0,9,10,-5,-2,-2,-2
1470330795121806,8,-1,-4,-9,6,1,-2,3
1470330795142864,10,3,-13,0,4,-1,-1,2
1470330795142864,-5,0,31,-16,-9,-1,-2,-1
1470330795144328,-11,-4,-6,12,0,-1,-2,-2
1470330795144328,4,-3,-2,-7,-5,-3,-1,-4
1470330795156924,5,1,19,4,3,3,0,3
1470330795156924,-7,-3,-2,9,1,-1,-1,-2
1470330795165346,-2,-3,-28,-21,-3,1,2,-2
1470330795165346,-31,-3,9,0,-5,-4,-3,-6
1470330795180357,13,1,-8,-3,1,4,1,1
1470330795180357,0,1,14,8,0,-1,2,2
1470330795181860,-2,-3,-17,-2,-3,-2,-4,-3
1470330795181860,17,4,7,18,5,2,2,4
1470330795202878,-20,-8,-28,-26,-6,-6,-3,-5
1470330795202878,-4,3,11,-9,-6,-1,-4,-4
1470330795204379,6,3,16,16,7,-2,1,2
1470330795204379,-2,-1,1,-12,-4,-2,0,0
1470330795216480,4,-5,-15,-12,-5,-1,0,-1
1470330795216480,-1,-3,-8,13,-2,-4,-4,-3
1470330795225407,4,8,2,-11,6,1,1,-1
1470330795225407,11,-5,-9,-4,-11,-3,-2,1
1470330795240445,-11,-2,4,5,6,1,-1,-3
1470330795240445,4,-2,-4,-12,-5,-3,0,1
1470330795242455,-5,0,-1,-11,-2,1,-1,-3
1470330795242455,-4,0,-1,-4,0,-1,0,-4
1470330795262991,-16,-5,-7,10,1,-3,-3,-3
1470330795262991,11,2,0,-6,-1,0,0,3
1470330795264435,0,2,9,7,-5,-4,-2,-3
1470330795264435,-6,-2,-11,-2,3,0,0,-2
1470330795276471,4,-1,4,-9,-4,-2,0,0
1470330795276471,-5,-1,-4,4,-2,-1,-1,-1
1470330795285454,-5,1,-1,-11,1,1,0,-1
1470330795285454,-1,-1,-4,-1,1,1,-2,1
1470330795300498,9,-4,-14,0,-4,-1,0,1
1470330795300498,-17,-5,0,16,4,0,-2,-6
1470330795301967,14,4,6,-12,-6,0,0,6
1470330795301967,-6,-1,-12,3,4,-1,-5,-3
1470330795330537,3,9,14,5,1,-3,-1,-2
1470330795330537,-2,-6,1,-16,-5,-1,0,1
1470330795331994,-6,1,5,20,5,1,-2,-1
1470330795331994,6,6,2,-11,-5,-3,-3,-2
1470330795336531,-13,-3,-1,19,-4,-2,-1,-4
1470330795336531,26,4,-2,2,20,5,1,2
1470330795345507,-17,-5,7,1,0,0,0,-2
1470330795345507,0,0,3,-1,3,-1,0,0
1470330795360519,4,-12,-10,-11,-11,-5,-2,0
1470330795360519,2,7,8,4,-6,-1,-1,-3
1470330795362021,-12,-6,-20,-5,-2,-3,-4,-1
1470330795362021,6,2,8,11,0,-1,3,0
1470330795383115,1,0,13,3,6,2,-1,-4
1470330795383115,3,-2,-7,1,-3,-2,-2,-3
1470330795384575,-6,3,-9,-8,-2,-1,-1,1
1470330795384575,0,1,7,-1,-5,-3,-1,2
1470330795396552,-3,-1,-3,11,1,4,0,1
1470330795396552,8,-2,-7,-12,-4,-5,0,3
1470330795405562,0,-6,-3,-3,-5,0,-2,-3
1470330795405562,-8,-6,-7,-13,4,-1,-1,-6
1470330795420574,-3,6,8,1,-1,-2,0,2
1470330795420574,-5,-3,7,26,-5,-1,-2,2
1470330795422075,11,-10,10,-6,8,0,-1,-2
1470330795422075,4,3,-11,9,-1,1,0,2
1470330795443117,-2,-2,-4,-16,-3,0,-2,-2
1470330795443117,-10,-13,-29,-18,-11,-4,-3,-4
1470330795444621,4,7,25,24,-2,-3,-3,-2
1470330795444621,10,-1,-13,-11,4,3,-1,6
1470330795465614,-3,5,13,11,2,0,0,-1
1470330795465614,-12,-3,-12,-10,-3,0,1,1
1470330795467116,5,-6,-8,-4,-4,0,-3,-4
1470330795467116,0,0,1,0,0,-2,-3,-1
1470330795488134,5,13,13,-4,1,-3,-1,0
1470330795488134,-1,-11,-11,-3,-1,0,-3,-2
1470330795489635,6,-3,-6,-7,0,0,-1,1
1470330795489635,-13,-2,3,7,-3,-1,0,-5
1470330795503147,9,4,2,4,0,-1,-1,1
1470330795503147,-17,-4,-11,-1,-2,-3,-2,-5
1470330795504681,-2,0,-6,3,0,-1,0,0
1470330795504681,14,-4,-10,0,-4,0,-2,-3
1470330795525667,-20,5,16,-8,-1,-1,-3,-2
1470330795525667,7,7,10,3,4,-2,1,0
1470330795527169,-5,-6,-20,-7,-5,-1,-1,-4
1470330795527169,-6,-5,-8,-10,-4,-1,-1,-6
1470330795540686,-8,-7,-19,7,3,-1,0,3
1470330795540686,1,5,22,-6,1,0,-3,-5
1470330795542200,-9,0,-15,-6,-4,-2,-1,-2
1470330795542200,-3,-3,19,-1,-4,-4,-3,0
1470330795563234,12,-8,-11,-7,-3,0,0,-2
1470330795563234,-14,-5,-5,10,4,-2,0,-4
1470330795564734,5,4,-10,-11,-1,-2,1,1
1470330795564734,0,-3,6,8,-3,-1,-1,3
1470330795585721,4,2,-9,7,3,0,0,-3
1470330795585721,-28,1,-3,-2,-5,-3,-2,-5
1470330795587224,27,-2,1,6,0,0,-2,3
1470330795587224,-12,-1,2,-7,-3,0,0,-1
1470330795599740,-1,-5,-10,-11,-6,-6,-2,-3
1470330795599740,2,1,10,7,1,3,-1,-1
1470330795606751,-16,-1,2,-6,0,0,0,1
1470330795606751,-4,-5,-17,1,-3,-4,-1,-2
1470330795623327,7,-1,-7,-3,-4,-4,-2,-1
1470330795623327,6,-6,-1,1,0,-1,-2,2
1470330795624777,-6,2,15,-2,-3,-2,0,-2
1470330795624777,-6,2,3,2,0,-2,-1,-3
1470330795645792,3,-8,-26,-10,-1,-2,-4,-1
1470330795645792,2,-3,17,-1,2,0,1,0
1470330795647277,3,6,14,9,-4,-2,-2,2
1470330795647277,-24,-2,13,6,3,0,-1,-6
1470330795659788,0,-6,-20,-15,-4,-1,0,-2
1470330795659788,4,-3,0,-3,-3,-1,-1,0
1470330795666934,2,0,-19,-11,0,0,-1,0
1470330795666934,8,2,12,6,-4,0,-1,2
1470330795682809,-3,-2,20,20,12,3,0,-2
1470330795682809,4,3,-3,-14,-3,1,-2,0
1470330795684310,4,1,5,4,-3,-2,-2,0
1470330795684310,-9,-5,-19,-12,-4,-2,-2,-3
1470330795705358,-11,0,7,11,0,0,-3,-4
1470330795705358,11,-2,-9,2,-4,-2,-1,2
1470330795707440,-3,-2,-16,-2,1,1,-2,-4
1470330795707440,-2,0,47,4,1,1,-1,-2
1470330795719844,-3,3,-16,-5,-4,-2,0,-1
1470330795719844,-2,-2,-22,-1,0,0,1,2
1470330795726359,-1,-3,-9,-5,-2,-3,1,-1
1470330795726359,4,-2,-6,-7,0,-1,-2,-2
1470330795742865,4,-1,10,2,0,-1,0,0
1470330795742865,6,8,-5,9,0,0,0,-1
1470330795744865,-8,0,17,-12,-2,1,-2,-1
1470330795744865,10,-6,-44,1,-7,-2,0,-2
1470330795765425,-4,-1,53,-4,0,-2,-1,-3
1470330795765425,4,-1,-7,-12,-3,-1,0,-1
1470330795766884,-1,-5,-1,7,-3,-5,-2,-2
1470330795766884,-14,0,-8,-12,-2,-4,-2,-1
1470330795779896,18,5,-17,1,-7,2,0,1
1470330795779896,-23,-5,-1,-1,4,-1,0,-4
1470330795786436,4,1,22,8,-1,-1,1,-4
1470330795786436,8,2,7,-3,-2,0,-2,4
1470330795802920,-3,-1,-2,4,0,-3,-2,0
1470330795802920,4,0,-1,-7,0,-2,0,0
1470330795804417,-11,-3,-6,2,0,1,-1,-1
1470330795804417,10,4,8,6,3,0,1,2
1470330795825460,1,-1,-26,-7,-3,-1,-1,-1
1470330795825460,1,-7,15,-4,-5,-2,-2,-3
1470330795826939,-1,0,0,0,-3,-1,0,0
1470330795826939,0,0,3,4,-2,-2,-1,-2
1470330795839995,-6,-2,3,-3,0,-3,0,-2
1470330795839995,1,-2,-27,-2,-1,1,0,1
1470330795846455,-13,-3,5,-11,-2,-2,-3,-5
1470330795846455,3,-1,-11,16,1,0,1,1
1470330795862972,-8,-3,-13,-14,-1,-2,-1,-1
1470330795862972,9,3,22,3,2,-2,-3,1
1470330795864474,0,7,6,8,0,1,-1,3
1470330795864474,-1,-3,-10,-4,-2,-3,-1,-2
1470330795885503,-1,0,0,-12,-5,0,-1,0
1470330795885503,-10,-1,-13,-1,0,0,-1,-1
1470330795886994,5,-4,6,0,3,0,0,2
1470330795886994,-6,0,-22,0,-1,-3,-2,-6
1470330795900084,3,0,-10,3,-1,-2,0,2
1470330795900084,2,2,6,1,-4,-1,-2,-1
1470330795906542,-3,-3,-2,-2,3,0,-1,-1
1470330795906542,-1,-5,1,1,1,0,-2,0
1470330795923114,-2,-1,24,11,-1,1,-2,-1
1470330795923114,-1,3,-21,-8,-3,-2,-1,0
1470330795924544,0,-4,-9,2,-5,-7,-1,-2
1470330795924544,-3,2,23,-4,-3,3,0,-3
1470330795945642,-2,-2,-8,-4,-3,-1,1,-2
1470330795945642,2,-2,17,2,0,-1,-1,-1
1470330795947129,-1,0,-6,-1,0,0,0,-2
1470330795947129,5,-2,-14,-5,0,0,-2,2
1470330795959086,-8,-2,16,2,-2,-1,0,-3
1470330795959086,2,0,0,1,0,-3,-1,0
1470330795968066,8,0,-8,-5,-2,0,-2,-2
1470330795968066,2,0,36,6,0,-1,-2,-3
1470330795983079,-8,-4,-30,-1,-2,2,-2,-3
1470330795983079,-3,-3,-12,-10,-1,-4,-2,-1
1470330795984580,-2,1,24,3,-2,-2,-1,-1
1470330795984580,4,5,-4,2,0,-1,-2,0
1470330796005598,0,-5,-6,-6,0,-1,-1,-3
1470330796005598,0,0,1,-4,-2,-1,0,0
1470330796007099,-5,-3,-6,0,-1,0,0,-1
1470330796007099,-3,0,8,1,-1,-1,0,-2
1470330796019153,-1,-1,-4,-2,1,0,-1,-1
1470330796019153,2,-1,-6,-4,-2,0,-2,-2
1470330796028119,4,-3,-8,2,-1,-1,-2,0
1470330796028119,-9,-2,12,1,-1,-2,0,1
1470330796043147,-7,-1,-4,0,0,1,0,1
1470330796043147,-3,-5,-2,-4,-1,-1,-1,-3
1470330796044633,0,1,-7,-4,0,0,1,-3
1470330796044633,4,-1,-9,-8,0,-1,1,-1
1470330796065652,3,-2,-4,6,-5,-4,-1,1
1470330796065652,-2,-1,27,6,4,2,-1,-1
1470330796067155,-3,0,-1,-2,-1,-1,0,0
1470330796067155,-3,-1,-11,-3,-2,0,-2,-4
1470330796079165,5,0,-2,-6,-2,-1,-1,1
1470330796079165,-3,0,-14,-8,-2,0,-1,-5
1470330796088177,-1,7,21,9,-3,-1,0,1
1470330796088177,0,-3,-6,2,-1,-1,-1,-1
1470330796103186,-4,-7,-14,-10,0,-4,-3,-1
1470330796103186,1,0,0,1,0,-1,-2,1
1470330796104727,1,-3,0,-5,0,-2,-2,-1
1470330796104727,-1,-5,-11,-3,-1,-1,-1,-2
1470330796125713,-1,5,19,4,-1,1,-2,-3
1470330796125713,1,-2,-3,2,-1,-3,0,0
1470330796127207,1,-1,-4,-1,-2,-1,0,1
1470330796127207,-3,0,-3,-6,-1,-1,-3,-1
1470330796139227,0,-3,19,-2,1,-1,-1,-3
1470330796139227,-2,-1,2,0,-1,0,-1,-2
1470330796148227,-3,-2,-2,-2,-2,0,-2,0
1470330796148227,7,3,-4,-1,-1,0,-1,-1
1470330796163320,-10,-1,-10,-10,-4,-2,-1,-2
1470330796163320,-4,3,14,11,3,1,0,-1
1470330796164742,-2,-9,-15,-5,2,-1,-2,-1
1470330796164742,-4,-4,-3,1,-1,-1,-2,-1
1470330796185262,6,-1,-2,-3,-1,-1,0,0
1470330796185262,-6,-2,-7,-5,-4,-4,-2,0
1470330796187264,-2,-2,3,1,-2,-2,-1,-3
1470330796187264,-1,1,3,0,4,2,-1,-2
1470330796199295,1,-5,-13,0,-3,2,-1,-1
1470330796199295,4,3,8,5,-1,-1,1,1
1470330796207788,-9,-3,-6,-3,-2,-4,-2,-3
1470330796207788,-1,-1,8,-4,-2,0,0,2
1470330796222797,4,1,-6,7,1,-2,1,1
1470330796222797,2,-2,-7,-9,-1,-2,0,-2
1470330796224296,-1,-4,-24,-5,1,-2,-1,-1
1470330796224296,-1,3,1,2,-1,-1,-1,0
1470330796245358,-2,0,5,3,1,0,-2,2
1470330796245358,2,-4,-7,-2,-1,-3,-2,2
1470330796246815,2,3,0,-1,-2,2,0,-3
1470330796246815,2,-4,2,-3,-3,-1,-1,-2
1470330796258825,4,1,0,2,-1,-2,-1,-1
1470330796258825,-2,-6,-4,-5,-2,0,-2,-1
1470330796267834,-1,5,1,2,-2,-2,1,-2
1470330796267834,-1,-3,-8,1,-1,-2,0,2
1470330796282873,1,1,21,-4,-1,-2,-2,-2
1470330796282873,-6,-3,-15,0,-1,2,-2,-2
1470330796284349,-2,-5,5,-2,-2,-1,0,-2
1470330796284349,-2,1,3,1,-1,-1,1,0
1470330796305394,-2,-2,0,1,1,-1,0,-2
1470330796305394,2,0,6,5,-2,-1,-1,1
1470330796306883,5,2,-4,-2,-1,-2,-1,4
1470330796306883,4,1,0,-2,-2,-1,-2,-2
1470330796319428,-28,-8,-12,-2,-2,0,-1,-6
1470330796319428,5,2,-2,5,-1,-1,0,1
1470330796327889,6,-7,9,-3,-1,1,-1,-1
1470330796327889,2,3,-10,-3,-3,-3,-2,-1
1470330796342934,1,2,-3,-3,-1,-1,-1,1
1470330796342934,-2,-1,18,6,0,0,-2,-2
1470330796344403,-2,-4,-23,-3,-1,-1,-2,-2
1470330796344403,-8,-7,-18,-8,-1,-1,0,1
1470330796365449,-1,0,13,0,-1,1,0,-1
1470330796365449,-2,-1,-2,-4,-2,-3,-2,0
1470330796366924,-2,6,1,3,1,1,0,1
1470330796366924,-1,-6,7,0,-2,-2,-1,-2
1470330796387972,6,3,18,5,-1,-2,-2,0
1470330796387972,-2,-7,-35,-11,-4,-2,-2,-3
1470330796389473,-3,1,9,1,-3,0,-1,-2
1470330796389473,-6,-2,-3,-4,-2,0,0,-2
1470330796403035,10,-2,1,0,1,-1,0,0
1470330796403035,-12,3,10,2,-1,-2,-1,-2
1470330796404546,1,-4,-9,-1,-1,-3,-2,-2
1470330796404546,2,-1,0,-1,1,0,0,-1
1470330796425497,-8,0,5,6,0,1,-1,-1
1470330796425497,11,0,0,-2,1,-1,-2,0
1470330796426977,-3,2,-4,-1,-2,-1,0,-1
1470330796426977,-5,-2,8,0,-1,-2,-2,-3
1470330796448035,5,-3,-17,-3,-2,-2,-2,0
1470330796448035,-4,-3,-6,0,-1,0,0,-2
1470330796449523,-4,-3,4,-4,0,-2,-1,2
1470330796449523,0,1,5,3,-1,-1,0,-1
1470330796463051,0,1,-8,-6,0,-3,1,-1
1470330796463051,-3,0,6,0,-2,-1,0,0
1470330796464545,3,-2,6,0,1,0,-2,-1
1470330796464545,-2,-2,-9,0,2,-1,-1,-1
1470330796485551,1,1,6,9,-1,0,-1,-3
1470330796485551,6,-3,-11,-8,-2,-1,0,0
1470330796487031,-14,-2,2,-3,-1,0,-1,-3
1470330796487031,1,0,-4,-1,-4,-2,-2,1
1470330796508069,1,0,4,-10,-2,-3,-3,-2
1470330796508069,-1,3,-2,6,2,1,0,-1
1470330796509553,3,-2,-1,-3,-2,1,0,2
1470330796509553,-2,1,0,0,1,-1,-2,-2
1470330796522563,-5,-5,-2,0,-1,0,-2,0
1470330796522563,-6,0,4,-3,0,-1,-2,-1
1470330796529095,6,-2,-1,-1,0,-2,-1,-2
1470330796529095,-2,2,7,4,-2,0,-1,0
1470330796545584,8,-5,-24,-6,-1,0,1,0
1470330796545584,-10,-2,4,1,-3,0,-2,-5
1470330796547124,2,7,17,8,1,-1,-2,1
1470330796547124,6,-2,-15,-7,1,-1,-2,0
1470330796568107,-12,-1,6,5,0,0,0,-2
1470330796568107,-1,-4,-18,-4,-1,-1,0,0
1470330796569663,1,-5,-3,-6,-2,-2,0,1
1470330796569663,-4,-1,20,5,-2,-2,-2,-1
1470330796582118,6,0,-9,-1,-1,0,0,-1
1470330796582118,-1,-3,5,-2,-2,-1,0,-3
1470330796589173,0,-3,-13,-8,-3,-2,-1,-2
1470330796589173,-1,-3,-4,2,0,1,-1,0
1470330796613144,-6,-2,3,0,0,0,0,0
1470330796613144,7,0,-1,-2,-2,-1,-1,-1
1470330796614648,-4,-4,-15,-4,-2,-2,-1,-1
1470330796614648,-3,1,8,-4,-4,-2,0,-2
1470330796628158,-2,3,-2,10,0,-3,-2,-1
1470330796628158,3,0,11,5,2,-1,-1,2
1470330796629694,-4,-5,-8,-3,0,0,-1,2
1470330796629694,1,0,-8,-2,-1,0,-1,-2
1470330796642217,4,0,-1,-3,-2,-1,-2,-5
1470330796642217,2,0,2,-6,-1,-1,-1,-3
1470330796649176,-3,-3,-1,-1,-3,-3,-2,-4
1470330796649176,-2,-3,1,-3,-1,-2,0,1
1470330796665692,7,2,11,1,2,-1,-1,1
1470330796665692,-13,0,-7,4,0,1,0,-3
1470330796667269,1,1,-3,-3,-1,-2,-1,-3
1470330796667269,0,-1,-12,-4,-3,-4,-1,-2
1470330796688212,1,0,-4,-5,-4,-3,0,1
1470330796688212,0,0,8,1,-3,-2,0,-3
1470330796689712,0,1,-6,0,2,0,-2,0
1470330796689712,-3,-2,9,2,-1,0,-1,1
1470330796702224,-5,-2,-4,-8,-3,0,-1,-1
1470330796702224,0,-2,6,4,-2,-2,-1,0
1470330796709230,-1,6,0,3,-1,0,0,-2
1470330796709230,1,-3,-7,-2,-2,0,-2,-4
1470330796725262,0,1,-1,1,0,-1,-2,0
1470330796725262,0,-4,-11,-7,-4,-1,-2,0
1470330796727251,-1,-3,-1,-11,-4,-3,-1,-2
1470330796727251,-6,-1,7,4,-1,-2,-3,-2
1470330796748331,-3,-8,-10,0,0,-2,-2,-2
1470330796748331,2,1,8,10,3,1,-2,-1
1470330796749769,-3,0,-13,2,-1,-1,1,0
1470330796749769,7,0,1,-8,-2,-1,0,-2
1470330796762311,1,1,10,2,-1,0,-2,4
1470330796762311,2,0,-15,-11,-4,-5,-2,0
1470330796768785,-14,-5,3,1,0,-1,-3,-7
1470330796768785,2,0,-3,3,1,-1,-2,0
1470330796785301,-5,-1,-11,-1,-3,-1,1,-1
1470330796785301,4,0,-1,-2,0,-2,-1,2
1470330796787305,6,8,20,10,0,0,-1,1
1470330796787305,-6,-2,0,-1,0,0,1,-1
1470330796807861,-3,-5,0,-5,-2,0,-3,-2
1470330796807861,-3,-1,-10,-6,-1,-1,0,0
1470330796809827,-2,-6,-3,-1,0,-2,-2,0
1470330796809827,-3,5,0,4,3,0,-2,-3
1470330796822360,1,-1,0,0,-3,-1,2,0
1470330796822360,-1,1,-1,-7,-4,-1,-3,-3
1470330796829338,2,0,8,6,0,0,1,0
1470330796829338,1,-4,-9,-3,-3,-1,-1,2
1470330796845384,0,2,3,1,1,-1,0,-1
1470330796845384,0,-5,-1,2,-1,-1,-1,-1
1470330796846854,6,-4,2,1,-2,-1,-2,-1
1470330796846854,-6,-1,-3,-4,-2,1,1,1
1470330796867873,-2,1,-4,-3,-2,-1,1,-3
1470330796867873,-6,-4,5,0,-2,-1,2,-1
1470330796869374,3,-4,-4,-3,-2,1,0,1
1470330796869374,2,4,-3,-1,0,-1,-2,0
1470330796881387,0,0,-2,1,-2,-2,0,-2
1470330796881387,0,1,-1,-8,-1,0,-1,-1
1470330796890395,-8,-3,4,4,0,0,-1,0
1470330796890395,3,-5,-14,-7,-3,-1,-2,-2
1470330796905408,-2,1,21,8,1,-1,-2,-2
1470330796905408,3,-2,-4,0,1,0,1,0
1470330796906908,2,0,-10,-5,0,-2,-2,-1
1470330796906908,-5,-3,5,0,3,1,0,-1
1470330796927927,-6,-6,-3,-6,-3,-3,1,-2
1470330796927927,4,2,4,0,-4,-1,-2,-1
1470330796929429,-2,-10,-11,4,0,-2,0,1
1470330796929429,-3,8,1,-2,0,-1,-2,-1
1470330796941468,-1,-5,-5,0,0,-3,-2,-3
1470330796941468,1,-8,0,-1,0,-1,-1,-2
1470330796950447,-3,15,7,-1,-2,-2,-2,-1
1470330796950447,-2,-6,7,3,-2,-1,-2,-1
1470330796965462,1,0,-11,-8,0,2,0,1
1470330796965462,-9,-2,3,-1,-3,-1,-2,-3
1470330796966962,8,0,4,5,-2,0,1,0
1470330796966962,-4,-6,-19,0,-2,-1,1,-3
1470330796988072,-1,1,0,-20,-4,-1,-2,-2
1470330796988072,-1,9,1,6,1,-1,-1,-1
1470330796989482,0,-5,1,-5,-2,-1,1,-1
1470330796989482,0,1,-1,4,-1,0,1,0
1470330797001492,-4,-3,5,11,0,-1,0,0
1470330797001492,3,-5,-20,-18,-3,1,0,0
1470330797010501,-5,-6,4,0,-2,-2,-2,-2
1470330797010501,-2,1,-1,-2,-2,-1,1,-3
1470330797025515,2,-2,-4,6,1,3,-3,1
1470330797025515,-3,0,0,-4,-3,-1,-1,-2
1470330797027017,2,-2,-2,2,-1,0,-3,0
1470330797027017,-2,-4,17,1,-3,-3,0,-2
1470330797048104,0,-1,-11,0,2,-1,0,0
1470330797048104,0,-3,1,1,1,-2,-2,0
1470330797049536,-1,3,-18,-7,-1,-1,1,-1
1470330797049536,-1,0,24,10,-3,-3,-2,-1
1470330797061546,-6,-1,-5,-10,-1,-2,0,1
1470330797061546,-4,-3,-4,0,1,-1,-1,0
1470330797070555,1,-4,-6,-3,1,1,-1,-1
1470330797070555,3,4,-4,-3,-3,-3,-1,-2
1470330797085569,10,0,0,-1,-1,-1,-1,-1
1470330797085569,-10,2,-9,2,0,0,-1,0
1470330797087071,-7,-7,8,-5,-3,-2,-2,-4
1470330797087071,4,5,21,11,2,-1,-1,-3
1470330797108105,1,1,-5,1,-2,-1,-1,-2
1470330797108105,6,-1,-7,-6,-1,-2,-1,0
1470330797109639,-1,-1,-8,-4,-2,-1,-1,-1
1470330797109639,-14,-6,-11,-10,-2,-2,-3,-4
1470330797121656,3,3,6,4,-1,0,-2,-2
1470330797121656,5,-2,3,2,-1,-2,-1,-1
1470330797130609,-5,1,-1,0,-3,-3,-1,-1
1470330797130609,1,-10,-29,-14,-1,-1,-1,-1
1470330797145622,-10,3,20,8,0,0,-1,-1
1470330797145622,4,-4,3,5,-1,-2,-1,-3
1470330797147130,-5,2,4,0,-2,-1,-1,-3
1470330797147130,2,-3,-8,-3,-2,0,0,1
1470330797168142,4,-2,-13,-3,-2,-2,-1,-1
1470330797168142,-1,2,10,4,1,-1,-3,-6
1470330797169644,6,1,6,-2,1,1,2,3
1470330797169644,6,-5,-11,-2,0,0,-2,0
1470330797181730,-11,-3,-3,-4,-2,-2,-1,0
1470330797181730,0,-3,-8,-3,-1,-4,-1,-1
1470330797190662,-4,2,15,3,-4,1,-5,-3
1470330797190662,-5,3,-7,-2,0,1,6,5
1470330797205676,4,-2,11,0,-2,-3,-4,-12
1470330797205676,0,-5,-10,-3,1,0,1,2
1470330797207276,0,4,-6,-4,-2,-2,-5,-3
1470330797207276,-4,1,0,-2,0,0,4,-1
1470330797228305,-3,-7,-8,-2,-2,-2,-2,2
1470330797228305,-4,-1,12,3,-2,-2,-2,1
1470330797229724,-3,1,-6,-1,-1,-1,4,-1
1470330797229724,8,3,0,-2,-1,2,3,1
1470330797241753,3,-2,-11,-4,-1,1,-6,0
1470330797241753,-27,-4,11,5,0,-1,-2,-4
1470330797250716,7,-1,-8,-2,0,1,0,0
1470330797250716,-3,-3,7,2,-1,-1,0,-1
1470330797265731,10,1,1,-3,-1,0,1,0
1470330797265731,-2,-3,-15,-4,0,-4,-2,-1
1470330797267231,-6,-4,11,3,-2,2,-1,0
1470330797267231,7,-4,0,4,2,-3,-3,-2
1470330797288284,-4,-3,-6,-1,-1,0,0,-2
1470330797288284,-1,9,0,-1,-4,1,-1,-1
1470330797294255,-1,-6,-4,0,0,-3,0,-2
1470330797294255,0,-1,10,-2,-1,-1,-5,-1
1470330797301767,-6,-2,-4,-3,-2,-3,0,1
1470330797301767,4,0,4,-2,1,3,3,0
1470330797310770,1,-4,-6,1,0,-3,1,2
1470330797310770,6,4,1,-1,-2,-2,-2,-2
1470330797324783,-17,0,-2,-2,1,-2,-2,-3
1470330797324783,3,-1,15,1,-3,-1,0,1
1470330797332808,4,-2,-14,-5,-1,0,-3,-1
1470330797332808,-5,-4,-3,-4,-1,-2,-3,-3
1470330797347805,1,0,1,0,-1,-1,2,-1
1470330797347805,5,-2,-7,-2,-1,-1,-3,0
1470330797349305,-11,2,-1,-2,-2,-2,0,-3
1470330797349305,5,-2,-3,-6,-2,-1,-4,-3
1470330797369824,-3,0,1,1,0,0,2,-1
1470330797369824,1,0,11,4,-2,-2,-1,-2
1470330797377832,4,-3,0,1,1,-3,-1,1
1470330797377832,-6,2,-8,-3,-1,0,0,0
1470330797386339,3,-2,-10,-2,-2,-2,-1,-1
1470330797386339,0,-1,-3,2,0,-2,-1,-1
1470330797387841,-6,-4,-1,-1,-3,-1,-1,-1
1470330797387841,-1,-3,-8,-9,-1,0,-2,-4
1470330797407859,4,6,18,6,-1,0,-2,3
1470330797407859,-2,-5,-7,7,-3,-3,-2,-1
1470330797409361,-1,-5,-7,-18,-5,-3,-2,-1
1470330797409361,-5,-2,0,1,0,-2,-3,0
1470330797430404,1,-1,-5,-3,0,2,-1,-1
1470330797430404,2,-4,-6,-2,0,-2,1,-4
1470330797431880,-2,5,11,0,-2,-1,-3,-3
1470330797431880,-2,1,10,12,3,1,1,2
1470330797445424,-5,-4,-14,0,-1,-2,-1,0
1470330797445424,1,-4,-8,-6,1,0,-2,-4
1470330797447000,0,-2,0,-7,-2,-2,-2,-2
1470330797447000,-1,2,0,-2,0,0,0,0
1470330797467914,-1,3,10,12,-1,-2,0,0
1470330797467914,-5,-2,-6,-5,-1,-1,-1,-2
1470330797469413,2,0,6,13,3,0,0,-1
1470330797469413,-1,-3,-18,-16,-5,-1,0,2
1470330797490460,-1,-1,-4,-15,-2,-3,-1,-4
1470330797490460,2,3,3,0,-1,-1,0,-1
1470330797491933,-4,2,15,4,0,-1,-1,0
1470330797491933,1,-4,2,13,1,0,-2,0
1470330797505000,1,-2,-11,-12,-3,-1,-1,-1
1470330797505000,-3,-2,-2,-9,-2,0,-1,-4
1470330797511493,3,0,-1,9,2,0,0,2
1470330797511493,-6,0,11,1,-2,0,-2,-3
1470330797527972,-2,5,-5,2,-1,0,-2,0
1470330797527972,-1,-5,-11,-5,-1,2,0,2
1470330797529498,2,4,5,1,1,0,-2,-4
1470330797529498,-15,-3,-7,-1,-3,-2,-1,-1
1470330797550535,10,2,6,3,0,0,-4,1
1470330797550535,-4,-2,-8,-5,-1,-1,1,-2
1470330797551990,0,-3,-13,-9,-1,0,1,-1
1470330797551990,0,-3,2,-3,-1,-3,-2,-2
1470330797564998,-7,-6,1,6,2,0,-1,-3
1470330797564998,-2,5,20,8,-1,1,-2,0
1470330797571518,2,-1,-5,-6,0,1,-2,1
1470330797571518,4,-1,-4,0,-2,-2,-2,-1
1470330797588021,-6,-2,0,-4,-1,-2,0,0
1470330797588021,-5,-2,-9,3,1,-1,0,-2
1470330797589521,4,-2,-9,-10,-5,-1,0,0
1470330797589521,4,-1,15,8,-2,2,-1,-1
1470330797610595,-11,-3,-16,1,-2,0,0,-2
1470330797610595,6,3,10,0,-1,-1,-1,3
1470330797612103,-5,-4,-7,-3,-1,-2,-1,-1
1470330797612103,-3,-3,-11,-3,-2,-1,-1,-4
1470330797624556,5,0,20,-1,0,-1,-1,0
1470330797624556,1,-2,-6,-1,0,-1,1,1
1470330797631561,-5,2,-7,0,0,0,-1,0
1470330797631561,2,1,-8,-7,-2,-1,-1,-1
1470330797648100,0,0,18,2,-1,-1,-1,-4
1470330797648100,3,2,-2,-3,-2,-1,-1,0
1470330797649619,0,0,0,4,0,0,0,-1
1470330797649619,-1,0,-5,-4,-1,0,-2,-1
1470330797669629,-11,-6,-1,1,0,-1,-2,-2
1470330797669629,-1,2,-2,1,-2,-1,0,-2
1470330797678100,-6,-1,9,6,-2,-2,-1,-5
1470330797678100,12,0,-11,-11,-2,0,0,3
1470330797684619,1,-2,-15,-9,-3,-2,-1,-2
1470330797684619,-4,1,5,1,0,0,-2,-2
1470330797691625,-3,0,3,1,0,0,-2,-1
1470330797691625,-10,-3,7,-2,-1,0,-1,-4
1470330797708127,1,-2,-4,4,-1,-2,0,-1
1470330797708127,2,-1,-6,-9,-3,-2,-1,-1
1470330797709678,4,-3,-6,4,0,-2,-1,2
1470330797709678,-6,1,11,3,-2,-1,-1,-2
1470330797730648,0,-1,-10,-9,-2,0,-1,0
1470330797730648,-4,-1,6,5,-2,0,-2,-2
1470330797732148,4,-2,-7,-3,1,-3,-1,-2
1470330797732148,-5,0,-1,-4,-1,0,0,3
1470330797744677,-2,-3,11,5,1,-1,-1,1
1470330797744677,8,-1,-5,5,1,0,-1,-1
1470330797751671,-10,-2,-7,-6,-3,-3,-1,-6
1470330797751671,-10,-2,9,4,-1,-1,-2,-6
1470330797767680,2,0,-3,-4,-2,-1,-1,0
1470330797767680,5,3,2,-2,-3,-3,-3,2
1470330797769682,-2,-5,2,1,0,0,1,1
1470330797769682,5,0,-17,-3,-1,-3,-3,-3
1470330797790200,-5,-6,5,-2,-3,-2,4,1
1470330797790200,4,-3,12,4,-2,-1,-4,-1
1470330797792203,-4,7,-1,-1,1,1,1,2
1470330797792203,-19,-13,-6,-2,-1,-1,-3,-9
1470330797804213,9,3,0,3,-1,-1,-2,-1
1470330797804213,-16,-9,-1,-4,-2,-1,3,0
1470330797813221,16,-3,0,-2,-2,-3,-2,4
1470330797813221,3,11,2,2,0,-5,0,2
1470330797827748,-6,0,-3,-2,-1,4,-1,-5
1470330797827748,-2,-1,-3,-5,-2,-4,3,4
1470330797829235,1,-3,-14,0,1,4,5,4
1470330797829235,0,3,11,4,-3,-2,-3,-1
1470330797850254,4,1,-4,-3,0,-3,-3,-1
1470330797850254,-3,-2,-8,-5,-1,-2,-3,-2
1470330797852256,-19,-7,2,-3,-3,-3,-3,-4
1470330797852256,9,-2,4,4,-1,-1,-2,1
1470330797864267,1,2,0,0,-2,-1,-1,3
1470330797864267,-1,0,-6,-2,-2,1,-2,-3
1470330797880282,3,-1,2,-2,-2,-2,-3,-5
1470330797880282,-2,-6,-5,-2,-1,0,1,-1
1470330797887791,-4,0,-3,0,0,1,-2,0
1470330797887791,-3,-1,-2,-2,-2,-2,-2,0
1470330797889290,4,-4,-1,-1,0,-1,-3,-4
1470330797889290,-6,2,-2,-3,-2,0,-1,-1
1470330797909808,3,0,6,-1,0,0,-1,-2
1470330797909808,-3,0,-3,-2,2,-2,-1,-1
1470330797917817,1,3,12,6,0,0,0,-1
1470330797917817,1,-3,-4,-3,-1,-2,-1,-1
1470330797932830,-2,-3,-9,0,-1,-1,-1,-2
1470330797932830,-5,-4,-2,-5,-1,-2,-2,-1
1470330797934330,-3,3,0,-3,-3,-2,-4,0
1470330797934330,1,-1,-2,-2,-1,0,-1,3
1470330797948390,-1,-4,-4,-2,0,0,0,-1
1470330797948390,1,0,7,0,-2,-1,0,-2
1470330797949937,6,2,-2,8,-1,-2,-1,0
1470330797949937,-13,-2,-6,-7,-1,-2,-1,3
1470330797970445,3,0,6,0,-3,-1,-3,-4
1470330797970445,4,1,-4,-5,0,-1,1,0
1470330797971864,-5,-2,-2,2,-2,-1,-3,0
1470330797971864,7,0,-2,-3,-1,-1,0,1
1470330797984409,-2,-4,-15,-3,-2,-2,-1,1
1470330797984409,-3,-1,17,10,0,0,-2,-2
1470330797992885,0,3,15,2,0,0,-1,-1
1470330797992885,1,-1,-9,-15,-2,-2,0,-2
1470330798007898,-5,-3,-3,-5,-1,-1,-3,-2
1470330798007898,-1,0,-2,5,1,1,-3,-2
1470330798009398,-3,-3,-10,-14,-1,-2,0,-3
1470330798009398,3,-4,7,12,-1,-1,-3,1
1470330798030433,3,2,-7,-5,-2,-1,2,0
1470330798030433,-8,-4,-4,-14,-3,-3,-3,-4
1470330798031918,-2,1,-2,6,1,-2,-1,-2
1470330798031918,2,-1,0,2,1,0,0,-1
1470330798043931,0,0,3,1,0,-1,-1,0
1470330798043931,-1,0,-3,6,-3,-2,-1,0
1470330798052937,-3,-2,-1,-8,-3,1,-2,0
1470330798052937,1,-3,-3,6,-1,-3,0,-3
1470330798067999,-1,-4,-1,-1,1,-1,0,-1
1470330798067999,-1,5,4,0,-1,-1,-2,0
1470330798069451,5,-3,-9,-12,-2,-1,0,1
1470330798069451,-4,-4,-4,6,0,0,-1,-3
1470330798090513,-6,-3,0,0,0,-3,-2,-3
1470330798090513,8,-3,-4,-2,-1,-2,-1,-1
1470330798091972,-9,1,5,4,1,1,0,-2
1470330798091972,-1,-1,-1,8,1,0,-1,0
1470330798103985,3,3,4,-10,-3,0,-2,-2
1470330798103985,0,-1,1,4,-2,-1,-2,-2
1470330798112997,3,-3,-2,13,0,-1,-1,-1
1470330798112997,-6,0,-14,-23,-2,-1,0,-3
1470330798128040,-7,-4,2,6,0,1,-1,1
1470330798128040,2,-2,-2,-4,1,-1,1,1
1470330798129507,-1,3,9,9,1,0,-1,0
1470330798129507,0,-5,2,4,-3,-1,0,-1
1470330798150617,8,2,-12,-12,-2,0,0,-2
1470330798150617,-4,-4,1,0,-1,-1,-2,-1
1470330798152026,-1,-2,5,-5,-3,-2,-2,-1
1470330798152026,2,-4,-10,-3,-2,-1,-1,2
1470330798173105,1,2,18,6,-1,-4,0,2
1470330798173105,-20,-4,-11,-5,0,1,0,-3
1470330798174571,2,-3,-9,-7,-1,-1,-3,-3
1470330798174571,10,6,10,6,-1,-1,-2,-2
1470330798195601,-12,-4,-7,-5,-3,1,-3,-2
1470330798195601,13,1,8,5,0,-2,-1,1
1470330798197102,-4,-3,1,1,-2,-1,-1,-1
1470330798197102,-7,5,-2,-4,-1,-2,-1,-1
1470330798210578,1,-3,-9,3,0,1,0,0
1470330798210578,-8,2,4,0,-2,-2,0,-4
1470330798212093,6,-4,-10,-6,-1,0,-1,0
1470330798212093,-3,1,3,1,1,1,0,-2
1470330798224095,-1,2,2,0,-1,-2,1,0
1470330798224095,-6,-2,-16,-11,-1,0,-1,-9
1470330798233098,0,-4,-2,2,-2,-3,-1,-2
1470330798233098,-4,-1,12,2,1,0,-2,2
1470330798248142,-1,2,-6,-4,0,-2,0,1
1470330798248142,1,1,-5,-2,-1,-1,-1,-2
1470330798249628,-7,0,0,-3,-3,-2,-1,-4
1470330798249628,6,-3,4,3,-1,-2,0,-2
1470330798270632,1,1,14,6,-3,1,-2,5
1470330798270632,2,-1,-12,-5,0,0,-1,2
1470330798272135,-9,-2,-7,-3,0,-2,1,-4
1470330798272135,-4,-4,-4,-4,-1,-2,-3,-2
1470330798293158,-1,-3,-10,-5,-2,-1,-3,-1
1470330798293158,10,0,7,2,-1,-1,0,2
1470330798294687,-14,-3,-5,-1,-1,-1,-3,-1
1470330798294687,1,3,-1,-3,-3,-1,0,-1
1470330798307700,3,2,5,3,0,-2,-1,0
1470330798307700,1,-4,0,1,-2,0,-1,0
1470330798314218,-8,0,-8,-6,0,-1,-2,-1
1470330798314218,0,-3,7,2,-3,-1,1,-2
1470330798330686,-4,-2,-5,-3,0,-2,-2,-3
1470330798330686,2,-1,-8,-4,0,0,-1,-1
1470330798332188,5,4,16,3,-1,0,-1,-2
1470330798332188,-2,-5,-28,-8,-2,0,4,1
1470330798353228,0,0,30,5,1,-4,3,2
1470330798353228,1,3,-3,0,-3,-3,-5,-2
1470330798354708,3,-5,-5,-2,-3,0,-1,-1
1470330798354708,-2,-5,-14,-4,-2,1,-3,0
1470330798368220,-8,-1,11,1,-1,-3,-1,-5
1470330798368220,-3,-5,6,5,-1,-1,1,4
1470330798369721,14,9,-1,0,-1,0,-2,1
1470330798369721,4,-1,0,-5,-2,-1,-8,-5
1470330798390744,4,-4,-7,-3,-2,0,2,2
1470330798390744,-18,-9,-8,-2,0,-2,-2,-4
1470330798392243,3,-1,5,0,0,-1,1,2
1470330798392243,-3,2,2,-1,0,1,0,2
1470330798413261,-2,-3,1,2,-2,0,-2,-1
1470330798413261,0,0,-3,0,-1,-1,0,3
1470330798414762,-4,-3,-12,-5,0,-2,0,-2
1470330798414762,-4,4,21,5,1,-2,-1,-2
1470330798427273,3,1,-12,-3,-3,-3,-1,-1
1470330798427273,0,-1,-4,-4,-1,1,0,-2
1470330798434279,-3,-5,-1,-2,-2,0,0,-2
1470330798434279,5,0,4,0,-2,-1,2,0
1470330798450307,-3,-1,-17,2,0,-2,-3,-2
1470330798450307,-3,2,8,-3,1,-1,-2,-1
1470330798451796,9,2,10,5,0,-2,0,0
1470330798451796,-8,-1,-1,-5,-2,0,0,-2
1470330798472814,0,-3,-8,4,-3,1,-1,-1
1470330798472814,0,0,-7,-13,-3,-2,-1,-3
1470330798474316,3,2,2,-3,0,0,0,1
1470330798474316,0,-4,-4,4,3,0,-1,0
1470330798487342,-3,-2,-5,-11,-4,0,-2,-5
1470330798487342,0,-1,2,4,0,-1,0,1
1470330798494374,2,3,8,3,-2,-1,-1,2
1470330798494374,-13,-4,0,-6,-1,-2,-1,-3
1470330798510349,0,0,1,7,1,0,-2,-3
1470330798510349,3,-3,3,-5,-2,-1,-2,2
1470330798511849,-3,-4,-7,-3,0,-2,-2,-3
1470330798511849,3,0,6,11,-1,-2,-1,-2
1470330798532868,-5,-3,-7,-7,1,-2,-2,0
1470330798532868,1,-2,2,1,-2,-1,-1,6
1470330798534369,2,1,8,6,-1,-2,1,0
1470330798534369,-6,-5,-10,-7,-2,1,-2,-1
1470330798547381,4,8,6,0,-3,-2,-2,3
1470330798547381,-14,-8,-11,2,-2,-3,-6,-17
1470330798554391,-5,-4,-13,-8,-3,0,2,6
1470330798554391,5,0,3,-1,-2,1,0,3
1470330798570418,6,-3,-8,0,0,0,-4,-5
1470330798570418,6,3,6,3,1,-1,-2,-2
1470330798571904,2,-2,4,1,0,1,-1,1
1470330798571904,-11,-1,3,-2,-2,0,2,-6
1470330798592923,-11,-7,-8,-7,-1,0,-2,-18
1470330798592923,1,4,-5,-1,-2,0,0,6
1470330798594424,-4,-4,-6,-2,0,-3,-5,-5
1470330798594424,12,1,-16,1,0,0,0,7
1470330798607456,-2,-10,19,1,0,-1,0,6
1470330798607456,5,7,-5,-3,-2,-1,-2,-7
1470330798613943,-9,-5,-36,-13,-2,-3,-2,-12
1470330798613943,20,2,24,0,-4,-3,-2,9
1470330798630516,-15,1,4,6,0,5,3,-4
1470330798630516,7,-7,10,6,0,-1,0,-4
1470330798631956,-7,5,3,-1,-1,-2,0,3
1470330798631956,0,-4,-22,-2,1,-4,2,-6
1470330798652976,11,8,0,-5,-2,-1,-5,-1
1470330798652976,-1,-2,6,1,0,0,1,9
1470330798654477,-11,-4,-1,-2,0,-1,-4,-11
1470330798654477,-14,-7,-10,-2,0,0,-4,-7
1470330798667488,15,5,3,-1,-1,-2,6,11
1470330798667488,-4,4,-1,-1,-2,-2,-3,-2
1470330798673994,5,1,-3,0,0,-1,1,-1
1470330798673994,-4,0,5,1,-1,-2,0,4
1470330798690509,-4,0,6,3,1,-1,-1,-4
1470330798690509,-5,-2,-1,-3,-1,-3,-2,-3
1470330798692013,-2,-7,-8,-8,-2,-2,0,5
1470330798692013,0,3,3,1,-2,0,-2,-2
1470330798713062,-3,-6,-10,-3,-3,-3,-2,-2
1470330798713062,0,-1,6,0,-1,0,3,3
1470330798714533,0,1,11,2,-2,-2,-2,1
1470330798714533,-3,-3,-1,3,-1,-4,-4,-3
1470330798727543,-2,0,-14,-12,-2,-3,-4,-5
1470330798727543,0,-1,-7,-1,3,1,2,2
1470330798734075,2,-1,4,2,-4,1,-2,-1
1470330798734075,2,9,7,1,0,0,-1,-3
1470330798750564,-5,-9,-5,6,-1,-1,-1,3
1470330798750564,2,2,3,-6,-3,-1,0,-1
1470330798752066,-11,-2,-1,2,1,3,2,0
1470330798752066,2,-4,-3,-7,-4,-2,-2,1
1470330798773084,1,2,-3,1,0,-1,-1,0
1470330798773084,2,0,0,2,0,-2,-1,-3
1470330798774586,3,-3,-5,-8,-2,-3,0,3
1470330798774586,-6,-3,8,4,-2,-2,-1,-5
1470330798787144,-3,-2,-11,-13,-3,0,-1,-1
1470330798787144,1,-3,4,2,-1,-1,0,-1
1470330798796105,4,3,1,3,-1,1,1,11
1470330798796105,-3,-3,-8,-1,0,-2,-1,-12
1470330798810117,4,-1,4,0,0,-2,-1,6
1470330798810117,-10,-2,-2,2,-2,-1,-1,-4
1470330798810619,2,-3,1,-4,-1,-1,-2,-4
1470330798810619,1,1,2,8,-1,-1,-1,2
1470330798832644,3,-4,-11,-19,-2,-2,0,7
1470330798832644,-7,2,-1,-3,1,1,-2,-12
1470330798833137,4,2,0,10,-2,-1,0,2
1470330798833137,-5,-5,-7,-14,-2,-1,-1,-5
1470330798855659,-2,2,8,10,0,-4,0,-3
1470330798855659,9,1,-11,-4,-3,-1,-1,0
1470330798856158,0,-3,9,2,0,-2,-3,-6
1470330798856158,1,-1,-14,-7,1,0,0,-1
1470330798870170,2,-1,10,5,-3,0,0,9
1470330798870170,-22,-3,3,1,1,-3,-1,-1
1470330798870671,12,6,2,6,0,1,-3,-9
1470330798870671,-6,-6,-16,-24,-6,-3,-1,7
1470330798892191,-14,2,4,6,0,0,-1,-5
1470330798892191,12,6,-7,-1,0,-1,0,6
1470330798893191,1,-8,1,-1,-1,-3,2,5
1470330798893191,7,4,8,6,0,-2,-9,-8
1470330798915768,-5,-7,-7,-1,-2,-1,-3,-7
1470330798915768,-9,-3,-4,-4,-2,-1,1,2
1470330798916222,-7,0,-6,-7,-2,-2,1,-11
1470330798916222,11,-2,13,2,-2,-2,3,9
1470330798929774,-3,0,-5,-1,-1,-2,-3,-11
1470330798929774,-10,0,-6,1,-1,1,-5,-6
1470330798930725,3,-1,5,-1,-1,-3,0,3
1470330798930725,7,1,-1,2,0,-2,2,6
1470330798952246,2,8,5,4,2,6,-1,-4
1470330798952246,-1,-6,-11,-8,-3,-1,0,0
1470330798953245,-7,-2,-5,-5,-1,-2,-2,-2
1470330798953245,-9,-7,5,1,0,-1,-4,-16
1470330798975266,8,-1,-24,-5,-3,-7,0,0
1470330798975266,3,1,21,3,-4,2,0,2
1470330798976270,8,4,-3,3,2,0,-1,3
1470330798976270,-13,-1,-4,2,-1,1,1,2
1470330798989811,-4,-8,-12,-4,-1,-1,-2,-1
1470330798989811,6,-1,-6,-3,-2,-2,-2,-1
1470330798990294,-9,1,4,0,-1,0,0,-2
1470330798990294,-3,-3,-8,-4,1,2,-1,1
1470330799012357,-1,2,16,5,-1,-1,0,0
1470330799012357,2,-4,-7,-1,0,-2,-2,-6
1470330799012834,-7,-2,-11,-4,0,0,-1,-2
1470330799012834,5,1,19,9,0,-2,1,0
1470330799035352,-1,0,4,2,1,0,-3,7
1470330799035352,-14,-12,-18,-11,-1,-2,-3,-12
1470330799035854,-5,1,1,-6,-3,-3,-3,-2
1470330799035854,-4,-3,-3,1,0,2,0,1
1470330799049865,7,1,12,7,-1,-3,-4,-13
1470330799049865,-2,0,2,2,-2,2,1,4
1470330799050366,-2,-3,-9,-5,-2,-1,-1,-2
1470330799050366,-4,1,4,-5,-3,-4,-1,-1
1470330799072386,3,-4,12,-1,-2,-3,-2,2
1470330799072386,1,4,-5,0,2,-1,0,2
1470330799072887,-9,-5,-12,-5,-2,0,-6,-12
1470330799072887,3,1,6,3,1,0,-1,4
1470330799095407,-3,-5,-12,-6,0,-2,-1,-4
1470330799095407,2,0,10,-1,-3,-4,-2,1
1470330799096408,1,-4,5,6,0,2,2,5
1470330799096408,-2,7,-8,-5,-2,1,-1,0
1470330799109932,-6,-3,-7,-5,0,0,-3,-10
1470330799109932,-2,-4,0,3,1,-1,2,1
1470330799110420,2,-1,1,-3,-2,-1,-2,1
1470330799110420,0,-6,-10,-3,0,0,0,-2
1470330799132440,-5,2,7,4,-1,1,0,6
1470330799132440,5,4,5,-3,-3,-3,-2,-7
1470330799132940,-1,1,0,2,1,-3,-1,1
1470330799132940,-4,-7,-16,-4,0,-2,-2,-4
1470330799156510,0,-4,12,-5,-3,-3,-1,4
1470330799156510,-5,0,-6,3,1,6,-1,-4
1470330799156963,3,-5,-3,-6,-2,-2,-1,0
1470330799156963,3,1,-3,-1,0,-1,0,1
1470330799169972,-5,-1,-9,-2,0,1,2,3
1470330799169972,-1,-3,10,-1,-2,-5,-3,-5
1470330799170475,-2,-2,-3,0,1,-3,-3,-5
1470330799170475,-2,-2,2,1,1,1,-2,-1
1470330799192583,2,0,-3,3,2,-2,1,-3
1470330799192583,2,-3,-3,-4,-3,-2,0,4
1470330799192994,0,2,-1,1,-2,2,1,2
1470330799192994,2,-1,-1,-5,-3,-2,-1,2
1470330799215539,-10,0,4,5,0,0,-3,-18
1470330799215539,11,-2,-5,5,0,0,-2,7
1470330799216556,-2,-6,-15,-26,-7,-3,-4,-7
1470330799216556,-8,4,10,5,-1,-1,-1,-1
1470330799230026,6,-2,-6,-4,-1,1,0,4
1470330799230026,1,2,4,3,-1,-1,2,2
1470330799230574,0,-2,5,11,3,0,1,-2
1470330799230574,1,-1,-7,-8,-3,-1,-1,-1
1470330799252547,0,-3,-13,-13,-3,0,-1,1
1470330799252547,-7,0,-6,-3,0,-3,-4,-3
1470330799253048,0,-2,10,4,-2,0,-1,5
1470330799253048,-2,0,-2,1,1,-1,0,-5
1470330799275568,1,2,8,4,0,0,0,2
1470330799275568,2,-3,-13,-10,-1,-1,-4,-1
1470330799276109,-8,1,3,-3,-1,-1,-1,-4
1470330799276109,-6,-5,-4,7,-1,-1,-1,0
1470330799290196,6,1,-1,4,-1,-3,-1,-5
1470330799290196,-5,-1,6,-3,-1,0,-1,-1
1470330799290581,-6,1,2,2,-3,-5,-2,-2
1470330799290581,7,0,-2,7,1,1,0,1
1470330799312105,5,-2,-5,-22,-3,1,-1,2
1470330799312105,-3,-1,3,6,2,0,0,0
1470330799320108,-2,-1,1,1,0,-1,-4,-4
1470330799320108,2,-3,-13,4,-1,-4,-1,-1
1470330799334622,-19,-4,-14,-12,-3,-4,-3,0
1470330799334622,13,1,22,8,-3,1,2,2
1470330799335622,8,-2,19,13,0,-1,-2,-1
1470330799335622,4,0,-1,-5,-1,-2,-2,-8
1470330799350200,2,-5,-13,3,-1,1,0,-3
1470330799350200,-11,1,-11,-9,-3,-2,0,-11
1470330799350636,3,-3,-13,-5,-3,-1,-3,3
1470330799350636,-10,-2,3,-5,-3,-2,-3,-5
1470330799372163,4,1,0,4,0,-4,0,2
1470330799372163,4,1,9,2,1,1,0,-3
1470330799373184,5,1,-5,3,-2,1,-1,9
1470330799373184,-19,-6,-7,-2,0,0,-3,-15
1470330799395770,-2,3,24,2,0,0,0,6
1470330799395770,9,-2,-12,3,-3,-2,0,-8
1470330799396178,6,2,-1,-9,-1,-2,2,0
1470330799396178,1,2,-3,-4,-2,-2,0,2
1470330799410191,-20,-7,-4,5,-2,-1,1,5
1470330799410191,10,-1,-2,-3,0,0,-3,-6
1470330799410689,-28,-4,7,-1,0,-1,1,-3
1470330799410689,12,5,0,-1,0,0,1,5
1470330799432251,18,-1,-2,0,-1,-1,-2,-7
1470330799432251,-20,-3,18,1,-1,-4,-5,9
1470330799433209,-17,-4,-14,-6,-2,-2,-3,-11
1470330799433209,1,-2,22,1,-1,-2,-2,10
1470330799455729,15,2,-12,-1,-1,1,-4,-17
1470330799455729,2,-1,-19,-9,-2,-2,3,14
1470330799456230,0,-1,-6,7,-1,0,0,-8
1470330799456230,-4,-4,-21,-10,-1,-1,-1,0
1470330799470242,11,8,48,11,0,0,-1,5
1470330799470242,-2,-2,-12,1,1,-1,-2,-3
1470330799470242,-10,-2,-14,-2,0,-1,0,4
1470330799470242,3,-2,-3,-8,-3,-1,1,3
1470330799492297,3,-1,-11,-3,1,-4,-2,-7
1470330799492297,-20,-4,5,-1,0,4,1,-1
1470330799493267,23,4,-4,-4,-2,0,1,9
1470330799493267,1,-2,13,-1,-2,-2,-2,-5
1470330799515313,-3,0,-10,2,0,0,7,6
1470330799515313,-3,-4,-1,-2,-2,-2,-1,1
1470330799516298,5,4,-1,0,-2,0,1,-1
1470330799516298,-8,-1,6,-2,-2,-1,-1,-1
1470330799529844,-2,-3,-7,-3,0,-2,-1,7
1470330799529844,6,-2,-9,-1,-2,-4,-4,-14
1470330799530339,-5,-5,6,-4,-1,2,-1,-1
1470330799530339,4,2,-2,2,2,0,-1,-2
1470330799552317,-5,-6,0,4,-4,-2,0,3
1470330799552317,2,1,12,6,0,-1,0,5
1470330799552817,3,-7,-11,-5,-2,-3,-4,-3
1470330799552817,0,3,8,4,1,0,1,1
1470330799575837,-11,-4,-8,-4,-2,-1,-1,-4
1470330799575837,3,0,-7,-7,-2,-2,0,1
1470330799576338,2,2,15,9,1,-1,1,0
1470330799576338,7,-6,-35,-6,-2,-1,-2,-6
1470330799589877,-3,0,22,-3,0,-1,-3,0
1470330799589877,1,3,15,11,-1,-3,0,9
1470330799590350,-5,0,-12,-6,-1,0,0,-8
1470330799590350,0,2,2,-3,0,-1,-1,2
1470330799612370,-5,-1,-11,3,-3,0,0,0
1470330799612370,1,-2,-7,-8,-3,-1,-4,-1
1470330799612871,6,0,12,4,-1,-2,-5,0
1470330799612871,-10,-3,-24,-14,-2,0,2,2
1470330799635425,-1,1,8,-2,-3,-2,-4,-1
1470330799635425,6,-2,3,-1,-2,-3,0,-1
1470330799636398,-2,4,-11,-1,1,0,2,-1
1470330799636398,-1,-1,16,10,0,-3,-1,0
1470330799649954,0,-11,-3,-8,-1,0,-1,-1
1470330799649954,-8,3,2,-2,-2,-1,-4,-6
1470330799650407,-1,-4,-4,-7,-2,0,-1,-1
1470330799650407,14,-4,7,7,-1,-1,-2,2
1470330799672425,-2,2,-5,-5,-2,-1,-1,5
1470330799672425,-16,-2,-19,-4,-2,-2,-5,-18
1470330799672924,7,-2,2,-7,-4,-3,1,-1
1470330799672924,-7,-5,0,1,-2,-1,-1,3
1470330799695462,7,4,-7,-1,0,-1,-2,-9
1470330799695462,-2,-3,6,1,0,-1,1,4
1470330799696471,-2,-3,3,0,-2,-2,0,4
1470330799696471,-18,-7,-3,-1,0,0,-2,-8
1470330799709959,7,-3,-20,-6,-2,1,-3,3
1470330799709959,6,15,13,2,0,-1,1,0
1470330799710458,-16,-18,24,-4,-1,-2,-2,-2
1470330799710458,20,14,4,9,2,-1,-5,-10
1470330799732480,-33,-2,-12,-13,-4,0,-1,-5
1470330799732480,10,-7,-4,2,3,1,0,3
1470330799732980,-9,1,-51,-19,0,0,1,4
1470330799732980,2,6,59,-1,-5,-2,-1,-2
1470330799755499,-8,-12,-29,6,-2,-4,-3,-4
1470330799755499,3,-3,21,4,3,0,0,-1
1470330799756501,8,9,3,12,-1,-3,-1,3
1470330799756501,-6,-14,-45,-16,1,-1,-2,-1
1470330799770015,1,16,14,4,-3,-3,-2,-3
1470330799770015,-10,-11,-14,-8,-2,0,0,2
1470330799770513,7,0,-8,-1,-1,-1,-2,-1
1470330799770513,-4,11,16,0,-1,2,1,-1
1470330799792536,-1,-10,-11,2,3,0,2,0
1470330799792536,-3,-13,-5,-7,-6,0,-3,-3
1470330799793034,2,12,31,10,1,2,-1,-2
1470330799793034,-1,-5,-10,-2,-1,-2,0,1
1470330799815553,1,-3,7,0,2,2,-1,0
1470330799815553,-3,1,3,0,1,-1,1,-2
1470330799816559,-6,-5,-13,-3,-4,-2,0,-4
1470330799816559,0,-4,-1,-4,-3,-2,0,4
1470330799829092,6,-11,-12,-2,1,-2,0,0
1470330799829092,1,4,15,10,2,-1,-1,0
1470330799837572,-10,-1,9,-1,-2,-1,0,2
1470330799837572,-1,0,-15,6,1,-1,-3,-11
1470330799852586,6,0,17,0,-3,0,1,4
1470330799852586,0,-2,-25,-16,-5,-4,0,-2
1470330799853093,3,1,-4,0,-1,0,-1,-2
1470330799853093,-7,3,9,2,2,-2,2,2
1470330799875612,0,0,-1,5,-1,1,0,-2
1470330799875612,4,3,4,-5,-1,0,-1,5
1470330799876107,1,-1,9,3,-1,0,-2,-2
1470330799876107,-3,-2,-9,-1,-2,-1,-2,-1
1470330799889120,-10,5,-3,-4,-2,-1,-2,-4
1470330799889120,3,-1,4,2,-1,-3,-2,0
1470330799897126,-2,3,-2,-2,0,-1,0,-1
1470330799897126,0,-2,5,4,-2,-1,-1,-1
1470330799912656,-1,-5,-13,-4,-2,-4,-2,0
1470330799912656,1,-3,5,-6,-1,-2,0,1
1470330799913140,5,-4,11,-1,-1,-2,-3,-3
1470330799913140,-6,0,-17,-1,-2,0,0,-1
1470330799935661,2,-1,9,6,0,0,1,2
1470330799935661,-8,-1,-28,-10,-3,-1,0,1
1470330799936161,3,3,1,-2,-1,0,0,-5
1470330799936161,-6,-3,8,0,-1,-2,-1,2
1470330799949190,9,3,-7,-7,-3,-1,-2,3
1470330799949190,-4,1,7,3,-1,1,-1,-3
1470330799957687,-9,-5,10,3,-1,0,-1,-2
1470330799957687,10,-10,-7,-7,-1,0,-1,7
1470330799972223,-3,7,5,5,1,-1,-1,-5
1470330799972223,-5,18,5,1,-1,-2,-2,3
1470330799973195,2,-25,-19,-6,-1,-1,-2,-8
1470330799973195,-2,-2,6,1,-2,-2,-3,-6
1470330799995216,3,1,1,4,1,0,-1,0
1470330799995216,-8,-7,1,1,-2,0,-5,-6
1470330799996217,5,5,-8,-5,-3,-2,-1,5
1470330799996217,-5,4,-2,-6,-2,-3,-1,4
1470330800009226,-1,-3,-3,-5,0,-1,-2,-6
1470330800009226,6,-4,-5,3,1,0,1,0
1470330800017292,-8,-4,-8,2,1,-2,-3,-1
1470330800017292,2,-3,-2,-3,-4,-3,-2,6
1470330800032303,-2,5,22,4,-4,-1,-1,0
1470330800032303,-2,-5,-9,1,-1,-2,-1,0
1470330800033249,2,-4,-15,-1,-1,-1,-1,1
1470330800033249,0,13,22,-2,-2,0,0,-2
1470330800055303,-4,-3,-5,-2,1,0,-1,1
1470330800055303,-1,-11,-10,-2,-4,-3,-1,-4
1470330800056272,2,12,9,0,1,-1,1,1
1470330800056272,2,-2,-13,-7,-3,-2,-1,2
1470330800069283,-4,-6,-2,-1,-1,-5,-4,-9
1470330800069283,4,-5,5,7,1,2,-1,2
1470330800077319,-19,-1,-3,-4,-3,-2,-1,-5
1470330800077319,-1,-1,5,3,1,-1,1,-5
1470330800092377,3,3,6,-1,-1,-1,-1,5
1470330800092377,7,0,-15,-5,1,0,0,2
1470330800092803,-7,-2,8,0,-1,-2,-2,-7
1470330800092803,-3,-7,-6,-2,-1,0,-1,-1
1470330800115822,-1,-2,14,11,0,0,-1,-10
1470330800115822,-4,9,-7,-5,-1,0,0,-5
1470330800116324,1,-2,7,-4,-1,1,-2,-2
1470330800116324,1,-2,-3,0,1,-1,1,-1
1470330800138343,-2,-1,-9,-5,-2,0,1,4
1470330800138343,-2,3,17,6,0,-4,-1,0
1470330800138844,3,0,-10,-2,0,1,0,-1
1470330800138844,-10,-3,-19,-2,-1,0,-1,-1
1470330800152355,4,-6,15,-5,-1,-1,-3,-4
1470330800152355,-2,-1,-7,-4,-2,-1,-1,0
1470330800152857,2,1,15,9,0,-1,-3,3
1470330800152857,2,-6,-9,1,-2,-1,0,-3
1470330800175378,2,3,-8,-9,-3,1,-2,12
1470330800175378,-1,-7,-17,-5,-2,-1,-3,-8
1470330800176381,-4,-3,19,8,0,-1,0,2
1470330800176381,0,1,-6,-6,-2,0,-1,-1
1470330800197898,-3,1,-6,-5,-1,-1,1,5
1470330800197898,-1,-2,-6,-1,0,-1,1,1
1470330800198899,1,-1,-9,-8,-5,-2,0,1
1470330800198899,-2,0,9,-1,-1,0,-5,-6
1470330800212420,1,-1,-2,5,-1,-3,0,4
