timestamp,emg1,emg2,emg3,emg4,emg5,emg6,emg7,emg8
1470331891384228,-13,-12,3,-7,-7,-10,-23,-36
1470331891384228,49,25,6,-14,15,9,11,33
1470331891389733,30,-26,-14,-1,-15,4,33,34
1470331891389733,103,15,-29,29,17,-5,-18,-46
1470331891391734,-96,-25,22,-32,-7,1,4,18
1470331891391734,63,-4,18,31,20,8,10,63
1470331891392736,20,66,-11,-58,-5,-5,-28,-9
1470331891392736,-81,-40,-3,37,2,2,9,-11
1470331891394737,97,-4,10,8,-5,-9,-1,17
1470331891394737,-128,-15,12,-19,-15,-7,16,28
1470331891409751,30,26,-3,-35,-11,-12,-49,-74
1470331891409751,-7,12,23,-2,-6,0,-6,34
1470331891418759,-2,23,-14,-14,4,-1,7,15
1470331891418759,0,-7,-28,21,5,9,4,-25
1470331891424764,61,-6,26,20,-5,-1,34,90
1470331891424764,-54,-61,10,-33,-3,-3,-23,-77
1470331891440278,19,58,-7,34,3,-1,-10,12
1470331891440278,-75,34,12,-50,-19,-13,-9,-24
1470331891455291,5,5,-28,105,20,14,27,10
1470331891455291,96,39,15,-62,-7,-2,10,58
1470331891456292,-27,8,-36,21,4,5,2,-76
1470331891456292,1,-88,-11,16,-5,-17,-48,-85
1470331891493326,-39,80,0,-15,-6,-6,-1,-5
1470331891493326,85,21,-10,4,-3,-5,-18,32
1470331891501333,-22,-10,9,-6,-3,-1,-8,-77
1470331891501333,-52,24,8,5,5,10,20,6
1470331891502334,19,-23,-1,8,9,13,2,49
1470331891502334,-100,-34,9,-9,-2,-7,13,17
1470331891503835,58,3,-16,25,-1,3,3,16
1470331891503835,27,-13,-2,-17,-5,-4,-18,-33
1470331891514344,-8,36,18,44,17,1,5,-5
1470331891514344,-25,15,-17,-34,-14,-10,0,-39
1470331891523353,51,43,-37,1,-8,-5,-1,53
1470331891523353,-20,-33,9,27,17,7,15,-7
1470331891529358,-10,-18,-15,9,5,6,10,4
1470331891529358,24,10,13,-33,-10,-10,-16,-30
1470331891544373,-93,-61,-9,-18,-7,6,18,27
1470331891544373,67,54,0,-15,-20,-21,-23,-3
1470331891551878,15,16,3,1,5,7,8,-8
1470331891551878,14,-35,-8,-22,-9,-1,2,20
1470331891566892,-73,-17,11,2,2,-2,8,45
1470331891566892,-18,51,-10,6,4,-4,-33,-47
1470331891574399,22,-31,5,-5,-1,5,-8,-8
1470331891574399,11,18,2,5,-4,-13,-42,-31
1470331891590412,74,-85,-14,-8,-10,-1,15,23
1470331891590412,-99,27,22,-3,6,-2,18,32
1470331891590914,71,23,-13,-22,3,-5,-12,-49
1470331891590914,-18,84,26,59,10,9,24,-3
1470331891612433,43,-6,13,27,6,3,-23,-23
1470331891612433,-67,-34,3,-46,-26,-6,13,24
1470331891613434,73,42,-3,-30,-4,-1,-6,2
1470331891613434,21,-19,6,81,26,14,6,9
1470331891634954,-31,59,18,-34,-6,2,8,-4
1470331891634954,39,-44,-11,24,3,-12,1,25
1470331891635954,31,25,12,-16,-17,-5,-1,1
1470331891635954,-20,-81,-27,-25,-7,-1,-12,-23
1470331891649966,-15,67,8,-1,10,1,11,18
1470331891649966,-20,-74,8,4,8,13,10,40
1470331891650968,-45,-28,-17,1,-7,-22,-11,-34
1470331891650968,-22,-13,1,-7,0,19,9,33
1470331891672486,51,-29,0,9,5,14,15,-14
1470331891672486,44,35,-1,-14,-8,-6,-4,64
1470331891673487,-35,-46,-4,6,-1,-5,-7,-48
1470331891673487,10,18,-4,-42,-6,-7,14,30
1470331891695007,-12,16,16,31,8,-11,-28,-23
1470331891695007,38,18,-8,45,13,11,23,5
1470331891696007,-6,0,8,-16,-3,0,4,39
1470331891696007,57,-19,-23,-26,-9,-5,23,24
1470331891710020,-34,30,15,-32,3,-2,-24,-43
1470331891710020,-19,-24,-19,17,6,-3,-24,-48
1470331891711021,-17,-14,0,18,1,-6,-14,1
1470331891711021,-38,-16,4,-11,-11,-14,6,5
1470331891732541,80,26,-10,7,7,13,11,10
1470331891732541,-76,-38,-4,-21,-7,-10,-28,-25
1470331891733541,41,14,5,-4,2,6,9,25
1470331891733541,-20,26,-9,27,9,21,15,6
1470331891755060,62,6,0,-13,-13,-34,-15,16
1470331891755060,-6,40,1,-10,-3,10,1,0
1470331891756062,-9,-7,-6,-2,-8,-5,-20,-39
1470331891756062,90,5,5,-2,-2,-32,-36,3
1470331891770075,-71,-61,-18,-18,-11,26,16,-27
1470331891770075,56,-1,4,14,4,8,-1,21
1470331891771075,-3,-19,-4,-9,-5,-16,20,10
1470331891771075,10,-21,5,11,8,-3,-5,5
1470331891792594,-17,30,0,5,-1,-18,-9,-22
1470331891792594,-12,-20,-11,-51,-6,-14,-16,-37
1470331891793094,-17,-37,7,30,-5,14,18,15
1470331891793094,-29,43,9,23,2,-1,-14,-40
1470331891815616,15,-1,-1,-21,-1,3,33,80
1470331891815616,28,-27,-7,-1,7,6,-25,-95
1470331891816615,-5,16,4,2,-16,-12,-17,0
1470331891816615,-13,-33,1,14,12,9,32,33
1470331891830128,-104,-8,2,1,0,-2,-41,-34
1470331891830128,36,34,-1,11,-3,4,19,21
1470331891830628,8,-12,-5,-15,-7,-1,2,13
1470331891830628,-2,3,2,-10,-4,7,-2,-8
1470331891852647,41,5,3,-8,-3,3,8,20
1470331891852647,23,3,-16,7,0,-2,-11,-14
1470331891853149,-81,-21,-6,10,6,-17,-17,-24
1470331891853149,14,17,-3,-9,-1,10,10,8
1470331891875168,11,14,2,14,4,15,12,-5
1470331891875168,5,7,3,-4,-5,-2,14,17
1470331891875669,-19,-36,-8,-20,-10,-3,-2,-3
1470331891875669,1,-14,-5,-4,0,-6,-13,-7
1470331891890182,-14,-10,-5,9,-3,-10,-7,0
1470331891890182,-24,22,1,5,-4,3,12,-12
1470331891890683,44,23,6,-10,2,7,-6,17
1470331891890683,-23,-30,-2,2,1,1,-5,-13
1470331891912701,4,-20,-4,-6,-11,-6,-8,-11
1470331891912701,19,12,1,-14,-4,-2,22,22
1470331891913203,-24,-19,-12,10,-1,-7,-16,-3
1470331891913203,2,8,0,-23,-9,-2,-18,-15
1470331891935223,21,19,0,20,5,-11,4,2
1470331891935223,-2,-11,0,-2,-3,1,-2,20
1470331891935723,-9,5,3,2,4,6,2,-16
1470331891935723,8,3,-2,-5,-4,12,1,-15
1470331891950238,-6,-11,-6,-12,-2,-10,-6,-16
1470331891950238,-3,-1,3,9,0,-2,-9,6
1470331891950737,8,-16,-5,-4,0,-1,6,25
1470331891950737,-7,15,-1,-1,-1,-8,1,-8
1470331891972756,1,-4,1,6,0,-2,7,-5
1470331891972756,-18,-29,-4,-6,0,2,-14,1
1470331891973258,18,13,2,3,-3,-3,3,-1
1470331891973258,-21,2,-4,-10,-2,0,-11,-10
1470331891995277,6,-7,-4,5,3,-3,4,-5
1470331891995277,27,12,0,-3,-4,6,10,-2
1470331891995778,-18,2,-1,3,1,3,12,-3
1470331891995778,-11,-16,-4,-13,1,-6,-18,6
1470331892010289,10,6,2,8,3,-9,1,-13
1470331892010289,2,-5,-2,0,-3,-1,-26,0
1470331892010790,-7,-1,-2,-4,1,12,23,10
1470331892010790,6,11,4,6,0,6,12,7
1470331892032810,-13,-1,-1,-7,-2,9,5,-1
1470331892032810,4,-3,2,0,2,-11,-8,-1
1470331892033310,-1,5,-1,-2,0,-4,-22,-7
1470331892033310,5,9,1,7,1,1,21,7
1470331892055330,-4,-7,0,-2,-1,-6,-26,-7
1470331892055330,12,1,-1,-5,-3,2,22,-1
1470331892055831,-15,-7,0,0,2,-3,8,8
1470331892055831,6,4,2,7,0,2,1,-7
1470331892070343,-8,-1,-4,-3,-2,-6,-12,-3
1470331892070343,0,0,0,-10,-2,1,2,-7
1470331892070845,1,-5,-3,-2,0,10,1,3
1470331892070845,-17,-4,-1,3,-1,-7,-5,-2
1470331892092864,22,3,-1,-3,0,3,12,8
1470331892092864,10,0,-3,1,-4,-7,-12,-1
1470331892093366,-25,6,4,1,1,-3,-24,-14
1470331892093366,18,-6,-6,-3,-4,3,13,5
1470331892115384,-3,7,0,-5,-5,1,-4,2
1470331892115384,2,0,2,3,0,3,1,-1
1470331892115885,4,-2,-3,2,4,-6,-4,-5
1470331892115885,1,3,0,-2,-4,-5,-37,-7
1470331892129396,-42,-12,-2,-3,-2,2,34,-4
1470331892129396,0,2,-2,0,-2,-4,5,0
1470331892137404,15,-1,-1,-1,-3,5,3,5
1470331892137404,-29,-8,-3,-3,-4,-13,-2,-10
1470331892152418,19,-1,1,3,11,2,-7,11
1470331892152418,-13,-2,-1,0,-7,6,8,-3
1470331892153418,17,4,-3,-4,1,5,17,11
1470331892153418,-6,1,-2,-1,-4,-1,-9,-6
1470331892174939,-3,-1,-3,-3,-5,-2,-13,-7
1470331892174939,-1,1,1,1,-2,-15,-5,-2
1470331892175939,2,-1,0,0,2,6,1,3
1470331892175939,-3,-4,0,-2,0,3,2,-2
1470331892189451,19,10,1,1,-2,-2,-8,1
1470331892189451,-18,-6,-2,-2,2,-5,12,1
1470331892197458,-5,0,-3,-4,-5,-6,-5,0
1470331892197458,-9,4,2,2,1,6,4,-1
1470331892212471,3,-4,-2,-3,-2,-2,-2,-2
1470331892212471,-7,-3,-2,1,0,-3,-7,-5
1470331892213474,5,11,1,-1,1,-1,4,5
1470331892213474,7,-8,-1,0,-1,-6,4,1
1470331892234991,-13,3,-2,-2,-2,0,-16,-7
1470331892234991,2,-3,-2,0,-1,4,7,0
1470331892235994,-10,-2,-1,-1,-1,-1,1,3
1470331892235994,25,2,-2,-1,-1,1,10,-2
1470331892249505,-23,-6,-2,-2,-1,9,-3,1
1470331892249505,7,-1,-1,-1,-3,-5,-7,3
1470331892257511,2,-6,-1,2,-1,1,3,-1
1470331892257511,-11,0,0,-1,-1,-11,-3,-3
1470331892272525,-1,-5,-3,-5,-5,-3,14,1
1470331892272525,8,5,4,0,1,-3,-24,-12
1470331892273525,10,-11,-10,-1,-2,-6,-3,2
1470331892273525,-19,-2,-4,-2,-1,-1,19,0
1470331892295046,-4,-10,0,1,1,-5,-32,-7
1470331892295046,13,12,1,-1,0,8,15,6
1470331892296046,-2,4,3,1,-1,-2,5,0
1470331892296046,11,-3,0,0,3,2,-9,4
1470331892309558,-2,3,0,-6,-4,-3,10,0
1470331892309558,2,-4,-1,1,0,-9,-3,-1
1470331892317566,-2,0,1,-3,-2,2,-2,-3
1470331892317566,-3,1,-3,3,0,-1,0,0
1470331892332580,9,0,0,1,-1,0,-3,-4
1470331892332580,-18,-4,-3,0,0,0,-3,3
1470331892333580,3,3,1,-4,-4,-4,-5,-7
1470331892333580,22,0,-1,-1,0,3,0,1
1470331892355100,-23,-4,-2,-3,-2,-1,-8,-1
1470331892355100,6,-3,-1,0,-1,-2,-1,1
1470331892356100,2,1,2,0,0,-7,-10,-7
1470331892356100,9,6,1,1,-2,4,4,2
1470331892369612,-12,-5,-1,1,2,-2,7,-3
1470331892369612,3,-1,-4,-4,-1,-1,-3,0
1470331892377620,-4,-1,-1,-3,0,0,11,11
1470331892377620,-7,-2,-1,-1,-3,-4,-13,-6
1470331892392633,12,-1,0,-1,-2,4,3,0
1470331892392633,-10,-5,-3,1,-2,-5,-3,0
1470331892393134,2,-3,-4,-3,-2,0,1,-4
1470331892393134,-2,2,2,0,1,-6,1,2
1470331892415154,-1,-6,-2,0,1,1,-5,-1
1470331892415154,5,0,0,-2,1,5,13,0
1470331892415654,-10,1,0,1,3,2,-3,-3
1470331892415654,6,-4,-2,0,1,-1,2,2
1470331892429666,-2,1,2,2,-2,-9,-7,-3
1470331892429666,3,-1,-1,-4,-2,7,-1,-2
1470331892437674,-4,-3,-2,2,2,10,8,7
1470331892437674,-8,-2,-2,2,0,12,-4,-3
1470331892452688,12,-1,-1,-1,-1,-11,4,-1
1470331892452688,-3,0,1,2,-1,-1,-3,-3
1470331892453187,4,0,-2,-2,-5,-8,-5,-5
1470331892453187,-11,1,-1,-2,-1,1,0,3
1470331892475709,7,1,-2,0,-2,2,2,3
1470331892475709,3,-6,-3,-2,-1,-5,-3,-3
1470331892483715,-2,3,-1,0,-3,-1,-4,-1
1470331892483715,-4,-1,-1,-5,0,-7,-3,-6
1470331892498229,-4,0,-1,2,-1,1,4,2
1470331892498229,0,0,-3,-1,2,1,3,2
1470331892499729,-1,-5,-1,-3,-3,-3,-6,-4
1470331892499729,-7,-3,1,-1,-2,-3,-5,-4
1470331892520748,-4,1,0,-3,-1,-1,-5,-3
1470331892520748,4,-6,-3,-3,-3,-6,-1,1
1470331892522249,-5,1,2,1,-1,2,4,-1
1470331892522249,-5,-1,0,0,0,-1,-9,-4
1470331892534260,-2,1,-2,-5,0,10,15,1
1470331892534260,-1,-3,-6,1,1,-3,-5,2
1470331892543268,14,0,-1,-3,-2,-10,-2,0
1470331892543268,-6,1,1,1,-4,-1,4,-1
1470331892558782,-16,-1,-4,-3,0,-2,-1,-1
1470331892558782,3,1,3,0,-2,-2,5,0
1470331892559783,-8,-2,-2,0,-1,0,-3,-2
1470331892559783,7,-2,-3,-1,-2,-2,-4,-4
1470331892580802,12,-6,-2,-1,-1,-2,2,4
1470331892580802,-16,2,3,-2,0,0,4,1
1470331892582304,-5,-4,-2,0,0,-1,-1,0
1470331892582304,8,3,0,0,-1,-2,-1,1
1470331892594315,1,-2,-1,1,-2,-4,3,2
1470331892594315,-5,-1,0,-4,-2,5,-3,-6
1470331892603323,0,1,2,2,3,-1,-4,-1
1470331892603323,-3,-5,-11,-2,-1,-3,1,-1
1470331892618336,3,2,2,-1,0,-2,0,0
1470331892618336,-9,-2,0,-3,-3,0,-1,0
1470331892619837,4,-2,1,-2,-2,0,0,-1
1470331892619837,13,0,0,-1,-3,-3,-9,-4
1470331892640856,-24,1,0,0,0,-4,4,5
1470331892640856,10,-6,-2,0,-2,4,6,-1
1470331892642357,-15,1,1,-2,1,3,8,1
1470331892642357,8,-2,0,0,-2,-3,-7,-1
1470331892654368,9,1,-2,-3,-1,1,-5,-4
1470331892654368,-7,0,-1,0,-2,-3,-6,-3
1470331892663376,-2,-5,-3,-2,-3,-5,-5,-3
1470331892663376,-4,-1,1,-2,-2,2,15,8
1470331892678389,4,3,3,-2,-1,0,-12,-3
1470331892678389,-4,-3,-5,0,-3,-8,6,1
1470331892679891,0,-6,-2,-2,-2,5,-12,-5
1470331892679891,-5,0,0,-1,0,-5,7,6
1470331892700909,-1,-3,-4,-4,-6,1,-1,-6
1470331892700909,5,2,2,2,3,-2,-8,-3
1470331892702412,2,3,-1,0,-4,3,9,3
1470331892702412,-10,-5,0,-2,-3,-5,-2,-2
1470331892714422,4,-3,-2,2,0,-2,-5,-3
1470331892714422,1,0,-2,-1,-1,2,6,0
1470331892723431,-7,-3,1,-2,-1,-2,-1,-2
1470331892723431,6,0,1,2,-1,2,0,-1
1470331892738443,-12,2,-2,-6,0,0,-4,-2
1470331892738443,2,-1,-2,1,-2,-3,-6,0
1470331892739947,-3,0,-2,-2,-2,-3,-9,-10
1470331892739947,-1,-3,0,0,-1,2,8,2
1470331892760963,5,-3,-1,1,-2,-6,5,2
1470331892760963,-2,1,-1,-2,-2,8,-13,-3
1470331892762466,-1,-2,-3,-2,-1,-1,0,0
1470331892762466,-2,3,1,2,-1,-2,-2,0
1470331892774477,3,-2,-1,0,0,0,-2,-3
1470331892774477,0,0,1,-2,-1,-4,4,3
1470331892783484,1,-2,-3,0,-2,-5,-10,-7
1470331892783484,-3,0,-1,-3,2,3,-7,-8
1470331892798497,0,-2,-1,2,0,-2,-2,-1
1470331892798497,1,-2,-1,-1,-2,-1,1,1
1470331892799998,0,2,0,-1,-1,0,3,4
1470331892799998,2,-3,-4,-2,-2,-2,-1,0
1470331892820518,-5,-3,-1,-2,-3,1,-1,-1
1470331892820518,0,0,1,-1,1,-3,-3,-3
1470331892822519,-4,-1,-4,-1,-1,-5,4,1
1470331892822519,0,1,0,0,-3,2,-1,-3
1470331892834529,-1,-4,-4,-4,1,-1,1,0
1470331892834529,-3,-1,-1,-1,-4,-4,0,-1
1470331892843538,8,0,0,1,-2,-3,0,2
1470331892843538,-9,-1,-1,-3,0,3,-8,-3
1470331892858551,-1,-4,-2,-1,-2,-1,-6,-1
1470331892858551,4,0,0,1,2,2,7,1
1470331892860053,-4,-3,-1,-3,-3,-3,-17,-9
1470331892860053,8,0,0,2,0,-3,3,0
1470331892881072,-1,1,-1,-1,-3,-4,-8,-6
1470331892881072,-1,-3,-1,-1,-1,-1,2,2
1470331892882573,14,1,1,0,-1,5,8,6
1470331892882573,-10,-2,0,-1,0,-4,0,-1
1470331892894635,-2,0,-2,-1,2,-2,1,-3
1470331892894635,-1,-2,-2,-1,-2,2,-2,-3
1470331892903644,-5,-2,-2,-4,-4,-6,-13,-11
1470331892903644,-3,-5,-2,0,0,-1,3,-1
1470331892918172,-2,0,1,4,0,-2,-1,-2
1470331892918172,-1,0,0,-6,0,-1,-3,-2
1470331892919679,-2,-2,-6,-1,0,0,-4,-1
1470331892919679,2,-3,-1,-2,-1,0,-2,0
1470331892948184,-1,1,-3,-2,-3,-2,9,0
1470331892948184,2,-1,0,0,-4,-6,-16,-4
1470331892949688,6,3,0,0,3,9,6,4
1470331892949688,-18,-2,-1,-2,-1,-6,-3,0
1470331892954188,7,-1,-2,0,-3,6,1,2
1470331892954188,-6,-2,-2,-1,-4,-3,1,-2
1470331892963695,-3,-1,-1,-1,-1,-3,1,0
1470331892963695,-2,0,-1,0,0,-1,-5,-3
1470331892978275,5,-1,1,-4,-3,-4,-1,-1
1470331892978275,-10,-3,-2,1,0,-3,-4,-1
1470331892980215,-5,-9,-2,1,-1,-3,8,-1
1470331892980215,5,0,2,-1,-2,0,1,0
1470331893000788,6,4,-1,-1,-1,-1,-7,-1
1470331893000788,-7,-4,-1,-3,-2,-2,3,-1
1470331893002231,11,3,1,1,0,0,4,6
1470331893002231,-33,-5,-2,0,0,2,-2,-8
1470331893014293,11,-3,1,-7,0,-2,-6,-7
1470331893014293,8,0,-2,1,-2,-4,-15,-2
1470331893023250,-11,0,-1,-2,-1,4,3,-2
1470331893023250,12,4,-1,1,-3,-3,-2,-2
1470331893038304,-6,-1,1,3,1,2,3,6
1470331893038304,-4,-3,-2,-1,0,-2,3,-2
1470331893039809,-6,-2,2,-1,-2,-5,-3,-1
1470331893039809,11,1,-4,0,-1,7,5,3
1470331893060825,-18,-11,-2,0,-1,-3,-8,-8
1470331893060825,3,2,-2,1,0,1,5,3
1470331893062285,-1,-8,-3,-3,-2,-6,-16,-9
1470331893062285,8,4,2,-3,-2,-5,3,4
1470331893083304,-5,-4,0,0,1,4,-15,1
1470331893083304,2,-2,-3,-3,-3,-3,32,0
1470331893084809,-6,0,3,1,2,9,1,5
1470331893084809,8,-5,-5,-2,-3,-3,-5,-6
1470331893098319,-27,-5,-3,-2,1,-2,-5,4
1470331893098319,9,-2,-1,0,1,0,0,-2
1470331893099819,-1,8,0,-1,-2,-9,-13,-3
1470331893099819,4,-1,-1,-1,-1,3,8,4
1470331893120838,3,1,-1,0,-1,4,-6,-5
1470331893120838,-8,-2,-2,-2,-1,2,-5,-1
1470331893122340,-2,-4,-4,0,1,-1,16,2
1470331893122340,-5,0,3,0,0,-3,-13,-2
1470331893143410,23,10,-1,-3,-4,-3,11,1
1470331893143410,-22,3,-1,-1,0,0,-4,-3
1470331893144859,7,-3,-2,0,0,-3,4,6
1470331893144859,-6,-8,-2,-2,-2,0,-3,-2
1470331893157870,-4,-2,-4,0,-2,1,12,0
1470331893157870,13,3,1,0,1,0,0,-1
1470331893164380,-4,4,-2,-3,-3,-2,-8,-2
1470331893164380,-4,-2,-2,-3,-1,-4,5,1
1470331893180932,7,-6,-4,-2,-1,3,-2,0
1470331893180932,3,0,-2,0,-1,0,-7,1
1470331893182393,-27,-9,-1,0,0,0,9,1
1470331893182393,12,1,-4,1,-1,0,11,6
1470331893203411,4,-6,-1,-2,-2,-7,1,-1
1470331893203411,-3,-3,0,-1,-1,-1,-7,-3
1470331893204965,-8,-3,-2,-2,-1,2,-1,-4
1470331893204965,11,0,-1,-5,-2,2,-19,-9
1470331893217427,7,7,2,2,-1,-5,9,-3
1470331893217427,-8,-4,-3,-2,-3,-2,-4,-1
1470331893224442,-1,-2,1,1,-2,-1,3,0
1470331893224442,-12,-1,-2,-2,-1,-2,-14,-7
1470331893240945,-2,4,1,-1,-2,-4,0,-3
1470331893240945,6,1,-1,0,1,-1,-5,-1
1470331893242504,8,8,0,-1,0,0,-1,-1
1470331893242504,-14,-5,-1,0,0,-1,-5,-2
1470331893263465,7,-6,-2,0,0,-2,-2,1
1470331893263465,-12,1,0,1,0,1,5,2
1470331893264968,20,0,0,-1,-1,0,1,0
1470331893264968,-13,4,1,-3,0,-3,1,0
1470331893277982,0,1,-1,0,-1,-1,1,2
1470331893277982,-6,-6,-2,-2,0,1,1,-1
1470331893284488,13,1,0,-4,-1,-2,0,0
1470331893284488,2,2,2,1,0,1,2,0
1470331893300999,-14,-5,-3,-2,-1,-1,7,5
1470331893300999,6,0,-2,-1,-2,0,-2,0
1470331893302500,1,2,0,1,0,-7,4,8
1470331893302500,12,0,1,-1,-1,10,0,1
1470331893323019,-24,-6,-2,-2,0,-2,0,-2
1470331893323019,5,1,1,0,-2,-2,-5,-1
1470331893325020,-8,-4,-1,-3,-3,-2,-10,-10
1470331893325020,1,0,0,0,1,-6,8,5
1470331893337553,4,2,-2,1,-2,2,-3,-2
1470331893337553,-2,-3,-2,-3,0,-1,-2,0
1470331893344537,0,-3,-1,-1,-1,2,-1,-4
1470331893344537,2,0,1,-1,-1,-4,0,0
1470331893360554,-7,-3,-6,-1,0,-1,-8,-7
1470331893360554,4,1,0,-1,-2,-3,4,1
1470331893362053,-10,-1,-2,0,-2,-1,-7,1
1470331893362053,9,-1,-1,-2,-1,4,4,1
1470331893383087,3,-3,0,-2,1,-2,1,1
1470331893383087,-3,-1,-2,-1,-2,-1,-1,1
1470331893384574,2,0,0,0,0,-3,-1,-2
1470331893384574,-13,-4,-5,0,-2,-1,-7,-3
1470331893397588,1,9,0,-2,-3,-4,0,-2
1470331893397588,-13,-9,-2,-1,-1,1,-6,-2
1470331893404591,9,3,-2,-1,-1,4,3,-1
1470331893404591,-4,-1,-2,-1,-1,-7,2,-2
1470331893420606,10,2,1,0,-1,0,1,1
1470331893420606,-12,-1,-1,-1,0,2,-3,-4
1470331893422107,8,-6,-2,-2,-3,-2,-10,-4
1470331893422107,-31,-3,-2,-1,0,-1,1,-4
1470331893443126,3,-2,-1,-2,-1,-3,-7,-4
1470331893443126,9,5,0,1,0,-1,3,3
1470331893444628,-9,-6,0,0,-1,3,2,0
1470331893444628,11,-2,-4,-2,-4,-3,-10,-2
1470331893457640,-5,-3,0,-2,0,0,-2,0
1470331893457640,-4,3,-1,0,0,-4,-5,-7
1470331893464147,-11,-8,-5,-2,-1,1,2,1
1470331893464147,10,1,-1,-2,-1,0,8,0
1470331893480663,1,1,0,3,1,1,-4,0
1470331893480663,10,-4,0,-1,-1,0,-4,0
1470331893482163,-12,-1,-2,-2,-2,0,2,0
1470331893482163,1,0,-1,1,-1,-2,-10,-9
1470331893503183,3,1,0,-2,-1,-3,-1,-3
1470331893503183,9,-5,-4,1,-1,3,-4,1
1470331893504681,-3,1,0,-1,-2,-6,-8,-7
1470331893504681,-19,-2,-2,-4,-1,-1,0,-2
1470331893517693,1,-1,0,-1,0,5,-1,0
1470331893517693,11,4,-2,-3,-3,-5,3,1
1470331893524199,-3,-2,0,-2,-1,0,2,1
1470331893524199,7,4,0,1,-1,-1,0,2
1470331893540717,-5,-12,-1,0,4,0,-3,-2
1470331893540717,-7,-3,-2,-3,-2,-1,-3,-4
1470331893542717,2,1,-1,0,0,1,0,-1
1470331893542717,-9,2,1,-1,0,-2,-4,-1
1470331893563256,-3,-2,0,5,-2,-1,-2,-1
1470331893563256,-3,-6,-3,-6,4,-1,2,0
1470331893564736,-3,-2,-1,-1,-1,-1,0,0
1470331893564736,6,2,3,-3,-1,1,1,2
1470331893585771,4,-12,-10,-5,-2,-2,-2,0
1470331893585771,-17,0,0,0,-4,-2,1,-2
1470331893587255,3,3,-1,-1,0,-1,2,0
1470331893587255,-2,-5,-2,0,-2,-3,-3,-5
1470331893600769,5,6,1,-2,-2,-2,1,2
1470331893600769,-2,-6,-3,2,1,1,6,1
1470331893602270,4,11,4,-3,-2,-3,-4,-5
1470331893602270,-26,-2,2,0,-1,0,-1,-4
1470331893623333,5,0,-2,-1,-2,-2,0,2
1470331893623333,2,-2,1,2,-1,-1,-4,-2
1470331893624789,7,8,-1,-11,-3,-1,3,4
1470331893624789,8,-2,-4,7,1,0,0,3
1470331893636842,3,2,3,0,-6,-1,1,-1
1470331893636842,2,1,-3,7,2,-1,1,-1
1470331893645808,-3,-14,-3,-7,-7,-2,-2,-2
1470331893645808,10,2,-7,-2,6,0,-2,-1
1470331893660880,-14,8,3,9,0,-2,0,-2
1470331893660880,-7,-10,3,-18,3,0,-2,-6
1470331893662323,-17,-20,-7,7,-4,0,-14,-8
1470331893662323,32,3,1,-6,-9,-3,-5,-2
1470331893683342,-28,-5,-3,-3,-1,-4,-2,-4
1470331893683342,7,9,9,12,4,-1,-4,-3
1470331893684875,6,6,-1,4,0,-1,6,3
1470331893684875,-6,-18,-2,-7,-1,0,0,-1
1470331893696907,7,-4,-13,-9,-5,-3,-5,-2
1470331893696907,-1,16,3,-3,-6,1,6,7
1470331893705862,-10,-2,-1,-1,2,-3,-1,-2
1470331893705862,6,-7,-3,5,-1,2,5,3
1470331893720375,-4,3,0,-2,1,1,7,4
1470331893720375,4,-9,-5,-5,-1,-1,0,2
1470331893726896,-8,2,-2,1,0,-2,-4,-3
1470331893726896,-1,6,2,-2,0,1,2,2
1470331893743414,-3,-2,3,-10,-5,-1,1,1
1470331893743414,-7,9,2,31,5,0,-3,-5
1470331893744902,10,-5,3,-19,-16,-4,4,4
1470331893744902,0,5,0,23,23,3,1,-1
1470331893756908,12,-6,0,-9,1,2,-5,-1
1470331893756908,-11,-7,-6,1,4,-1,4,8
1470331893765917,7,-5,-3,0,-6,-2,-13,-28
1470331893765917,-10,4,-1,-8,-9,-2,14,19
1470331893780930,6,1,-6,-20,-2,-2,-7,-12
1470331893780930,12,-2,-1,-16,-6,-1,-7,-3
1470331893782433,-26,-1,1,-4,-6,-4,-3,4
1470331893782433,7,16,-1,15,1,0,-1,-6
1470331893803450,-18,-26,-2,13,5,0,11,9
1470331893803450,6,8,-1,-10,-10,-2,3,5
1470331893804996,8,9,0,9,7,-2,3,4
1470331893804996,-3,-2,4,-8,-9,-1,-3,-2
1470331893816989,5,5,1,5,0,1,3,6
1470331893816989,-38,-14,-4,-9,-5,-3,1,1
1470331893825970,8,2,6,10,6,-2,-11,-24
1470331893825970,4,-2,-2,-11,-2,2,11,14
1470331893841014,-4,-3,1,8,-6,-7,-22,-19
1470331893841014,10,-8,-5,-10,-1,1,1,2
1470331893842485,-7,4,-1,4,3,2,7,12
1470331893842485,-8,-11,-4,-8,-5,-2,-8,-10
1470331893863534,-1,10,-1,-5,-2,-1,0,-2
1470331893863534,5,-5,-6,0,-9,-2,-2,2
1470331893865018,-4,2,3,0,7,5,1,4
1470331893865018,8,1,-1,2,-2,-1,-2,-7
1470331893877092,-7,0,-2,6,3,2,6,6
1470331893877092,7,-2,-3,-5,1,-1,-6,-9
1470331893886024,1,-17,-5,-12,-4,0,2,2
1470331893886024,-1,-3,-7,-4,-5,-5,-6,-6
1470331893900540,-6,7,7,11,-5,-3,-2,0
1470331893900540,12,-1,-2,-14,1,1,2,-4
1470331893907075,-6,-11,-4,5,1,0,3,7
1470331893907075,-8,-4,-4,-9,1,-3,-5,-5
1470331893923615,1,3,1,3,0,-2,-2,-3
1470331893923615,-6,-7,-4,0,-3,-3,3,-3
1470331893925061,12,10,3,-1,-1,1,7,10
1470331893925061,-14,-6,-3,0,1,-1,-11,-8
1470331893937070,10,13,2,0,-1,1,0,2
1470331893937070,-13,-7,1,-2,-2,0,2,-3
1470331893946078,13,-2,-6,-3,2,-2,0,-1
1470331893946078,-17,8,6,7,-6,-2,0,-2
1470331893960118,-1,-12,-3,-10,3,1,0,0
1470331893960118,-1,0,-1,5,-2,-1,-2,-4
1470331893967120,11,4,-5,0,-2,-2,-7,-3
1470331893967120,-2,9,4,11,7,1,2,2
1470331893983111,-1,-7,-1,-4,-5,-2,-2,-2
1470331893983111,6,8,-2,7,1,-1,1,2
1470331893985113,-3,2,3,-7,-2,1,-1,-3
1470331893985113,6,-5,-2,-9,-5,-2,0,1
1470331894005650,2,-1,-1,6,3,1,-6,-5
1470331894005650,-10,-9,4,9,1,-1,-6,-2
1470331894007640,-10,0,1,-3,-2,-2,1,0
1470331894007640,2,-5,-4,-3,-3,0,5,3
1470331894019746,-11,-3,-3,-2,-2,0,5,-1
1470331894019746,13,7,0,0,-4,-3,-5,-5
1470331894028651,2,-4,-4,-5,0,1,-2,4
1470331894028651,-3,0,-1,-1,-1,-1,-2,-3
1470331894043210,-18,-5,1,-5,0,0,0,1
1470331894043210,4,12,3,-1,0,-1,-2,1
1470331894044669,-7,4,-2,2,-2,-1,0,1
1470331894044669,1,-4,0,1,2,1,-6,-4
1470331894066211,6,-4,-7,-14,-3,-2,0,-1
1470331894066211,-7,12,4,2,2,0,1,-2
1470331894072191,-3,-14,-6,-4,-3,-1,0,3
1470331894072191,1,-4,-2,0,-3,-2,0,-2
1470331894080198,0,1,-4,10,-1,-3,-9,-4
1470331894080198,15,4,2,-3,-3,-1,1,3
1470331894087262,-24,-8,-3,3,-2,0,0,-2
1470331894087262,-10,-7,0,-7,-1,-2,-5,-5
1470331894103275,7,2,1,-1,-2,-1,0,-3
1470331894103275,2,2,-4,-2,-1,-2,1,2
1470331894104723,-1,1,-1,2,1,1,-1,-3
1470331894104723,1,-11,1,-2,-4,1,5,0
1470331894125762,15,0,0,-3,-2,-2,-2,4
1470331894125762,-35,-10,-3,-4,-2,-1,-2,-6
1470331894127241,9,4,-1,0,1,-1,1,-1
1470331894127241,-3,-1,-2,-5,-3,0,-1,3
1470331894140299,2,-8,-2,-1,-1,-2,7,2
1470331894140299,2,-4,-3,0,-2,-1,-1,0
1470331894146800,-4,2,0,4,2,-1,0,-1
1470331894146800,-3,-1,-3,-8,-5,-1,-4,-6
1470331894163273,14,-1,6,-1,-2,0,2,7
1470331894163273,-7,1,1,-2,-1,-2,-4,-13
1470331894164775,-1,-6,-4,-2,0,0,5,-3
1470331894164775,0,-5,0,0,1,-3,0,0
1470331894185837,-5,26,2,2,-2,-2,-1,-3
1470331894185837,8,-10,-2,1,0,0,-6,2
1470331894187898,-8,1,-2,-6,-3,-3,-3,0
1470331894187898,11,-1,-1,1,-1,1,1,-1
1470331894200306,-16,-12,-4,-3,-1,0,-10,-5
1470331894200306,-1,-2,-1,0,-1,0,-2,0
1470331894207332,9,6,0,1,-3,-1,0,-1
1470331894207332,-10,-6,-4,-3,0,-2,-2,3
1470331894223383,6,5,6,5,2,-1,-2,-4
1470331894223383,2,-3,-5,-7,-3,-1,1,1
1470331894224828,7,-9,0,0,-3,-1,-6,-2
1470331894224828,-19,4,-1,-1,4,0,-1,-2
1470331894245939,1,-7,-4,-2,-2,-1,1,-1
1470331894245939,-7,-9,-3,0,-1,-1,1,-1
1470331894247350,5,7,2,0,-1,1,-2,2
1470331894247350,8,4,3,-2,-7,-2,0,-1
1470331894259410,-6,0,-4,10,4,-2,-4,-1
1470331894259410,1,3,-4,-5,-3,-1,-2,0
1470331894268369,8,-2,-4,4,-1,-1,0,1
1470331894268369,-18,0,-2,-10,0,-1,-2,-2
1470331894283380,-5,-4,0,-2,-2,2,4,-1
1470331894283380,7,4,2,0,-1,-1,1,2
1470331894284884,-1,-6,-2,-1,-1,-4,-6,-5
1470331894284884,4,1,0,-1,-3,-2,-2,2
1470331894305928,-7,0,-2,-6,-2,-1,3,1
1470331894305928,-2,-16,-1,1,0,0,-3,-9
1470331894307448,-7,3,-1,-5,-1,1,0,-3
1470331894307448,30,7,1,1,0,-1,-4,3
1470331894319426,-18,-2,-1,-5,-3,0,0,-2
1470331894319426,-5,-7,0,1,-1,0,0,4
1470331894335927,-8,6,1,-2,0,-1,-3,-3
1470331894335927,1,-10,-1,0,1,-1,6,-1
1470331894343490,10,5,0,-2,-2,-2,-9,0
1470331894343490,-6,1,0,-1,0,-2,8,2
1470331894344936,-6,-2,-2,-1,-1,-1,-1,-2
1470331894344936,3,-2,-3,1,-1,-1,-3,0
1470331894373462,2,1,-2,-4,-1,-1,1,-2
1470331894373462,21,24,4,3,-1,0,1,2
1470331894374979,-31,-26,-1,-7,-5,-3,0,-1
1470331894374979,-1,-18,-3,6,1,-2,3,-1
1470331894379482,-6,3,-1,0,3,1,0,-1
1470331894379482,-6,1,-2,8,-3,-5,-5,-5
1470331894388476,10,11,-2,-11,0,4,3,6
1470331894388476,0,2,0,0,1,2,3,-2
1470331894403489,5,-2,2,-1,0,-5,-2,-6
1470331894403489,-6,-9,-3,1,-2,-1,2,2
1470331894404991,11,9,1,-1,-4,-4,-3,1
1470331894404991,-26,-3,-2,-7,-5,-4,-2,-5
1470331894426010,12,-11,-5,-2,4,8,0,3
1470331894426010,-11,0,1,-3,1,1,6,-2
1470331894427511,13,17,3,6,-8,-7,0,2
1470331894427511,-5,3,-3,-12,1,2,-4,-2
1470331894439539,4,3,-2,1,-9,-8,1,0
1470331894439539,-16,-6,0,1,14,6,0,-4
1470331894448530,-8,-10,-3,4,15,9,-1,2
1470331894448530,17,1,0,10,-5,1,-3,-4
1470331894463548,-2,2,3,-7,-9,-10,0,-1
1470331894463548,8,-3,-1,-6,-13,-6,-2,1
1470331894465044,6,6,-5,-11,6,0,-2,-5
1470331894465044,-11,-4,1,-1,0,-2,-9,1
1470331894486064,2,-3,-1,0,-1,1,-2,0
1470331894486064,-15,2,-3,-12,-2,-4,-5,-5
1470331894487592,-4,-9,-7,-8,-7,-1,1,-3
1470331894487592,-3,8,1,20,7,3,2,-2
1470331894499575,10,-16,-6,-18,-4,1,1,3
1470331894499575,5,4,5,18,-6,-5,-7,0
1470331894508584,-4,3,-4,-29,-8,-6,0,2
1470331894508584,14,14,5,17,16,7,-1,-1
1470331894523156,-17,-18,-17,-18,-5,7,0,-3
1470331894523156,9,22,6,9,2,-4,-13,-1
1470331894525109,-8,-16,4,-8,-12,-3,0,0
1470331894525109,0,1,-8,10,4,-3,2,3
1470331894545617,1,0,5,7,4,-4,-8,-5
1470331894545617,4,-14,-3,-13,-7,3,-11,-18
1470331894547120,2,4,1,4,2,-2,-1,3
1470331894547120,1,-3,0,-14,-6,-2,1,5
1470331894559629,-9,11,3,9,4,1,0,0
1470331894559629,4,-7,0,0,-4,-1,-3,2
1470331894568653,2,-3,2,11,-1,-2,1,-3
1470331894568653,7,1,-2,-9,-3,-1,1,-6
1470331894583153,-20,5,21,3,-2,-3,-6,1
1470331894583153,4,-19,-37,-10,-4,0,4,4
1470331894585152,-6,5,8,20,12,3,2,-3
1470331894585152,16,-14,4,-11,-17,-6,-2,7
1470331894605696,-37,-5,1,15,11,4,1,-8
1470331894605696,7,-7,-34,-8,4,0,-10,-9
1470331894607191,1,8,7,-3,-3,0,-4,-2
1470331894607191,6,-17,-5,-5,-2,-3,0,-3
1470331894619683,14,38,22,-9,-15,-2,6,2
1470331894619683,-4,-10,-12,13,6,3,5,7
1470331894628190,2,-11,-5,-8,-4,-1,-1,-1
1470331894628190,-17,2,3,-43,-21,-6,-10,-16
1470331894643704,10,-12,-15,53,19,0,9,5
1470331894643704,-3,14,24,-8,-18,-4,-1,2
1470331894645205,5,-18,-7,13,8,0,-5,-2
1470331894645205,-7,18,-11,-20,6,1,3,4
1470331894665724,-12,-40,-1,-7,-16,-3,1,-5
1470331894665724,2,25,-32,-8,10,1,5,5
1470331894667225,-13,1,25,5,-3,-1,5,-1
1470331894667225,4,7,7,9,0,0,-4,1
1470331894679737,14,6,-8,-13,-1,-1,-3,0
1470331894679737,-2,-3,30,10,-2,-2,-1,-3
1470331894688249,21,-1,-14,-8,-6,0,-8,-6
1470331894688249,-11,-15,-11,11,3,-1,7,1
1470331894703257,10,6,-1,-5,-5,0,-4,1
1470331894703257,-2,-1,14,-7,5,0,0,-2
1470331894704793,-2,4,-13,1,-3,-2,-3,-5
1470331894704793,12,-1,-2,4,-4,-7,2,4
1470331894725837,-31,-5,-1,-16,-6,2,-3,-4
1470331894725837,1,-7,-2,8,0,0,1,0
1470331894727284,-4,8,-5,-9,5,2,2,1
1470331894727284,7,7,7,21,-2,-3,2,5
1470331894739794,8,9,-6,-6,1,-2,-2,1
1470331894739794,-10,-12,1,-5,0,-1,-7,-19
1470331894748299,-3,-9,-6,-2,-4,-2,5,5
1470331894748299,-7,1,2,-9,-6,0,-7,-4
1470331894763345,6,6,-5,-4,0,-2,1,2
1470331894763345,0,-2,4,-6,-6,-1,-1,3
1470331894764813,0,1,3,19,2,-2,-1,-5
1470331894764813,5,-5,-5,-1,-1,0,0,-2
1470331894785887,3,-6,-9,-2,-1,0,-2,-2
1470331894785887,-7,3,7,3,4,1,11,13
1470331894787887,-13,-11,-2,-2,-5,1,-11,-17
1470331894787887,-2,-3,-1,3,7,0,2,4
1470331894799346,4,3,5,3,-8,-3,-1,-2
1470331894799346,18,-1,-6,-9,7,-2,-3,0
1470331894808354,-11,1,-6,-3,-6,-3,1,6
1470331894808354,-13,1,-2,8,-1,0,-9,-4
1470331894823369,23,6,10,-5,-1,-3,-5,-9
1470331894823369,-7,-3,1,-4,-4,0,2,5
1470331894824866,-18,1,-5,-3,-1,-1,3,0
1470331894824866,7,-17,-1,-1,-2,0,-5,-9
1470331894845886,-10,1,-4,-2,2,0,-1,0
1470331894845886,-3,6,4,0,-3,-1,2,0
1470331894847888,13,3,1,-2,0,1,0,4
1470331894847888,-24,-9,-5,-6,-4,-3,0,-1
1470331894859398,15,1,-6,-2,0,-1,2,1
1470331894859398,-18,2,1,2,1,-23,-3,-7
1470331894868406,4,-2,-3,-2,-3,16,-7,1
1470331894868406,-4,-2,-1,1,1,4,6,1
1470331894882921,4,-6,-6,0,-1,-2,-4,-1
1470331894882921,9,-3,-2,-3,-4,0,-2,0
1470331894889473,-1,7,1,-1,-2,-15,-1,-1
1470331894889473,-1,-2,-2,-1,-2,-2,-5,-5
1470331894906440,1,-2,-3,-10,-1,2,0,-1
1470331894906440,-10,-1,0,6,-3,-3,-1,-2
1470331894908001,1,-4,-2,-2,-1,-1,0,0
1470331894908001,3,0,1,-2,-4,3,0,1
1470331894928459,-3,2,-2,0,5,-2,3,-2
1470331894928459,-4,-8,-2,-5,-5,2,-5,-1
1470331894929961,8,8,2,4,3,-1,-2,0
1470331894929961,2,7,-1,-1,-5,-2,-1,-1
1470331894942999,-9,-3,-3,-5,0,-2,0,-4
1470331894942999,-12,-5,2,8,-1,5,-6,0
1470331894949567,9,0,-3,-8,1,1,1,2
1470331894949567,8,-4,-1,0,-2,-7,-3,-2
1470331894966050,-9,-5,-2,2,-3,-1,-1,-2
1470331894966050,12,0,1,-2,1,5,1,2
1470331894967530,-11,-7,-1,0,-2,-5,0,-4
1470331894967530,-10,-4,-4,1,1,-2,-3,-3
1470331894988594,-1,-3,2,-1,-2,0,2,-1
1470331894988594,2,2,-1,-3,-1,1,-2,-1
1470331894990025,17,2,0,4,-2,-3,3,5
1470331894990025,-9,1,0,-6,2,-1,-6,-2
1470331895002569,2,-6,-3,8,1,-1,-4,-1
1470331895002569,-3,0,3,-7,-3,-1,0,-4
1470331895009577,-9,-5,-4,0,1,0,-1,-3
1470331895009577,8,1,-2,1,-2,2,4,1
1470331895026048,-4,4,1,0,-2,-3,-2,0
1470331895026048,5,3,-1,2,-2,2,0,1
1470331895027585,-3,-5,-2,-5,-3,-2,-1,-5
1470331895027585,5,3,-1,-4,1,1,0,1
1470331895048067,-6,0,-3,-2,0,0,-1,-1
1470331895048067,8,-5,0,-1,0,-1,-2,-2
1470331895050070,-3,-2,0,2,-1,-2,0,-1
1470331895050070,6,3,-2,1,0,-2,0,-1
1470331895062609,-2,-1,-2,-3,-2,0,-2,0
1470331895062609,-17,-11,-3,0,-1,-1,0,-3
1470331895069587,-2,3,-1,-2,-1,-2,-7,0
1470331895069587,1,7,0,-3,-3,-2,0,-4
1470331895085652,1,-2,-4,-6,-1,-1,-3,-2
1470331895085652,19,2,-1,4,0,0,3,3
1470331895087695,-26,-2,-1,0,-2,0,0,-5
1470331895087695,6,4,2,-3,-2,-2,-2,3
1470331895108627,-3,-2,-2,2,-2,0,-2,1
1470331895108627,-6,4,-2,-4,2,-1,3,0
1470331895110123,4,-5,-1,-1,1,-2,-4,-4
1470331895110123,-1,-7,0,7,-1,-1,-1,-1
1470331895122676,0,0,-4,-12,0,-1,2,0
1470331895122676,-9,-3,-2,-1,-4,0,-5,-1
1470331895129640,7,4,3,-3,-3,-2,0,1
1470331895129640,-16,9,1,-4,-4,-1,0,-3
1470331895146157,15,-14,0,16,9,1,-5,-5
1470331895146157,3,2,-2,-7,-2,1,-1,-2
1470331895147157,-11,-21,-2,4,-2,-2,-2,-2
1470331895147157,6,-2,4,-1,2,1,-4,-1
1470331895168176,-25,-3,1,9,-4,1,2,1
1470331895168176,1,12,2,6,-1,-3,2,-1
1470331895170177,4,6,0,-10,-3,-1,0,0
1470331895170177,-2,-7,-5,-6,-2,-2,0,-1
1470331895182763,8,1,2,1,0,-1,-5,0
1470331895182763,4,-12,-2,-4,-1,1,0,-2
1470331895189694,-10,22,1,4,-3,-3,2,2
1470331895189694,-5,-17,-4,3,7,0,6,-1
1470331895205723,-4,-8,-7,1,0,-3,-6,-2
1470331895205723,0,0,2,-2,1,-2,-2,1
1470331895207712,2,-1,-4,-10,-5,0,0,-1
1470331895207712,1,9,-1,4,-3,-2,-4,-1
1470331895228249,-11,-9,-2,7,-1,0,4,1
1470331895228249,2,-1,-2,-2,-4,-1,-1,-2
1470331895229731,4,-2,-4,-3,4,1,-1,0
1470331895229731,-6,2,3,-4,-3,-3,-1,-1
1470331895242241,2,4,0,-8,-4,0,1,-1
1470331895242241,12,0,-3,-3,1,-1,0,0
1470331895250751,-26,-4,-3,-1,0,0,-1,-4
1470331895250751,-5,0,-1,13,2,0,-3,-2
1470331895265762,-5,0,0,-8,-4,-1,-3,-1
1470331895265762,10,4,-1,-2,-4,0,-1,1
1470331895267264,11,-2,-2,4,1,1,0,-3
1470331895267264,-4,-19,-4,-7,-4,0,-1,0
1470331895288283,-4,8,1,0,2,-1,-3,-1
1470331895288283,-4,4,0,2,4,1,-4,2
1470331895289785,6,-7,-2,3,-2,-1,0,-2
1470331895289785,-10,4,2,-3,1,0,0,-1
1470331895302389,11,1,-4,-15,-5,-2,1,0
1470331895302389,-6,-12,-4,-6,-5,-2,0,0
1470331895310823,-11,1,2,-3,-2,1,3,-2
1470331895310823,11,3,0,8,7,0,-4,-2
1470331895325837,-17,-1,-1,0,-3,-2,1,-1
1470331895325837,-2,-10,0,4,-4,-3,-3,-4
1470331895327326,12,2,0,-10,7,5,8,6
1470331895327326,-16,-15,-5,3,-2,-3,-3,-5
1470331895348339,12,11,7,-32,-15,-5,-3,0
1470331895348339,-6,3,-8,22,4,1,2,-1
1470331895349838,13,3,3,-3,-4,-3,-2,1
1470331895349838,-8,-9,-3,13,-9,-3,-2,-3
1470331895362401,-2,4,-6,9,19,5,-2,-1
1470331895362401,-5,4,3,-29,-10,-3,-1,0
1470331895370857,-17,-8,-2,-2,-8,-5,-5,-1
1470331895370857,23,10,2,9,5,1,-2,1
1470331895385891,-47,-24,-7,11,1,0,-2,-8
1470331895385891,12,-1,-1,-14,-1,-1,-1,-1
1470331895387372,5,10,-6,9,4,-1,-3,0
1470331895387372,5,-9,4,-32,-12,-4,-1,3
1470331895408434,12,2,1,19,1,1,2,3
1470331895408434,-9,-3,-3,8,9,3,-1,-4
1470331895409922,2,-1,-3,19,7,1,0,1
1470331895409922,-3,3,-1,-11,-7,-1,1,-3
1470331895421948,12,10,0,-4,-7,-5,-5,0
1470331895421948,-11,-6,-1,-8,-4,-1,3,-1
1470331895430911,3,-15,-1,-5,-5,-2,-7,-4
1470331895430911,1,3,-6,-1,0,1,1,0
1470331895445925,2,-1,4,0,0,2,1,0
1470331895445925,1,2,-3,2,0,-2,0,4
1470331895447471,-10,-7,0,-2,-5,-3,-5,-9
1470331895447471,-6,-5,0,3,1,0,0,2
1470331895468445,6,11,-8,-8,4,-1,-1,-1
1470331895468445,4,-2,0,5,-5,-1,-3,-1
1470331895469946,1,7,-5,9,14,3,3,0
1470331895469946,-3,-5,3,1,-3,-3,-2,-3
1470331895481957,7,2,4,3,-5,0,2,1
1470331895481957,-13,-10,4,-8,-5,-3,-5,-6
1470331895490965,2,-10,-5,-10,-3,-2,-3,1
1470331895490965,0,10,-2,2,1,0,-1,0
1470331895505979,-9,-13,-2,-5,-4,-2,-1,-2
1470331895505979,5,27,-4,5,0,-1,3,-1
1470331895507499,0,-20,9,-2,-2,3,6,6
1470331895507499,-2,-7,-10,-1,-1,0,-1,-3
1470331895528615,-11,-2,1,17,0,-1,2,0
1470331895528615,5,-3,10,-15,1,-1,-3,-3
1470331895530000,21,-3,1,5,-7,-2,4,0
1470331895530000,-21,5,-11,-25,0,0,-4,1
1470331895542013,-1,-7,1,11,4,-1,-3,-3
1470331895542013,3,-4,-3,11,-3,-2,-1,1
1470331895551020,-4,2,-2,0,-2,-6,-3,-1
1470331895551020,14,1,3,-4,-1,5,0,-1
1470331895566032,1,1,-5,-9,-8,-1,1,-3
1470331895566032,-7,-8,-2,-2,2,-1,-4,-1
1470331895567556,3,0,-4,-5,-2,-2,-1,-2
1470331895567556,-7,4,-3,0,1,-2,3,-1
1470331895588558,5,-1,1,-1,-2,-2,-6,3
1470331895588558,-2,-10,-2,5,2,4,5,0
1470331895590109,-3,10,0,1,-2,0,-4,-3
1470331895590109,4,-8,-3,-4,-2,-3,1,-2
1470331895602079,5,21,7,-2,-2,-2,-10,-5
1470331895602079,-16,-22,-5,-6,-5,-2,0,-4
1470331895611074,0,10,2,4,-2,0,-1,-2
1470331895611074,1,-6,-1,-3,0,0,-2,2
1470331895626147,6,-6,-3,-9,-3,-1,4,1
1470331895626147,0,8,-2,-2,-2,-2,-2,0
1470331895627588,-13,-2,-3,-2,4,2,-1,-4
1470331895627588,9,-9,1,11,-1,0,-1,-2
1470331895648606,-11,2,-3,-4,-2,-3,1,-1
1470331895648606,0,6,-1,-16,-2,-3,-1,1
1470331895650166,1,3,0,15,5,3,4,3
1470331895650166,2,2,1,-5,1,0,-1,-2
1470331895662173,-4,-6,-2,-6,-4,-3,5,-1
1470331895662173,1,0,-5,0,0,0,-2,-4
1470331895671132,0,5,1,-1,-3,-3,-3,-2
1470331895671132,-9,1,-1,-1,-3,-2,0,2
1470331895685640,-3,-14,-4,-10,0,-1,-4,-6
1470331895685640,1,-2,0,2,-1,-1,-1,0
1470331895687142,4,-3,-2,-8,-3,-1,0,0
1470331895687142,0,7,0,5,1,-3,-1,-2
1470331895708675,3,-1,-4,-3,-1,0,4,1
1470331895708675,1,2,1,5,-2,0,-1,0
1470331895710187,-7,-1,0,3,-3,-3,-2,-3
1470331895710187,-5,-1,3,-7,1,-1,0,-1
1470331895722173,23,2,-3,0,-4,0,-2,3
1470331895722173,-15,3,-1,2,0,0,-3,-4
1470331895738189,-3,1,1,-1,-3,-3,-4,0
1470331895738189,-5,-6,-3,-4,-1,-1,0,1
1470331895745740,1,-3,-1,-3,-3,-1,-2,1
1470331895745740,0,-4,-2,3,0,0,-1,1
1470331895747695,6,1,-1,-5,-2,-2,-1,-1
1470331895747695,-6,4,-6,1,-2,-2,-2,-3
1470331895768269,3,0,4,4,0,-2,-1,0
1470331895768269,-12,0,-1,-7,2,-1,0,-4
1470331895769715,8,2,-5,-12,-3,-2,-1,-1
1470331895769715,-8,0,3,3,-4,-1,-2,1
1470331895782240,-5,0,-4,1,4,1,2,-1
1470331895782240,4,-3,-1,2,-4,-1,2,2
1470331895790734,9,1,0,-3,0,0,0,0
1470331895790734,-15,-3,-5,-2,-1,-1,-5,-5
1470331895805276,-6,-7,-1,1,-2,1,4,1
1470331895805276,6,4,1,2,1,0,-1,-1
1470331895812351,-7,1,-4,-4,0,0,-5,-2
1470331895812351,2,5,6,4,-1,-2,1,2
1470331895828270,-8,-2,1,0,2,2,-1,-2
1470331895828270,3,-2,-4,0,-2,-1,3,0
1470331895829770,-7,0,5,0,-2,0,2,-1
1470331895829770,8,3,-4,3,-2,0,-2,0
1470331895841793,0,-6,1,-2,1,0,-2,-2
1470331895841793,1,6,-1,0,-2,-2,-1,-5
1470331895850788,-6,-12,-3,-3,-3,-4,-4,-2
1470331895850788,-3,1,2,1,0,-1,2,3
1470331895865301,4,2,-2,-3,-1,-1,-2,-3
1470331895865301,-3,-2,-2,0,-1,1,-1,-2
1470331895871807,-3,-9,-1,-3,-2,-3,0,3
1470331895871807,12,15,-1,-1,0,1,0,-9
1470331895888354,-23,-9,-3,-1,-2,-1,2,-4
1470331895888354,16,-2,1,-1,-3,0,-4,0
1470331895889823,1,1,-4,1,1,2,5,0
1470331895889823,3,-1,-1,1,0,-2,-10,0
1470331895910843,13,2,1,0,-2,1,0,3
1470331895910843,-6,9,-2,-5,1,0,-1,-4
1470331895912344,-7,-5,1,4,0,0,1,1
1470331895912344,2,6,2,-1,-2,-2,3,-2
1470331895933437,-3,1,-2,1,-1,-1,-2,-1
1470331895933437,0,-3,-2,1,0,-3,-2,2
1470331895934915,3,0,-4,-5,-3,-2,-3,0
1470331895934915,-8,-19,-5,-3,-1,0,-1,0
1470331895948376,-12,6,8,8,-2,-1,-4,-5
1470331895948376,-1,0,-3,-9,-1,1,2,0
1470331895949877,2,-4,-1,-2,0,-1,0,-3
1470331895949877,4,2,-2,0,-1,-1,-1,-2
1470331895970941,-3,1,-3,-9,-1,-2,-2,3
1470331895970941,3,-7,0,6,0,-2,0,1
1470331895972397,-7,-2,0,-2,-2,-2,-3,-4
1470331895972397,4,-4,-2,-2,-1,-2,-2,1
1470331895985412,0,-5,-4,-2,-2,-1,-2,2
1470331895985412,2,1,0,-2,-2,-4,-15,-12
1470331895991970,3,-1,-2,-2,-1,0,0,3
1470331895991970,-6,-7,-1,-1,0,-1,1,-6
1470331896007456,6,-17,-5,1,0,0,-1,2
1470331896007456,0,11,1,-4,0,0,1,-2
1470331896015942,4,-2,-2,1,0,1,-1,2
1470331896015942,-16,-6,0,-1,-2,-2,-2,-4
1470331896038548,-6,1,0,0,0,-2,-1,-5
1470331896038548,1,-5,-2,0,-1,-2,2,5
1470331896039958,-1,9,-1,-3,0,0,-2,0
1470331896039958,1,-5,-4,-3,0,-1,2,-3
1470331896044963,5,0,-1,-1,-3,-1,-2,0
1470331896044963,-10,-5,0,9,-2,-1,-2,-1
1470331896052024,-7,7,1,-9,-3,-2,-1,-2
1470331896052024,7,-10,-3,0,0,-1,-3,1
1470331896068565,-6,10,-10,-9,-12,-12,-1,-2
1470331896068565,-8,4,10,-6,-25,2,-2,-6
1470331896070027,1,-6,-3,1,27,0,0,0
1470331896070027,6,-13,4,8,12,1,2,3
1470331896091004,-11,-30,2,-14,-22,15,2,2
1470331896091004,3,-7,-6,23,42,6,3,3
1470331896092510,-21,-4,-7,-2,-18,-18,-1,-5
1470331896092510,5,-25,0,-10,-2,13,-2,2
1470331896105517,-2,-3,-4,2,5,-8,-1,-6
1470331896105517,17,-12,-6,-12,-17,-10,1,2
1470331896112024,-16,8,2,-2,-10,2,6,-3
1470331896112024,3,-10,-5,-4,-3,-13,-9,-3
1470331896128537,4,38,5,19,1,3,-3,-2
1470331896128537,-2,6,-6,-16,2,5,-1,2
1470331896130043,-6,-39,2,12,3,-1,-2,-2
1470331896130043,-12,12,-1,-4,-6,1,2,0
1470331896151058,-1,-2,1,3,3,-2,-6,-7
1470331896151058,7,14,2,7,3,0,2,6
1470331896152561,5,-3,-8,-4,-2,3,-1,-1
1470331896152561,-4,-14,17,16,-8,-1,-1,-2
1470331896164572,-3,27,-7,-19,5,-3,-1,1
1470331896164572,-13,11,0,-9,-1,-6,2,0
1470331896173579,5,3,4,1,-9,1,-5,-2
1470331896173579,14,6,-8,-4,3,1,2,1
1470331896188093,-8,-11,-2,14,12,1,6,6
1470331896188093,1,-15,5,0,-7,-3,-1,-2
1470331896190138,9,8,-3,-10,-4,2,-1,4
1470331896190138,-15,20,3,-2,-7,-6,-6,-8
1470331896211112,35,-6,-2,-11,0,-4,6,4
1470331896211112,-39,6,-5,2,-3,7,-4,-1
1470331896212646,6,-14,0,4,22,3,-1,0
1470331896212646,11,19,-5,-1,-10,2,0,3
1470331896224674,-22,-27,3,1,4,-7,5,-3
1470331896224674,17,-13,2,-1,-15,-6,-10,-1
1470331896233631,32,53,3,8,5,10,6,0
1470331896233631,-40,-1,7,-9,8,-3,1,3
1470331896248188,5,1,-16,-3,0,4,4,2
1470331896248188,18,-3,-1,-10,-7,-6,0,0
1470331896250147,-37,-12,-3,0,-9,-6,-7,-2
1470331896250147,-4,-4,-11,-4,7,-1,-4,-6
1470331896278673,4,0,11,2,-2,3,-4,-2
1470331896278673,11,-14,0,-8,5,-1,4,1
1470331896280675,0,3,1,2,-17,-4,-1,2
1470331896280675,-13,-10,-5,-1,7,2,1,-6
1470331896284678,0,-8,-4,-5,1,-4,-5,-2
1470331896284678,18,-3,2,2,0,1,4,0
1470331896293686,-19,0,5,-5,-7,-4,-4,-5
1470331896293686,15,28,-4,-5,-5,-3,-1,3
1470331896308716,-2,-7,-4,8,15,2,-1,-5
1470331896308716,-3,-9,3,-5,3,3,-7,-3
1470331896310201,6,-1,-19,-5,-8,-2,2,-1
1470331896310201,-18,-12,-3,-5,-4,-5,-1,-4
1470331896330720,-3,2,-2,-1,-15,1,-4,-2
1470331896330720,6,10,3,5,6,-6,2,5
1470331896332222,-13,-16,4,1,10,6,1,0
1470331896332222,16,-4,-14,4,-9,-2,-1,1
1470331896344732,8,13,1,-5,-1,-4,-2,-2
1470331896344732,-9,0,0,13,1,-1,-2,-5
1470331896353258,-10,-11,0,-9,-7,-3,-1,0
1470331896353258,18,-1,-21,-7,-2,-3,2,6
1470331896368253,-8,1,-2,-7,-5,-1,-3,-2
1470331896368253,-20,25,7,13,5,2,2,-2
1470331896369754,23,6,-2,-4,-4,1,1,6
1470331896369754,1,-34,-12,-10,-3,2,3,-5
1470331896390792,0,24,10,3,-1,-3,-2,3
1470331896390792,2,-23,-22,-5,-16,-8,-5,-4
1470331896392274,5,11,15,-19,5,1,-1,-1
1470331896392274,-11,1,8,33,13,5,5,7
1470331896404885,2,-17,2,-7,11,1,-3,-9
1470331896404885,-8,2,1,7,-10,1,2,2
1470331896413293,8,-1,11,11,18,-1,-1,-3
1470331896413293,20,9,6,-18,-15,-3,-3,-1
1470331896428340,-37,1,-8,-2,-21,-9,3,0
1470331896428340,7,5,3,-18,11,-1,-3,0
1470331896429824,-1,-28,-1,25,-6,-3,-4,-4
1470331896429824,5,32,2,8,18,4,1,2
1470331896450882,3,-9,5,7,-5,0,-4,-5
1470331896450882,5,-12,-16,-15,-12,-4,6,-2
1470331896452332,-16,10,0,-8,-8,-6,-3,-1
1470331896452332,1,7,6,-3,-4,-3,-4,-3
1470331896464340,2,2,8,2,-3,1,3,7
1470331896464340,-8,-10,-10,-1,1,-2,0,-1
1470331896473348,12,4,-2,-4,-5,-5,-4,-4
1470331896473348,-26,-15,-4,2,1,2,-1,-3
1470331896488417,14,19,7,-7,-3,4,-3,2
1470331896488417,-5,-6,1,-16,-6,0,1,1
1470331896489873,-5,-3,-11,13,9,1,-3,-1
1470331896489873,17,-3,0,-13,-14,-7,-4,-1
1470331896510925,-29,-2,-4,11,-2,-3,-2,-3
1470331896510925,13,2,-5,-7,9,3,-1,-2
1470331896512427,8,-2,5,-5,-4,1,5,1
1470331896512427,-17,5,-1,-1,-4,-2,2,1
1470331896524418,31,-10,-3,-6,5,0,-2,2
1470331896524418,-24,3,2,7,-5,-1,-3,-5
1470331896533402,-4,-5,-10,-2,-2,-3,-3,-2
1470331896533402,14,0,6,2,1,1,-1,2
1470331896555923,-20,-7,-12,-6,1,0,-1,0
1470331896555923,10,-9,2,6,1,-1,-2,1
1470331896557424,-17,14,-5,-5,-3,0,0,-2
1470331896557424,6,-9,1,4,-2,-1,-3,-2
1470331896570968,-21,-3,3,-4,-1,-1,-2,-3
1470331896570968,-4,2,-1,-3,-1,0,2,-3
1470331896572437,4,-7,-3,3,3,1,-1,-1
1470331896572437,9,14,5,-2,-1,-2,4,5
1470331896584448,12,-9,-6,-2,0,0,-1,-1
1470331896584448,-7,4,7,10,2,-1,-2,-3
1470331896593456,-1,-3,-8,-16,-8,-3,2,1
1470331896593456,-7,6,2,-3,1,-7,-2,-4
1470331896608469,18,2,-2,1,-2,1,-4,-1
1470331896608469,-22,-3,-3,10,1,-1,-2,-7
1470331896609972,8,-5,-4,-10,-5,-1,-1,-2
1470331896609972,-1,0,-1,-2,-3,-1,-1,0
1470331896631026,-5,0,1,1,-2,-5,0,1
1470331896631026,6,1,0,5,4,0,1,-1
1470331896632490,1,0,-1,0,-1,0,-3,-2
1470331896632490,-13,-4,-4,-1,1,0,2,-3
1470331896644519,13,-6,-2,1,-2,-2,-2,0
1470331896644519,-6,-7,2,-7,-4,-1,-2,-1
1470331896653509,-3,12,0,4,0,3,2,2
1470331896653509,-4,-12,0,0,-1,1,-1,-1
1470331896676041,-2,-2,-3,-3,-3,-3,0,-2
1470331896676041,14,-3,-5,-3,-1,-1,-2,-1
1470331896677575,-4,-3,0,-2,-2,-1,0,0
1470331896677575,0,-7,-2,-1,0,0,0,1
1470331896691042,-5,9,-4,7,0,0,0,-1
1470331896691042,6,1,4,2,5,0,-1,0
1470331896692544,-3,-3,-1,-2,-1,1,1,-1
1470331896692544,2,2,4,1,-4,-1,-3,-4
1470331896713562,4,-6,-10,-4,0,-3,-7,0
1470331896713562,-13,-6,-11,-2,-5,-3,2,3
1470331896715065,18,-3,-1,0,1,-1,-2,-2
1470331896715065,-27,2,1,-7,0,0,-3,-6
1470331896727605,10,-6,1,7,2,-1,3,2
1470331896727605,-10,10,-2,-2,-2,-1,0,0
1470331896734672,-1,-28,-6,-2,-2,-1,-2,-3
1470331896734672,12,8,1,-6,-5,-4,1,0
1470331896751101,-5,-18,1,5,-8,-2,-1,-6
1470331896751101,2,13,0,-6,2,-4,-3,0
1470331896752687,-1,6,-2,-6,1,2,3,2
1470331896752687,-1,-4,-9,14,22,8,0,-5
1470331896764691,-5,-11,6,-6,-5,2,4,1
1470331896764691,-1,-11,-1,1,-12,-10,-1,-1
1470331896773616,-7,14,4,-20,-11,-5,-3,-1
1470331896773616,5,-8,-5,17,8,-1,0,-1
1470331896788130,-4,20,0,-2,-1,1,-3,1
1470331896788130,17,-7,3,6,-1,3,-1,0
1470331896790132,-17,-3,-5,-7,3,-4,-2,0
1470331896790132,4,9,4,-5,-5,0,-2,-1
1470331896811150,0,-2,-2,1,1,-1,4,2
1470331896811150,6,-13,1,3,4,4,0,-2
1470331896812651,4,16,3,5,2,-1,-3,-4
1470331896812651,-5,-7,1,-9,-16,-2,-2,1
1470331896833224,2,3,2,-7,15,2,0,-2
1470331896833224,-13,1,-3,17,2,0,-2,-1
1470331896835173,3,7,2,13,1,0,1,0
1470331896835173,-12,-16,-2,2,-8,-4,-1,-3
1470331896848702,12,18,-1,-9,-6,-5,-2,2
1470331896848702,-17,0,4,-10,0,2,-1,-6
1470331896849690,-4,-4,1,1,0,-1,1,0
1470331896849690,9,5,-5,-9,-4,-2,-1,2
1470331896870759,10,-24,-1,0,0,-2,0,-5
1470331896870759,-21,1,-1,-6,-1,-1,-3,-1
1470331896872706,5,14,-1,5,-2,-1,-2,-3
1470331896872706,-10,-28,-5,-7,-5,-2,-2,-1
1470331896893275,-8,-1,0,-1,0,-1,-1,-4
1470331896893275,4,-4,-7,-2,0,2,2,1
1470331896895226,-1,-24,-4,-5,-3,0,-3,-3
1470331896895226,18,17,4,0,1,0,0,-1
1470331896907768,-21,30,-3,1,-2,-1,-2,-2
1470331896907768,-20,-12,14,-6,-3,-3,-4,-4
1470331896914255,-1,-11,-17,-5,-2,0,0,2
1470331896914255,3,-1,4,-1,0,0,-5,-2
1470331896930838,28,8,3,0,-1,0,0,2
1470331896930838,-19,-9,-15,-3,0,0,0,1
1470331896932259,-1,8,19,-2,-2,-2,-5,-4
1470331896932259,-11,3,-1,0,-1,-2,-2,-1
1470331896953310,14,-9,-7,-2,1,0,0,1
1470331896953310,7,2,-6,1,0,1,-1,1
1470331896955328,-5,-8,-1,2,1,-2,-1,-3
1470331896955328,-3,11,0,-2,-1,-2,0,-2
1470331896967809,-14,0,3,0,0,0,-2,-3
1470331896967809,19,16,3,-3,-2,1,0,3
1470331896974850,-8,-19,-4,4,-1,-2,-2,1
1470331896974850,4,4,-2,-5,0,-3,-2,1
1470331896990811,-19,-11,-3,-2,-4,-2,0,-4
1470331896990811,-1,0,3,-4,-2,-3,-3,-1
1470331896992313,5,4,0,1,-3,2,1,-1
1470331896992313,1,-11,-3,0,-2,2,1,1
1470331897013356,-6,-7,0,3,1,-2,-2,-1
1470331897013356,7,4,-4,-8,-1,-2,-1,-3
1470331897014833,12,3,1,3,0,-1,0,3
1470331897014833,-12,-5,0,-4,-1,-1,0,-1
1470331897027845,-4,-7,-5,-2,-3,0,0,1
1470331897027845,6,-5,0,-1,-2,0,-1,-1
1470331897034894,-2,0,-5,-4,-3,-3,-1,-2
1470331897034894,4,4,-3,0,-3,-2,1,1
1470331897050941,1,-8,0,-2,-1,0,-2,-3
1470331897050941,4,-5,-3,6,2,-1,0,-1
1470331897052366,-27,-3,2,0,-1,-2,-1,-2
1470331897052366,19,1,0,2,0,-1,-3,-5
1470331897073402,-5,7,-4,-2,-3,-3,-1,3
1470331897073402,1,4,4,-5,-2,-1,0,-2
1470331897074930,-1,-3,-2,5,-2,-1,-1,-1
1470331897074930,-9,0,3,5,0,1,-1,0
1470331897087991,4,-5,-5,-17,1,0,0,-1
1470331897087991,8,5,-1,-2,-1,0,-1,0
1470331897094425,-10,-2,2,0,1,-1,-4,-4
1470331897094425,2,-1,-3,1,-5,-2,1,1
1470331897110936,14,2,-1,-3,-2,-3,-2,-1
1470331897110936,-24,-3,-2,-7,-1,-2,0,-2
1470331897112435,10,-5,-4,6,-2,-2,0,-4
1470331897112435,-3,-2,-5,-7,-1,0,-1,-1
1470331897133441,-1,-7,-3,-3,-3,2,-1,-1
1470331897133441,4,4,0,-1,-3,-2,0,0
1470331897134978,1,6,0,7,1,0,1,0
1470331897134978,-4,-7,-3,7,1,-2,0,-2
1470331897147007,2,5,2,4,3,-1,0,-1
1470331897147007,0,-2,-1,-6,-3,-2,-3,1
1470331897155995,-11,2,3,-9,-5,-1,-1,-4
1470331897155995,7,4,-4,-15,-6,-2,-3,-1
1470331897171001,-10,3,6,-1,-7,-3,-2,-1
1470331897171001,8,-10,-8,6,5,0,3,2
1470331897172517,1,-1,3,-3,2,0,2,1
1470331897172517,-2,-1,-2,-8,-8,-6,-6,-5
1470331897193549,-3,-1,5,21,0,1,2,1
1470331897193549,-4,2,-4,-6,-3,-2,-2,-1
1470331897195066,0,-2,1,3,-3,-3,-2,0
1470331897195066,13,-1,-3,-4,11,4,3,2
1470331897207039,-21,-3,-7,-5,-7,-2,-1,-3
1470331897207039,-4,0,4,-2,-1,0,-1,1
1470331897216040,1,-4,-4,-1,-1,1,-2,-1
1470331897216040,-4,3,2,2,0,-1,0,-1
1470331897231054,13,4,-8,-9,0,-1,-1,-2
1470331897231054,6,-7,0,6,-2,0,-1,-1
1470331897232556,-6,4,0,-11,-1,-1,-1,-3
1470331897232556,-3,16,5,3,-3,0,-1,0
1470331897253574,1,0,2,5,3,-1,-3,-2
1470331897253574,-7,0,-3,-5,-6,-2,0,0
1470331897255078,13,-3,-3,17,3,1,1,3
1470331897255078,-8,-5,-4,2,7,3,-1,1
1470331897267087,11,4,-4,-1,-3,-1,-1,1
1470331897267087,-21,-9,2,0,4,0,-1,-4
1470331897276094,9,-2,-3,0,-6,-3,-3,2
1470331897276094,-25,14,5,-4,-6,-2,6,-1
1470331897290649,9,7,-5,-19,-1,0,-7,-1
1470331897290649,-5,-5,-14,29,7,2,-2,-3
1470331897292685,-9,4,13,-22,1,-1,-2,-4
1470331897292685,6,-14,-3,33,3,-1,0,1
1470331897313628,-1,1,0,-10,-7,-2,-1,-1
1470331897313628,12,10,4,-9,-3,-2,-1,-3
1470331897315129,1,-16,-8,5,0,-1,-1,0
1470331897315129,6,7,-5,-12,-5,-4,-2,0
1470331897327141,-10,-3,6,3,-1,-4,-1,-6
1470331897327141,0,-7,2,0,0,0,1,1
1470331897336148,1,2,-3,-2,0,2,-2,-2
1470331897336148,-1,18,5,-11,-4,0,-3,-1
1470331897351171,-6,-10,-5,5,2,0,0,2
1470331897351171,11,-1,0,-4,-4,-2,-4,-1
1470331897352663,-14,8,-6,-4,-2,-1,2,-3
1470331897352663,21,-31,-9,-3,-2,-1,-9,-2
1470331897373681,-25,4,1,5,-1,-2,-1,-3
1470331897373681,-19,-17,-1,-8,-6,-3,-3,-4
1470331897375184,7,17,-2,-2,-1,-1,0,0
1470331897375184,-8,-25,0,-4,-1,-2,-6,-5
1470331897387194,3,11,-7,1,1,1,0,1
1470331897387194,18,-9,11,-8,0,-1,0,3
1470331897402207,-12,-1,-2,2,-2,-2,-1,-1
1470331897402207,0,-9,-3,3,4,1,2,0
1470331897411241,16,13,5,-2,2,2,0,-3
1470331897411241,-4,5,-11,-15,-1,0,0,-1
1470331897412321,7,-9,-3,5,0,-2,-3,-2
1470331897412321,-1,19,4,-3,-3,0,2,2
1470331897433235,-7,3,-4,1,-1,-1,-1,0
1470331897433235,-24,-47,2,0,-3,-2,-2,-4
1470331897434736,15,2,-3,-3,-2,-1,-5,-1
1470331897434736,-8,-2,-4,-5,-2,-3,0,0
1470331897447248,2,-12,5,6,0,0,3,0
1470331897447248,19,10,-14,-2,-3,-2,-3,-2
1470331897455755,-11,4,-1,-4,0,1,2,-2
1470331897455755,-1,13,5,1,0,-2,1,0
1470331897470811,-6,-15,-3,-4,-1,0,-3,-2
1470331897470811,18,26,1,7,0,0,0,-4
1470331897472270,-8,-43,-1,-6,-4,-2,2,2
1470331897472270,-2,22,1,-3,-11,-5,-2,-3
1470331897493317,-20,-13,-3,3,21,9,1,-1
1470331897493317,1,23,1,-3,-16,-10,-4,-1
1470331897495379,26,4,-6,-5,-9,-5,-1,4
1470331897495379,-46,-33,-5,-3,23,11,-2,-6
1470331897507372,7,17,4,-3,-13,-8,4,3
1470331897507372,2,-2,-8,9,-37,-5,0,1
1470331897515809,6,-2,0,-2,38,6,-2,-1
1470331897515809,-17,2,3,17,30,7,2,-6
1470331897530877,4,-13,-6,3,-6,7,2,1
1470331897530877,-20,-3,6,7,3,-5,-1,-2
1470331897532326,-4,-3,-1,-3,-49,-14,-1,1
1470331897532326,12,-2,-4,-2,-14,-8,-4,-2
1470331897553375,-11,-7,1,9,11,1,-3,-5
1470331897553375,12,9,1,-18,-13,-1,-1,2
1470331897554844,-9,11,5,4,26,9,3,0
1470331897554844,5,-10,-2,-3,-5,0,1,3
1470331897566860,13,-5,-3,-2,-15,-9,1,1
1470331897566860,-21,2,2,3,13,5,-3,-2
1470331897575903,0,2,-2,-4,4,3,-2,-3
1470331897575903,1,-5,-6,-7,-18,-11,-1,-4
1470331897590921,5,-4,0,7,8,-1,-3,-3
1470331897590921,5,13,-1,0,13,14,3,2
1470331897592378,-7,-10,-4,-9,1,-3,2,-1
1470331897592378,9,4,-1,-8,-22,-4,0,4
1470331897613441,-4,-6,-4,-15,-26,-9,-8,-4
1470331897613441,-7,-10,2,7,30,0,0,-4
1470331897614898,0,0,-3,-7,-3,5,3,1
1470331897614898,2,1,3,7,19,3,-1,1
1470331897626951,4,-4,2,3,-5,1,2,4
1470331897626951,-8,-2,-4,-22,-5,-4,0,-1
1470331897635917,-3,-4,-5,9,-7,-2,-4,-2
1470331897635917,2,-5,0,-1,-6,-6,-1,-2
1470331897650933,-3,1,-3,7,7,-2,-3,-3
1470331897650933,-24,2,3,-8,-3,4,2,-2
1470331897652433,6,-2,1,0,-6,-10,-2,-1
1470331897652433,-7,-6,-2,-4,-2,4,0,-1
1470331897672450,-2,2,1,22,-6,-1,0,-3
1470331897672450,15,5,3,4,36,2,-2,2
1470331897673451,1,-7,1,10,-10,4,-3,-1
1470331897673451,-21,-4,-3,-12,0,-9,1,-4
1470331897695475,0,-6,1,-7,-11,5,0,3
1470331897695475,10,1,-5,0,-10,-6,0,0
1470331897695977,-11,7,3,-5,-7,1,1,-4
1470331897695977,23,1,-2,9,17,5,-1,2
1470331897710493,-2,0,-1,-15,-15,-10,-5,-4
1470331897710493,-4,-4,1,2,-5,-3,-2,-1
1470331897711004,-2,1,0,11,18,9,2,-1
1470331897711004,12,0,1,8,1,2,0,4
1470331897732508,-24,-5,0,-3,-8,-5,-2,-2
1470331897732508,3,-2,-1,-11,3,-1,-2,-2
1470331897733505,-4,-2,-3,-9,-13,-9,-1,-1
1470331897733505,2,1,0,3,-13,-3,-4,-5
1470331897755068,5,0,0,-1,26,4,0,2
1470331897755068,12,4,4,21,-25,-7,-2,0
1470331897756072,-17,-12,-9,-20,1,-5,-2,-4
1470331897756072,6,6,6,0,13,17,2,0
1470331897769554,4,-5,-5,-9,-4,-3,0,1
1470331897769554,-2,-5,-4,-4,-10,-4,-1,-4
1470331897785142,7,6,7,13,14,5,0,1
1470331897785142,-5,-5,-5,-10,-7,-3,-1,1
1470331897792570,-2,0,-2,-3,5,1,0,0
1470331897792570,4,-2,0,6,0,-3,-1,0
1470331897793559,1,3,-7,2,-16,-4,-4,-1
1470331897793559,-14,0,-2,-7,11,1,-2,-1
1470331897815079,-3,-8,4,5,1,3,3,3
1470331897815079,-16,3,-4,-6,0,-2,-1,-5
1470331897816080,5,-6,-4,-7,-3,-5,-4,-4
1470331897816080,2,-2,-2,-1,-4,-3,0,2
1470331897829684,3,1,-3,-4,6,-5,-1,-1
1470331897829684,0,2,-2,2,8,16,0,1
1470331897837647,-6,2,1,-3,-14,-8,-1,-1
1470331897837647,7,-4,0,-2,-12,-4,-1,0
1470331897868627,-5,0,-2,-11,7,0,0,-5
1470331897868627,-4,-2,-2,1,-1,2,2,1
1470331897869128,-3,0,4,15,2,-5,-2,0
1470331897869128,1,-3,-7,-33,-13,-8,-4,-3
1470331897875133,1,1,-3,8,-10,-3,-1,1
1470331897875133,3,-4,0,2,-5,-4,-1,0
1470331897876134,0,3,3,4,31,14,0,-1
1470331897876134,-1,3,0,10,-4,-7,0,0
1470331897889645,-4,0,-1,-5,-13,-3,-2,-4
1470331897889645,7,0,-2,-5,4,1,-2,-2
1470331897897711,-1,2,-3,-5,1,-6,-1,3
1470331897897711,3,-5,2,5,-1,6,-1,0
1470331897912699,-22,-1,-4,-10,1,6,0,-5
1470331897912699,-4,-3,-2,8,4,-8,-2,0
1470331897913666,4,1,-1,-5,-16,3,-1,-2
1470331897913666,0,0,-1,0,10,1,0,0
1470331897935231,7,-1,-1,2,1,-3,-3,1
1470331897935231,6,-1,-2,-4,-4,-1,0,2
1470331897936222,-7,-2,0,4,-2,-7,-1,-1
1470331897936222,2,1,-3,-11,3,8,-1,-1
1470331897949699,-1,-3,0,1,-27,-13,-2,-1
1470331897949699,-2,1,2,2,19,8,-2,0
1470331897957761,5,-7,-7,-12,-2,-3,0,1
1470331897957761,-4,1,0,10,-4,-1,-2,-2
1470331897972807,2,0,-1,0,19,-2,-1,0
1470331897972807,0,-2,0,12,-6,7,0,-1
1470331897973224,-7,0,-3,-11,-3,-2,0,0
1470331897973224,-6,-2,-4,-9,-8,-2,-1,0
1470331897995293,5,-2,-2,-5,-6,-2,-2,-2
1470331897995293,-1,2,1,-8,0,-4,-1,-1
1470331897995784,-1,-1,0,19,13,6,-1,-2
1470331897995784,-1,-3,-1,1,-9,-7,0,0
1470331898009253,5,3,0,5,4,1,-1,-1
1470331898009253,-3,1,-3,-10,-8,-7,-1,-2
1470331898024766,1,0,1,-6,-6,6,-2,-3
1470331898024766,-1,-2,0,5,1,-10,0,-1
1470331898034280,0,-3,1,1,5,8,-1,-2
1470331898034280,0,-1,-4,-8,-1,-11,-3,-2
1470331898035328,10,1,-1,-3,3,8,0,1
1470331898035328,-23,-2,4,7,-9,-7,-2,-4
1470331898063336,-1,1,-1,-3,11,1,-1,-1
1470331898063336,7,-5,-2,4,-9,-4,1,0
1470331898064302,-12,0,0,6,-1,-3,0,-2
1470331898064302,-2,0,-2,0,2,2,-1,-2
1470331898069320,11,1,0,0,1,2,-1,1
1470331898069320,-5,-2,-2,-4,-3,-1,-3,-3
1470331898077814,2,-1,-3,0,19,3,-1,0
1470331898077814,5,-2,0,1,-15,5,1,0
1470331898100866,-9,-1,-4,-7,-6,-5,0,-1
1470331898100866,-3,-2,-3,0,3,0,-1,0
1470331898101339,-2,-2,-1,-4,-13,-6,-3,-2
1470331898101339,6,1,-3,0,-4,-3,-1,-1
1470331898115347,-1,-8,-1,-4,2,2,-2,0
1470331898115347,1,3,0,7,8,8,0,0
1470331898115850,-6,0,2,-8,-15,-10,-1,-3
1470331898115850,2,-9,-5,-1,15,9,1,0
1470331898129403,11,3,-1,2,-3,-1,2,3
1470331898129403,-28,-6,-3,-21,-2,-3,-1,-5
1470331898137921,10,-2,-1,16,-2,-3,-3,0
1470331898137921,-14,3,-2,-2,-6,-7,-1,-5
1470331898152906,0,1,1,2,1,4,-1,-3
1470331898152906,6,-3,-3,-2,-3,-4,-2,-2
1470331898153382,-5,1,1,-2,-4,-1,0,-2
1470331898153382,7,0,-2,-7,-4,-4,-2,-4
1470331898175912,-9,-3,0,-3,2,3,-1,0
1470331898175912,4,0,0,0,4,3,1,-1
1470331898182949,-5,0,1,-1,-7,-7,-3,0
1470331898182949,-2,-2,-1,1,0,-2,-5,0
1470331898189414,3,0,2,-2,0,0,-1,-5
1470331898189414,-6,-3,-3,-12,-12,-2,-1,1
1470331898197925,0,-1,1,23,7,5,-11,-3
1470331898197925,4,4,-3,4,0,-2,13,5
1470331898212950,-3,1,-5,-4,-2,-3,-4,-3
1470331898212950,8,0,-2,-4,-4,-2,-1,0
1470331898213436,7,1,0,-10,2,-2,0,3
1470331898213436,-30,-8,1,-6,1,1,-8,-8
1470331898235010,0,-1,-1,4,3,-2,3,1
1470331898235010,5,1,-1,-5,-8,-3,0,0
1470331898236005,2,0,-4,1,2,1,0,1
1470331898236005,4,2,-1,0,-1,-1,-3,2
1470331898249472,-8,-4,-2,-6,-10,-2,-1,-1
1470331898249472,3,-4,1,19,15,3,-2,-3
1470331898258008,-1,-4,0,-5,-7,-1,1,-2
1470331898258008,2,-2,0,-8,1,-1,-4,1
1470331898272990,-2,1,0,6,-4,-1,0,0
1470331898272990,1,-2,-1,1,-5,-1,-1,-1
1470331898273492,-3,-1,-4,-2,7,-1,1,-1
1470331898273492,-1,-8,-3,0,2,0,0,-2
1470331898295010,9,-2,-1,-9,-3,-2,-4,0
1470331898295010,-8,3,1,8,-2,0,-2,-1
1470331898296014,-1,-3,-1,-14,-6,-3,0,-1
1470331898296014,0,-2,2,8,0,-1,-4,-1
1470331898310051,-6,0,-1,2,4,-1,-1,1
1470331898310051,0,-4,-1,-4,-2,2,-4,-2
1470331898311048,10,2,-3,-9,-2,-1,6,0
1470331898311048,-9,1,2,-1,0,-2,-12,-1
1470331898332570,0,6,0,4,0,-1,8,0
1470331898332570,1,1,0,-3,-4,-5,-4,-1
1470331898333545,-7,-5,1,-1,-1,1,-1,0
1470331898333545,18,0,0,-10,-5,-2,-2,0
1470331898355095,-9,-3,-3,16,7,0,-3,-1
1470331898355095,-11,1,-1,2,-5,-3,0,1
1470331898356064,1,2,-3,5,13,0,-2,-3
1470331898356064,3,4,-2,-7,-7,-2,2,-1
1470331898369619,0,1,-3,-8,-2,-1,-3,-4
1470331898369619,6,0,-6,-5,0,0,2,-1
1470331898377584,-13,-5,3,-5,-5,0,0,0
1470331898377584,11,1,-1,5,3,1,0,1
1470331898392620,3,-1,-3,-9,-2,-1,-3,-1
1470331898392620,0,-3,0,5,-2,-1,-3,-1
1470331898393598,-4,2,-1,-4,-5,0,0,0
1470331898393598,-3,0,2,-3,-3,-3,0,-2
1470331898415134,-7,-19,-1,0,-2,-1,-4,-1
1470331898415134,7,6,0,5,3,-1,0,3
1470331898416118,2,-4,-2,-5,-6,-1,0,-3
1470331898416118,-20,4,-3,-13,0,-2,0,-1
1470331898429630,4,0,0,-8,-8,-5,-3,-2
1470331898429630,-6,-6,1,23,10,1,0,-1
1470331898437637,18,5,-3,-5,-5,-2,-1,0
1470331898437637,-9,-6,-2,10,4,0,1,-3
1470331898461158,0,4,4,-9,-2,1,1,0
1470331898461158,-3,-3,-3,-11,-5,-2,-4,-1
1470331898461704,-1,3,-4,-7,-4,-2,1,-2
1470331898461704,4,-3,-1,3,-2,-1,-1,0
1470331898475171,-1,-6,-2,1,1,0,-4,-4
1470331898475171,0,-2,-2,-4,-3,1,2,-1
1470331898476172,-8,1,1,6,-4,-3,-4,-3
1470331898476172,5,-3,-4,-6,0,-1,-1,1
1470331898489684,-5,0,3,3,0,3,0,0
1470331898489684,4,-3,0,-7,-3,-2,-1,0
1470331898497724,-4,-5,-1,-6,0,-1,-1,-2
1470331898497724,-3,0,-1,7,-1,0,1,-4
1470331898512760,2,-2,-3,-1,-2,-1,0,1
1470331898512760,-3,-3,-2,-3,0,-1,0,-3
1470331898513254,-5,1,-1,0,3,1,-1,0
1470331898513254,7,-2,-1,-4,-6,-3,-3,0
1470331898535226,7,-1,-2,-11,-4,-1,0,3
1470331898535226,-25,-6,-1,12,2,0,2,-5
1470331898535726,16,-3,-6,-4,-2,-2,-3,1
1470331898535726,-14,-1,1,3,1,1,1,4
1470331898558272,4,5,-3,-8,-6,-3,-2,-2
1470331898558272,3,-1,0,-4,2,1,-1,2
1470331898559246,-6,-7,-1,-1,1,-1,-3,-1
1470331898559246,5,-1,-2,0,-1,-2,-1,-4
1470331898572776,3,0,0,2,-5,-1,0,4
1470331898572776,-2,2,1,8,-5,0,0,-3
1470331898573258,-5,-2,-4,-16,4,1,-1,-3
1470331898573258,2,-1,3,7,-3,0,0,0
1470331898595279,-7,-7,-2,2,7,-1,-1,-1
1470331898595279,4,-3,1,-7,-5,0,-1,-2
1470331898595788,-3,-1,-1,-1,0,-2,-1,0
1470331898595788,-1,-1,-1,-1,-1,-2,-2,-1
1470331898609824,10,1,-1,0,4,2,2,-1
1470331898609824,-19,-2,-2,0,-2,-1,-2,-2
1470331898617824,2,3,0,-2,-8,-3,-1,-2
1470331898617824,3,2,-1,0,-2,-2,-1,-1
1470331898632813,-7,-1,-1,1,4,0,-2,-3
1470331898632813,9,-2,-2,-8,-3,0,-1,1
1470331898633312,-7,-1,5,0,-3,-2,-1,0
1470331898633312,0,0,0,1,0,0,-1,-1
1470331898655351,0,-4,2,4,-3,-1,-2,0
1470331898655351,1,-1,-4,-10,2,1,1,-2
1470331898655833,-4,3,2,4,-6,0,-3,-3
1470331898655833,4,-9,-6,-1,-1,-2,1,2
1470331898669863,-12,5,-1,-3,-2,-2,-3,-3
1470331898669863,2,4,3,12,2,-2,-1,0
1470331898677915,0,-5,-4,1,3,0,1,-2
1470331898677915,-1,3,0,-4,-2,0,-3,-2
1470331898692866,-6,-7,-3,-3,-1,-2,1,-1
1470331898692866,9,6,0,-10,-4,-3,0,3
1470331898693367,-1,-4,-2,9,-1,-1,-1,0
1470331898693367,-6,-5,-1,-5,2,0,-2,-2
1470331898715386,-2,2,-1,6,0,-1,-1,0
1470331898715386,4,1,-3,-7,-4,0,-3,2
1470331898715887,5,-1,-1,-3,-3,-3,1,-2
1470331898715887,-18,0,-1,-1,-2,0,0,-4
1470331898738437,5,0,-2,-1,2,-1,-2,0
1470331898738437,0,-4,-1,-4,-3,-2,-1,-3
1470331898738923,1,-2,-3,2,1,0,-2,-2
1470331898738923,0,6,-1,-6,-2,0,-1,-1
1470331898752920,-2,0,0,0,-2,-1,0,-3
1470331898752920,0,-2,-1,-2,-3,-2,0,-1
1470331898753421,-9,-4,-1,2,0,1,-1,-1
1470331898753421,2,-3,4,2,-1,-3,-2,1
1470331898774981,1,1,0,0,-2,-2,-1,-4
1470331898774981,0,-10,-2,-9,-3,0,-1,-1
1470331898775978,-2,15,3,3,-2,0,0,0
1470331898775978,3,-1,-2,0,1,3,0,1
1470331898798462,2,0,-1,-4,-1,1,-2,0
1470331898798462,1,-2,2,4,3,1,-2,0
1470331898798962,-12,-8,-1,3,1,1,-1,-6
1470331898798962,11,0,-2,5,1,-1,-1,0
1470331898812518,-19,-6,-2,-1,-4,-1,-1,-4
1470331898812518,5,5,-1,-5,-5,-3,-2,-2
1470331898813475,-2,-1,-1,-9,-6,-1,-1,4
1470331898813475,2,-11,-2,0,1,-1,0,-3
1470331898835038,-4,-3,0,1,0,0,0,-1
1470331898835038,1,-2,-1,-2,-1,0,0,-3
1470331898836024,-3,-5,-4,1,-1,-2,-2,-1
1470331898836024,-1,5,0,-2,-1,-2,-1,-3
1470331898858515,3,3,4,2,-4,-1,-1,1
1470331898858515,-6,-1,-3,-5,1,-1,-1,-3
1470331898859015,3,-4,-3,0,2,1,-1,0
1470331898859015,0,-3,0,-1,-4,-1,0,-1
1470331898873079,-1,-1,-3,-2,-4,-2,-3,-3
1470331898873079,-1,2,-1,3,2,0,0,1
1470331898873529,4,-4,1,-11,-6,-1,-2,-3
1470331898873529,-2,-1,-3,5,1,-2,0,-2
1470331898895096,-1,2,3,4,-1,1,1,2
1470331898895096,0,-2,-6,3,7,-1,-2,1
1470331898896049,-1,-2,1,-18,-8,-2,-1,0
1470331898896049,8,2,-1,19,9,-1,-1,1
1470331898918569,-13,-2,-3,1,-3,-3,-1,-3
1470331898918569,0,-2,1,-4,-5,-2,-1,0
1470331898919098,-2,8,-1,5,0,-2,1,1
1470331898919098,-4,-6,-2,-21,-5,-1,-1,-2
1470331898932616,11,0,-1,-5,-2,-1,-2,-2
1470331898932616,-2,3,0,-6,-4,-2,-2,-1
1470331898933582,-1,-2,-3,5,1,-1,1,1
1470331898933582,-2,0,1,5,-1,2,0,0
1470331898955102,3,-1,-2,-1,0,-1,-2,-2
1470331898955102,-9,-5,-3,-3,-3,-2,-3,-4
1470331898956104,-4,-3,-1,4,1,-2,-4,-2
1470331898956104,8,1,-1,-2,-3,-2,-1,3
1470331898978623,-9,-2,-3,-1,3,0,-1,-2
1470331898978623,1,1,-2,0,-2,-1,0,2
1470331898979123,-5,-5,-1,4,2,1,0,-1
1470331898979123,2,1,-1,-3,-3,1,-4,-3
1470331898992636,-3,-1,-2,-9,-1,-3,-1,1
1470331898992636,2,-3,2,2,-4,-1,-1,1
1470331898993636,12,2,-3,4,-1,-1,0,2
1470331898993636,-22,1,-3,-3,6,3,0,-1
1470331899015172,12,-1,-4,-1,0,0,0,0
1470331899015172,-4,-2,1,-4,-2,-1,-1,0
1470331899016156,1,-2,1,2,-7,-2,-1,-2
1470331899016156,1,2,0,-8,-6,-3,-2,-1
1470331899038702,1,1,-2,-1,1,0,-1,-2
1470331899038702,-4,-6,-1,5,0,-1,-2,-4
1470331899039180,1,0,1,-3,1,0,-1,-2
1470331899039180,-2,-4,-2,-1,-1,-3,-2,-2
1470331899052713,-5,-4,0,-4,-2,-1,-1,1
1470331899052713,6,16,-1,-4,-3,0,1,-2
1470331899053704,-4,-11,-3,3,0,-1,-2,-1
1470331899053704,-2,3,-1,-4,-1,0,-1,0
1470331899075262,2,0,0,-1,-2,-2,0,-1
1470331899075262,1,-2,-2,4,0,-1,0,0
1470331899076210,-1,1,-2,-3,2,-1,-1,-2
1470331899076210,-2,0,2,-6,-5,-4,0,-1
1470331899098230,0,-3,-4,1,3,2,-2,1
1470331899098230,-3,-1,-1,5,4,0,1,2
1470331899099232,-4,2,3,4,-2,1,0,-1
1470331899099232,2,-6,-1,-7,-5,-1,0,0
1470331899112749,-1,2,0,-2,1,0,-1,-2
1470331899112749,-8,-7,2,-7,-3,-1,-3,-1
1470331899113244,9,4,-2,7,5,-1,0,2
1470331899113244,0,-1,-1,-1,-7,-1,-1,0
1470331899135308,2,-4,0,1,1,1,-1,0
1470331899135308,-6,2,-2,-4,2,1,1,-1
1470331899135765,-3,-3,0,-11,-5,-1,-2,-2
1470331899135765,1,1,-5,-1,2,1,1,0
1470331899158287,-6,-7,-2,-5,-3,-1,-3,-2
1470331899158287,7,-2,-1,6,-1,-3,-2,1
1470331899159285,-4,2,1,7,-2,-2,0,0
1470331899159285,4,2,-3,-6,0,-1,0,-2
1470331899172832,2,5,3,18,1,-4,1,0
1470331899172832,-1,-4,-2,-9,-1,1,-2,-2
1470331899173299,-4,-3,-6,-9,-2,0,-1,-1
1470331899173299,-3,-1,1,7,2,1,0,0
1470331899195317,0,1,-3,-7,-6,-2,-1,-1
1470331899195317,-2,-4,0,0,-2,1,-2,-2
1470331899195820,-5,-3,1,6,3,0,-1,-3
1470331899195820,1,1,-1,-1,-4,0,-1,0
1470331899218424,-1,-1,-1,-3,-3,-2,-1,-1
1470331899218424,-1,0,-1,-1,-2,-1,1,0
1470331899219352,-1,0,-2,-5,-2,-1,0,-1
1470331899219352,-1,-3,0,3,1,0,-3,-1
1470331899232851,0,-4,-1,-2,-2,-2,0,-2
1470331899232851,1,-1,-2,-2,1,0,-1,-2
1470331899233352,0,2,-1,0,0,0,-3,-2
1470331899233352,-3,1,-1,-1,1,0,0,0
1470331899255398,-2,-3,-4,-4,9,-5,-3,0
1470331899255398,1,0,0,1,-2,4,1,0
1470331899256373,-1,0,0,-1,-2,-3,0,2
1470331899256373,0,0,0,-5,-5,-2,-1,-1
1470331899278423,-3,0,-1,2,-1,0,-2,-1
1470331899278423,0,1,-3,1,-3,-3,0,-2
1470331899278896,-2,-6,-2,-7,-3,0,-2,-1
1470331899278896,-2,-3,-2,2,-1,-4,-3,-2
1470331899292918,0,0,2,2,17,8,1,1
1470331899292918,-1,2,0,-3,-10,-6,-1,-2
1470331899293409,-2,-2,-2,3,1,0,-1,-2
1470331899293409,-1,-1,-3,-5,-11,-6,-1,-1
1470331899314976,-1,-1,1,3,0,1,-1,0
1470331899314976,-1,-1,0,3,3,-3,0,0
1470331899315926,0,1,-3,-16,-3,5,0,-2
1470331899315926,-2,-2,-2,0,2,-2,1,-1
1470331899338464,-2,-2,-4,1,-2,0,0,-1
1470331899338464,-3,-1,1,0,-6,-3,-2,-2
1470331899339455,-1,0,0,1,-5,-4,-3,0
1470331899339455,-1,-2,1,3,5,0,-1,-2
1470331899351995,0,0,-2,-5,-3,0,0,-1
1470331899351995,0,-2,-1,5,5,0,-1,0
1470331899360505,-4,-1,-1,-3,-1,-2,-2,-1
1470331899360505,8,-1,-1,0,1,1,-3,-3
1470331899374979,-1,-2,-1,-8,-11,-4,-1,-1
1470331899374979,6,-4,-2,-7,-3,-2,-1,0
1470331899375980,-20,1,3,15,-1,-6,-2,-5
1470331899375980,-3,-2,-3,-2,23,12,0,0
1470331899398499,-1,-1,-3,-4,-8,-8,1,0
1470331899398499,0,-1,0,-11,-2,1,-2,-2
1470331899399501,5,-1,-3,7,-1,-3,0,1
1470331899399501,-3,-1,1,2,-11,-6,-2,-2
1470331899412065,-4,-2,-2,1,-2,2,-2,-3
1470331899412065,-3,2,-4,-6,0,0,0,0
1470331899420581,2,-3,-3,-11,-2,-1,1,-1
1470331899420581,-5,0,1,-6,-1,0,-1,-2
1470331899435054,0,0,-2,1,-2,0,-1,0
1470331899435054,2,-4,-2,-3,-5,-4,0,-1
1470331899436034,0,2,1,0,2,-1,-1,-1
1470331899436034,-3,-2,-1,3,-1,-2,-2,-1
1470331899458574,7,1,1,-5,-1,0,-2,-1
1470331899458574,-6,0,6,13,-2,-1,-1,-2
1470331899459057,0,-3,-8,-13,6,4,0,-1
1470331899459057,2,2,-3,-6,-12,-2,-1,0
1470331899472094,-4,-3,-2,5,2,-2,-3,-1
1470331899472094,1,-1,-1,1,-2,-2,-1,2
1470331899480129,6,3,1,4,1,1,1,0
1470331899480129,-7,-4,-3,-12,-7,-3,-3,-1
1470331899495142,2,1,6,6,-2,1,0,0
1470331899495142,-6,-12,-7,5,5,1,0,-1
1470331899496129,-3,1,-3,-11,-7,-6,-1,-1
1470331899496129,0,-3,2,0,-1,-1,0,1
1470331899518609,0,3,-2,-12,0,3,-1,-2
1470331899518609,-1,-1,-2,1,-1,0,-2,-1
1470331899519139,-2,2,1,2,-5,-4,-2,-1
1470331899519139,1,-1,-2,2,8,4,2,0
1470331899532165,-5,-5,-2,-6,-7,-3,0,2
1470331899532165,-1,0,-1,-6,-1,1,0,0
1470331899540155,5,1,0,9,-3,-1,-2,-2
1470331899540155,-5,-1,-2,-13,-7,-4,-1,-2
1470331899555183,-3,-5,-2,-5,-4,-2,-2,-2
1470331899555183,-3,2,-2,-10,5,2,-1,-2
1470331899556144,5,-3,-1,-1,-3,-1,0,0
1470331899556144,-16,2,2,19,2,-1,0,-5
1470331899578678,-1,-2,-2,-1,0,1,-1,1
1470331899578678,1,-2,1,3,1,-1,-1,0
1470331899579168,4,-1,-1,-8,-2,-1,0,2
1470331899579168,1,-4,-1,-4,-3,-2,-2,1
1470331899592174,-1,0,0,6,4,-1,-2,0
1470331899592174,0,1,-4,-4,3,-1,0,-2
1470331899607716,-3,-6,0,-9,-1,0,-1,-4
1470331899607716,-1,-1,-1,8,4,1,1,-1
1470331899615196,-1,5,-2,3,-7,-4,0,0
1470331899615196,1,-3,0,-1,-2,-2,-2,-1
1470331899616196,-7,-3,-2,-3,-2,0,-1,-3
1470331899616196,2,-1,0,6,-3,-2,0,-1
1470331899638218,1,2,1,5,0,-1,-1,-2
1470331899638218,-7,0,-2,-3,0,0,-1,-4
1470331899639219,-4,-2,-2,-5,-1,-1,0,1
1470331899639219,12,1,3,-4,-2,-1,-2,-2
1470331899652291,-2,-3,-4,1,6,2,0,-1
1470331899652291,0,1,1,0,-7,-3,-2,1
1470331899660260,-10,-3,0,4,4,1,0,-1
1470331899660260,3,-3,-3,-24,-4,-1,1,0
1470331899675306,-3,-1,-2,5,-5,-3,-3,-1
1470331899675306,4,5,-1,-1,-7,-4,-1,-1
1470331899675750,1,-5,-1,11,4,-2,1,-1
1470331899675750,-2,2,-2,-12,-2,-4,-2,1
1470331899698269,0,-4,-4,-6,-1,-2,0,2
1470331899698269,-5,-1,-2,-1,-5,1,-1,0
1470331899699269,3,2,2,8,5,2,-2,-1
1470331899699269,-5,4,-2,-5,-2,-3,-1,0
1470331899720825,2,-3,-1,11,2,-3,-1,-4
1470331899720825,-1,-5,-1,-3,3,-1,-1,-1
1470331899721790,0,1,-2,-7,-8,-2,-2,1
1470331899721790,-1,-2,0,12,0,1,-2,-2
1470331899735357,-2,2,1,-18,-4,0,0,4
1470331899735357,0,-4,2,17,2,-1,-1,-3
1470331899736303,5,4,-8,-32,-5,0,-1,-2
1470331899736303,0,0,3,15,1,0,-1,0
1470331899758347,-5,0,3,-8,0,1,-1,-4
1470331899758347,2,1,2,8,4,0,0,-1
1470331899759347,-2,-4,1,2,-3,-2,-1,0
1470331899759347,3,-3,-2,-13,-5,-2,-2,-1
1470331899780891,-1,3,-3,0,3,0,1,0
1470331899780891,-3,-6,-1,2,-4,0,-1,-2
1470331899781845,1,-4,2,9,9,1,0,-1
1470331899781845,-3,0,-2,-2,-2,-2,0,0
1470331899795369,1,0,1,8,-1,-3,-1,0
1470331899795369,0,2,4,-11,-3,-2,-1,-3
1470331899795857,-4,0,-7,-9,-1,-2,-1,-1
1470331899795857,-1,0,2,14,2,0,-1,-1
1470331899818378,2,-12,0,-3,-4,-1,-1,-2
1470331899818378,1,5,-2,-3,3,1,-1,2
1470331899819379,-5,-2,-1,-3,-6,-4,-1,-1
1470331899819379,0,1,2,2,4,-1,-1,2
1470331899840915,-1,-7,0,-8,1,0,-2,-3
1470331899840915,9,1,-5,4,-1,-1,-2,0
1470331899841398,-12,-4,1,6,-1,0,-3,-3
1470331899841398,-1,0,-2,-6,-3,-1,-1,-1
1470331899855411,-1,0,-3,-7,0,-2,0,-1
1470331899855411,-2,-2,-3,-9,-5,-2,-2,0
1470331899855912,4,-3,-1,0,-4,-2,-1,2
1470331899855912,0,-3,-1,12,8,2,1,-1
1470331899885981,-3,1,-2,-1,-1,-3,-1,-1
1470331899885981,-5,3,0,-3,-1,1,2,-1
1470331899886938,1,-6,-2,-5,-4,-2,-2,0
1470331899886938,-4,0,-1,0,-4,-2,-1,0
1470331899901045,-1,-1,0,0,0,-2,-1,-1
1470331899901045,-5,-5,-3,-7,-2,-2,-2,-1
1470331899901491,3,5,-1,6,-4,-2,-1,-2
1470331899901491,1,0,0,-1,1,0,-1,-1
1470331899915498,4,0,-1,-6,-5,-1,0,-2
1470331899915498,0,-2,-3,-3,6,0,0,0
1470331899915964,-13,1,1,-7,-5,-1,-1,-2
1470331899915964,-3,-14,-4,14,3,0,-2,-2
1470331899938492,5,8,3,-3,-1,-1,0,-1
1470331899938492,0,3,-1,-9,-4,-1,-2,-1
1470331899938985,2,0,-1,12,11,1,0,0
1470331899938985,-4,-2,-2,-7,-6,-2,-3,-1
1470331899961022,-4,-5,-3,3,-3,1,-3,-3
1470331899961022,-4,1,0,-2,-3,-2,-1,-2
1470331899961509,1,-1,-1,2,0,0,-1,1
1470331899961509,-1,0,-2,2,-1,-1,0,0
1470331899975518,-7,-3,3,-4,-4,-2,0,-2
1470331899975518,0,-5,-2,9,0,-1,0,0
1470331899976019,4,5,3,9,9,1,0,-1
1470331899976019,1,-5,-7,-4,-8,-1,-1,-1
1470331899998586,-3,-6,-4,-3,6,-1,-2,1
1470331899998586,-5,-2,-1,-1,-4,-2,-2,-2
1470331899999087,12,7,5,2,-3,0,-1,-1
1470331899999087,-19,-1,0,-19,-4,-2,-2,-2
1470331900021116,-1,-4,-4,12,-1,0,-1,1
1470331900021116,-3,0,-3,-5,-6,-1,-3,-2
1470331900021607,1,-5,-3,7,3,0,2,1
1470331900021607,11,3,3,-3,-2,-1,0,-4
1470331900035145,-2,0,0,2,-5,-1,0,1
1470331900035145,-5,-4,-4,-10,-2,-2,-2,0
1470331900036120,-2,-1,-2,-7,-5,-3,-3,0
1470331900036120,0,-2,-3,-5,-1,-2,-2,0
1470331900058152,-1,-1,0,2,2,0,0,-2
1470331900058152,1,4,1,-1,-3,-1,-1,-2
1470331900059141,-1,-5,0,5,3,-2,0,-2
1470331900059141,-2,1,0,0,-3,-2,-1,-3
1470331900080690,0,2,-1,-3,3,1,0,0
1470331900080690,9,-2,-4,-1,-2,-1,-3,0
1470331900081661,-5,-2,0,-4,-3,0,1,-1
1470331900081661,-5,0,-1,-1,-4,-2,-3,-3
1470331900095228,4,3,1,-1,-2,0,-1,2
1470331900095228,-4,-3,1,5,-1,-2,-2,-2
1470331900096222,0,-4,-1,-7,8,-2,-1,0
1470331900096222,5,-4,-3,8,2,0,-1,1
1470331900118249,-11,5,1,-8,-1,0,-2,-4
1470331900118249,4,-2,2,8,1,-2,-1,-1
1470331900119194,0,4,-4,-15,-12,-3,-3,0
1470331900119194,-6,-4,-1,0,3,1,2,-1
1470331900141217,1,-6,-2,8,-4,-3,-1,0
1470331900141217,-3,-1,-2,-4,-2,-3,-2,-2
1470331900141738,-1,-2,-1,0,-1,-1,-2,0
1470331900141738,-1,-9,-7,-7,-2,-1,-2,-3
1470331900155227,2,1,-1,-4,-3,-2,-1,-3
1470331900155227,-4,6,-1,-2,0,-1,0,0
1470331900156228,-8,-7,-1,2,-2,-1,-1,-4
1470331900156228,2,0,2,1,0,-2,-3,-2
1470331900185780,-1,-3,-4,-3,-1,-3,-2,-1
1470331900185780,-1,-7,-3,0,1,0,0,0
1470331900186758,7,10,0,-1,-2,0,1,1
1470331900186758,-5,-3,-1,1,1,-1,-1,0
1470331900200845,1,3,1,2,1,0,-2,-2
1470331900200845,4,-3,1,-2,-4,-2,-1,-1
1470331900201772,-6,-2,-1,14,4,1,0,2
1470331900201772,2,0,-2,-8,-6,-2,0,-2
1470331900214338,0,1,2,4,2,0,0,1
1470331900214338,-4,2,-2,-15,-3,3,-1,-1
1470331900223338,-2,-6,-4,2,-3,-2,-2,-3
1470331900223338,3,1,-1,0,2,0,0,2
1470331900238303,6,0,5,18,8,1,-1,0
1470331900238303,-14,-4,-6,-9,1,-1,1,-2
1470331900240304,1,-2,0,-10,-7,-1,-2,-1
1470331900240304,0,3,0,-2,-1,1,-1,-2
1470331900260822,-1,-9,-5,-11,-6,-4,-3,0
1470331900260822,1,-7,1,8,3,1,1,1
1470331900262332,-2,3,-2,-7,-1,-2,-1,-4
1470331900262332,-1,3,-2,1,-1,2,1,3
1470331900274836,-6,-5,-3,-2,-3,2,-2,-1
1470331900274836,8,0,-2,-1,-6,-5,-3,-2
1470331900283343,-6,-4,-4,-2,-3,-3,-2,-3
1470331900283343,4,-1,1,2,4,1,0,-2
1470331900298356,-9,2,2,0,-1,-1,0,-3
1470331900298356,-5,-6,-3,-1,-2,-1,-1,-1
1470331900299857,0,-3,1,3,3,-1,-2,0
1470331900299857,-2,-1,1,-10,-5,-4,-4,-2
1470331900320919,-1,2,-4,9,2,0,0,-2
1470331900320919,12,-2,0,-6,1,0,0,2
1470331900322394,-9,-8,-4,-1,-6,-3,-1,-3
1470331900322394,-1,3,-2,-2,-1,0,-1,0
1470331900334449,0,-7,-2,-6,-4,-1,0,-3
1470331900334449,-5,2,2,7,-1,-2,-1,-3
1470331900343396,7,2,0,-2,-3,-1,-1,-1
1470331900343396,-7,0,-2,0,-4,-1,-2,1
1470331900358457,-1,1,-2,-9,0,-2,-1,-1
1470331900358457,-5,-4,-1,6,0,0,0,0
1470331900359911,8,18,1,-9,-5,-2,-1,0
1470331900359911,-2,-11,-3,-1,-6,-6,-2,-2
1470331900380984,-1,-4,-3,8,-1,-1,-2,-2
1470331900380984,-4,7,2,2,2,1,0,-2
1470331900382481,-5,-5,3,-6,-5,-3,-2,-2
1470331900382481,0,-2,-8,5,0,-1,-1,0
1470331900394943,2,-3,2,-2,-1,-1,-1,0
1470331900394943,-3,-2,-3,-12,-2,-4,-2,-1
1470331900403449,0,-9,-3,-1,-3,-1,-1,0
1470331900403449,8,6,2,-7,-7,-2,0,-1
1470331900418547,-18,-7,-6,-5,0,-2,-1,-4
1470331900418547,2,2,0,8,-1,-2,-1,0
1470331900419964,3,-2,-2,-1,0,0,0,-1
1470331900419964,-3,-4,0,7,5,2,-2,-1
1470331900440985,1,7,-3,-10,-6,-4,-1,-2
1470331900440985,-9,-2,-1,9,3,0,-1,-1
1470331900442494,9,-3,-4,0,3,2,-1,1
1470331900442494,0,1,0,3,-3,-2,-3,-1
1470331900454500,8,1,-3,-8,0,1,-3,-1
1470331900454500,-4,-6,-2,-5,-7,-2,-2,-3
1470331900463504,-6,-4,1,9,2,0,-2,-1
1470331900463504,-4,3,0,-4,-4,-2,0,-1
1470331900478517,1,-1,1,-2,1,-1,-3,-3
1470331900478517,0,1,-1,-1,1,0,0,1
1470331900480018,-5,-3,2,8,3,1,0,-2
1470331900480018,3,-2,1,-1,-1,0,0,0
1470331900501038,-3,3,1,-6,-4,-2,-2,1
1470331900501038,-2,-5,-3,-1,-1,-1,-2,-1
1470331900502548,-2,-1,0,-1,-1,-1,-2,-1
1470331900502548,0,-2,-4,-5,2,-1,1,-2
1470331900514605,7,-1,2,-14,-3,1,0,0
1470331900514605,-4,-3,-3,21,2,1,-2,-2
1470331900523560,-1,2,1,0,2,1,1,0
1470331900523560,1,-4,-4,-8,-4,0,-2,0
1470331900538571,-3,0,-5,0,-1,-2,0,-2
1470331900538571,1,-1,-3,-12,-4,-3,0,1
1470331900540072,-4,0,2,15,-3,-1,1,0
1470331900540072,1,-1,-3,-4,2,-1,-2,-3
1470331900561093,-3,-2,-2,-2,-5,0,1,0
1470331900561093,-1,1,0,1,0,-1,0,-1
1470331900562623,2,-2,-4,-8,-5,-3,-3,0
1470331900562623,-3,9,7,11,10,1,0,1
1470331900574603,-1,-3,-5,-7,-4,-2,-2,0
1470331900574603,16,2,1,-3,1,0,-2,-2
1470331900583612,-16,-9,0,5,0,-1,-2,-3
1470331900583612,-1,2,0,-2,-1,0,1,-1
1470331900598174,-3,-5,-2,-3,0,1,-1,1
1470331900598174,-1,4,-1,-4,-4,-2,0,-1
1470331900600129,3,2,-3,-6,3,-1,-1,-1
1470331900600129,-1,-5,-1,6,-3,-3,-1,-3
1470331900621145,-2,1,-2,1,-1,-2,0,-1
1470331900621145,-1,1,1,0,-1,2,-1,0
1470331900622646,2,-1,-3,-3,2,-1,-2,-1
1470331900622646,-2,1,-2,-3,1,-1,-1,-3
1470331900643679,-6,-6,0,8,-2,0,-2,-1
1470331900643679,-5,-9,-2,-11,-5,0,-1,-2
1470331900645216,2,2,0,1,0,1,-2,-1
1470331900645216,-1,0,0,4,2,-1,-2,0
1470331900658231,-1,-3,1,4,-3,-1,0,-2
1470331900658231,2,-7,-7,-15,1,0,0,-1
1470331900659680,0,3,-3,13,0,-2,-2,-1
1470331900659680,-1,1,-1,-5,-3,-1,-1,-1
1470331900680699,0,-10,-2,-1,0,1,0,-1
1470331900680699,8,8,2,-1,-1,-3,1,2
1470331900682701,-13,-4,-2,-11,-4,-1,-2,-2
1470331900682701,1,-1,-3,-4,-2,-2,-2,-2
1470331900704220,2,2,1,9,1,-1,-1,-1
1470331900704220,-9,-4,-2,-5,-1,-1,-1,-1
1470331900705721,4,-2,-2,-7,-3,-2,0,0
1470331900705721,-7,-3,0,2,-3,-1,-3,-3
1470331900718235,-3,-6,0,-1,0,-2,0,-2
1470331900718235,-4,8,2,5,-1,0,-2,-3
1470331900720234,5,0,1,-8,-3,-3,-1,0
1470331900720234,-5,-5,-1,7,0,-2,0,3
1470331900747758,2,-2,-3,-4,3,-2,0,1
1470331900747758,6,0,-3,9,-3,-2,-2,-3
1470331900756267,-4,-2,0,-8,-1,3,1,-2
1470331900756267,3,-2,-3,-11,1,0,-1,-1
1470331900763312,-2,3,2,19,2,0,-1,0
1470331900763312,-4,-3,-2,-22,-5,-1,1,2
1470331900765275,7,-6,-1,13,1,0,0,0
1470331900765275,-19,-1,-3,0,-3,-1,-1,-5
1470331900777844,5,1,0,-8,-3,-1,-1,-2
1470331900777844,-4,1,-2,1,0,-1,-1,-2
1470331900784854,5,0,-1,-4,-4,-1,0,-2
1470331900784854,0,-3,3,-1,-1,-2,0,0
1470331900800848,-3,-1,-1,0,-1,-3,-3,1
1470331900800848,-2,5,3,4,0,0,0,1
1470331900802809,-1,-5,-5,-7,-2,-2,-1,-2
1470331900802809,-2,1,1,4,-1,0,-2,-1
1470331900823354,3,-2,-3,0,-2,-2,0,-2
1470331900823354,-6,-6,1,4,2,-1,1,1
1470331900825329,6,1,-3,-5,-2,-3,-3,-4
1470331900825329,11,-1,0,-5,-5,-2,1,1
1470331900837898,-5,-6,-6,-3,1,0,-1,-2
1470331900837898,0,0,-1,2,-1,-1,-2,0
1470331900844860,-5,1,-1,4,1,0,-1,-1
1470331900844860,0,-5,-6,-4,-4,-2,-2,-1
1470331900860886,6,8,-1,-6,-3,-2,-1,1
1470331900860886,0,-2,2,7,3,0,-2,-4
1470331900862378,-9,-4,3,-4,-9,-1,1,1
1470331900862378,8,5,-2,12,5,1,-1,0
1470331900883397,-4,-2,2,-2,2,1,1,0
1470331900883397,-6,4,1,0,1,-2,0,-2
1470331900884887,-2,-4,-1,-1,-1,-2,-1,-1
1470331900884887,-1,-4,-4,-10,-5,-1,-2,-3
1470331900897894,7,2,-1,-6,-5,-1,-2,3
1470331900897894,-5,-4,-2,1,-3,-1,-2,-3
1470331900904416,-4,-8,-7,-4,-3,-3,-1,0
1470331900904416,-5,4,3,6,3,-1,-1,-2
1470331900920915,3,8,-2,-4,1,0,-1,-4
1470331900920915,-1,-20,-4,-1,-3,-3,-3,3
1470331900922416,-1,4,-1,0,0,-1,0,-1
1470331900922416,-7,-11,-6,-3,-2,-2,0,-1
1470331900943437,1,0,-3,-2,-4,-1,-3,-2
1470331900943437,2,-5,1,-1,-2,0,-1,-2
1470331900944959,2,5,2,-2,3,2,-1,0
1470331900944959,0,-4,-5,0,-3,-2,-1,-1
1470331900958448,-10,0,3,-11,2,-1,-1,0
1470331900958448,3,-6,-5,8,-2,0,1,2
1470331900964470,-4,2,-1,-4,0,-3,-3,-2
1470331900964470,2,2,3,4,-5,1,1,0
1470331900981010,2,-4,-7,-10,5,3,-1,0
1470331900981010,-1,5,-1,-3,-3,-2,3,0
1470331900982515,-3,-13,-3,-9,-4,-3,-3,-1
1470331900982515,1,15,2,1,-1,-1,-1,-2
1470331901003537,-3,-7,1,3,-7,-3,-1,-2
1470331901003537,-5,-9,-10,-2,3,0,-3,-3
1470331901004993,3,22,11,8,-1,2,-5,0
1470331901004993,9,-13,-3,-5,2,1,11,1
1470331901018001,-21,-2,1,1,-3,-1,-3,-4
1470331901018001,-1,-2,-6,0,4,1,-2,-1
1470331901024551,2,-7,-3,1,-2,0,2,0
1470331901024551,-11,-5,-2,-18,-3,-3,-11,-5
1470331901041034,17,1,0,17,1,0,3,1
1470331901041034,1,2,0,-10,-6,-2,0,-1
1470331901042523,-5,-2,-7,0,2,-1,-5,-3
1470331901042523,-2,3,1,0,1,1,-1,2
1470331901063543,-5,-7,-5,-13,-5,-3,4,0
1470331901063543,-2,-2,3,4,1,1,-4,-3
1470331901065043,2,5,-1,-4,-3,-1,-7,-1
1470331901065043,3,-3,-2,-4,0,0,9,1
1470331901077113,-4,0,1,10,-3,-3,0,-1
1470331901077113,5,3,1,2,-1,4,-2,1
1470331901086063,-9,-2,-7,-7,2,0,11,-2
1470331901086063,-4,-4,2,1,-1,-1,-2,-2
1470331901101076,7,3,-1,9,1,-1,1,1
1470331901101076,-1,2,0,-13,-6,-4,-15,-1
1470331901102641,0,-5,2,17,6,0,14,-1
1470331901102641,3,8,-2,3,0,0,2,2
1470331901124175,2,1,-1,-12,-7,2,2,0
1470331901124175,-2,-3,-3,1,4,-2,-5,-2
1470331901125598,7,-2,0,-8,-3,-1,-7,-1
1470331901125598,-3,-6,-1,-4,-2,-1,-2,-1
1470331901137108,-3,-2,0,-3,2,-3,-6,-1
1470331901137108,-3,1,-1,9,2,-1,4,-3
1470331901146121,-4,-5,1,-2,-7,-2,-6,-1
1470331901146121,0,-4,-7,-1,14,0,8,0
1470331901161157,-3,3,6,-7,-6,-2,-7,-3
1470331901161157,-3,-2,-1,7,1,0,0,-3
1470331901162631,1,-2,-2,0,-3,-2,4,0
1470331901162631,-1,-7,-3,0,-7,-3,-10,-3
1470331901183677,-3,3,-1,-3,1,0,0,2
1470331901183677,2,-2,2,-5,0,0,7,2
1470331901185200,-4,2,-1,2,1,-1,-6,0
1470331901185200,-10,-2,0,-11,-3,0,0,-3
1470331901197218,0,-6,-1,14,7,1,-11,-3
1470331901197218,1,-6,1,-4,-5,-2,10,0
1470331901206213,1,13,-3,-1,-2,0,5,1
1470331901206213,2,-4,-4,-5,-7,-5,-13,-2
1470331901221184,-3,-2,-1,2,2,1,8,-2
1470331901221184,2,-1,-3,0,-1,-1,-4,-1
1470331901222693,2,-8,-1,-7,-1,-3,-13,-8
1470331901222693,3,11,3,-5,-1,-1,-7,-1
1470331901243704,-3,-5,-1,14,-2,-1,12,0
1470331901243704,-3,-3,-2,-13,-4,-3,-4,-2
1470331901245224,-2,-1,-6,7,2,-2,-4,1
1470331901245224,-3,-12,-1,-1,-3,-2,0,0
1470331901257278,-3,8,-2,-15,-5,-3,-4,-4
1470331901257278,-2,-11,-3,5,-1,0,-1,-1
1470331901266225,-1,-4,2,-6,-3,1,4,2
1470331901266225,1,1,-2,3,-1,0,-3,-1
1470331901280738,-1,1,0,3,1,0,3,0
1470331901280738,-2,-8,-1,5,2,-3,-2,-2
1470331901282749,-1,16,-2,-7,15,5,0,2
1470331901282749,-6,-5,2,6,-1,-1,-4,-3
1470331901303301,2,-3,-2,-2,-4,-2,2,5
1470331901303301,-2,8,-3,7,-6,-7,-7,-5
1470331901305265,3,-3,-4,-5,-2,-2,-6,1
1470331901305265,2,3,-2,3,3,5,2,2
1470331901317271,-4,-1,2,1,-1,0,0,-3
1470331901317271,5,1,-1,-2,-1,2,3,0
1470331901326279,-11,-13,-2,0,-3,-4,4,-4
1470331901326279,5,2,2,-3,-4,-1,-10,-6
1470331901340824,-5,-1,-5,-9,-4,-3,-14,-6
1470331901340824,-1,-7,-1,-13,0,-2,1,1
1470331901342794,-3,9,2,5,-3,-2,-7,0
1470331901342794,7,-2,0,1,0,1,-7,-4
1470331901363315,-9,-10,-8,-10,2,0,3,-3
1470331901363315,3,5,1,-3,1,-2,-6,-2
1470331901365314,-4,-3,3,-6,-8,-2,4,-1
1470331901365314,-4,-7,-1,0,-2,-4,6,0
1470331901377324,2,3,-2,3,-1,-2,-7,0
1470331901377324,-1,3,1,3,5,3,2,-1
1470331901386336,0,-5,-3,-9,-4,1,-2,-2
1470331901386336,-6,-7,3,-5,-8,-5,3,3
1470331901400874,11,-4,-2,5,5,-4,0,0
1470331901400874,-18,6,-2,11,0,7,-14,-2
1470331901402347,6,-4,-1,-7,-5,-1,29,0
1470331901402347,0,1,-3,6,2,-3,-2,1
1470331901423409,-1,-2,2,3,-5,-4,-15,-4
1470331901423409,-1,-3,-1,-10,-2,0,18,5
1470331901424870,4,-4,0,9,1,-2,-10,1
1470331901424870,2,1,-3,-7,-6,0,14,-4
1470331901437378,0,5,0,-14,-3,0,-10,-1
1470331901437378,-6,1,-6,0,-4,-3,5,-2
1470331901445911,-1,-5,-2,3,5,1,-5,-1
1470331901445911,1,-1,2,-2,-1,0,3,2
1470331901460941,2,0,2,17,5,2,3,-1
1470331901460941,-3,-5,0,-14,-1,-2,-1,-3
1470331901462400,-4,0,2,-4,-5,-1,-2,0
1470331901462400,0,-1,-4,21,11,0,-6,-3
1470331901483475,-2,-4,-5,-9,-1,-1,14,5
1470331901483475,9,13,10,12,-6,-2,-2,-3
1470331901484966,-5,-10,-9,-20,2,-5,-4,0
1470331901484966,-7,6,-7,-4,0,3,-3,-1
1470331901496987,0,-12,1,-9,-6,1,5,-1
1470331901496987,11,6,2,10,-1,-3,-4,3
1470331901505945,-10,6,-2,1,-6,-2,-14,-4
1470331901505945,-6,-4,2,10,8,1,13,0
1470331901520453,-3,-4,-2,-10,-5,-1,-3,-2
1470331901520453,-3,-5,-5,-11,-3,-1,-7,-2
1470331901526962,5,-1,1,6,0,2,-1,-4
1470331901526962,1,0,0,-5,-6,-5,-10,-2
1470331901543509,-3,-6,-1,-8,-4,0,6,-2
1470331901543509,-2,-1,-1,11,8,1,-2,-1
1470331901544975,6,-6,-2,4,-2,-2,0,0
1470331901544975,-9,-1,-3,-10,-5,-1,-2,-1
1470331901556987,2,9,-2,-5,-4,-2,-1,-4
1470331901556987,0,-6,-1,-8,1,0,7,3
1470331901565995,-2,4,4,6,-2,0,0,-1
1470331901565995,-2,-6,-7,-12,2,0,0,-2
1470331901580507,-2,-1,1,-9,-3,1,-5,1
1470331901580507,-3,-6,-6,1,-7,-5,0,-3
1470331901587029,6,8,4,7,6,0,-1,-2
1470331901587029,1,0,2,-4,-2,-3,-7,-3
1470331901603531,5,-6,-5,4,4,0,-2,1
1470331901603531,-12,2,2,-8,-6,-4,-2,-5
1470331901605029,-3,-7,-6,-4,-5,-1,-11,-2
1470331901605029,0,0,4,6,-1,3,2,3
1470331901626047,2,0,0,17,7,-3,16,-2
1470331901626047,-1,1,0,-6,2,1,-12,-7
1470331901627555,-2,0,-3,-8,-7,-4,-4,2
1470331901627555,1,3,-1,-10,-1,-3,-7,-3
1470331901640118,-8,4,4,28,-8,-3,-3,-3
1470331901640118,4,2,2,-12,1,1,2,1
1470331901647099,-7,-9,-8,-7,3,-2,5,-3
1470331901647099,0,-4,-6,-18,-8,-1,-2,-1
1470331901663581,-5,0,-3,-10,-2,0,-3,-3
1470331901663581,-1,-2,2,8,-2,-4,-5,-1
1470331901665083,3,-3,-1,-6,-6,0,1,-1
1470331901665083,-3,3,2,9,4,1,4,-2
1470331901686101,1,-5,-3,17,10,1,-3,-1
1470331901686101,2,5,1,-8,-4,-3,-18,-2
1470331901687603,-1,-4,0,4,1,1,27,4
1470331901687603,-1,0,1,-15,-8,-5,11,4
1470331901700146,1,-4,-2,-8,0,-1,-6,-1
1470331901700146,-2,0,-3,16,1,-1,-2,0
1470331901714670,-5,-1,-2,-11,1,0,5,0
1470331901714670,12,5,1,8,-5,0,-10,-3
1470331901723638,-9,-6,-3,-12,1,1,5,0
1470331901723638,9,-5,-6,-13,-4,-1,5,-1
1470331901725137,-3,-1,7,11,-2,-3,-6,0
1470331901725137,-5,-6,1,21,2,-3,-8,-3
1470331901746159,2,1,-13,-57,-7,-2,-2,0
1470331901746159,-3,-6,-3,12,2,-1,-4,-5
1470331901747657,3,3,2,4,-1,0,1,-1
1470331901747657,8,11,3,17,4,2,-6,3
1470331901760172,-17,-5,-4,-24,-9,-2,-2,-1
1470331901760172,3,-2,1,18,6,-1,4,1
1470331901767175,1,-7,0,-2,-3,-1,-5,-2
1470331901767175,-4,5,1,-2,-6,-1,0,-5
1470331901783690,3,16,2,0,3,1,-1,0
1470331901783690,-6,-15,-4,-24,-8,1,4,0
1470331901785192,0,1,-2,13,4,-1,-6,-1
1470331901785192,-3,-7,-5,-9,-5,-3,7,-2
1470331901805725,4,0,4,7,-5,-2,-8,-2
1470331901805725,-4,2,-1,0,2,1,8,1
1470331901807211,-6,5,-3,0,0,-1,-1,-2
1470331901807211,-5,-19,-4,-11,-2,-1,-16,-7
1470331901820303,10,4,3,24,3,1,2,0
1470331901820303,-26,4,-3,-11,-1,-4,1,-3
1470331901827248,-3,-9,-3,-19,-5,-1,-13,-3
1470331901827248,-4,4,-1,12,5,2,3,1
1470331901843817,14,-10,-3,-14,-8,-2,-6,-1
1470331901843817,8,6,3,31,6,-1,0,2
1470331901845245,-4,3,2,-7,-5,-4,1,-3
1470331901845245,-8,-11,-2,-7,1,-3,-1,1
1470331901865763,-3,-1,-1,7,6,3,1,-4
1470331901865763,-1,2,0,-11,-7,0,0,0
1470331901867266,2,-4,-4,-1,-3,-2,-10,0
1470331901867266,-2,1,-2,-6,-3,0,-4,-7
1470331901879781,8,5,-1,5,-4,-5,-13,-3
1470331901879781,-10,-10,-10,-17,-2,2,3,1
1470331901888784,-3,-1,13,25,3,1,4,0
1470331901888784,3,-5,-6,-18,-2,-2,0,0
1470331901903332,-4,3,1,12,-1,-3,-5,3
1470331901903332,6,-5,-5,-8,-3,-1,3,-4
1470331901905298,0,-4,-2,-21,-5,0,0,-2
1470331901905298,3,1,0,41,7,0,6,0
1470331901925861,-3,-11,-4,-13,-1,-2,3,-3
1470331901925861,-5,8,2,-3,-6,-3,2,2
1470331901927320,11,5,0,8,9,1,-7,-2
1470331901927320,-25,1,2,-11,-6,-4,-7,-4
1470331901939829,-5,3,0,6,1,2,9,5
1470331901939829,12,-13,1,-2,-1,-1,-6,-1
1470331901948337,0,0,-6,-9,-5,-3,-3,-4
1470331901948337,-2,-6,-4,-2,-2,0,-8,0
1470331901963393,-1,4,4,8,3,-1,12,0
1470331901963393,6,15,3,-4,-2,0,0,2
1470331901964858,-4,-5,-4,1,0,0,-3,-1
1470331901964858,7,2,-1,-7,-1,0,2,2
1470331901985888,-8,-11,-2,0,-5,-4,-8,-4
1470331901985888,-4,-9,-5,-3,-2,0,0,-2
1470331901987873,3,-3,-2,-3,-1,-1,-7,-4
1470331901987873,-5,9,3,6,-2,-1,3,1
1470331901999383,-4,0,-11,-17,-6,-4,-7,-4
1470331901999383,-4,-3,0,5,2,-2,-5,-4
1470331902008391,-1,0,-2,8,0,2,1,0
1470331902008391,-1,-6,0,-2,3,0,4,2
1470331902023460,11,1,-1,4,-1,0,-3,-1
1470331902023460,-18,-5,2,-10,-3,-4,-1,-2
1470331902024921,0,7,-1,-3,-5,0,6,2
1470331902024921,4,0,2,21,14,3,4,0
1470331902045959,-7,3,-3,-4,-2,-2,-1,1
1470331902045959,3,-1,1,-5,-3,-1,-6,-6
1470331902047456,-8,4,1,-1,-2,-1,3,0
1470331902047456,7,3,-3,-7,-9,-4,-3,0
1470331902059440,8,2,5,12,3,0,-1,2
1470331902059440,-2,-4,3,-7,1,0,-2,-1
1470331902068445,-1,0,-3,4,1,-2,-2,-1
1470331902068445,0,-12,-8,-16,-4,-2,0,-2
1470331902083501,-6,9,3,2,0,-1,4,-4
1470331902083501,-3,-22,-8,1,0,0,-4,1
1470331902085006,-5,0,-2,-3,-1,-3,11,-2
1470331902085006,2,6,4,-6,-4,-4,-2,0
1470331902106021,-6,-3,-13,-4,-6,-3,6,0
1470331902106021,13,13,0,-2,3,2,-3,1
1470331902107480,-8,-5,-2,4,-1,-2,0,-2
1470331902107480,-3,-3,-4,-12,-15,-9,-2,2
1470331902120034,3,4,2,2,11,9,-7,-4
1470331902120034,-8,-9,-4,7,3,-1,3,-5
1470331902128500,-1,-5,0,-6,-10,-1,-6,3
1470331902128500,9,3,-1,14,9,-1,1,-3
1470331902143516,-3,9,-2,-14,-10,-3,2,-1
1470331902143516,7,-13,-2,12,-6,-4,-6,4
1470331902145015,-9,-9,-10,-12,14,8,-4,-5
1470331902145015,-1,-5,-2,-7,-14,-7,-2,-2
1470331902166033,3,-10,6,13,17,4,3,2
1470331902166033,-1,25,-6,-18,-3,1,-9,-8
1470331902167535,1,15,-1,-3,-9,-7,4,0
1470331902167535,-9,2,-5,-4,4,6,-1,-2
1470331902188553,6,-23,-2,0,-7,-8,-10,0
1470331902188553,-4,1,4,-1,-36,-12,14,4
1470331902190054,3,-9,1,5,64,23,-4,-4
1470331902190054,-9,-2,0,10,-5,-5,0,0
1470331902203566,-10,5,1,4,0,2,-5,-2
1470331902203566,6,-5,-3,-1,-8,-4,-1,0
1470331902205072,5,-2,-6,-10,-20,-9,-4,-1
1470331902205072,-5,0,-1,-9,5,4,1,-2
1470331902226086,-7,-1,-1,4,-4,-5,0,-2
1470331902226086,-2,-4,-12,-1,5,-5,-2,0
1470331902227611,3,-28,1,-4,-10,3,-3,-3
1470331902227611,-4,-2,-7,-8,8,0,2,-1
1470331902239600,-5,0,12,3,-16,-6,-3,4
1470331902239600,4,19,-9,-5,11,4,5,3
1470331902248606,-3,-15,1,7,-4,-6,-4,-1
1470331902248606,9,15,2,-6,-8,-2,1,1
1470331902263619,4,-5,-5,-5,0,1,-2,-2
1470331902263619,2,-9,14,2,7,5,-1,0
1470331902265121,0,12,-6,4,-2,-4,1,2
1470331902265121,-2,3,6,6,-4,-1,0,-2
1470331902286140,7,-4,-6,-2,2,2,2,0
1470331902286140,1,10,-1,1,4,2,-3,-2
1470331902287657,0,9,9,2,-11,-5,-1,-1
1470331902287657,3,-2,-3,-5,-1,0,-14,-9
1470331902299652,-11,-3,-8,-2,3,-1,0,-3
1470331902299652,9,12,8,2,-1,-2,0,2
1470331902308678,-9,-14,1,-3,-2,1,-1,-2
1470331902308678,-9,-26,-4,-7,-14,-7,1,-1
1470331902323229,-5,11,2,7,35,4,-1,-2
1470331902323229,4,-18,7,6,-10,7,1,0
1470331902325209,3,43,-2,5,2,-9,-1,1
1470331902325209,6,-1,1,1,-4,4,3,3
1470331902345749,-1,13,1,-5,-17,-7,-2,-3
1470331902345749,-2,-50,-6,5,2,-4,-5,-3
1470331902347695,-18,16,-17,-32,2,2,0,-2
1470331902347695,5,-38,-3,-1,0,1,1,0
1470331902359706,5,-2,3,-1,-4,-2,-1,2
1470331902359706,-8,27,1,0,0,-2,-2,-4
1470331902368730,-2,-25,1,13,-5,-3,-2,1
1470331902368730,3,14,-3,2,4,-3,0,0
1470331902383758,1,-12,-3,-1,-2,-2,0,-1
1470331902383758,-3,4,-3,-9,1,8,-2,-2
1470331902385230,3,-31,-1,8,-1,-7,0,1
1470331902385230,15,61,11,-3,1,-1,8,7
1470331902406253,-14,-1,-3,-3,-7,-3,-2,-3
1470331902406253,4,15,-4,-6,1,-3,-1,0
1470331902407751,0,-37,3,-1,-5,-1,-1,-1
1470331902407751,-11,-8,-5,2,4,3,0,-2
1470331902419317,7,-11,-6,-5,-10,-3,-3,-2
1470331902419317,-8,35,4,-7,-1,-4,0,1
1470331902428769,0,6,-7,-2,-18,-7,-20,-5
1470331902428769,-2,-7,1,1,24,9,24,0
1470331902442786,3,5,-1,-8,-1,-2,-5,-1
1470331902442786,-19,-4,2,13,16,1,1,-4
1470331902449287,5,-4,0,5,-8,-1,-1,1
1470331902449287,2,8,7,-7,-5,-5,-4,0
1470331902465801,-12,-15,-11,-9,-7,-2,-1,-2
1470331902465801,9,-5,-3,-3,-2,-1,4,1
1470331902467303,0,15,4,-6,-4,-2,2,-1
1470331902467303,-8,-22,-4,1,-5,-2,-6,-2
1470331902479814,2,10,5,6,0,0,3,0
1470331902479814,-2,-8,-1,4,-8,-5,-5,4
1470331902488322,-8,1,-8,-6,10,1,7,-2
1470331902488322,3,-14,-2,0,-1,2,-8,-3
1470331902502888,1,19,4,1,-2,-3,0,-2
1470331902502888,-1,1,-4,-2,1,1,-1,-2
1470331902509873,8,17,4,2,-1,-3,2,1
1470331902509873,-5,-2,-5,3,-3,-1,-3,-3
1470331902525897,4,-17,-4,-6,2,5,0,2
1470331902525897,-14,-25,-3,2,-3,-3,-1,-3
1470331902527931,-4,-43,-14,-6,3,-1,-3,-6
1470331902527931,-1,22,1,-6,-7,-6,-5,0
1470331902548375,1,-9,-2,-3,-3,-2,0,0
1470331902548375,1,-5,-5,-2,0,0,-23,-4
1470331902550413,-8,-1,3,1,-9,-3,28,1
1470331902550413,-1,-8,0,15,-1,-4,-5,1
1470331902562901,-1,2,-4,10,25,9,-2,-1
1470331902562901,3,3,5,-4,-3,0,5,2
1470331902569903,7,17,1,-7,0,2,-8,-1
1470331902569903,-3,3,-5,-10,-14,-5,-3,-3
1470331902585928,-7,-3,-1,2,-11,0,5,-1
1470331902585928,3,-5,1,-3,25,1,1,1
1470331902587411,-2,13,-1,8,0,2,-6,-2
1470331902587411,2,-18,-8,-7,-5,-3,1,2
1470331902608430,-8,-3,2,-3,-4,-5,-6,-2
1470331902608430,-2,15,2,-4,-14,-4,-1,-2
1470331902609932,14,-9,-6,-11,-4,-3,-4,3
1470331902609932,-20,-3,1,6,13,4,-3,-7
1470331902622943,-3,-10,1,0,0,-2,0,-2
1470331902622943,-1,-2,-6,-2,-5,-2,3,0
1470331902629950,5,24,8,-3,1,-3,-1,1
1470331902629950,-5,-4,-2,3,-1,2,-2,-1
1470331902646011,-2,-5,1,1,-4,0,-1,-1
1470331902646011,3,-18,-7,-4,-3,-2,2,-1
1470331902647465,-3,-9,2,12,6,0,-5,-2
1470331902647465,-1,7,-8,-7,-7,-6,-4,-1
1470331902668488,-4,12,1,-6,-1,-3,3,3
1470331902668488,7,-1,-2,9,0,8,3,0
1470331902669986,-5,8,5,3,4,-5,-1,-2
1470331902669986,7,-3,-8,-23,3,3,1,1
1470331902682996,1,-3,0,1,4,-2,-1,-2
1470331902682996,-6,3,-1,-7,-9,-5,-4,-3
1470331902689505,3,-8,1,7,0,6,-1,1
1470331902689505,3,-3,5,5,-9,-3,2,-2
1470331902706046,5,-7,-6,-2,-19,-1,-4,0
1470331902706046,-23,3,-2,-10,22,-1,0,-5
1470331902707518,-4,13,1,3,-17,-3,-2,-1
1470331902707518,7,-9,0,-1,4,-1,-3,-1
1470331902728562,-1,-1,-5,1,-6,-3,-4,-3
1470331902728562,12,-4,-2,7,-2,0,8,4
1470331902730039,-7,3,-1,-3,2,-2,0,0
1470331902730039,-4,-5,0,-2,1,1,0,-1
1470331902743052,2,4,1,-2,1,0,-4,-1
1470331902743052,-4,-4,-3,-7,-9,-4,-1,1
1470331902749604,-2,-38,-5,8,5,1,-1,0
1470331902749604,4,51,11,7,-1,0,-3,-1
1470331902766071,-6,-1,-1,-12,2,2,1,-1
1470331902766071,5,-2,-2,-2,5,0,-1,-2
1470331902767575,-2,-4,-4,-2,-2,1,0,0
1470331902767575,-6,-24,1,3,-1,1,-1,-3
1470331902788599,5,12,6,9,0,-3,0,-1
1470331902788599,-10,-6,-7,-3,-7,-1,-2,0
1470331902790092,-6,8,-1,-8,-3,-1,-2,-3
1470331902790092,12,13,2,6,0,-2,-2,0
1470331902803121,-21,-1,-5,-19,0,-2,-3,-4
1470331902803121,1,-16,-2,6,-4,-1,-2,2
1470331902809633,4,12,-1,-4,4,-2,2,1
1470331902809633,-3,-8,-6,-3,10,1,-1,-1
1470331902826125,2,-6,-2,3,-7,-3,-2,0
1470331902826125,2,7,1,11,2,1,6,-1
1470331902827626,-5,3,-2,-6,-7,-2,0,-3
1470331902827626,8,-3,2,0,-5,-2,1,2
1470331902848162,-5,-2,-7,-1,6,2,-1,0
1470331902848162,-3,8,6,-4,-9,-5,-2,1
1470331902850146,-8,-23,-14,-6,-3,-2,-4,-4
1470331902850146,-2,-6,7,-2,4,-3,0,1
1470331902862683,6,-5,-1,7,1,2,2,2
1470331902862683,-4,-7,-3,-6,-4,0,-2,-2
1470331902869664,9,7,0,-9,-2,0,-2,1
1470331902869664,-21,-14,-1,4,4,-1,-4,-5
1470331902885682,-1,9,-4,-6,-3,-2,-1,0
1470331902885682,3,9,8,6,4,0,-2,-1
1470331902887680,0,4,5,2,0,0,-2,1
1470331902887680,2,-7,-3,7,-8,-2,1,-1
1470331902908707,0,-14,2,-11,-1,-3,-1,-1
1470331902908707,0,-4,-3,4,1,0,-4,-5
1470331902910202,-4,4,3,-3,2,1,2,4
1470331902910202,1,-1,-2,-1,-5,-2,6,3
1470331902930764,-4,-6,2,6,-16,-4,1,-2
1470331902930764,6,6,-7,-12,18,-1,-3,-1
1470331902932721,-4,-9,0,-2,-6,-1,-4,-5
1470331902932721,2,6,-3,1,-9,-2,3,3
1470331902946233,-5,2,0,2,1,-2,-4,-3
1470331902946233,2,-11,-2,0,-11,-3,1,-2
1470331902947777,-2,-3,-6,-1,0,-1,-2,-1
1470331902947777,6,10,-2,-6,6,2,-4,0
1470331902975801,-8,-15,-4,0,-2,-2,1,-2
1470331902975801,-1,4,-1,-2,-5,-3,-5,-3
1470331902977261,1,10,4,-9,-4,-1,-2,-2
1470331902977261,4,-13,-2,13,12,1,-2,0
1470331902982818,5,14,2,-5,4,0,6,5
1470331902982818,-3,4,3,-5,0,1,4,3
1470331902989772,6,-6,-3,3,-1,-3,-1,-1
1470331902989772,-8,-5,-4,-16,-6,-1,-1,-4
1470331903005805,4,-8,0,8,5,1,3,1
1470331903005805,0,9,0,0,-3,0,-3,-3
1470331903007288,5,6,2,-21,-7,-9,0,0
1470331903007288,-10,-1,1,13,7,4,-2,-1
1470331903028362,1,-5,-4,6,6,1,-5,-6
1470331903028362,-1,-11,-2,-2,-7,0,-2,2
1470331903029809,-6,0,0,2,0,-2,-1,-2
1470331903029809,14,2,-1,-6,-3,-4,-5,-2
1470331903042319,-11,1,-4,-1,-2,-1,2,-1
1470331903042319,1,2,3,8,0,-3,-4,-1
1470331903050885,-1,8,1,-3,-2,3,-3,0
1470331903050885,-7,-8,-6,-11,-2,0,0,-1
1470331903065849,8,-1,3,3,-3,1,8,1
1470331903065849,-4,-5,-3,-3,-3,-3,-2,-4
1470331903067342,-8,-9,-12,7,0,-1,1,-2
1470331903067342,3,2,-1,-7,-9,-4,-9,-4
1470331903088389,10,9,0,1,1,-2,-5,1
1470331903088389,-9,10,2,2,2,2,3,-1
1470331903090363,-9,-14,-2,5,1,-1,-4,-4
1470331903090363,-3,6,-3,-5,-4,0,2,0
1470331903102374,-2,0,-2,-4,-6,-2,-15,-7
1470331903102374,-2,-10,-1,-1,2,0,1,-3
1470331903110882,3,2,1,6,6,0,1,3
1470331903110882,-6,-3,-2,-5,-2,-1,-1,-4
1470331903125924,0,0,2,3,-4,-3,-2,-1
1470331903125924,12,1,-11,-5,0,0,-2,4
1470331903127396,-22,-8,2,-4,-2,2,-3,-6
1470331903127396,2,7,-3,2,0,-2,2,0
1470331903148414,0,2,4,2,1,0,-4,0
1470331903148414,-4,-5,0,3,-5,-2,0,-1
1470331903149916,8,2,0,-4,-2,0,1,1
1470331903149916,-3,-10,-4,2,2,-1,-1,4
1470331903162427,-5,-1,-4,-4,-1,-1,3,-1
1470331903162427,0,5,1,-2,-3,-3,-3,1
1470331903170939,2,7,4,5,9,1,1,0
1470331903170939,-2,-6,-2,-2,-6,-4,-5,-2
1470331903185949,-4,-2,-4,-1,-1,4,1,-3
1470331903185949,0,-7,0,-4,-2,-3,0,-1
1470331903187451,-6,-4,-4,6,-2,-1,0,-1
1470331903187451,1,0,6,13,3,-2,6,1
1470331903208480,-2,-2,-2,4,4,-1,0,0
1470331903208480,6,-12,1,-1,-2,-1,0,1
1470331903209971,-9,9,-3,-2,1,-1,0,0
1470331903209971,-11,-6,-1,-2,-7,-4,-2,-1
1470331903222482,6,4,2,7,1,-1,-10,-1
1470331903222482,-4,5,-4,-19,-5,0,12,-1
1470331903230992,10,1,2,2,-4,-2,-6,0
1470331903230992,-3,3,-1,-25,-3,1,-1,-4
1470331903246005,-6,-7,-4,6,-4,-3,-2,2
1470331903246005,0,-1,2,15,6,0,-6,0
1470331903247504,6,3,1,-36,-12,-4,-2,-5
1470331903247504,-1,-5,-4,19,6,0,-2,-5
1470331903268541,1,8,-1,-9,10,1,1,-2
1470331903268541,-5,-4,-3,-5,-18,-6,-1,0
1470331903270029,2,7,-1,12,32,10,3,1
1470331903270029,1,3,-1,-23,-17,-5,-5,-2
1470331903282036,-7,-11,-2,7,2,-2,2,-1
1470331903282036,2,-3,-5,13,-2,-2,-5,-2
1470331903291043,-3,7,8,-8,-10,1,-2,0
1470331903291043,0,-9,-3,1,7,2,0,-1
1470331903306056,-1,-12,-12,-20,-4,-1,-3,-1
1470331903306056,-3,-12,2,-7,-1,-3,3,0
1470331903307559,-1,4,-2,18,-6,-5,-1,-3
1470331903307559,0,2,1,-19,5,1,-2,-1
1470331903328664,4,0,3,6,-6,-1,1,0
1470331903328664,-12,1,-2,-5,0,0,-4,-4
1470331903330077,6,-8,-4,-15,-11,-6,-16,-3
1470331903330077,-5,0,4,13,-1,1,5,1
1470331903342134,7,3,4,27,10,0,-3,1
1470331903342134,2,-4,-6,-14,1,0,0,-1
1470331903351096,-5,-3,-5,1,-14,-7,-3,1
1470331903351096,-4,-7,-5,19,7,8,-1,0
1470331903366112,0,4,1,-18,-3,-9,0,-3
1470331903366112,-9,-7,5,26,-9,4,2,2
1470331903367611,2,2,2,6,17,3,9,-1
1470331903367611,-1,0,-6,-43,-18,-6,-7,-3
1470331903388642,-1,-4,1,-3,2,-1,4,1
1470331903388642,3,7,-5,4,-10,-9,-5,-1
1470331903390176,3,-3,-1,3,-17,-4,3,-2
1470331903390176,-5,-1,2,4,16,18,2,-2
1470331903402182,2,3,-1,-9,5,3,-10,-2
1470331903402182,-1,5,2,7,-3,-7,0,-3
1470331903411186,6,-8,-4,12,-2,-2,2,1
1470331903411186,-12,0,-6,-11,-5,-8,-5,-3
1470331903425196,6,6,0,-4,-16,-4,-2,-2
1470331903425196,-2,-5,7,22,10,6,-1,-1
1470331903432222,-1,-1,-8,-32,4,-1,0,-1
1470331903432222,6,-9,4,15,-5,-6,2,3
1470331903448683,-8,14,-3,-11,-2,0,2,-3
1470331903448683,0,-4,-8,24,-4,-2,4,0
1470331903450186,1,-3,-1,-14,17,6,1,1
1470331903450186,2,4,1,-32,-49,-15,-3,-1
1470331903471204,-12,-9,-4,58,65,17,2,0
1470331903471204,13,4,3,-28,-6,3,2,4
1470331903472705,-2,-1,3,11,-6,-7,-3,-3
1470331903472705,-9,5,-5,-14,-5,-3,0,1
1470331903485259,-1,-7,1,-26,-28,-11,-2,-4
1470331903485259,-5,5,-5,-3,36,12,-3,-2
1470331903492225,-3,-6,1,-4,-7,6,3,2
1470331903492225,9,4,1,13,5,-6,-4,-4
1470331903508738,-4,-12,-2,4,-16,-5,0,-1
1470331903508738,-3,2,-3,-25,7,1,-8,-3
1470331903510243,-1,1,0,6,-8,-4,-6,0
1470331903510243,3,-8,-4,24,6,2,14,0
1470331903531259,-1,5,8,18,8,2,2,-1
1470331903531259,2,-1,-5,-14,8,0,-4,-3
1470331903532760,-3,0,-1,-18,-18,-6,-4,-1
1470331903532760,-2,-3,0,16,29,2,-4,-5
1470331903545271,2,-4,-6,-18,-15,1,0,3
1470331903545271,-7,-4,2,3,-9,-4,1,-5
1470331903552277,2,0,-4,33,3,2,3,2
1470331903552277,2,2,1,-17,2,-2,-2,-3
1470331903568347,-2,-8,-2,-7,-5,-5,-3,0
1470331903568347,-7,1,3,3,-2,2,-2,-1
1470331903570293,-3,-10,-4,-14,6,4,5,0
1470331903570293,5,2,5,16,1,-2,-4,-2
1470331903590812,5,-11,-4,-10,-6,-1,0,-1
1470331903590812,-19,-4,-3,-33,-9,-2,5,3
1470331903592313,11,15,7,23,15,0,0,2
1470331903592313,-7,-9,3,6,0,1,0,1
1470331903605383,3,0,-7,-14,-6,-4,-1,-1
1470331903605383,4,3,1,-2,-4,-5,-2,1
1470331903612332,-7,-2,0,1,-9,-2,-13,-1
1470331903612332,-2,7,3,15,6,2,19,1
1470331903628345,-1,-3,1,-45,-11,-2,-6,-2
1470331903628345,4,10,1,27,-1,-3,-1,-3
1470331903629882,-3,-6,2,8,5,-3,-8,-2
1470331903629882,2,1,-3,-18,-10,0,-8,-1
1470331903650909,-6,-9,-3,7,6,1,0,-1
1470331903650909,2,0,-6,-25,-6,-3,1,-2
1470331903652367,-5,-9,-2,6,-5,-4,5,-1
1470331903652367,4,6,-1,13,9,3,-2,3
1470331903665378,-1,5,7,-3,-1,0,-3,1
1470331903665378,-3,-6,-13,7,-1,-1,-6,0
1470331903671937,6,-1,-2,-34,-15,0,5,-1
1470331903671937,-7,0,-3,23,6,2,-2,-1
1470331903688404,-7,3,-6,7,-1,-3,-6,-4
1470331903688404,8,0,6,-9,-4,-7,-4,-2
1470331903689901,-9,-9,-6,-4,6,2,1,-2
1470331903689901,11,18,-1,-19,-13,4,-3,3
1470331903710977,-3,-9,-1,14,2,-2,-3,-3
1470331903710977,-3,-1,-1,2,4,-3,-1,-1
1470331903712421,-7,-9,-1,1,-9,-4,2,-4
1470331903712421,-5,-5,-2,9,25,4,-7,0
1470331903724433,1,2,-3,-33,-5,-2,-2,-2
1470331903724433,2,-5,3,9,-10,-4,-3,-2
1470331903733440,-2,6,1,21,11,-2,0,0
1470331903733440,1,1,-6,-12,2,-2,-2,-2
1470331903748454,-4,-6,6,3,-4,2,6,1
1470331903748454,-1,-8,-2,-21,2,-2,-2,-2
1470331903749956,3,9,2,14,-14,-9,-6,-4
1470331903749956,-8,-8,-1,0,-4,4,0,-2
1470331903770974,3,6,-7,6,10,3,5,-1
1470331903770974,-3,3,3,7,-4,-1,-3,-1
1470331903772475,10,-2,-3,-25,0,1,4,3
1470331903772475,-22,-7,-1,13,-10,-9,-2,-6
1470331903784508,-2,-6,-2,-15,-53,-15,-7,-2
1470331903784508,-3,12,2,11,40,12,0,0
1470331903793582,0,-8,-7,-10,-4,0,2,0
1470331903793582,7,0,0,-10,-1,-1,-3,-2
1470331903808556,-3,-9,-3,-1,-13,-5,-12,-6
1470331903808556,-2,0,1,-1,-1,-6,0,0
1470331903810010,0,-20,-2,18,17,12,3,-1
1470331903810010,1,24,0,-13,-7,-8,2,0
1470331903831093,-1,8,5,24,-9,-1,5,4
1470331903831093,1,-15,-14,-32,5,-3,-2,-3
1470331903832528,-6,-1,1,7,-18,-8,-7,-3
1470331903832528,4,-18,-7,-3,16,13,5,0
1470331903844575,2,18,6,5,58,11,7,2
1470331903844575,-2,-2,1,-7,-34,-2,-7,0
1470331903853547,-5,-5,-1,4,3,-4,1,-3
1470331903853547,5,-4,-4,-25,-55,-26,-9,-3
1470331903868652,-3,-1,-4,7,17,16,3,1
1470331903868652,0,0,1,4,10,3,4,3
1470331903870062,6,7,5,4,3,-4,-11,-4
1470331903870062,-20,-20,-7,-8,0,-1,2,-3
1470331903891082,4,9,-2,-6,-5,0,-2,1
1470331903891082,1,-6,-2,-2,-5,-3,-1,-3
1470331903892601,0,7,-2,-1,-6,1,0,-1
1470331903892601,6,8,3,3,7,2,-1,2
1470331903904620,-8,-25,-5,-4,-33,-11,-1,-4
1470331903904620,2,16,0,1,22,7,1,-3
1470331903913640,-3,4,4,-18,-37,-14,-2,0
1470331903913640,-5,3,-2,-9,43,6,-2,0
1470331903928615,1,-7,-3,13,0,8,3,1
1470331903928615,4,3,3,3,-19,-8,1,0
1470331903930116,-3,-11,-1,-15,9,3,-3,-2
1470331903930116,-2,14,-9,-2,-32,-14,-1,-1
1470331903951135,0,7,4,-2,14,-2,0,0
1470331903951135,0,-13,-4,7,11,4,1,-1
1470331903952636,5,2,0,3,20,8,1,0
1470331903952636,-4,-2,1,6,-15,-2,0,0
1470331903964647,-2,-14,-5,0,0,-7,-1,-3
1470331903964647,1,4,1,-2,-19,-4,-2,-1
1470331903973655,-7,3,-5,-2,4,0,0,-1
1470331903973655,9,-1,0,4,3,3,-1,3
1470331903988669,9,-7,-5,-4,2,-4,-4,-4
1470331903988669,-9,-6,2,-2,-9,-4,-1,-1
1470331903990215,2,20,-3,1,-13,7,-2,-1
1470331903990215,5,-38,-5,10,31,2,1,0
1470331904011188,-1,28,12,-5,-13,-4,-2,-2
1470331904011188,-1,4,-5,-2,-5,-1,-3,-4
1470331904012690,-4,7,5,10,4,-4,-1,1
1470331904012690,-3,-25,-14,-20,-15,-2,-4,-3
1470331904024761,-6,9,0,-14,6,-1,-1,0
1470331904024761,1,-3,-11,1,-2,-1,1,0
1470331904033710,6,-9,3,11,9,1,-1,0
1470331904033710,-11,18,11,0,-3,3,-1,0
1470331904048723,9,-3,-2,-9,-4,-3,0,2
1470331904048723,-1,-10,-1,1,-4,-3,-3,0
1470331904050223,-6,16,1,-4,4,-2,0,-4
1470331904050223,2,-25,-4,0,-7,-2,-4,-4
1470331904071242,4,10,0,-4,-2,-1,0,-2
1470331904071242,2,5,5,7,2,3,7,5
1470331904072744,-11,-13,-8,-11,-46,-11,-2,-2
1470331904072744,10,15,6,9,53,3,1,0
1470331904084755,-8,-42,-8,0,-9,12,-9,0
1470331904084755,-12,7,-2,5,-1,-10,12,-6
1470331904093763,0,-17,-7,-7,2,4,-2,3
1470331904093763,-3,10,5,-3,-19,-8,9,0
1470331904108808,16,-1,0,3,-2,-1,-1,0
1470331904108808,-6,1,-1,-1,-1,3,-12,-2
1470331904110279,-7,-10,1,3,21,-3,2,-3
1470331904110279,-3,-6,-3,12,-2,2,-6,-4
1470331904131305,-5,11,1,9,12,0,1,-1
1470331904131305,14,-5,-4,1,-15,-5,-2,1
1470331904132298,-2,7,0,2,14,1,-2,-1
1470331904132298,8,-7,-4,-13,-8,1,-3,-2
1470331904144808,-10,-7,-6,3,-6,-7,-1,-3
1470331904144808,-5,0,3,11,-2,-2,-5,-2
1470331904153317,-2,-2,1,-11,14,3,0,-1
1470331904153317,-8,5,1,8,-5,3,-1,0
1470331904168330,5,4,-1,-6,-6,-4,7,3
1470331904168330,-1,11,-3,-14,0,-1,-1,-1
1470331904170332,-6,-8,1,4,4,-1,-1,0
1470331904170332,6,18,0,-8,-13,-2,-2,-2
1470331904190893,2,2,-4,-3,-1,-3,0,1
1470331904190893,-4,-10,-2,-2,6,4,-2,-1
1470331904192863,11,3,-1,-2,-2,1,1,-1
1470331904192863,3,1,0,0,-7,-4,-15,-1
1470331904204867,-14,4,-1,-1,0,1,15,-1
1470331904204867,-1,-10,2,0,1,-3,-5,-1
1470331904213370,-2,-5,-5,-4,-6,-1,-1,-2
1470331904213370,-1,-5,-2,-1,-4,-1,-2,-1
1470331904228429,0,5,-2,1,4,-4,-7,-2
1470331904228429,-2,-15,-2,-8,-2,-2,-2,0
1470331904230450,-1,9,6,-8,-4,-3,0,0
1470331904230450,-8,1,2,28,13,2,3,-1
1470331904250960,17,0,-14,-3,2,-1,-2,-1
1470331904250960,-22,12,15,-2,0,-1,4,0
1470331904252406,9,1,-15,-19,-8,-4,-3,1
1470331904252406,7,0,9,-10,-10,-2,1,-2
1470331904264416,-16,-19,-3,7,4,-1,-2,-4
1470331904264416,6,-14,-17,5,2,2,-5,0
1470331904273490,-11,22,8,7,6,3,-3,-6
1470331904273490,-4,0,11,-4,-7,-2,5,3
1470331904288443,11,-9,-5,-3,-1,-2,-2,1
1470331904288443,0,-6,4,-3,-1,0,0,0
1470331904290458,1,-15,-8,6,0,0,-1,-3
1470331904290458,-10,0,-2,-3,-2,-2,1,0
1470331904311539,-14,6,4,-4,-3,0,-4,-3
1470331904311539,-3,-29,8,-1,0,-2,-2,-2
1470331904325471,12,3,-3,-2,1,-2,2,3
1470331904325471,7,27,2,-1,-2,-1,-1,3
1470331904325972,-9,-4,-4,-8,-4,-2,-3,-2
1470331904325972,9,20,4,4,0,1,-1,2
1470331904339527,-29,-22,-9,-2,-3,-2,0,-2
1470331904339527,-6,-17,-9,-5,-1,-1,-2,-3
1470331904348021,19,63,8,-16,-6,0,-3,2
1470331904348021,-16,-4,-14,8,2,1,0,-5
1470331904354526,6,42,16,0,2,1,0,0
1470331904354526,0,-2,-20,5,0,-1,0,0
1470331904371041,-9,-21,16,-1,-2,-1,-4,-5
1470331904371041,1,8,-4,-18,-5,0,-1,-2
1470331904372513,-1,-3,-6,-11,-5,0,0,1
1470331904372513,-5,-9,4,15,5,0,-1,-4
1470331904384525,3,7,-2,5,0,-2,1,1
1470331904384525,12,-6,-1,-6,-4,-2,-2,-1
1470331904393535,-6,-4,0,9,1,-2,1,1
1470331904393535,1,-13,-2,-15,-7,-1,-1,-2
1470331904408051,0,-13,-2,4,0,-1,-1,0
1470331904408051,-3,6,-1,4,2,1,3,3
1470331904414630,14,4,0,0,1,-1,0,2
1470331904414630,-5,-22,-3,2,-4,-1,-3,-4
1470331904431158,-22,1,-6,-4,5,1,-2,-6
1470331904431158,12,-7,-4,-3,-4,0,-2,3
1470331904432570,1,7,4,11,0,-2,-2,-4
1470331904432570,1,2,0,3,3,-2,1,0
1470331904453638,1,-14,-4,-11,-4,3,-2,1
1470331904453638,0,15,4,9,3,-2,-2,-2
1470331904455088,1,-16,-5,-10,7,2,2,1
1470331904455088,-1,2,1,4,3,-3,-2,-1
1470331904468150,-4,-6,-3,-18,-9,-5,-3,-2
1470331904468150,-3,-4,-1,4,-1,-2,-10,-6
1470331904474658,-3,-6,0,9,-6,-1,-1,-1
1470331904474658,-4,0,-3,-11,-2,0,-2,-2
1470331904491160,1,-4,-1,2,0,-2,-2,-3
1470331904491160,-6,1,-4,-4,-16,-7,1,1
1470331904492672,-1,-5,-1,15,27,6,-3,-2
1470331904492672,1,-1,0,-9,-9,-5,-2,2
1470331904513640,4,8,-3,1,-7,-1,0,-1
1470331904513640,-19,-11,0,6,12,-6,-1,-4
1470331904515141,6,-5,-5,-13,-25,5,-1,0
1470331904515141,6,13,3,16,25,-1,0,1
1470331904527689,3,-4,5,6,-7,2,3,-1
1470331904527689,4,-1,-6,4,17,4,7,4
1470331904534686,-4,-17,1,-6,-24,-12,-6,-4
1470331904534686,2,-8,-8,-20,12,2,-1,-1
1470331904551184,-2,8,3,1,-30,-9,-1,2
1470331904551184,-1,-3,1,-2,33,11,2,2
1470331904552723,-6,-2,0,-1,0,1,1,-2
1470331904552723,0,-3,4,28,-8,-4,-1,-4
1470331904573694,-6,-11,-7,-19,-8,-8,-4,-1
1470331904573694,-3,-1,0,-20,-24,-5,-6,-4
1470331904575197,4,3,-2,1,7,2,-1,2
1470331904575197,0,9,4,9,-15,-1,-2,-2
1470331904587707,-3,-5,-5,-4,30,-1,3,2
1470331904587707,4,7,4,-12,-26,1,7,1
1470331904594742,-1,-4,-6,-1,44,18,-3,-1
1470331904594742,0,-1,-4,-19,-23,-12,1,2
1470331904611228,-1,-5,1,5,-24,-8,-3,1
1470331904611228,2,3,0,2,-14,-15,-3,-2
1470331904612731,0,-6,-4,5,13,5,0,0
1470331904612731,-5,4,1,0,-4,-2,1,-2
1470331904633748,3,0,2,40,40,14,0,-1
1470331904633748,3,2,-9,-56,-38,-7,-4,-2
1470331904635270,-7,-2,0,19,-6,-10,-2,-5
1470331904635270,-1,2,-5,-15,16,10,-1,-2
1470331904647803,3,-3,4,-14,-10,-13,0,-1
1470331904647803,0,2,3,33,22,22,1,-1
1470331904654799,-10,-3,-4,-11,-44,-25,-2,2
1470331904654799,5,-2,2,18,34,6,-2,-2
1470331904671289,-7,-4,-2,15,-31,-13,-3,-5
1470331904671289,-2,-10,-5,5,2,7,-2,-2
1470331904672782,4,2,-2,0,23,-1,3,0
1470331904672782,1,0,2,-8,19,4,1,0
1470331904693303,-3,1,-2,-11,-30,-1,-3,0
1470331904693303,-3,1,2,4,37,-1,-3,-2
1470331904695304,-1,-4,-7,-25,-46,-11,-1,-3
1470331904695304,-6,-1,-4,12,8,-2,-3,-1
1470331904707360,0,-1,1,8,6,12,2,-1
1470331904707360,6,-1,-3,-4,5,-3,-2,-1
1470331904715822,-1,-1,-4,-14,-30,-22,-4,-1
1470331904715822,-4,-3,-5,-58,-23,-2,-3,-3
1470331904730866,-3,-2,3,36,87,22,3,0
1470331904730866,3,0,1,25,-40,0,2,0
1470331904732837,1,5,11,-6,2,-8,-2,-2
1470331904732837,-4,-2,-15,-15,17,-6,-2,-2
1470331904753381,0,-6,-6,-12,-11,-3,-4,-1
1470331904753381,0,4,9,19,-3,3,0,-2
1470331904754857,1,-3,-5,46,71,16,6,1
1470331904754857,9,2,8,-19,-58,-4,1,3
1470331904767368,-7,-1,-8,-15,19,2,0,-2
1470331904767368,-5,-3,-2,-17,8,-3,-4,-4
1470331904775875,1,3,-4,-11,-51,-13,-5,-2
1470331904775875,-4,-3,-2,9,6,-1,-2,-1
1470331904790889,8,8,6,3,22,4,1,2
1470331904790889,-2,-10,-16,0,-23,-5,1,0
1470331904792392,-6,2,5,-25,7,0,-3,-2
1470331904792392,6,-1,-4,19,11,6,2,1
1470331904813411,-1,4,-10,-22,-28,-3,-3,-3
1470331904813411,-1,3,10,-6,13,-8,-1,0
1470331904814911,-1,-3,2,28,8,3,-1,1
1470331904814911,-6,0,8,-3,-14,3,-2,0
1470331904826923,5,-1,-2,0,1,-3,0,3
1470331904826923,-7,1,-19,-36,-2,-8,-2,-3
1470331904835931,-1,-7,37,25,13,10,0,-1
1470331904835931,1,-1,7,-8,-31,-9,-3,-2
1470331904850967,-4,0,-13,11,7,-5,-3,-2
1470331904850967,-2,-3,7,-16,0,-3,-1,0
1470331904852444,0,-1,-18,-41,-46,-6,-2,0
1470331904852444,-2,-4,9,60,32,7,0,-1
1470331904873464,-4,0,8,1,0,-4,-1,-2
1470331904873464,-1,2,-7,31,7,2,0,1
1470331904875479,4,1,-3,-32,21,12,0,1
1470331904875479,2,3,-4,7,-28,-7,1,0
1470331904887023,-22,-6,-5,-15,5,10,1,-3
1470331904887023,7,-1,0,3,-14,-16,-3,-1
1470331904896034,-3,-2,-2,1,-15,-2,-4,-4
1470331904896034,-2,-1,0,-11,21,-1,-3,-3
1470331904911028,5,-5,2,8,-6,-3,-3,-1
1470331904911028,-1,1,4,-14,-12,-4,-2,-2
1470331904912558,-2,3,-5,14,13,5,0,-1
1470331904912558,-2,-1,-9,-10,2,-3,7,1
1470331904933565,4,-4,21,-11,-14,-5,-1,-1
1470331904933565,-13,-9,-19,38,11,1,-1,-2
1470331904935020,4,5,-12,-33,-4,-3,-2,1
1470331904935020,-3,-4,-3,17,-11,-3,-4,-2
1470331904947064,1,0,0,-9,-6,-1,-1,-2
1470331904947064,6,10,22,1,8,3,1,0
1470331904956041,-5,-8,-1,43,3,-2,-3,-3
1470331904956041,-1,2,-17,-25,-10,0,-1,1
1470331904971091,0,2,-1,-8,9,-4,0,0
1470331904971091,0,-1,-1,-12,-29,-5,-2,2
1470331904972586,1,1,-5,-16,28,12,-1,-3
1470331904972586,-8,2,5,8,-1,-6,-1,-1
1470331904993658,4,-2,-15,19,-9,2,-2,0
1470331904993658,-2,-6,-2,-21,-6,-1,0,-1
1470331904995073,1,-4,-2,-5,-5,-11,-2,-2
1470331904995073,4,-1,0,0,-1,3,-1,-2
1470331905007083,-18,-4,2,-12,-12,4,-1,-2
1470331905007083,5,1,-2,18,18,-3,0,-1
1470331905016091,-2,2,-1,-5,-7,-4,-4,0
1470331905016091,6,-4,2,-9,-3,-6,-9,-4
1470331905030106,2,-1,-9,-14,-26,-4,2,1
1470331905030106,-2,-1,3,-2,48,6,-2,0
1470331905038611,-5,0,-1,31,0,6,2,-1
1470331905038611,-1,-2,-6,-23,-16,-7,-4,-1
1470331905053626,0,0,-3,-8,-28,-10,-1,-2
1470331905053626,-2,-5,13,-7,3,6,-4,-1
1470331905055131,6,0,0,-5,-11,-6,2,3
1470331905055131,-18,-8,-1,11,42,10,1,-6
1470331905067148,5,3,-3,2,-39,-11,-4,1
1470331905067148,0,1,-4,7,1,-6,3,-1
1470331905076147,2,-4,-1,-10,10,3,-3,-1
1470331905076147,0,5,5,-7,-31,0,0,0
1470331905091159,6,-2,1,12,39,2,0,2
1470331905091159,-8,-1,-4,-11,-34,-6,-3,-3
1470331905092664,-1,-3,-3,-7,-27,-8,-1,-2
1470331905092664,1,2,-14,-10,-63,-29,-2,0
1470331905113714,-1,3,10,32,104,43,1,0
1470331905113714,-4,-9,-1,8,-36,-4,-1,-2
1470331905115208,-4,0,3,-6,7,-3,3,2
1470331905115208,1,5,-2,-16,-8,-2,0,1
1470331905127279,7,-7,-5,-8,-25,-16,-3,1
1470331905127279,-1,-3,1,18,4,2,-2,-1
1470331905136235,-1,-7,-12,-34,-11,2,-1,-3
1470331905136235,0,-1,13,19,17,5,1,1
1470331905158720,1,-31,-16,-5,-7,-12,-3,-1
1470331905158720,-2,41,7,3,18,8,-1,0
1470331905160222,-1,17,0,-5,-15,-6,-1,0
1470331905160222,-5,-27,-5,1,20,-6,-4,-1
1470331905173733,2,7,2,7,28,12,1,0
1470331905173733,-3,-17,-5,-13,-14,2,1,-2
1470331905175234,6,-1,1,0,-9,-8,-3,-6
1470331905175234,5,5,0,-1,12,4,-1,1
1470331905187263,-8,-6,2,2,-35,-17,-2,-2
1470331905187263,3,5,-8,-13,39,8,-1,-1
1470331905196252,1,-9,-1,9,-17,5,3,1
1470331905196252,-2,5,0,2,12,1,1,-2
1470331905210266,-4,3,3,-13,-31,-8,-2,-5
1470331905210266,1,-3,-4,-24,-3,-7,-4,-2
1470331905217272,0,-10,-3,34,38,6,1,1
1470331905217272,1,2,-2,5,-10,4,1,-1
1470331905233787,-18,7,-1,-5,5,-1,-1,-5
1470331905233787,9,-4,0,-1,-22,-6,0,1
1470331905235288,-8,0,3,-1,11,-3,-1,-3
1470331905235288,11,0,0,-6,3,6,0,2
1470331905247299,2,5,3,-8,-4,-4,-2,1
1470331905247299,2,-6,-6,7,0,-3,0,-3
1470331905256308,-20,-4,-2,-6,0,-2,0,-4
1470331905256308,0,3,1,1,0,3,1,0
1470331905270845,11,-1,1,-2,-12,-3,-2,-1
1470331905270845,-1,-8,-2,-2,2,-2,0,0
1470331905272822,3,-1,1,-1,7,6,-2,1
1470331905272822,-5,0,-1,5,-4,-4,-2,0
1470331905293367,-4,2,0,-1,4,-2,-1,-2
1470331905293367,-5,-3,-4,-2,-2,-1,-1,-3
1470331905295341,-1,-8,3,4,-4,-2,-1,1
1470331905295341,2,4,-5,-6,-5,-2,-1,-1
1470331905307460,-11,-4,0,-6,-6,-11,-1,-2
1470331905307460,5,3,2,-7,15,14,0,0
1470331905315886,-1,-1,-2,13,3,-1,0,0
1470331905315886,-4,-6,5,-17,-11,-5,-4,-3
1470331905338421,-1,14,-5,12,11,3,1,0
1470331905338421,1,-3,-1,-15,-9,-6,0,0
1470331905339882,9,-3,3,29,3,0,-3,0
1470331905339882,-21,-1,-6,-17,-7,-1,-1,-4
1470331905353437,16,12,5,2,-3,0,-1,3
1470331905353437,-14,-16,0,14,-1,1,-1,-1
1470331905354898,4,11,-9,-29,-6,-3,-4,-3
1470331905354898,2,-4,-4,8,2,1,2,2
1470331905367407,4,-2,1,-5,-3,-1,-3,-3
1470331905367407,-9,0,2,1,5,-1,1,-1
1470331905375915,-5,-12,-4,-7,-12,-7,-1,0
1470331905375915,9,3,0,8,6,2,-2,-1
1470331905390427,-9,1,-1,-3,1,2,1,-3
1470331905390427,11,5,-3,-3,-10,-3,0,1
1470331905396933,-1,-4,-3,-3,-1,0,-2,-1
1470331905396933,-8,-4,5,4,4,-1,0,-4
1470331905413492,-1,-2,-6,-8,-8,0,-2,-1
1470331905413492,2,-6,-2,1,-5,-7,3,2
1470331905414950,-2,14,3,6,-5,6,-7,-5
1470331905414950,9,-7,-5,1,15,1,-4,-1
1470331905436010,-1,-4,1,2,-13,-3,-3,-1
1470331905436010,-11,2,-3,30,7,-4,1,-2
1470331905437469,-2,-8,-3,-17,4,4,-3,2
1470331905437469,-3,5,1,-10,-3,-1,0,-4
1470331905450481,6,-4,-2,-8,-8,-1,-1,0
1470331905450481,-3,1,-4,-12,5,-6,-4,0
1470331905457014,-3,4,1,7,-3,0,2,0
1470331905457014,-8,-5,0,6,-4,-1,0,0
1470331905473554,0,-9,-3,-8,6,1,3,0
1470331905473554,2,5,1,-2,-14,-2,-3,-4
1470331905475004,-1,-1,3,0,3,0,3,0
1470331905475004,-9,-4,-6,-14,3,0,1,-2
1470331905496067,-4,0,2,4,-5,2,-4,2
1470331905496067,2,-18,-3,28,14,3,1,-3
1470331905497523,1,11,-1,-30,-5,-5,-2,0
1470331905497523,2,8,-1,24,8,1,1,3
1470331905509560,-1,21,4,-14,-1,-3,-9,-6
1470331905509560,-2,-15,-9,-11,-5,1,-2,0
1470331905517096,5,-2,-2,2,-1,-6,-16,-1
1470331905517096,0,-4,-2,-8,-7,-3,25,1
1470331905532610,-2,-12,2,4,5,1,-6,-2
1470331905532610,4,17,-4,-3,0,3,0,0
1470331905533557,1,12,3,2,-2,-4,-2,-2
1470331905533557,2,-3,-1,-3,0,2,-6,2
1470331905555576,-5,-7,-6,0,3,-1,-1,-2
1470331905555576,-3,-1,2,1,-9,-5,1,-3
1470331905556125,-8,-10,-2,-3,-2,-1,-8,-6
1470331905556125,-1,-3,-3,-21,-10,-3,-8,-2
1470331905569614,4,-4,-1,24,14,5,11,5
1470331905569614,-2,4,0,-26,-8,-9,-6,-4
1470331905577596,-3,3,1,10,10,9,4,-1
1470331905577596,1,-12,2,-7,-28,-10,-1,-3
1470331905593110,0,-6,-1,0,14,-2,0,1
1470331905593110,-3,14,-1,-4,-5,9,-1,1
1470331905593611,-2,-9,-1,4,-6,-4,5,2
1470331905593611,2,-9,-1,10,15,4,-7,-2
1470331905615133,-30,-6,-7,-16,-14,-1,6,-4
1470331905615133,0,-16,0,9,2,-4,-7,-3
1470331905616171,6,15,8,-18,-2,-4,6,0
1470331905616171,11,14,15,18,-14,-7,-4,3
1470331905629644,-3,12,-12,9,24,14,-1,-1
1470331905629644,1,4,3,-16,2,3,2,1
1470331905638163,1,-9,-22,-2,2,-1,2,1
1470331905638163,0,11,12,37,7,1,-6,-2
1470331905652668,7,-7,-3,-2,-12,-8,0,2
1470331905652668,-2,8,10,-1,-5,-1,-2,-3
1470331905653664,-14,-26,2,5,-8,-1,3,1
1470331905653664,-4,-1,-10,-27,6,-2,-3,-6
1470331905675185,3,17,-7,21,-7,-11,-6,-4
1470331905675185,-15,-40,2,-24,13,8,-6,-4
1470331905676187,9,8,7,10,-4,-5,1,0
1470331905676187,-6,-5,-25,-17,-5,0,1,-2
1470331905689696,2,11,13,17,-7,3,0,0
1470331905689696,6,4,-13,-24,-15,-7,0,2
1470331905698219,-4,2,3,-5,-2,-8,-6,-5
1470331905698219,1,9,3,16,5,1,-2,-1
1470331905712759,10,-17,-2,-29,-16,-1,4,5
1470331905712759,1,13,0,12,0,-3,-11,-4
1470331905713718,5,-9,-14,13,13,4,18,3
1470331905713718,-4,10,7,-6,0,0,-2,-2
1470331905735264,1,-3,-2,-18,-8,-5,-3,-4
1470331905735264,-4,-3,11,27,20,4,0,0
1470331905736238,-2,-3,19,-2,-19,-7,-10,-3
1470331905736238,0,-4,-29,45,39,10,6,4
1470331905749758,-5,-11,-10,31,3,-2,-1,-3
1470331905749758,4,-3,-4,-40,-8,1,2,3
1470331905757785,2,-1,17,-12,-7,1,4,2
1470331905757785,-5,2,14,2,-8,-4,-12,-3
1470331905772803,6,10,6,0,3,-1,14,1
1470331905772803,-5,-16,-9,19,0,3,9,3
1470331905773772,-4,-4,-7,-7,-3,2,-8,-3
1470331905773772,-2,4,-13,-9,-8,-3,6,2
1470331905795306,8,9,0,-9,8,2,-8,-4
1470331905795306,0,7,1,-2,-14,-8,-2,2
1470331905796293,2,5,-3,0,-1,-1,8,1
1470331905796293,-4,-6,0,5,-1,4,-5,0
1470331905809804,-3,-11,-12,-17,-3,-4,-6,-4
1470331905809804,4,16,0,17,-3,-8,4,-7
1470331905817811,1,1,-5,-14,21,12,-6,3
1470331905817811,8,-17,-2,-27,-11,-3,-3,-2
1470331905832852,-13,-11,4,5,-9,-4,1,-2
1470331905832852,4,15,-5,-14,4,-1,-10,-5
1470331905833826,-1,0,-3,45,2,-3,-8,-4
1470331905833826,-2,-3,-17,-23,1,-1,15,-2
1470331905855378,5,-8,11,-12,-4,3,-8,1
1470331905855378,-5,0,-1,17,0,2,6,3
1470331905856346,-6,-12,-9,-18,-15,-7,-19,-5
1470331905856346,-1,-4,5,0,4,2,28,3
1470331905869859,-1,10,1,12,3,0,-1,-3
1470331905869859,0,-17,-12,-9,-8,-1,13,4
1470331905877890,-5,-2,2,-16,1,-1,3,-1
1470331905877890,-5,-2,13,-4,-9,-3,-16,-2
1470331905892880,-8,-23,-20,-14,-2,-5,-6,-3
1470331905892880,3,18,23,13,3,3,-3,0
1470331905893384,-2,-5,-8,-4,1,-2,4,0
1470331905893384,-2,11,6,2,1,-3,-14,-4
1470331905915399,11,-2,-3,-6,-1,-1,4,2
1470331905915399,-21,-5,-2,-9,-6,3,-5,-8
1470331905915902,-1,1,-6,4,0,-3,0,-1
1470331905915902,1,1,2,0,-6,2,-2,0
1470331905929921,0,0,4,13,11,2,1,1
1470331905929921,1,-6,-7,15,1,-4,-4,-2
1470331905937961,5,15,-4,-3,1,1,-2,1
1470331905937961,-11,-20,12,-9,-6,-2,-1,-3
1470331905952967,-1,6,-1,-29,-10,-8,-9,-1
1470331905952967,0,4,-2,21,9,-2,-1,-2
1470331905953434,6,16,-8,-6,-2,1,0,0
1470331905953434,-5,-15,2,-51,-17,-4,-8,-4
1470331905975453,-2,6,4,75,29,6,3,2
1470331905975453,3,-3,-5,-21,-11,-6,-7,-3
1470331905975954,0,2,-2,2,-3,-3,3,-3
1470331905975954,0,12,3,-13,-1,0,7,3
1470331905998474,-1,-11,-12,-22,-6,-1,-3,1
1470331905998474,-2,21,7,11,-2,-1,1,3
1470331905999005,-9,-24,1,6,3,-2,0,-1
1470331905999005,-3,-1,-13,8,0,-2,-1,-1
1470331906012987,0,1,12,-9,-5,-5,3,-3
1470331906012987,-1,4,-3,1,-2,-7,-18,-2
1470331906013488,-2,0,-7,-11,-2,20,19,2
1470331906013488,-7,-5,15,15,8,0,-13,-4
1470331906035507,6,-15,-9,-15,-10,-10,-1,-3
1470331906035507,-7,-3,-2,-13,0,6,-11,-1
1470331906036007,-15,-2,-1,2,-4,-3,-12,-4
1470331906036007,0,-6,-3,11,1,0,7,0
1470331906049574,1,8,1,-7,-5,-3,-4,-4
1470331906049574,-4,-13,-6,-11,-6,-6,-7,-4
1470331906058026,-4,-10,4,3,2,-4,-3,-2
1470331906058026,3,11,1,-8,-9,-2,-4,0
1470331906073040,-5,3,6,5,14,6,-4,0
1470331906073040,13,-8,-3,18,5,2,8,4
1470331906073541,-8,3,2,0,-1,-4,0,-3
1470331906073541,-8,2,-7,-13,-4,-5,-2,-5
1470331906095561,6,21,7,-12,-9,2,9,4
1470331906095561,-2,-28,-5,-1,3,5,-2,-2
1470331906096062,1,19,4,-11,-6,-9,3,-1
1470331906096062,6,-5,-7,30,8,-1,-9,4
1470331906109574,0,-3,2,-10,-6,0,-5,-1
1470331906109574,-5,-3,0,-3,-4,0,7,-2
1470331906118081,0,-2,-3,-10,-5,-8,10,2
1470331906118081,5,-6,-3,3,2,-7,10,-1
1470331906133094,-7,-2,-2,-3,-5,3,-14,0
1470331906133094,5,-10,-4,-1,0,2,11,-1
1470331906133596,16,1,-3,0,1,-2,-13,-2
1470331906133596,-7,-9,-5,-1,0,-7,-24,-1
1470331906155651,-18,-10,-4,-4,0,12,73,7
1470331906155651,3,-8,-3,-3,0,-4,-2,-1
1470331906156115,5,-8,0,3,0,3,-12,-3
1470331906156115,15,12,-2,9,-2,2,-2,-1
1470331906169630,2,4,5,0,-3,-6,-24,-6
1470331906169630,-8,10,-5,-12,-2,-3,2,0
1470331906177679,-5,12,-9,15,3,2,5,-2
1470331906177679,-8,-11,-1,-13,-2,1,2,-1
1470331906193166,6,-10,2,6,-5,-5,-16,-3
1470331906193166,7,17,2,-10,0,2,10,1
1470331906193648,-5,1,3,-3,-2,-4,-16,-1
1470331906193648,0,1,-4,-12,-3,-1,-9,-4
1470331906215202,-11,-2,-2,6,2,1,8,-1
1470331906215202,16,-8,3,14,3,-2,-14,0
1470331906216171,1,0,-5,-1,3,0,-2,0
1470331906216171,-6,-4,-1,-1,-1,3,-5,-9
1470331906229760,8,-2,-3,-9,-2,-2,-13,-1
1470331906229760,-11,-6,-3,-10,-4,-7,9,2
1470331906237719,3,3,6,8,0,3,-28,-4
1470331906237719,17,-3,-3,5,1,3,33,5
1470331906252749,-8,5,-2,-10,-2,-3,-1,-6
1470331906252749,-7,-8,5,11,-2,-2,-6,-1
1470331906253728,-5,2,-2,-16,-2,-3,28,3
1470331906253728,-9,-10,-4,6,2,1,-12,1
1470331906275234,10,16,4,-4,2,-3,4,-3
1470331906275234,-7,-22,-12,2,-3,-1,-7,-2
1470331906283229,2,-16,2,7,3,1,14,0
1470331906283229,2,10,-6,-9,-1,1,-12,-2
1470331906289791,1,5,1,1,0,-5,14,5
1470331906289791,-23,-1,3,-7,-4,1,-2,-9
1470331906297788,5,-11,-2,-4,-5,-3,-3,-1
1470331906297788,4,4,5,10,-1,-1,-2,0
1470331906312814,4,-10,-4,-6,-7,-2,-11,0
1470331906312814,13,7,0,0,11,-14,-2,2
1470331906313757,-16,-14,2,8,4,15,-10,-8
1470331906313757,-7,-2,-2,-7,3,-11,-4,-2
1470331906335276,6,4,4,3,-3,17,18,0
1470331906335276,10,10,2,5,1,3,-7,-3
1470331906336277,-10,5,-7,-16,-9,-18,-13,-1
1470331906336277,2,9,0,2,9,5,20,3
1470331906358304,-14,-18,-10,-17,-2,0,-17,1
1470331906358304,10,8,0,21,-6,-7,0,-3
1470331906359297,5,-5,2,-5,-4,-2,3,3
1470331906359297,-3,-14,3,-2,-19,-4,-10,-4
1470331906372865,-2,6,-11,-4,25,-5,-5,-2
1470331906372865,0,8,6,-9,-12,10,4,-1
1470331906373333,0,-7,-1,7,6,-2,14,-1
1470331906373333,-3,21,3,-6,-9,-5,-6,-2
1470331906395373,-1,-5,4,7,-7,-4,-12,-2
1470331906395373,3,-20,2,-14,6,0,3,0
1470331906395885,4,8,-3,6,-7,-3,-7,-6
1470331906395885,-12,-6,-9,-30,-19,-3,0,-5
1470331906418428,-2,-6,4,23,30,-3,5,2
1470331906418428,0,-4,-9,5,-6,6,-1,-2
1470331906419352,9,4,-3,-9,1,-1,5,5
1470331906419352,-4,-4,6,18,35,4,-10,-2
1470331906432863,-7,-3,2,-5,-32,-4,-10,-1
1470331906432863,-11,0,1,-11,-5,-4,26,-1
1470331906433363,-1,-8,-3,3,-12,-7,-4,-4
1470331906433363,9,2,2,3,-2,1,-1,2
1470331906455383,-2,-29,-8,-4,-25,-12,-15,-11
1470331906455383,-7,42,16,-6,30,6,-26,-9
1470331906455883,-5,-9,-11,3,-3,16,-14,-3
1470331906455883,5,4,3,9,8,8,6,5
1470331906478446,5,14,1,-15,-13,-8,-12,-2
1470331906478446,3,-14,-8,13,-4,1,1,6
1470331906479405,-12,0,-2,-28,-9,-8,7,-3
1470331906479405,-6,-3,0,28,28,8,6,0
1470331906492917,-5,16,4,6,5,5,5,1
1470331906492917,-8,-6,-6,-14,-17,-11,-2,0
1470331906493418,3,-1,-2,3,15,1,-2,-1
1470331906493418,5,-6,-5,-7,-20,-6,4,-3
1470331906515480,-6,4,-2,3,3,3,2,-2
1470331906515480,9,18,7,-25,-1,-3,5,0
1470331906515942,-2,-37,-15,13,-3,-4,-8,-1
1470331906515942,1,6,0,-13,-8,-8,-3,1
1470331906538522,3,-8,-2,7,12,7,12,2
1470331906538522,-3,2,1,4,-5,-2,-3,0
1470331906539460,13,7,-1,-9,1,2,11,5
1470331906539460,-20,0,-2,1,-3,5,-2,-9
1470331906552971,-7,-1,3,0,0,-7,-25,2
1470331906552971,9,-3,-9,-5,-7,5,28,0
1470331906553487,-14,7,15,14,-28,-10,-11,-4
1470331906553487,18,-10,-7,0,34,5,2,1
1470331906576993,4,7,2,-5,-16,4,-5,-2
1470331906576993,-13,-11,-15,-3,11,-5,-9,-6
1470331906577494,1,0,3,2,-3,1,5,-1
1470331906577494,1,13,5,3,-11,-5,-5,0
1470331906598559,-2,-18,-6,-19,-7,-6,-1,-3
1470331906598559,-1,-10,-6,0,-3,1,-4,4
1470331906599513,0,14,8,5,4,-1,10,0
1470331906599513,-3,-15,-2,1,-13,-2,-7,-1
1470331906612580,2,1,1,-3,7,0,2,-2
1470331906612580,8,1,-4,-4,-5,3,-5,1
1470331906613526,-9,4,-2,2,10,-1,-27,-5
1470331906613526,-16,-8,1,-2,-6,-2,29,-2
1470331906635545,15,-2,-4,-2,2,-2,-6,1
1470331906635545,-16,9,3,2,0,-2,3,-5
1470331906636069,3,-8,0,2,1,-1,-2,1
1470331906636069,11,0,-1,-5,-4,-4,0,1
1470331906658565,-3,5,-3,0,-2,1,2,-3
1470331906658565,-2,-6,0,9,-2,-3,-7,-1
1470331906659125,0,-2,-3,-15,6,-2,9,1
1470331906659125,3,5,-1,-1,-9,0,-5,-1
1470331906673082,-1,-3,-6,-2,4,-1,3,1
1470331906673082,0,-4,2,0,-4,-1,-16,-2
1470331906680629,-5,-2,5,-3,0,-4,3,-1
1470331906680629,3,-5,-2,5,-4,-2,-7,0
1470331906695602,-10,2,-2,0,-6,-4,1,-2
1470331906695602,10,-1,0,7,4,-3,3,0
1470331906696600,-2,4,-2,-10,18,9,-1,-2
1470331906696600,3,-4,-2,-7,-12,-2,0,-1
1470331906718620,-20,4,2,3,-13,-6,2,-4
1470331906718620,-6,-4,2,-5,8,1,-4,-1
1470331906719127,7,4,-3,-1,-11,-2,-17,-3
1470331906719127,-2,2,-4,-2,1,3,11,3
1470331906732633,1,2,-1,7,-3,-5,-8,1
1470331906732633,0,-11,-3,-3,-6,-2,7,-2
1470331906733634,-1,-1,1,12,8,0,1,-1
1470331906733634,-6,4,-1,-9,0,-1,-17,-1
1470331906755186,0,-18,-1,-7,-5,-1,12,0
1470331906755186,-1,-3,-6,4,2,4,-18,-4
1470331906756156,6,2,0,2,0,1,9,1
1470331906756156,-9,2,0,-1,-5,-3,-5,-3
1470331906778674,2,4,2,5,6,0,-3,-1
1470331906778674,6,0,-4,-18,-7,0,2,0
1470331906779175,-9,-8,-4,5,-5,-4,7,3
1470331906779175,2,4,0,15,7,-2,-11,-5
1470331906792687,13,-1,-5,-15,3,2,-2,1
1470331906792687,-9,0,2,9,2,-2,-8,-5
1470331906793688,-1,0,-6,-25,-30,-5,5,0
1470331906793688,-3,-2,3,25,40,4,9,1
1470331906815237,3,-1,-9,-9,-3,9,-2,-1
1470331906815237,5,8,1,-27,-10,-6,1,3
1470331906816207,0,-4,0,28,7,4,-3,-3
1470331906816207,-1,6,5,-2,-17,-6,-5,-3
1470331906838763,-2,7,2,-3,-1,-3,0,-1
1470331906838763,-3,-6,-1,-2,0,0,-8,0
1470331906839228,1,6,-1,-6,-2,-3,11,1
1470331906839228,0,-4,-5,-9,-6,0,-1,0
1470331906852774,-1,-6,1,3,3,-3,-3,-1
1470331906852774,-2,4,3,-4,-4,1,9,3
1470331906853742,-3,-7,-8,-3,7,-1,-1,-1
1470331906853742,10,-3,-2,0,-9,0,2,1
1470331906875293,8,7,0,-3,1,-1,6,5
1470331906875293,-19,-6,2,15,2,1,4,-4
1470331906876300,-6,-2,0,-2,-4,-2,-3,-2
1470331906876300,7,6,-5,-12,5,2,-4,-1
1470331906898782,-3,-10,1,-6,-1,-2,-10,-3
1470331906898782,7,1,-2,16,2,0,3,3
1470331906899284,7,7,5,-4,-2,-3,-14,0
1470331906899284,-18,-19,-8,-10,-8,2,9,-1
1470331906912827,-4,3,4,5,1,-4,-5,-4
1470331906912827,3,0,-4,1,-1,-1,-2,-1
1470331906913805,-1,4,2,-5,-4,-2,-14,-2
1470331906913805,3,-4,-1,-7,0,0,13,4
1470331906935364,-4,-5,-1,10,3,3,0,-1
1470331906935364,1,-7,4,-16,-10,-5,-3,-1
1470331906935859,1,2,0,13,12,3,2,-1
1470331906935859,-6,17,4,-9,-8,-2,-2,0
1470331906958389,-1,-5,-4,-2,-4,0,0,-1
1470331906958389,-1,-9,1,4,1,-3,3,0
1470331906959344,-4,-6,-4,-13,-2,-2,4,1
1470331906959344,-2,-3,-2,-2,-2,-5,-9,-2
1470331906972355,-3,2,5,6,2,3,-3,0
1470331906972355,11,3,-3,-1,3,-2,3,3
