timestamp,emg1,emg2,emg3,emg4,emg5,emg6,emg7,emg8
1472088742700168,-1,0,-5,-6,-2,-2,-3,-2
1472088742700168,-1,-5,-15,-3,-2,-3,0,-1
1472088742701169,1,-1,3,3,1,2,1,0
1472088742701169,0,3,-6,1,-2,2,-1,-2
1472088742701669,-1,-15,6,-8,-4,-2,-1,0
1472088742701669,-2,7,13,1,0,1,-1,1
1472088742702670,0,-11,-23,1,0,-2,1,-1
1472088742702670,-3,5,22,-1,-2,-2,-1,-4
1472088742707174,-2,2,-1,2,0,-1,-1,-2
1472088742707174,-2,-9,-9,-1,0,1,-1,-1
1472088742709676,2,1,-5,-3,-2,0,-2,-2
1472088742709676,3,-2,0,1,-1,2,0,2
1472088742722195,-2,1,6,1,-1,-1,0,-1
1472088742722195,-1,0,1,-3,-1,-1,-3,0
1472088742727700,0,5,11,-1,1,-1,-1,-2
1472088742727700,-5,-7,-10,-4,-1,-3,-1,-2
1472088742736713,-2,3,2,4,0,0,0,0
1472088742736713,-2,-6,-1,-2,-1,-2,-2,-5
1472088742759240,-4,-2,17,2,-3,-3,-2,-1
1472088742759240,5,2,-23,-7,-2,-2,-1,-1
1472088742760240,-1,1,7,-1,1,0,-1,-1
1472088742760240,0,1,0,1,-1,-2,1,-2
1472088742806135,-4,-17,5,0,-1,-2,-1,-1
1472088742806135,3,-1,-5,0,2,0,0,-2
1472088742807135,4,2,-13,0,-1,2,0,0
1472088742807135,-1,3,10,0,-2,0,1,0
1472088742807636,-2,5,2,-3,-2,-3,-3,0
1472088742807636,-3,-7,5,-1,-1,-3,-2,-1
1472088742810138,-5,-2,-4,-1,-2,-1,-2,-1
1472088742810138,3,-2,-4,0,-2,-3,0,1
1472088742818145,-7,1,-13,-3,1,1,0,-2
1472088742818145,3,7,12,1,-1,-1,-1,-1
1472088742825161,0,3,-6,-3,-2,-3,-2,-2
1472088742825161,-6,-8,4,4,2,-2,-1,0
1472088742832667,3,7,38,1,-2,-2,-1,-1
1472088742832667,-2,-10,-29,-8,0,1,-1,-5
1472088742847698,3,-1,-5,-3,-2,-1,2,1
1472088742847698,-1,-1,4,-2,-1,-1,0,-2
1472088742855219,-1,1,-12,2,1,1,0,0
1472088742855219,0,-5,1,0,-3,-1,-1,1
1472088742879251,-1,-1,18,2,0,0,0,-1
1472088742879251,2,6,-16,0,1,0,-1,-1
1472088742879753,0,-24,2,-5,-1,-1,-1,-2
1472088742879753,-4,-2,-21,-7,-2,-2,1,-1
1472088742893283,-2,2,11,-1,-2,-1,-2,-2
1472088742893283,-6,-1,-7,-1,-3,-2,-3,-3
1472088742894291,1,5,-25,1,-1,-3,1,0
1472088742894291,3,1,20,1,0,-1,-1,-1
1472088742915811,-8,-1,13,-1,1,-2,-1,-2
1472088742915811,0,2,-24,-6,-4,-1,-1,-2
1472088742916811,6,5,3,0,-1,0,-1,-2
1472088742916811,0,-4,-1,3,3,2,0,2
1472088742938854,-2,-3,-9,-1,-3,-2,-1,-2
1472088742938854,2,-1,2,-1,0,-2,0,1
1472088742939855,-5,-2,-11,0,0,1,2,-1
1472088742939855,-5,6,-1,1,-2,-2,-1,0
1472088742953367,2,-3,6,1,-1,-1,-1,-3
1472088742953367,-1,-5,2,0,1,1,0,0
1472088742953367,2,6,-7,-3,-1,-1,-2,-1
1472088742953367,2,4,3,2,-1,-1,-2,-1
1472088742976000,-10,-5,-2,-1,1,1,-1,-2
1472088742976000,2,8,-4,-4,0,-2,-2,0
1472088742976501,-1,-18,2,-4,-1,0,-2,-1
1472088742976501,0,3,13,0,-4,-1,0,-2
1472088742998828,0,-12,-8,-3,-1,-4,-2,-3
1472088742998828,-1,1,8,5,-1,0,-1,0
1472088742999829,-2,7,7,-1,1,-1,-1,-2
1472088742999829,-1,-4,-5,-5,-3,-2,-2,0
1472088743013342,-1,-8,-41,-3,-1,0,1,1
1472088743013342,-2,-13,5,-4,-2,0,-1,-2
1472088743013842,-1,3,24,3,-2,-2,-2,-1
1472088743013842,-2,3,-14,-1,-1,-1,0,-1
1472088743035872,1,-3,2,-1,-1,-1,-1,0
1472088743035872,-3,4,3,2,-1,0,0,-3
1472088743036372,2,-2,-2,2,-4,-1,-2,1
1472088743036372,-1,3,-15,-1,0,0,-2,-2
1472088743058907,4,13,20,1,1,-1,1,2
1472088743058907,-3,-18,-1,-2,-3,-2,-2,0
1472088743059909,2,-2,-1,1,0,1,-2,-3
1472088743059909,0,8,0,2,1,1,1,0
1472088743073433,1,-3,-7,-1,0,2,1,0
1472088743073433,-2,0,4,-5,-3,-2,-2,-2
1472088743073933,-3,4,-9,-2,0,-1,-1,-2
1472088743073933,-5,-10,-3,-7,-1,-3,0,-2
1472088743095464,0,8,14,-2,-2,-1,-1,0
1472088743095464,1,-2,4,0,-2,-2,0,0
1472088743096472,1,-3,-10,4,-2,-2,0,-1
1472088743096472,0,-1,-4,-3,-2,-2,-1,-1
1472088743118998,-5,-14,-18,-8,-2,-1,-4,0
1472088743118998,2,2,-4,-1,1,0,-2,-2
1472088743119999,0,-1,1,-4,-1,2,-2,-2
1472088743119999,1,1,21,5,-2,-1,-1,-2
1472088743132526,1,2,-2,1,0,-2,0,-1
1472088743132526,-3,-4,-42,-4,0,-1,-1,0
1472088743141042,-4,1,3,1,-1,-3,0,1
1472088743141042,0,-3,10,-1,0,-1,0,-2
1472088743156055,-3,3,5,3,0,-1,1,-1
1472088743156055,-1,-2,-8,-7,-4,-4,-3,-3
1472088743156556,-3,-4,-9,-2,-1,-1,1,-3
1472088743156556,-3,-5,-6,-2,-2,0,-1,0
1472088743179099,-1,-2,-10,-3,-2,-1,-1,-4
1472088743179099,3,4,-4,2,1,2,-1,0
1472088743180101,2,6,23,2,-2,-1,-2,2
1472088743180101,-6,0,-8,0,-2,0,-1,0
1472088743192616,-3,-5,8,0,-2,-3,-3,-1
1472088743192616,1,11,-4,-2,0,-2,1,-1
1472088743200633,-3,-9,5,0,-1,0,0,-2
1472088743200633,3,-1,-7,1,1,0,-2,2
1472088743215650,-2,12,31,1,-3,-3,-2,-1
1472088743215650,-5,-13,-33,-1,-1,0,1,-1
1472088743216648,-4,1,-4,-3,-1,-1,-1,0
1472088743216648,2,-4,-12,-5,-3,0,-1,-2
1472088743239189,-5,0,15,-2,-2,-2,0,1
1472088743239189,-2,-1,13,3,-1,-2,-1,0
1472088743239691,0,2,-4,-2,0,2,-1,0
1472088743239691,2,-2,-3,-2,0,-2,-1,-1
1472088743252702,1,-1,-3,1,0,-2,-1,-2
1472088743252702,-5,-1,23,0,-1,-2,0,-1
1472088743260728,0,10,-21,1,-1,-3,0,1
1472088743260728,-1,-4,13,0,-1,0,-1,0
1472088743275750,0,-8,-26,-6,1,1,-2,-3
1472088743275750,0,3,10,2,-1,0,-1,0
1472088743276751,-1,1,25,-1,0,0,0,-2
1472088743276751,-5,-5,-19,1,-2,-2,-1,-3
1472088743298924,8,5,0,0,-2,-2,1,0
1472088743298924,-3,4,16,-4,-3,-2,-2,0
1472088743299923,-2,-7,-6,-1,-1,1,1,1
1472088743299923,-1,-4,8,0,0,0,-1,-1
1472088743312933,-2,-5,-21,1,-1,1,-1,-1
1472088743312933,3,6,22,1,0,0,-1,1
1472088743320942,-1,-8,-17,-4,0,-3,-1,-1
1472088743320942,-3,-5,23,1,1,-1,0,-1
1472088743335664,1,6,-11,-1,1,1,0,1
1472088743335664,2,10,31,3,0,-1,-1,-1
1472088743336663,-6,-13,-30,-1,0,-1,0,-2
1472088743336663,0,13,7,1,-2,-1,-1,-1
1472088743359196,-3,-9,2,-4,2,-2,-2,0
1472088743359196,-1,-4,-10,-3,-1,-1,0,1
1472088743359696,-1,10,21,0,-2,-1,-2,-2
1472088743359696,0,-4,-40,-4,0,-1,0,-1
1472088743372730,0,7,17,-2,-1,0,-1,0
1472088743372730,-1,-9,-6,1,-2,-1,0,-1
1472088743380739,-3,4,-8,-3,-1,-1,-1,0
1472088743380739,-4,-11,2,-2,-1,-2,0,0
1472088743395755,1,8,15,2,-2,0,-1,1
1472088743395755,-2,-12,-71,-7,-1,-1,-1,-1
1472088743396756,2,0,31,2,-1,0,-1,0
1472088743396756,-1,-4,-9,-2,-1,-2,-2,-1
1472088743418782,-1,-9,-14,0,1,0,1,0
1472088743418782,-2,0,17,-1,-3,-2,-2,-3
1472088743419784,2,15,-11,-1,0,0,1,0
1472088743419784,-2,-9,10,0,-2,-1,-1,-1
1472088743432622,0,-1,-8,0,0,-2,0,0
1472088743432622,-2,-1,0,2,0,0,1,0
1472088743441131,2,-9,7,-3,-3,-1,-1,-4
1472088743441131,-1,9,6,-1,0,-1,0,0
1472088743456153,-4,-7,7,2,-1,-3,-1,-2
1472088743456153,3,3,1,-3,1,1,0,0
1472088743456653,0,-1,14,2,-2,-2,0,0
1472088743456653,2,-3,-46,0,0,0,-1,0
1472088743479182,-4,-12,-13,-4,-5,-3,-3,-3
1472088743479182,-4,-1,14,0,-1,0,-2,-2
1472088743479683,-2,2,-5,-3,-1,-1,-3,-1
1472088743479683,0,2,-4,3,-1,-1,0,1
1472088743492705,-3,-6,3,-5,-2,0,-1,-1
1472088743492705,0,3,16,-2,-4,-1,-2,-2
1472088743500715,1,-3,-9,0,0,-1,0,0
1472088743500715,-3,-6,-1,2,0,-2,-2,-1
1472088743523759,1,0,-1,-2,-1,-2,0,0
1472088743523759,-4,6,11,-3,-3,-3,-2,-1
1472088743524760,-2,-6,-11,0,0,-2,-1,1
1472088743524760,-1,8,7,-3,-2,-1,0,-2
1472088743538780,0,-2,17,1,0,2,-1,0
1472088743538780,-2,-11,-23,1,2,-2,1,-3
1472088743539781,-8,10,5,-2,-4,-1,0,-3
1472088743539781,0,-1,30,-1,-2,-3,-2,1
1472088743552793,1,-4,-37,-1,-1,-1,0,-2
1472088743552793,0,3,15,-2,-1,-1,-1,0
1472088743560811,4,-17,-13,-1,2,-3,-2,-3
1472088743560811,0,11,13,-1,0,1,0,-1
1472088743575710,-4,-8,3,-1,-1,0,-2,-1
1472088743575710,0,7,0,1,1,2,0,0
1472088743576711,-4,-1,-11,-2,-2,-2,-2,0
1472088743576711,-3,-9,1,-5,-2,0,-2,-2
1472088743599250,2,15,-8,3,3,0,0,-1
1472088743599250,-7,-9,-1,-3,-2,-1,-3,0
1472088743599751,-1,-2,-2,-3,-2,-1,0,1
1472088743599751,1,3,0,1,1,0,-1,-1
1472088743621270,1,7,7,0,-3,-1,1,-1
1472088743621270,-6,0,3,0,-1,-1,-1,0
1472088743622271,-1,2,-4,-1,1,-1,0,0
1472088743622271,0,-4,5,0,-1,-1,0,0
1472088743635791,0,-4,19,4,-1,-3,-1,0
1472088743635791,3,0,-8,2,-1,0,-1,-1
1472088743636792,1,-1,-23,-7,-2,-2,0,-2
1472088743636792,-3,-4,13,0,-1,0,-2,-4
1472088743658326,-3,-5,-6,-2,-1,0,0,-1
1472088743658326,3,4,4,0,-1,1,0,0
1472088743658827,-3,0,-2,3,-1,-1,0,-1
1472088743658827,3,1,-4,-2,0,0,-1,0
1472088743681558,-5,-12,5,-4,-2,-3,-1,0
1472088743681558,2,9,-4,1,-2,0,-1,-1
1472088743682559,2,-8,-7,0,2,3,0,0
1472088743682559,-2,0,12,4,-2,-2,-1,0
1472088743696090,-1,-10,-21,-4,0,-2,-2,0
1472088743696090,-1,0,-10,-2,-1,-3,-1,-3
1472088743696591,-1,-1,1,-6,-1,-2,-1,-1
1472088743696591,-4,0,10,-3,-1,-2,1,0
1472088743718610,3,4,-9,1,0,-1,-2,0
1472088743718610,-5,-5,-24,-3,0,-2,-1,-1
1472088743719111,0,-1,30,5,-2,1,-2,-1
1472088743719111,-4,-4,-8,-3,-3,0,-1,-3
1472088743741271,2,4,7,1,0,0,1,0
1472088743741271,3,-1,-19,-6,1,-2,-1,-1
1472088743742271,-2,-1,2,0,0,0,-2,-2
1472088743742271,-1,-3,-12,-2,-1,-2,-1,0
1472088743755798,0,7,-2,2,-1,-1,-2,-3
1472088743755798,-1,-12,21,0,-1,-4,-2,-4
1472088743756800,0,-1,-5,-3,-2,-2,-1,0
1472088743756800,1,-5,1,-5,-1,-3,0,-1
1472088743777656,0,6,-7,-1,-1,-1,-2,-3
1472088743777656,-1,-10,-7,0,-1,-1,-1,1
1472088743786665,-3,1,-15,-4,-1,-2,-1,-1
1472088743786665,3,13,3,0,0,1,0,-1
1472088743802179,-3,7,4,-1,-2,-2,-1,0
1472088743802179,3,-1,2,2,-3,0,-1,1
1472088743803680,-5,-8,-11,-2,-2,-1,-1,-3
1472088743803680,-2,-2,7,3,0,0,0,1
1472088743824198,1,2,-8,0,-1,-1,1,2
1472088743824198,2,-1,14,1,1,-1,-1,0
1472088743825701,2,-6,-19,2,0,0,-1,-1
1472088743825701,2,5,13,-3,-2,-3,-2,-2
1472088743837212,-3,-4,4,0,0,-1,-2,-2
1472088743837212,-2,-5,3,-2,0,0,-2,0
1472088743846733,3,5,-7,-3,0,-2,0,-1
1472088743846733,-1,-4,-14,0,-1,0,-2,-2
1472088743861259,-1,0,-2,0,-1,0,-1,-2
1472088743861259,-3,-5,-4,5,0,0,0,-1
1472088743863259,-3,-4,-9,-8,-1,-1,-1,-2
1472088743863259,0,4,-5,-4,-3,-1,1,-1
1472088743883794,0,-8,6,-1,-3,-3,-1,-1
1472088743883794,-1,-3,-5,-6,-2,-1,-1,-1
1472088743885796,-2,5,20,7,-1,-1,0,0
1472088743885796,0,-2,-8,0,0,1,0,-1
1472088743897812,-1,-2,-22,-5,-1,-1,-1,-1
1472088743897812,0,1,-4,1,-1,0,0,-2
1472088743906531,0,-3,32,1,-2,-1,-1,1
1472088743906531,-1,1,-3,0,-2,-3,-2,0
1472088743921545,-3,-4,1,-3,-1,-2,-2,-2
1472088743921545,8,9,11,-4,-1,-2,-1,-1
1472088743923046,2,3,-22,-1,-1,-2,-1,-2
1472088743923046,-4,-13,-5,0,-1,1,-3,-2
1472088743944080,1,0,7,0,1,2,-2,0
1472088743944080,-5,1,9,-1,-5,-2,-1,-2
1472088743945584,1,-3,-7,0,-1,0,0,-2
1472088743945584,-1,11,-2,-2,-2,-2,-2,-2
1472088743957593,1,-8,-3,1,0,0,1,-2
1472088743957593,-2,-1,-5,-1,0,1,-1,-1
1472088743966607,1,3,6,1,-2,-1,-2,-2
1472088743966607,-3,-1,-13,-2,1,1,-1,0
1472088743981737,-1,-4,-8,-2,-1,0,1,2
1472088743981737,-6,2,32,-2,-4,-3,-3,-2
1472088743983261,0,-1,-15,-4,-2,-1,1,-1
1472088743983261,-4,-21,7,-1,0,0,0,-1
1472088744004397,-3,4,4,0,-1,-2,-1,-2
1472088744004397,-1,-1,-7,-1,1,0,0,1
1472088744005900,-3,0,7,-2,-2,-3,-1,-2
1472088744005900,0,3,-5,0,-1,-1,-1,-1
1472088744017917,-1,-4,-11,-1,0,-1,-1,-1
1472088744017917,-1,5,-3,-1,-1,-1,0,1
1472088744026915,-5,-3,2,-1,-1,0,-2,-1
1472088744026915,0,-1,-13,-1,-2,-1,1,-1
1472088744041889,0,-5,9,-2,-1,-2,0,-2
1472088744041889,0,7,-18,1,1,2,0,-1
1472088744043390,-1,-5,6,0,-1,0,0,0
1472088744043390,0,2,6,1,-1,0,-1,-1
1472088744064022,0,4,-2,-1,-1,1,-1,-1
1472088744064022,2,-12,-6,-1,0,0,-1,0
1472088744065509,-7,-3,-12,0,1,0,-1,0
1472088744065509,4,9,14,-2,1,-1,-2,-3
1472088744078065,-1,7,10,-2,-1,-3,-3,-2
1472088744078065,-1,-4,-12,0,0,-2,0,-2
1472088744086615,-1,-1,20,1,-1,-1,-3,-1
1472088744086615,3,-2,-5,2,-2,2,1,2
1472088744101201,-3,-3,-15,-6,-2,-1,1,-1
1472088744101201,-1,7,9,-3,-1,0,-1,-2
1472088744103242,0,-17,0,-1,0,-1,-1,1
1472088744103242,-4,-5,-9,-3,-2,-1,-2,-3
1472088744123857,0,5,1,-4,-3,0,-1,-1
1472088744123857,-1,-1,20,-1,-2,-1,-2,1
1472088744125899,2,6,25,1,-2,0,0,-1
1472088744125899,0,-2,-3,0,-1,-2,-1,-1
1472088744146497,0,-8,-3,1,0,-2,0,0
1472088744146497,-7,-8,-16,0,1,0,0,-3
1472088744147980,-1,7,19,1,1,-1,-3,-1
1472088744147980,3,3,-18,-5,-1,0,1,2
1472088744161068,-1,3,25,1,-1,1,-2,-1
1472088744161068,2,0,10,3,0,-2,1,0
1472088744167810,-2,-2,-39,-8,-4,-1,0,-3
1472088744167810,-6,-4,4,-2,0,-1,-1,-1
1472088744183948,0,-2,2,2,0,0,-1,0
1472088744183948,4,-4,-26,-6,-1,0,-1,-1
1472088744185894,2,-2,9,-1,-1,-1,-1,0
1472088744185894,-3,2,21,0,-2,-2,-1,-2
1472088744206527,0,0,-10,0,-2,0,-2,0
1472088744206527,0,-2,-2,0,-1,-2,0,-1
1472088744208029,-2,4,-28,-1,-1,-1,0,-3
1472088744208029,-1,-17,18,-2,-2,-2,-2,-2
1472088744221541,1,3,0,-1,-2,-2,0,0
1472088744221541,-3,-9,0,2,2,0,0,-2
1472088744223041,3,5,-12,-1,-2,-3,-2,0
1472088744223041,0,16,21,1,0,0,-1,-1
1472088744244372,-1,-3,10,1,0,0,1,-1
1472088744244372,1,0,5,-4,0,-1,-1,-1
1472088744245800,2,1,-21,-3,0,-1,0,1
1472088744245800,0,-4,-4,3,1,-1,0,0
1472088744266307,-3,-2,9,-3,-4,-2,0,-1
1472088744266307,2,12,-8,1,1,0,-2,0
1472088744268309,-2,0,10,-2,-3,-1,0,0
1472088744268309,-1,-1,-18,0,0,-2,-1,1
1472088744280847,1,-1,17,1,0,-1,-1,-1
1472088744280847,-3,-8,-11,-1,-2,-1,-3,-1
1472088744287854,-4,-6,14,1,-1,0,-1,-1
1472088744287854,0,-2,-22,-1,-1,-2,1,-1
1472088744304278,-5,1,-16,-3,-2,0,-2,-3
1472088744304278,-2,-4,5,-5,-2,-2,-3,1
1472088744305447,3,4,24,4,1,1,-2,-1
1472088744305447,-4,-8,-8,-10,-3,-2,-2,-1
1472088744326628,2,2,-23,0,-1,0,0,1
1472088744326628,-1,-2,-15,-1,-1,0,2,0
1472088744328160,-1,5,29,2,1,0,0,1
1472088744328160,0,18,12,3,-2,-1,0,-1
1472088744341829,-2,-26,-27,-3,-1,-1,-3,-1
1472088744341829,2,0,6,-1,-2,-1,-1,0
1472088744347931,0,-4,-1,-3,-2,-1,-2,-1
1472088744347931,0,7,8,4,-1,0,0,-1
1472088744364046,-2,0,4,1,-2,-1,0,-1
1472088744364046,0,-1,-6,-1,0,-2,-1,-2
1472088744365550,-5,-6,-12,-2,0,-2,0,0
1472088744365550,-1,-3,-11,-5,-1,0,-3,0
1472088744386684,-3,4,18,0,-2,-1,-3,-1
1472088744386684,-3,-7,0,1,-3,-1,0,-1
1472088744388240,1,2,-11,-2,0,-1,2,-2
1472088744388240,-1,-5,-28,-3,0,0,1,0
1472088744400817,0,0,15,-1,-2,-2,0,-1
1472088744400817,1,8,11,3,0,-2,-2,1
1472088744407824,-1,7,-1,-1,-1,-1,-2,-1
1472088744407824,-1,-4,2,1,-1,-2,-1,-1
1472088744424368,-2,-9,-45,-5,2,-1,0,-1
1472088744424368,-2,-3,-2,-1,-3,-1,-3,-2
1472088744425784,0,-4,0,-1,-2,0,-1,-3
1472088744425784,0,1,12,-1,-1,0,0,1
1472088744446389,-2,4,-5,-1,-1,0,-2,-1
1472088744446389,-1,-1,-2,-2,-1,1,0,0
1472088744448246,-1,-5,-51,-1,2,1,0,0
1472088744448246,-1,-5,35,1,-1,-3,-1,-2
1472088744460828,-2,5,19,0,-2,-1,-1,-1
1472088744460828,1,3,-23,-2,-2,0,0,0
1472088744467844,1,-6,0,-3,-1,-3,0,-1
1472088744467844,-6,1,-5,-1,1,0,0,-1
1472088744484359,-1,0,-1,0,1,0,-1,1
1472088744484359,-2,-2,-3,-3,-1,-2,-2,-3
1472088744485858,0,0,5,4,-1,1,0,-1
1472088744485858,-4,-1,-2,-3,-4,-3,-3,-4
1472088744506404,0,-2,15,-4,-3,-3,-2,-2
1472088744506404,-4,-1,12,0,-1,-1,1,2
1472088744507905,0,0,-9,-1,0,-1,-2,0
1472088744507905,2,6,-3,-7,-1,0,0,1
1472088744520915,-3,-3,0,2,0,-2,-1,-2
1472088744520915,0,-5,-3,0,0,-1,-1,-1
1472088744527423,-1,0,16,0,-1,-1,0,0
1472088744527423,0,-5,1,1,-1,-1,0,-1
1472088744544390,-1,-1,-7,-6,-4,-2,-1,0
1472088744544390,-3,-2,8,-1,0,-1,0,1
1472088744545891,-2,9,-3,-2,-2,0,0,-3
1472088744545891,3,-5,1,-1,0,0,0,-1
1472088744566737,-1,-3,-6,0,-1,1,0,0
1472088744566737,3,3,-3,-2,-2,-1,-2,-2
1472088744568238,-7,0,1,-4,-1,-2,-4,-1
1472088744568238,-1,-8,-18,1,0,0,-1,0
1472088744580833,1,4,-10,0,1,-1,0,-3
1472088744580833,0,-3,30,-1,-3,0,0,-3
1472088744587839,-1,-7,-20,-8,-4,-2,-2,-1
1472088744587839,0,1,-17,2,1,1,-1,0
1472088744603922,-1,-1,32,-1,-2,-3,-2,0
1472088744603922,-1,-2,-33,0,1,-2,-1,-1
1472088744605893,-1,-10,-2,-1,-1,-2,-1,-1
1472088744605893,-2,0,-15,-3,-4,-2,-1,-2
1472088744626414,4,11,-3,4,0,-1,2,0
1472088744626414,-3,-10,13,-4,-3,-2,-2,-4
1472088744627915,2,4,4,1,0,1,-1,-1
1472088744627915,-2,-1,-8,1,0,-1,-2,-1
1472088744639450,2,2,0,-1,0,1,-1,1
1472088744639450,1,4,-40,-1,0,1,-1,-1
1472088744649047,0,-4,10,1,-2,-1,-1,-1
1472088744649047,-1,1,14,0,0,-1,-1,0
1472088744664162,-4,2,-18,-4,0,0,-2,-2
1472088744664162,-2,-3,4,1,-1,-1,0,-1
1472088744665667,-5,-3,4,-4,-2,0,0,1
1472088744665667,2,5,-1,-1,0,1,-2,0
1472088744686723,-3,-8,2,2,-1,-3,-1,-2
1472088744686723,3,12,10,3,1,1,-2,-1
1472088744688225,1,-7,0,1,-3,-2,-2,-1
1472088744688225,-3,-7,29,0,-2,-1,-1,0
1472088744700242,0,5,-16,-1,-3,0,-1,0
1472088744700242,-3,-6,13,-3,-2,-2,1,0
1472088744709261,2,9,1,1,0,0,1,-2
1472088744709261,-1,-3,-8,0,0,0,0,-2
1472088744724312,2,-1,-6,-5,-1,-2,-1,1
1472088744724312,0,1,5,-2,-2,-2,0,-2
1472088744725805,0,4,17,2,0,0,-1,1
1472088744725805,0,-7,-29,-3,-2,-2,0,1
1472088744746954,-2,-2,20,-2,-1,0,0,-2
1472088744746954,-1,-7,-29,-2,-2,-2,0,0
1472088744748401,-6,1,30,-1,-1,-3,-2,-3
1472088744748401,-1,8,12,4,0,-2,-1,-1
1472088744760459,1,-13,-33,1,0,0,1,-1
1472088744760459,0,3,0,-3,1,0,-1,0
1472088744769007,-1,-2,-3,0,0,-1,0,-1
1472088744769007,0,5,-22,-4,-3,0,-2,-1
1472088744784060,-3,-3,13,1,0,-2,-3,-2
1472088744784060,-5,-9,-2,-3,-2,0,-1,1
1472088744785559,1,-4,-11,-4,-1,-2,0,-2
1472088744785559,0,-2,-10,-2,1,0,0,-2
1472088744806391,-2,-5,21,-3,-3,0,-2,0
1472088744806391,1,0,4,1,-2,0,-1,0
1472088744807894,0,1,-5,-2,-1,-2,-1,-1
1472088744807894,-3,-2,13,0,-1,0,-1,-1
1472088744820416,3,1,-9,-4,-1,-1,0,0
1472088744820416,0,9,4,-1,1,-4,-1,-1
1472088744829411,-3,-8,-16,-1,-2,-3,-1,0
1472088744829411,-1,-8,-7,-2,0,-1,1,1
1472088744844347,-4,2,13,1,0,1,0,-2
1472088744844347,2,13,13,-1,-3,-2,-1,0
1472088744845847,-2,-27,9,-2,0,0,-2,-1
1472088744845847,-3,-3,-24,-3,-3,-1,-2,-2
1472088744866538,0,0,8,1,0,-1,-1,-2
1472088744866538,-5,-7,-25,-3,-1,-2,-1,-2
1472088744868040,2,11,5,-1,0,3,-2,-1
1472088744868040,-5,-13,-11,-3,-2,-5,-3,-3
1472088744880203,-1,2,9,0,-3,-1,-2,0
1472088744880203,-2,-6,-5,-1,-3,-2,-1,-1
1472088744889211,4,1,-8,0,-1,-1,0,1
1472088744889211,0,0,3,0,0,5,0,0
1472088744903907,-3,-1,3,2,-1,-6,0,-2
1472088744903907,-2,-5,13,-1,-2,1,-3,-1
1472088744905424,1,2,-10,-2,-3,-4,-4,-3
1472088744905424,0,-3,3,-1,-1,-1,2,2
1472088744926682,-3,1,-12,-2,2,-1,3,-2
1472088744926682,1,-1,8,2,-2,0,-2,0
1472088744928209,0,13,-1,0,0,5,-1,-3
1472088744928209,0,-16,7,1,-1,-3,3,3
1472088744940215,0,-1,-13,-2,-2,3,-8,-2
1472088744940215,-5,2,3,0,2,-2,3,-3
1472088744949293,-1,-3,-5,-1,0,-4,-1,0
1472088744949293,1,6,1,-1,1,2,1,-2
1472088744964225,0,-4,-2,0,-1,-2,0,1
1472088744964225,1,-1,5,0,-2,-1,0,0
1472088744965733,-3,1,10,-1,-2,-2,0,1
1472088744965733,0,4,0,-2,-3,-3,-1,-1
1472088744986827,0,-6,-22,-3,-1,-2,0,-2
1472088744986827,-1,1,-18,-3,-2,0,-1,-3
1472088744988372,-1,-6,24,2,-4,-2,-1,0
1472088744988372,1,8,24,2,-2,-2,-1,-1
1472088745000459,0,4,-22,-3,-1,1,-1,0
1472088745000459,-2,-10,0,1,0,-3,-1,1
1472088745009412,0,-1,-27,-3,1,-2,-2,-1
1472088745009412,-2,0,29,-1,-2,0,-2,-4
1472088745023980,-1,-3,-14,-3,0,-2,-1,1
1472088745023980,3,5,5,0,0,1,0,1
1472088745025932,-6,-7,-10,-2,-1,0,2,-2
1472088745025932,8,7,-3,0,-1,-2,-2,-3
1472088745045651,0,5,33,2,-2,-2,0,0
1472088745045651,-3,-8,-40,-5,-2,-3,-2,-3
1472088745048113,4,10,3,3,1,1,2,0
1472088745048113,-5,-4,28,-2,-3,-3,-4,-2
1472088745069327,-2,-8,-59,-1,1,0,0,-1
1472088745069327,0,4,23,1,-1,0,-1,-2
1472088745070767,-3,1,-12,-1,0,0,-1,-1
1472088745070767,-5,-14,-31,-1,-1,-3,-2,-2
1472088745084383,0,0,28,0,-3,2,-1,1
1472088745084383,-4,-2,5,-2,-1,-1,-2,-2
1472088745085821,0,-1,-8,-2,0,-1,-2,0
1472088745085821,-2,5,0,-1,-1,0,-1,1
1472088745106712,3,-4,5,2,-1,-2,2,-1
1472088745106712,-1,-7,-21,-1,1,0,0,-1
1472088745108050,0,-1,-8,-5,-1,-3,-3,1
1472088745108050,1,9,37,-2,-2,-2,-1,-2
1472088745128901,-3,0,-20,-4,-3,-3,0,-2
1472088745128901,-1,-22,2,-1,-1,-1,-1,0
1472088745130859,-2,-3,0,3,-2,-1,-1,-1
1472088745130859,-3,5,-16,0,-1,0,0,-1
1472088745144398,0,9,3,-2,1,1,-1,-1
1472088745144398,0,1,9,-1,0,-2,1,-2
1472088745145897,0,1,3,-2,-1,-2,0,-2
1472088745145897,-1,-7,-15,-4,0,0,1,1
1472088745166506,2,10,26,3,0,-2,0,1
1472088745166506,2,1,-10,-2,0,0,-1,-1
1472088745168008,1,-9,-28,-3,-2,0,0,-1
1472088745168008,-7,-15,9,2,-3,-4,-1,-2
1472088745189178,-3,-4,3,-5,-4,-2,-1,0
1472088745189178,1,6,11,-1,-1,-1,-2,0
1472088745190681,1,-8,2,2,1,0,1,-1
1472088745190681,0,10,-4,-6,-2,0,-4,-4
1472088745203493,3,0,-7,0,-2,-3,-4,0
1472088745203493,-3,-8,-9,-7,-2,0,2,-1
1472088745210049,-3,23,28,0,-1,0,-1,-1
1472088745210049,0,-23,-22,1,1,-2,-1,-1
1472088745226605,0,19,26,1,0,0,0,-1
1472088745226605,-5,-12,9,-6,-4,-4,-1,0
1472088745228109,1,21,3,3,-2,-1,-2,0
1472088745228109,2,4,1,1,1,1,0,0
1472088745248915,-3,-14,-19,-6,-2,0,-1,-2
1472088745248915,0,7,7,4,0,-1,-2,0
1472088745250921,-2,-10,-14,-6,-2,-1,-1,0
1472088745250921,-1,9,32,3,-2,0,-2,1
1472088745263490,0,3,-13,-1,-1,-1,-1,-2
1472088745263490,-2,-7,-2,1,-2,0,-1,-2
1472088745270421,-3,-6,-9,-1,-3,-2,-2,-4
1472088745270421,2,4,-12,-1,0,-1,-1,-2
1472088745286579,-2,-10,-11,2,-2,-2,-1,0
1472088745286579,2,8,1,2,0,0,0,0
1472088745288002,0,0,13,2,-2,-2,0,-1
1472088745288002,-2,-6,-13,-1,-1,0,-1,-2
1472088745309302,-6,9,7,0,-3,0,-1,-3
1472088745309302,-1,-5,-1,0,-1,0,-3,-3
1472088745310841,3,5,10,1,0,1,0,1
1472088745310841,-2,-3,-27,-2,-1,0,0,1
1472088745323363,-2,-6,9,-7,-3,-3,-4,-4
1472088745323363,0,6,-2,1,0,-1,0,-3
1472088745330320,-2,-10,7,0,2,0,-1,-1
1472088745330320,0,8,-5,-10,-4,-1,-1,0
1472088745346752,0,-7,-1,3,0,0,-1,-1
1472088745346752,1,-15,0,0,-2,-1,-1,-1
1472088745348216,-4,-12,-5,-1,-3,-3,-3,-3
1472088745348216,3,5,-16,1,0,-1,0,0
1472088745369293,-1,0,28,0,1,-1,1,2
1472088745369293,0,7,-7,-2,-2,0,-2,0
1472088745370795,-2,2,-9,-1,0,-1,1,-2
1472088745370795,-1,0,6,1,-1,-1,-1,-2
1472088745383384,-2,-7,8,0,-2,0,-1,-3
1472088745383384,-2,2,-1,2,2,0,0,0
1472088745390430,2,3,3,-3,-2,-2,0,-1
1472088745390430,-3,-20,-6,-1,-1,-1,1,-2
1472088745406534,-1,-1,-8,0,0,-1,0,1
1472088745406534,1,5,16,0,-1,1,0,1
1472088745408496,-3,-7,-20,-6,-2,-1,-2,0
1472088745408496,1,10,12,0,-3,-2,-2,-1
1472088745429049,2,6,-3,2,-2,-1,-1,0
1472088745429049,-4,-1,-14,-2,-2,0,-1,0
1472088745430510,0,-5,6,1,2,0,-1,0
1472088745430510,0,-1,5,1,-2,-1,-1,-2
1472088745443681,-3,-8,1,-8,-1,-1,-2,-3
1472088745443681,2,9,2,2,1,-1,0,0
1472088745450147,-4,-2,6,0,-2,-1,0,-1
1472088745450147,-3,-14,-10,1,1,0,-1,1
1472088745466824,2,-4,-4,3,-1,-1,-2,0
1472088745466824,-2,-1,1,-5,0,-1,-3,0
1472088745468418,-2,7,7,-1,0,-2,-2,0
1472088745468418,0,-6,-3,-2,-2,-2,-1,-2
1472088745489152,1,0,-7,-2,0,-1,0,-1
1472088745489152,0,6,1,-4,-1,-3,-1,-3
1472088745490633,0,13,14,0,-2,1,0,-1
1472088745490633,-2,-10,-5,-1,0,1,0,-2
1472088745503212,-2,-5,-2,0,-1,-2,-1,0
1472088745503212,-1,0,-4,2,-1,-2,-1,-1
1472088745510251,-1,-8,-13,-2,0,-1,0,-1
1472088745510251,0,16,12,-2,-2,0,-1,-3
1472088745526736,-2,-19,-21,-1,2,1,-1,0
1472088745526736,-4,8,54,2,-3,-3,-1,-2
1472088745528357,-3,-19,-43,-6,-2,-3,-2,0
1472088745528357,2,4,20,1,0,-2,-1,-1
1472088745549026,-9,3,9,-4,-1,-1,0,-3
1472088745549026,-1,3,-14,0,1,-1,0,-2
1472088745550983,1,-10,17,0,0,-2,-2,2
1472088745550983,-3,0,-5,0,0,2,-1,1
1472088745562644,0,9,3,4,-1,0,-1,1
1472088745562644,-5,-25,-15,-8,-3,-2,-2,-1
1472088745571772,-1,7,10,2,0,-1,0,-3
1472088745571772,-1,1,-13,-2,0,-1,1,1
1472088745586803,4,4,5,0,-1,0,-4,-1
1472088745586803,0,-5,-8,0,-1,-1,-1,0
1472088745588327,0,-11,-7,-3,-2,-3,-2,-1
1472088745588327,1,10,0,-1,-2,-1,-1,-2
1472088745609126,0,6,-3,1,-2,-1,2,0
1472088745609126,-2,-8,-13,-1,0,-1,-2,-1
1472088745610679,-2,-2,-13,-3,0,-1,-2,-4
1472088745610679,1,0,8,0,-2,-1,-1,0
1472088745622659,0,-8,2,0,-2,-2,-2,-1
1472088745622659,-3,0,-10,1,-1,-1,-1,-1
1472088745631635,-2,4,-12,-4,-2,-1,-2,-3
1472088745631635,-2,-6,19,1,-3,-1,-1,1
1472088745646787,-1,2,-30,-4,2,-1,0,0
1472088745646787,0,-4,-1,0,0,0,0,0
1472088745648275,5,-7,-9,0,-3,0,-1,1
1472088745648275,2,14,4,1,-1,1,-2,0
1472088745669100,-7,-33,8,2,-2,-1,-2,-2
1472088745669100,1,12,1,-1,-1,-2,0,2
1472088745670586,1,7,19,1,2,-1,0,0
1472088745670586,-4,-6,-20,-5,0,-2,1,-2
1472088745682609,3,3,-15,1,1,0,-2,-1
1472088745682609,-1,-6,38,-5,-4,-2,-3,-5
1472088745691765,-1,3,-9,1,-1,0,2,-1
1472088745691765,1,-5,1,-2,1,-1,0,-2
1472088745706465,-4,6,1,-1,-2,-2,-1,-3
1472088745706465,2,6,-2,-2,0,1,1,1
1472088745708036,-1,9,9,-1,-2,1,0,0
1472088745708036,-1,-12,-19,-3,-1,0,-2,-1
1472088745729278,-1,3,-6,-3,-1,-1,1,2
1472088745729278,0,-2,0,1,0,1,1,1
1472088745730734,-3,-6,0,-4,-3,-2,0,-1
1472088745730734,-1,-9,11,2,1,-1,-2,-2
1472088745742827,1,0,-21,-6,-2,-1,0,0
1472088745742827,-2,6,17,1,-1,-2,1,-1
1472088745752018,-5,-13,-30,-2,-3,-2,0,-2
1472088745752018,0,5,23,3,-1,-1,-2,-2
1472088745766671,4,3,4,-3,-2,-3,0,-1
1472088745766671,-4,-5,-16,-1,1,0,-1,-2
1472088745768344,0,-3,-8,-1,1,0,-1,0
1472088745768344,-3,8,10,-2,-1,-5,-1,-2
1472088745788975,-2,3,24,2,-2,-1,0,-2
1472088745788975,0,-3,-22,-4,0,-2,-2,0
1472088745790990,1,1,13,3,1,-2,-2,0
1472088745790990,-2,-12,-23,-3,-2,0,0,0
1472088745803049,2,2,14,3,-1,0,1,-2
1472088745803049,0,-1,-9,-4,-1,-1,-3,0
1472088745811581,2,2,11,2,-2,0,2,0
1472088745811581,-5,-8,-15,1,-1,-1,-1,0
1472088745834237,2,22,4,0,1,1,-2,-2
1472088745834237,-1,-25,-18,0,-1,-2,0,0
1472088745836150,-1,6,25,-4,-1,-1,-1,0
1472088745836150,0,5,-9,-2,-1,0,0,1
1472088745848171,-4,-13,-2,-2,-1,0,0,-2
1472088745848171,1,9,-4,2,-1,1,0,-1
1472088745850507,-4,-2,3,-4,-2,-1,-2,-2
1472088745850507,-1,-6,-12,-1,-2,-3,-2,-2
1472088745862526,-4,6,6,-3,-2,-3,-2,-2
1472088745862526,-2,-13,-21,-2,-2,-1,0,-2
1472088745871556,-6,-1,10,-2,-1,-1,-2,-2
1472088745871556,3,9,-6,-1,-2,-2,-2,0
1472088745886496,-1,-6,-8,-1,0,-1,-3,-2
1472088745886496,-2,6,-32,-3,-3,0,1,0
1472088745888475,0,0,26,3,-1,-2,-1,0
1472088745888475,1,7,-15,-2,-1,0,1,0
1472088745909181,-5,-19,14,-2,-1,-3,0,0
1472088745909181,-1,7,15,1,-1,0,1,0
1472088745910494,2,3,-13,-1,1,1,-1,1
1472088745910494,0,3,-7,0,-1,0,-1,-2
1472088745923110,2,-7,-12,-2,-1,-2,0,2
1472088745923110,-2,6,22,1,1,-1,-3,-4
1472088745931576,2,-12,-12,0,-2,-1,-2,0
1472088745931576,2,8,21,0,-1,-2,0,-3
1472088745946747,-6,0,8,0,-2,1,-1,0
1472088745946747,0,-10,-21,-4,-3,-2,-3,-2
1472088745948290,-4,1,2,2,1,-2,-1,-1
1472088745948290,3,4,-9,-2,1,0,-1,-1
1472088745968939,0,-5,-3,-3,-1,-1,0,-2
1472088745968939,-2,6,-2,1,1,0,-3,0
1472088745970389,-2,4,3,-1,-3,0,-1,-1
1472088745970389,-4,-28,-5,-1,-1,-1,-6,-1
1472088745990464,1,1,-3,-1,-2,0,-1,0
1472088745990464,0,4,19,1,-1,-2,-1,-2
1472088745992947,0,2,-2,1,1,-1,0,-2
1472088745992947,-4,2,-7,-6,-3,-1,1,0
1472088746006402,0,-1,-9,-2,-1,-1,0,0
1472088746006402,1,-6,-4,-1,-1,-1,-3,-2
1472088746008403,-2,-3,-9,-1,-2,0,-1,-1
1472088746008403,-7,2,10,0,-4,-2,-2,-2
1472088746028943,3,-1,0,1,1,-2,1,1
1472088746028943,8,14,11,1,-1,-2,2,1
1472088746030945,-3,-13,-16,-3,-1,-1,2,-3
1472088746030945,-5,-4,-1,4,0,0,-1,1
1472088746051526,-4,-8,11,-4,-5,0,-2,-4
1472088746051526,-1,-1,-29,1,1,1,0,1
1472088746053640,3,3,1,-3,-3,-2,-2,-1
1472088746053640,3,-8,-5,2,-1,-1,1,2
1472088746067066,1,10,11,0,2,-1,-1,-1
1472088746067066,-1,-4,-8,-3,-1,-2,-2,-1
1472088746068634,0,0,-3,0,-1,1,-2,-1
1472088746068634,2,-2,-3,0,0,1,0,0
1472088746089693,-3,5,5,-1,-4,-1,-4,0
1472088746089693,-3,-1,1,-2,-1,-1,-3,-1
1472088746091226,1,2,-16,-3,-1,0,-3,-2
1472088746091226,-1,4,11,-1,-1,-2,1,0
1472088746111825,5,5,-7,1,1,-2,-5,0
1472088746111825,-7,-13,11,-4,-1,-1,-3,-3
1472088746113372,-4,-1,10,-1,-1,-1,-1,0
1472088746113372,2,6,-2,-1,1,0,-1,0
1472088746126393,-3,-1,-4,-6,-2,-1,1,-3
1472088746126393,-4,1,5,-3,-3,-2,0,-1
1472088746128403,1,0,3,5,-2,-3,0,-1
1472088746128403,-5,0,-11,-1,-2,-1,-3,-2
1472088746148999,2,9,8,1,0,0,1,-1
1472088746148999,1,-1,14,1,0,0,-1,-2
1472088746150945,-1,-8,-8,0,1,-2,0,-1
1472088746150945,-1,7,-30,-5,-1,-1,-1,-1
1472088746171690,-1,-22,36,1,-1,-2,2,-1
1472088746171690,1,13,-1,0,0,1,0,3
1472088746173149,-1,-11,1,-1,-2,0,-1,-1
1472088746173149,0,-1,-5,0,0,0,-1,1
1472088746185943,-1,1,-7,1,-1,1,0,0
1472088746185943,-3,-1,-11,-4,-3,-2,-1,-2
1472088746192948,1,-3,4,-2,-1,-1,-2,0
1472088746192948,-1,6,5,0,-1,0,-1,-2
1472088746209231,-1,-2,-4,-2,-1,0,0,2
1472088746209231,3,-2,9,1,0,1,0,1
1472088746210694,-9,6,8,-3,-4,-2,-1,-1
1472088746210694,3,-7,-4,-1,-1,-2,0,-1
1472088746231713,-1,2,-3,4,0,0,0,-2
1472088746231713,-2,-4,-6,-2,-1,-1,-2,-1
1472088746233216,3,1,-4,-3,-1,-2,0,-2
1472088746233216,-4,6,-2,0,-1,0,0,-1
1472088746245815,-4,-3,-10,-2,0,0,-1,0
1472088746245815,3,-4,-2,0,-1,-2,0,-1
1472088746252843,0,5,-5,-3,0,0,-1,0
1472088746252843,-1,-4,12,-1,-2,-1,-2,-1
1472088746269293,-1,7,-18,-2,1,-1,0,-2
1472088746269293,-4,-4,-1,-2,0,-1,1,0
1472088746270788,-3,4,3,0,0,-2,-1,1
1472088746270788,0,0,9,1,0,-1,-2,-1
1472088746291777,-2,-12,-12,0,-1,-1,-2,1
1472088746291777,-3,-2,-1,1,0,2,3,0
1472088746293276,0,3,28,0,0,0,-1,0
1472088746293276,0,-2,-18,-4,-2,-1,-1,-3
1472088746314309,-5,-8,2,-1,-3,-3,-2,0
1472088746314309,-3,-8,-29,-5,-2,-3,-2,-1
1472088746315812,5,-3,-4,-2,-1,0,-2,0
1472088746315812,-8,-7,-1,0,0,-2,-1,-1
1472088746329323,4,9,9,-1,-1,-1,-2,-2
1472088746329323,-2,5,-2,-3,-2,0,0,-1
1472088746330869,2,-1,0,1,-2,-2,-1,-1
1472088746330869,1,-8,2,-2,0,1,0,0
1472088746351525,-3,4,-17,-1,-2,1,-2,0
1472088746351525,0,-14,-4,2,0,-2,-1,-2
1472088746353516,-9,2,14,-2,-1,-1,1,-1
1472088746353516,1,5,17,-1,-3,-2,-1,1
1472088746374242,0,-1,-8,-1,0,-1,-2,-2
1472088746374242,3,3,5,3,0,-1,-2,0
1472088746375722,-1,-3,-7,2,-1,0,0,-1
1472088746375722,0,-3,9,-2,-2,-1,2,-1
1472088746389274,7,0,-51,-4,-3,0,-1,1
1472088746389274,-1,-3,33,0,-1,-1,-1,-1
1472088746390774,1,3,-11,-3,-1,-3,-3,-1
1472088746390774,-3,-10,-4,-1,0,-2,-1,-4
1472088746411487,-4,-6,-1,-2,-2,-2,-1,-4
1472088746411487,-2,1,4,-1,-1,-1,-2,-1
1472088746413449,0,-2,-18,-3,-1,0,-2,-1
1472088746413449,0,0,6,-1,-3,-2,-1,0
1472088746426002,1,4,5,0,1,0,0,0
1472088746426002,-11,-3,-8,-3,-2,-1,-3,-2
1472088746432965,1,2,9,-2,0,0,-2,0
1472088746432965,0,3,-29,0,-1,-1,-2,-2
1472088746449329,-5,2,49,1,-1,-5,-1,0
1472088746449329,2,4,-9,-2,-3,0,-3,-2
1472088746450845,1,2,-17,-1,-1,0,0,1
1472088746450845,-4,-2,17,-1,-3,1,-2,0
1472088746471890,4,-6,-15,0,1,0,0,-2
1472088746471890,3,5,14,-2,-1,-1,0,-1
1472088746473394,-8,-2,-18,-3,-3,-2,0,-1
1472088746473394,3,1,18,-2,0,-1,-1,0
1472088746485489,-6,-5,2,-3,-2,-1,-2,-4
1472088746485489,3,0,0,1,0,-2,-1,1
1472088746494124,0,-7,-22,-1,1,-2,0,-1
1472088746494124,-1,-3,-5,-4,-1,0,0,1
1472088746508838,6,12,11,1,-3,-3,0,0
1472088746508838,-7,-8,4,4,0,0,-1,-2
1472088746510860,-1,-2,8,1,-2,-1,0,-3
1472088746510860,0,0,-6,1,0,0,1,0
1472088746531505,-2,-2,-1,-3,-1,0,1,0
1472088746531505,4,-1,-38,-3,-1,-1,-1,-2
1472088746533507,2,2,26,0,-1,-1,0,0
1472088746533507,-2,0,12,-2,-3,-1,-3,-1
1472088746545601,0,-6,-17,-1,-1,-1,0,0
1472088746545601,1,4,16,1,0,2,0,2
1472088746554536,0,-5,-6,-3,0,0,-2,-2
1472088746554536,0,2,-9,2,0,-2,-2,0
1472088746569239,-3,-2,8,-2,-3,-2,-1,-2
1472088746569239,1,-2,1,-1,-1,0,-1,-1
1472088746570742,1,9,2,4,-2,1,0,-2
1472088746570742,0,1,29,-3,-2,-2,-2,-2
1472088746591953,-3,-13,-7,-1,-1,-2,-2,-1
1472088746591953,-3,0,-6,0,-1,-3,-1,0
1472088746593480,-3,-4,-16,-1,-3,0,-1,0
1472088746593480,1,-3,-5,0,1,0,1,-1
1472088746605584,-5,2,3,0,0,0,-3,-1
1472088746605584,-1,1,2,-3,-3,-1,0,-2
1472088746614697,1,3,8,-3,-1,-1,-1,-1
1472088746614697,-4,-10,-6,-1,0,-1,-2,-1
1472088746629303,1,0,15,-1,-2,-2,-2,-2
1472088746629303,0,-1,-6,-4,0,-1,0,1
1472088746630715,-5,-6,-6,0,-1,-3,-2,-1
1472088746630715,7,2,5,1,0,-1,-1,-2
1472088746651825,1,2,-10,-2,1,1,0,0
1472088746651825,-4,2,11,3,-2,-1,-2,-1
1472088746653325,2,-1,-19,-1,0,0,0,0
1472088746653325,-2,-15,-5,-1,-2,-1,0,-2
1472088746665348,-2,5,8,0,-3,-3,-2,-1
1472088746665348,3,13,-2,1,0,-1,0,-2
1472088746673965,-2,-13,0,-5,0,-2,-3,-2
1472088746673965,0,4,-13,-1,-1,1,-2,2
1472088746689014,-3,-9,-10,-3,-1,-2,0,0
1472088746689014,-1,-3,9,1,-1,-1,-1,-3
1472088746690515,1,3,-3,0,0,-1,-1,-1
1472088746690515,-5,-4,-13,-5,0,-2,-2,-2
1472088746711626,-1,0,9,1,0,-1,-1,-2
1472088746711626,-3,-7,-12,-4,-1,-3,-1,-2
1472088746713613,-1,-4,3,1,-2,-1,-1,-2
1472088746713613,1,2,26,0,-5,0,-1,0
1472088746725566,-3,3,-8,-1,-2,0,0,0
1472088746725566,-9,-5,1,0,2,1,0,-1
1472088746734186,2,-2,4,0,-1,-3,-1,1
1472088746734186,-1,-2,-14,2,1,-1,0,1
1472088746749293,1,-1,0,1,0,-1,1,1
1472088746749293,3,-1,9,0,-4,-2,-1,-3
1472088746750805,-4,0,-9,-2,0,-2,0,-1
1472088746750805,-1,0,-6,1,0,-1,-2,-4
1472088746771844,-3,-10,-9,-5,-3,-4,-1,-2
1472088746771844,-2,-4,3,0,0,-1,-1,1
1472088746772845,-3,1,-2,-5,-4,-1,-2,-1
1472088746772845,2,1,-6,3,-2,-1,0,3
1472088746785503,1,0,-14,-5,0,1,-1,-2
1472088746785503,0,0,9,-2,-2,-1,0,-1
1472088746794592,-2,-1,3,0,-1,-1,-1,-2
1472088746794592,-6,10,1,-2,-1,-1,0,-2
1472088746809181,1,-14,-11,2,0,0,-1,-2
1472088746809181,0,2,-10,-3,0,1,1,-2
1472088746810698,-1,-6,2,-4,-2,0,-1,0
1472088746810698,-1,7,-5,1,-1,-1,0,-1
1472088746831879,1,1,7,0,0,-1,-1,0
1472088746831879,-1,3,12,2,0,0,-2,-1
1472088746833400,-3,-8,-8,2,-1,0,-1,1
1472088746833400,-1,-5,-3,-4,0,-2,0,0
1472088746853959,1,-2,-1,1,0,0,-1,0
1472088746853959,0,-1,4,-2,-2,-1,0,-1
1472088746855748,-4,-4,0,0,-1,0,0,-2
1472088746855748,-1,-5,-2,-2,0,0,-1,-3
1472088746869267,-2,-1,-16,0,-1,1,0,1
1472088746869267,0,2,32,1,-2,-2,0,1
1472088746870771,-1,1,-41,-5,-1,-2,0,-1
1472088746870771,-2,1,20,2,-2,-2,-2,-2
1472088746891528,-4,-1,9,-2,-3,-1,-2,-3
1472088746891528,1,-6,-18,1,-1,-1,-2,-1
1472088746892979,-2,2,-3,0,0,0,-1,0
1472088746892979,0,0,2,0,0,0,0,1
1472088746905048,-5,3,-3,-2,-2,-1,1,1
1472088746905048,4,3,-4,-1,-2,-2,-1,0
1472088746914584,-5,1,4,1,1,0,0,-3
1472088746914584,-2,-4,5,-1,-2,-1,-1,-3
1472088746929153,0,7,0,-3,-1,-1,-1,-1
1472088746929153,2,-4,-10,-1,0,0,-2,-1
1472088746930599,5,-3,10,0,-2,-2,-2,1
1472088746930599,-4,5,-11,-3,1,-1,-1,0
1472088746951491,-3,-9,-4,1,-1,-1,0,0
1472088746951491,-2,0,3,-4,-3,-1,-1,2
1472088746953493,-2,-1,1,0,-2,-1,-1,0
1472088746953493,1,-2,-3,0,0,0,-3,-1
1472088746974154,1,-3,-5,1,-1,-1,-2,-1
1472088746974154,-3,-6,-23,-5,-1,-2,-1,-2
1472088746975601,-5,3,36,-1,-2,-2,-2,-3
1472088746975601,1,2,-9,0,-3,-1,0,-1
1472088746988323,1,1,4,-1,-1,0,-2,0
1472088746988323,-1,2,-9,1,0,-1,-1,0
1472088746995316,2,-1,-5,-1,-1,1,-1,0
1472088746995316,-1,-1,-5,-4,-1,0,0,-2
1472088747011536,-1,0,-5,2,-2,0,-1,-2
1472088747011536,-1,-1,14,0,-2,-1,-1,0
1472088747013506,-1,0,22,0,-2,-2,-3,-2
1472088747013506,0,6,-19,-2,0,-1,-1,-1
1472088747034045,-3,-18,-3,-2,0,0,-1,1
1472088747034045,-6,0,-6,1,-1,0,0,-1
1472088747036154,0,1,-4,1,1,0,-1,-1
1472088747036154,5,0,2,-1,-2,-2,-2,-1
1472088747049056,-6,6,-7,0,-1,0,0,-1
1472088747049056,0,-3,-2,2,-1,0,-1,-2
1472088747050559,3,-5,12,-4,-2,-3,0,0
1472088747050559,-4,2,16,2,-1,0,-1,0
1472088747071725,2,6,-8,-2,0,-2,-2,-3
1472088747071725,-2,3,9,1,-1,-1,0,1
1472088747073209,-1,-2,-11,2,1,2,0,0
1472088747073209,0,-5,26,-1,-4,-1,-2,-1
1472088747094302,-1,-1,-29,-3,0,0,-1,0
1472088747094302,1,4,3,-3,0,0,-1,0
1472088747095761,1,-4,4,-3,-1,-1,0,-3
1472088747095761,-4,-3,-1,-3,-2,-2,-1,0
1472088747108330,-6,-4,10,1,-1,-1,-1,-3
1472088747108330,0,-1,-5,-1,-2,1,-1,-2
1472088747115340,2,2,-5,1,-1,-2,-1,0
1472088747115340,0,-9,-14,-3,-1,-2,-2,-1
1472088747131910,0,7,12,-2,-1,-1,-1,-1
1472088747131910,-1,-3,-3,-2,0,-3,-1,-2
1472088747133399,3,0,-20,-3,-3,-2,0,0
1472088747133399,-5,-2,2,4,1,-2,-1,-1
1472088747154211,-2,1,11,-1,-1,0,-1,-1
1472088747154211,0,0,-16,-3,-2,-3,-2,-1
1472088747155713,0,1,5,1,0,1,-1,-1
1472088747155713,-1,-5,-6,-5,-1,-1,0,-2
1472088747168381,1,-1,0,-3,-4,-3,-1,-1
1472088747168381,-1,-5,4,1,-1,0,-1,0
1472088747175504,0,6,-7,0,-2,-1,-1,-1
1472088747175504,-6,-7,-14,-1,0,0,1,0
1472088747191497,1,-4,17,0,0,-3,-2,-3
1472088747191497,-2,-3,-17,-3,0,-1,-2,0
1472088747193037,0,2,12,2,1,-1,0,0
1472088747193037,3,4,-4,-3,-3,-1,0,-2
1472088747214165,2,3,-10,0,-1,-1,1,1
1472088747214165,-1,-6,13,0,-1,1,-2,-3
1472088747215621,-4,-2,4,0,-3,-3,-1,-2
1472088747215621,0,-3,-11,0,1,1,-1,0
1472088747228745,-1,3,-1,-2,-3,-1,-1,-1
1472088747228745,0,-1,-2,0,-1,-1,2,-1
1472088747235154,-6,-7,-14,-2,-3,-1,-1,-1
1472088747235154,-3,3,11,-1,0,-2,0,-1
1472088747251793,2,1,-10,0,-1,-1,0,0
1472088747251793,-7,9,14,0,0,-2,0,1
1472088747253303,-2,-8,-16,-3,-1,-1,-1,0
1472088747253303,2,5,-8,-3,-2,-2,0,-3
1472088747274092,6,5,21,3,0,-2,-2,0
1472088747274092,-10,-15,-16,-3,-2,-2,-2,-4
1472088747275565,3,11,15,0,3,0,-2,0
1472088747275565,0,0,-12,2,-1,-2,-2,0
1472088747288642,-3,-2,19,-2,-1,-2,0,2
1472088747288642,2,-4,-38,-7,-2,-2,-1,-2
1472088747295179,-3,-7,-20,-1,-3,-1,-2,0
1472088747295179,-6,-2,14,1,0,0,-1,-3
1472088747311701,-2,0,6,1,-1,1,0,-1
1472088747311701,1,2,1,-2,-2,-2,-2,0
1472088747313205,-1,-5,7,-2,-1,-1,0,-1
1472088747313205,2,-7,-7,1,0,0,-2,0
1472088747334146,-8,6,2,-3,0,0,0,-1
1472088747334146,0,2,-2,1,-1,-2,-3,-4
1472088747336140,-4,-3,4,-7,-2,-3,-1,-1
1472088747336140,1,-2,1,-2,0,-2,-1,-2
1472088747348772,-4,-6,-19,1,-1,0,-2,-2
1472088747348772,0,-2,21,3,-1,1,0,-1
1472088747355371,-1,-4,-5,-1,0,-3,-2,-2
1472088747355371,6,10,-4,0,-1,-1,0,0
1472088747371977,-6,-10,1,-2,0,1,-1,0
1472088747371977,2,3,-4,-1,0,0,1,0
1472088747373441,-1,-5,10,4,0,0,-2,-1
1472088747373441,-2,3,-9,-6,-3,-1,-3,-2
1472088747394116,6,-2,1,1,-1,-1,-1,0
1472088747394116,-4,-4,5,1,-3,-3,-1,-1
1472088747395631,0,4,-4,2,2,1,1,1
1472088747395631,0,-3,30,0,-1,-3,-1,0
1472088747408694,0,-4,-15,-1,-1,-2,-2,0
1472088747408694,-1,7,13,0,-2,-1,-2,0
1472088747415276,1,0,-4,-2,-1,-1,1,0
1472088747415276,-7,-16,-21,0,1,0,-1,-2
1472088747431746,0,9,3,-3,-4,-2,0,0
1472088747431746,1,-6,-5,1,1,0,-2,0
1472088747433295,1,1,-4,-4,-2,-1,-1,0
1472088747433295,-2,4,8,1,2,0,0,-2
1472088747453553,-5,-10,0,-1,-1,-2,1,-1
1472088747453553,2,1,-8,-1,-1,1,-1,0
1472088747455560,1,10,5,1,-2,-1,-2,-1
1472088747455560,-5,-23,-24,-2,0,-3,0,2
1472088747468097,0,11,12,0,-2,-1,-1,0
1472088747468097,0,-4,-5,-2,0,-1,0,1
1472088747476741,-1,-1,15,-1,-3,0,-1,0
1472088747476741,3,11,-10,2,-2,0,-1,0
1472088747491858,-4,-8,-7,-3,-1,-2,-2,-4
1472088747491858,-3,-4,-3,-2,1,-2,1,0
1472088747493385,-1,3,11,2,0,-1,0,0
1472088747493385,-1,0,7,-2,-3,-1,-1,0
1472088747514420,0,-6,-1,0,1,-1,-2,0
1472088747514420,0,1,-35,-2,-1,-2,1,-3
1472088747515602,-4,-4,-13,-2,0,0,-2,-5
1472088747515602,-4,-6,7,-2,-3,-2,-1,-2
1472088747527618,2,4,-5,-2,-2,-2,-1,-1
1472088747527618,0,2,14,-2,1,-1,-1,0
1472088747536677,0,3,3,0,0,0,0,-1
1472088747536677,0,2,-2,-1,-2,0,0,0
1472088747551736,-1,-3,-4,-1,0,0,-2,-2
1472088747551736,-7,-2,-6,-2,-2,-2,-2,0
1472088747553240,0,-6,-14,-5,-1,-1,-1,0
1472088747553240,1,10,23,1,-2,-2,1,0
1472088747574383,-1,-2,-10,-1,1,-1,0,-1
1472088747574383,5,-2,8,0,-2,0,-2,1
1472088747575395,-4,-6,-20,-1,0,-1,-2,-2
1472088747575395,-1,-2,-7,-3,-3,-1,-2,-2
1472088747587790,-1,-5,5,-1,0,0,-2,-1
1472088747587790,-2,6,0,-1,-3,-2,-1,-1
1472088747596790,-3,-10,22,-1,0,-3,-2,-1
1472088747596790,1,1,-3,-1,-1,-1,0,-1
1472088747611871,-2,6,-17,0,0,0,-1,1
1472088747611871,-1,0,16,0,-1,-1,-2,-2
1472088747613412,-3,-2,-15,-3,1,-1,0,-3
1472088747613412,-2,-4,-8,3,0,0,1,-1
1472088747634461,4,0,-3,-5,-2,-2,0,0
1472088747634461,-3,-2,4,-2,1,-1,0,-1
1472088747635947,6,3,1,-4,-1,-1,1,1
1472088747635947,1,-1,-10,-3,0,-1,-3,-1
1472088747647507,-7,-2,-16,-1,-1,2,-1,-3
1472088747647507,4,-4,20,0,-1,-1,-1,-1
1472088747656522,-2,5,2,0,-2,-1,-1,1
1472088747656522,-3,-4,-1,0,-1,-1,0,1
1472088747671634,0,5,-8,0,-2,0,1,-1
1472088747671634,-1,-7,-7,-1,-2,-2,-1,-2
1472088747673134,-5,-5,-3,0,-1,-1,-1,-1
1472088747673134,1,0,4,-2,-1,-2,-1,0
1472088747694165,-1,-4,10,3,0,-3,-2,0
1472088747694165,-2,2,-11,-1,2,0,0,-3
1472088747695623,1,-7,-2,1,-2,-1,-1,-1
1472088747695623,2,7,1,-1,-1,-1,-1,0
1472088747707144,-7,-9,24,-1,-3,-5,-2,-1
1472088747707144,2,0,-12,-1,1,1,-1,-1
1472088747717002,1,1,12,-1,-3,0,1,-1
1472088747717002,-1,8,-1,-1,0,2,-1,0
1472088747731530,2,-4,-13,0,0,1,-1,0
1472088747731530,-5,-1,29,4,-1,-1,0,0
1472088747733017,-4,-1,3,-6,-2,-3,-1,-4
1472088747733017,2,-5,0,-2,-1,-1,-2,-2
1472088747754430,-2,1,-4,0,-1,0,-2,0
1472088747754430,1,-3,-8,-1,-1,-2,0,-2
1472088747755932,-7,1,-11,0,-1,-2,0,0
1472088747755932,3,-6,1,0,0,2,-1,-2
1472088747767993,1,0,-5,-1,0,-1,0,1
1472088747767993,1,7,-1,0,-3,-1,-1,0
1472088747776629,3,-2,-3,0,1,-1,-1,-1
1472088747776629,-3,-5,-7,-2,-2,-1,-2,-3
1472088747791782,-7,1,14,-2,-1,-2,0,-3
1472088747791782,1,0,-2,0,1,0,-1,-1
1472088747793257,0,3,-13,2,0,-2,0,1
1472088747793257,-1,-8,-13,-2,0,0,-2,0
1472088747814064,-2,2,34,1,-1,-1,0,-2
1472088747814064,-4,-1,-4,-3,-1,-2,-1,-3
1472088747815566,0,0,-4,-2,-2,1,-2,-1
1472088747815566,-2,2,-7,-1,2,0,1,0
1472088747827667,3,-4,-5,-1,-3,-1,0,-1
1472088747827667,-2,0,-9,-5,-2,-1,-2,-1
1472088747836592,-3,-6,1,-3,-1,0,-2,0
1472088747836592,-4,0,-6,-2,-2,-4,-1,0
1472088747851860,1,5,0,-1,0,-2,-1,-2
1472088747851860,1,-6,8,-2,-1,-1,-1,-2
1472088747853413,-2,4,-12,-1,0,1,-1,-1
1472088747853413,-5,-8,2,-2,1,1,-1,1
1472088747874112,5,2,-4,0,-2,1,-2,0
1472088747874112,1,2,-7,-1,-2,-1,0,1
1472088747875559,2,-6,-27,-1,0,-1,-2,-3
1472088747875559,0,5,44,1,-2,-1,-1,-2
1472088747896723,-8,-4,-3,-3,-1,-3,-2,-1
1472088747896723,3,-5,-13,-1,-4,1,0,1
1472088747898254,-3,-3,8,-2,-1,-2,0,-1
1472088747898254,2,0,-13,-1,-1,-1,-1,0
1472088747911805,0,-5,-7,-3,0,-1,0,1
1472088747911805,-1,7,7,0,0,0,-3,-2
1472088747913352,0,-1,-20,0,0,1,0,2
1472088747913352,-1,-3,15,-2,0,-2,-3,-1
1472088747934330,1,3,-8,1,-1,-2,-1,-2
1472088747934330,-8,-6,-22,-6,-3,-4,1,-1
1472088747935833,0,9,26,2,-2,-1,-1,-1
1472088747935833,-7,-8,-13,-1,1,1,1,-4
1472088747964144,0,-3,-1,0,-1,0,-3,1
1472088747964144,1,5,-2,1,-1,-1,-1,-1
1472088747965629,5,-21,-9,-2,-1,-2,-1,0
1472088747965629,0,2,-1,0,0,0,0,0
1472088747971659,-10,6,27,-2,-2,-3,-2,-3
1472088747971659,3,-9,-8,-1,1,-1,0,-1
1472088747973267,-5,-2,5,1,-2,-3,-2,-2
1472088747973267,2,3,-15,-2,-2,-1,0,0
1472088747994074,4,-8,-18,-2,1,1,0,0
1472088747994074,-2,1,9,-1,0,0,-2,-1
1472088747995543,3,5,13,0,-2,-1,-1,0
1472088747995543,2,-2,-15,-1,-3,-1,0,-2
1472088748016583,-8,4,15,-4,-3,0,-1,-2
1472088748016583,2,-5,-2,-2,-1,-1,-1,-3
1472088748018070,0,-2,11,-1,0,0,2,-1
1472088748018070,-7,2,-15,-2,-1,-2,-3,-1
1472088748031081,7,-1,-9,1,0,0,1,-1
1472088748031081,-3,-4,21,-2,-3,-1,-1,-2
1472088748037641,-1,8,2,-2,-2,-2,-1,-1
1472088748037641,0,4,8,-1,-2,-1,-3,0
1472088748054181,3,-7,-8,-1,0,-1,1,1
1472088748054181,-7,-3,-11,-1,0,-1,-1,0
1472088748055758,-5,2,13,-2,-1,-1,-3,-2
1472088748055758,-3,1,5,0,-1,-1,0,0
1472088748076991,-2,13,6,0,-2,-3,-2,-2
1472088748076991,1,-27,-16,0,-1,-2,-3,-1
1472088748078459,-1,4,-15,-2,1,1,-1,1
1472088748078459,0,-2,18,3,0,-1,0,0
1472088748091063,0,-5,-10,-1,-2,-1,0,-1
1472088748091063,0,12,-1,-2,2,-1,-1,0
1472088748097597,-1,-2,6,-2,-3,-2,-2,-2
1472088748097597,-5,-6,-2,-1,-2,-1,-2,-1
1472088748114202,0,-3,-22,-2,-1,0,0,0
1472088748114202,-3,4,11,-1,-2,0,0,-1
1472088748115749,1,1,-7,1,0,1,-1,-1
1472088748115749,4,-1,0,0,-2,-1,2,-2
1472088748136740,-1,3,29,-2,-1,-3,-2,-3
1472088748136740,-1,-2,-11,1,-1,-1,0,-1
1472088748138250,-1,-2,1,-2,0,-2,-1,-1
1472088748138250,-1,-2,2,0,-1,0,-1,0
1472088748150803,-1,-5,-14,-1,-1,0,-2,-1
1472088748150803,3,1,-2,-1,-1,0,-2,0
1472088748157566,-7,1,11,2,0,-1,-1,-4
1472088748157566,0,-5,-7,-2,-1,-3,-1,-2
1472088748174166,3,-3,-10,-1,0,-1,0,0
1472088748174166,-4,5,7,-1,0,0,-1,0
1472088748175947,2,-5,-19,-6,-4,-2,0,0
1472088748175947,-1,-3,-14,0,-1,0,0,0
1472088748196589,-3,0,4,-2,-2,-4,-3,-2
1472088748196589,3,0,19,-1,-1,-1,-1,-1
1472088748198538,2,10,2,1,0,-1,1,0
1472088748198538,-10,-20,4,-1,0,-1,-3,-1
1472088748210901,2,-4,-13,-1,-2,0,-2,0
1472088748210901,-1,-1,-9,-3,-1,-1,-1,-2
1472088748217965,2,3,1,0,-1,-2,-1,-2
1472088748217965,-3,7,-5,-2,-3,0,-1,-1
1472088748234526,-1,1,13,1,1,2,1,-2
1472088748234526,-2,-13,-23,-1,0,-1,-1,0
1472088748235519,-2,-2,8,-1,-1,0,-1,-1
1472088748235519,-1,4,7,-1,-1,-1,-3,0
1472088748256093,-1,-7,-7,-2,-1,-2,-1,0
1472088748256093,3,9,32,1,-2,0,0,0
1472088748258649,-4,-11,-47,-2,-2,-1,-1,-2
1472088748258649,3,3,16,0,-2,-2,-1,0
1472088748271404,-5,1,-5,0,-1,-1,-2,0
1472088748271404,-1,2,-8,0,0,-1,0,0
1472088748277839,-3,-3,12,-2,-2,-2,-2,-1
1472088748277839,0,-2,-2,-2,-1,-3,0,-2
1472088748293952,-4,4,0,-1,-1,0,-2,-1
1472088748293952,2,-3,-6,-2,-2,-2,-2,0
1472088748295914,-8,-1,-6,1,0,0,0,-2
1472088748295914,3,0,10,-2,-2,-2,-1,-2
1472088748316762,-1,-8,8,-4,-1,-1,0,-1
1472088748316762,-1,2,-7,0,0,-1,-1,1
1472088748318268,7,3,4,-1,-2,0,-2,0
1472088748318268,-1,2,-1,-1,-1,-2,0,-2
1472088748331288,1,0,-14,2,-1,0,0,-1
1472088748331288,6,-13,3,-4,-1,-2,-3,-2
1472088748336793,-5,3,14,-1,-2,-1,-1,0
1472088748336793,0,-2,-18,-2,-1,0,-1,-2
1472088748354088,2,-4,3,-1,0,-1,1,0
1472088748354088,-4,11,-3,-3,-4,-2,-1,-1
1472088748355572,0,-4,11,1,0,-1,-2,-1
1472088748355572,1,-4,-17,0,-2,-1,-1,-2
1472088748376476,-4,8,5,-7,-1,-1,0,-3
1472088748376476,-1,-10,-46,-2,-1,-1,-2,-2
1472088748377968,-5,-6,20,2,-1,-2,0,-1
1472088748377968,3,6,-4,0,1,1,-1,-1
1472088748390263,-4,-13,-6,0,0,-1,-1,0
1472088748390263,-4,1,-3,-1,1,-1,1,0
1472088748399462,6,4,-8,-2,-2,0,-3,-1
1472088748399462,0,-7,-4,-3,-2,0,0,-3
1472088748414162,1,3,19,-2,-4,-2,-2,-2
1472088748414162,0,7,7,0,1,-2,1,-1
1472088748415619,2,-3,0,2,2,-1,0,1
1472088748415619,1,8,6,-1,0,0,-2,0
1472088748436682,4,-3,-11,-4,-1,-2,-1,-1
1472088748436682,-11,3,18,-1,-3,0,-2,-3
1472088748438153,4,-4,-4,-3,0,-2,-1,-1
1472088748438153,-4,1,-11,-2,0,-1,2,0
1472088748450365,0,-1,-36,-1,-2,-2,-1,0
1472088748450365,0,2,7,0,-3,-1,-1,-1
1472088748459457,-6,-7,2,1,0,0,0,0
1472088748459457,-1,-4,0,-5,-2,-1,-2,0
1472088748474067,-2,1,4,2,0,-1,-1,-2
1472088748474067,0,2,6,1,-1,0,-1,0
1472088748476025,-4,-8,-11,-3,0,-1,-1,-2
1472088748476025,-2,-1,6,0,-1,-1,-3,0
1472088748496683,0,0,0,0,-1,-1,0,0
1472088748496683,2,-9,9,-2,-1,-1,-1,-2
1472088748498141,-3,-2,-10,-2,-2,-1,-1,-1
1472088748498141,-7,1,13,0,-2,-1,0,-2
1472088748519325,1,2,-9,1,-1,-1,-1,0
1472088748519325,-1,-3,11,3,-2,0,-1,-1
1472088748520921,-3,8,-1,1,-2,0,-1,0
1472088748520921,-1,-4,-13,-1,0,-2,0,0
1472088748534363,-1,0,9,0,0,3,0,0
1472088748534363,-4,-4,-10,-3,-3,-4,-1,-1
1472088748535908,4,-4,-4,0,0,1,0,0
1472088748535908,-5,0,-1,0,-1,-1,0,0
1472088748556749,5,7,7,-2,-1,-3,-3,1
1472088748556749,-2,-16,-11,-1,-1,-1,-1,0
1472088748558253,-4,-6,-4,-3,-2,-1,-1,-3
1472088748558253,0,9,-4,1,0,-1,-2,-1
1472088748570821,0,-5,-9,-2,-3,-2,1,0
1472088748570821,3,3,20,1,-1,0,0,-2
1472088748579343,-11,-6,-42,-4,-3,-1,-1,1
1472088748579343,4,-2,24,-1,0,0,-1,1
1472088748594496,-2,0,0,1,0,-1,-2,-1
1472088748594496,-1,4,-2,-1,-1,-1,-1,2
1472088748595884,1,2,27,2,0,-1,-1,-1
1472088748595884,0,-5,-30,-6,-1,-3,-1,-1
1472088748616604,-4,-8,0,2,-2,-1,-2,-2
1472088748616604,0,4,5,0,-1,-1,2,-3
1472088748618607,5,0,-4,-3,1,-1,0,-1
1472088748618607,-3,-5,9,0,-2,-2,-2,0
1472088748630161,-5,-1,7,0,0,0,0,-2
1472088748630161,-2,2,-7,-2,-1,-1,-3,-1
1472088748639629,4,1,-2,0,-2,-1,-2,-1
1472088748639629,3,-2,6,0,-1,0,-1,-2
1472088748661853,-2,-8,-22,-1,-2,0,-1,0
1472088748661853,1,4,14,-3,0,-2,-1,0
1472088748663399,-9,-1,0,-4,-2,-4,-1,-3
1472088748663399,4,-2,-11,1,-2,0,-1,0
1472088748676530,-2,-1,5,-1,-1,-1,-1,-2
1472088748676530,-4,-1,-13,-2,-1,-1,0,-1
1472088748678502,2,4,4,1,0,0,0,-1
1472088748678502,-3,-16,1,-3,1,-3,-2,-1
1472088748690737,1,3,-9,-3,0,1,-1,0
1472088748690737,-3,-1,-22,-4,-1,-2,-2,0
1472088748699290,3,2,14,-1,-2,-1,1,0
1472088748699290,-10,5,4,3,0,1,-1,-4
1472088748714414,1,2,-5,0,-2,-3,-2,-2
1472088748714414,-1,-8,-2,-1,-1,-2,-1,1
1472088748715919,1,2,-2,0,-2,2,-2,0
1472088748715919,-1,-1,-15,-1,-3,0,2,1
1472088748736976,4,-3,14,0,0,1,0,-1
1472088748736976,-7,4,14,-4,-2,-1,-1,-2
1472088748738440,0,-8,-22,-3,0,-2,0,-1
1472088748738440,-2,1,15,-3,-2,0,0,-1
1472088748750606,-4,-1,-8,1,-1,-1,0,-2
1472088748750606,3,-5,3,2,-1,-2,0,1
1472088748759270,3,5,2,0,-1,-1,0,1
1472088748759270,1,0,-10,-1,1,0,0,-1
1472088748773894,-4,-3,14,-2,-2,-3,-3,-2
1472088748773894,-1,1,11,0,-1,-2,1,-2
1472088748775625,-6,-2,-1,-3,0,-2,-1,-1
1472088748775625,6,-4,-48,-3,-2,-1,0,1
1472088748796500,0,4,18,-2,-1,-1,0,0
1472088748796500,-5,-4,-7,0,0,0,-1,1
1472088748798501,2,2,-2,3,0,0,-1,0
1472088748798501,1,-1,12,0,-1,-2,-1,0
1472088748810579,1,-3,8,-2,1,1,-1,0
1472088748810579,-2,3,-17,0,-3,1,-1,-2
1472088748819588,-1,2,4,0,-1,0,-1,-1
1472088748819588,0,1,3,-2,-2,0,-2,0
1472088748834101,-2,-1,-22,2,0,0,0,-1
1472088748834101,-4,-3,16,-4,-1,-1,-4,-2
1472088748835603,-1,1,14,-2,-2,-2,-3,1
1472088748835603,-1,3,6,0,-1,0,0,0
1472088748856591,-7,-4,-6,0,-2,-1,-1,-1
1472088748856591,5,2,11,0,0,1,0,-2
1472088748858635,-6,-7,-17,-3,-3,-1,1,-2
1472088748858635,0,-2,2,-1,-2,-1,-3,-2
1472088748879500,1,2,8,-4,-2,-3,-1,1
1472088748879500,3,-1,-14,-1,-1,1,1,0
1472088748880974,1,-5,9,-1,0,1,0,-1
1472088748880974,-6,4,-3,1,-2,-2,-1,-1
1472088748894049,-3,-4,-5,-1,-1,-2,-1,-2
1472088748894049,-2,-4,-1,1,-1,-2,-2,0
1472088748896036,1,-1,-5,-5,0,-2,0,0
1472088748896036,-4,5,24,2,1,0,0,-2
1472088748916410,-5,-18,-35,-7,-2,-3,0,-3
1472088748916410,3,6,-12,1,0,0,-1,-1
1472088748918544,-5,-3,-1,2,0,-1,0,-1
1472088748918544,2,-5,-2,-3,-1,-1,-2,-1
1472088748939127,3,8,16,1,-2,-1,-2,1
1472088748939127,1,-4,-25,0,0,0,0,-2
1472088748940608,-1,-5,23,2,-1,-3,-1,-1
1472088748940608,0,2,10,-3,-3,-3,-1,-1
1472088748954221,-1,-2,-6,-2,0,0,0,0
1472088748954221,-1,0,-5,-1,-1,0,0,0
1472088748955690,3,5,-5,0,0,0,-2,-1
1472088748955690,-7,-6,-6,-2,0,-1,1,1
1472088748976758,2,5,-4,1,-1,0,-1,-1
1472088748976758,2,-3,13,0,1,0,-2,1
1472088748977258,-5,-10,3,-2,-3,-1,-2,-3
1472088748977258,2,0,3,-2,-1,0,-1,-2
1472088748999136,4,-2,-6,0,0,0,0,1
1472088748999136,-2,-3,-10,-3,-2,-1,0,-1
1472088749000637,0,1,-9,-3,-2,0,-1,-2
1472088749000637,-1,-5,-11,0,-1,0,-2,-2
1472088749013648,-3,0,3,1,-3,0,-1,0
1472088749013648,-1,8,3,-3,-3,-6,-2,-1
1472088749020165,3,-8,6,-1,-2,-1,0,0
1472088749020165,-2,5,-6,0,-2,-2,-1,-1
1472088749036690,-3,1,3,1,1,-1,-3,-1
1472088749036690,-3,-6,-8,-4,-1,-1,-1,-1
1472088749038182,-2,3,-6,-2,0,-1,0,0
1472088749038182,-3,-3,-2,2,0,0,0,-2
1472088749059117,3,-6,-9,-3,1,0,0,-1
1472088749059117,0,9,11,2,-1,-1,-1,-1
1472088749060622,-2,-20,-9,-3,-3,-1,-2,-1
1472088749060622,-2,-2,-8,-3,-3,0,-2,0
1472088749073658,-2,5,10,1,1,-2,-2,0
1472088749073658,5,-1,-9,1,-1,-1,0,-1
1472088749080207,-8,0,-19,0,0,0,-1,-1
1472088749080207,0,8,35,1,-3,-3,-1,-1
1472088749096809,-3,0,-8,-1,-3,-2,0,-3
1472088749096809,-3,-2,-4,0,1,1,0,1
1472088749098310,5,0,-6,0,0,-1,-1,-1
1472088749098310,0,-7,-4,-4,-2,-1,-2,-1
1472088749119307,0,8,11,-4,-3,0,-2,-2
1472088749119307,-3,-7,-6,-2,-2,0,-1,-1
1472088749120921,1,6,14,2,0,0,0,1
1472088749120921,0,-2,-5,-1,0,-2,0,1
1472088749133493,0,5,1,-1,-1,-2,-1,-2
1472088749133493,-3,-6,12,1,-1,-1,-1,-2
1472088749139984,0,2,-18,-2,0,-1,0,0
1472088749139984,0,-1,6,-1,-2,-1,0,-3
1472088749156701,3,-3,13,0,-1,1,-2,-1
1472088749156701,-1,1,-20,0,1,0,0,-1
1472088749158179,-14,4,30,-2,-4,-2,-3,-4
1472088749158179,5,-3,-11,-2,-1,-1,-1,0
1472088749179042,-4,-7,-3,-3,-2,-3,-3,-1
1472088749179042,-1,3,5,-3,-1,1,-2,-1
1472088749180545,5,5,-12,-1,-2,-2,0,1
1472088749180545,1,-16,-10,-1,-1,1,-1,-1
1472088749193629,-8,-4,-9,-3,0,-1,1,1
1472088749193629,0,1,36,1,-2,-1,-2,-2
1472088749200620,2,4,0,0,-1,-1,0,-2
1472088749200620,-4,3,-4,1,1,1,0,-1
1472088749216898,-1,-4,0,-2,-2,1,0,0
1472088749216898,-3,-3,-13,1,-1,0,-1,-2
1472088749218401,-1,0,15,-4,-3,-3,-2,1
1472088749218401,6,2,0,-5,0,0,0,2
1472088749239532,-5,-10,-12,1,2,1,2,-1
1472088749239532,-6,8,12,0,-5,-4,-1,-3
1472088749240921,1,-6,0,0,-1,2,-2,0
1472088749240921,0,1,-6,2,-1,0,-3,-1
1472088749253873,1,-4,-14,-1,-3,0,0,0
1472088749253873,1,4,-14,-2,0,-1,0,0
1472088749260382,-2,-7,13,0,0,0,-1,0
1472088749260382,0,3,0,-1,0,-2,0,-2
1472088749276610,-2,1,-3,-1,1,-1,-2,-2
1472088749276610,-7,-4,-2,-1,-1,-2,1,-4
1472088749278560,1,-4,-17,-1,-1,-2,-1,-1
1472088749278560,1,-4,-7,-2,-1,0,0,-1
1472088749299188,2,6,2,-4,-2,-2,-3,-2
1472088749299188,2,-4,17,-3,0,-2,-1,-1
1472088749300651,3,0,-4,0,1,-2,0,0
1472088749300651,-6,1,3,-2,-3,-3,-1,-1
1472088749313773,0,-1,-42,1,-1,1,2,1
1472088749313773,2,1,0,0,-1,-1,0,0
1472088749320329,-1,3,20,1,-1,-1,-1,-1
1472088749320329,-7,-12,-3,-3,-3,-2,-2,-5
1472088749336799,-3,0,18,-1,-2,-3,-1,0
1472088749336799,-1,-6,-23,-3,0,1,0,0
1472088749338299,0,-2,-18,0,-1,0,0,1
1472088749338299,-2,5,-2,1,0,-1,-2,0
1472088749359031,6,-5,16,1,-1,-1,0,-1
1472088749359031,-3,-2,5,1,-3,-1,-1,-1
1472088749360992,1,3,-15,-1,0,0,-1,0
1472088749360992,-4,2,3,-2,-1,0,-2,-4
1472088749373073,-1,-11,-4,-1,-2,-1,0,0
1472088749373073,5,8,27,1,-2,-2,-1,-1
1472088749381686,-6,-6,-39,0,0,-2,0,-3
1472088749381686,-3,5,-1,-2,-1,-1,-2,1
1472088749396492,-3,-4,-20,-2,-1,-2,-2,-5
1472088749396492,-4,-1,-4,-1,-1,-2,-1,0
1472088749398469,6,0,8,-1,-2,0,-1,0
1472088749398469,-1,5,2,2,0,0,-1,0
1472088749419216,-1,1,4,-2,-1,0,-2,-2
1472088749419216,0,-6,12,-4,0,-1,-2,1
1472088749420718,-5,4,0,1,0,-1,0,-3
1472088749420718,4,1,-3,1,0,0,1,2
1472088749432744,0,-4,0,-1,1,1,-1,-1
1472088749432744,-3,0,19,-1,-4,-3,-2,-1
1472088749441754,1,1,9,-3,-1,-1,0,0
1472088749441754,3,-7,7,-1,-1,-3,0,-1
1472088749456800,-3,-1,-33,0,2,0,0,1
1472088749456800,-6,2,-14,-3,-1,0,-1,-1
1472088749458306,-1,0,2,0,0,0,-3,-2
1472088749458306,-8,-1,-4,0,-3,-2,-1,-2
1472088749479439,2,2,24,0,0,1,-1,0
1472088749479439,4,-5,7,2,0,1,-2,0
1472088749480936,-1,2,5,0,-3,-1,0,-2
1472088749480936,-2,-5,-18,-5,-2,-3,-2,-2
1472088749493031,1,3,4,0,-1,-3,2,1
1472088749493031,-2,4,-8,0,2,0,-1,0
1472088749501622,0,-22,7,-1,-2,0,-1,-3
1472088749501622,1,-2,1,-1,1,1,-1,-2
1472088749517019,0,3,9,0,-1,-1,-1,0
1472088749517019,-3,-5,-18,-1,-2,1,0,1
1472088749518524,0,8,-18,0,0,1,1,-2
1472088749518524,3,-1,8,-2,-1,-1,-1,2
1472088749539061,-2,-2,15,0,-1,-3,-3,-2
1472088749539061,-8,-9,-24,-3,-1,-1,0,-3
1472088749541052,-1,5,5,-3,-1,-2,-3,-2
1472088749541052,-1,0,10,2,-1,0,0,0
1472088749552656,0,4,0,-2,-4,-3,0,-1
1472088749552656,1,-3,-23,-1,0,-1,0,1
1472088749567812,-4,-2,4,-2,-1,-2,-1,1
1472088749567812,3,2,-4,2,0,0,0,1
1472088749576406,-4,-8,-25,-7,-1,-2,-3,-3
1472088749576406,1,3,10,1,-1,1,0,-3
1472088749578310,-1,-3,-6,-2,-3,0,2,-1
1472088749578310,0,1,1,-2,0,-2,0,-1
1472088749599003,-4,-5,-8,1,0,-1,0,0
1472088749599003,-3,-7,2,-1,0,-2,-1,0
1472088749600962,-1,7,14,0,-3,-3,-2,-1
1472088749600962,1,3,5,2,-1,0,-2,1
1472088749613055,0,4,-1,-5,-1,-1,-1,-1
1472088749613055,2,-9,0,0,-1,-1,1,-1
1472088749621721,0,-1,-9,0,-1,0,-2,2
1472088749621721,-7,-6,17,-1,-2,0,0,-4
1472088749636722,4,0,6,1,0,-2,-1,-2
1472088749636722,-10,-6,-43,-5,-1,-1,-1,-1
1472088749638222,-1,-5,7,-1,0,-1,0,-2
1472088749638222,-1,-2,-9,-2,-2,1,1,-2
1472088749659230,1,2,15,2,-1,-1,0,0
1472088749659230,5,-2,7,-1,-1,-2,0,0
1472088749660737,-1,-5,-23,-3,1,-1,1,-1
1472088749660737,2,-1,9,-2,-1,-5,-2,-2
1472088749672918,0,2,7,2,-2,0,-1,1
1472088749672918,0,1,-9,0,-1,-1,0,-1
1472088749682018,-1,13,20,0,-3,0,0,-1
1472088749682018,-3,-20,-16,0,0,1,0,-2
1472088749696662,0,2,2,-1,0,0,-4,-4
1472088749696662,7,6,2,-3,-2,-1,-2,1
1472088749698126,2,-8,-7,-2,0,-2,-3,0
1472088749698126,-1,0,-5,-3,0,-2,-1,-1
1472088749719287,-3,-4,21,0,-3,0,-2,-1
1472088749719287,-1,-1,-10,-3,-2,-2,0,-1
1472088749720870,2,2,0,0,0,-1,-1,-2
1472088749720870,-3,6,-3,-1,-1,0,-1,-1
1472088749732901,-10,-7,-9,-1,-1,-1,1,-2
1472088749732901,3,6,22,0,0,0,-1,-1
1472088749742012,-5,-3,-3,2,-2,0,0,-1
1472088749742012,4,2,-1,-1,-1,-1,-1,0
1472088749756597,0,3,-11,-1,0,0,-1,1
1472088749756597,-2,2,26,3,-2,-2,-2,-3
1472088749758560,-5,-13,-4,-1,-1,-1,0,0
1472088749758560,4,3,4,-2,1,1,-3,1
1472088749779220,-3,-1,-17,-3,-1,-1,-1,-1
1472088749779220,-3,-6,1,1,-2,-1,-1,-2
1472088749779718,-2,-4,5,-1,-2,-3,-2,0
1472088749779718,0,20,-4,0,-3,-2,0,-1
1472088749802030,2,-24,0,-4,-1,-1,-1,-1
1472088749802030,1,-1,-12,-2,1,0,-2,-1
1472088749803568,-4,3,10,0,-1,-2,-1,-4
1472088749803568,-4,3,-27,-1,-2,-3,0,-3
1472088749816042,0,-8,1,-2,-1,-1,0,-2
1472088749816042,2,-2,-17,0,-2,0,0,0
1472088749823048,-3,0,8,-2,0,2,-1,0
1472088749823048,-1,-1,8,0,-2,-4,-3,0
1472088749839080,-3,11,4,2,-1,0,-2,-1
1472088749839080,-4,-5,-4,-4,-1,-3,-2,0
1472088749840567,8,8,-2,-2,-1,-1,0,1
1472088749840567,0,-10,-9,-3,0,1,0,0
1472088749861403,-9,6,12,4,-2,-1,-1,-3
1472088749861403,0,-2,16,-4,-2,-1,0,-1
1472088749863416,-2,0,-4,0,-1,-2,-3,-1
1472088749863416,3,-6,-14,-3,-1,-1,-1,1
1472088749876453,3,6,5,-1,-2,0,-2,0
1472088749876453,0,9,5,2,0,0,0,-1
1472088749878506,-7,-11,-16,-4,-2,-1,-2,-1
1472088749878506,2,-5,3,0,-1,-1,-2,-2
1472088749899174,-1,4,-3,-3,0,-1,2,-2
1472088749899174,-3,-1,-16,-1,0,-2,-1,-1
1472088749905216,0,0,28,-3,-1,-2,-1,0
1472088749905216,-3,2,12,2,-2,-1,-1,0
1472088749921753,1,-2,-41,-2,-1,0,0,1
1472088749921753,2,0,4,0,1,-1,-2,0
1472088749923087,-2,-5,-3,0,0,-2,-2,-2
1472088749923087,-6,2,18,-2,-3,-1,-1,-2
1472088749936103,-1,-2,6,-3,-3,-4,-2,-3
1472088749936103,0,-3,-6,-4,0,-2,2,-1
1472088749942108,1,2,-15,0,0,1,-1,0
1472088749942108,-1,-5,3,2,0,2,-2,-1
1472088749958948,2,-2,2,-3,-1,-4,-1,2
1472088749958948,1,-6,3,-2,-1,-2,-1,-1
1472088749960981,-1,4,0,-4,-1,-3,0,-2
1472088749960981,-3,0,-4,1,0,0,-2,-1
1472088749981552,1,2,2,1,0,-1,0,0
1472088749981552,-7,-7,19,-1,-2,0,-1,-3
1472088749983160,-3,5,-10,-2,-1,-3,0,-1
1472088749983160,4,-3,-13,-2,-1,-1,-1,1
1472088749996221,1,2,6,1,-1,-2,-2,-3
1472088749996221,-10,-2,-6,-2,-1,-1,-2,0
1472088750002728,1,-2,-10,0,0,0,0,-3
1472088750002728,-2,2,3,0,-1,-2,0,-1
1472088750019353,5,0,17,0,0,-1,-3,0
1472088750019353,-3,1,-21,3,-1,0,-2,-1
1472088750020854,-1,-1,32,0,-3,0,-1,1
1472088750020854,-3,-3,-17,-3,-1,-1,1,-1
1472088750041375,-1,2,24,-2,1,0,-1,-1
1472088750041375,0,2,-30,-4,-2,-3,0,-2
1472088750043377,-2,0,-9,1,-2,-3,-2,0
1472088750043377,-7,-3,12,0,-1,0,-1,-1
1472088750055945,-3,-4,-8,-1,-2,1,0,-1
1472088750055945,3,3,-1,-3,0,0,-2,-1
1472088750062936,-2,-1,-1,-3,0,-1,1,-1
1472088750062936,0,7,5,0,-1,-1,-2,0
1472088750078985,0,-21,-11,-1,-1,-2,-2,1
1472088750078985,-1,1,1,-1,1,-2,0,-1
1472088750080485,1,-6,-12,0,-1,0,0,-2
1472088750080485,-3,-4,0,-2,2,0,1,-1
1472088750101532,-3,2,-5,1,-1,0,-1,0
1472088750101532,2,-2,3,-5,-1,0,0,-1
1472088750103533,0,2,7,1,-1,-2,-1,-1
1472088750103533,-1,-2,-19,-5,-2,-1,-1,0
1472088750116053,-2,1,12,2,-1,-2,-2,-1
1472088750116053,-1,-6,13,1,-2,-2,0,-1
1472088750122564,-2,6,-2,-2,-1,0,-3,0
1472088750122564,3,-5,-12,-2,-1,0,-1,-2
1472088750139079,-2,2,-1,-1,-1,0,0,-1
1472088750139079,-4,4,9,1,-1,-1,0,-1
1472088750140581,-1,-3,-2,0,-1,-1,-1,-1
1472088750140581,0,-5,2,-1,-3,-2,0,0
1472088750161941,4,5,-23,-3,-2,-1,0,-1
1472088750161941,-7,-8,29,0,1,0,-1,0
1472088750163445,0,-4,2,-2,-2,0,-1,0
1472088750163445,-1,-3,2,-4,-1,-2,-1,-2
1472088750175965,0,5,0,0,0,0,0,-2
1472088750175965,1,-3,-14,-3,-1,0,1,-1
1472088750183123,-1,-2,-6,-2,0,-2,-2,-1
1472088750183123,-2,1,6,0,-1,-3,-2,1
1472088750198913,-4,-2,-5,-3,-2,-1,-2,0
1472088750198913,0,3,-10,1,-3,-2,-2,-1
1472088750200913,2,-1,2,0,0,1,-1,1
1472088750200913,-1,-1,2,-1,-2,-2,-2,0
1472088750221954,-2,-2,-15,-2,-1,-2,0,-2
1472088750221954,-1,0,21,2,-2,-1,-2,-2
1472088750223457,1,3,-5,-1,-1,-2,1,-1
1472088750223457,-2,-1,-11,1,0,-1,-1,-2
1472088750235969,-1,-1,-4,-6,-3,0,-2,-5
1472088750235969,3,4,-4,0,-1,1,1,-1
1472088750242974,-3,-7,-20,-3,-1,-1,-1,-2
1472088750242974,2,9,8,-2,-4,-1,0,1
1472088750259145,-4,-4,14,4,0,-1,0,-2
1472088750259145,7,-4,-8,-1,0,-2,-2,-2
1472088750261261,-4,0,-5,0,-1,0,-1,0
1472088750261261,-4,-3,-8,0,-1,-2,-2,-1
1472088750281806,1,1,4,-3,-2,-2,0,0
1472088750281806,-1,-4,-7,-5,-2,0,0,-1
1472088750283308,-1,0,4,0,-1,0,0,1
1472088750283308,-1,-3,4,1,-1,-2,-2,-1
1472088750295451,-1,0,0,-1,-2,-3,-1,0
1472088750295451,1,-3,-2,0,-1,-2,-1,-1
1472088750304436,0,-1,-2,-4,-1,-1,-1,-2
1472088750304436,-2,0,-4,-2,2,0,-1,-1
1472088750318490,0,-3,4,1,1,-1,-1,-1
1472088750318490,-3,-3,-7,-1,-2,1,-2,-1
1472088750320548,0,-3,-8,-2,-1,-1,-1,0
1472088750320548,-6,-1,-1,-1,-2,2,1,-1
1472088750341621,1,5,17,-3,-2,-3,-2,-1
1472088750341621,-2,-6,-6,-1,-1,-2,-2,0
1472088750343567,3,2,-1,-1,-1,0,-2,0
1472088750343567,2,-2,-3,-1,-2,0,0,-1
1472088750355511,-1,0,-11,-1,1,-1,0,1
1472088750355511,-5,4,4,-1,-1,-1,-2,-3
1472088750364644,0,0,3,-1,1,-1,1,-3
1472088750364644,-6,-9,-2,-2,0,-1,-2,-2
1472088750379254,-2,3,-4,-2,-1,0,0,-1
1472088750379254,0,1,-25,0,-1,2,0,0
1472088750380883,0,1,45,4,-2,0,0,-2
1472088750380883,2,-2,-13,-6,-2,-4,-1,-3
1472088750401577,-8,-3,-17,-1,1,-1,-1,-1
1472088750401577,1,1,9,0,-1,-1,-1,2
1472088750403542,-4,-3,-8,-2,1,-1,-1,2
1472088750403542,1,8,10,1,0,0,-1,0
1472088750415538,0,-22,-1,-3,-2,-2,-1,-4
1472088750415538,-5,-2,-7,-2,-1,-2,-1,-2
1472088750424656,1,6,-13,-1,-2,-1,-2,-2
1472088750424656,-1,-4,8,2,-1,0,-1,1
1472088750439197,-1,5,-8,2,0,0,-1,0
1472088750439197,-2,-6,25,-2,-1,-1,-2,-2
1472088750440643,-2,0,-5,-1,-1,-2,0,0
1472088750440643,-5,3,10,2,-1,0,1,-3
1472088750461834,-2,-2,-6,-2,0,1,-1,1
1472088750461834,3,2,1,2,0,-1,1,1
1472088750463340,-1,0,8,-2,0,-1,-1,0
1472088750463340,0,1,2,1,-1,-2,-3,-2
1472088750475512,2,0,-3,-1,-4,-2,-1,-1
1472088750475512,-7,3,-10,-2,-1,-2,0,0
1472088750484575,0,-8,-9,-2,-1,-2,-2,0
1472088750484575,0,-1,-10,-1,-1,0,0,0
1472088750499207,1,-4,3,-2,-2,-2,-1,0
1472088750499207,-1,0,5,-1,-1,0,1,-1
1472088750501262,-3,2,21,1,0,-1,-1,-2
1472088750501262,1,-8,-50,-5,-1,-1,-2,-2
1472088750521414,0,5,24,2,-2,0,1,-1
1472088750521414,4,-2,-8,-3,-1,-1,0,-1
1472088750523430,-8,-4,-14,0,-2,0,-1,-1
1472088750523430,0,-3,11,-2,1,-1,-2,-2
1472088750535440,-7,3,-8,-2,-1,0,1,-1
1472088750535440,2,-1,2,1,2,0,-3,2
1472088750544454,5,1,6,-2,-1,-2,-1,0
1472088750544454,-3,0,0,-1,-1,-2,1,1
1472088750559515,3,0,-8,-3,-1,-1,-2,-1
1472088750559515,-2,-1,4,2,-2,0,1,-1
1472088750561014,-2,3,1,-2,-2,0,-1,-2
1472088750561014,-2,-3,7,-1,0,-3,0,-1
1472088750581617,-3,2,-6,-2,0,-2,1,-2
1472088750581617,-1,-6,-4,1,0,0,0,2
1472088750582598,0,-4,-19,0,0,0,0,-1
1472088750582598,1,1,10,1,-2,1,-2,0
1472088750595771,-1,10,1,0,0,-2,-1,-1
1472088750595771,-1,-7,-9,-4,-2,-2,-2,-3
1472088750604256,-5,-3,7,-2,-2,-3,0,-1
1472088750604256,6,-3,11,0,1,-1,2,0
1472088750619292,2,1,7,2,-2,0,-2,-2
1472088750619292,-2,1,-5,-2,0,-2,-2,-2
1472088750620793,-4,-4,-5,-1,-1,-1,-1,0
1472088750620793,7,1,0,-1,0,-3,-2,0
1472088750641848,-6,-10,-12,0,1,0,-2,1
1472088750641848,-2,4,11,1,0,-1,0,-1
1472088750643366,-1,-4,16,-2,-1,0,-1,-3
1472088750643366,-2,4,-1,-1,-1,-2,-2,-5
1472088750655504,1,-7,-8,0,-3,-4,-3,-1
1472088750655504,1,-6,-13,-4,-1,-2,-1,0
1472088750663511,1,5,-8,-1,-1,-2,-1,-1
1472088750663511,-4,-1,6,0,-3,0,0,-1
1472088750679007,3,-7,4,0,-1,0,0,-1
1472088750679007,-4,-2,-7,-2,0,-1,1,-1
1472088750680992,2,0,6,-2,-1,-1,0,0
1472088750680992,1,0,-3,0,-2,-1,0,-1
1472088750701654,-1,-3,3,1,-3,-1,-3,1
1472088750701654,1,7,9,1,-2,-2,-1,-1
1472088750703627,1,-5,-13,-2,0,-1,-1,-2
1472088750703627,-4,-3,-6,0,0,0,-1,-1
1472088750714743,1,6,9,-2,0,-3,1,0
1472088750714743,0,0,1,-1,-3,-3,-1,0
1472088750724270,-4,2,5,-1,-2,-2,-1,0
1472088750724270,-2,-3,-13,-4,-1,-1,-1,0
1472088750739798,-3,-3,-12,0,-2,1,-2,-3
1472088750739798,0,-2,3,1,-3,0,-2,-2
1472088750741311,0,1,-24,1,0,0,1,-1
1472088750741311,1,-4,12,-1,0,-2,1,1
1472088750761507,-2,0,10,-3,0,-2,-1,-3
1472088750761507,1,1,-10,0,1,0,0,0
1472088750763510,-1,0,-10,-1,-2,0,-1,0
1472088750763510,2,-4,3,-3,-3,-1,1,1
1472088750784206,-6,-1,-8,1,-1,0,0,0
1472088750784206,2,1,4,0,-1,-2,1,-2
1472088750785727,2,-3,5,0,0,-1,-1,-4
1472088750785727,-3,3,-3,-4,0,-1,-2,-2
1472088750799067,-5,-8,-1,2,1,-2,-2,-1
1472088750799067,-1,0,-4,-2,-1,0,-2,0
1472088750801128,-1,-4,-21,4,2,0,-1,-2
1472088750801128,2,7,25,-3,-1,-2,-3,-1
1472088750821808,1,1,-5,0,-1,0,1,1
1472088750821808,-3,-5,-18,-3,0,0,-1,0
1472088750823298,0,-2,4,0,-1,-2,0,0
1472088750823298,-4,-2,-7,4,-1,0,-1,0
1472088750844510,0,0,-1,-2,-2,1,0,0
1472088750844510,2,2,10,-1,-2,0,-2,-1
1472088750845970,1,-3,-4,-1,-2,-2,-2,-1
1472088750845970,-4,-2,-3,0,-3,-1,-3,0
1472088750859009,0,1,6,-3,1,-1,1,-2
1472088750859009,-1,-2,-13,-1,-1,0,-3,0
1472088750861013,-2,0,9,-2,-1,0,-3,-2
1472088750861013,-1,0,-9,-1,-1,-1,0,-2
1472088750881810,3,-3,-4,-3,-2,-2,-1,-1
1472088750881810,-2,0,14,0,-1,-2,-1,-2
1472088750883293,0,-1,-9,-3,0,-3,-1,0
1472088750883293,-1,0,2,1,0,-1,2,-1
1472088750904067,-4,-10,11,1,-4,-1,-1,-1
1472088750904067,0,-3,-11,-4,-2,-1,1,-1
1472088750905567,-2,1,-6,-2,-2,-2,-1,-1
1472088750905567,0,0,1,0,-1,0,-3,-1
1472088750918712,-2,0,-7,-1,-2,-4,-1,0
1472088750918712,4,1,12,1,-2,0,-2,-3
1472088750925267,-4,-3,5,0,-3,1,-1,-1
1472088750925267,-7,-6,-38,-2,-1,-1,-1,-2
1472088750941762,3,-1,32,-2,0,-2,-1,-3
1472088750941762,-2,-5,-2,-2,-1,1,-1,0
1472088750943357,3,4,-5,-3,-2,-3,1,-1
1472088750943357,-1,-5,-5,1,-1,0,-1,1
1472088750964300,-2,11,27,0,-2,2,-3,-2
1472088750964300,0,-1,-6,0,-1,-2,-2,0
1472088750965803,-6,-2,-7,1,1,0,-1,-1
1472088750965803,-2,-2,-3,-2,0,-1,-1,-1
1472088750978411,1,-2,-13,-3,-2,-2,-2,-2
1472088750978411,-1,4,9,-1,-1,-3,0,-2
1472088750985362,0,-1,20,-1,-2,-1,-1,0
1472088750985362,2,1,-26,-4,-2,-1,-1,-1
1472088751001906,1,-2,-8,1,0,0,-1,1
1472088751001906,1,2,0,1,-1,-2,-1,-2
1472088751003406,0,-3,3,-3,0,1,0,0
1472088751003406,0,-5,5,-1,-2,-1,-2,-1
1472088751024539,-3,0,0,-1,0,-2,0,0
1472088751024539,-2,-2,-23,-2,-2,0,-1,-1
1472088751026069,-2,4,30,2,-2,0,-1,-1
1472088751026069,1,2,10,0,-2,-1,0,2
1472088751038607,1,3,-35,0,0,1,0,-1
1472088751038607,-5,-4,9,0,-1,0,1,-3
1472088751045558,3,1,-19,-2,1,-1,-1,-4
1472088751045558,-2,-3,5,-3,-2,-1,-2,-3
1472088751061764,0,0,3,-1,-1,-2,0,2
1472088751061764,-1,-3,-12,-2,-1,-1,-1,0
1472088751063264,2,-2,-5,0,-1,-3,-1,0
1472088751063264,2,7,4,2,-1,-1,-2,-1
1472088751084158,-8,-6,-4,-2,0,-1,0,-1
1472088751084158,-2,-6,-6,-4,1,1,-1,-1
1472088751085605,1,7,3,-2,-3,1,-2,0
1472088751085605,3,3,18,1,-1,0,-2,-1
1472088751106782,4,1,-6,1,0,-1,-1,-2
1472088751106782,-2,0,3,-2,0,-2,-1,-1
1472088751108293,-1,-8,-2,-2,-1,0,-1,-1
1472088751108293,0,-4,-19,-2,0,-1,0,-1
1472088751121904,-1,0,-8,2,0,0,-1,-2
1472088751121904,-3,5,7,-2,0,0,-1,-1
1472088751123444,-4,-8,-3,-1,0,-3,-1,-1
1472088751123444,-3,-1,6,-1,-1,0,-1,0
1472088751144429,3,-3,7,-4,-1,0,-3,2
1472088751144429,0,2,-12,-2,-2,-3,-1,-1
1472088751145932,-5,-1,32,-1,-2,-2,-1,0
1472088751145932,-5,-3,-7,-1,-1,-1,1,-1
1472088751158494,0,2,-2,-2,1,1,0,-1
1472088751158494,0,-6,-6,-2,0,-2,-2,-1
1472088751165521,1,1,-19,0,-2,2,-1,0
1472088751165521,0,-2,9,-2,0,-3,0,-1
1472088751181549,-1,-2,-8,0,-1,-1,-1,1
1472088751181549,0,3,11,0,-2,0,-1,0
1472088751183241,-2,-1,-7,-1,-1,-2,0,-1
1472088751183241,-2,-2,-5,-3,0,-1,-1,0
1472088751204313,0,-3,-2,-3,-1,-4,-2,-3
1472088751204313,-2,3,5,1,0,-1,0,1
1472088751205778,-1,-5,-16,-1,-1,-2,0,-1
1472088751205778,2,-1,5,0,-2,-1,0,1
1472088751218808,-1,1,0,-1,0,-1,0,0
1472088751218808,0,-4,-15,1,-1,1,0,1
1472088751225373,-3,-5,14,-4,-4,-4,-3,-3
1472088751225373,0,1,0,1,0,0,-2,-2
1472088751241886,-3,0,-6,-2,-3,-3,-1,-2
1472088751241886,-2,0,22,-1,-3,-2,0,-1
1472088751243406,2,1,-9,1,1,2,-1,2
1472088751243406,-8,0,-7,1,0,1,-2,-2
1472088751264259,-1,-8,1,-3,-2,-2,-1,-1
1472088751264259,-2,-4,-8,-2,-1,0,-2,-2
1472088751265765,-2,1,7,-1,-1,0,0,-2
1472088751265765,1,1,4,-3,-3,-3,0,-1
1472088751278065,0,-4,-15,4,1,-1,1,0
1472088751278065,-1,3,13,0,-2,-3,-2,-2
1472088751286612,0,-4,-19,-2,-2,0,1,1
1472088751286612,2,0,31,-2,-4,-4,-3,-3
1472088751301686,3,-2,10,0,-1,0,-2,-2
1472088751301686,-5,-6,-28,0,-1,-2,-1,-2
1472088751308255,0,-2,-13,-3,0,0,-2,1
1472088751308255,1,-1,-18,-3,-1,1,-1,3
1472088751324221,-1,-1,12,-3,-2,-1,0,0
1472088751324221,7,7,13,1,-2,-1,-2,0
1472088751325729,-6,-4,6,-3,-2,-1,0,-3
1472088751325729,-4,-3,-9,1,0,-2,-1,-1
1472088751337779,1,-5,-3,-4,-1,0,-3,-1
1472088751337779,-1,2,-7,0,0,0,-1,-1
1472088751346854,-1,-5,1,-2,-3,-2,-1,-4
1472088751346854,-1,-1,-3,-1,1,1,1,0
1472088751361861,-2,5,21,5,-1,-3,2,-2
1472088751361861,0,-2,-7,-3,-1,-2,-2,-1
1472088751363364,0,0,-10,-1,-1,-1,-2,-2
1472088751363364,0,-3,-2,-3,1,-1,0,-1
1472088751383933,-2,1,3,-1,-3,1,-2,1
1472088751383933,-2,-6,7,2,0,2,1,0
1472088751385934,2,6,-1,0,-1,-1,-1,-1
1472088751385934,-3,-1,-9,1,-2,-2,-3,-2
1472088751398048,-1,3,-11,-2,-1,0,0,-2
1472088751398048,-2,-3,13,-1,-1,-2,0,-3
1472088751407105,0,0,-3,0,0,-1,-1,1
1472088751407105,2,-1,1,-3,-1,1,0,-1
1472088751421742,-7,-7,-9,-2,-2,-1,-2,-1
1472088751421742,-4,-2,3,1,1,-1,-2,-1
1472088751423187,7,0,-5,2,-1,-1,-1,-1
1472088751423187,-5,1,-4,0,-2,-2,-1,-2
1472088751444280,-1,-4,-16,-1,0,0,-1,-1
1472088751444280,-4,3,38,-3,-1,-2,-2,0
1472088751445757,-2,3,-7,-1,0,-1,0,0
1472088751445757,4,-6,1,0,0,-1,-2,-1
1472088751457710,-6,3,-16,1,-3,0,0,-1
1472088751457710,2,-5,-20,-3,-2,-1,0,1
1472088751466244,-2,0,20,-2,-3,-1,-1,-1
1472088751466244,1,0,-2,-2,-2,1,-2,0
1472088751481912,0,-4,1,0,0,-1,-1,-1
1472088751481912,-2,-2,-8,-1,-1,-1,-1,0
1472088751483409,1,0,-25,-2,2,-1,1,0
1472088751483409,-5,-1,8,-1,-3,-2,-1,-1
1472088751504146,-3,6,21,-1,-1,-1,0,-2
1472088751504146,2,-4,-2,0,0,-2,0,-1
1472088751505593,-4,1,-8,-1,0,-1,-2,1
1472088751505593,-1,-4,-9,-3,1,0,-1,-1
1472088751518010,1,-1,-4,1,1,-1,0,-2
1472088751518010,4,3,1,-1,-2,-1,-1,-2
1472088751527066,-6,-4,-4,0,-2,0,-2,-2
1472088751527066,2,-1,3,0,-2,1,0,-1
1472088751541644,1,0,-4,-3,-1,-2,-1,1
1472088751541644,2,-3,3,-1,-1,0,1,-1
1472088751543605,-17,1,18,2,-1,-2,0,-4
1472088751543605,3,1,-2,0,0,-2,-1,-1
1472088751564199,-1,-5,-7,-1,-1,-3,0,-1
1472088751564199,0,2,1,-1,0,1,0,1
1472088751565658,5,-2,3,-1,1,0,-1,0
1472088751565658,-2,10,34,1,-1,1,-1,0
1472088751577774,-1,-5,-29,-2,1,2,-1,-2
1472088751577774,-3,-1,3,-2,-2,-2,-3,-1
1472088751586656,1,6,13,1,-4,-2,-2,-1
1472088751586656,0,-3,-3,0,1,-2,0,0
1472088751601801,2,-1,-7,-1,1,-1,-2,0
1472088751601801,-3,-1,-2,1,-2,-3,-1,-1
1472088751603303,1,-1,-20,0,0,1,-1,1
1472088751603303,-3,-5,4,-3,-1,-2,0,-2
1472088751624072,2,3,11,-2,-4,-1,-2,-2
1472088751624072,-5,-3,-16,0,2,1,0,0
1472088751626113,-1,-4,-5,-2,0,0,-1,1
1472088751626113,-3,0,15,-4,-1,1,-2,-2
1472088751638106,-2,-3,1,2,0,0,0,1
1472088751638106,-2,-1,-7,-2,-4,-3,-1,-4
1472088751647108,3,-9,5,-2,-1,-1,-2,-2
1472088751647108,-3,0,-36,-5,-1,-2,0,1
1472088751661732,3,3,12,2,-1,0,0,-1
1472088751661732,-2,0,-10,-2,0,1,-1,1
1472088751663201,-1,-4,7,-3,-1,-2,0,-1
1472088751663201,1,3,1,1,-1,-2,-2,0
1472088751684427,-4,-5,3,-2,-2,-1,0,0
1472088751684427,0,4,-12,-1,-1,-1,0,0
1472088751685924,0,0,-5,0,-1,0,-1,1
1472088751685924,-5,-7,13,-3,-3,-3,-2,-4
1472088751706678,2,0,-12,-2,0,0,-1,-1
1472088751706678,1,-1,7,-2,-1,-1,-1,-4
1472088751708647,2,-1,-4,-2,-2,-1,-2,-2
1472088751708647,-5,-1,-7,1,-1,-1,-1,0
1472088751721890,1,1,0,0,-1,-2,0,-1
1472088751721890,-1,-8,-6,-1,-1,0,0,0
1472088751723393,-2,0,-8,-3,2,-1,1,-1
1472088751723393,2,-1,-1,0,-1,0,-2,0
1472088751744410,-1,3,13,0,-1,-3,-1,-2
1472088751744410,-1,-1,-6,2,-1,1,-2,1
1472088751745911,2,3,11,0,0,-2,1,-1
1472088751745911,-1,-3,-17,-2,0,-2,1,-2
1472088751766674,-1,-1,-1,-3,-2,-2,-2,2
1472088751766674,1,1,1,1,1,1,-1,1
1472088751768644,-5,-5,6,-4,-5,-1,-4,-2
1472088751768644,0,1,-9,-1,-1,1,-1,-1
1472088751780722,0,-4,9,-1,-2,-1,0,-2
1472088751780722,-4,-2,7,1,-1,-1,0,-3
1472088751783622,-2,-1,-16,1,-1,0,0,1
1472088751783622,3,-2,10,3,0,0,1,0
1472088751804337,0,2,-16,-5,0,-2,-1,-1
1472088751804337,0,-9,17,-1,-1,-2,-1,1
1472088751805838,-1,7,-1,0,0,-2,0,0
1472088751805838,1,-2,-4,-1,0,-1,-2,1
1472088751826913,-3,-1,-10,2,0,1,-1,-1
1472088751826913,-2,-2,-15,-3,0,-1,-3,-1
1472088751828532,0,3,14,0,-3,1,-2,-1
1472088751828532,2,1,0,1,-2,0,1,-2
1472088751849433,-4,-9,-14,-3,0,0,1,-1
1472088751849433,-2,2,5,-2,-2,-2,0,-2
1472088751850954,1,-5,-14,0,0,-1,0,0
1472088751850954,-1,2,-3,0,0,-1,-1,-2
1472088751864254,-2,-10,5,0,-1,-1,-3,0
1472088751864254,-1,0,-5,-1,-1,0,0,0
1472088751866200,5,3,3,-1,-1,-2,-1,-1
1472088751866200,-9,-5,2,1,-2,0,-1,-2
1472088751886922,0,2,-4,-4,-3,-1,-1,-1
1472088751886922,1,-5,-10,-2,-1,-1,0,-1
1472088751888413,1,1,6,0,0,0,-1,-2
1472088751888413,4,-4,-4,0,0,-2,-1,1
1472088751901081,0,3,17,0,-2,-3,-2,0
1472088751901081,-2,1,9,0,-2,-1,-1,-1
1472088751907732,-2,-5,-9,0,-1,-1,1,-2
1472088751907732,0,-1,-4,2,1,-1,-2,-1
1472088751924399,1,2,6,0,-3,1,1,-1
1472088751924399,-1,2,1,-1,1,0,-1,-2
1472088751925891,-4,1,-6,-1,-1,1,0,-1
1472088751925891,0,0,-8,-2,-2,-2,-2,0
1472088751946920,-3,0,7,1,0,-1,-2,1
1472088751946920,0,-2,3,0,0,-1,-3,-2
1472088751948417,-4,-2,9,-3,-1,-1,-1,-2
1472088751948417,-1,-5,-42,-2,0,-2,-1,0
1472088751961063,3,3,24,-3,-3,-2,-1,-1
1472088751961063,-3,-2,-9,1,0,0,0,0
1472088751968086,-2,-1,24,-2,-3,-2,-4,0
1472088751968086,-1,-2,-1,-2,1,0,1,-1
1472088751984194,-1,-2,-10,-1,-3,-3,0,-2
1472088751984194,-6,-2,-12,-1,-1,2,-1,-1
1472088751986127,3,-5,-14,-1,0,0,0,-1
1472088751986127,-1,6,13,-3,-2,-1,-2,-2
1472088752006710,-1,-9,-6,0,1,0,-1,0
1472088752006710,1,-3,15,0,-2,-2,0,0
1472088752008210,0,-2,-2,-1,-1,-1,-1,-1
1472088752008210,4,-1,-11,-1,-1,0,-1,-1
1472088752021240,-1,5,21,1,1,-1,0,-2
1472088752021240,-5,1,-5,1,-3,-2,-2,0
1472088752028050,-1,-3,20,0,-1,-1,-2,-1
1472088752028050,-1,-1,-15,-2,-2,1,-1,-1
1472088752044066,-1,-4,-4,-3,-1,-1,-2,0
1472088752044066,4,4,1,-2,-1,0,-1,-1
1472088752045565,-2,-5,-19,0,0,-1,1,1
1472088752045565,-2,1,22,0,-2,-2,0,0
1472088752066781,0,1,-18,-1,-2,1,-2,0
1472088752066781,-1,-3,-3,-3,-2,-1,0,-2
1472088752068341,-1,-2,-3,1,-1,-1,-1,-2
1472088752068341,2,-3,11,2,-1,-1,0,-1
1472088752080941,-6,1,-14,-2,0,-1,-1,-2
1472088752080941,-1,-2,21,0,0,-1,-3,-2
1472088752088041,0,3,-5,-1,1,0,-1,-2
1472088752088041,-2,0,-3,-1,0,1,0,0
1472088752104171,-2,0,8,-1,-3,0,-2,-1
1472088752104171,0,1,12,1,0,-2,-2,0
1472088752105660,-2,-3,-21,-6,-1,-2,-2,-1
1472088752105660,-1,-2,2,-1,-1,0,-2,0
1472088752126446,-1,-1,-7,1,-1,-2,0,-1
1472088752126446,3,-4,-18,-3,-2,-1,-1,1
1472088752128359,0,4,9,2,1,-1,-1,0
1472088752128359,-5,-3,1,-4,-2,-3,-2,-3
1472088752140895,-2,-2,1,1,-1,0,-2,1
1472088752140895,2,3,7,-2,0,-3,0,0
1472088752147973,1,-4,-14,2,0,-1,0,0
1472088752147973,-8,-1,-18,-4,-1,-1,0,0
1472088752164210,-2,-6,23,-1,-3,-1,-1,-3
1472088752164210,-1,-1,-24,1,-1,-2,1,-1
1472088752165686,-1,2,1,-3,-3,-2,0,0
1472088752165686,0,-3,5,1,1,0,0,0
1472088752186868,-2,0,-6,-1,0,-1,-1,0
1472088752186868,-5,-6,-17,-4,-2,0,-3,0
1472088752188674,0,0,3,0,-1,0,-1,-2
1472088752188674,0,0,22,0,-3,-1,-1,-2
1472088752200274,3,0,-26,2,1,-1,-1,0
1472088752200274,-1,-1,19,-2,-3,-2,-1,-2
1472088752209320,-4,-3,-11,-1,-1,-1,-1,-3
1472088752209320,1,-1,2,-3,-3,0,-2,-2
1472088752224348,-1,7,-8,-2,-2,-1,-1,1
1472088752224348,0,0,-3,1,-1,-1,1,-1
1472088752225850,1,-4,-4,-3,0,-1,0,-2
1472088752225850,-1,-3,9,1,0,-2,0,-1
1472088752246754,2,1,-3,-4,-1,-1,-2,-1
1472088752246754,0,-1,-15,-3,0,-1,1,0
1472088752248305,-2,3,13,-1,-3,0,-2,-1
1472088752248305,-3,-4,1,-1,0,0,-1,-1
1472088752260325,0,-3,-6,-2,0,-1,-1,1
1472088752260325,-3,2,2,1,-1,0,1,1
1472088752268833,-3,-1,10,0,-2,-1,-2,-4
1472088752268833,4,1,-15,-1,-1,-2,0,0
1472088752284505,-2,-3,2,0,-1,-2,0,-3
1472088752284505,-2,4,26,-2,-3,-2,-3,-1
1472088752285923,-2,0,-3,1,0,-2,0,0
1472088752285923,-2,-2,-13,1,-4,-1,1,0
1472088752306963,3,3,6,0,-1,0,-1,-2
1472088752306963,-5,-5,-12,-2,0,0,-1,-2
1472088752308556,-2,-1,-15,-2,-2,-1,-1,-1
1472088752308556,0,2,18,-2,-1,-1,-2,-2
1472088752320570,-2,-5,26,3,0,0,0,0
1472088752320570,1,-5,-16,-2,0,0,-1,-2
1472088752329575,-1,3,28,0,0,-1,-1,-1
1472088752329575,-3,-7,-25,-4,-1,-2,-1,-2
1472088752344466,0,-2,-13,0,2,0,1,0
1472088752344466,-1,1,5,0,-1,0,-1,-2
1472088752345951,1,1,-7,0,0,-3,0,1
1472088752345951,-3,-2,7,0,-3,0,-1,-1
1472088752366636,-3,5,5,-2,0,-1,-1,-3
1472088752366636,2,-2,-5,0,-1,-1,0,1
1472088752368582,-1,-5,-11,-2,-3,-1,0,-1
1472088752368582,-1,3,2,0,-1,0,-1,0
1472088752380285,-1,-1,-8,-1,-3,-3,-1,0
1472088752380285,0,0,-1,0,1,2,-2,-1
1472088752389588,2,-3,1,-1,-3,-2,-4,0
1472088752389588,1,1,-10,-3,-1,0,-2,-1
1472088752404275,-5,-6,2,-1,-3,0,-1,-5
1472088752404275,2,4,9,0,-2,-1,0,1
1472088752405733,-4,0,16,1,-2,-1,-1,-3
1472088752405733,-2,-5,-22,-1,0,0,0,0
1472088752426534,2,-1,-4,-1,-1,-1,-1,1
1472088752426534,-2,1,2,0,-1,-1,-2,-2
1472088752428539,-2,-3,-20,-4,0,1,1,1
1472088752428539,2,2,8,3,1,-1,1,-3
1472088752440552,1,0,-3,-2,1,0,1,0
1472088752440552,-4,-3,4,-5,-4,-2,-1,-2
1472088752449507,2,-1,-4,0,-1,0,-1,-1
1472088752449507,0,-1,2,-2,-1,-1,-2,0
1472088752464057,-8,-3,-6,1,-3,-2,-2,0
1472088752464057,2,-1,9,1,-1,-1,1,0
1472088752465559,-5,4,0,-2,-2,-3,-3,0
1472088752465559,1,-3,-13,-2,0,-3,0,-1
1472088752486641,3,-1,2,2,-1,-1,0,-2
1472088752486641,-4,1,4,2,-3,-2,-2,-2
1472088752488772,1,-4,-16,-3,-2,1,1,1
1472088752488772,0,1,18,1,-2,-3,-4,-2
1472088752500672,-2,-2,0,-4,-2,0,-1,0
1472088752500672,0,-2,-12,-1,1,0,-1,-2
1472088752509193,-2,-3,7,2,-1,1,-1,0
1472088752509193,-3,1,1,-3,-2,0,0,1
1472088752524327,0,-1,-13,-1,0,0,-1,-3
1472088752524327,2,4,8,0,-1,-1,0,-3
1472088752525809,-3,-4,16,-3,-2,-3,-2,-2
1472088752525809,-1,0,-2,-3,-1,-1,-1,2
1472088752546839,2,0,2,-2,-1,-1,0,-1
1472088752546839,-5,-2,-6,-1,0,0,-1,-3
1472088752548339,2,-2,-2,0,0,-2,0,-1
1472088752548339,-2,0,13,-3,-1,1,-1,-1
1472088752560473,5,0,-5,0,-1,-1,1,2
1472088752560473,-7,-1,4,0,0,-2,0,-1
1472088752569581,0,-4,-9,-3,-1,-1,-2,0
1472088752569581,-3,-2,-10,1,-2,0,-1,-5
1472088752583696,-4,0,4,0,-1,-2,-3,-1
1472088752583696,1,-3,-10,-1,0,-3,-2,-1
1472088752585847,0,-3,-14,1,1,-2,0,0
1472088752585847,3,2,11,0,-2,-2,0,0
1472088752606972,0,2,1,-3,0,-1,1,0
1472088752606972,2,-3,-6,1,1,-1,-1,0
1472088752608478,0,0,-5,-2,-1,-1,0,-1
1472088752608478,2,1,6,0,-2,0,-2,-1
1472088752629233,-3,-5,-11,-1,-1,-3,0,0
1472088752629233,0,-4,5,0,-3,1,0,0
1472088752631176,0,-2,-16,-3,-1,-2,-2,0
1472088752631176,-2,-2,9,-2,0,-1,-2,1
1472088752643677,-1,1,11,0,-1,-1,-2,1
1472088752643677,1,-3,-5,-4,-2,-1,-1,-1
1472088752650730,2,4,2,0,0,1,0,1
1472088752650730,-4,-1,4,0,0,-3,-2,0
1472088752666734,4,1,-8,-1,0,0,-2,-1
1472088752666734,-5,-1,5,-5,-1,-1,-1,-3
1472088752668250,-1,1,0,0,-3,2,1,-2
1472088752668250,-2,-3,-6,2,0,-3,-1,-3
1472088752689447,2,-2,0,-1,-2,0,-2,1
1472088752689447,-1,0,-18,1,1,-2,-2,-1
1472088752690950,-5,-3,7,0,-1,0,-1,-1
1472088752690950,-2,0,4,0,-3,-2,0,-2
1472088752705028,-3,-4,-19,-2,-1,-1,-2,-2
1472088752705028,4,-3,-8,-2,-2,-1,-1,0
1472088752710511,0,-2,-7,-1,0,0,-1,-1
1472088752710511,-1,-3,19,-2,-2,-1,0,0
1472088752726856,-2,-2,-9,-3,-2,-1,0,0
1472088752726856,1,1,1,0,0,-1,0,2
1472088752728313,0,0,-5,0,0,0,-1,0
1472088752728313,2,-2,-16,-3,-2,1,1,0
1472088752749386,-2,-1,16,1,0,1,2,-3
1472088752749386,-2,-1,-7,0,-1,-1,0,0
1472088752750862,-2,-4,4,-2,-3,-2,-1,-2
1472088752750862,-7,1,-2,0,0,0,-2,0
1472088752764425,0,-3,-3,-4,-2,-3,-1,-2
1472088752764425,2,0,9,1,0,1,-2,-2
1472088752765879,-1,0,13,0,-2,0,-1,-2
1472088752765879,2,-1,-10,-4,-3,-3,-1,0
1472088752786618,-2,-1,-13,2,-2,1,-1,0
1472088752786618,-2,-2,-14,-5,-2,-1,-1,-2
1472088752788631,2,-2,2,-2,-1,1,-1,0
1472088752788631,-2,-3,1,0,0,-1,-1,-2
1472088752809446,-1,-2,1,0,-2,-2,-2,-2
1472088752809446,-2,-3,-8,-2,-2,-3,0,0
1472088752810988,1,1,10,-2,-1,-2,-2,-1
1472088752810988,2,0,-10,-3,-1,-2,-1,-2
1472088752823678,-5,1,8,2,-2,-2,-1,-1
1472088752823678,3,-2,-6,-2,1,-2,-1,-2
1472088752830270,-6,-1,12,-1,-2,-2,-2,-1
1472088752830270,3,-2,-3,0,0,-1,0,-1
1472088752846731,2,1,-8,-2,0,0,-2,0
1472088752846731,-5,-4,6,-1,-1,-2,-2,-1
1472088752848231,1,0,6,3,-1,-2,-1,-1
1472088752848231,-4,1,0,-2,-2,-2,0,0
1472088752869293,-1,-8,-7,-5,-1,-2,0,0
1472088752869293,-1,0,4,1,-2,1,0,-1
1472088752870894,-2,-3,-24,-2,0,-2,-1,-1
1472088752870894,0,0,3,1,-2,0,0,-2
1472088752883882,-1,0,0,-2,-2,-2,0,-2
1472088752883882,1,-1,-10,0,-1,0,-1,1
1472088752890429,1,0,-2,-2,0,-2,-1,0
1472088752890429,-2,0,6,-2,0,-2,-1,0
1472088752906926,0,-3,-23,-3,0,0,0,0
1472088752906926,3,-1,25,-1,0,-2,1,-1
1472088752908485,-7,3,-2,0,0,0,0,-1
1472088752908485,3,-2,-2,-1,-2,-1,0,-1
1472088752928946,-7,0,-11,-1,-4,0,-3,-3
1472088752928946,-2,1,0,2,-3,1,0,1
1472088752930855,1,-4,4,0,0,-1,-1,0
1472088752930855,-3,-3,-37,-2,-2,2,0,-1
1472088752943407,1,-2,3,1,1,-1,0,-1
1472088752943407,-4,2,11,-1,-1,-2,-3,-1
1472088752950415,-6,-2,-5,-4,-3,-3,0,-3
1472088752950415,0,-3,-9,-1,2,0,-2,0
1472088752966981,1,1,-9,0,0,-1,0,0
1472088752966981,1,-3,3,-2,0,1,-1,1
1472088752968515,0,-1,-9,-1,-2,-4,1,-3
1472088752968515,-2,1,9,0,-1,1,-1,-1
1472088752989232,-1,-3,-4,-1,1,-1,-1,-1
1472088752989232,-3,-4,-4,-1,-3,-3,-2,-2
1472088752991154,3,1,-9,1,-1,-1,-1,1
1472088752991154,-1,-4,18,-1,0,-1,-2,-3
1472088753003766,0,3,-9,-2,-3,-1,-1,-1
1472088753003766,0,-2,-21,-4,1,0,-1,0
1472088753010238,0,-4,8,-3,-1,0,-2,1
1472088753010238,1,-3,-19,0,-1,1,0,1
1472088753026819,-4,-1,46,-1,-2,0,-2,0
1472088753026819,-2,1,-4,0,-1,-1,1,-1
1472088753028323,2,-3,-12,2,-1,0,-1,-1
1472088753028323,-6,0,7,1,-2,1,0,-2
1472088753049442,-1,1,-38,-2,1,-1,1,0
1472088753049442,0,-4,22,1,-3,-1,-2,-3
1472088753050945,3,6,-6,-3,-2,-1,-2,1
1472088753050945,1,-1,3,-1,-1,-2,-2,1
1472088753063659,3,-1,13,3,-2,0,-2,-3
1472088753063659,-6,1,-4,-1,-3,-1,-2,0
1472088753070661,-2,-4,-8,-1,-2,0,0,-2
1472088753070661,-3,-2,-10,-4,-1,-2,-1,0
1472088753086706,0,2,15,-1,-1,-2,-1,2
1472088753086706,2,-3,-9,-2,0,1,-1,1
1472088753088225,2,-1,7,-1,0,1,0,-2
1472088753088225,2,2,-5,-2,-2,-2,-1,-2
1472088753109283,-1,-1,1,0,-1,-1,-2,-2
1472088753109283,-2,1,3,2,0,0,-1,0
1472088753110768,-1,-2,-7,-3,-1,0,-3,0
1472088753110768,1,-2,10,2,-1,-1,-1,-2
1472088753122358,-4,-1,23,-5,-2,-5,-2,-3
1472088753122358,2,2,-6,-2,-1,-2,0,0
1472088753131922,-4,1,5,0,1,0,0,-1
1472088753131922,1,-1,-7,-2,1,-1,-2,-2
1472088753146942,1,-2,5,1,-1,2,1,0
1472088753146942,-2,-2,-13,-3,-1,1,-3,0
1472088753148351,0,1,1,-3,-1,1,0,0
1472088753148351,1,0,19,1,-2,-1,-2,1
1472088753169455,-4,0,-4,-1,-2,-2,-2,-1
1472088753169455,2,2,-14,-1,1,-1,0,-2
1472088753171010,-6,-4,-6,-1,-1,-1,-1,-1
1472088753171010,6,-1,4,0,-1,-1,1,0
1472088753183021,2,-3,1,-2,0,-1,0,1
1472088753183021,-8,0,-10,0,-1,0,-1,-3
1472088753191913,0,-2,4,-2,1,-3,-3,-2
1472088753191913,-2,-1,-7,-1,0,-1,1,-2
1472088753206999,1,-1,-11,2,-2,-1,0,-1
1472088753206999,2,-1,0,1,-1,1,-1,-1
1472088753208550,-1,3,25,4,-3,-1,-2,-1
1472088753208550,-3,-2,9,0,-1,-1,0,-2
1472088753228694,0,-5,-64,-7,-1,1,-1,-1
1472088753228694,-5,-7,25,-1,-3,-2,-1,0
1472088753237290,-1,3,9,0,0,-1,0,1
1472088753237290,-1,-4,-16,0,-2,-2,-3,-1
1472088753242735,-3,2,28,2,-1,-1,-1,-2
1472088753242735,0,-3,-16,-5,-1,-2,1,0
1472088753251713,0,-6,-14,-2,-1,-1,-2,-2
1472088753251713,-1,0,2,-3,-3,0,0,-1
1472088753266946,-1,0,-4,0,1,0,0,0
1472088753266946,-2,-3,20,-3,-2,-2,-3,0
1472088753268424,-2,2,-3,-1,-2,1,0,-3
1472088753268424,0,-1,-13,1,1,0,0,-2
1472088753289550,1,1,21,3,-2,0,0,0
1472088753289550,3,-3,-10,0,0,1,0,-1
1472088753291051,-3,-1,-8,-1,-2,-2,1,-1
1472088753291051,-2,-2,-7,1,-1,-1,-4,0
1472088753303127,-4,-6,-3,-2,-2,1,-3,0
1472088753303127,-1,1,22,2,-3,-1,-1,-1
1472088753311676,-1,2,-5,0,0,-2,-1,0
1472088753311676,-3,-1,-42,-5,-4,-2,-1,-1
1472088753326761,0,-1,11,3,0,1,0,1
1472088753326761,3,2,-4,-1,0,-1,-1,-2
1472088753328262,0,-3,-2,-3,0,1,1,0
1472088753328262,-3,-4,1,-1,0,-1,-1,-1
1472088753349283,0,-1,7,-2,0,0,-1,-3
1472088753349283,-5,4,17,-5,-4,-1,-1,-1
1472088753350781,7,2,-2,3,0,-1,-1,-1
1472088753350781,-7,-4,13,-1,-1,-1,-1,-2
1472088753362939,0,-4,-23,-1,-1,-1,-2,1
1472088753362939,0,-1,-1,3,0,0,-1,-1
1472088753371926,-1,-2,-1,-2,0,-1,0,0
1472088753371926,6,2,9,1,-1,0,0,2
1472088753386495,-7,4,3,-2,-1,-2,0,-2
1472088753386495,0,0,-11,0,1,0,-1,-2
1472088753388535,-1,-5,-1,-1,0,-1,1,0
1472088753388535,2,-1,-6,-5,-2,0,-1,-1
1472088753409362,-1,-3,0,0,-1,0,0,-1
1472088753409362,-1,-3,-9,0,2,-1,0,2
1472088753410811,-1,-1,2,-2,-3,-2,-2,-3
1472088753410811,4,4,24,2,-1,-2,-2,-1
1472088753422908,-6,-4,-20,-4,-2,-3,0,-3
1472088753422908,0,-2,-18,-1,0,0,0,0
1472088753432070,2,-2,0,-4,-1,0,-2,-1
1472088753432070,-4,-4,3,-4,-2,-2,0,-2
1472088753447058,2,1,13,1,-2,0,-1,-1
1472088753447058,1,-1,2,2,0,-2,-3,-1
1472088753448601,-5,-1,-7,0,1,-1,-1,0
1472088753448601,-2,1,7,2,-1,0,1,-2
1472088753469424,1,-1,-12,-1,-1,-3,0,1
1472088753469424,-3,-3,-3,0,0,-2,-2,-1
1472088753470907,-2,-2,14,-3,-2,-2,-1,-1
1472088753470907,-3,0,3,-2,1,-2,-1,0
1472088753483089,0,-2,-2,0,0,-1,-1,-3
1472088753483089,0,-1,-1,-1,-2,-1,-1,1
1472088753492266,-2,-2,-10,-2,0,-2,-1,-1
1472088753492266,0,2,-3,-1,0,0,-1,1
1472088753506838,-1,-6,6,-1,-2,-4,1,-1
1472088753506838,0,2,-4,-4,-2,-1,0,0
1472088753512887,-5,-3,-7,2,0,2,-2,-3
1472088753512887,-2,-5,-12,-4,0,0,-2,-2
1472088753529487,-2,3,9,0,-1,-1,-2,0
1472088753529487,-2,4,36,0,-2,0,-2,-2
1472088753530997,2,-7,-27,-2,-3,-2,0,-1
1472088753530997,-4,0,14,1,-1,-1,-2,-2
1472088753543005,3,-2,-6,-1,0,-2,-1,0
1472088753543005,0,-1,-15,-1,1,-1,0,-1
1472088753552013,-2,0,12,2,1,-1,-1,0
1472088753552013,-1,-6,-7,-1,-1,-2,0,0
1472088753566569,-3,-3,0,-3,-1,-1,-3,-2
1472088753566569,4,2,-8,-3,-4,-1,-1,-1
1472088753568613,-3,3,8,-1,-2,0,1,0
1472088753568613,1,-1,-10,0,0,0,1,0
1472088753589294,0,2,10,1,0,1,0,1
1472088753589294,-1,-7,-24,-4,0,0,1,-2
1472088753590787,-3,6,44,0,-3,-4,-2,-2
1472088753590787,0,1,-6,2,0,0,-1,0
1472088753611742,-1,1,-5,-3,-1,-2,0,-3
1472088753611742,-2,-8,-10,-1,-1,-2,0,1
1472088753613188,0,-3,-14,-3,0,0,0,1
1472088753613188,-1,2,3,-2,-1,0,-1,0
1472088753626740,1,-5,16,0,-1,0,1,-1
1472088753626740,-4,-1,-43,0,-1,-1,-3,-1
1472088753628241,2,-2,0,1,0,-1,-1,0
1472088753628241,2,1,3,-2,-4,-2,-1,-1
1472088753649399,-2,-1,-13,0,1,1,1,0
1472088753649399,0,-4,31,-1,-2,-3,0,-2
1472088753650435,1,2,-3,-2,-2,-1,-1,-2
1472088753650435,-3,-1,-5,-1,-2,-1,-2,0
1472088753671806,-1,0,2,0,0,-2,-1,0
1472088753671806,-1,0,-9,-2,1,-1,0,-1
1472088753673390,-1,0,-9,3,0,-2,0,0
1472088753673390,-2,-6,8,-6,-4,-1,-3,-3
1472088753686957,0,-1,-10,-2,-1,-2,-2,-1
1472088753686957,4,5,11,-1,-2,-1,-1,-2
1472088753688513,-8,-5,-12,-3,-1,-2,1,-2
1472088753688513,2,1,12,2,0,-1,0,-1
1472088753709090,1,-4,-27,-1,-1,-2,-2,-2
1472088753709090,-3,-1,-6,0,1,0,-2,-1
1472088753711091,1,-6,-3,-2,-1,1,0,-1
1472088753711091,-4,0,16,0,0,-3,0,-2
1472088753731498,-3,0,12,-1,-1,-2,-1,-1
1472088753731498,2,1,-2,-1,-2,1,-1,-1
1472088753733221,3,-2,-16,-2,0,0,-1,0
1472088753733221,-2,0,-10,0,0,-1,0,-1
1472088753746328,-2,-2,4,-3,0,1,0,0
1472088753746328,-4,-2,4,1,-2,-2,1,-2
1472088753752241,4,6,8,1,0,-1,0,0
1472088753752241,-1,-2,-4,-4,-2,-3,-3,-1
1472088753769316,2,3,-13,0,-1,0,-2,0
1472088753769316,-1,-5,32,0,-3,-1,0,-1
1472088753770830,1,2,-16,-1,-1,-2,0,-1
1472088753770830,-3,-5,-5,-6,-2,-2,-2,0
1472088753792428,-1,0,-5,-1,-1,0,-1,-1
1472088753792428,0,1,15,0,1,-2,-2,1
1472088753793810,0,-2,0,-1,-1,0,-2,-2
1472088753793810,0,1,-9,1,1,0,2,2
1472088753806054,-5,-6,2,-2,-4,-4,-1,-2
1472088753806054,-2,2,-13,-3,0,1,-1,0
1472088753813016,-4,-3,8,-2,-2,0,-2,-3
1472088753813016,0,1,-9,1,0,-1,-1,0
1472088753829171,-2,-1,10,0,-1,-2,0,-1
1472088753829171,-3,-2,-17,1,0,-3,0,0
1472088753830672,0,-2,17,0,-2,-3,-1,3
1472088753830672,-1,0,2,-3,-1,0,0,-4
1472088753851734,-1,2,-2,-2,-1,1,1,-1
1472088753851734,-1,-3,-1,-2,-3,-1,-1,-1
1472088753853235,-2,-1,-10,-3,-1,0,0,-2
1472088753853235,3,-1,-4,2,-2,-1,-1,-1
1472088753866100,-1,1,17,0,0,-1,-1,0
1472088753866100,-2,-4,-47,-4,-1,-1,-1,-2
1472088753873070,4,2,14,3,-1,-1,-1,-1
1472088753873070,-9,-3,0,-3,0,-1,-1,0
1472088753889376,0,4,-11,-1,-1,0,-1,1
1472088753889376,0,2,15,-2,0,-1,0,1
1472088753890845,0,0,-4,-1,-1,-2,-1,-1
1472088753890845,4,-2,0,2,-1,-2,-3,-3
1472088753911676,-3,-3,1,0,-2,-1,-1,0
1472088753911676,-1,-1,-5,2,0,2,0,-2
1472088753913642,-3,-2,3,-3,-1,-2,-1,-2
1472088753913642,0,3,3,2,1,-2,-1,0
1472088753924798,-3,-1,-8,-3,-2,-1,-2,-2
1472088753924798,3,1,-5,0,-2,0,-2,0
1472088753934356,-3,-3,15,-1,-2,0,-1,-2
1472088753934356,3,-2,-20,1,-1,1,-2,-1
1472088753949391,-1,-1,31,1,-3,-2,-1,-3
1472088753949391,-1,-1,-16,-1,0,-1,-2,0
1472088753950919,-2,0,10,2,0,-1,-1,0
1472088753950919,-2,-3,11,0,2,-1,0,-3
1472088753971951,1,-1,-5,2,0,1,0,-2
1472088753971951,-2,4,20,0,-1,-1,0,-3
1472088753973453,-4,-3,-28,-1,-1,1,-1,-2
1472088753973453,-1,2,8,1,-1,-1,0,0
1472088753985476,0,-4,-15,-2,2,0,-1,0
1472088753985476,-2,-2,24,-1,-3,-4,-3,-1
1472088753992968,-1,-2,-12,0,-1,0,0,0
1472088753992968,0,-2,-5,0,-3,-1,0,-2
1472088754009583,-1,0,-4,-2,0,-1,-2,-1
1472088754009583,-1,-1,-3,0,0,0,-1,0
1472088754011082,-3,-2,-7,-1,-3,-1,0,-1
1472088754011082,-2,0,8,0,-4,-2,0,0
1472088754031942,1,0,11,3,0,1,-2,-1
1472088754031942,-2,-1,-4,-1,-2,0,-1,0
1472088754033443,1,-2,30,-2,-1,-1,-2,-2
1472088754033443,-6,-4,-45,-5,1,-1,0,1
1472088754046955,0,-4,-1,-2,-1,-1,0,-1
1472088754046955,-7,0,2,-2,0,0,-1,-2
1472088754053065,2,2,-1,1,0,-1,1,-1
1472088754053065,0,-4,-2,-4,-3,-1,-1,1
1472088754069541,-3,0,13,0,-1,-2,-2,0
1472088754069541,4,-1,-7,-1,-1,-1,-1,1
1472088754071560,-2,-1,-6,-1,0,0,-2,-1
1472088754071560,-4,0,-5,0,0,-1,-2,-2
1472088754091735,1,-3,-5,-2,-1,-1,1,0
1472088754091735,0,-5,7,0,-1,-1,-1,1
1472088754093219,0,-1,-6,-2,0,-1,1,0
1472088754093219,1,-1,5,-2,0,0,-2,-1
1472088754105789,-3,3,2,-2,0,-1,0,0
1472088754105789,1,-8,-34,0,-1,-1,-3,-3
1472088754114319,1,2,0,0,0,0,-1,1
1472088754114319,-1,-8,1,-5,-1,0,-1,-1
1472088754129032,1,-3,6,1,-3,-1,-2,0
1472088754129032,-1,1,8,1,1,-1,1,-1
1472088754131078,-3,-3,-21,0,-1,-1,-2,-1
1472088754131078,3,2,6,2,-1,1,0,2
1472088754151652,-3,-5,-16,-1,-1,-2,-2,0
1472088754151652,-3,-2,22,-2,-2,-3,1,-3
1472088754153598,1,1,-7,-2,-2,-1,0,0
1472088754153598,-1,2,5,-1,-2,0,1,0
1472088754165693,-1,1,6,0,1,0,-1,0
1472088754165693,-2,-1,-8,1,0,-1,-1,0
1472088754174596,-3,-3,-1,-4,-1,1,-1,-1
1472088754174596,5,2,-14,1,-1,0,-1,-3
1472088754189154,-3,-2,-4,-2,-2,-2,-2,0
1472088754189154,2,0,-13,-5,-2,-2,-1,0
1472088754190660,-4,-5,16,-1,1,-1,-3,-1
1472088754190660,-2,0,-1,1,-1,-1,-2,-2
1472088754211870,2,-2,-9,-1,-1,0,-1,-4
1472088754211870,-7,-2,-5,0,-2,-1,0,-2
1472088754213366,1,2,8,-1,-2,-2,1,-1
1472088754213366,-3,-3,-1,-1,-1,-1,0,-2
1472088754225558,4,-1,-7,0,-3,-1,0,-1
1472088754225558,-2,0,25,-2,-2,0,-1,-1
1472088754234110,-3,-5,-53,-3,-1,-1,-2,-3
1472088754234110,-3,0,8,-1,0,-2,0,1
1472088754249125,0,3,2,-3,1,0,1,0
1472088754249125,4,-6,-31,-1,0,-1,-1,-2
1472088754250628,-2,0,25,-2,-1,-1,-1,-1
1472088754250628,0,1,-3,-1,-1,-2,-1,0
1472088754271917,0,-4,-14,-1,-1,0,-1,-1
1472088754271917,1,0,31,2,0,0,-2,-2
1472088754273414,1,-1,-3,1,1,-1,-1,0
1472088754273414,2,0,-13,-2,-4,-2,-1,-2
1472088754285517,-3,-1,4,-4,-1,-1,-1,0
1472088754285517,-2,1,-11,0,-1,0,0,0
1472088754294544,0,-2,-3,0,-1,0,-1,1
1472088754294544,1,3,32,1,-1,0,-2,-1
1472088754309626,-1,0,-16,0,-2,0,-1,-1
1472088754309626,-1,1,12,-4,-2,-2,-2,0
1472088754310604,0,1,-1,-1,-1,-1,0,-1
1472088754310604,-5,-1,3,1,0,-1,0,-1
1472088754332275,-1,-3,4,1,-1,0,1,-2
1472088754332275,-1,-1,-4,-3,-1,-1,-2,-2
1472088754333782,-1,-1,7,0,-1,-2,-1,-2
1472088754333782,0,-3,-21,-2,-1,-1,-1,1
1472088754345290,-3,2,18,0,-1,-1,0,-3
1472088754345290,2,-1,0,-1,0,-1,0,3
1472088754354299,0,0,1,1,-2,1,-1,-1
1472088754354299,-12,-4,-10,-3,0,-1,-2,-2
1472088754369460,3,-4,-13,-1,1,-1,0,0
1472088754369460,-3,0,13,-3,-3,-3,0,-4
1472088754371003,1,0,-11,-1,0,0,0,1
1472088754371003,2,-4,-7,0,-1,0,-2,1
1472088754391982,-4,2,27,-5,-3,-2,-4,-2
1472088754391982,1,-1,-14,2,-1,-1,-1,-1
1472088754393186,-1,-3,2,-5,-1,-1,-1,-3
1472088754393186,1,0,-6,-4,-1,-1,1,-1
1472088754405219,-3,2,-2,1,0,-2,1,-1
1472088754405219,-2,-5,12,-3,-2,0,-3,-2
1472088754414199,-2,3,-5,2,-1,-2,-1,0
1472088754414199,0,2,9,1,-1,-2,-2,0
1472088754429116,-2,1,-3,0,-1,1,-2,2
1472088754429116,-2,0,17,1,-1,-1,0,0
1472088754430576,-1,-3,-13,0,0,-1,-1,-2
1472088754430576,1,-2,9,-2,-1,-3,-1,-1
1472088754451656,-4,-4,-5,0,1,-2,-1,-1
1472088754451656,-4,-2,-17,-1,1,0,-1,-1
1472088754453102,0,-1,12,2,-1,1,0,0
1472088754453102,1,0,8,-1,0,0,0,-1
1472088754465397,-1,3,-12,-2,-3,-1,0,-2
1472088754465397,0,-5,-10,-1,-1,-1,-1,0
1472088754474384,-2,1,3,-1,0,-1,-2,-1
1472088754474384,-2,-3,11,-1,-2,-1,-1,-1
1472088754489615,1,-1,-11,-1,-2,-1,-1,3
1472088754489615,1,1,8,-1,-2,-2,-2,-2
1472088754491074,2,-2,-9,-1,-1,-1,-1,-1
1472088754491074,-2,-1,-4,0,0,-1,1,-2
1472088754511867,1,-1,-3,-2,-1,-2,-2,-1
1472088754511867,-2,3,24,1,-1,0,0,0
1472088754513319,-3,-3,-18,-4,-2,-4,-1,-1
1472088754513319,3,2,-4,-3,0,0,0,0
1472088754534085,0,-2,-1,1,0,1,-1,-1
1472088754534085,-3,-2,-2,-3,-2,-1,-1,-2
1472088754536107,-3,0,5,-3,0,0,-1,-1
1472088754536107,-5,-4,-7,0,-1,-2,-1,-2
1472088754549109,1,0,-8,-1,0,0,1,-1
1472088754549109,-1,0,-10,-1,-1,0,0,1
1472088754551111,-5,-7,-1,-6,-3,-2,-1,-1
1472088754551111,2,6,2,0,-2,-1,-3,-1
1472088754571849,-3,-3,5,-2,-1,-3,-2,-1
1472088754571849,2,0,-11,-1,1,0,1,-1
1472088754573348,-3,-3,6,0,-1,-1,0,-1
1472088754573348,0,-2,6,-1,-1,1,-2,-1
1472088754594435,1,1,5,-2,-2,0,-1,0
1472088754594435,0,-1,-18,-1,-1,-2,0,-2
1472088754594936,2,1,5,-3,1,-3,-1,-2
1472088754594936,1,-3,-10,-3,-2,-2,0,1
1472088754609476,0,-2,-11,-1,-1,-1,-1,-1
1472088754609476,-1,0,21,1,0,-1,-1,-1
1472088754611042,1,-1,-14,1,-1,0,0,0
1472088754611042,-2,-3,5,-2,0,-2,0,-2
1472088754632048,-1,-2,-1,-2,0,-2,0,-3
1472088754632048,-2,-2,-2,-4,-2,0,-2,0
1472088754633552,-2,2,12,0,-2,-1,-1,-2
1472088754633552,-2,-3,-15,-1,0,-1,-1,2
1472088754654266,0,-2,-3,-1,0,1,-2,1
1472088754654266,4,-3,2,-1,-2,-2,0,-1
1472088754655750,-2,-1,-6,-1,-1,1,-1,0
1472088754655750,-3,-2,9,-1,-2,-1,0,-4
1472088754669338,-1,-1,3,1,1,-1,-1,-2
1472088754669338,-4,-1,-10,-2,-1,-1,-2,-1
1472088754670834,1,1,-3,0,-3,-1,-2,2
1472088754670834,1,-3,-13,-4,1,-1,0,0
1472088754691972,1,1,10,-4,-2,0,-1,-2
1472088754691972,-9,-2,-4,-2,-3,-1,0,-1
1472088754693523,2,2,8,0,0,-2,0,1
1472088754693523,0,0,-27,1,0,1,-2,0
1472088754714679,-2,-1,1,-1,0,-2,0,-1
1472088754714679,2,-2,-21,-1,1,0,1,-1
1472088754716137,-1,0,13,-2,-1,1,-1,0
1472088754716137,-1,6,26,3,0,-1,-4,-3
1472088754728866,1,-3,5,-1,-1,-3,-1,0
1472088754728866,-2,-2,-15,-2,-2,0,-1,-1
1472088754735373,0,-7,-18,-2,0,-1,-3,0
1472088754735373,-1,-2,-5,2,-2,2,0,0
1472088754751940,-2,1,14,-2,-2,-3,-3,-1
1472088754751940,2,-5,2,-3,-1,0,0,0
1472088754753490,-4,-2,0,0,0,0,-1,-2
1472088754753490,3,1,0,0,-2,0,-1,-1
1472088754774603,-3,-3,-3,0,-1,-1,0,-2
1472088754774603,0,0,-7,-2,-1,0,0,2
1472088754776080,-3,-5,-15,-2,0,-2,0,-1
1472088754776080,-2,-1,13,0,1,-1,0,-3
1472088754788661,-1,0,-6,3,-2,0,2,-1
1472088754788661,3,2,6,-2,-3,-3,-3,-1
1472088754795171,-5,-2,-7,-2,-2,-1,0,-1
1472088754795171,-4,-2,16,-1,-2,-2,-3,-3
1472088754811533,1,0,-5,-1,0,0,0,0
1472088754811533,-3,0,-4,0,0,1,-1,-2
1472088754813535,1,1,-1,1,0,-1,1,0
1472088754813535,-2,-2,-6,-1,-1,-1,-1,-2
1472088754834097,-1,-3,-10,-2,-2,0,-2,-1
1472088754834097,-2,1,6,0,2,-3,-2,0
1472088754836100,-2,-2,9,-1,-2,1,1,-2
1472088754836100,2,1,-8,-5,-1,1,0,2
1472088754848655,0,-4,-3,-1,-2,1,-1,0
1472088754848655,-3,-2,-4,0,0,-1,-1,-1
1472088754855616,4,2,-6,-2,0,-1,-3,-2
1472088754855616,-7,-2,16,1,-3,-3,-1,-2
1472088754871804,0,-2,-13,-1,-2,0,-1,-2
1472088754871804,4,4,16,-3,-4,0,-2,-3
1472088754873283,-2,-3,-10,0,-1,0,0,0
1472088754873283,2,-1,-9,0,1,0,1,1
1472088754894642,-3,-4,-4,-1,-1,0,-2,-1
1472088754894642,-4,-1,-1,3,0,-1,-1,-1
1472088754896051,3,-1,5,-1,-1,-2,0,1
1472088754896051,2,-1,-9,-2,-2,-2,-2,0
1472088754908674,-1,-2,7,-2,0,1,-1,0
1472088754908674,0,2,10,-1,-2,0,-1,1
1472088754915282,1,2,-6,-2,-1,1,-2,-2
1472088754915282,-2,0,1,1,0,-1,-1,-2
1472088754931954,-2,-1,-7,-2,-2,-1,0,-2
1472088754931954,-1,-3,-8,1,0,0,0,0
1472088754933455,-2,-1,20,1,-1,-2,-2,-1
1472088754933455,-1,0,-17,0,1,-1,1,-1
1472088754954475,-1,0,7,-3,0,0,0,-1
1472088754954475,-3,3,3,-1,-1,-3,0,-1
1472088754956083,-2,0,-7,-2,0,-1,-1,-1
1472088754956083,-1,-6,-7,-3,-2,-1,-2,0
1472088754968583,-1,5,21,3,0,-2,0,-1
1472088754968583,0,-6,-18,-1,0,-1,-1,-1
1472088754975164,0,0,-17,-3,-2,-1,-1,-2
1472088754975164,1,-1,21,1,-2,-1,-1,-2
1472088754991790,-2,-4,-16,-3,-1,-1,0,0
1472088754991790,-3,-2,21,0,-1,0,-1,0
1472088754993338,3,2,1,-2,0,0,-1,0
1472088754993338,-3,0,-10,-2,-1,0,-2,-2
1472088755014527,0,-1,0,-3,0,-1,-2,-3
1472088755014527,-1,-5,-19,-3,-1,1,0,0
1472088755016018,-2,1,13,-1,-1,-2,0,0
1472088755016018,0,-1,3,-1,-1,0,-1,2
1472088755027672,-2,0,2,1,-3,-2,-2,-1
1472088755027672,1,-1,-11,-1,0,0,-1,0
1472088755036698,-2,-4,-1,0,-3,0,-1,-1
1472088755036698,-7,-1,-3,0,1,1,-1,0
1472088755051710,0,-1,19,4,-2,0,0,0
1472088755051710,-3,1,-3,-4,-2,-3,-2,-2
1472088755053211,-1,-2,12,-2,-2,0,0,-1
1472088755053211,1,-1,-12,-2,1,-1,1,0
1472088755074446,0,-3,2,-2,0,1,-1,-2
1472088755074446,1,2,6,2,-1,-2,0,-1
1472088755075875,-3,-2,-1,-1,-2,-2,-1,0
1472088755075875,0,2,15,2,-1,-1,-1,0
1472088755087934,-4,-4,-16,-2,0,-1,-1,-1
1472088755087934,5,0,-3,1,-2,0,0,-1
1472088755097046,-2,-3,-12,-1,0,0,0,-3
1472088755097046,-6,-2,1,-2,-2,-1,-1,0
1472088755111959,-1,1,-12,-1,-4,-2,-1,1
1472088755111959,-4,-4,13,-1,-2,1,-2,-3
1472088755112971,3,0,0,-1,0,-1,0,2
1472088755112971,1,-1,-1,-2,-1,0,0,-2
1472088755134624,-2,0,19,-1,-1,-1,-2,-1
1472088755134624,0,0,-39,-4,-1,-1,0,-1
1472088755135662,-1,-1,6,-1,-1,0,-3,-1
1472088755135662,-1,-1,23,-1,-2,-2,-2,-1
1472088755148153,-3,-3,-14,-1,-1,-1,0,2
1472088755148153,0,-1,5,-1,-1,0,-1,0
1472088755156702,1,1,-5,-1,-1,-1,0,-2
1472088755156702,-4,-1,-20,3,0,0,-1,-3
1472088755171785,0,0,0,-3,0,0,-2,0
1472088755171785,-3,-2,2,-2,-2,-1,1,-1
1472088755173773,4,-5,-12,0,0,0,0,-2
1472088755173773,0,-2,-1,-4,-1,-3,-1,0
1472088755194481,0,3,2,0,-2,-2,-1,-3
1472088755194481,-1,-3,-2,0,0,-1,-2,-1
1472088755195787,-2,-2,7,0,0,0,-1,-1
1472088755195787,4,-1,-13,0,-2,2,0,1
1472088755207881,-2,-3,23,0,0,-1,-1,-1
1472088755207881,-2,-1,-7,-4,-2,-2,-1,1
1472088755216978,-6,0,7,-1,-2,-3,-2,-1
1472088755216978,-1,-2,-15,-2,-2,-3,0,-3
1472088755231669,1,1,-3,0,-2,-1,1,-2
1472088755231669,0,3,16,3,-1,0,-1,-1
1472088755233127,3,-2,-3,-3,0,-1,-1,-1
1472088755233127,-3,1,1,-3,-1,-1,-2,0
1472088755254224,-2,-3,-15,1,0,0,-1,0
1472088755254224,-1,-1,-2,1,-2,-2,-2,-2
1472088755255247,-2,0,15,3,0,0,0,-1
1472088755255247,-1,0,-3,-2,-1,-3,-1,0
1472088755268135,1,-4,1,0,0,0,-2,0
1472088755268135,-2,1,-1,-1,-1,-2,-2,-2
1472088755277214,3,-2,5,0,1,-2,-1,-2
1472088755277214,-3,-4,-13,0,0,-1,0,-2
1472088755291801,-1,1,-17,0,0,-2,-1,-1
1472088755291801,-2,-2,8,-2,0,-1,-2,0
1472088755293302,-5,-1,5,-1,-3,-3,-2,-1
1472088755293302,3,-4,-27,-3,-2,-3,0,0
1472088755314386,3,4,17,1,0,0,0,-2
1472088755314386,-2,-6,-15,-4,0,0,-3,-2
1472088755315841,0,2,13,-1,-2,-2,-2,-2
1472088755315841,0,-4,-18,-1,0,0,-1,0
1472088755328043,-9,-3,10,-4,-5,-2,0,0
1472088755328043,0,-2,0,-1,-3,-2,2,-1
1472088755337047,-3,0,-21,-5,1,0,-2,0
1472088755337047,-1,-1,21,1,-1,1,-2,-1
1472088755351602,2,4,7,-2,0,-1,-2,-2
1472088755351602,2,-1,-10,0,-2,1,-1,0
1472088755353561,0,-1,-3,2,-2,-2,-1,-1
1472088755353561,2,-1,3,0,-1,-1,-1,0
1472088755374654,2,-2,-12,1,1,0,-1,0
1472088755374654,-5,-2,8,-1,0,-1,0,0
1472088755376264,2,0,-2,-5,-2,-1,0,-2
1472088755376264,-5,-2,-7,2,0,0,-1,-1
1472088755387625,1,-4,-9,-1,-2,-3,-2,-1
1472088755387625,-2,-2,17,-5,2,0,-1,-3
1472088755396687,1,3,-6,-2,-3,-1,-2,-1
1472088755396687,-7,-3,-8,-4,-2,-3,-3,-4
1472088755411941,2,-1,2,1,-1,0,0,-1
1472088755411941,-2,0,-11,1,-1,1,0,-1
1472088755413499,-1,-3,3,-2,-1,-3,-1,0
1472088755413499,4,6,17,1,-1,0,0,1
1472088755434421,-3,1,-19,-1,2,-1,2,-1
1472088755434421,-8,-3,26,0,-2,-2,-2,0
1472088755435925,0,-5,-49,-2,-2,0,-3,-3
1472088755435925,1,-2,25,-1,-2,0,-1,0
1472088755448071,-2,-4,-8,-5,-1,-2,0,0
1472088755448071,4,1,-1,1,-1,-1,-1,0
1472088755457114,-5,0,9,1,1,-2,-1,-2
1472088755457114,2,-5,-9,-1,1,0,0,-2
1472088755471932,-9,-1,5,-3,-3,-3,-3,-2
1472088755471932,1,-2,-23,1,-2,-1,-1,0
1472088755473435,-2,-1,13,1,-1,0,1,0
1472088755473435,4,-1,-13,-2,-2,0,-1,-1
1472088755494252,3,2,14,-1,-3,0,-1,-2
1472088755494252,-1,-4,-1,-2,1,1,-3,-1
1472088755495712,0,-2,-10,0,-1,2,0,0
1472088755495712,2,-2,3,0,1,1,1,0
1472088755516647,-3,2,8,-1,-3,-2,-3,0
1472088755516647,-4,-2,-5,1,-2,-2,0,-1
1472088755518148,0,-2,0,-3,-1,0,-1,-1
1472088755518148,0,2,8,0,-2,0,-2,-2
1472088755531799,-3,-7,-9,-3,0,-1,-3,-2
1472088755531799,1,3,-20,-4,-1,0,-1,0
1472088755533258,-4,-4,26,-2,-1,-2,-2,-2
1472088755533258,-2,5,1,1,-2,-3,1,-1
1472088755554359,-1,-4,-7,0,0,0,-3,-3
1472088755554359,0,1,-4,0,-3,-1,-1,0
1472088755555877,-1,-2,-12,-2,1,-1,0,1
1472088755555877,-7,-1,3,-4,-2,-1,-2,-1
1472088755577020,5,-3,-6,-3,0,0,1,1
1472088755577020,-6,0,17,1,1,-1,-1,-3
1472088755578521,2,1,-18,-1,-2,-2,-2,-2
1472088755578521,-4,-3,24,-2,-3,0,-2,-3
1472088755591790,0,1,-16,-2,-1,-3,0,-1
1472088755591790,0,-5,6,4,-1,-1,-1,-1
1472088755593335,-2,-4,-15,-6,-1,0,-1,0
1472088755593335,2,-2,12,2,-1,-2,-2,0
1472088755614471,-2,-3,-10,-4,0,0,0,-1
1472088755614471,2,-1,9,-1,-1,0,-1,-1
1472088755616012,-2,4,22,3,-2,-1,-1,-2
1472088755616012,1,-2,-9,-4,1,-2,-1,1
1472088755636827,0,-2,1,5,-2,-2,0,0
1472088755636827,-7,4,8,0,1,0,0,0
1472088755638362,2,-7,-12,0,0,1,1,-1
1472088755638362,-5,0,-1,-9,-3,-2,-1,-3
1472088755651335,5,0,11,2,0,-1,-1,2
1472088755651335,3,-2,-15,-4,-1,-1,-2,-2
1472088755657845,-3,-1,16,0,-3,-1,-2,-1
1472088755657845,-1,-1,-18,0,0,1,0,0
1472088755674475,1,-6,2,0,-1,-1,1,1
1472088755674475,1,0,-10,-2,-2,-2,1,0
1472088755675977,-2,-1,8,1,-2,-1,-1,-2
1472088755675977,4,-2,20,2,1,-2,-1,1
1472088755696745,-10,-3,-32,-3,0,1,-1,-3
1472088755696745,-2,3,15,-1,-1,0,-1,-2
1472088755698248,0,2,-7,-3,-2,-3,0,-1
1472088755698248,-2,-2,3,0,-1,0,0,-1
1472088755711308,2,-2,3,2,-4,1,0,0
1472088755711308,1,-5,-12,0,-1,-1,1,0
1472088755717851,-11,-2,7,-1,-1,-2,0,-2
1472088755717851,-3,2,-5,-1,0,-2,-3,0
1472088755734436,-1,0,-3,-2,-1,-1,-2,-2
1472088755734436,-2,0,-5,0,0,-1,-2,0
1472088755735933,1,-2,0,-2,-1,-2,-1,1
1472088755735933,-1,-1,4,0,0,0,0,-1
1472088755756957,0,-2,10,0,-1,-3,-1,0
1472088755756957,-2,-2,-28,-6,-4,-2,-2,0
1472088755758492,0,1,0,-2,-1,-1,-1,0
1472088755758492,0,-2,-14,0,-1,0,0,-2
1472088755771199,-1,2,3,-2,-2,1,-1,-3
1472088755771199,0,-2,17,1,-1,1,-1,0
1472088755777634,0,-2,-21,-2,1,-2,-2,0
1472088755777634,1,-2,0,1,0,1,-3,-1
1472088755794166,-4,-2,7,-3,-1,0,-1,-2
1472088755794166,4,-3,-4,1,-1,-3,-2,0
1472088755795689,-5,1,-1,2,0,1,-1,-3
1472088755795689,-4,1,-3,-2,-2,-2,-1,1
1472088755816831,3,-1,-2,-3,0,1,0,-1
1472088755816831,-1,-5,1,-3,-2,-1,-2,0
1472088755818322,5,4,17,1,-2,-2,0,0
1472088755818322,-4,-8,-32,-6,-2,-2,-1,-1
1472088755831303,-5,0,17,-1,-3,-1,-3,1
1472088755831303,-1,0,11,0,1,0,-2,-2
1472088755837991,2,-2,3,1,0,0,-1,1
1472088755837991,-1,-1,-24,-1,0,0,-1,-2
1472088755854493,-3,2,34,1,-2,-2,-1,0
1472088755854493,4,2,-4,-3,-2,-3,-1,-3
1472088755856005,-1,-4,-13,-1,-1,-2,-1,-1
1472088755856005,-2,1,-2,-2,-2,2,0,-1
1472088755877035,2,2,-10,-3,1,-1,-2,-2
1472088755877035,-2,-2,1,3,0,-1,0,0
1472088755878578,1,-3,-5,-2,-1,0,0,0
1472088755878578,-2,0,18,-1,0,-1,1,1
1472088755891141,0,-3,-13,0,0,-1,0,-3
1472088755891141,-3,0,-4,-3,0,1,-1,-2
1472088755898118,1,-1,-6,-1,-2,1,-1,2
1472088755898118,1,-4,-3,0,-1,-3,-1,2
1472088755914282,-3,-2,4,0,2,-1,-1,-1
1472088755914282,4,-2,-9,0,-1,-1,-1,-3
1472088755915784,-6,-3,12,-1,-3,-1,-2,-3
1472088755915784,-5,1,-1,2,-4,-2,0,-1
1472088755936414,1,-1,-8,-3,2,0,-2,1
1472088755936414,0,-2,-7,-4,-1,-1,-1,0
1472088755938420,0,2,2,1,-1,-1,0,0
1472088755938420,0,0,-8,1,0,0,-2,-2
1472088755951432,0,-2,-2,-1,-2,1,1,0
1472088755951432,-4,0,-3,0,-2,-1,2,-1
1472088755957938,2,-3,-3,-2,-2,-1,-1,0
1472088755957938,-1,2,8,-2,-1,1,-2,-2
1472088755974493,-1,-4,-20,-1,-4,-3,-4,-2
1472088755974493,-2,-3,12,0,1,-1,-1,-1
1472088755976044,-2,-1,-12,-2,-2,-2,-2,-2
1472088755976044,0,-3,-3,-4,-1,-1,-1,1
1472088755996658,-4,1,22,1,0,1,0,1
1472088755996658,-2,-4,-23,-3,-2,0,-1,0
1472088755998150,-5,-2,-2,-2,-1,0,-3,-3
1472088755998150,-2,-2,1,1,0,0,-2,-4
1472088756010773,-1,3,-7,-1,-2,-1,0,-2
1472088756010773,-3,-6,2,0,-1,-2,-3,-2
1472088756019749,0,0,1,2,0,0,1,-2
1472088756019749,0,-4,0,-3,0,-1,0,-1
1472088756034402,5,5,-2,1,0,-2,-1,1
1472088756034402,-1,-1,8,-2,-3,0,-1,0
1472088756035902,-6,-3,-2,-1,-2,0,-1,-2
1472088756035902,7,1,9,2,-5,-1,-3,-1
1472088756056553,-2,-3,-25,-5,-1,1,1,-1
1472088756056553,1,-2,22,-7,-1,-1,0,-3
1472088756058038,1,3,-1,0,-1,-2,-1,0
1472088756058038,-2,-1,-1,-2,-2,-2,-1,-2
1472088756070455,1,0,-3,3,1,-1,-1,-1
1472088756070455,-3,-3,2,3,0,-1,-2,-1
1472088756079493,0,-2,-22,-8,-2,0,1,0
1472088756079493,-1,3,11,-3,-1,-2,1,0
1472088756094539,5,-1,7,-4,-1,-2,-1,1
1472088756094539,7,7,-39,0,0,-1,1,-1
1472088756096038,-11,-7,6,-3,-3,-1,-2,-4
1472088756096038,1,0,-6,-1,0,-1,0,-1
1472088756116631,0,-3,2,-1,-1,-1,-2,0
1472088756116631,4,1,11,-1,-2,-2,-2,1
1472088756118134,-2,2,-3,0,0,1,0,0
1472088756118134,-6,-1,-6,0,-2,-1,-2,-2
1472088756130189,-4,-7,-5,1,1,-1,-1,-3
1472088756130189,-8,-6,13,3,1,0,1,-2
1472088756139204,11,8,-4,-2,-2,-1,-1,1
1472088756139204,-6,-4,12,1,0,-1,-1,0
1472088756154254,-8,5,5,0,-3,-1,0,0
1472088756154254,-5,-5,8,-3,-3,-4,-3,-3
1472088756156286,-1,-4,-12,1,1,1,1,0
1472088756156286,2,-3,2,1,0,0,-2,-2
1472088756176675,0,0,-10,-1,-2,-2,0,-2
1472088756176675,0,0,9,-1,0,2,-1,1
1472088756178589,-1,-2,-12,-3,-2,-3,-1,-1
1472088756178589,-4,-1,0,-5,-1,0,-1,-1
1472088756190397,-2,0,2,1,-1,-1,1,-1
1472088756190397,-1,3,-1,-3,-1,-1,0,0
1472088756199418,0,3,6,-1,0,-1,0,-1
1472088756199418,2,-4,-8,-2,-2,-2,-1,-3
1472088756214655,-7,-4,-4,-2,0,-1,-1,-1
1472088756214655,-3,-2,1,2,-1,-1,-1,-1
1472088756215617,-1,0,-4,2,2,-3,-2,-1
1472088756215617,2,1,3,0,0,1,2,1
1472088756236835,2,4,8,-2,-3,0,-3,-1
1472088756236835,-1,4,10,1,0,0,-1,0
1472088756238336,-4,-12,-52,-4,-3,-1,-1,-2
1472088756238336,0,0,7,4,-1,0,0,-1
1472088756250372,2,-2,-2,-2,-1,-1,-1,-1
1472088756250372,-2,0,-11,-2,-3,0,-2,1
1472088756259356,0,-2,22,-3,1,-1,-1,-2
1472088756259356,0,0,-7,0,-1,-2,-2,1
1472088756274541,-1,1,-8,-1,-1,0,0,0
1472088756274541,1,0,2,0,1,-2,1,-1
1472088756276044,1,0,16,5,-1,-1,-1,1
1472088756276044,-5,-5,-23,-3,-2,-2,-2,-1
1472088756296691,-1,0,34,-1,-1,0,2,-2
1472088756296691,-2,3,-18,-4,-2,-1,-1,-3
1472088756298172,-3,-11,11,0,-1,0,0,-2
1472088756298172,-5,-4,-3,1,-1,0,0,-1
1472088756310240,2,-12,-22,-1,-1,-3,-1,0
1472088756310240,-1,2,-5,-1,0,-2,0,1
1472088756319303,-1,1,8,-1,-2,-1,-3,-3
1472088756319303,2,1,11,-4,-2,-2,0,0
1472088756334421,0,-5,-17,0,-3,-1,-2,-2
1472088756334421,5,-1,1,-4,-2,0,0,1
1472088756335923,0,0,1,-1,-1,-1,-2,-1
1472088756335923,-1,4,13,1,2,-1,0,-3
1472088756356941,-1,-1,-20,-1,0,-1,-2,-2
1472088756356941,-5,-3,18,0,-1,-2,-3,-2
1472088756358444,1,2,3,0,-4,-1,0,2
1472088756358444,-1,-2,-3,0,-2,-1,-2,-1
1472088756370511,-4,1,-6,-1,-1,0,-1,-2
1472088756370511,0,-5,-9,0,0,1,-1,-2
1472088756379585,-1,4,8,-3,-3,0,0,-1
1472088756379585,0,1,-8,-6,0,0,1,-2
1472088756394254,3,0,-6,1,1,0,-2,2
1472088756394254,-1,0,12,-2,-2,0,-2,-3
1472088756395759,-5,-4,-12,-1,0,-1,-1,1
1472088756395759,-5,-3,12,-2,-2,-1,-1,-2
1472088756416880,-3,-1,-45,-3,-2,0,0,-1
1472088756416880,3,-7,10,3,1,-1,-2,1
1472088756418367,4,4,8,-1,-1,-1,0,0
1472088756418367,-5,1,-5,1,-1,0,-2,-1
1472088756439451,2,-2,11,-2,0,-1,-1,-2
1472088756439451,-1,-2,-30,-5,-5,-2,-1,-2
1472088756441005,-8,-6,-4,1,1,-1,-2,-1
1472088756441005,4,3,10,-3,-1,-2,-2,1
1472088756454556,-3,1,11,2,-2,0,1,1
1472088756454556,1,-2,-9,0,-1,-1,-1,0
1472088756456018,3,1,10,-3,0,-2,0,0
1472088756456018,-3,0,-10,-1,-1,-2,0,-2
1472088756476942,-2,2,21,0,-1,-1,-1,-1
1472088756476942,-2,-2,-8,-2,0,-1,1,-2
1472088756478443,-2,1,14,0,1,0,-1,-1
1472088756478443,4,-6,-48,-5,-1,-1,0,-1
1472088756499554,0,4,0,-1,0,0,0,-1
1472088756499554,-3,0,54,-2,-3,-2,-1,-3
1472088756501026,0,-3,-19,1,-1,-1,-1,-2
1472088756501026,-5,-3,6,-2,-2,-2,-3,-4
1472088756514157,1,-5,-15,0,0,-1,-2,-1
1472088756514157,-8,7,-12,1,-1,1,-1,1
1472088756515106,2,-4,1,-3,-1,-1,-2,-1
1472088756515106,3,1,7,4,0,0,1,0
1472088756537029,-1,-1,8,-5,0,0,-3,-1
1472088756537029,3,0,-16,-5,-1,0,-2,-1
1472088756538467,0,1,8,3,-2,0,0,-2
1472088756538467,-3,-4,1,-1,-2,0,-1,3
1472088756559486,3,3,6,1,-1,-1,0,-1
1472088756559486,-8,1,-5,2,-1,0,0,-2
1472088756560987,2,-2,-8,-3,0,-1,0,1
1472088756560987,-5,-1,-8,0,-2,0,-3,-6
1472088756574015,5,6,46,-2,-1,-3,0,-1
1472088756574015,1,-3,-57,-1,-2,-3,0,2
1472088756580519,-3,0,21,2,-1,-3,-1,-5
1472088756580519,0,-5,6,5,-1,-1,-1,1
1472088756596417,0,4,-33,-8,-3,0,0,-1
1472088756596417,0,-10,4,-1,-1,-2,-1,-1
1472088756598432,5,11,-2,1,0,1,0,2
1472088756598432,2,-2,-30,-3,0,-1,-1,0
1472088756619565,-11,-8,8,1,-1,-1,-1,-2
1472088756619565,1,-7,4,-3,0,0,1,0
1472088756621046,3,-4,-3,-2,-3,1,-1,2
1472088756621046,-9,5,11,-2,0,-1,-2,-1
1472088756633618,2,-4,-4,1,1,-2,-2,0
1472088756633618,-7,0,11,3,0,-1,-2,-2
1472088756640763,1,-5,-11,1,1,-1,0,-2
1472088756640763,5,1,16,-4,-1,1,0,1
1472088756656725,-3,3,15,-3,-3,-1,-2,-1
1472088756656725,-4,-1,-3,2,-2,-1,-2,-4
1472088756658226,0,-4,0,-1,-1,1,-1,-1
1472088756658226,6,0,-7,2,-2,-3,-1,4
1472088756679018,-10,-4,13,0,-2,-1,-1,0
1472088756679018,7,4,-4,-1,0,-2,1,1
1472088756681022,-14,-2,-14,-6,-1,-2,-2,-3
1472088756681022,3,-1,10,-1,0,-1,0,-2
1472088756693588,4,-7,-37,1,-1,-2,0,0
1472088756693588,6,3,36,-6,0,0,-1,-6
1472088756700763,-7,9,9,1,-1,-1,-3,-4
1472088756700763,4,-9,1,1,-2,-3,-3,2
1472088756716735,-3,-3,-4,-2,1,-2,0,-3
1472088756716735,-4,1,-7,0,-2,0,-1,0
1472088756718216,4,-4,-18,2,2,-1,0,1
1472088756718216,-6,-5,14,-5,-3,-1,0,-2
1472088756738665,6,11,6,4,-1,0,-1,0
1472088756738665,-2,-5,-1,3,0,-1,1,1
1472088756740693,-1,-5,18,0,-1,-2,-2,0
1472088756740693,-4,5,-3,0,1,-1,-1,-3
1472088756753738,-3,-6,-1,-3,-3,-2,-1,0
1472088756753738,5,6,-1,0,1,0,0,0
1472088756760711,-1,-10,-27,-7,-1,1,0,0
1472088756760711,-1,2,33,-4,-5,-3,-2,0
1472088756776660,-3,-2,-4,0,0,-1,-2,-3
1472088756776660,-1,-1,-13,0,0,-1,-2,1
1472088756778678,2,5,-4,1,-1,1,1,0
1472088756778678,-4,-15,-22,-5,2,0,0,-1
1472088756799202,-1,-5,11,-1,-1,-1,-1,-1
1472088756799202,-6,12,3,3,0,-1,-1,-1
1472088756801213,2,-6,-17,-3,-2,-2,-2,0
1472088756801213,-1,7,30,4,0,-1,0,-3
1472088756813759,-4,-11,-21,-3,-3,-2,1,1
1472088756813759,-2,-8,-10,-3,-1,-1,-1,-2
1472088756820340,-1,2,21,-2,-2,-1,-2,-1
1472088756820340,1,1,3,0,-1,-1,0,0
1472088756836933,-5,-5,7,1,1,0,0,-2
1472088756836933,-2,-16,-38,-4,-1,-1,-1,0
1472088756838439,-1,24,12,-2,-1,-1,-1,0
1472088756838439,-4,-25,-7,2,-3,0,-2,-2
1472088756859537,0,2,-14,-2,1,-1,-1,-1
1472088756859537,-2,-1,13,-2,-3,0,-1,0
1472088756860494,1,5,12,3,1,0,-1,0
1472088756860494,1,7,-2,-1,0,0,-3,-1
1472088756873562,-10,-8,-11,0,-1,-1,0,-2
1472088756873562,3,-1,4,-4,-2,0,0,0
1472088756880569,4,-5,-7,-1,1,-1,0,-1
1472088756880569,3,10,-12,-1,0,-2,-1,1
1472088756896722,1,-4,0,-2,-1,0,-2,-2
1472088756896722,0,13,2,0,0,0,-3,-1
1472088756898185,-2,-3,-4,-1,-2,-4,0,-2
1472088756898185,-1,-12,-12,-1,-1,0,0,-2
1472088756919466,3,14,11,-2,-3,0,-2,0
1472088756919466,0,-4,-8,-1,0,0,2,1
1472088756920999,-5,-8,21,-2,-5,-3,-2,-2
1472088756920999,-4,-2,-45,-3,0,0,-2,-3
1472088756933105,6,5,20,-1,-1,-2,-2,0
1472088756933105,1,9,-4,0,-1,-1,-2,-2
1472088756942204,-4,-26,-10,-3,-1,1,-1,1
1472088756942204,0,9,8,-2,-2,-1,0,0
1472088756956777,-2,-2,4,-3,-2,1,0,0
1472088756956777,3,2,-1,-3,-1,-2,-2,0
1472088756958250,-1,-3,-10,-1,-2,-1,-1,0
1472088756958250,1,-1,1,1,-1,-1,-1,-2
1472088756979396,2,1,-3,2,1,0,-2,-2
1472088756979396,-1,-6,17,0,-2,-2,-1,-1
1472088756980898,-1,3,-8,-2,0,2,-1,-3
1472088756980898,-1,1,9,-2,-2,-2,1,0
1472088756992939,0,-2,-16,-2,0,0,0,-1
1472088756992939,-2,-3,29,1,-1,-1,-1,-2
1472088757001939,-3,-14,-39,-2,-1,-3,-3,-3
1472088757001939,-3,-6,15,1,1,0,1,0
1472088757016645,1,10,2,0,0,0,0,-1
1472088757016645,-3,-9,-4,-3,-1,-1,-1,-1
1472088757018618,2,8,17,2,-1,1,1,-2
1472088757018618,1,1,-5,-2,-2,-1,-2,-1
1472088757039282,-1,-6,-14,-1,-2,-2,0,1
1472088757039282,-4,-2,5,-3,-3,-1,-3,-2
1472088757040771,0,2,7,0,0,-1,0,1
1472088757040771,-2,1,-3,-3,-2,-1,-1,-1
1472088757053303,0,2,9,1,0,-1,0,-1
1472088757053303,-1,-2,-10,1,-1,-2,-3,-2
1472088757061834,-1,5,3,-1,-2,-1,0,-1
1472088757061834,-1,-8,-25,-7,-2,-1,-2,0
1472088757077113,-2,1,16,1,-4,-1,-3,1
1472088757077113,1,-4,-13,-1,-1,-1,1,-1
1472088757078586,-3,-1,12,3,1,0,0,-1
1472088757078586,4,9,10,5,0,1,-2,-2
1472088757099369,-4,-4,3,-1,1,0,-1,2
1472088757099369,-1,-6,-45,0,-2,0,2,-1
1472088757100913,0,6,17,-2,-3,-2,-1,-1
1472088757100913,-2,3,-5,-1,-1,-2,-1,-1
1472088757121664,-7,-20,-5,-2,-3,-2,-1,-3
1472088757121664,0,11,-3,-4,1,0,-2,0
1472088757123616,-3,-10,-10,-3,-1,-2,-1,0
1472088757123616,-1,5,2,-2,1,0,0,-1
1472088757136787,0,3,-1,3,-1,-3,0,-1
1472088757136787,-2,-1,-7,0,0,0,-2,-1
1472088757138732,0,-6,4,-4,-1,-2,0,0
1472088757138732,-3,-7,7,2,-1,-2,0,-2
1472088757159298,4,-1,-39,-2,-1,-2,-2,-3
1472088757159298,-1,0,15,1,-1,0,-1,-1
1472088757161284,0,3,-3,1,2,-1,-3,-1
1472088757161284,0,-5,-8,-3,-3,0,0,0
1472088757172900,-3,1,1,0,1,-1,-1,2
1472088757172900,-2,-4,2,-2,-2,-2,-1,-2
1472088757181913,0,-2,-3,0,-2,-1,-1,1
1472088757181913,-2,8,2,2,1,-1,-1,-1
1472088757196838,1,3,3,-2,-4,-2,-1,-2
1472088757196838,-1,-5,-1,0,-1,-2,0,0
1472088757198343,-4,-3,7,-2,-2,0,1,-1
1472088757198343,-1,-1,-17,-5,-1,-2,-1,-1
1472088757219436,-3,-6,-7,2,1,0,0,0
1472088757219436,0,1,3,-5,-1,-1,0,-1
1472088757220877,-1,0,-2,0,-2,1,0,-1
1472088757220877,-1,-4,-19,-3,2,0,1,-1
1472088757233063,0,3,36,6,0,0,-2,-2
1472088757233063,-4,-7,8,-4,-2,-2,-3,-2
1472088757242217,0,-6,-8,-4,-2,-1,-2,0
1472088757242217,2,2,3,1,-1,0,0,0
1472088757256625,1,1,12,-1,0,2,-1,0
1472088757256625,3,3,9,1,0,-1,-1,1
1472088757258619,-4,-1,-16,-3,-2,-2,-2,-3
1472088757258619,1,-1,10,2,-1,-1,-1,0
1472088757279359,-1,4,-15,-2,0,-1,0,-1
1472088757279359,0,-5,-4,-2,-2,1,-1,0
1472088757280808,0,3,3,3,1,-1,-3,1
1472088757280808,-1,-4,9,-5,-1,-2,0,-2
1472088757292909,-1,-1,-14,-10,-2,0,1,0
1472088757292909,2,6,2,3,-1,-2,0,0
1472088757301993,-2,0,-2,-1,0,-1,0,0
1472088757301993,1,-1,3,2,-2,-1,-1,1
1472088757317043,-1,-3,2,-1,0,0,1,0
1472088757317043,-2,5,5,-1,-1,-1,1,-2
1472088757317540,-2,-11,-9,-1,-1,-2,0,-1
1472088757317540,-2,1,3,-2,-1,-1,-1,-1
1472088757339498,-2,-4,-7,0,1,0,-3,-1
1472088757339498,-2,-1,-1,-4,-1,0,-1,-2
1472088757341018,0,8,-18,2,-1,-2,-1,0
1472088757341018,-3,-4,-12,-1,0,1,-2,-1
1472088757353045,-3,-8,-7,-4,-1,-1,-2,-2
1472088757353045,3,1,15,5,2,2,0,0
1472088757362019,-2,-1,19,2,-2,-1,-1,-1
1472088757362019,-4,2,-5,-6,-2,-1,-1,-3
1472088757376723,0,-1,-19,-4,-1,-2,0,-1
1472088757376723,0,-7,2,0,-1,-2,-2,-3
1472088757378184,-1,3,0,-2,1,0,0,-3
1472088757378184,0,4,9,6,0,0,-1,0
1472088757398807,0,-8,-1,-1,-2,-1,-2,-3
1472088757398807,1,6,-9,-4,-2,-3,-1,1
1472088757401067,0,-4,1,1,1,-1,-2,-1
1472088757401067,1,-3,-7,0,-2,1,-2,-1
1472088757422152,-2,-4,9,-3,-1,1,-2,-1
1472088757422152,-3,-11,-15,-3,-3,-3,-3,0
1472088757423648,1,4,9,0,-1,-1,-1,-1
1472088757423648,1,3,-46,-2,-2,-2,0,0
1472088757436733,-1,7,44,2,-1,-1,1,-2
1472088757436733,-1,-9,-6,2,-2,-3,-3,1
1472088757438234,1,2,2,-6,-1,0,0,0
1472088757438234,2,-2,6,-3,-1,-1,-2,0
1472088757459279,-2,1,-24,-4,-1,-1,0,0
1472088757459279,-3,-6,8,1,2,0,-1,-1
1472088757460778,-2,-8,-19,-1,-2,-1,-3,-1
1472088757460778,-3,3,20,-3,-3,-3,-2,0
1472088757481742,0,-1,-11,3,0,-1,-2,-2
1472088757481742,-1,9,5,-8,-2,0,0,-1
1472088757483244,2,1,9,0,3,3,0,0
1472088757483244,-3,-5,11,-2,-1,-2,-2,0
1472088757496864,-2,-2,-16,-4,-1,-1,-3,-1
1472088757496864,-1,3,-8,3,-1,2,-3,-2
1472088757498312,5,0,19,2,0,-1,0,-1
1472088757498312,-4,-5,10,2,-2,-2,-1,-2
1472088757519473,1,5,1,-4,0,-1,0,-1
1472088757519473,0,8,4,2,-4,-2,0,-2
1472088757521007,-3,-15,5,-5,-3,-2,-1,-1
1472088757521007,2,2,2,1,3,0,2,0
1472088757541346,0,-1,9,1,-1,-1,0,1
1472088757541346,-5,-4,-17,-3,0,-2,-2,-2
1472088757543350,-3,6,2,2,0,-3,-3,-3
1472088757543350,1,-2,-15,-1,-1,-1,-2,0
1472088757556397,-1,-10,-20,-1,-1,0,1,-2
1472088757556397,1,1,13,1,0,0,0,0
1472088757562891,1,0,-23,-6,-2,0,-1,0
1472088757562891,3,3,-5,-4,-3,-2,-1,1
1472088757579470,-2,-4,-2,-3,-1,0,-2,0
1472088757579470,-1,1,25,3,1,0,0,-1
1472088757581015,-3,-4,-22,-2,-1,-3,-1,-3
1472088757581015,-4,-2,6,2,-2,1,3,-2
1472088757601770,1,2,-4,-6,-2,-1,-3,-1
1472088757601770,0,-4,6,0,0,0,-1,1
1472088757603711,0,-1,-49,-6,-2,0,-2,-1
1472088757603711,0,-1,15,2,1,-2,-1,-1
1472088757616283,-2,1,-15,4,1,-2,0,-3
1472088757616283,-2,-9,4,1,0,-2,-1,-2
1472088757622289,-2,5,6,-3,-2,-1,-1,-1
1472088757622289,1,-3,3,-3,-2,0,-1,-2
1472088757639731,5,5,-2,3,-1,-3,-1,1
1472088757639731,-8,-5,5,-5,-2,-2,-1,-2
1472088757640726,-3,-1,18,1,-1,-4,-1,-2
1472088757640726,-3,-6,-9,2,0,0,0,-1
1472088757661820,2,0,26,-5,0,-1,1,2
1472088757661820,1,-4,-24,-4,-4,-1,-1,-2
1472088757662791,-1,3,22,0,-2,0,1,0
1472088757662791,-3,0,-8,-1,0,-1,-2,-2
1472088757676505,-4,-7,7,1,1,-2,-1,-1
1472088757676505,-1,1,-11,-3,2,-1,1,0
1472088757682894,-1,-8,-12,0,-1,1,-1,0
1472088757682894,-3,2,15,-2,-2,-2,-1,-1
1472088757699518,-2,-2,-5,1,-1,-1,1,0
1472088757699518,3,2,5,-3,-2,-4,0,-2
1472088757701034,0,3,8,4,-1,1,-2,0
1472088757701034,1,-5,3,-1,-2,1,0,1
1472088757721711,-1,-6,-26,-5,-1,3,-1,-2
1472088757721711,-1,2,8,1,-1,0,0,-2
1472088757723206,-1,-3,-5,-2,-2,-1,0,-1
1472088757723206,-3,1,6,1,0,-2,-1,-1
1472088757736028,-1,-4,1,0,-1,-1,-1,0
1472088757736028,0,-6,-19,-3,-1,-1,-2,1
1472088757743077,1,10,1,0,-1,0,1,-1
1472088757743077,3,-4,11,0,0,-1,-2,0
1472088757759667,-3,4,-20,-4,-3,-2,-1,-1
1472088757759667,-1,-7,7,-1,0,-1,0,-1
1472088757761169,6,3,-18,-3,0,0,0,-1
1472088757761169,-2,-5,7,-1,0,0,-1,-3
1472088757781815,-2,0,9,1,-3,-3,0,0
1472088757781815,0,6,-8,0,-2,0,-3,-2
1472088757783369,-1,0,-1,-3,-1,0,0,0
1472088757783369,-1,-1,-4,-1,-1,-1,1,-1
1472088757796435,2,4,6,-1,-1,-2,-2,-1
1472088757796435,-1,-2,-15,-3,-1,-3,0,0
1472088757802955,-4,-8,20,-3,-3,-3,-2,-1
1472088757802955,0,4,-24,0,-1,-1,-3,-1
1472088757819566,0,0,23,0,0,-1,-1,-1
1472088757819566,0,1,-20,-3,-2,-1,-2,-1
1472088757821046,-1,-7,2,-2,2,1,1,-4
1472088757821046,-3,-7,-35,-5,-3,-1,0,-2
1472088757841741,-1,11,26,1,0,-2,-1,-1
1472088757841741,-2,-2,-7,-2,1,0,0,-1
1472088757843211,0,7,32,7,1,-1,-1,-1
1472088757843211,0,-8,-21,-5,-1,-1,-1,0
1472088757856082,-1,-1,-11,-4,-3,0,-2,0
1472088757856082,2,2,-5,1,0,1,1,2
1472088757863090,-2,-6,-8,0,-2,-1,0,2
1472088757863090,-2,-5,13,-1,-2,-3,-2,-3
1472088757879744,1,-4,-13,-6,-3,-1,-1,-2
1472088757879744,-7,8,22,-2,-3,0,0,-3
1472088757881289,0,0,-24,-2,-1,0,-3,-1
1472088757881289,-3,0,19,-1,0,-2,-1,-2
1472088757902016,-2,-5,-5,4,-2,0,-2,-1
1472088757902016,1,-1,16,1,-1,0,-1,0
1472088757903522,-1,-2,-12,-5,-1,-2,-1,1
1472088757903522,0,10,-1,-3,0,0,-2,0
1472088757915556,0,-10,1,4,1,-1,0,-2
1472088757915556,-1,-9,-32,-6,-2,-1,-1,-3
1472088757924733,-3,0,-8,1,-2,0,0,0
1472088757924733,1,0,-5,-2,0,0,0,0
1472088757939325,-1,0,20,3,1,0,1,-1
1472088757939325,1,-1,3,4,-1,-2,-4,-1
1472088757940827,0,-6,-13,-6,-4,-1,-2,-1
1472088757940827,-2,3,9,0,-4,1,-1,-1
1472088757961930,0,2,4,-1,0,-1,-2,-2
1472088757961930,0,-7,-41,-5,-1,-1,0,1
1472088757963497,-1,7,13,0,1,-1,-2,-2
1472088757963497,0,3,6,0,-1,-1,-1,-4
1472088757975548,-5,-5,-5,0,0,0,3,0
1472088757975548,0,-3,19,0,-1,-1,1,1
1472088757984703,-3,-1,-6,-5,-2,-2,-3,0
1472088757984703,3,-2,-29,-1,-1,-1,-1,-1
1472088757999264,-2,6,27,-3,-5,-1,-2,-4
1472088757999264,0,1,4,3,-1,-2,-2,0
1472088758001219,-8,-3,14,2,-2,0,0,-3
1472088758001219,-4,-12,-57,-5,1,0,-1,-1
1472088758021582,-1,-5,-4,-5,-2,-2,-2,-1
1472088758021582,1,2,10,3,1,1,1,0
1472088758023540,0,-1,-6,-1,0,-1,-1,-1
1472088758023540,-1,1,24,3,0,-2,-2,-1
1472088758035693,0,1,0,-1,-1,-2,-1,-2
1472088758035693,-4,-3,8,-1,-3,1,-2,-3
1472088758044792,0,0,-37,-1,-2,-2,-2,-2
1472088758044792,2,2,20,1,0,-1,0,0
1472088758059275,-2,-7,-13,-6,-3,0,-3,1
1472088758059275,-1,-1,-7,-8,-1,-1,0,-2
1472088758060778,-1,-2,24,-1,-2,1,0,-1
1472088758060778,-1,6,9,-1,0,0,-1,0
1472088758081893,-3,-5,-5,-3,-1,0,-3,-1
1472088758081893,0,-2,13,1,-3,-2,0,-1
1472088758083368,0,-4,-25,1,2,-1,1,0
1472088758083368,-1,-2,17,1,-3,-1,-1,0
1472088758095592,-2,-7,-41,-1,0,0,1,0
1472088758095592,0,0,9,-2,0,1,-1,-2
1472088758104757,1,1,-5,-1,1,0,0,-1
1472088758104757,-6,7,32,2,0,-2,1,-2
1472088758119371,1,3,-10,-1,1,-2,-1,1
1472088758119371,0,-4,-3,-1,-4,-2,-3,-2
1472088758121269,-1,-4,8,1,-1,-2,-1,1
1472088758121269,-1,-2,-12,2,-2,0,-2,1
1472088758141911,1,1,3,-5,-1,0,1,-1
1472088758141911,-1,0,-13,-3,0,-2,1,0
1472088758143444,0,0,13,0,-1,-2,-3,-2
1472088758143444,-4,-3,-9,-2,-2,-2,-1,-1
1472088758155455,1,0,4,4,-1,-1,-2,0
1472088758155455,0,-7,-5,-1,-2,-1,-1,-2
1472088758170937,1,0,9,-2,-2,-1,-1,1
1472088758170937,1,-3,17,0,-1,0,-2,-1
1472088758179397,-2,1,-42,-1,0,0,0,-1
1472088758179397,-1,6,25,0,1,-2,0,-1
1472088758180844,-3,-12,2,-1,-2,-1,-1,-1
1472088758180844,1,1,-8,-1,-1,-2,1,0
1472088758201925,2,1,16,0,-2,-1,0,-2
1472088758201925,1,-1,-19,1,0,-1,-1,1
1472088758203473,0,4,12,0,-1,-1,0,0
1472088758203473,-2,-6,3,-3,-2,-2,-2,-2
1472088758215481,-2,-2,9,0,0,-2,-2,-2
1472088758215481,-2,-1,-35,-2,1,-1,-2,-1
1472088758224647,2,6,-8,-1,-2,0,0,0
1472088758224647,-1,-10,-21,-5,-1,0,-2,-1
1472088758239313,-1,3,21,2,-1,-1,0,-2
1472088758239313,-3,-5,3,-1,-2,-1,-1,-2
1472088758240784,0,-3,-2,2,-1,-2,-2,-1
1472088758240784,0,0,6,-1,-3,-2,0,-1
1472088758261903,0,-1,5,0,-1,0,-1,0
1472088758261903,-3,-3,8,0,0,-2,0,-1
1472088758263390,1,0,-9,-2,-1,0,-1,-2
1472088758263390,-2,3,5,0,0,1,0,-1
1472088758275512,-1,-7,0,-4,-1,-3,-2,-2
1472088758275512,0,2,-1,1,-2,-1,0,0
1472088758284727,-1,-1,2,0,-2,-1,-1,0
1472088758284727,0,3,-12,-3,-2,-1,-1,-1
1472088758299217,-1,1,-11,-1,0,0,-1,0
1472088758299217,-1,1,21,2,-2,0,-2,-2
1472088758300732,-1,-4,-22,-2,0,-2,-2,-1
1472088758300732,-1,-4,18,1,1,0,-1,-1
1472088758321964,-1,2,-21,-6,-1,-1,0,0
1472088758321964,-2,3,13,-2,-3,0,-1,1
1472088758323499,-1,1,19,-1,-2,-3,1,-2
1472088758323499,0,-5,-13,-1,-2,0,-1,-2
1472088758344756,-1,-1,6,2,-2,0,0,-2
1472088758344756,3,-2,-14,-2,1,1,-1,0
1472088758346280,0,1,12,0,0,2,0,0
1472088758346280,-1,-2,-10,0,-1,-1,0,1
1472088758359315,-1,-1,4,-1,-1,0,-1,-1
1472088758359315,-3,7,4,0,-1,-2,0,-1
1472088758360776,-4,-7,3,-1,-1,-2,0,1
1472088758360776,2,9,-5,-2,-3,0,-1,1
1472088758381940,-2,1,9,3,-1,0,-3,-1
1472088758381940,2,1,-24,1,-1,0,-1,0
1472088758383476,-3,-8,2,-2,-1,-1,-1,-2
1472088758383476,-3,-2,-4,-5,1,-3,0,-1
1472088758404547,0,0,5,0,0,-2,1,2
1472088758404547,-2,-6,-2,1,-2,-1,-1,-1
1472088758406421,-1,6,4,0,-4,-4,-2,-1
1472088758406421,1,-5,2,0,1,0,-3,-4
1472088758419446,-3,2,-13,-3,-2,-3,-3,-1
1472088758419446,-2,-4,4,-1,1,-1,2,0
