timestamp,emg1,emg2,emg3,emg4,emg5,emg6,emg7,emg8
1470331386354578,-1,8,-3,0,1,-6,-8,0
1470331386354578,-5,-13,6,0,-2,1,2,0
1470331386355079,0,-8,-20,-3,1,0,0,1
1470331386355079,4,8,33,8,1,-1,1,-1
1470331386356080,0,-6,-7,-3,-3,1,1,0
1470331386356080,-1,5,-2,-2,0,-4,-5,0
1470331386357081,-3,-3,-25,-6,-2,-1,-1,0
1470331386357081,-2,-6,-5,-6,-1,0,0,-2
1470331386367590,-2,1,17,-1,-3,-1,-2,1
1470331386367590,2,3,0,4,-1,-2,0,-2
1470331386377098,-2,-1,19,4,0,1,0,-2
1470331386377098,-2,-4,-18,-6,-3,-2,-1,0
1470331386382603,0,4,1,-2,0,1,2,0
1470331386382603,0,-4,-4,-2,-1,0,0,-1
1470331386398117,-3,2,17,3,-3,-3,-1,-1
1470331386398117,0,8,3,-4,-1,0,-3,-1
1470331386406125,-2,-12,-29,-3,0,-1,0,-2
1470331386406125,-1,2,-13,-3,-1,0,-1,-1
1470331386429145,-2,6,11,5,2,4,-2,-2
1470331386429145,-1,1,-4,3,-1,-5,0,1
1470331386430647,-1,-2,-1,-6,0,2,3,-3
1470331386430647,-1,-3,-8,-2,0,-3,-5,-2
1470331386442157,-1,-3,0,-2,-3,-2,-2,-2
1470331386442157,-2,-8,-19,-6,0,1,-1,0
1470331386484195,1,1,7,3,0,-1,0,0
1470331386484195,0,-2,-25,-4,-2,0,0,-2
1470331386484695,-2,-3,-9,-5,-2,-2,-2,-1
1470331386484695,-1,5,10,-1,-3,1,0,-1
1470331386488198,1,-1,-1,1,2,-2,0,1
1470331386488198,-4,-14,-5,-1,-2,-4,0,-1
1470331386488698,-2,2,5,-4,0,-1,0,-2
1470331386488698,1,-2,-2,-3,-1,0,-2,-1
1470331386495704,-1,1,8,0,-3,-1,-1,-1
1470331386495704,-2,-1,21,8,1,-1,-2,0
1470331386502211,-4,-5,-19,-7,0,-4,-4,-1
1470331386502211,-1,-7,0,0,1,1,0,0
1470331386510217,0,0,-4,-3,-2,3,-1,-2
1470331386510217,-1,-2,-1,-9,0,-2,0,-2
1470331386524731,-2,-5,-4,4,1,-1,-3,-1
1470331386524731,-4,-6,20,2,-2,-4,-2,-1
1470331386532238,1,7,5,3,-1,0,0,-1
1470331386532238,0,-1,5,0,-3,-2,-2,-1
1470331386556259,0,-1,-30,-6,-2,1,-1,-3
1470331386556259,0,1,3,-2,0,-1,-1,-2
1470331386556760,-4,-9,-4,1,2,0,0,-1
1470331386556760,0,5,0,-5,0,1,-1,-1
1470331386570772,1,2,39,6,-1,-3,-1,0
1470331386570772,-4,-5,-39,-4,-1,-1,-1,0
1470331386571273,0,6,-6,-1,-2,-1,-1,-1
1470331386571273,-2,-16,-10,-3,-1,-2,-1,0
1470331386593292,1,4,14,1,-1,0,-1,-2
1470331386593292,3,8,19,0,-1,-1,-1,-1
1470331386593794,-1,-2,-11,-2,-2,-2,-1,-2
1470331386593794,-2,9,-18,0,-1,-3,1,0
1470331386616313,0,-4,2,-4,-1,3,-1,-1
1470331386616313,0,0,-7,0,1,1,2,-1
1470331386617314,-3,-2,11,-1,-2,0,-2,-1
1470331386617314,2,8,-27,0,0,0,-2,1
1470331386630327,-2,-3,19,5,-1,-7,-1,-1
1470331386630327,-1,2,-10,-3,-1,1,1,0
1470331386631327,1,-1,-8,-3,1,-1,-2,1
1470331386631327,-3,1,39,6,-2,-1,2,-3
1470331386652846,-2,-1,-18,-3,0,2,2,0
1470331386652846,0,1,-8,0,-2,-5,-4,-1
1470331386653848,-4,-6,3,3,-1,-1,0,-2
1470331386653848,0,-7,1,-6,-2,-1,-3,0
1470331386676367,1,4,4,7,-1,1,-1,-2
1470331386676367,0,1,10,-2,1,-2,0,-1
1470331386676868,-1,-5,-13,-6,-2,-1,-2,-2
1470331386676868,0,4,7,-2,0,-1,-1,-1
1470331386698887,0,-2,-23,-2,-2,0,0,0
1470331386698887,-1,-11,-6,-2,0,-4,1,0
1470331386699388,-3,9,20,3,-1,-1,-2,-3
1470331386699388,2,12,12,0,0,0,-1,0
1470331386712900,-2,1,-16,-5,-2,-1,-1,-2
1470331386712900,-2,-17,-3,3,-2,-1,3,-3
1470331386713901,-4,-7,-3,-7,-1,-4,-6,-3
1470331386713901,1,-8,-12,-1,-2,0,0,0
1470331386736422,-1,3,18,-1,0,2,0,1
1470331386736422,0,4,-22,0,0,-3,-5,-2
1470331386736921,-2,-3,5,-3,-1,-1,3,0
1470331386736921,-2,-5,-3,-3,-2,2,-3,-2
1470331386750434,1,4,13,9,0,-2,-1,0
1470331386750434,0,1,-7,4,-3,-1,0,-1
1470331386751435,-2,-11,-24,-20,-5,-2,-2,-2
1470331386751435,0,8,20,4,0,0,0,0
1470331386772954,-1,-10,-37,-9,1,-4,-1,-2
1470331386772954,-2,10,16,4,-1,5,-1,-3
1470331386773955,2,-2,5,5,-2,-3,0,1
1470331386773955,0,1,-3,-4,-1,2,1,-2
1470331386795975,-4,-4,13,-1,-1,0,-1,0
1470331386795975,-2,-8,-6,-2,0,-3,-2,-1
1470331386796975,-1,5,-12,2,1,0,-1,1
1470331386796975,-1,-5,3,-2,-1,-2,-2,0
1470331386810987,-2,5,54,5,1,-1,0,0
1470331386810987,-4,-13,-18,-11,-4,-2,-1,-2
1470331386811488,2,9,42,12,0,1,-4,0
1470331386811488,-1,-3,-12,0,-1,-3,-2,0
1470331386833008,-1,2,7,-5,-3,1,1,-1
1470331386833008,0,1,-19,-4,1,-3,-1,1
1470331386834008,-3,-4,-2,2,-2,-2,-1,-1
1470331386834008,-3,-5,-3,1,-1,-2,1,-2
1470331386856028,-1,5,-31,-4,-3,0,-1,-1
1470331386856028,-1,-4,18,1,-2,-1,1,-1
1470331386857029,0,1,-4,-1,-1,-2,-1,-1
1470331386857029,-1,-2,-7,1,0,-3,-3,-2
1470331386870042,-1,-9,4,-6,-2,-3,-1,1
1470331386870042,-2,0,-13,-6,-1,0,-4,-2
1470331386878048,1,0,4,0,0,1,-1,-1
1470331386878048,-3,-4,-20,-4,-2,-3,-2,1
1470331386893061,3,4,-14,1,-3,1,1,-3
1470331386893061,2,18,44,3,-2,-1,-2,0
1470331386894063,1,-11,-6,-3,-2,0,0,0
1470331386894063,-2,-2,-8,-5,-1,-1,-3,-3
1470331386916083,0,-4,12,2,0,-2,-2,0
1470331386916083,-2,1,-30,-2,-1,-1,-3,-1
1470331386917083,2,-4,-10,1,-2,0,1,-1
1470331386917083,-1,0,32,-9,-3,1,-2,-4
1470331386930095,-3,0,1,-5,-2,-3,-3,-3
1470331386930095,-1,0,17,1,-3,-1,1,0
1470331386938102,0,3,5,-2,0,0,-2,0
1470331386938102,1,-1,-2,5,-1,0,-2,0
1470331386953116,-3,-8,-15,-2,-1,0,0,-1
1470331386953116,3,1,7,-2,0,-2,0,0
1470331386953616,0,1,-11,-1,0,2,0,-1
1470331386953616,-3,-11,-16,0,1,-2,-1,-3
1470331386976136,0,5,9,4,-2,-3,-2,-1
1470331386976136,-2,-11,-29,-15,0,-3,-3,1
1470331386977137,-2,4,23,6,0,-1,0,-1
1470331386977137,0,0,-7,-2,0,3,2,2
1470331386989649,-1,-4,12,1,-2,-5,-4,-3
1470331386989649,-2,-4,-33,-3,-1,-1,-1,-1
1470331386998158,-4,1,4,-2,-1,-2,-2,-2
1470331386998158,-1,-3,-2,-1,-1,-1,1,-2
1470331387013169,3,6,-2,2,0,1,-1,1
1470331387013169,0,-8,26,0,-3,-3,-2,0
1470331387013670,-1,-3,-6,-1,1,-2,-1,-1
1470331387013670,-2,-1,-10,-3,-4,1,2,-1
1470331387036190,-1,-1,-3,-6,0,-5,0,-1
1470331387036190,-2,0,8,1,1,0,-3,-2
1470331387036691,-2,-5,-15,2,1,-1,2,0
1470331387036691,-3,5,34,3,0,0,-6,1
1470331387050202,2,5,-28,-7,-1,1,2,1
1470331387050202,-1,-1,-8,1,-2,2,1,-2
1470331387058211,-2,-2,-4,2,-2,-1,1,-2
1470331387058211,-2,-5,-15,-6,0,-4,0,-2
1470331387073223,-3,-1,-4,-6,-4,-2,-5,-1
1470331387073223,0,-4,27,10,3,3,-1,0
1470331387073725,0,-3,-33,-8,-4,1,-4,1
1470331387073725,1,0,-4,-3,-3,-1,-1,-1
1470331387095243,-2,-6,2,4,0,-1,-1,-2
1470331387095243,3,8,18,2,0,-1,-1,0
1470331387103250,-3,-11,-46,-11,-1,-3,-1,-2
1470331387103250,-3,3,23,7,0,-3,-1,-1
1470331387109756,-1,-9,-15,-3,-1,3,1,0
1470331387109756,2,22,3,-1,-2,-1,0,-3
1470331387118264,-4,-18,-6,0,0,-2,-2,-1
1470331387118264,0,0,7,5,1,-3,0,-1
1470331387132787,-1,-3,-12,-6,-3,-1,2,-1
1470331387132787,0,0,-15,-2,1,-1,-2,-2
1470331387133788,-1,4,2,-3,0,0,-2,-1
1470331387133788,3,3,5,-1,-1,0,4,0
1470331387156309,-1,-4,11,5,-1,-1,-6,1
1470331387156309,-1,-4,31,-2,-3,-2,0,-2
1470331387156809,1,5,19,-1,-1,-3,-3,-1
1470331387156809,1,-4,-17,-3,-1,-2,0,-1
1470331387178828,1,3,2,1,0,0,1,1
1470331387178828,-3,-1,-5,-3,-1,-1,-2,-1
1470331387179330,1,-1,1,-1,-1,3,0,-1
1470331387179330,-2,5,9,0,0,2,-1,-1
1470331387192841,-3,-5,19,5,1,-2,-2,-2
1470331387192841,0,-4,-37,-10,-2,-1,-4,0
1470331387193843,1,7,17,1,-1,-1,4,-1
1470331387193843,1,-6,-16,-1,1,3,-1,-1
1470331387216363,-2,-3,-6,-4,-1,-1,-3,-3
1470331387216363,-4,-3,-3,2,-1,-2,-1,-1
1470331387216864,0,-1,1,0,-2,-2,-3,0
1470331387216864,0,-9,-15,1,-2,0,-1,-1
1470331387229874,2,17,34,3,-3,-2,-2,-2
1470331387229874,0,-3,-5,-1,0,0,0,-2
1470331387237881,0,11,26,2,0,-1,-1,0
1470331387237881,-4,3,-5,-2,-2,-3,-1,0
1470331387252895,-3,-17,-24,-10,0,-1,0,-2
1470331387252895,-3,1,26,3,-1,0,0,-1
1470331387253897,-2,-5,-49,-8,-3,-1,-2,0
1470331387253897,0,5,10,0,-2,-3,-1,-3
1470331387276416,1,10,30,4,0,0,1,0
1470331387276416,-3,-24,-25,-3,-4,0,-4,-2
1470331387276917,-1,1,0,1,-2,-2,-2,-2
1470331387276917,1,1,-3,0,0,-2,-3,-1
1470331387298937,-2,1,-17,-8,-1,0,0,-2
1470331387298937,-2,-12,7,3,-1,0,4,-1
1470331387299437,1,-1,14,3,-1,0,1,-1
1470331387299437,0,-2,-10,-2,0,-3,-5,-1
1470331387312949,1,0,-1,2,-1,4,-2,-1
1470331387312949,-1,3,-7,-1,-2,-3,0,-1
1470331387313951,-2,6,42,3,1,-1,-1,0
1470331387313951,-5,-13,-67,-12,-4,-1,-1,-3
1470331387336471,-1,-7,0,-1,-1,-3,-3,-3
1470331387336471,-3,1,-7,-5,-1,-2,-2,0
1470331387336971,0,3,9,3,2,-1,0,-1
1470331387336971,0,2,25,3,0,0,-1,0
1470331387358490,-4,-7,-1,-4,-2,-2,-1,-1
1470331387358490,0,4,-19,-9,-5,-2,-1,1
1470331387359491,-3,-8,23,2,0,-2,1,-2
1470331387359491,1,5,27,6,0,0,-1,0
1470331387373003,-1,-3,-25,1,0,0,2,-1
1470331387373003,0,2,3,-1,0,-2,0,0
1470331387374004,-2,0,-11,-2,-2,-2,-2,0
1470331387374004,-1,-7,9,-3,-2,-1,2,-1
1470331387396023,-3,0,6,3,-1,-2,-4,-2
1470331387396023,-1,13,19,3,-1,-3,-2,-4
1470331387397025,-2,-16,-12,-2,-2,-1,-3,-1
1470331387397025,1,0,-12,-4,-3,-2,-1,-1
1470331387418544,-2,1,4,-1,-1,-1,1,-1
1470331387418544,-2,2,13,4,-1,-1,-4,1
1470331387420045,0,-1,-22,-11,-1,0,1,-3
1470331387420045,-5,-9,27,-2,-1,-2,-3,-3
1470331387432056,2,2,18,3,-1,-2,-3,0
1470331387432056,-1,-9,-13,0,1,1,0,-1
1470331387441064,0,6,2,-3,-3,-2,0,3
1470331387441064,-2,-3,-11,-4,-2,-1,-3,1
1470331387455077,-3,-3,-8,-3,0,0,-1,-3
1470331387455077,0,-3,7,5,0,-1,-2,-3
1470331387464085,2,0,-28,-5,0,3,-2,2
1470331387464085,-1,0,14,-1,-2,-4,0,-3
1470331387478598,-1,4,16,2,-3,1,1,0
1470331387478598,1,-4,-30,-5,-2,0,0,-1
1470331387480100,-3,-1,1,1,-2,-2,-3,-3
1470331387480100,0,2,-8,-1,0,2,-2,-1
1470331387501119,2,0,0,2,0,0,-2,0
1470331387501119,1,0,-8,-4,-1,-2,2,0
1470331387503119,-1,1,8,1,0,0,1,-1
1470331387503119,-1,-1,0,5,-2,-2,-2,0
1470331387515130,0,-6,-17,-4,-1,-3,-6,0
1470331387515130,1,8,1,-1,0,-1,0,0
1470331387524138,-1,6,10,-1,-2,-2,-1,0
1470331387524138,-1,-8,-14,0,0,-2,3,-1
1470331387538651,-1,-6,-14,-9,-1,0,1,-2
1470331387538651,-2,-1,21,4,-2,-2,-3,-1
1470331387540153,-2,2,-20,-5,0,1,1,-3
1470331387540153,0,0,3,4,0,0,-1,-1
1470331387561172,-1,-1,-8,-7,-1,-1,0,3
1470331387561172,-3,-5,-11,-4,-2,-1,-1,1
1470331387562673,2,2,24,-5,-3,-3,-3,-3
1470331387562673,1,6,5,6,0,0,-3,0
1470331387575185,-2,-5,-16,-4,-1,-2,0,-1
1470331387575185,2,6,2,0,0,1,0,0
1470331387584193,-3,-14,-11,-1,0,-2,-1,0
1470331387584193,0,10,10,-5,0,-2,0,0
1470331387598707,1,-5,-19,2,0,-2,0,-1
1470331387598707,0,-5,-6,-2,-1,-1,-1,0
1470331387600207,-3,-5,5,1,-3,-2,-2,-1
1470331387600207,1,3,9,-3,-1,-2,-3,0
1470331387620726,-4,-2,3,2,0,1,3,-2
1470331387620726,1,-2,11,1,-2,-3,-6,-2
1470331387627232,1,-2,-5,3,0,0,-6,-1
1470331387627232,0,2,4,-2,-3,0,2,0
1470331387635238,-3,-8,-27,-1,-1,-2,-3,1
1470331387635238,0,-2,21,3,1,-1,2,-3
1470331387644747,-1,-8,-22,-9,-1,-1,0,-2
1470331387644747,-3,5,19,-2,-3,0,-4,-2
1470331387658760,2,4,1,-1,0,0,0,0
1470331387658760,-4,-2,2,0,0,0,2,-1
1470331387660261,0,3,1,4,-1,-4,-1,-1
1470331387660261,-2,-5,-21,0,2,-1,0,-2
1470331387681280,0,2,0,0,0,-1,-1,-2
1470331387681280,-2,0,8,-1,0,0,-1,-3
1470331387682782,-2,-1,2,1,1,0,1,-3
1470331387682782,-3,-8,-27,-9,-4,-1,-1,-1
1470331387694792,0,5,29,4,-2,-2,-4,0
1470331387694792,0,0,-14,-3,-1,0,-2,3
1470331387703812,-1,-4,-29,-1,1,0,1,-2
1470331387703812,1,3,25,-5,0,-2,0,-2
1470331387718813,-1,5,14,11,-3,-1,1,-2
1470331387718813,-2,-8,-10,-6,-1,0,-1,1
1470331387720315,2,6,16,3,0,-2,-1,1
1470331387720315,-1,3,7,3,1,0,1,0
1470331387741335,-1,-5,-34,-6,0,-1,0,-3
1470331387741335,-2,-8,7,-11,-3,-2,-2,0
1470331387742835,0,4,0,4,-2,0,1,0
1470331387742835,-1,-6,-4,-3,-2,-4,-5,-1
1470331387754846,-2,2,7,-3,-2,-1,-2,-2
1470331387754846,0,-2,-20,4,1,0,0,-2
1470331387763854,1,0,21,-1,-1,-2,-2,0
1470331387763854,0,-5,-14,0,-2,3,2,-2
1470331387777867,-3,-4,0,-5,-2,-4,-4,-1
1470331387777867,-3,-5,-8,-3,-1,-2,-2,-3
1470331387786374,0,-1,5,-6,-4,-4,-3,-1
1470331387786374,-2,0,5,5,-1,0,1,-2
1470331387801388,-2,1,6,-3,2,1,-1,0
1470331387801388,-3,-10,12,0,-3,-2,-1,-2
1470331387802889,-1,3,-7,0,-1,1,-1,-2
1470331387802889,-3,-7,11,-1,-1,-4,0,-2
1470331387823908,1,-1,-4,0,0,2,1,-1
1470331387823908,-1,-1,3,0,-2,-2,-1,-3
1470331387825410,2,12,10,3,-1,-1,-1,0
1470331387825410,-5,-25,-43,-6,-4,-1,1,-1
1470331387838922,-1,2,45,6,2,-1,-1,0
1470331387838922,1,6,-40,-6,-4,-2,-1,-2
1470331387840422,0,-3,8,1,2,0,-2,1
1470331387840422,-1,0,-7,-3,0,-1,0,0
1470331387860942,-1,3,42,2,-3,2,2,1
1470331387860942,1,1,-6,6,0,-2,-2,-2
1470331387862943,-4,-15,-51,-12,-4,-1,-2,-2
1470331387862943,1,11,15,6,1,0,-2,0
1470331387890984,-2,-6,10,4,1,-5,-1,0
1470331387890984,0,-2,-54,-7,-1,-1,-2,1
1470331387892973,0,3,14,0,-3,-2,5,-2
1470331387892973,-1,3,15,3,1,0,-8,1
1470331387898475,-4,-10,-74,-11,-2,-4,0,-1
1470331387898475,-3,-3,-3,-7,-3,0,0,-2
1470331387900478,-1,-4,2,0,0,0,1,0
1470331387900478,0,-2,-7,1,-3,-4,-2,1
1470331387921495,1,7,1,-5,-2,4,2,-2
1470331387921495,0,1,31,6,-1,-5,0,1
1470331387923030,-1,1,-2,0,0,0,-1,-2
1470331387923030,3,12,18,-2,0,-1,-2,0
1470331387943538,-2,-11,-37,-5,-3,-5,-5,-2
1470331387943538,-1,3,-21,1,-1,1,0,-2
1470331387945016,-3,-11,10,-2,0,1,-3,-2
1470331387945016,-1,-1,-1,3,2,1,1,0
1470331387958030,2,6,22,-2,-3,-2,-2,2
1470331387958030,-4,-7,11,-1,-1,0,-1,-1
1470331387972540,0,4,-3,5,1,-1,-2,-2
1470331387972540,1,-3,-41,-1,-2,0,5,-1
1470331387981566,-3,-8,10,-2,-2,-5,-6,-3
1470331387981566,-1,4,20,-1,-1,2,-2,1
1470331387983110,-3,-2,-9,-4,-4,-3,-2,0
1470331387983110,-5,-8,-12,-4,-2,-2,-4,-2
1470331388003597,2,6,-12,1,-2,1,3,-2
1470331388003597,0,0,16,5,0,-1,0,0
1470331388005575,-1,0,9,0,1,-1,0,1
1470331388005575,0,0,-2,-10,-2,0,0,-2
1470331388018085,-2,-8,-9,3,-1,0,-3,-3
1470331388018085,2,12,5,-7,-2,-3,-2,-2
1470331388024588,-2,-3,-15,0,-2,1,0,0
1470331388024588,-1,2,31,-1,-1,-1,-2,-1
1470331388041102,0,-2,22,0,-1,-2,-3,0
1470331388041102,0,-5,-6,3,-1,1,0,-1
1470331388042605,1,3,13,1,0,-2,0,-1
1470331388042605,-4,-10,-35,-3,-3,-4,-5,-2
1470331388063629,-3,10,-2,-6,-1,0,0,-2
1470331388063629,1,4,31,2,0,-2,-1,0
1470331388065125,-2,-2,-20,2,-2,-2,0,-1
1470331388065125,-2,-3,-13,-3,-1,2,-2,-2
1470331388078640,-3,-21,-5,-4,1,-1,-2,-2
1470331388078640,-1,-2,-6,0,-1,-1,0,2
1470331388085156,-1,-1,1,-7,-3,-1,-1,-1
1470331388085156,-2,3,8,0,-1,-3,3,-1
1470331388101158,0,-3,19,2,0,-1,-5,-2
1470331388101158,-3,-7,-49,-6,-2,-2,-1,-2
1470331388102658,0,1,12,-1,-1,-1,-2,1
1470331388102658,1,5,25,3,-1,0,0,0
1470331388122682,0,-1,-2,5,2,2,0,-1
1470331388122682,0,4,13,-2,0,-2,-1,0
1470331388131184,-4,-8,-4,-1,0,-2,-1,-2
1470331388131184,-1,-5,-10,-2,-2,-1,-1,-2
1470331388138251,-1,9,3,5,0,-2,0,0
1470331388138251,-2,-2,5,-7,-2,2,-1,0
1470331388145198,0,-1,-3,2,2,0,-2,-1
1470331388145198,1,-2,17,1,-1,0,0,-2
1470331388161253,0,7,15,3,-1,-1,-1,-2
1470331388161253,-2,-14,-49,-9,0,-3,-2,-2
1470331388162711,-2,2,35,2,-3,0,-6,-2
1470331388162711,0,6,-2,0,1,-1,0,-1
1470331388183730,-2,-6,-22,-12,-4,-2,-2,-1
1470331388183730,0,0,20,4,-1,0,0,-2
1470331388185232,-3,-8,-30,-7,-2,-2,0,-1
1470331388185232,0,6,8,3,1,0,-2,0
1470331388198796,-3,-17,-30,-9,-2,-1,0,-2
1470331388198796,0,11,2,3,-2,-3,-4,-3
1470331388204751,1,-1,-20,-3,-1,0,-2,0
1470331388204751,-1,0,11,0,0,0,1,0
1470331388221265,0,7,11,4,0,1,-1,1
1470331388221265,-1,0,0,-2,0,-1,-1,-1
1470331388222766,0,2,12,-1,-1,0,-1,-2
1470331388222766,-1,-3,-12,-4,-1,-1,-1,0
1470331388243784,0,6,19,10,-1,-3,-2,0
1470331388243784,-1,-8,-5,-2,-1,1,-1,-2
1470331388245286,-2,-1,8,-4,-1,-1,1,-1
1470331388245286,0,-1,-9,-4,-1,-1,-3,-2
1470331388258298,-2,-7,-12,-2,-1,1,0,2
1470331388258298,-2,-1,-2,0,-1,-1,5,-1
1470331388264803,-1,-3,15,3,0,0,-3,-1
1470331388264803,0,1,-1,-9,-2,-4,-2,-1
1470331388281319,1,1,4,1,-2,-1,-1,-5
1470331388281319,-2,-4,-13,-2,-3,-2,-1,0
1470331388287324,1,0,10,2,0,-2,1,-2
1470331388287324,-2,-5,-1,-1,-2,1,0,-2
1470331388303839,0,3,-11,-2,-2,-2,-3,0
1470331388303839,0,-2,20,3,2,0,0,-1
1470331388305341,-2,-2,-19,-3,0,0,-1,-2
1470331388305341,1,4,-8,4,-1,-2,-2,-1
1470331388317351,-1,0,-21,-14,-4,0,0,2
1470331388317351,-2,-6,9,0,-2,-1,-3,-2
1470331388326359,2,9,0,2,-1,1,-3,0
1470331388326359,-2,-13,-21,1,0,-2,1,-1
1470331388341372,-1,3,-17,-3,-1,2,0,1
1470331388341372,-1,-3,7,-1,1,-2,-4,0
1470331388342873,1,8,7,-1,-5,-1,1,-2
1470331388342873,0,5,10,3,-2,-1,1,-1
1470331388371399,-4,-12,16,-1,1,-3,-2,-2
1470331388371399,2,4,-20,-4,-1,3,1,0
1470331388372901,-3,-16,-17,-4,0,-1,-4,-2
1470331388372901,-1,-2,-10,-3,-2,-1,-6,-3
1470331388377405,0,0,21,9,1,0,2,-2
1470331388377405,-1,4,8,1,1,0,-1,-1
1470331388386413,0,-3,-5,-2,-2,-3,0,0
1470331388386413,-4,-10,-22,-3,-1,1,1,1
1470331388400926,0,0,-9,0,-1,2,-1,-2
1470331388400926,-1,-1,-7,-6,-2,-1,-1,-3
1470331388402927,-2,-3,-7,-5,-3,-1,-1,0
1470331388402927,-1,1,14,1,0,-2,-1,-1
1470331388423447,0,4,4,-2,0,-3,-3,-1
1470331388423447,-4,2,11,1,-2,-3,2,-1
1470331388425452,-2,-9,-48,-4,-3,-2,-4,-3
1470331388425452,1,-2,6,-1,2,0,-1,0
1470331388437459,-4,11,-7,-5,-2,-2,1,-3
1470331388437459,-2,-12,9,1,0,1,-1,1
1470331388446467,-2,5,-14,-1,-1,-2,1,0
1470331388446467,-2,-5,14,2,-2,-2,-1,-2
1470331388460979,0,-7,-4,-2,-2,-2,3,0
1470331388460979,0,1,2,1,0,1,-1,0
1470331388462983,1,3,15,-1,0,-2,0,-1
1470331388462983,-2,-3,-22,-3,-1,2,-2,0
1470331388483534,-1,-6,6,0,-1,0,-1,-2
1470331388483534,-1,8,24,4,0,-1,-1,1
1470331388485502,-2,-11,-5,-7,0,0,0,-1
1470331388485502,0,6,19,0,0,-2,0,-4
1470331388497513,0,-1,-18,-6,-5,-2,-3,-2
1470331388497513,-1,-3,13,5,-1,-4,-6,-1
1470331388506523,1,17,22,4,1,-1,-2,2
1470331388506523,-5,-15,-56,-15,-6,-2,0,-2
1470331388521538,-3,-10,3,-1,0,-1,-2,0
1470331388521538,0,1,-3,1,-1,-1,0,0
1470331388523045,0,0,11,-6,-2,-1,-2,-1
1470331388523045,-5,-3,1,4,1,-2,-1,-2
1470331388543585,0,6,11,0,-2,-2,-1,-2
1470331388543585,-1,1,1,1,1,1,-2,-2
1470331388545075,-3,-13,-10,2,1,0,1,0
1470331388545075,1,7,14,-5,-2,-1,-2,0
1470331388557567,-2,-6,-19,-1,1,3,0,-1
1470331388557567,0,3,-12,-4,-3,-3,-3,-3
1470331388566576,-1,1,10,2,-2,-3,-2,0
1470331388566576,0,6,10,-1,1,0,1,-2
1470331388581088,1,-8,4,2,1,0,3,0
1470331388581088,-1,0,-1,-5,-2,-2,0,0
1470331388583090,-2,-6,-20,-4,-1,-1,-2,-2
1470331388583090,0,1,16,1,0,-2,-3,-1
1470331388603631,-3,4,2,-1,-2,-3,-2,-1
1470331388603631,0,-2,-7,-3,-1,1,2,-2
1470331388605111,-1,-2,13,5,-1,1,-4,-1
1470331388605111,-1,4,-8,0,0,-3,-4,-2
1470331388617633,2,0,-17,-4,-2,1,0,-1
1470331388617633,-2,-3,10,-2,-1,0,0,-2
1470331388626128,-1,-2,-14,0,0,0,3,0
1470331388626128,0,3,18,8,-1,1,-1,1
1470331388641142,-2,3,9,0,-1,-4,-2,-3
1470331388641142,-2,-5,-19,-3,-2,-2,0,-2
1470331388643211,1,1,11,2,0,0,1,-3
1470331388643211,-1,-10,-6,-4,-2,-1,0,-1
1470331388663665,2,9,7,7,2,2,-1,-1
1470331388663665,-4,-6,-26,-8,-4,1,-1,0
1470331388665163,-4,-3,13,-2,0,-3,1,-1
1470331388665163,0,-2,-6,1,0,1,-3,0
1470331388677676,-1,-1,1,-4,1,-1,-2,2
1470331388677676,-1,0,13,4,-2,-3,0,-2
1470331388686183,0,0,-9,-2,-2,1,-1,2
1470331388686183,-2,-1,-2,1,-1,-2,0,-3
1470331388701240,-1,-2,-5,-4,-1,-1,1,1
1470331388701240,0,-4,10,5,0,1,-1,-1
1470331388703198,0,-2,-18,2,-1,-2,-1,-1
1470331388703198,1,2,23,-8,-3,-3,-2,-2
1470331388723744,-3,-13,-10,-4,-2,-1,-1,-3
1470331388723744,1,2,-11,-6,-1,-2,-3,0
1470331388725217,-1,1,37,11,-1,-3,-3,-2
1470331388725217,0,0,-34,-5,1,1,1,2
1470331388746236,-3,0,20,-2,-3,-3,1,-2
1470331388746236,-1,-2,-19,-3,-1,-1,-3,0
1470331388762250,-1,-3,-10,-11,-4,0,1,-1
1470331388762250,0,3,14,2,-1,2,-1,-1
1470331388762750,-1,4,4,3,0,-2,-7,1
1470331388762750,0,6,17,6,2,-1,1,-1
1470331388764252,-2,-11,-19,-9,-2,-1,-4,-2
1470331388764252,-1,3,6,7,0,-1,1,-1
1470331388783799,-1,-3,-27,-6,-1,-4,-1,-1
1470331388783799,-3,-3,12,-3,-4,-2,-2,-2
1470331388785271,-2,-4,0,1,0,3,0,-3
1470331388785271,-2,-4,-12,-1,1,-2,-3,-3
1470331388806290,3,5,26,8,1,0,-1,0
1470331388806290,0,0,-23,-5,0,0,-1,1
1470331388807793,-1,3,14,-2,0,-1,0,-1
1470331388807793,-2,-5,0,-4,-4,1,-1,-2
1470331388821308,-2,2,-1,0,0,-3,0,-1
1470331388821308,-3,-2,-3,4,-1,-1,0,-2
1470331388822804,0,3,-14,-3,-1,-1,1,1
1470331388822804,-1,5,2,-4,-3,-3,-4,-1
1470331388843824,-4,-5,3,1,1,0,-2,-3
1470331388843824,2,-4,0,-1,0,-1,-1,0
1470331388845325,-2,2,-8,2,-1,-5,-2,-2
1470331388845325,-1,-7,-1,-1,-2,2,1,0
1470331388882859,-1,1,-16,-6,-3,-1,-3,-1
1470331388882859,-2,2,9,-2,-2,-2,-1,-1
1470331388884360,-1,0,10,-3,-3,-1,-3,-2
1470331388884360,-3,-3,-18,0,1,-2,2,-1
1470331388884863,1,8,26,5,0,0,0,0
1470331388884863,0,-7,-23,0,0,0,-2,1
1470331388888864,1,1,16,5,0,-2,-1,1
1470331388888864,-1,-2,-9,-4,-3,-1,-1,-1
1470331388903877,-2,-5,-6,-7,-4,0,1,0
1470331388903877,-3,-4,10,-5,-2,-2,1,-3
1470331388909886,2,1,-14,3,-1,0,0,1
1470331388909886,-1,0,17,1,1,0,-1,-2
1470331388926398,-1,0,-13,-2,-1,0,1,-1
1470331388926398,0,2,11,3,0,-2,-2,-2
1470331388927899,-1,-2,-31,-17,-2,1,0,-2
1470331388927899,2,5,6,3,-2,-3,-1,0
1470331388940410,0,-3,-5,1,1,-1,-1,1
1470331388940410,1,0,4,-1,-1,0,-1,-1
1470331388947484,-3,-2,-15,4,1,0,-2,-1
1470331388947484,-1,2,17,-3,-2,0,1,-2
1470331388963431,-4,-10,-11,-1,-1,-1,3,-1
1470331388963431,-1,-5,4,-2,0,-1,-4,-1
1470331388969942,-1,-3,2,1,1,0,-2,-1
1470331388969942,-2,-4,2,-2,-1,-2,-1,-1
1470331388985951,1,1,-13,0,1,-2,-2,-1
1470331388985951,-2,1,14,-4,-4,3,3,0
1470331389000966,-1,-2,-4,2,-2,-3,-4,-2
1470331389000966,-1,3,-4,7,0,0,2,3
1470331389001965,1,-4,-12,-11,-3,-3,-1,1
1470331389001965,-4,-8,2,2,0,-2,-5,-4
1470331389007490,-1,1,-13,-7,-1,0,2,-2
1470331389007490,-2,-7,-30,-2,-1,1,0,-2
1470331389023485,0,2,1,2,-1,1,-4,-3
1470331389023485,-1,-4,1,-5,-1,0,3,1
1470331389025486,2,4,19,2,-1,-1,-1,1
1470331389025486,-1,-4,8,-1,0,-2,-2,-2
1470331389046005,0,4,-8,-2,-3,-1,0,1
1470331389046005,0,-6,-5,2,0,0,-1,-2
1470331389048061,-2,-3,11,-2,-4,-2,-1,-2
1470331389048061,-1,-2,3,-1,-1,1,-1,-2
1470331389060520,0,-7,-11,-6,-2,0,-1,-3
1470331389060520,0,17,47,0,-2,-4,-3,-1
1470331389067053,-3,-5,-48,-2,0,-2,-2,-1
1470331389067053,-2,-2,20,-3,-2,1,0,0
1470331389084041,-3,1,-5,6,-1,-1,-2,0
1470331389084041,-2,-11,-25,-3,-2,-1,-1,0
1470331389085542,0,-1,16,1,0,0,0,-1
1470331389085542,1,3,-15,-4,-2,-2,1,-1
1470331389106059,-3,-9,15,2,-1,0,-6,-4
1470331389106059,1,5,1,0,-2,-1,0,1
1470331389108062,-2,-3,-25,-4,-1,2,-2,0
1470331389108062,0,-6,-2,-6,-2,-2,-3,-1
1470331389120572,-1,6,5,2,0,-3,1,-4
1470331389120572,0,3,-7,3,0,0,0,0
1470331389127078,-3,-4,20,0,-3,-5,-3,-1
1470331389127078,0,4,22,1,0,4,4,0
1470331389143593,1,-8,-56,-8,-2,0,1,1
1470331389143593,-1,6,33,4,-2,-1,-3,-3
1470331389145616,-1,-6,-28,-3,-2,-2,0,-2
1470331389145616,-6,-9,22,-4,-5,-5,-5,-4
1470331389166114,1,5,28,5,-1,0,-1,-1
1470331389166114,1,-7,-30,-6,0,0,-1,-2
1470331389168117,0,3,2,1,0,2,1,1
1470331389168117,-1,6,13,4,1,-2,-3,0
1470331389180627,-1,-9,-18,-6,-1,0,0,-1
1470331389180627,0,11,-11,-1,0,0,1,1
1470331389187633,-2,-11,25,1,-1,-3,-1,-2
1470331389187633,1,-5,-7,-1,-1,-2,-2,-1
1470331389203647,2,-1,4,0,-2,-2,1,-1
1470331389203647,-2,-2,-11,-2,0,-2,1,0
1470331389205651,1,7,21,-1,-2,0,-3,1
1470331389205651,0,3,-15,-3,-3,0,-2,0
1470331389226190,0,-2,-7,-3,-2,0,-1,-2
1470331389226190,-1,-8,25,-1,-4,-2,-1,-2
1470331389228173,-1,12,21,8,1,1,4,-1
1470331389228173,1,0,-21,-9,-3,-3,-2,-1
1470331389240179,-1,-2,6,0,1,-2,-2,0
1470331389240179,0,-1,-1,-1,-2,0,-2,-3
1470331389248688,-2,-6,2,1,-1,0,-1,-3
1470331389248688,-2,3,5,-1,1,0,0,-2
1470331389263701,-2,2,11,-2,-2,-3,-2,1
1470331389263701,-3,-7,-29,-6,-2,0,3,0
1470331389265203,-2,2,29,4,-1,-1,-3,-3
1470331389265203,2,2,9,5,2,1,-1,-1
1470331389286221,-2,-5,1,-4,-3,0,-3,-3
1470331389286221,0,0,-8,2,-1,-1,-2,-2
1470331389287724,0,2,8,0,0,0,-1,0
1470331389287724,-4,-11,-51,-10,-3,-1,1,-1
1470331389300251,0,2,19,1,-3,-2,-2,-1
1470331389300251,1,5,14,7,0,0,0,0
1470331389308742,-2,-3,-20,-12,-1,-1,1,-3
1470331389308742,0,-1,11,14,2,-1,-2,-1
1470331389323754,-2,-3,-2,-9,0,-2,1,0
1470331389323754,-3,-10,-10,-3,-2,-2,0,-2
1470331389325255,1,2,0,-4,-2,-1,2,2
1470331389325255,0,3,-3,-1,0,-5,-4,2
1470331389346279,-5,-5,-4,1,-1,-1,-1,0
1470331389346279,1,5,3,1,0,2,0,1
1470331389347776,-2,-12,4,-4,-3,-4,-2,-1
1470331389347776,0,-1,-39,-2,-2,-1,1,-4
1470331389359789,-1,5,23,2,-1,0,1,0
1470331389359789,-3,-6,-50,-10,-4,-4,-4,-3
1470331389368798,3,6,1,1,0,3,-1,1
1470331389368798,-2,-2,-1,0,-2,-1,0,-1
1470331389383808,-3,3,17,-2,-1,0,-2,-2
1470331389383808,-1,-4,-5,-1,0,-2,-2,-2
1470331389385310,0,-1,-1,1,0,-2,-1,0
1470331389385310,0,-7,-4,-5,-2,-3,-2,-1
1470331389406330,-1,-3,-6,4,-1,-1,2,0
1470331389406330,-1,-5,15,1,0,-2,-2,0
1470331389407830,-1,1,-4,-1,-3,0,-2,-1
1470331389407830,-2,2,12,-1,1,0,2,0
1470331389419840,-2,-5,-18,-1,-1,-2,-2,-3
1470331389419840,0,5,-5,-2,-2,-2,-1,0
1470331389436356,-1,-6,-2,0,-1,-2,-3,-2
1470331389436356,-2,1,-10,2,-1,-1,-3,-2
1470331389443862,3,0,-12,-2,2,-1,1,-1
1470331389443862,-2,0,11,2,-3,0,0,1
1470331389445363,-1,-6,4,0,1,0,0,-1
1470331389445363,-3,-1,14,-3,-3,-1,0,-1
1470331389466388,-1,2,11,5,-1,0,-3,-2
1470331389466388,0,-7,-33,-6,-2,-1,0,-3
1470331389467886,1,6,13,3,0,-1,5,0
1470331389467886,-2,-7,-11,-5,0,-3,-4,-1
1470331389479895,-1,0,18,-2,-1,-3,-3,-1
1470331389479895,-4,-6,-44,-2,-2,-1,0,-1
1470331389488903,0,3,1,1,-1,-3,-3,-3
1470331389488903,-2,0,15,5,-3,1,4,-1
1470331389503918,1,2,-6,2,-1,0,0,1
1470331389503918,0,5,10,-1,-1,-2,-1,0
1470331389505418,-2,-1,-21,-2,0,0,-3,0
1470331389505418,-1,0,13,0,-2,0,-1,0
1470331389526438,-1,-7,-10,-4,-2,0,0,-2
1470331389526438,1,2,18,-2,1,-1,-5,-1
1470331389527939,-1,-3,-13,-2,-2,-1,0,-2
1470331389527939,2,6,4,-2,-1,-2,-2,-1
1470331389539949,-3,2,17,4,-2,-1,-1,-1
1470331389539949,1,-4,7,2,1,-1,1,0
1470331389548956,-5,-8,-9,-5,-4,-2,-3,-2
1470331389548956,0,-1,-37,-4,-2,-1,0,-2
1470331389563470,0,3,-37,-8,0,0,-1,-1
1470331389563470,-1,6,48,6,-3,-1,-3,-1
1470331389569976,1,2,-2,-1,-1,-2,-2,1
1470331389569976,-1,-3,-1,0,0,1,0,-1
1470331389586491,0,-5,-13,-3,-1,-2,-1,-1
1470331389586491,-3,-1,2,0,0,-2,0,-1
1470331389587994,0,4,14,-1,-1,-2,0,-1
1470331389587994,-3,-4,7,0,1,-1,-1,-1
1470331389600003,1,4,3,-1,1,0,3,1
1470331389600003,0,-1,-11,-10,-2,-2,-2,-2
1470331389609010,-1,-3,4,3,-1,-2,-6,-3
1470331389609010,-1,-9,-24,-4,-1,-1,-1,-1
1470331389623523,-2,3,17,3,-1,-1,-1,-3
1470331389623523,-3,-9,-6,-1,-1,-1,0,-1
1470331389625526,0,-4,2,0,-1,-2,-1,1
1470331389625526,1,6,26,-4,0,-1,-4,-1
1470331389646548,-2,-8,-4,-1,-2,1,0,0
1470331389646548,-2,-8,-18,-7,1,-1,-2,-1
1470331389648144,0,16,22,8,-2,0,-1,-2
1470331389648144,-1,-17,-7,-3,-2,0,-1,-1
1470331389668564,-1,0,0,-3,-1,-5,-3,-2
1470331389668564,0,1,-14,0,-2,-2,0,-2
1470331389670088,0,-3,1,-8,-1,0,0,0
1470331389670088,-3,6,9,1,-1,-2,-1,-1
1470331389683578,2,12,3,6,0,0,-3,-3
1470331389683578,-3,-8,-12,-7,-3,-1,0,-3
1470331389685079,-1,-6,-21,0,2,1,0,-1
1470331389685079,1,5,8,-1,-2,-1,-2,0
1470331389706600,-2,-8,-17,-2,-2,-1,0,0
1470331389706600,0,6,17,1,0,-1,0,-1
1470331389708099,1,-4,-11,-3,-1,-1,0,0
1470331389708099,-3,-3,12,1,0,-2,1,-2
1470331389728618,0,-1,3,-1,-1,-3,-1,0
1470331389728618,2,0,30,6,0,2,2,0
1470331389730119,-4,-7,-41,-12,-1,-1,0,-4
1470331389730119,1,0,5,-2,-3,-2,-1,-1
1470331389743631,1,-2,-7,-3,-2,-1,-1,-1
1470331389743631,1,5,22,2,-2,-1,-1,1
1470331389745633,0,-2,-5,-1,-3,-1,0,-1
1470331389745633,-2,2,6,0,1,1,-1,0
1470331389766153,-2,-5,-5,1,0,-1,2,-1
1470331389766153,0,0,8,-2,0,-1,-5,-1
1470331389767653,0,3,-5,-4,-2,0,1,0
1470331389767653,1,7,-15,-4,-3,-3,0,-1
1470331389788673,-2,-13,6,-4,-2,-1,-1,-2
1470331389788673,0,5,9,8,0,0,0,-1
1470331389790173,-2,0,-48,-6,-1,-2,0,1
1470331389790173,-2,-17,36,2,-2,-2,-3,-2
1470331389803686,-1,10,16,-2,-1,0,1,0
1470331389803686,-1,-3,-17,1,-1,-1,-2,-1
1470331389805189,1,1,13,7,1,-1,-1,0
1470331389805189,-2,0,-19,-2,-1,1,0,-1
1470331389825205,2,-2,-4,0,-2,0,-3,-1
1470331389825205,-1,-1,-8,-1,1,-1,0,0
1470331389841219,-4,-7,-4,-9,-2,-2,-4,-3
1470331389841219,0,2,21,6,-1,-3,-1,-3
1470331389848726,-2,-6,-36,-4,-2,-2,1,-1
1470331389848726,0,4,1,-3,-3,1,1,1
1470331389850227,2,1,17,0,-3,-1,-1,0
1470331389850227,1,7,15,0,1,-1,1,0
1470331389862738,0,-2,-35,-3,-2,-2,-2,-1
1470331389862738,-1,-3,-15,-2,-2,-1,0,-1
1470331389877273,-1,-1,15,-1,-1,-2,-1,-1
1470331389877273,-4,-8,-10,-8,-1,0,-1,0
1470331389886260,0,4,16,3,1,-2,-2,-1
1470331389886260,-1,2,-6,-4,-2,-1,0,-1
1470331389887760,0,1,8,1,-2,-1,-1,-2
1470331389887760,-2,-5,-26,2,-3,-1,-3,-2
1470331389908781,1,7,23,0,-1,-2,-3,-1
1470331389908781,-2,-8,-7,3,2,0,-2,-3
1470331389910281,-2,-3,15,1,0,-2,0,-1
1470331389910281,1,1,-17,1,0,0,0,1
1470331389923311,-1,-7,4,-7,-2,-3,0,2
1470331389923311,-3,6,-9,-1,-1,0,0,-1
1470331389929815,0,1,12,2,0,0,-1,-2
1470331389929815,-1,6,1,-5,-2,-1,2,-1
1470331389953822,-2,-7,15,6,1,2,0,-1
1470331389953822,-2,-2,-6,-3,-5,-4,0,-1
1470331389955322,-1,-6,0,0,0,0,-2,-2
1470331389955322,1,5,7,-4,-2,0,-2,-3
1470331389968833,0,2,-3,-3,-3,-2,-2,-1
1470331389968833,-2,-4,6,-2,-2,-1,-1,-1
1470331389970335,0,1,1,2,-1,-2,-3,1
1470331389970335,-1,-8,-5,-1,-1,-2,-1,0
1470331389983346,-4,-1,-12,-2,-2,-1,-4,-1
1470331389983346,-1,-2,19,1,-2,1,-3,0
1470331389997360,-1,-6,-15,-6,-2,-1,-2,-2
1470331389997360,-2,10,16,5,0,2,1,0
1470331390006370,-3,-14,-13,-2,-3,-4,-3,-3
1470331390006370,2,-4,-18,-5,-3,-3,-1,-1
1470331390007868,-4,-4,2,-2,-1,2,0,-2
1470331390007868,1,6,-5,-2,0,-1,-1,0
1470331390027887,0,2,4,2,-1,0,0,-2
1470331390027887,0,3,8,-9,-1,-2,-2,0
1470331390036396,0,3,-24,1,0,-1,0,1
1470331390036396,-1,-8,-18,3,0,-1,-2,-2
1470331390042901,-2,1,15,-3,-1,0,-2,-2
1470331390042901,-1,-5,-9,2,0,1,0,0
1470331390049907,0,2,19,-1,-3,-1,-1,-2
1470331390049907,-1,-3,4,3,1,0,0,-2
1470331390065922,0,-3,-4,-4,1,-2,0,-1
1470331390065922,-1,6,13,5,2,0,-1,1
1470331390072428,-2,1,-8,-4,-1,-2,-1,-1
1470331390072428,-1,0,9,2,-1,-1,-1,1
1470331390088941,3,6,14,1,-3,1,0,-2
1470331390088941,0,0,3,-4,-2,0,-2,1
1470331390090443,0,-2,-30,1,-1,0,2,1
1470331390090443,-2,-4,-7,-5,-2,-4,-1,-7
1470331390103454,-3,0,5,-2,-2,-1,-2,-3
1470331390103454,-1,2,-3,2,-2,1,1,-3
1470331390109961,-1,-13,-26,-4,-1,-1,-4,1
1470331390109961,-1,1,1,2,0,0,-2,-1
1470331390126475,-7,-8,-26,-10,-3,-2,-2,-2
1470331390126475,0,-4,-11,1,-2,-1,0,-1
1470331390127976,-2,0,37,1,-2,-2,-1,-2
1470331390127976,-1,-5,-19,-7,-1,-1,-1,1
1470331390148995,1,13,13,3,0,0,2,2
1470331390148995,-4,-17,1,6,-2,-2,-2,-1
1470331390150497,-2,6,11,0,0,0,-1,-2
1470331390150497,-2,-9,-37,-11,-5,-2,-3,-2
1470331390163011,-1,-1,11,-3,1,-1,1,1
1470331390163011,0,-7,-62,-10,-1,-2,-2,-4
1470331390170188,3,11,15,4,-1,-1,0,0
1470331390170188,-1,-2,33,3,-1,0,-2,0
1470331390186198,0,0,-14,-1,0,1,0,0
1470331390186198,-4,-4,20,-1,0,-3,-3,-2
1470331390192203,-1,2,-6,-5,-2,-3,-1,-1
1470331390192203,-3,-7,-17,-11,-4,-2,0,1
1470331390208718,-2,-1,8,4,-1,0,-1,0
1470331390208718,1,5,18,1,1,-2,-1,-3
1470331390210221,-3,-14,4,-1,-2,-1,0,-1
1470331390210221,0,6,18,4,0,-1,-2,-3
1470331390231239,-3,-9,-10,-1,0,2,1,-1
1470331390231239,0,2,6,-3,-1,0,-1,1
1470331390232742,-2,-2,-10,-3,-2,0,2,-1
1470331390232742,0,5,5,-1,-3,-5,-2,0
1470331390246253,0,-2,11,10,-2,-2,-1,1
1470331390246253,-1,8,19,-1,0,-2,0,-2
1470331390247754,0,-7,-13,1,2,0,1,-1
1470331390247754,-3,0,4,-3,-1,-2,-2,0
1470331390269272,-4,-11,1,4,3,0,-1,-3
1470331390269272,0,-1,8,-5,-4,-2,-2,-1
1470331390270773,-1,1,9,1,-1,-3,2,-1
1470331390270773,-2,-4,-12,0,0,-1,-3,-1
1470331390282284,2,6,-1,-4,-2,-3,-2,1
1470331390282284,-1,2,-9,3,-1,-1,-1,1
1470331390291292,-5,-6,-11,-3,-3,-1,-3,-4
1470331390291292,-3,-6,-24,-4,1,0,-1,-5
1470331390306309,1,4,26,-1,-4,-2,-2,0
1470331390306309,-1,-4,-8,-1,0,0,0,0
1470331390307807,1,7,9,1,0,-2,-1,2
1470331390307807,1,0,10,5,0,0,-1,0
1470331390328834,-5,-6,-19,-6,2,-1,-3,-1
1470331390328834,-2,0,8,-3,-3,-1,-2,-1
1470331390330328,-1,-3,-6,-5,-2,-2,0,-1
1470331390330328,-1,3,-5,2,0,-3,0,4
1470331390342340,-1,-7,-9,-4,-2,-2,0,-8
1470331390342340,-4,10,22,-6,-3,-2,-2,-3
1470331390351346,0,-13,-7,3,0,2,-2,1
1470331390351346,1,1,-7,-3,-2,-1,-1,0
1470331390366361,0,1,3,0,-1,0,1,0
1470331390366361,-2,-3,-25,2,0,1,0,-4
1470331390367861,-2,8,30,-6,-4,-3,-3,-4
1470331390367861,1,-6,-4,-1,-1,-1,0,-1
1470331390388880,2,2,-2,1,-2,0,-2,2
1470331390388880,1,-2,-17,-4,0,1,2,-2
1470331390390381,-1,3,9,1,1,-1,-1,1
1470331390390381,-1,5,12,4,-1,0,-1,-2
1470331390402420,-2,-11,-26,-7,-2,-1,-1,1
1470331390402420,0,2,8,1,-2,-2,0,1
1470331390411401,-3,-4,-8,-1,-2,-1,-2,1
1470331390411401,1,8,16,-4,0,0,0,-1
1470331390426413,-3,1,9,10,1,-1,-1,-2
1470331390426413,0,0,-36,-17,-3,-3,-1,2
1470331390427915,-1,-11,14,5,3,-1,-1,0
1470331390427915,1,5,-8,-10,-2,0,-2,-2
1470331390448965,2,1,9,2,-1,-4,-2,-1
1470331390448965,0,3,9,5,1,0,-1,1
1470331390450439,1,6,-2,1,0,-2,-1,-2
1470331390450439,-4,-11,-6,-3,0,-1,0,-1
1470331390462515,1,4,24,1,-2,1,0,-4
1470331390462515,-2,-3,-27,1,0,-3,-2,0
1470331390471454,-4,-5,-11,-8,0,2,-1,-1
1470331390471454,4,-1,4,5,0,-1,1,3
1470331390486470,-2,1,-2,-3,0,1,-1,1
1470331390486470,-1,-1,16,-1,-1,-3,-2,-2
1470331390488048,2,8,-9,-1,-1,-2,-3,0
1470331390488048,-3,-12,-17,0,0,-1,1,-1
1470331390508990,-4,-3,-4,-6,-4,-3,-2,-2
1470331390508990,1,-1,15,5,1,0,1,-1
1470331390510527,1,3,-14,-6,-2,0,-1,-1
1470331390510527,-3,2,16,6,-1,-1,-1,-2
1470331390522501,1,-2,-17,-4,-1,-1,1,0
1470331390522501,0,-7,14,2,0,2,-2,3
1470331390531510,0,0,-5,-1,-2,-1,0,-3
1470331390531510,-1,5,-5,1,2,-2,-1,-1
1470331390546523,-3,-8,10,-10,-3,-4,-2,-3
1470331390546523,-2,-3,-35,-1,-2,-1,-1,0
1470331390548025,-1,1,5,-3,-2,-1,-1,1
1470331390548025,-2,0,-3,-4,-1,-2,-2,-2
1470331390568542,2,6,-2,2,-2,-1,-1,0
1470331390568542,1,0,-5,-5,-1,-1,1,0
1470331390570043,-2,-4,-6,1,-2,-2,0,-2
1470331390570043,1,4,5,-2,-2,-1,0,-3
1470331390582554,-3,-3,-28,-3,-2,-3,0,1
1470331390582554,1,3,30,5,0,1,0,-3
1470331390591562,0,-6,-14,-8,0,-1,-3,-1
1470331390591562,-2,-3,-1,5,-3,0,-2,-2
1470331390606576,-1,8,3,-3,-3,-1,-3,-1
1470331390606576,-3,-9,11,2,-1,1,0,-1
1470331390608079,0,3,-7,0,0,0,3,1
1470331390608079,1,0,-17,0,0,2,-3,1
1470331390629095,-3,-3,21,1,0,0,-1,0
1470331390629095,-2,3,15,-2,-1,-3,-2,-2
1470331390630597,-2,-1,11,4,-2,-1,0,-3
1470331390630597,-4,-8,-17,1,3,0,0,-3
1470331390667675,1,2,-11,0,0,-1,2,-2
1470331390667675,-4,-4,-2,-1,-1,-1,-1,-5
1470331390669131,-1,0,-4,0,-1,-1,-1,1
1470331390669131,-2,1,6,-10,-3,-1,-1,-1
1470331390670132,1,8,10,5,-1,-1,-1,-1
1470331390670132,0,-4,-14,-5,-2,1,-2,1
1470331390681143,-2,2,11,4,1,-1,1,-2
1470331390681143,0,-1,9,-2,-6,-2,-4,-2
1470331390688649,-1,-17,-16,-3,-1,-1,-1,-1
1470331390688649,1,3,-27,-4,-2,-3,-2,-5
1470331390690150,0,9,30,6,1,1,-1,0
1470331390690150,0,-1,-5,-2,-3,-1,1,1
1470331390711169,-2,1,7,-6,-1,-1,-2,-1
1470331390711169,-3,-7,2,4,1,-1,-1,4
1470331390712670,-1,-5,-13,-4,-2,-1,-2,-2
1470331390712670,-1,-7,-1,-1,-2,-2,0,-3
1470331390726183,-2,-1,18,4,0,1,-1,1
1470331390726183,0,-5,-31,-9,-2,-5,-3,-1
1470331390727684,0,8,16,3,1,2,-2,-1
1470331390727684,-1,7,24,-1,0,0,1,-1
1470331390748705,-2,-12,-8,-1,-2,0,-1,-1
1470331390748705,-4,-2,4,-1,-1,0,1,1
1470331390750204,0,2,15,3,0,-4,-1,-1
1470331390750204,-3,-12,-51,-7,-5,-1,-3,-2
1470331390771263,0,-3,-4,-5,-1,0,-3,-1
1470331390771263,-1,5,21,2,-3,-3,-3,-3
1470331390772769,-1,-9,-16,-2,-3,0,2,-6
1470331390772769,2,9,8,1,1,-2,1,6
1470331390785803,2,7,21,1,-1,-4,-1,5
1470331390785803,1,4,-2,-4,-2,-1,-3,-7
1470331390792285,-5,-15,2,-3,-1,3,0,2
1470331390792285,-1,0,6,-2,1,-3,-2,-3
1470331390808803,2,7,-13,7,0,-1,1,7
1470331390808803,-2,-23,12,-6,-3,-3,-1,-8
1470331390810302,-5,-4,-19,-6,-2,-3,-3,-7
1470331390810302,-1,-2,4,0,0,0,0,-1
1470331390831321,0,5,-2,2,-2,-1,-3,-2
1470331390831321,-2,-6,2,3,-1,0,1,2
1470331390832821,2,4,-28,-7,-3,0,1,3
1470331390832821,-5,-16,3,-4,-1,-1,-3,-3
1470331390845333,-1,6,-15,3,0,-2,-1,-5
1470331390845333,2,-3,-7,-4,-1,-2,-1,2
1470331390852339,0,22,25,4,0,-1,0,3
1470331390852339,0,-28,-15,1,-1,-2,-2,-3
1470331390868854,-7,-19,-21,-5,2,2,1,-1
1470331390868854,-3,5,46,5,-2,-4,0,-6
1470331390870856,7,27,18,9,5,-2,2,8
1470331390870856,-3,-28,-39,-8,-3,0,-1,-1
1470331390890373,-6,-34,31,2,-2,-1,-3,-5
1470331390890373,-7,-29,-59,-17,-3,0,-1,2
1470331390907388,1,-5,10,-1,-7,-5,-2,-2
1470331390907388,4,19,12,3,2,1,0,-1
1470331390908391,3,-18,-10,18,4,1,0,-2
1470331390908391,-1,58,52,-20,-4,-2,-3,-2
1470331390913894,-4,0,10,-1,-3,-1,0,0
1470331390913894,-3,-39,-10,-4,3,0,0,-3
1470331390928909,10,78,9,2,4,1,3,4
1470331390928909,-1,13,-71,-29,-7,2,-2,1
1470331390930409,-7,24,59,47,-3,-1,-4,-4
1470331390930409,-5,-10,-61,-8,26,5,2,0
1470331390958934,7,26,23,-31,-9,-4,0,2
1470331390958934,5,3,33,27,-2,-7,-1,2
1470331390960437,-11,-44,-103,-36,-26,-6,-6,-7
1470331390960437,3,46,60,29,11,0,1,1
1470331390964941,-8,-19,-24,-19,-5,6,-1,1
1470331390964941,6,64,-13,6,0,-5,-1,0
1470331390973948,-10,-55,-5,1,-7,0,-1,-4
1470331390973948,4,25,53,10,31,6,3,2
1470331390988967,-19,-84,-94,-28,-20,-6,1,-8
1470331390988967,14,52,84,10,-3,-1,-2,3
1470331390990463,-9,-38,-43,-2,-6,1,6,-1
1470331390990463,4,98,28,-23,-27,-2,-5,-3
1470331391011482,0,4,4,29,44,-3,0,-5
1470331391011482,-16,-63,-7,-34,-73,-15,-8,-3
1470331391012985,8,-7,-30,5,71,28,8,8
1470331391012985,5,-22,15,-4,-14,-33,-14,-3
1470331391025017,-5,28,21,33,5,38,11,0
1470331391025017,6,4,-3,22,53,7,2,6
1470331391034003,3,-19,4,-26,-56,-38,-14,-11
1470331391034003,-11,-35,-12,-16,-68,-13,-5,-4
1470331391049016,0,-10,-7,-14,38,-4,0,-10
1470331391049016,0,-3,-18,12,-29,1,5,8
1470331391050518,9,46,30,22,101,15,-23,1
1470331391050518,-21,-88,-49,5,-33,10,46,7
1470331391070537,9,18,24,-3,-24,-39,-47,-25
1470331391070537,-5,-8,-12,-34,-80,-22,-4,4
1470331391079042,-7,-4,5,-12,59,21,12,4
1470331391079042,14,28,7,11,-5,10,-20,9
1470331391085049,-9,8,8,24,39,12,41,-3
1470331391085049,-1,-11,-7,-19,-8,0,11,-4
1470331391094057,7,32,9,21,13,-41,-31,27
1470331391094057,-12,-83,-8,-5,25,-15,-2,-11
1470331391110103,8,3,6,-11,-88,38,19,21
1470331391110103,0,1,-1,18,-6,-10,-12,28
1470331391112072,-5,17,20,-16,-15,-2,3,-25
1470331391112072,0,28,11,8,24,28,-4,2
1470331391131118,-2,-41,-14,-19,-35,-43,-24,-12
1470331391131118,-4,-10,-10,13,30,10,-3,-18
1470331391133091,11,43,13,-11,-21,10,8,12
1470331391133091,-5,-38,5,6,11,-4,3,-1
1470331391145109,9,18,0,-5,-4,1,-12,-5
1470331391145109,-37,-24,-2,5,19,1,16,-2
1470331391154110,-5,-4,-9,5,-1,0,-1,-10
1470331391154110,13,28,-1,0,-17,-12,-1,-4
1470331391168639,11,-2,-10,-8,2,4,-7,30
1470331391168639,7,-11,-16,7,32,3,0,2
1470331391170625,-17,-99,-29,-15,-33,-2,16,-19
1470331391170625,3,26,4,-7,-13,0,-3,5
1470331391191238,-6,-11,-19,3,18,-2,-4,-3
1470331391191238,1,-36,-5,-1,17,6,-19,-27
1470331391199153,1,41,-9,-9,-40,-8,3,-3
1470331391199153,-2,3,18,-1,11,8,-10,-5
1470331391205155,-5,-12,-5,-5,5,-12,-9,22
1470331391205155,-5,-69,-8,7,11,5,1,-30
1470331391213666,5,-9,16,-3,-26,1,-3,9
1470331391213666,-2,32,-10,-5,10,-6,-3,-11
1470331391228677,-13,-17,-5,2,0,-2,5,-2
1470331391228677,-7,-33,-8,-2,-1,5,4,11
1470331391230179,-1,-2,-1,-3,-5,1,-1,1
1470331391230179,-3,-17,9,4,3,-5,-8,-5
1470331391251241,-2,15,14,2,-4,-3,4,-6
1470331391251241,6,3,-9,3,11,-2,1,-1
1470331391252698,-2,25,0,-5,-3,5,1,-3
1470331391252698,2,3,-8,-3,2,-3,3,11
1470331391264709,-3,-4,-7,-4,-5,-3,0,-13
1470331391264709,2,33,13,7,7,-1,-1,4
1470331391273717,3,8,-6,-3,-9,-3,-1,2
1470331391273717,-7,-11,-10,-1,-3,2,0,-3
1470331391288731,0,-8,11,-3,3,-1,-1,-2
1470331391288731,7,47,20,-10,3,2,-4,-3
1470331391290232,7,-10,1,-3,-10,-1,5,4
1470331391290232,-6,-10,-15,20,15,4,0,-4
1470331391311279,-7,39,13,-3,0,-3,1,-3
1470331391311279,-1,6,4,11,4,0,0,6
1470331391312752,5,1,-4,-9,-8,-2,-2,-5
1470331391312752,-2,-2,-2,-9,-5,-6,-10,-8
1470331391325326,1,-9,-12,5,0,-2,0,0
1470331391325326,11,43,10,-3,-11,2,4,4
1470331391333773,-9,10,-7,3,22,7,-2,-3
1470331391333773,8,11,-11,-9,-11,-2,0,5
1470331391348813,2,-12,10,1,-2,-1,-1,-5
1470331391348813,-1,3,-17,0,-2,-3,-7,-3
1470331391350286,-1,-5,17,8,-4,-2,2,1
1470331391350286,1,-3,20,0,-3,0,1,-2
1470331391378812,-7,-13,-43,-15,-7,-8,-4,-6
1470331391378812,2,12,15,4,10,14,-2,14
1470331391379313,2,-13,-11,4,-5,-6,3,-7
1470331391379313,0,-2,4,-16,-2,2,3,2
1470331391393325,1,13,2,4,-7,-3,-2,-7
1470331391393325,3,-16,-21,-19,-2,-4,-2,-3
1470331391393825,-6,-16,1,10,-4,2,-3,-2
1470331391393825,-2,9,-20,-3,-4,-2,-1,-1
1470331391408444,4,2,5,-8,0,-1,0,3
1470331391408444,-3,-9,-8,0,-2,-3,1,-6
1470331391408839,-6,-2,7,6,-2,0,-2,3
1470331391408839,-1,15,6,-9,4,-2,2,-11
1470331391430865,2,16,1,5,2,4,-3,-2
1470331391430865,-2,-25,-4,-17,-6,-3,0,-1
1470331391431360,2,-3,-16,1,-4,-1,-1,-1
1470331391431360,1,19,12,13,13,0,-3,6
1470331391452919,-5,-9,-15,-3,-4,-2,1,-1
1470331391452919,-3,4,17,1,-9,-2,-6,-10
1470331391453928,2,5,-5,0,-6,-6,-1,2
1470331391453928,-3,-4,-9,-2,2,6,2,2
1470331391468401,-2,7,-12,-4,2,4,-3,-9
1470331391468401,-10,-9,9,4,-3,-8,4,-2
1470331391468897,3,3,6,-4,0,0,-5,3
1470331391468897,4,-25,-18,2,0,-1,-2,2
1470331391490912,3,56,27,-1,-2,-1,4,4
1470331391490912,4,-2,-24,4,2,3,2,0
1470331391491417,-5,-11,14,-4,-3,-7,-3,-4
1470331391491417,-2,-8,17,7,0,1,1,0
1470331391512936,-1,-31,-8,7,3,2,-1,1
1470331391512936,2,24,-10,8,15,1,1,0
1470331391513934,-3,2,-3,-8,-6,-2,0,-2
1470331391513934,2,8,3,3,-8,-4,-2,0
1470331391527506,-2,-7,14,0,-1,-1,-1,1
1470331391527506,-2,-4,6,-1,13,1,-1,1
1470331391535453,1,-6,-10,-2,-13,-4,-1,-8
1470331391535453,-4,15,1,4,7,1,-1,0
1470331391550470,-1,-7,5,-1,2,0,-1,-2
1470331391550470,2,-9,-6,6,-18,-5,-2,-1
1470331391551468,1,-5,0,-3,21,2,0,4
1470331391551468,-5,-19,5,-3,-18,-5,-2,-1
1470331391573042,0,1,-2,-1,-1,-2,-1,-3
1470331391573042,1,-5,-4,-3,1,0,-1,1
1470331391573988,0,32,-1,-3,-11,-4,-4,-6
1470331391573988,-3,2,3,-3,-5,-6,-1,-1
1470331391589502,2,-3,4,-2,14,14,-1,4
1470331391589502,-3,-26,-25,-6,-6,-6,-2,-1
1470331391590503,1,5,5,6,0,2,-1,0
1470331391590503,0,-2,-19,-5,1,-3,0,-2
1470331391610555,-1,-8,10,1,-8,-7,-4,0
1470331391610555,-2,-1,4,-5,0,2,1,-4
1470331391611026,0,-1,-15,-1,6,3,1,1
1470331391611026,-1,-4,-2,-5,-4,0,-3,0
1470331391633068,-5,5,16,8,-2,-4,-2,0
1470331391633068,-3,-14,-11,-4,-1,3,-2,-3
1470331391634091,-2,2,-11,-17,-6,-3,1,0
1470331391634091,6,34,9,0,0,0,-1,1
1470331391648096,-6,-18,-1,-6,-2,0,0,-2
1470331391648096,2,24,17,2,-2,-3,-1,0
1470331391649058,-2,-13,-2,3,-1,0,0,2
1470331391649058,-4,-5,-13,4,23,9,0,-2
1470331391670575,0,4,10,-1,-9,-5,-1,-1
1470331391670575,-3,4,10,9,-3,-4,-1,-2
1470331391671075,1,-18,-19,-6,-5,0,0,1
1470331391671075,-1,9,18,-6,-9,-4,-2,-4
1470331391693136,-3,-18,-28,-3,0,-3,-2,-2
1470331391693136,2,3,8,4,1,3,-1,1
1470331391694095,0,0,2,4,0,0,-1,-2
1470331391694095,-1,-6,1,2,-5,-5,-2,0
1470331391708112,0,11,-8,-6,-13,-1,0,0
1470331391708112,2,2,-4,-2,16,1,3,-1
1470331391709109,-3,-8,2,-2,-6,2,0,-3
1470331391709109,-2,8,4,3,-5,1,-2,0
1470331391730633,-4,-4,7,0,1,-5,-1,-4
1470331391730633,-1,-7,-6,-2,-8,-2,-2,-1
1470331391731629,-1,2,16,-5,4,0,-2,0
1470331391731629,3,-4,-9,2,-5,-2,0,-2
1470331391753149,0,-8,-2,-7,-1,1,-1,0
1470331391753149,-1,19,-2,9,6,0,0,1
1470331391754650,-2,-11,-18,-7,-1,-2,0,-1
1470331391754650,-5,-2,-5,-5,-12,-2,-1,-2
1470331391769662,0,-5,9,8,13,3,0,0
1470331391769662,1,-2,1,-3,-4,-1,-2,-2
1470331391770164,-3,-3,0,0,-5,-5,-1,-3
1470331391770164,1,-4,1,-5,-1,-2,1,-2
1470331391790741,1,-2,-18,-1,-8,-7,-1,-2
1470331391790741,-3,-6,-2,0,12,6,0,-2
1470331391791202,0,4,11,1,-1,-2,-3,1
1470331391791202,-3,-15,-7,-10,-6,-1,0,-1
1470331391813220,-2,9,10,-1,0,-2,-2,-3
1470331391813220,-1,-7,-4,-1,-9,-2,-1,-1
1470331391813749,-4,-12,4,1,0,0,-1,-2
1470331391813749,-1,-14,-20,3,5,1,0,-3
1470331391828216,1,-1,-9,-11,-2,2,2,2
1470331391828216,-2,-13,13,7,1,-3,-3,-3
1470331391828716,-2,4,-20,-13,0,0,-1,-1
1470331391828716,-3,1,-1,4,-3,0,-1,3
1470331391850737,0,0,-20,0,1,0,-1,-7
1470331391850737,-2,-13,4,-11,-4,-2,0,-1
1470331391851236,0,8,-7,0,-1,-2,0,-2
1470331391851236,-3,-4,-2,-5,-3,-1,-2,-2
1470331391873278,-2,-11,10,0,0,-1,-2,6
1470331391873278,-3,12,-4,-3,-3,-2,2,-10
1470331391873758,4,4,7,1,-3,0,0,0
1470331391873758,-4,-9,3,-11,-3,-3,0,0
1470331391888270,2,24,0,7,3,0,-1,2
1470331391888270,-1,-12,-31,-12,-3,-2,-5,2
1470331391888770,-1,-14,20,-3,-4,-2,-3,-3
1470331391888770,0,21,7,-1,5,4,-7,-6
1470331391910789,-2,-12,2,2,3,-3,5,2
1470331391910789,-2,-3,-3,5,-2,-3,-3,-5
1470331391911290,0,3,-4,0,-4,-2,-2,-2
1470331391911290,0,17,-1,-4,-2,1,-3,1
1470331391933358,-1,5,9,3,3,1,-2,-4
1470331391933358,-2,-4,1,-1,-7,-3,-1,-1
1470331391933835,1,-6,0,-8,-3,-3,1,5
1470331391933835,0,5,-7,7,0,-1,-4,-10
1470331391948323,-9,-16,-7,-8,-2,2,9,3
1470331391948323,2,3,-4,-3,-4,-4,-20,-4
1470331391948825,-4,13,2,12,1,-1,21,2
1470331391948825,8,-12,2,4,7,2,2,4
1470331391970843,0,-9,-2,0,-3,-2,3,0
1470331391970843,-4,-9,2,-4,0,0,0,-1
1470331391971344,1,10,9,6,-5,-2,-9,-2
1470331391971344,-5,5,1,-11,1,-3,1,-2
1470331391993363,3,5,16,-3,-3,-2,-10,0
1470331391993363,1,-1,1,4,-2,-1,10,5
1470331391993864,1,12,0,11,18,2,13,0
1470331391993864,-9,-11,16,-3,-3,-1,-1,0
1470331392007880,2,-1,-17,8,5,3,3,-1
1470331392007880,-2,15,8,-9,-7,-3,-11,-3
1470331392008877,-6,-19,-13,-16,4,0,2,-6
1470331392008877,2,-5,12,-2,-4,-3,2,4
1470331392039459,0,4,-10,-3,-17,-4,-10,-5
1470331392039459,1,-10,0,40,18,4,8,2
1470331392040429,2,21,30,11,9,3,-4,0
1470331392040429,-4,-25,-59,-27,-22,-15,-6,-3
1470331392052917,-2,-1,9,1,15,4,-11,-3
1470331392052917,1,2,3,-22,-2,8,16,4
1470331392053923,0,3,-5,22,-7,-5,-20,-1
1470331392053923,-2,-3,9,2,-4,-12,3,-3
1470331392067989,2,1,-11,-23,-5,10,-3,-2
1470331392067989,0,-8,0,10,2,-6,-2,-1
1470331392068933,1,-1,0,-16,-4,6,-3,0
1470331392068933,2,-2,5,9,-10,4,-3,-1
1470331392090506,-2,6,14,11,10,-19,2,0
1470331392090506,1,-14,17,-11,-3,-11,-5,-2
1470331392091501,1,-1,-27,-7,-21,18,-3,1
1470331392091501,2,-2,6,14,42,10,8,2
1470331392112992,-1,16,-3,4,6,7,4,0
1470331392112992,3,6,5,-1,-5,-10,-1,-2
1470331392113981,-3,-1,-5,2,-21,-27,-10,-2
1470331392113981,1,11,19,-23,14,14,-9,-4
1470331392128018,-2,-13,-3,10,-5,9,1,0
1470331392128018,2,9,-23,-15,-20,-12,-2,-1
1470331392129015,-11,-9,22,13,-19,-25,-9,-5
1470331392129015,-2,6,6,-13,-15,6,8,2
1470331392150539,-1,-4,-3,9,39,17,5,-3
1470331392150539,-1,2,-17,-3,-1,4,-3,1
1470331392151505,1,-2,2,-19,-6,-1,5,-3
1470331392151505,1,-13,-14,5,-7,-8,-8,-1
1470331392173053,-10,8,16,-5,-19,-11,0,0
1470331392173053,1,-5,-11,-6,-1,7,-1,1
1470331392174027,-4,-4,-2,0,17,5,7,2
1470331392174027,0,-1,1,8,-1,-8,-17,1
1470331392187538,5,-6,-13,-9,-13,-5,22,-2
1470331392187538,-4,-2,-9,0,3,7,2,1
1470331392196050,-1,15,9,-3,10,2,-11,-1
1470331392196050,0,-6,-1,7,-4,3,10,2
1470331392210602,2,0,0,0,-5,-7,-17,-2
1470331392210602,-9,1,12,2,6,-2,-1,-2
1470331392211576,4,-8,-7,-1,2,2,6,4
1470331392211576,1,-5,-12,-6,-7,-8,-4,-2
1470331392233107,-8,-1,-6,-4,-4,-2,-11,-6
1470331392233107,0,-3,4,2,0,1,-1,-1
1470331392234079,8,-14,5,3,3,1,-5,-1
1470331392234079,-5,13,15,7,-1,0,-1,1
1470331392247624,-4,-6,0,-11,3,-3,-7,-7
1470331392247624,-1,-1,-14,-2,-5,-1,2,-1
1470331392255645,0,-7,-3,5,-3,2,1,-1
1470331392255645,-7,1,-7,-4,6,-1,1,-1
1470331392270614,2,0,2,-7,-7,-7,-2,3
1470331392270614,1,-2,4,5,3,-3,-1,0
1470331392271115,-6,0,-13,-8,4,0,1,0
1470331392271115,1,0,2,9,-4,7,5,-3
1470331392293175,6,-2,-4,-1,-4,-6,-6,0
1470331392293175,-4,6,6,-3,3,0,7,-1
1470331392293633,-3,-4,-18,-10,-5,-10,-8,-5
1470331392293633,4,1,7,11,6,1,-3,1
1470331392307646,-1,0,1,6,-4,-3,4,1
1470331392307646,-3,2,3,-2,0,0,-5,-2
1470331392315708,-1,3,3,-3,-4,0,0,-3
1470331392315708,0,3,-11,-11,-1,0,1,0
1470331392330697,-2,-8,-1,-4,-2,-1,-1,-2
1470331392330697,0,-1,14,-3,-3,-2,-2,0
1470331392331668,0,17,4,1,2,3,-3,-3
1470331392331668,-5,-8,-6,8,5,-2,-2,-5
1470331392353186,-2,3,1,1,-5,-2,0,0
1470331392353186,1,-6,-25,-12,-4,-1,-3,-2
1470331392354219,1,-4,11,4,4,-1,0,-1
1470331392354219,2,-1,0,-4,-6,-3,-1,-1
1470331392367199,1,9,-3,-3,1,-1,3,0
1470331392367199,-1,-1,11,4,-2,0,-3,-1
1470331392375709,-5,-3,-2,-1,2,0,1,-1
1470331392375709,-1,-1,-8,-7,-3,-2,-1,-1
1470331392392222,4,-7,-1,2,-1,1,-4,2
1470331392392222,-1,4,1,2,-2,-2,-3,-1
1470331392392722,1,-7,-10,0,1,0,6,1
1470331392392722,-2,0,4,-5,-4,-1,-3,-2
1470331392413241,-2,-1,-16,-3,-1,2,-1,-1
1470331392413241,-1,1,9,1,2,-2,0,1
1470331392413755,1,-3,9,3,1,3,1,2
1470331392413755,-4,-7,-8,-9,-7,-5,0,-1
1470331392427286,-4,-5,2,9,-1,-1,-2,0
1470331392427286,-3,-4,-14,-10,-6,-1,-3,-5
1470331392435761,1,-3,12,-5,0,-2,-2,-2
1470331392435761,0,8,-5,18,7,0,1,-4
1470331392450774,-3,-2,-1,-10,-4,-4,0,-1
1470331392450774,0,-3,-13,-4,-1,-1,-1,-1
1470331392451279,-4,-4,15,-9,-2,-6,-4,-1
1470331392451279,0,2,5,5,-1,1,-3,-2
1470331392473317,1,-3,6,3,0,-1,1,0
1470331392473317,-2,-3,-7,6,3,1,1,-3
1470331392473795,-2,-1,-31,-8,-1,0,-1,1
1470331392473795,-2,0,8,1,0,-3,-1,-1
1470331392496333,1,0,11,2,-2,-1,-2,-2
1470331392496333,-3,-3,-23,-5,-5,-9,-4,-1
1470331392496848,1,-4,-5,0,-1,5,1,-1
1470331392496848,-2,-6,10,-7,-3,-4,-2,1
1470331392510880,-2,1,5,0,0,0,1,0
1470331392510880,2,9,16,9,4,-1,-2,-1
1470331392511329,-1,1,7,3,0,-3,-3,-2
1470331392511329,-2,-15,-3,-10,-1,0,-1,0
1470331392532900,-2,-8,-13,-6,-3,-1,-4,-2
1470331392532900,1,12,-4,-3,-3,2,-1,0
1470331392533851,-1,-6,-7,-1,-1,1,-1,-1
1470331392533851,2,15,3,-1,-2,-1,2,0
1470331392556395,0,-2,-6,-5,-1,-1,0,-2
1470331392556395,-1,3,12,-1,1,1,-1,-1
1470331392556871,-3,-22,-5,6,2,0,-1,-2
1470331392556871,0,2,-9,-2,-4,-1,1,0
1470331392570437,0,2,9,-2,-1,-4,-1,-1
1470331392570437,-4,-5,-3,0,-2,1,-2,-3
1470331392571383,2,2,7,-2,-1,-1,0,-1
1470331392571383,-2,-6,-16,3,-1,-2,-1,0
1470331392592902,-3,-1,-17,-2,0,1,0,1
1470331392592902,-1,-7,12,-6,0,1,-2,1
1470331392593905,1,10,3,7,-2,-1,-2,1
1470331392593905,1,8,-1,-11,-4,0,-1,-1
1470331392616422,-3,-12,3,11,7,0,0,-1
1470331392616422,-3,-11,-19,-6,-5,-2,-2,-2
1470331392616924,0,17,12,10,4,2,0,-1
1470331392616924,-5,-14,-32,-14,-2,-1,-2,-3
1470331392630944,3,13,29,-3,-4,0,0,1
1470331392630944,-5,6,9,-14,-3,-4,-2,-2
1470331392631439,3,-12,-13,4,0,-2,0,-2
1470331392631439,1,17,34,11,-1,-1,-1,-1
1470331392652961,-3,-14,-51,-11,-2,-2,0,-1
1470331392652961,3,-6,18,7,2,0,1,2
1470331392653973,3,5,-12,-4,-2,0,-2,1
1470331392653973,-3,13,37,7,0,-3,-1,-3
1470331392676478,1,-8,-21,1,-2,-1,0,-1
1470331392676478,-2,6,2,2,0,-1,-1,-3
1470331392676980,1,14,14,-5,-1,0,-1,0
1470331392676980,2,-11,-22,-1,2,-3,0,3
1470331392690556,-8,-4,-7,-4,-5,-3,-5,-14
1470331392690556,3,14,27,5,2,0,0,-3
1470331392691522,-5,-9,-22,-14,-2,-2,-1,-2
1470331392691522,-2,-8,25,4,-1,-2,-3,-2
1470331392713025,3,6,-28,-8,-2,-2,0,2
1470331392713025,3,8,16,10,1,-1,-1,0
1470331392714011,-2,-18,-25,6,-2,-2,-1,-3
1470331392714011,-5,18,11,-13,-7,-2,0,0
1470331392736530,-5,-21,-34,-14,-1,1,-1,3
1470331392736530,3,4,12,8,4,1,-1,0
1470331392737031,-2,26,-14,4,-2,1,-1,3
1470331392737031,2,-39,-14,-14,-1,-1,-1,2
1470331392750589,-2,4,26,-3,-5,-3,-2,-2
1470331392750589,-4,-19,-10,-2,2,0,-1,-3
1470331392751559,-2,-9,15,-5,-4,-3,-1,-1
1470331392751559,0,-4,-17,-2,-4,0,1,-1
1470331392773092,1,32,31,16,12,2,1,0
1470331392773092,-2,-19,-16,-7,-4,-4,-3,0
1470331392774064,0,4,9,7,3,-1,-1,-1
1470331392774064,-1,-10,-20,-9,-5,-4,-1,-1
1470331392796587,4,33,22,6,-4,-1,-1,3
1470331392796587,-10,-9,-3,-7,-5,-1,-1,-3
1470331392797088,-8,-6,-16,-8,-5,-3,-3,-4
1470331392797088,1,11,6,3,0,0,1,1
1470331392810597,-2,-17,16,1,0,-2,-4,-4
1470331392810597,5,15,-10,2,0,-1,-1,-2
1470331392811598,3,12,0,-12,-3,-1,-1,0
1470331392811598,-4,-16,3,14,5,3,0,-2
1470331392833123,-2,-11,17,4,-3,-1,-2,-1
1470331392833123,0,12,2,-9,-5,-2,0,1
1470331392834118,-6,-35,-3,-2,-1,-2,-3,-2
1470331392834118,3,24,-19,-1,0,-5,-3,-2
1470331392856662,0,-12,19,3,-6,2,-2,-2
1470331392856662,0,-2,-2,5,9,3,5,0
1470331392857139,2,-1,-7,-15,0,1,1,0
1470331392857139,3,21,27,6,-1,1,0,0
1470331392870651,-2,7,-28,2,3,-5,-4,-2
1470331392870651,-11,-26,-7,-16,-10,-5,-5,-4
1470331392871173,-2,-5,6,3,1,1,1,-1
1470331392871173,5,-1,5,-3,-1,-1,-2,-2
1470331392893201,-4,-17,-17,-6,-3,-1,2,1
1470331392893201,0,-19,-16,3,-1,-2,-4,1
1470331392893710,-3,-8,6,0,2,-2,7,-1
1470331392893710,-2,-1,-10,-5,-1,-2,-3,7
1470331392916235,5,3,-20,0,1,2,-1,-3
1470331392916235,0,-4,19,4,-1,-1,-1,-5
1470331392917193,-5,-9,-12,-3,-1,1,-2,2
1470331392917193,-5,2,-4,0,0,0,-4,-2
1470331392930720,6,14,5,1,0,-2,10,3
1470331392930720,-4,-5,3,-2,-1,2,-7,-1
1470331392931213,4,12,14,2,-1,-3,6,-1
1470331392931213,2,2,-6,3,2,0,-3,-1
1470331392953225,-4,-5,6,-6,-1,-1,-2,0
1470331392953225,0,10,-3,1,0,1,-1,-2
1470331392953742,-3,-15,-9,-3,-2,0,-3,-1
1470331392953742,-1,-6,16,3,2,-2,-4,-3
1470331392976251,-4,-12,14,-2,-2,0,-1,0
1470331392976251,1,2,-24,-3,-1,1,2,-1
1470331392976746,-1,2,0,-1,-2,0,-6,1
1470331392976746,-1,-6,-30,5,-1,1,2,-3
1470331392990759,1,6,14,-7,1,0,-2,1
1470331392990759,1,-8,-11,9,3,-1,2,2
1470331392991262,0,2,9,2,3,0,-4,-2
1470331392991262,-6,-8,-6,2,-2,-2,0,-4
1470331393013280,-1,3,-4,-5,-2,-1,0,1
1470331393013280,1,5,-18,-10,-9,-2,-1,2
1470331393013781,2,-19,-6,-2,5,0,-1,-1
1470331393013781,-4,41,29,0,-6,-2,-2,-5
1470331393036314,0,-7,-8,-3,-3,-4,-3,3
1470331393036314,-2,-19,-27,-13,-7,-2,0,-2
1470331393037301,-2,17,37,20,-1,-3,-3,-3
1470331393037301,3,7,-17,-18,-2,1,0,0
1470331393050914,-1,-16,10,5,2,-1,0,-2
1470331393050914,1,16,8,0,-1,0,-2,-1
1470331393051349,0,-4,3,-10,-2,-2,0,-2
1470331393051349,0,-10,-27,0,2,1,2,1
1470331393073333,-2,16,3,-2,-2,-1,-3,-3
1470331393073333,-2,-18,13,2,-1,-1,-1,-1
1470331393073834,0,8,-17,4,4,0,-2,1
1470331393073834,0,-20,10,7,4,1,0,0
1470331393096397,0,20,16,-11,-3,-1,0,0
1470331393096397,-1,-16,-1,10,0,-3,1,1
1470331393096885,5,10,1,2,-3,-1,-1,0
1470331393096885,-10,4,-24,-11,-5,-3,-2,-4
1470331393109883,-5,0,25,5,-5,-1,-2,0
1470331393109883,3,5,13,10,8,0,-2,-2
1470331393117907,-5,10,3,-19,-9,-3,-2,-2
1470331393117907,5,-11,9,12,5,1,2,2
1470331393132942,0,-8,-12,-3,-4,0,-3,-2
1470331393132942,-4,10,9,2,-5,-2,-1,-1
1470331393133892,1,-2,-2,7,12,3,0,-1
1470331393133892,1,4,0,-3,0,-1,-1,-2
1470331393156491,-2,-14,12,3,-3,-3,-2,-3
1470331393156491,-1,10,2,-3,1,-1,0,2
1470331393157409,0,-1,-9,-5,-5,-4,0,-1
1470331393157409,-1,-2,-16,-7,-2,0,0,0
1470331393169920,2,20,-29,1,2,2,0,1
1470331393169920,-6,-24,-5,1,0,-3,0,-3
1470331393178442,-5,0,40,0,-4,-2,-2,-4
1470331393178442,0,-1,14,-1,-2,-2,-1,0
1470331393192958,-2,-9,8,1,1,-1,-1,-2
1470331393192958,-2,-1,-29,-8,0,-2,-2,-3
1470331393193963,-3,-11,-13,-3,-4,-1,0,-1
1470331393193963,-3,-26,-6,0,-3,-2,0,-3
1470331393216470,1,11,32,8,2,-1,-2,-1
1470331393216470,0,2,4,7,2,-2,-2,-3
1470331393216963,-1,10,-24,-27,-5,-5,-3,-2
1470331393216963,2,-2,-3,-9,-4,0,-1,0
1470331393230014,-4,-19,-28,-1,-1,-2,-1,0
1470331393230014,-2,10,35,5,-4,-4,-1,-1
1470331393245989,2,5,-21,-4,0,0,-1,1
1470331393245989,-2,-5,-7,2,-5,-3,-2,-1
1470331393252996,-2,0,7,-6,5,1,0,-2
1470331393252996,1,8,-28,-4,-1,1,-1,0
1470331393254000,3,17,16,10,0,0,0,1
1470331393254000,-4,-23,-22,-8,-4,-3,-3,0
1470331393276516,-2,-8,2,1,-3,-2,-3,-2
1470331393276516,4,11,20,-6,0,-1,1,2
1470331393277018,3,-11,-17,0,-1,1,0,-1
1470331393277018,-4,7,4,5,3,1,-1,-2
1470331393290062,-5,5,9,10,1,0,0,1
1470331393290062,-2,6,-17,-5,0,0,-3,-2
1470331393298544,6,23,30,-7,-4,-2,-1,-1
1470331393298544,-7,-14,-17,0,2,0,0,-2
1470331393313050,0,-4,5,-9,-3,-3,-3,-2
1470331393313050,-3,7,-7,-4,-2,1,1,-1
1470331393314074,-4,-30,-30,4,0,-1,-2,0
1470331393314074,2,18,30,-1,0,-2,-1,-1
1470331393336569,4,-7,-4,0,-2,-1,2,0
1470331393336569,0,-1,-1,-3,0,0,-1,1
1470331393337071,-10,-8,-18,1,-2,-2,0,-3
1470331393337071,6,-4,-1,-2,0,-2,-1,1
1470331393350081,-2,2,2,1,-2,-2,0,-2
1470331393350081,9,3,2,-7,-3,0,-2,-1
1470331393358147,-16,-14,0,4,-1,0,-1,-2
1470331393358147,0,15,-12,-2,1,-2,0,-3
1470331393373137,4,13,-12,-5,-1,0,-1,0
1470331393373137,3,-8,-5,-5,-1,-3,0,1
1470331393374103,2,21,11,6,1,-2,-2,0
1470331393374103,-3,-3,14,0,-1,-1,-2,0
1470331393396655,1,6,-37,-7,1,1,-1,0
1470331393396655,-4,-20,14,-4,-5,-1,-3,-2
1470331393397126,5,36,49,16,-2,-2,-2,3
1470331393397126,-2,-24,-5,-2,-3,-1,-2,-3
1470331393410136,-2,-13,-15,-1,1,0,0,1
1470331393410136,-1,38,-8,-3,2,0,-1,-2
1470331393418147,0,-28,-8,-8,-2,-3,-2,-4
1470331393418147,-1,8,26,1,-1,3,6,3
1470331393433156,-3,7,-15,-2,-2,0,1,2
1470331393433156,3,6,6,4,-2,-3,-4,4
1470331393434157,3,-3,-24,-5,-3,-5,-8,-7
1470331393434157,-5,1,-11,1,1,-3,2,-5
1470331393456226,-4,-20,1,-7,-4,4,3,-1
1470331393456226,0,-10,-18,2,0,-2,9,7
1470331393457178,-1,-7,-4,-4,-1,0,-1,-1
1470331393457178,-1,-7,-24,-8,-1,-1,-6,1
1470331393478700,-8,-34,18,-6,-3,-6,-7,-7
1470331393478700,-7,-10,14,16,-1,0,1,1
1470331393479698,4,19,2,-2,-1,0,2,6
1470331393479698,4,-1,7,-7,-1,-2,3,-2
1470331393493211,2,7,-14,0,4,1,2,3
1470331393493211,1,9,49,40,-3,-4,-5,-4
1470331393493711,-5,-29,-46,-35,-3,1,-3,0
1470331393493711,-2,0,20,0,0,0,-3,1
1470331393516307,0,13,-22,-1,-2,-2,0,-2
1470331393516307,-7,-52,16,-33,-2,0,-3,-4
1470331393517234,-2,7,27,47,0,1,-1,-3
1470331393517234,2,18,-6,-15,-6,-4,-2,-1
1470331393538795,-1,-2,0,-8,-1,-1,-3,-2
1470331393538795,0,8,-13,-15,-1,-1,-1,-3
1470331393539290,-1,-6,2,5,1,-1,1,-1
1470331393539290,-4,-10,-14,-6,-1,0,-2,1
1470331393553365,5,-3,15,15,-1,-4,0,1
1470331393553365,1,16,-21,-10,-2,3,0,-2
1470331393553765,0,-17,12,-9,-2,-1,0,0
1470331393553765,3,3,13,19,3,0,-2,-2
1470331393576312,1,0,-13,-2,-3,-1,-2,-1
1470331393576312,-3,-4,-7,-1,6,1,-1,-2
1470331393577419,-1,-3,-2,2,-7,-2,-3,-2
1470331393577419,-4,0,-1,-2,4,-1,-2,-3
1470331393598834,0,7,23,4,-3,-1,-1,-2
1470331393598834,-6,-31,-30,-13,-3,-3,-3,-3
1470331393599313,0,19,35,-5,-1,-2,-1,0
1470331393599313,0,-5,-40,0,-5,-3,-2,0
1470331393613370,-1,-7,-1,1,4,-1,-3,-1
1470331393613370,0,8,36,6,-1,0,-1,-2
1470331393613826,-2,-10,-21,-3,-1,-2,0,-1
1470331393613826,1,-2,2,6,-6,1,0,1
1470331393636379,2,10,-8,-9,-1,1,1,-1
1470331393636379,-3,14,-8,-4,-3,-1,-1,-2
1470331393636839,-1,4,-2,-1,0,-3,-1,-3
1470331393636839,1,3,12,-1,2,1,-2,1
1470331393658920,-3,-7,-22,0,-1,1,-3,-1
1470331393658920,2,4,11,-4,-3,0,-1,1
1470331393659860,0,8,8,8,3,2,2,1
1470331393659860,-4,-13,-31,-4,-1,0,-1,-2
1470331393672927,-3,-3,-7,-9,-5,-5,-2,-3
1470331393672927,-1,3,9,4,-1,1,-1,-2
1470331393673918,-3,-5,-9,-10,-1,1,-2,-2
1470331393673918,1,-3,18,5,1,0,0,0
1470331393696393,-5,-12,5,4,-4,-3,-3,-3
1470331393696393,0,20,-19,-5,1,-2,0,-1
1470331393696893,-4,-20,-13,-2,-2,-2,-1,1
1470331393696893,1,22,32,5,-2,-1,-1,-2
1470331393718913,-2,-5,-21,0,-2,-1,-1,-2
1470331393718913,1,7,9,6,4,0,0,0
1470331393719413,0,-1,-29,-13,-4,-2,-2,0
1470331393719413,-2,0,-2,-12,-3,-2,-2,-2
1470331393732925,1,-5,6,3,8,1,3,0
1470331393732925,0,-8,-13,-1,-3,-1,-1,-1
1470331393733928,2,-5,10,5,1,0,-1,-2
1470331393733928,-1,-1,7,-1,-3,-2,-1,-2
1470331393756446,-1,-10,0,2,-4,0,-1,0
1470331393756446,-5,-6,-42,-13,-1,-1,1,0
1470331393756949,1,17,22,-3,-3,-1,-1,0
1470331393756949,-2,5,7,14,5,-2,-1,-2
1470331393778968,3,0,12,-6,1,2,0,-2
1470331393778968,0,-9,-5,3,0,-1,-2,0
1470331393779467,-1,-9,-12,-5,-2,0,-1,1
1470331393779467,-1,2,-1,-2,-1,-1,-2,1
1470331393793484,-3,4,7,0,-3,-2,-1,-1
1470331393793484,1,-10,-18,0,1,-1,-2,-1
1470331393794020,-3,-1,20,-2,0,-1,-1,-1
1470331393794020,-1,-4,12,3,-2,-2,-2,-4
1470331393816500,-1,9,-6,-2,0,-2,-2,-1
1470331393816500,-2,-13,20,1,-4,-2,0,-1
1470331393817001,-3,-3,-13,4,2,1,0,0
1470331393817001,-4,-6,-11,-4,-2,-2,-1,1
1470331393839021,-1,-1,2,0,-1,-2,-1,-1
1470331393839021,1,4,7,-8,0,1,0,0
1470331393840522,-1,1,9,11,-1,-1,-2,-2
1470331393840522,1,-5,-8,1,-4,1,2,0
1470331393852561,-2,-5,-2,-13,-5,-3,-2,-1
1470331393852561,1,1,-6,5,1,-1,-1,-1
1470331393861542,8,13,-14,-9,0,-2,-1,0
1470331393861542,-10,-15,22,9,-1,0,-1,0
1470331393876574,8,12,-8,-5,3,-1,-1,-2
1470331393876574,-7,-2,-13,-1,-2,-1,-2,-1
1470331393878076,3,9,-11,-10,-3,-2,-1,1
1470331393878076,-13,-38,-4,1,-3,-2,-2,-2
1470331393899076,-7,-4,18,8,-2,-1,0,-2
1470331393899076,4,-21,16,4,-3,-3,-2,-4
1470331393900576,-3,-1,-13,-3,3,2,0,-1
1470331393900576,7,4,-20,-11,-2,-1,-1,2
1470331393912591,-1,-4,3,-2,-3,-1,-3,0
1470331393912591,0,6,2,-1,-4,0,-1,1
1470331393921596,2,-15,6,8,-1,-1,-1,0
1470331393921596,-9,21,0,-5,1,1,0,-3
1470331393936609,0,-7,-5,-4,-2,-1,-2,-1
1470331393936609,4,-3,-3,-3,-1,-2,-1,-1
1470331393938111,-7,2,-2,-2,0,-2,-1,-1
1470331393938111,7,8,4,-2,0,0,-1,1
1470331393958661,-1,-2,-9,1,-2,-3,-1,0
1470331393958661,0,15,-1,-2,-2,0,-1,-2
1470331393960636,0,-11,3,0,-1,-2,-1,-1
1470331393960636,2,0,-1,-2,0,-2,-1,-1
1470331393972644,-3,3,-7,2,-1,0,0,0
1470331393972644,-3,0,-5,-2,-2,-2,-1,1
1470331393981653,-3,-5,20,1,-2,-2,-2,-6
1470331393981653,2,15,-63,-6,-2,0,0,1
1470331393996209,-1,9,12,0,-1,-3,-1,-1
1470331393996209,0,0,2,-3,-1,-3,-1,-1
1470331393998167,1,0,-6,1,-2,-1,-1,-1
1470331393998167,-1,-8,15,6,1,-2,-1,-3
1470331394018724,-6,-23,-12,-2,0,1,1,-1
1470331394018724,1,4,-6,-6,-5,-2,-3,-1
1470331394020684,-4,-2,8,-2,-5,0,-2,-1
1470331394020684,7,-7,4,4,1,0,-1,-2
1470331394032703,-4,4,-4,-5,2,2,0,0
1470331394032703,-8,-16,7,-5,-4,-2,-1,-1
1470331394041703,2,0,-17,0,3,-1,-1,0
1470331394041703,1,4,9,0,-4,-1,0,-1
1470331394056256,4,0,-4,4,0,-1,-1,0
1470331394056256,-1,0,-6,-2,-2,-1,-2,-2
1470331394057731,-2,-1,-4,-7,-1,-2,-1,-3
1470331394057731,-4,-6,-1,-3,-2,-2,-2,-3
1470331394078782,0,3,-4,-1,-2,-1,-1,0
1470331394078782,-3,5,-5,5,-1,-1,0,1
1470331394080257,-2,-5,-4,1,4,0,-1,0
1470331394080257,1,4,7,-5,0,0,-2,-1
1470331394092303,-3,0,1,-1,-4,-2,0,-3
1470331394092303,0,-2,14,-1,-3,-2,0,-2
1470331394101263,-2,0,4,5,0,-2,0,0
1470331394101263,-1,-6,-8,-2,2,-3,-1,0
1470331394116325,-2,0,-4,-4,-5,-3,-1,-2
1470331394116325,-9,17,9,5,0,-2,-1,-2
1470331394117815,12,-10,1,-2,-2,0,-1,-1
1470331394117815,-15,-1,4,4,-2,-3,-2,-1
1470331394138794,4,-15,0,3,1,-1,-2,1
1470331394138794,2,5,-4,-13,0,0,0,-1
1470331394140292,0,0,-15,-7,-6,-4,-1,-1
1470331394140292,-17,-9,15,-1,3,2,0,1
1470331394152303,10,14,-1,2,-3,-2,-1,0
1470331394152303,-5,-4,-9,0,-1,-1,-1,0
1470331394161310,-1,-10,3,4,1,-3,-1,-1
1470331394161310,12,21,-1,0,-1,-1,0,-1
1470331394176324,-10,-4,11,0,0,1,0,-2
1470331394176324,2,-20,-2,-5,-1,1,1,1
1470331394177850,-4,14,7,-5,-7,-1,-2,-4
1470331394177850,7,7,-3,1,0,-1,0,1
1470331394198845,-4,-9,-9,11,-1,-1,-1,-2
1470331394198845,1,-8,-6,-11,3,-1,-1,-1
1470331394200347,-8,0,0,3,0,0,-1,-1
1470331394200347,-4,-25,-15,-2,0,0,-2,-2
1470331394212390,-4,-11,5,-5,-2,-1,-1,1
1470331394212390,2,3,-28,2,-2,-2,-1,1
1470331394221379,-7,-1,1,-7,-1,-2,-1,-1
1470331394221379,5,11,8,-2,-3,0,-1,-1
1470331394236409,0,-1,5,3,1,-2,0,1
1470331394236409,-2,-10,10,4,-1,-3,-1,-1
1470331394237882,-3,-14,-12,-2,1,0,1,-1
1470331394237882,1,-6,3,1,-5,-1,1,-1
1470331394258948,1,2,-4,-9,-1,1,0,-2
1470331394258948,4,7,-6,4,2,1,-1,-3
1470331394260399,0,-7,17,3,0,-2,-1,-1
1470331394260399,-12,17,15,-2,-2,-3,-3,1
1470331394272440,0,-2,-18,1,-1,-3,-3,-1
1470331394272440,-1,-14,-5,-3,1,1,1,1
1470331394281472,5,11,1,0,2,2,1,3
1470331394281472,-2,-2,3,-11,-4,-3,-1,-3
1470331394296444,-3,11,3,2,3,0,-1,-3
1470331394296444,2,11,-3,4,-3,-2,-2,-1
1470331394297951,-2,-27,10,1,-3,-2,-2,-1
1470331394297951,-2,2,-8,-4,-2,-1,-2,-2
1470331394318952,-1,-10,1,-5,-3,-3,-1,-2
1470331394318952,1,15,3,-1,0,-2,-2,-1
1470331394320458,-5,2,-7,-1,-1,1,0,-1
1470331394320458,2,-4,-5,1,0,0,0,1
1470331394332519,-4,-2,0,-3,0,-1,0,0
1470331394332519,-2,-2,9,0,-3,-1,-2,-1
1470331394341474,-2,9,-5,-3,-2,-2,0,-2
1470331394341474,5,-9,-4,3,-1,1,1,-1
1470331394356485,-3,11,-9,-2,-2,0,-1,-2
1470331394356485,-3,0,16,-5,-4,-1,1,-1
1470331394357987,-3,-12,-43,-4,1,-1,-2,-1
1470331394357987,2,-7,11,0,1,1,-1,1
1470331394379013,-3,2,12,3,-5,-2,-3,-3
1470331394379013,-3,8,0,-3,-5,-4,-1,-4
1470331394380506,-2,-7,3,2,1,1,-1,-1
1470331394380506,-1,3,1,6,0,-2,-1,-3
1470331394402072,1,7,-7,-17,2,2,-2,0
1470331394402072,0,-13,-3,5,2,-1,-1,0
1470331394403530,-1,15,-5,-7,-3,-4,-2,-1
1470331394403530,-1,6,-2,-3,-3,-2,-2,0
1470331394416539,-1,-2,8,17,6,2,1,-1
1470331394416539,-3,-26,-1,-1,-1,0,-2,-2
1470331394418106,4,21,-17,-1,-2,-1,-1,2
1470331394418106,7,-1,2,1,-2,-3,-1,-2
1470331394438602,-20,-1,-4,-10,-4,-3,-2,-5
1470331394438602,10,-11,-7,-2,1,-1,-1,0
1470331394440561,-4,7,2,2,-2,-3,-3,-1
1470331394440561,4,0,-12,-4,-1,-2,0,0
1470331394461580,4,1,-2,-3,-3,-2,-1,0
1470331394461580,-7,11,22,8,2,0,1,0
1470331394463082,2,-9,4,-1,0,-1,0,0
1470331394463082,0,0,0,-8,-5,1,-1,-2
1470331394476145,0,-3,-11,2,3,0,-1,-1
1470331394476145,-2,6,-6,1,-2,0,-2,-2
1470331394478094,2,-6,13,-4,-2,0,-1,-1
1470331394478094,-6,-10,-10,2,0,-1,-1,-2
1470331394498667,1,1,3,-3,-7,-4,-1,2
1470331394498667,-4,-14,-5,-3,-2,-3,-3,0
1470331394500615,-3,7,2,1,2,1,0,0
1470331394500615,0,-3,4,1,-4,-2,-1,0
1470331394521634,1,-14,-5,-9,-4,0,-1,-1
1470331394521634,-1,8,6,3,0,-1,0,0
1470331394523136,-1,10,-1,3,-1,0,0,-3
1470331394523136,-2,-5,-1,0,1,1,-1,0
1470331394535683,4,3,9,5,-3,-3,0,-1
1470331394535683,-1,-1,-9,1,-2,0,0,1
1470331394542652,-1,-15,-19,-7,-3,0,1,-2
1470331394542652,-2,3,0,1,3,1,0,-2
1470331394558709,5,2,-4,0,-1,-1,-1,0
1470331394558709,0,0,0,-4,-1,-2,0,-2
1470331394560674,-12,6,6,-2,-3,-1,-2,-1
1470331394560674,4,-1,-11,1,0,-2,0,1
1470331394581188,-2,-1,-9,-7,-1,0,0,0
1470331394581188,1,7,38,4,-4,-2,-2,0
1470331394583190,2,-9,2,6,1,-3,0,-2
1470331394583190,-4,10,-6,-10,-1,1,-2,-4
1470331394595701,-3,-2,6,3,-3,-1,-2,-2
1470331394595701,-1,-16,-37,-10,0,-1,0,-1
1470331394602708,2,1,0,1,-1,1,-1,-1
1470331394602708,-2,-6,15,3,-2,1,-3,1
1470331394618745,-2,-1,5,-2,-2,0,-1,-2
1470331394618745,-1,9,-2,5,2,2,0,-2
1470331394620222,-2,-10,2,2,1,0,0,1
1470331394620222,-3,-14,-3,-10,1,-1,0,-2
1470331394641267,-1,-2,-18,-1,0,-2,-1,0
1470331394641267,3,30,9,4,-1,0,-2,0
1470331394642742,1,7,2,-4,-5,-1,-1,-1
1470331394642742,0,-4,8,1,2,1,-1,-1
1470331394655769,2,8,11,2,-2,0,-1,1
1470331394655769,-3,-4,-10,-12,-2,-2,-2,-1
1470331394662767,1,-17,-4,0,1,-2,-1,-1
1470331394662767,-2,-5,-29,0,-5,-2,-1,0
1470331394679282,-8,-17,-4,-5,-2,-2,-3,-2
1470331394679282,1,-4,12,-5,-1,2,-1,-2
1470331394680332,1,10,18,4,-2,0,-2,-1
1470331394680332,-3,-3,-29,-2,-2,-4,-2,-2
1470331394700335,-1,-15,-2,-4,6,3,3,2
1470331394700335,-2,11,9,11,0,-4,-2,-1
1470331394708805,-1,-4,-7,2,1,0,-1,1
1470331394708805,-2,2,7,-4,-3,-3,-2,-3
1470331394715842,2,9,-2,4,4,0,0,-1
1470331394715842,0,-16,2,-8,-2,0,0,0
1470331394722367,-4,-4,-58,-11,-2,-1,0,-3
1470331394722367,-2,-12,2,4,-1,0,-1,-2
1470331394738876,-3,12,-1,7,-2,-3,-3,-2
1470331394738876,-3,-33,20,-1,1,1,0,-1
1470331394740334,-3,-6,3,0,-2,-1,-2,-1
1470331394740334,-1,3,16,6,1,-1,-1,-1
1470331394761404,-1,-5,-26,-12,-2,-1,-1,1
1470331394761404,-1,-1,-5,6,-1,-1,0,-2
1470331394762852,1,2,21,0,-2,-1,-1,-1
1470331394762852,0,10,9,17,0,-1,1,1
1470331394775863,-3,-2,-5,-9,2,-2,-3,-4
1470331394775863,1,12,-7,-4,-1,0,-2,0
1470331394782372,0,2,-18,-12,-2,-1,-1,-1
1470331394782372,2,10,21,-13,-3,-1,-3,1
1470331394798887,-2,-10,-4,13,4,0,0,-3
1470331394798887,1,13,-2,5,-1,-2,2,-1
1470331394800385,-6,-16,-22,-8,-3,1,-1,0
1470331394800385,0,22,6,-7,-3,-3,-1,-1
1470331394821420,1,-10,3,-2,-1,-4,-1,-2
1470331394821420,-1,-17,-20,-5,-1,-1,-1,-1
1470331394822907,-1,7,37,6,0,1,0,0
1470331394822907,1,7,-6,-5,-3,-2,-1,-3
1470331394835916,2,-5,1,-7,-5,-1,1,2
1470331394835916,-4,4,3,2,-3,-2,-3,-2
1470331394842464,2,7,-5,2,1,-2,-1,-3
1470331394842464,-4,-43,11,-2,3,3,-3,1
1470331394859015,3,8,-3,6,-5,-2,-2,-2
1470331394859015,-6,-10,-8,-2,2,0,-1,-1
1470331394860441,-3,-8,20,1,-2,-2,0,-1
1470331394860441,-1,13,-29,-7,3,1,1,1
1470331394881457,1,18,28,8,-5,-1,-1,2
1470331394881457,0,11,-22,-24,-8,-1,-3,-1
1470331394883017,-1,-4,11,16,12,1,-1,-1
1470331394883017,1,-3,-7,-3,-3,0,-1,-1
1470331394895024,-3,-3,1,-5,-2,-3,-3,-2
1470331394895024,1,7,-9,3,-3,-2,1,0
1470331394903982,2,5,-4,-7,-4,-2,-3,0
1470331394903982,-3,-4,0,5,-1,-2,-1,-1
1470331394918992,4,17,46,4,0,0,1,2
1470331394918992,-8,-29,-56,-5,-1,-2,-2,-2
1470331394920492,2,2,12,4,-1,-1,-2,-2
1470331394920492,0,-7,0,1,1,-1,0,0
1470331394941510,-3,-8,-11,-9,-2,-1,-1,-2
1470331394941510,1,11,17,9,3,-1,-1,-1
1470331394943038,-1,-4,-4,-4,-2,-2,0,-1
1470331394943038,-2,20,-22,-10,-8,-3,-1,-1
1470331394955081,-1,-1,0,4,2,3,1,-2
1470331394955081,1,2,27,-1,2,3,0,0
1470331394964032,-2,-13,-26,-4,1,0,-1,-2
1470331394964032,0,-9,11,2,-1,-2,0,-2
1470331394979063,0,6,-12,-11,-2,-1,0,0
1470331394979063,-1,-8,-1,1,-4,-1,-1,-2
1470331394980559,-1,-8,1,-1,-3,-3,-1,-2
1470331394980559,-2,3,10,-7,-2,-1,-1,-1
1470331395001585,-4,5,-8,7,1,0,-1,1
1470331395001585,-2,-16,2,3,0,-2,0,0
1470331395003066,0,11,0,-8,-5,-2,-2,-1
1470331395003066,1,4,-10,9,5,0,1,2
1470331395015077,0,-4,-4,-16,-5,-1,-2,-1
1470331395015077,2,-17,19,8,1,-3,-1,-1
1470331395024085,0,31,4,5,1,0,1,2
1470331395024085,-1,-6,7,6,-3,-2,-2,-1
1470331395039099,-4,-12,-46,-1,1,-2,-1,-4
1470331395039099,2,-4,15,-8,0,0,0,1
1470331395040600,1,5,0,5,2,2,1,-1
1470331395040600,-1,-13,-15,-11,2,1,0,-2
1470331395061173,-3,-1,26,20,-1,-3,-2,-2
1470331395061173,2,14,-9,2,1,-1,1,1
1470331395063155,-1,7,7,-5,-2,-1,-1,-1
1470331395063155,-1,-5,-2,0,-2,0,-1,0
1470331395075130,-2,-9,7,-12,-3,-1,-1,-2
1470331395075130,-5,8,-22,-1,-3,-3,-3,-3
1470331395084139,-4,-11,5,0,-1,-1,-3,0
1470331395084139,-2,-15,8,3,0,0,-1,0
1470331395099152,1,7,0,2,1,0,0,2
1470331395099152,-2,-5,-5,-5,-2,-2,-1,-2
1470331395100202,1,15,5,-3,-5,-3,-3,0
1470331395100202,-2,-16,-9,-5,0,0,0,-1
1470331395121216,1,9,13,-5,-5,-2,-1,-3
1470331395121216,1,-6,5,-1,-2,2,0,0
1470331395123174,-3,-9,-29,-10,-3,-1,-2,-1
1470331395123174,1,-9,-2,15,0,-4,0,-2
1470331395135205,1,36,30,-13,3,1,-1,-2
1470331395135205,-3,14,-27,-7,-1,0,0,-1
1470331395144193,-3,-9,11,5,-6,-4,-3,-2
1470331395144193,-2,8,20,2,-2,-2,-4,-2
1470331395159206,0,-4,-14,-5,-1,0,1,1
1470331395159206,-2,12,-6,0,-2,0,-1,-1
1470331395160225,-2,-1,18,-2,-1,-2,-2,-2
1470331395160225,3,25,-28,0,0,-1,1,0
1470331395181281,-1,-17,-23,4,-1,-4,-3,1
1470331395181281,1,-4,30,4,-1,-1,0,-3
1470331395182728,-2,-14,-16,-7,1,0,1,0
1470331395182728,-3,-1,5,3,1,1,-2,-3
1470331395195256,-2,-14,10,7,1,-1,0,0
1470331395195256,0,6,-20,0,-2,-2,-1,0
1470331395203790,-1,-11,0,-6,0,-2,0,-4
1470331395203790,0,12,11,-1,-3,0,2,0
1470331395218815,-4,-15,-27,-4,-1,-2,0,-1
1470331395218815,-1,-15,18,-1,1,-1,-2,0
1470331395220261,1,-3,14,13,0,-1,0,0
1470331395220261,0,13,-13,-18,-5,-2,0,1
1470331395241302,1,-7,4,3,-3,-1,-2,-1
1470331395241302,-2,-4,-18,-3,-4,-2,-1,0
1470331395242808,-1,7,-4,-1,0,-1,-1,-2
1470331395242808,-3,-4,-15,-1,4,-1,-1,0
1470331395255317,-1,1,33,19,-4,-2,-2,-2
1470331395255317,0,0,-7,-19,-1,-2,-3,-2
1470331395263802,2,2,-4,-10,-2,1,1,0
1470331395263802,-2,-20,-9,2,-3,-4,-2,-2
1470331395278814,-2,3,-15,-1,-2,0,-1,0
1470331395278814,-2,-19,5,-1,1,-2,-1,-3
1470331395280321,-2,4,-6,-3,0,-1,-2,-1
1470331395280321,2,-6,4,-3,-4,-1,-2,-1
1470331395301373,-1,-1,-9,-9,-3,-1,-1,-3
1470331395301373,2,4,21,24,4,2,0,0
1470331395302835,-1,-8,-22,-5,-2,-1,-1,-2
1470331395302835,-2,-2,5,-5,-1,0,0,0
1470331395314901,-2,-14,-9,-6,-2,-1,0,-3
1470331395314901,-2,7,-7,-4,-2,0,-2,-1
1470331395323854,-3,-10,1,0,-1,-1,0,1
1470331395323854,-3,0,2,1,-1,0,-1,1
1470331395338946,-3,-4,0,4,2,0,-1,-1
1470331395338946,-2,-6,-4,1,0,0,-1,-1
1470331395340386,-1,0,3,0,0,-2,-1,0
1470331395340386,-3,8,-2,-3,-5,-3,-2,-1
1470331395361471,1,-9,-18,-6,2,2,0,-1
1470331395361471,-1,-4,4,2,0,-2,0,-1
1470331395362889,1,3,18,6,-6,0,-2,1
1470331395362889,-2,-16,-8,-3,7,1,0,-3
1470331395383956,-1,1,27,12,-2,-1,0,-2
1470331395383956,0,7,-5,-1,0,0,-1,-1
1470331395385454,0,-14,-23,-10,-3,-5,-1,1
1470331395385454,2,1,6,-9,-5,-1,-2,0
1470331395398970,-3,11,-5,1,-2,0,-1,-1
1470331395398970,1,14,11,-5,5,-1,2,0
1470331395400424,-4,-15,-10,2,-6,1,-1,-2
1470331395400424,2,12,29,-6,-3,-2,-2,-3
1470331395421472,0,0,-20,0,-2,-2,-1,0
1470331395421472,0,1,-9,-5,-6,1,0,1
1470331395422988,1,12,13,5,2,-1,-1,-1
1470331395422988,-1,-7,-7,6,2,-1,0,-1
1470331395443962,1,0,10,0,1,-3,-1,-1
1470331395443962,-2,16,0,-9,-5,-2,0,-3
1470331395445464,0,-10,-27,-5,1,0,-1,-2
1470331395445464,1,5,5,1,-1,0,-1,0
1470331395458982,-3,-5,10,5,2,-1,-1,0
1470331395458982,-1,-14,-11,-9,-5,-2,-2,-2
1470331395460533,-3,2,-8,-3,-3,-2,0,-2
1470331395460533,-2,-6,2,4,2,-2,0,-2
1470331395481495,1,2,-1,-19,-4,1,0,-1
1470331395481495,-6,-10,13,0,-1,-2,-2,-3
1470331395482998,0,-15,-4,6,-1,0,0,2
1470331395482998,-4,3,-1,-3,-1,-2,-2,-3
1470331395504016,-1,5,6,-2,-4,-2,-4,-3
1470331395504016,3,-7,-8,0,-4,-3,0,0
1470331395505546,-2,4,-24,-15,1,-2,0,-2
1470331395505546,0,-8,9,13,-1,-2,1,-1
1470331395518072,0,-10,-23,-18,-4,-3,-1,0
1470331395518072,-1,4,29,9,6,0,-1,1
1470331395525063,-2,2,2,8,-2,-2,-1,-1
1470331395525063,1,4,-6,-7,5,3,-1,1
1470331395541566,1,-10,-12,5,-3,0,0,-1
1470331395541566,-1,5,-5,-8,-4,-1,-2,-3
1470331395543095,0,-1,25,7,2,-1,-1,-4
1470331395543095,-6,-4,-20,-7,-4,-1,-1,-2
1470331395564107,-2,-15,1,2,1,-1,-2,1
1470331395564107,0,3,-17,9,8,1,-1,0
1470331395565573,2,5,14,0,0,1,0,1
1470331395565573,-1,-4,-6,-2,-5,-1,-1,-1
1470331395578122,-4,-7,-12,-4,0,1,-2,-2
1470331395578122,-1,-6,-6,6,-4,-1,-1,-1
1470331395585090,-3,7,8,-12,-3,-1,-2,-2
1470331395585090,-3,-9,-11,5,0,-1,0,-2
1470331395601607,3,22,26,7,0,-1,-1,2
1470331395601607,1,-2,-11,0,-2,-1,-1,0
1470331395603105,-2,1,5,6,5,2,-2,-1
1470331395603105,1,-1,6,0,-5,-2,-2,-1
1470331395624124,-3,0,-14,-3,2,-2,0,-2
1470331395624124,-2,-3,5,-8,-6,-3,0,1
1470331395625658,1,3,3,8,0,-2,-3,-1
1470331395625658,-3,7,-5,7,-1,1,-1,-2
1470331395638137,-2,-6,-20,-25,-2,-2,-1,0
1470331395638137,-1,-2,9,4,-3,0,-1,0
1470331395645143,-2,12,-18,-6,-1,1,1,0
1470331395645143,1,1,12,7,-1,-1,-1,1
1470331395661157,-2,-10,2,2,0,-1,0,-2
1470331395661157,-4,-8,-13,3,-1,-2,-2,-4
1470331395662718,-1,-13,-2,-15,-4,-1,-2,-2
1470331395662718,-1,9,3,-1,0,-4,-3,-1
1470331395684194,-1,-2,1,0,-2,0,-1,1
1470331395684194,-2,-1,3,-1,1,-2,-1,-3
1470331395685680,-2,-4,-10,7,-3,-1,-2,-1
1470331395685680,-3,-8,9,-14,-3,-2,-1,-3
1470331395698224,-2,6,-10,1,0,-2,-2,0
1470331395698224,2,4,6,-1,-1,0,0,0
1470331395704696,1,-2,-1,8,2,0,2,-1
1470331395704696,-1,-6,-11,-8,-3,1,1,0
1470331395721211,1,8,28,13,1,-1,-1,-1
1470331395721211,1,-3,1,1,0,-2,-2,1
1470331395722714,1,-4,4,-4,-4,-3,0,1
1470331395722714,2,2,-9,0,3,-2,-1,-2
1470331395743786,0,1,4,-1,5,2,1,-2
1470331395743786,-3,-16,-5,0,-3,-3,-3,-1
1470331395745233,-2,-9,-26,-14,-1,-1,0,1
1470331395745233,1,5,24,10,0,-2,0,2
1470331395758286,-1,4,9,11,-7,-1,-2,-1
1470331395758286,-3,-10,-24,-10,-2,0,-1,0
1470331395765251,-3,0,5,-8,-3,-2,-2,-2
1470331395765251,3,3,2,-3,6,2,1,-2
1470331395781320,0,-1,-12,-1,1,-1,0,0
1470331395781320,-1,-9,2,-6,0,0,0,-1
1470331395782770,0,7,4,12,-4,-1,-1,0
1470331395782770,-4,-2,20,-10,-6,-2,-2,-1
1470331395803828,0,-10,-17,-2,1,-1,0,-1
1470331395803828,-3,5,28,7,-2,-2,-1,-1
1470331395805287,2,5,-10,2,3,0,-1,0
1470331395805287,-2,-9,-16,-12,-5,-2,0,0
1470331395818305,0,1,6,-4,-1,-2,-1,0
1470331395818305,-1,-4,-25,-12,-5,-2,0,0
1470331395824804,-5,-10,5,12,-3,-2,-1,-3
1470331395824804,-3,-9,-3,-4,-7,-1,-1,-1
1470331395841371,-2,1,-14,-6,0,1,-1,-2
1470331395841371,0,5,12,6,1,0,0,-2
1470331395842820,0,1,8,-10,-2,-1,-1,1
1470331395842820,-1,1,-12,1,-2,-1,-2,-2
1470331395863883,-4,-14,-13,-13,-5,-2,0,-1
1470331395863883,-2,13,15,7,2,1,1,-1
1470331395865341,-1,-6,-20,1,0,-1,-2,-3
1470331395865341,-3,3,26,3,2,-1,-2,-1
1470331395877852,-1,-3,11,3,0,0,-2,-2
1470331395877852,1,8,-12,-9,-2,-1,0,-1
1470331395886360,-2,-1,5,-1,0,1,-1,0
1470331395886360,-1,-7,-24,-3,-4,-2,0,0
1470331395901374,-2,-4,10,-4,-1,0,-1,-1
1470331395901374,0,3,-4,9,-1,-1,-1,1
1470331395902875,-1,3,7,3,0,-1,-2,-3
1470331395902875,0,-2,-6,-5,-1,1,0,-2
1470331395923894,-1,13,15,11,-2,-2,-1,-2
1470331395923894,-5,-12,-25,-9,-4,-2,-2,-2
1470331395925398,0,-9,3,8,5,-1,0,-1
1470331395925398,0,10,10,0,3,1,0,-2
1470331395937407,1,3,-23,6,-4,-2,-1,-1
1470331395937407,-2,-3,0,-26,-1,0,-2,-1
1470331395946414,-2,-3,5,-1,-4,-2,0,-4
1470331395946414,-1,-4,-14,7,3,0,-1,-1
1470331395961462,-1,1,5,0,0,0,1,1
1470331395961462,-5,-13,1,-4,-1,-2,-1,-4
1470331395962928,0,10,8,3,-2,-2,-1,-1
1470331395962928,-2,-9,-19,-2,4,2,-3,-2
1470331395983991,2,11,2,17,-1,-1,-2,-1
1470331395983991,1,-8,-27,-25,-5,-2,-2,-2
1470331395985485,-3,2,10,-9,-5,-3,0,-1
1470331395985485,0,3,4,3,6,0,-1,-1
1470331395997500,-1,-9,-10,-2,-1,-2,-2,-1
1470331395997500,-2,5,7,13,-1,-2,-1,-1
1470331396006467,1,2,10,-4,-3,0,-1,-1
1470331396006467,-2,-2,-7,-3,-6,-3,-2,0
1470331396021481,2,2,11,-6,-1,0,-2,-1
1470331396021481,-5,5,10,1,2,2,-1,-2
1470331396022982,1,2,-2,1,-2,0,0,-1
1470331396022982,-1,-4,4,-5,-1,-1,1,0
1470331396044000,-4,-2,-19,-6,-2,-3,0,1
1470331396044000,0,-4,1,16,-1,-2,0,0
1470331396045502,-2,-7,-6,-11,2,0,-3,-2
1470331396045502,1,-2,41,10,-2,-1,-1,-2
1470331396057610,-5,-11,-71,-23,-6,-4,-2,-2
1470331396057610,2,-3,22,9,-3,0,-1,0
1470331396066565,-4,-11,-15,5,6,0,-3,0
1470331396066565,-1,14,5,0,-2,1,-2,-1
1470331396081560,0,-3,26,3,3,1,-1,0
1470331396081560,-1,1,-14,-2,-1,-2,0,-1
1470331396083081,1,0,-4,-9,-6,0,1,-2
1470331396083081,-1,-6,-11,1,-4,-3,-1,0
1470331396104055,-2,5,22,3,2,1,1,-2
1470331396104055,1,0,-25,1,0,0,-1,-2
1470331396105556,-1,3,0,-7,-2,-2,-1,-1
1470331396105556,-4,-6,35,3,-2,-1,0,-1
1470331396117610,2,16,10,-5,-2,0,-2,-3
1470331396117610,-1,-1,-1,1,1,-1,-2,-1
1470331396126576,1,1,-3,1,-2,-3,-1,2
1470331396126576,-1,-14,-25,-4,2,1,0,0
1470331396141588,-2,-3,26,-3,-2,-2,-2,0
1470331396141588,1,6,4,5,0,-1,-2,0
1470331396143090,-1,0,12,4,2,2,-2,-1
1470331396143090,-1,0,-17,1,-3,-3,-2,-1
1470331396164108,-4,-6,5,1,-1,-1,-1,-1
1470331396164108,1,4,11,-4,0,-2,-2,-3
1470331396165610,-1,-2,-30,-1,-4,-3,-1,-3
1470331396165610,0,3,-3,-3,-2,-1,-1,-2
1470331396177646,-2,-7,-5,0,-2,-2,-1,-1
1470331396177646,-1,-2,-22,-11,0,-1,0,0
1470331396186629,-2,1,39,5,-3,1,-3,0
1470331396186629,0,9,1,9,-1,-3,0,0
1470331396201192,2,0,-6,-3,0,-1,0,1
1470331396201192,-4,-19,-33,-6,-1,-2,-1,-1
1470331396203157,1,1,-5,1,2,2,0,1
1470331396203157,-1,-1,-12,-14,-4,-3,0,-1
1470331396224162,-2,-6,15,11,-1,-2,-2,-1
1470331396224162,1,3,19,12,-1,-1,0,0
1470331396225676,-3,-3,-8,-2,2,-1,1,0
1470331396225676,-2,-6,-19,-15,-6,-2,-3,-1
1470331396237217,0,0,-2,3,1,-1,0,1
1470331396237217,0,2,11,-1,-4,-1,-3,-2
1470331396246684,-1,-1,2,12,2,-1,-2,0
1470331396246684,-1,0,-36,1,-1,-2,0,-1
1470331396261239,0,-1,33,-5,-2,0,0,-1
1470331396261239,-4,0,-25,-7,0,-1,0,-2
1470331396262740,-2,0,-7,-2,-3,-3,-1,-2
1470331396262740,2,2,4,6,-1,-1,0,-1
1470331396283771,0,11,-21,1,1,0,-2,-2
1470331396283771,-4,-3,18,-13,-2,-2,-1,-3
1470331396285224,1,-1,-8,-17,-5,-2,-2,-1
1470331396285224,-2,1,-3,8,2,2,0,1
1470331396306293,-1,-7,-4,0,-3,-2,0,-4
1470331396306293,-2,6,14,9,-2,1,0,2
1470331396307738,-4,-3,-14,-2,-1,-2,-1,-2
1470331396307738,0,-7,13,-7,-2,-2,-1,-1
1470331396321250,-1,0,0,2,0,-1,-3,-1
1470331396321250,-1,-5,-17,-2,0,-1,0,0
1470331396322755,2,5,12,0,0,-1,0,-1
1470331396322755,-2,-9,2,-3,-3,0,-2,-1
1470331396344270,0,4,-22,1,2,1,1,-3
1470331396344270,-1,6,29,2,-4,-3,-1,0
1470331396345772,0,-16,0,3,-3,-1,-2,0
1470331396345772,-1,12,-11,-4,3,-1,-1,0
1470331396366291,-2,10,28,4,-2,-1,-1,0
1470331396366291,-1,-4,-53,-31,-6,-2,0,-2
1470331396367793,-1,0,27,21,-4,-1,-2,-1
1470331396367793,-2,-8,-4,-22,-1,0,-2,-3
1470331396381308,0,-8,-2,8,3,2,-2,1
1470331396381308,1,5,10,9,-1,0,-2,0
1470331396382810,-4,-5,-8,-12,-1,1,-2,-2
1470331396382810,-2,-3,-10,-3,-4,-3,-2,-2
1470331396404328,-2,1,-1,2,3,-3,-1,-1
1470331396404328,0,-6,-4,2,1,0,-1,1
1470331396405940,-2,-1,4,-8,-3,-2,1,-3
1470331396405940,0,-2,14,8,7,1,-2,1
1470331396426377,-3,-9,-17,-10,-5,-2,-1,-2
1470331396426377,0,-4,3,4,-1,1,-2,0
1470331396427845,-2,-10,-2,-2,2,1,2,-2
1470331396427845,0,2,-3,-2,-5,-2,-1,-1
1470331396440857,-2,-16,19,-3,-4,-2,-2,-1
1470331396440857,-1,-1,-21,-1,3,-2,-1,-2
1470331396447363,0,3,12,3,2,-2,-1,-2
1470331396447363,-1,0,15,8,-3,0,0,-1
1470331396463882,-5,-25,-25,4,1,0,-1,0
1470331396463882,4,15,27,-16,-4,-3,-1,-1
1470331396465380,2,7,-3,18,6,1,-1,0
1470331396465380,0,3,-6,-10,-3,-4,-2,-1
1470331396493943,-2,1,-9,0,-4,0,-1,0
1470331396493943,-2,-6,5,0,-1,0,-2,-1
1470331396495407,1,5,-26,-17,-6,-2,-1,-2
1470331396495407,-3,1,24,9,-1,-2,-1,-3
1470331396500924,5,1,-1,-9,-2,0,1,-2
1470331396500924,-1,4,-2,12,3,0,1,0
1470331396507491,-2,0,-11,-9,-1,-1,-1,-1
1470331396507491,0,-4,-11,-12,-4,0,-1,0
1470331396523954,-3,2,-9,5,-2,-4,-1,-1
1470331396523954,0,-3,20,-4,-1,-1,-1,-1
1470331396525474,-2,-3,-4,0,-4,0,1,-1
1470331396525474,1,2,3,2,2,-2,-1,0
1470331396546452,-3,-4,-2,2,-2,-2,-2,-2
1470331396546452,2,4,-8,-5,1,0,-2,-1
1470331396547958,-2,-7,-2,-4,-1,-1,-1,0
1470331396547958,-3,7,-3,-2,-3,-1,-2,-2
1470331396560969,0,4,11,-5,-1,-1,-1,0
1470331396560969,-2,-8,8,10,0,0,1,-1
1470331396567474,-1,-3,-6,-8,-5,-1,-1,-1
1470331396567474,-1,-2,-10,4,-1,0,-1,1
1470331396584016,-4,-8,7,2,3,0,-1,-2
1470331396584016,-2,-1,-6,-6,-3,-2,0,-2
1470331396585516,2,2,12,10,-2,0,-1,-1
1470331396585516,-3,-8,-7,-15,-1,-1,-1,-2
1470331396605505,1,8,-5,-6,-7,-2,-1,0
1470331396605505,-2,-5,13,4,12,3,-1,1
1470331396614013,-3,-2,0,11,1,-2,0,-1
1470331396614013,-1,-3,0,-6,-1,0,-1,-1
1470331396620567,-2,6,-13,-5,-2,0,0,0
1470331396620567,-1,-1,-3,-3,-6,-2,-2,-2
1470331396627566,-2,4,8,2,0,-2,-2,0
1470331396627566,0,-1,-3,9,-1,-2,-1,-4
1470331396644082,-2,1,1,-10,0,-3,0,0
1470331396644082,-2,-7,-29,3,-2,-2,-2,-2
1470331396645541,0,1,20,5,1,0,-2,-1
1470331396645541,0,-4,-8,-10,-5,0,-1,-1
1470331396666559,-1,-2,3,-4,-2,-1,-1,-3
1470331396666559,1,3,2,4,0,-1,1,-1
1470331396668066,-2,0,-8,-1,0,-2,-1,0
1470331396668066,-3,-6,-10,1,3,-1,-1,-2
1470331396681125,1,3,4,-10,-2,0,0,-2
1470331396681125,-1,-3,5,0,0,-3,-2,-1
1470331396687579,-4,-5,-2,0,-3,-2,-2,-1
1470331396687579,-3,-7,-3,-5,-3,0,0,-1
1470331396704106,-1,2,-5,4,3,1,0,1
1470331396704106,-2,-5,7,-1,-1,-3,-1,-1
1470331396705595,-1,-7,-17,-7,2,1,0,0
1470331396705595,0,0,15,17,-1,-1,-2,-1
1470331396726614,-3,-9,-3,-11,-3,-1,-3,-2
1470331396726614,0,1,2,-7,-4,0,-1,-1
1470331396728172,0,6,6,1,0,-1,0,-3
1470331396728172,-1,-4,-8,-5,-3,-2,-1,1
1470331396740673,-5,-8,-1,8,-3,-2,0,-2
1470331396740673,-1,20,10,10,-2,0,-1,-1
1470331396747667,-1,-8,-25,-13,0,0,-1,0
1470331396747667,-1,1,14,6,-3,-1,0,0
1470331396764147,0,7,5,-2,3,1,1,-2
1470331396764147,0,-9,-21,-3,0,-1,-3,0
1470331396765649,0,-2,5,-2,-2,-2,-1,-1
1470331396765649,-1,1,-13,-4,-2,-1,-1,-2
1470331396786668,0,-2,-3,11,0,-1,-3,-1
1470331396786668,-2,-10,6,-6,3,0,0,0
1470331396788170,1,16,-1,1,-3,-1,-1,0
1470331396788170,0,-1,-12,6,3,-1,-1,1
1470331396800279,0,-3,-2,-6,-3,-3,-2,-2
1470331396800279,-1,2,8,-1,-2,-1,-2,0
1470331396809187,-3,4,7,-4,-2,-3,-2,-2
1470331396809187,-1,-1,-12,-1,-1,-2,0,-2
1470331396824253,0,7,-11,2,1,-1,-1,1
1470331396824253,-3,-6,12,5,-2,-1,-1,-1
1470331396825724,0,0,-6,-8,0,-2,-2,-1
1470331396825724,0,4,5,7,0,0,0,0
1470331396846263,-1,-1,0,-4,-1,-1,-1,1
1470331396846263,-3,-4,5,2,-1,-1,-1,0
1470331396847722,-2,-12,-7,-1,-1,0,0,-2
1470331396847722,0,7,6,3,-1,0,1,-1
1470331396860234,0,1,8,3,-2,-1,-1,-1
1470331396860234,0,-1,-1,-2,0,-1,-1,-2
1470331396869272,0,-10,-20,-9,-3,-1,-1,-2
1470331396869272,-4,-5,-1,0,0,-1,-1,-2
1470331396891317,-3,-3,-3,1,-2,-1,0,-1
1470331396891317,2,5,9,-7,-7,-3,-1,-2
1470331396893277,1,3,-9,-8,0,1,0,0
1470331396893277,-1,-5,-13,0,-1,-2,-2,0
1470331396906290,0,2,0,-7,3,-1,-2,1
1470331396906290,3,-7,-1,11,-2,-1,1,-1
1470331396907777,-7,-2,9,-1,-2,-2,-1,-1
1470331396907777,8,-5,-8,-2,0,0,0,3
1470331396920288,-11,1,5,0,0,0,-1,-3
1470331396920288,-15,-3,-24,-3,-1,0,-3,-4
1470331396929296,10,-2,9,-2,-1,-2,-2,-3
1470331396929296,-4,-10,2,-5,-1,-1,-1,-2
1470331396943862,8,11,-4,7,-1,0,0,2
1470331396943862,13,2,8,10,5,2,1,1
1470331396945352,-22,-4,1,-1,-1,-1,0,-2
1470331396945352,-3,5,7,3,-1,-3,-3,-2
1470331396966371,5,-9,-23,-19,-6,-2,-2,-2
1470331396966371,-2,-1,-14,-2,-4,-1,0,1
1470331396967831,0,-5,1,7,1,1,0,1
1470331396967831,-4,1,14,-4,-1,-1,-1,-1
1470331396980342,-3,4,-1,4,-2,-4,-1,-1
1470331396980342,2,2,-11,-12,-3,-2,-1,-1
1470331396988849,3,0,4,4,2,-1,0,-1
1470331396988849,-7,-6,-22,-4,-2,1,-2,-2
1470331397003904,4,6,13,6,0,2,-2,-1
1470331397003904,-3,-15,2,0,-1,-1,-1,-2
1470331397005422,-1,13,7,2,-4,-1,-1,-1
1470331397005422,0,-1,0,0,0,-1,-1,-1
1470331397026388,2,-5,-4,-4,0,-1,-2,-3
1470331397026388,-1,1,3,-2,-2,1,0,0
1470331397027889,-1,-2,-17,-4,-2,-1,-1,1
1470331397027889,0,2,6,-1,-2,-2,0,0
1470331397039919,-5,-8,-36,-2,-1,-2,-2,1
1470331397039919,-1,4,28,1,3,0,-1,-1
1470331397048903,1,-4,-17,3,-3,-2,-2,0
1470331397048903,2,3,0,-1,0,0,-1,0
1470331397063960,-2,-3,26,5,-1,1,1,-2
1470331397063960,-3,-1,-19,1,-2,-1,-2,-2
1470331397065428,7,0,23,1,-1,-2,0,0
1470331397065428,0,-1,-13,0,-1,-1,-2,0
1470331397086489,-6,-9,-4,-14,-1,-2,-1,-2
1470331397086489,-1,2,0,1,2,0,-1,-1
1470331397087981,-2,-4,1,-6,-2,0,-1,-1
1470331397087981,-2,2,9,0,1,0,0,-2
1470331397099992,0,-2,9,2,-2,-1,-2,-1
1470331397099992,-2,-1,-5,-2,-1,1,0,0
1470331397108961,-2,0,6,0,-3,-1,-1,-1
1470331397108961,-1,-4,-20,-2,-2,-1,-1,0
1470331397123994,1,-1,2,1,0,0,-1,2
1470331397123994,-2,-3,9,-9,-2,-3,-2,-2
1470331397125487,-2,1,2,6,1,0,-1,-1
1470331397125487,-1,3,9,-6,-2,-1,-1,-2
1470331397146490,-1,-4,-16,0,1,-3,-1,-2
1470331397146490,2,0,-9,-5,-4,-3,-1,1
1470331397147992,-1,-2,1,-5,1,0,0,-1
1470331397147992,0,-4,11,-6,1,-1,-2,-2
1470331397160027,-5,-1,1,23,2,-1,0,-1
1470331397160027,0,-1,-15,-25,-1,0,-1,-2
1470331397169070,1,1,-8,0,-3,-2,-1,-1
1470331397169070,-1,-2,0,0,-3,0,0,-2
1470331397184076,0,1,-3,-9,-2,0,-1,0
1470331397184076,-4,-3,-2,10,-4,-4,0,-1
1470331397185530,1,-3,1,-2,0,-3,-2,2
1470331397185530,-5,-2,4,2,-2,-1,-2,-1
1470331397206545,0,-4,-1,-3,2,1,-2,-3
1470331397206545,-1,-2,6,13,0,-1,0,-1
1470331397208046,1,9,0,0,-3,-1,-1,-1
1470331397208046,0,-3,-4,-6,0,-1,-1,1
1470331397220058,0,4,11,4,-3,-2,-2,1
1470331397220058,1,-2,-15,-1,-1,-2,0,-2
1470331397229065,-3,-6,8,-10,0,1,-2,-3
1470331397229065,2,4,-5,2,0,-1,-2,-1
1470331397244078,-3,13,7,-4,-2,-1,-1,-3
1470331397244078,-5,-5,-5,3,-1,0,-1,-2
1470331397245580,-1,-8,0,6,-2,-2,-2,-1
1470331397245580,1,0,2,-2,-2,-3,1,0
1470331397266621,1,0,-5,-14,-6,-2,-1,-2
1470331397266621,1,5,15,14,4,0,0,0
1470331397268099,-2,0,-12,-3,5,1,-2,-2
1470331397268099,-1,-5,-8,-4,-3,0,0,-2
1470331397289118,1,-5,-4,-1,-2,-1,-1,0
1470331397289118,-1,2,-4,-15,-4,0,-3,-1
1470331397290620,-2,0,-3,2,-1,1,-1,-3
1470331397290620,-2,-1,15,11,1,-1,0,0
1470331397304132,0,-4,-9,-7,-3,-2,-1,-2
1470331397304132,-3,0,-6,1,1,-1,-2,-2
1470331397305681,2,-1,-13,-3,-4,-3,-1,1
1470331397305681,1,-1,2,6,6,0,-3,-1
1470331397326197,-1,-2,-6,-12,-2,0,0,0
1470331397326197,-7,-5,10,8,3,-2,0,-1
1470331397328208,-1,-1,-2,1,-2,-2,1,-3
1470331397328208,-4,-2,-5,-5,-3,-1,1,-1
1470331397349193,4,-4,7,5,2,-1,0,-1
1470331397349193,4,0,-3,-7,0,-1,-3,1
1470331397350677,-2,9,3,0,0,-1,-1,0
1470331397350677,0,-6,3,-2,-4,-2,1,-1
1470331397363728,-2,3,4,0,0,-1,-1,-1
1470331397363728,1,0,2,7,-2,0,1,-1
1470331397365690,-2,-9,-7,-15,0,0,-1,-1
1470331397365690,-2,0,-10,-3,-2,-2,-3,0
1470331397386207,-1,1,10,8,1,0,-1,-1
1470331397386207,-2,-8,-3,-4,-2,0,-1,-1
1470331397388208,-3,-1,-12,-4,0,-1,-2,0
1470331397388208,0,-3,2,-4,-2,-1,-2,-2
1470331397408731,-4,-1,-18,2,0,-1,-3,-2
1470331397408731,-1,2,21,-4,-3,-1,-1,0
1470331397410228,2,0,8,2,-3,-2,1,-2
1470331397410228,-1,0,-17,-8,0,-1,-2,1
1470331397423239,-1,-6,7,2,-3,-1,-2,-2
1470331397423239,1,-1,-13,-1,-2,0,-3,-2
1470331397430246,-3,-4,-2,-1,-3,1,0,-1
1470331397430246,-2,2,8,4,-2,-2,0,-1
1470331397446261,-1,-7,-4,2,1,-1,0,-1
1470331397446261,0,1,-3,-2,-2,-3,-1,-1
1470331397447762,-1,-6,4,3,-1,-1,-2,0
1470331397447762,-1,3,-1,-5,4,1,-1,-1
1470331397469280,-2,-4,-3,1,1,-1,0,0
1470331397469280,-1,4,2,11,-2,-4,-3,-2
1470331397470281,0,-6,-13,-24,-2,-2,0,0
1470331397470281,-2,4,18,5,-2,-2,-1,-1
1470331397483341,-1,1,-11,-9,-4,-1,0,-1
1470331397483341,0,-2,-2,-2,1,1,0,0
1470331397489818,-3,0,-1,10,-2,-2,0,-2
1470331397489818,0,-4,-17,-11,-3,0,-1,-3
1470331397506344,4,-1,15,2,-1,-2,0,0
1470331397506344,1,9,-13,6,-1,0,2,0
1470331397507819,-4,-6,10,-9,-1,-4,-2,-1
1470331397507819,-5,6,17,11,0,0,-1,-2
1470331397528886,-11,-16,-21,-7,-3,0,-3,-1
1470331397528886,6,6,22,2,-2,-4,0,0
1470331397530376,0,-5,-30,5,1,0,0,-1
1470331397530376,0,-3,-2,-5,-3,-1,-1,0
1470331397543351,8,4,9,6,-2,-4,-2,-1
1470331397543351,-8,-7,-12,-7,3,0,0,0
1470331397549867,1,6,10,7,0,0,-2,-3
1470331397549867,-3,-8,-7,-3,-3,-3,-1,0
1470331397566418,-2,5,9,6,-3,0,1,0
1470331397566418,0,-4,-23,-16,-1,-1,-1,-2
1470331397567869,-2,1,9,2,-1,-2,-1,-3
1470331397567869,1,1,15,10,3,1,1,0
1470331397588939,-1,-4,-31,-6,0,-1,-1,-1
1470331397588939,-1,2,11,2,-2,0,-1,-2
1470331397590421,-1,-3,3,-1,-2,-1,-1,-1
1470331397590421,-1,-1,-2,-5,-3,-1,-1,-1
1470331397603401,-3,0,8,3,1,0,0,-3
1470331397603401,-2,-9,-11,-4,-2,-2,0,-2
1470331397610010,-3,3,-13,-7,-2,0,-1,1
1470331397610010,1,-1,11,10,-1,-1,0,-1
1470331397626424,-1,6,3,-4,1,1,-2,-2
1470331397626424,-2,-8,-25,-11,-3,-2,-1,-2
1470331397627926,0,-4,17,0,1,-1,-2,1
1470331397627926,0,-3,-8,3,0,-1,-1,-2
1470331397648941,1,-9,-15,-2,1,-2,1,-2
1470331397648941,1,3,6,0,-2,-2,-1,0
1470331397650443,-1,-4,14,8,2,-1,-1,-1
1470331397650443,-1,6,-7,-5,-1,-1,-1,-2
1470331397663458,-1,-2,4,-7,-1,-1,-2,-3
1470331397663458,0,2,-13,1,0,0,-2,0
1470331397669960,-1,-3,-12,-2,0,-2,0,-2
1470331397669960,-5,-4,17,1,-1,-2,-3,0
1470331397686516,0,0,-8,-6,-3,-1,2,0
1470331397686516,0,0,5,-1,1,-2,-1,0
1470331397687976,1,-1,-5,-3,-2,-1,0,0
1470331397687976,-1,-2,-4,4,2,-1,0,-2
1470331397709088,-1,2,-2,-4,-4,0,-4,-1
1470331397709088,-3,-2,9,-3,-5,-2,0,-2
1470331397710588,-1,-1,-9,-1,0,1,-1,0
1470331397710588,0,-4,-30,-11,-2,-1,0,-1
1470331397723063,-3,-1,5,6,1,-1,-2,-1
1470331397723063,-1,-3,35,7,-1,0,-1,-2
1470331397730059,-2,4,-1,-4,-2,-1,-1,-2
1470331397730059,0,-4,-10,-2,-1,-2,0,0
1470331397746561,-2,-2,-5,-9,-5,-1,-1,-1
1470331397746561,-1,-2,-7,0,1,0,0,1
1470331397748074,-1,2,9,17,0,-1,-1,-4
1470331397748074,0,-10,-11,-18,-3,-1,-3,0
1470331397769098,0,0,-5,4,2,1,0,-1
1470331397769098,-2,10,-7,-4,-1,-1,-2,-2
1470331397770600,1,0,6,0,-3,-1,-1,-1
1470331397770600,-1,-1,6,8,5,2,1,1
1470331397782703,0,4,7,-4,-3,0,0,1
1470331397782703,-4,-13,-14,-7,-3,0,-2,-1
1470331397791664,0,2,11,4,-1,-2,-3,-1
1470331397791664,-1,-3,-4,-3,-3,-1,0,-2
1470331397806187,1,-2,-6,-1,0,-4,-2,-2
1470331397806187,0,3,8,2,-1,-1,0,1
1470331397807662,-2,-6,-17,-3,1,-3,0,-1
1470331397807662,0,4,21,6,-5,-3,-2,1
1470331397829152,0,3,0,-12,0,-2,-1,-1
1470331397829152,-2,-7,-13,-9,1,-2,-1,-3
1470331397830708,0,-2,3,-5,-2,-1,-1,1
1470331397830708,-1,2,-8,1,-3,0,0,-2
1470331397842688,-2,-1,-2,17,3,1,0,-1
1470331397842688,-2,-2,12,-3,-2,-2,-2,0
1470331397851673,-1,-5,-11,-6,1,0,-1,-2
1470331397851673,1,1,1,-5,-1,1,-1,-1
1470331397866231,-1,-1,8,1,-3,-2,-1,1
1470331397866231,-1,0,-3,5,-1,-1,0,0
1470331397868187,-1,6,0,-6,-1,-1,1,0
1470331397868187,0,-1,1,-3,0,-1,-1,-2
1470331397889207,-4,-6,0,0,-1,-1,-1,-1
1470331397889207,1,-3,-4,4,0,-1,-2,0
1470331397890708,1,3,1,-11,-3,-2,-1,0
1470331397890708,-1,8,-4,-2,-1,0,-1,2
1470331397902719,-1,-5,-7,1,-1,-3,-2,0
1470331397902719,0,-5,12,7,0,-2,1,-2
1470331397911726,-2,2,-3,1,0,-1,-2,-2
1470331397911726,-3,-6,-21,-10,-2,-2,-2,-1
1470331397926776,-1,-3,-17,2,2,0,0,-1
1470331397926776,-1,2,1,0,-8,-2,0,-2
1470331397928242,-1,-5,10,0,-2,-2,-1,0
1470331397928242,-1,0,3,4,-1,-2,0,-1
1470331397949259,1,1,-8,-7,-2,-1,-2,0
1470331397949259,-3,-3,-18,-8,-2,-1,-3,-2
1470331397950262,0,-5,5,2,-4,0,0,0
1470331397950262,0,2,2,-3,-2,0,-1,-2
1470331397962772,-3,-3,21,5,-1,-2,-1,0
1470331397962772,-2,2,-1,0,1,1,-2,-2
1470331397971780,-1,0,-20,4,1,-1,-2,0
1470331397971780,0,-1,17,-1,-1,-1,-1,-2
1470331397986369,0,-4,-2,-4,-2,-1,1,-1
1470331397986369,-2,-4,3,-13,0,0,-1,2
1470331397988296,-1,1,2,11,0,-1,-1,0
1470331397988296,-2,-2,-6,2,2,-1,-1,0
1470331398007865,-2,-2,-14,-5,0,-2,0,-3
1470331398007865,1,-2,7,5,-2,-3,0,0
1470331398016351,-1,-4,-2,-2,-1,1,-1,-1
1470331398016351,-1,1,-7,-6,-4,-2,-1,0
1470331398022366,-2,0,10,7,2,0,-2,1
1470331398022366,0,1,-3,1,-1,0,-1,-1
1470331398031334,0,-1,-4,1,1,-1,1,-1
1470331398031334,0,-2,-5,5,-4,-2,2,-2
1470331398046364,-2,2,3,-8,-2,-2,-2,0
1470331398046364,1,0,3,5,-1,1,-1,1
1470331398047878,-2,0,14,-2,-1,-2,-1,-2
1470331398047878,-2,-2,-3,-4,0,-1,1,-2
1470331398068871,1,2,3,2,-1,0,-1,-3
1470331398068871,-3,5,-1,-1,-1,-2,-2,-1
1470331398070370,-3,-8,-4,1,-1,0,1,0
1470331398070370,0,9,-1,-5,-1,0,-3,1
1470331398082381,0,1,8,-3,-3,-3,0,0
1470331398082381,-1,0,-6,-8,-2,0,0,-1
1470331398091389,-1,-6,4,3,0,-3,-3,-3
1470331398091389,-1,-7,-6,6,7,-1,-2,-1
1470331398106402,-1,1,16,2,-3,-1,-2,0
1470331398106402,-1,4,-8,7,3,-1,-1,-2
1470331398107903,-1,0,-3,-11,-5,0,-3,0
1470331398107903,1,-1,1,-3,-2,-2,-1,1
1470331398128940,-1,-2,-6,-10,-3,-2,-3,0
1470331398128940,-2,-5,-1,9,0,-2,-1,0
1470331398130464,-1,-2,-9,-6,-4,-2,0,0
1470331398130464,-2,-7,-9,-3,-1,0,0,-3
1470331398142461,-1,2,19,13,-2,-1,0,-1
1470331398142461,-1,-8,-16,-22,-2,-3,-2,-1
1470331398151442,0,2,1,0,2,0,-2,-3
1470331398151442,-4,-2,-6,0,-3,-2,-2,-1
1470331398166483,1,-3,-4,-7,-1,1,0,1
1470331398166483,-1,-2,3,13,0,0,-1,-3
1470331398167986,-2,0,4,-6,0,-1,-1,-1
1470331398167986,-1,-2,-4,-13,-4,-1,-1,-1
1470331398189020,-4,-4,-11,-2,-1,0,0,-2
1470331398189020,2,0,-12,5,0,0,0,0
1470331398190520,0,0,14,-5,1,0,-1,0
1470331398190520,-2,-4,-3,12,-3,-2,-1,0
1470331398211587,-1,-1,-5,-15,0,-1,0,-1
1470331398211587,-1,0,-7,-4,-5,-4,-1,-2
1470331398212997,0,2,6,10,-2,-1,0,-1
1470331398212997,-1,-3,7,-5,-1,-2,0,-1
1470331398226599,0,-1,-10,3,-3,-2,-2,-2
1470331398226599,-2,-4,8,-4,1,0,0,1
1470331398228014,-1,4,-29,-5,-3,-2,0,0
1470331398228014,-5,-10,27,6,-4,-1,-2,-3
1470331398249087,1,23,7,4,0,1,-2,-2
1470331398249087,-1,-1,-2,2,0,-1,0,-1
1470331398250576,0,-2,2,5,1,-2,-1,2
1470331398250576,1,-2,-9,-2,0,-1,-1,-1
1470331398271552,-2,-8,-8,-8,-1,-2,1,0
1470331398271552,-5,-4,7,-2,-3,0,-1,-2
1470331398273100,0,2,-14,-9,-2,-1,-1,-3
1470331398273100,1,2,4,7,4,0,0,0
1470331398286563,2,-8,7,-8,-2,-1,1,0
1470331398286563,2,4,1,9,0,-1,0,0
1470331398288069,-2,-7,-7,0,-1,-1,-1,-2
1470331398288069,-3,4,-8,-12,-3,-2,-2,-3
1470331398309084,-2,-5,-14,-5,0,1,-1,-1
1470331398309084,0,3,-3,-17,-3,-1,-2,0
1470331398310585,-1,-4,21,6,-2,0,0,-2
1470331398310585,-1,4,1,-3,-2,0,-1,0
1470331398331603,0,-1,7,4,-1,-2,-1,-1
1470331398331603,-2,-2,-5,1,-3,0,-3,-2
1470331398333105,0,0,0,-2,-3,-2,0,-1
1470331398333105,0,2,-4,-3,0,1,0,2
1470331398345643,-1,-14,-16,3,-5,-1,-2,0
1470331398345643,2,5,12,4,3,0,1,-1
1470331398352623,0,-1,-8,0,2,0,-1,-2
1470331398352623,1,-2,1,-5,-2,-2,-1,0
1470331398369137,-3,1,7,10,0,-1,-1,0
1470331398369137,0,-5,-11,-10,-3,-1,-1,0
1470331398370695,-2,-4,-2,2,-3,-2,-2,0
1470331398370695,0,5,-12,6,-1,0,0,-1
1470331398391658,-4,-3,-1,-15,0,0,0,-2
1470331398391658,-1,-3,9,3,0,-1,-1,-1
1470331398393159,-1,9,0,-1,0,-1,-1,0
1470331398393159,0,2,3,5,3,-1,-2,-2
1470331398405714,0,2,2,0,-4,-3,-1,-2
1470331398405714,-1,-5,-4,-2,-1,-2,0,-2
1470331398412701,-2,-5,-9,-17,-4,-2,0,0
1470331398412701,0,-3,7,13,1,-1,-1,-3
1470331398428692,-3,3,-9,-5,0,-1,-1,0
1470331398428692,1,-1,12,8,0,0,-2,-1
1470331398430692,-1,0,-4,-13,-2,-1,0,0
1470331398430692,-1,-2,1,-8,-7,-2,-2,1
1470331398451726,-3,-10,-15,1,-3,-1,-2,-1
1470331398451726,0,2,30,3,-1,-1,0,-2
1470331398453214,-6,-8,-35,-3,-1,-1,-1,-1
1470331398453214,-2,-12,-24,-9,-2,-1,-2,-2
1470331398465794,0,1,4,14,3,-1,0,0
1470331398465794,-2,2,-9,-10,-1,-1,-1,1
1470331398472730,0,-5,9,8,2,0,-1,-2
1470331398472730,1,0,8,1,1,2,2,1
1470331398488788,0,1,-9,-12,-2,-2,-3,-2
1470331398488788,-4,-3,-14,4,-1,-3,0,-1
1470331398490746,-1,0,5,-1,-2,-1,0,-1
1470331398490746,-1,2,3,-3,-1,-2,-1,-2
1470331398511280,0,2,13,7,0,1,-2,-1
1470331398511280,0,-1,-13,-1,-1,-1,0,-1
1470331398513294,-1,-5,-16,13,1,0,0,0
1470331398513294,-1,5,6,-4,3,0,0,-1
1470331398525782,-3,-11,-5,-1,-2,-1,-1,-1
1470331398525782,-1,8,11,-6,-1,-2,-1,-1
1470331398532823,-1,-1,10,0,0,0,-1,0
1470331398532823,-2,-3,-15,-4,-5,-3,-1,0
1470331398548839,-1,-4,0,-4,0,-2,-1,-1
1470331398548839,1,-2,-8,9,2,2,-1,1
1470331398550299,1,2,14,-2,-3,0,-1,-2
1470331398550299,-3,-4,-11,-7,-1,-1,0,0
1470331398571404,0,-1,3,-1,-2,0,-1,0
1470331398571404,-2,-2,2,-9,-3,-2,-1,-3
1470331398572847,-1,2,8,10,5,-1,-1,0
1470331398572847,-1,-7,-5,1,-3,-1,-1,-2
1470331398585832,0,19,11,-2,-1,-1,1,0
1470331398585832,-3,-6,-3,-11,-2,1,0,-3
1470331398592338,-2,-3,-9,6,-2,0,-2,-1
1470331398592338,0,-3,3,-12,-3,2,-1,1
1470331398608911,-1,-2,0,0,3,0,-1,-1
1470331398608911,-1,-2,8,-3,-4,-1,0,-1
1470331398610358,-1,2,15,5,-1,-1,-1,-2
1470331398610358,0,1,-14,-1,-4,0,-2,-1
1470331398631397,1,-4,10,-6,0,-1,1,-2
1470331398631397,-2,-5,-13,-4,-4,0,-3,-2
1470331398632935,-1,-2,-3,2,3,0,-3,-2
1470331398632935,0,1,9,6,2,-1,-1,-1
1470331398645886,-3,1,4,5,-3,-1,0,-1
1470331398645886,-2,2,3,0,2,0,-1,-2
1470331398652424,0,-4,-9,-8,-4,-2,1,-1
1470331398652424,-1,-4,-14,-6,-2,-1,-1,-3
1470331398676458,-1,0,-18,-4,-2,-3,-3,-1
1470331398676458,1,-3,-1,12,0,-1,-1,0
1470331398677914,-2,5,17,-6,-2,-2,-2,-2
1470331398677914,-4,-1,-12,-4,-1,-3,-1,-3
1470331398691468,2,-1,16,-14,-1,1,-2,-2
1470331398691468,-3,-3,-24,-1,-1,-2,-2,1
1470331398692970,0,2,-1,-3,-2,-3,0,-1
1470331398692970,0,-3,7,8,1,-2,-1,-2
1470331398704981,-1,0,6,6,-1,-1,1,-2
1470331398704981,-1,2,-11,-5,-1,0,0,0
1470331398713947,0,-2,19,-3,-1,0,0,-1
1470331398713947,-3,-11,7,5,-1,-2,-2,0
1470331398728968,-2,13,-24,-9,0,0,1,-1
1470331398728968,-1,-7,7,6,-1,0,0,-1
1470331398730462,0,2,1,7,2,-1,-1,-1
1470331398730462,-3,3,6,2,-1,0,-3,0
1470331398751480,-4,-8,-6,-16,-1,0,0,-1
1470331398751480,2,-7,-6,3,-1,-4,-2,1
1470331398752984,-1,1,-25,-11,-1,-1,-2,-3
1470331398752984,0,0,23,5,1,0,-2,-1
1470331398765037,2,0,-19,5,-1,-1,-1,2
1470331398765037,-5,-1,0,-5,-2,-2,-2,-3
1470331398774005,1,-7,-3,-4,-3,-1,0,1
1470331398774005,0,5,-10,-4,0,-1,1,-1
1470331398796574,1,3,37,13,-1,-2,-2,-2
1470331398796574,1,-6,-33,-20,-3,-1,0,-2
1470331398798022,-2,12,3,2,-2,1,-1,-2
1470331398798022,-1,-7,-23,-4,0,-1,0,0
1470331398811572,0,-3,1,1,-2,-1,-1,2
1470331398811572,0,-5,15,-2,-1,0,-1,-1
1470331398813083,-1,4,-6,7,-3,-1,0,-1
1470331398813083,0,1,-5,-11,-3,0,-1,-3
1470331398825088,-1,1,4,9,4,1,0,1
1470331398825088,-1,1,-13,-5,-3,-3,-4,1
1470331398834055,0,-10,-13,-4,-2,-1,-1,1
1470331398834055,1,7,15,5,-4,-4,-2,-1
1470331398849075,-3,-12,-11,5,4,1,-1,-3
1470331398849075,-2,4,19,0,0,1,-2,-2
1470331398850593,0,-11,-26,-5,-1,-1,-2,-1
1470331398850593,-1,-1,-9,3,-4,-2,-1,0
1470331398871588,0,13,19,0,-4,-2,-2,0
1470331398871588,0,-3,-7,-10,-1,-1,-1,2
1470331398873096,-3,0,2,-4,0,-2,-2,-3
1470331398873096,0,-1,8,3,1,-1,-1,-1
1470331398885142,-3,-12,-15,6,-1,-2,-1,-2
1470331398885142,0,6,3,1,0,1,0,-1
1470331398894111,0,0,7,-8,-3,0,-2,0
1470331398894111,-3,-4,6,-2,-1,-1,-1,-2
1470331398909122,-3,-15,-38,-11,-5,-2,-2,-4
1470331398909122,-1,6,5,15,1,0,-1,-2
1470331398910626,-2,-6,5,-18,-3,-3,0,-1
1470331398910626,2,2,24,7,1,-1,0,0
1470331398931686,0,10,-7,3,0,-1,-1,0
1470331398931686,-2,-7,8,-1,-3,-2,0,-2
1470331398933166,-2,4,0,6,2,0,-1,-1
1470331398933166,-4,-8,-8,-6,2,0,-1,-3
1470331398945154,2,4,6,-2,-4,-1,-1,1
1470331398945154,-4,-11,-5,-3,-2,0,-1,-2
1470331398954164,0,4,20,4,0,1,0,0
1470331398954164,-1,-3,-21,-5,-1,0,-1,-2
1470331398969176,-2,-6,-2,-1,1,-1,-1,-1
1470331398969176,-1,3,11,7,0,0,1,1
1470331398970678,-1,-10,-25,-17,-5,-3,-2,-1
1470331398970678,0,9,5,5,-1,-2,0,1
1470331398991698,-2,-6,-7,-6,0,-1,-2,-1
1470331398991698,-1,-5,9,4,-1,-2,0,-3
1470331398993197,-1,4,6,0,0,1,0,2
1470331398993197,-1,-3,-16,-9,-3,0,-2,-1
1470331399005207,-1,2,11,4,-1,-1,1,0
1470331399005207,0,-1,3,-3,2,0,2,0
1470331399014216,-2,0,-3,4,-3,-3,-2,-2
1470331399014216,-2,-2,-1,-3,-1,-1,2,-1
1470331399029233,1,-5,17,6,0,-1,-1,1
1470331399029233,-2,-3,-18,-6,-3,-3,-1,-1
1470331399030731,3,-2,-12,-10,-1,1,1,-1
1470331399030731,-2,1,5,-3,-4,-2,-2,-1
1470331399051305,-1,2,9,2,-1,-1,-1,0
1470331399051305,-3,-17,-29,-7,-4,-1,-3,-2
1470331399053251,0,14,24,10,0,-2,-2,-2
1470331399053251,-3,-6,13,6,1,0,-1,0
1470331399065264,-2,-2,-13,-2,0,-1,-1,-1
1470331399065264,2,5,8,-9,-1,-2,-1,-2
1470331399074296,-2,-6,-7,9,1,-1,-2,0
1470331399074296,1,1,7,6,0,0,0,-1
1470331399088844,-5,1,-5,-8,-2,0,0,-3
1470331399088844,-1,-5,-5,-4,1,-2,-1,-1
1470331399090801,-3,-6,2,7,-1,-3,-1,-1
1470331399090801,0,4,-4,7,-3,-1,-1,-1
1470331399111356,0,-5,5,-16,-5,-2,-1,-1
1470331399111356,3,8,12,7,0,1,0,-1
1470331399112847,-1,-13,-7,-6,-3,0,-2,-1
1470331399112847,-2,14,6,-2,0,-1,1,1
1470331399132866,0,-6,-8,1,-6,-2,-3,-3
1470331399132866,-1,4,-4,-1,1,0,0,0
1470331399140830,1,3,0,8,1,-2,0,0
1470331399140830,-1,-11,-8,-9,-1,0,-2,-1
1470331399148336,-1,1,4,-13,-1,-2,1,-1
1470331399148336,-2,3,-1,10,-1,-1,-1,1
1470331399148837,0,7,8,4,1,1,-2,0
1470331399148837,-1,-5,-4,-12,-3,-3,1,0
1470331399170857,-1,0,-1,5,1,0,-1,0
1470331399170857,-1,-3,-19,3,-1,-1,-2,-1
1470331399171359,-2,0,11,-12,-5,-3,-1,-1
1470331399171359,-1,8,-5,6,-3,0,-2,-3
1470331399193377,3,8,7,-4,3,0,-1,-2
1470331399193377,0,-5,0,-5,-2,0,-1,-1
1470331399193879,-1,-8,-4,3,0,1,1,-1
1470331399193879,-1,0,-6,-6,0,-2,-1,0
1470331399208391,0,-12,-20,-1,-3,-1,0,-2
1470331399208391,0,8,18,-10,-2,-2,0,-1
1470331399208892,0,-3,-1,4,0,-2,0,0
1470331399208892,0,-2,7,3,-1,-1,-1,1
1470331399230911,-1,-2,-10,7,-4,1,0,0
1470331399230911,-1,1,2,0,-1,-2,-2,-1
1470331399231414,-1,-4,0,-19,-2,-2,-2,0
1470331399231414,0,0,14,10,-2,-3,0,-2
1470331399252961,0,-3,-17,1,2,0,-1,0
1470331399252961,0,-6,-4,-2,0,1,-1,-1
1470331399253977,0,11,1,-6,-4,-1,-3,-2
1470331399253977,0,-2,-3,4,-1,-1,-3,-2
1470331399268445,0,6,8,-1,3,-1,-1,-2
1470331399268445,-1,1,-4,1,-3,-2,-3,0
1470331399268946,-2,-8,-21,-3,-1,0,-1,-1
1470331399268946,1,-4,4,0,-1,1,-1,-1
1470331399290520,-4,1,3,1,-2,-1,-1,-1
1470331399290520,-3,3,-6,3,-1,-1,0,-1
1470331399291468,-1,0,1,-8,-2,0,-2,-2
1470331399291468,-4,-16,-16,-11,1,-3,-2,-2
1470331399312985,-2,4,4,3,-3,-2,-1,0
1470331399312985,1,4,14,-6,2,0,2,1
1470331399321019,-3,-5,-7,1,-1,-2,-1,-2
1470331399321019,1,3,2,1,0,1,-1,1
1470331399328025,-3,-11,5,-4,-2,-3,-3,-2
1470331399328025,-5,3,-6,-3,-1,-1,-1,-1
1470331399329023,0,4,6,11,0,-3,-2,-2
1470331399329023,-2,-2,-4,-18,-3,0,-1,-2
1470331399350559,-2,-1,-1,4,2,0,-1,1
1470331399350559,-1,-4,0,4,-3,-1,-2,-3
1470331399351520,-2,-1,-13,-3,-2,-1,1,-1
1470331399351520,-1,7,14,11,5,1,2,0
1470331399373080,-2,-6,-22,-7,-2,0,-1,-1
1470331399373080,-1,0,6,-6,-4,-2,-1,-1
1470331399374045,0,1,0,3,-1,-1,0,1
1470331399374045,-1,-9,-4,-4,-2,-2,0,-1
1470331399388053,0,12,-3,3,1,-1,-1,-2
1470331399388053,1,-4,7,4,-1,-1,0,0
1470331399389054,-1,13,8,0,-3,-1,0,-2
1470331399389054,-2,-10,-34,-2,-2,-3,-3,1
1470331399410573,-1,-3,15,-3,-3,-2,-1,1
1470331399410573,-3,-7,-14,-10,0,0,-4,-3
1470331399411573,-2,-12,-7,-2,0,-2,0,-1
1470331399411573,0,5,24,6,1,1,-1,-2
1470331399433126,-2,-4,-4,9,-5,-4,-2,-2
1470331399433126,-1,3,-6,-26,-2,-3,-1,0
1470331399434093,0,-6,-4,5,1,-1,0,1
1470331399434093,-3,-3,-10,-7,-1,1,0,-1
1470331399448162,-2,-7,-5,1,-3,-3,0,-1
1470331399448162,2,4,11,5,2,-1,0,-2
1470331399449198,-2,-3,3,2,-5,-1,-1,-3
1470331399449198,0,-2,-6,0,1,-2,-1,-2
1470331399470679,-1,-2,15,-5,-2,-1,-1,-1
1470331399470679,1,4,-10,10,1,-1,0,-1
1470331399471719,-2,-9,0,-6,-1,-2,-1,-1
1470331399471719,-1,6,18,5,0,-1,-2,-1
1470331399493189,-2,-6,-16,5,7,2,-3,-2
1470331399493189,0,-1,-13,-13,-5,-1,-2,-3
1470331399494202,2,0,1,2,0,0,-1,0
1470331399494202,1,0,6,-1,-2,-1,0,-1
1470331399508201,-1,12,17,-7,-4,-2,0,0
1470331399508201,2,-4,15,13,0,-1,-1,1
1470331399509219,1,-3,-4,-2,1,-1,-1,-1
1470331399509219,-1,-7,-18,-15,-7,-1,-2,0
1470331399530724,2,3,4,6,0,1,0,0
1470331399530724,-5,-4,-8,-2,-3,-1,0,-2
1470331399531698,1,8,21,2,1,-1,0,1
1470331399531698,-1,0,2,4,-2,-3,-2,0
1470331399553248,-3,-7,-5,3,1,0,-1,-2
1470331399553248,-2,1,-1,-19,-3,-2,0,-1
1470331399554205,-1,-5,-5,3,2,-1,1,-4
1470331399554205,-2,5,-3,3,-1,0,-2,-1
1470331399568218,1,-4,-15,-5,-5,-2,-1,-1
1470331399568218,0,0,15,-4,-2,0,-1,-1
1470331399569231,-2,-4,-8,1,0,1,1,-1
1470331399569231,0,-1,-4,-6,-1,0,-1,-2
1470331399590738,-1,1,3,1,0,1,0,0
1470331399590738,-3,-5,11,8,-2,-1,-2,-2
1470331399591235,-1,-3,-3,-11,1,0,-2,-1
1470331399591235,0,2,-12,3,0,1,-1,-1
1470331399613310,-1,-2,17,5,0,-3,1,-2
1470331399613310,-2,-3,-12,-12,-2,-1,-3,-2
1470331399614267,-1,2,-4,11,4,-2,-3,0
1470331399614267,0,-9,12,-2,-2,-1,1,-2
1470331399628336,-1,-5,-11,-14,-5,-1,-1,-3
1470331399628336,0,0,-7,11,5,1,0,0
1470331399629364,-1,0,-4,3,-5,-2,-1,-2
1470331399629364,0,4,-1,-13,0,0,-2,-2
1470331399650798,-2,-3,9,-3,1,-1,-1,-1
1470331399650798,-2,-5,-8,3,-2,-4,0,-1
1470331399651288,-1,2,12,-1,0,-1,-2,0
1470331399651288,-1,-3,8,2,-1,-3,-2,0
1470331399673308,-3,-9,-3,-7,-3,0,0,-2
1470331399673308,2,6,-2,3,-1,3,-1,-1
1470331399673809,-1,-2,-7,0,-1,0,-1,-1
1470331399673809,-1,4,19,6,0,-1,-2,-1
1470331399688321,1,-1,-10,-1,-1,1,-1,0
1470331399688321,-5,-11,-20,-8,-5,-1,-2,-4
1470331399688822,-1,-2,-15,3,-1,-1,-2,-1
1470331399688822,-1,3,-11,-9,-1,0,-1,-1
1470331399710841,-1,1,-3,-4,-2,-2,1,-1
1470331399710841,1,3,8,17,5,0,0,0
1470331399711342,-1,-10,-3,-21,-6,0,-1,0
1470331399711342,0,7,-5,6,-1,-1,0,-2
1470331399733362,1,-1,-5,4,0,0,-2,0
1470331399733362,0,0,13,5,0,-2,-1,0
1470331399733863,-2,-5,-39,-16,-1,-2,-1,-1
1470331399733863,-3,1,15,9,1,-2,-2,0
1470331399747402,1,3,-9,-6,-2,1,-1,0
1470331399747402,-2,-1,17,17,2,-2,0,0
1470331399755890,-1,-1,1,-4,-1,-1,-1,-1
1470331399755890,-3,-4,-7,2,0,1,0,-1
1470331399770917,-1,5,10,-6,-1,-1,-2,-1
1470331399770917,0,-6,-23,-5,-3,-2,-2,0
1470331399771397,0,7,18,8,1,0,0,0
1470331399771397,-1,12,-8,-3,1,-3,-1,-1
1470331399793422,-1,-4,7,6,1,-1,0,-1
1470331399793422,-1,-2,-5,-11,0,0,1,1
1470331399793917,-1,-1,6,-9,-7,-1,-1,0
1470331399793917,1,-12,-7,2,-1,0,-1,1
1470331399807432,-2,2,-8,-12,-3,-1,-2,-1
1470331399807432,0,13,-14,12,-1,-1,-3,-2
1470331399815936,-1,-4,13,-5,-2,-1,-3,-2
1470331399815936,-1,-8,5,2,-1,-2,-1,1
1470331399830490,0,0,0,3,-1,-2,1,-1
1470331399830490,0,-14,0,-4,-5,-2,0,-1
1470331399831450,-2,1,2,-7,-1,-1,-1,0
1470331399831450,0,2,-14,7,4,0,-1,1
1470331399853470,-1,-3,24,-4,0,-3,-1,0
1470331399853470,-1,0,-7,2,-2,0,-1,0
1470331399853971,0,11,4,-5,0,0,0,-1
1470331399853971,0,-3,-7,-1,-6,2,0,-4
1470331399867509,-1,-4,-14,-3,-3,-2,-1,-2
1470331399867509,2,2,16,-7,-2,0,-1,-2
1470331399876026,-2,-15,3,12,5,-1,-2,-2
1470331399876026,-1,3,-14,-6,-3,-2,0,0
1470331399890525,-2,-3,8,9,3,1,0,0
1470331399890525,-1,-1,2,-18,-3,0,-1,1
1470331399891532,-1,-6,-23,4,-2,-1,-1,-2
1470331399891532,-2,0,14,-4,3,0,-2,-1
1470331399913041,0,-1,-27,-14,-5,-4,-1,0
1470331399913041,-7,-9,1,8,1,-1,-1,-1
1470331399914066,0,1,7,-3,-3,-2,-1,-2
1470331399914066,-2,-9,-10,-4,-3,-3,-1,-2
1470331399927578,0,3,0,0,1,1,-1,1
1470331399927578,-2,-2,2,2,2,-1,0,-2
1470331399943564,-1,2,-3,-7,-1,1,0,0
1470331399943564,-1,0,2,-6,-3,-2,-2,-1
1470331399950602,-1,-12,-23,-3,-2,-1,-2,1
1470331399950602,0,13,38,13,-1,-2,-3,-1
1470331399951601,-2,-5,-23,-8,-3,-2,-3,-3
1470331399951601,-1,-1,7,4,-2,-1,-1,0
1470331399973129,1,2,-4,-2,-1,-2,-1,-1
1470331399973129,-2,-7,-3,6,5,0,0,-1
1470331399981085,-2,-1,5,4,-1,-2,-1,-1
1470331399981085,-2,-8,0,-3,-1,-1,-2,-3
1470331399987646,2,6,-8,-5,4,2,-1,-2
1470331399987646,0,1,-2,-9,-4,-2,-1,0
1470331399995653,-2,-3,8,4,-4,-1,-2,0
1470331399995653,0,-3,-9,-13,-2,0,-1,1
1470331400010667,-2,4,19,10,-2,-2,-2,-2
1470331400010667,1,7,3,-9,-3,-1,1,-1
1470331400011615,2,1,-3,9,2,0,1,1
1470331400011615,-1,1,7,8,0,-1,0,0
1470331400033135,-3,4,-4,2,-2,-3,-1,-3
1470331400033135,2,-12,-10,-3,-1,-1,-1,-1
1470331400034183,-3,12,0,-3,-4,-3,-2,-1
1470331400034183,0,2,3,7,-1,-2,-1,-2
1470331400047681,-1,-3,6,-1,0,3,-1,-1
1470331400047681,-4,-11,-11,-1,-3,-1,-2,0
1470331400055734,-1,-4,3,-1,3,0,0,-2
1470331400055734,-1,-6,-5,-2,-3,-2,-1,0
1470331400070667,-3,9,-13,-17,-2,0,-1,-1
1470331400070667,-1,-2,-5,-2,-3,-2,-2,-1
1470331400071667,1,8,28,7,0,0,0,0
1470331400071667,0,-4,0,-1,-1,-1,-1,-1
1470331400093186,0,-9,-12,5,-2,0,-1,-1
1470331400093186,-3,4,11,-3,2,1,0,-1
1470331400094186,-2,-6,-10,-12,-4,-2,-2,0
1470331400094186,-3,3,6,2,1,-1,-1,0
1470331400117219,-1,-4,5,4,-1,1,-1,0
1470331400117219,2,4,-21,-8,-4,-2,-1,-2
1470331400117707,-1,4,7,6,0,-2,-1,-2
1470331400117707,-2,-2,2,-9,-2,-1,-1,-2
1470331400130774,-1,-3,-7,7,0,-2,-2,-2
1470331400130774,0,7,4,0,-1,0,-1,-2
1470331400131719,0,-6,-8,-12,-1,0,0,-2
1470331400131719,-1,-1,-2,5,1,-2,1,0
1470331400153316,-1,0,16,6,3,0,0,-1
1470331400153316,2,7,6,-1,-2,1,-1,-1
1470331400154240,-2,-12,-11,7,-2,-1,-1,-1
1470331400154240,0,-7,-8,-5,2,-1,-2,-2
1470331400176302,-1,7,3,-5,-1,-4,0,1
1470331400176302,0,3,-3,9,3,-1,-1,-1
1470331400177295,0,4,13,-2,-3,-1,-1,0
1470331400177295,-2,-2,-2,-3,-1,0,-1,-1
1470331400190816,0,-4,4,1,-6,0,-1,0
1470331400190816,-2,-5,-26,-11,1,-1,1,-3
1470331400191773,-1,0,8,3,-1,-3,-2,-1
1470331400191773,0,-6,-18,-2,-3,-2,-2,-1
1470331400213304,-2,-2,0,-6,-2,-1,-1,-1
1470331400213304,1,-5,-7,6,0,-3,-1,2
1470331400214299,-1,-10,0,-7,-3,0,-2,-2
1470331400214299,1,11,4,3,0,0,-2,-1
1470331400236371,-4,-9,-2,5,1,-1,-1,-1
1470331400236371,-1,1,6,-4,-3,-1,-1,-3
1470331400237314,4,1,-2,0,6,1,0,0
1470331400237314,0,-4,-20,-5,-3,-1,-2,1
1470331400258889,-1,-4,3,-3,0,-1,-2,-1
1470331400258889,-3,-2,24,10,-1,-1,-1,0
1470331400259834,0,1,-13,3,-3,-1,0,0
1470331400259834,-2,-2,10,-12,-2,1,0,-3
1470331400273348,2,4,-3,1,-3,-4,-1,0
1470331400273348,1,-10,-8,-3,4,-1,0,-1
1470331400273854,0,7,14,11,-1,-2,-2,-2
1470331400273854,-2,-1,-10,0,-1,-2,-1,1
1470331400296368,-2,0,3,-16,-4,-2,-2,0
1470331400296368,-4,0,4,1,-4,-3,-2,-1
1470331400297410,-2,-13,-13,-2,-2,-1,-1,-1
1470331400297410,4,29,0,8,-3,0,0,-1
1470331400310881,2,-3,14,3,3,1,1,-2
1470331400310881,-1,1,1,-6,-5,-1,-2,0
1470331400311382,-3,-5,-19,-1,0,-1,-2,-2
1470331400311382,-3,-7,16,3,-2,-4,1,-1
1470331400333401,0,0,-14,6,0,-1,-1,-2
1470331400333401,1,0,-11,-7,-2,-2,-1,-1
1470331400333902,-4,1,16,2,-2,-3,-1,-3
1470331400333902,-3,-8,-11,-12,1,1,0,0
1470331400356466,-2,10,7,1,-4,-3,-1,-2
1470331400356466,-3,-1,3,6,2,-1,1,1
1470331400357425,-1,-5,-22,-10,-3,1,0,-1
1470331400357425,1,-12,0,7,-1,-1,-1,0
1470331400370977,0,-11,-12,-12,1,0,-1,-4
1470331400370977,-2,6,19,3,-2,-2,-3,-2
1470331400371457,0,-3,-12,-5,0,-1,0,-2
1470331400371457,0,3,9,11,1,2,0,-2
1470331400393460,0,-7,-9,-8,0,-3,-1,1
1470331400393460,-3,-1,-16,-2,-4,0,-1,-2
1470331400393955,1,-9,-13,4,0,0,-3,-1
1470331400393955,-1,2,9,6,0,-1,-2,-2
1470331400416477,-2,-1,-12,4,-2,-3,0,0
1470331400416477,-4,-6,-12,-17,-2,1,1,-1
1470331400416976,0,10,35,-3,-1,-3,-1,-3
1470331400416976,0,-5,-10,-2,-4,-3,-1,-1
1470331400430988,-1,12,20,6,-3,0,-4,-1
1470331400430988,-2,-7,0,-2,1,1,-1,-1
1470331400431498,-3,-3,-11,1,1,1,0,0
1470331400431498,-2,2,-4,-1,-2,0,-2,-2
1470331400453008,-4,-7,18,-5,-1,-2,-4,-1
1470331400453008,0,2,-12,1,-2,0,2,0
1470331400454051,3,15,23,-1,0,0,0,1
1470331400454051,-2,-11,-11,7,1,-1,-1,0
1470331400476568,-2,3,-3,4,-3,-1,-1,-1
1470331400476568,-1,-9,-12,-5,-1,-1,-4,-1
1470331400477093,-1,-13,-27,-26,-3,-2,-1,0
1470331400477093,1,7,32,3,3,1,0,-1
1470331400490558,1,0,4,9,-2,-1,-2,-3
1470331400490558,-2,-10,-11,-4,-4,-2,-2,-2
1470331400491559,-1,5,0,9,5,1,1,0
1470331400491559,-3,-11,-2,-18,-4,-4,-3,-1
1470331400513088,-2,-4,-1,4,2,2,0,0
1470331400513088,1,10,10,10,2,-2,0,-2
1470331400514104,-3,-11,-19,-16,-6,-3,-2,-2
1470331400514104,-3,-2,-15,1,-1,0,-1,0
1470331400536583,3,2,0,-11,0,1,0,0
1470331400536583,1,-9,-4,6,1,-1,-2,-1
1470331400537084,-2,12,15,11,-1,-1,-1,0
1470331400537084,0,1,8,4,-2,-3,-3,-2
1470331400551099,-3,2,-18,-14,-1,-1,0,0
1470331400551099,1,-7,-9,-12,-2,-1,0,0
1470331400551600,-5,-2,15,6,-4,-3,0,-2
1470331400551600,-2,0,-9,4,3,1,-1,-2
1470331400573142,1,-13,8,6,-3,0,0,1
1470331400573142,-2,11,4,-4,2,-1,-1,-1
1470331400574145,1,2,11,1,-4,-3,-1,-1
1470331400574145,-2,-10,-3,-5,1,-3,-1,-2
1470331400596637,-1,12,-2,3,3,1,1,0
1470331400596637,-1,-9,-13,-3,-2,0,0,-1
1470331400597138,-1,2,6,4,0,-1,-2,0
1470331400597138,0,0,-1,1,-6,-1,0,0
1470331400610678,1,-7,-10,-3,5,-2,0,0
1470331400610678,-1,-5,10,0,-1,0,-3,0
1470331400611727,0,7,2,10,2,0,-1,-1
1470331400611727,-1,-3,-12,-27,-5,-2,-2,-1
1470331400633211,-2,0,-3,12,-2,-2,0,-3
1470331400633211,-4,-7,12,-6,-2,-2,-1,0
1470331400634215,-2,-8,-9,0,-5,-1,0,-2
1470331400634215,0,5,12,2,2,-1,1,0
1470331400656691,-2,-1,-3,-9,-2,0,-1,-3
1470331400656691,-2,-13,-7,1,-3,-2,-2,1
1470331400657192,1,14,-17,-2,-3,-1,0,0
1470331400657192,-1,-1,10,1,2,-1,-1,-3
1470331400670747,-2,2,8,17,2,-2,-1,-2
1470331400670747,-3,-5,-23,-17,-4,-2,-1,-5
1470331400671705,-1,-10,-16,-6,-2,-1,-3,1
1470331400671705,3,10,4,0,-2,1,1,0
1470331400693280,-2,7,0,-5,-3,0,-2,-2
1470331400693280,-1,-1,24,11,0,-2,0,0
1470331400694257,0,-9,12,-1,2,1,0,0
1470331400694257,-2,7,-8,2,-2,-1,0,-1
1470331400716245,-5,-13,-10,-9,-3,-2,-1,0
1470331400716245,3,9,12,-2,0,1,0,-3
1470331400717247,-2,1,-3,0,-2,1,1,0
1470331400717247,0,-4,12,4,0,0,-1,1
1470331400738790,-2,-10,-28,-4,-5,-1,-1,-1
1470331400738790,0,17,14,-1,-1,0,-1,0
1470331400739766,-3,0,-3,20,8,0,-2,0
1470331400739766,-2,-5,1,-9,-2,-2,-1,-2
1470331400753309,0,2,15,1,-1,-1,0,-1
1470331400753309,-3,-5,-18,-18,-5,-3,-2,-2
1470331400754279,0,0,-8,-12,-3,-1,-3,-1
1470331400754279,-1,-2,-1,5,-1,-1,-1,0
1470331400776367,0,-2,21,4,-2,-2,0,-3
1470331400776367,-2,-9,-11,-3,-1,-1,-3,0
1470331400777299,2,5,7,4,-1,0,-1,-1
1470331400777299,-4,-14,-34,-15,-3,-5,-3,-3
1470331400790326,0,4,16,6,0,0,-1,0
1470331400790326,1,-3,-28,-6,-2,1,0,-1
1470331400798343,-3,-9,-2,3,0,-3,0,-2
1470331400798343,1,12,5,7,5,1,-2,0
1470331400813331,1,-3,16,4,-1,-2,-1,-2
1470331400813331,-4,-7,-17,-1,-3,-2,-2,-3
1470331400813848,-2,-5,4,-16,-5,-2,-1,-2
1470331400813848,0,1,-2,-1,-1,1,-1,0
1470331400836444,-4,-5,-7,-3,1,1,0,0
1470331400836444,2,16,27,17,1,-1,-1,0
1470331400837455,-3,-17,-25,-22,-7,0,-2,-3
1470331400837455,-2,2,16,5,2,1,-1,-2
1470331400849946,-2,5,-9,-6,-4,-2,-1,-1
1470331400849946,0,1,3,-1,1,0,1,1
1470331400858376,-5,-3,10,10,-1,0,-2,-2
1470331400858376,-6,-5,-23,-19,-8,-3,-2,-1
1470331400873421,3,-1,-1,10,2,2,-1,1
1470331400873421,0,4,-1,4,0,0,0,-1
1470331400873928,1,8,13,5,1,0,-2,-2
1470331400873928,-3,-8,-3,-7,-3,-3,0,-3
1470331400896450,-1,-11,-6,-11,0,-1,-1,-3
1470331400896450,-2,4,11,0,0,-1,-1,0
1470331400896948,0,3,-7,-4,-1,-1,-1,1
1470331400896948,0,-6,3,-1,-3,-2,-2,0
1470331400909942,0,8,0,0,-2,-1,-1,-1
1470331400909942,-3,-6,-15,4,-2,1,-2,-1
1470331400918426,-1,-9,-3,-11,1,-3,1,-1
1470331400918426,1,13,-14,-4,-3,-1,1,-3
1470331400933440,-2,-9,9,5,-4,-3,-1,1
1470331400933440,0,14,19,9,1,-1,0,-1
1470331400933941,0,-7,-33,-8,-2,-3,-1,0
1470331400933941,0,-5,5,4,-3,-1,-2,-2
1470331400956461,-1,3,-3,-5,2,0,-2,-2
1470331400956461,0,-2,20,-3,-2,-1,-2,-3
1470331400956984,-1,0,12,9,-1,-1,-2,-2
1470331400956984,3,7,-3,-8,0,-1,0,0
1470331400969972,-2,-2,5,9,-2,0,-1,1
1470331400969972,-2,-10,-33,-13,-2,-3,-1,0
1470331400978512,0,2,4,4,0,0,0,-2
1470331400978512,0,1,9,-4,2,0,-1,1
1470331400993498,1,-4,8,1,1,0,-2,-1
1470331400993498,0,10,-13,-5,-3,-2,-2,-1
1470331400993994,-2,-4,-1,-7,-3,0,1,-2
1470331400993994,-3,-5,-1,11,-2,-1,-2,0
1470331401016547,3,1,0,-9,1,1,2,2
1470331401016547,-1,-5,7,3,0,-2,-1,-2
1470331401017030,-2,-6,-15,10,4,1,0,-1
1470331401017030,0,12,24,-7,-1,0,-1,1
1470331401039074,-2,4,-32,3,-1,0,-2,-2
1470331401039074,-3,-15,3,-4,-3,-2,-2,-3
1470331401039573,0,5,5,-9,-2,0,0,-1
1470331401039573,0,-4,-3,12,3,-1,-2,-1
1470331401053047,0,-3,-6,-11,-3,-1,0,-1
1470331401053047,-1,2,3,5,-1,-2,0,1
1470331401054097,1,2,10,2,3,-2,0,-1
1470331401054097,-1,-9,-35,-2,-3,-1,0,-2
1470331401076570,-1,-5,17,-12,-1,-2,-3,-2
1470331401076570,0,1,-4,1,1,0,1,1
1470331401077069,0,5,5,5,-6,-2,0,-1
1470331401077069,-2,1,-7,-3,1,-1,-1,-2
1470331401099088,-2,-4,-13,-7,1,-2,0,-2
1470331401099088,0,0,6,12,4,1,0,-1
1470331401099589,0,5,7,-6,-2,-2,-4,1
1470331401099589,-1,-4,-10,-1,-2,-2,0,-2
1470331401113156,-1,2,-2,-4,-3,-2,-1,0
1470331401113156,1,6,20,5,1,1,2,2
1470331401114146,-2,2,1,-3,-3,-1,-1,-2
1470331401114146,-2,-9,8,5,0,1,-2,0
1470331401136622,-1,-2,-10,-6,-2,-1,-1,1
1470331401136622,-1,-6,-15,-11,0,0,-1,-3
1470331401137124,2,3,1,5,-4,0,-1,0
1470331401137124,-3,-7,13,-2,1,0,0,1
1470331401159142,-1,3,-11,-3,-4,-1,0,-1
1470331401159142,-2,-2,-7,9,3,-2,1,0
1470331401159643,-5,-11,2,-18,-6,-4,-1,-4
1470331401159643,-1,4,0,-6,0,-2,1,0
1470331401173155,-2,-4,2,6,-2,-1,-2,-3
1470331401173155,0,-4,7,1,0,0,-2,-1
1470331401174157,-1,0,-29,-1,-1,-3,-1,-2
1470331401174157,0,3,-2,6,1,1,-2,-1
1470331401196676,-2,-6,0,-5,0,-2,1,0
1470331401196676,-1,3,-2,-5,-5,0,-1,1
1470331401197177,1,-4,5,7,1,-2,-3,0
1470331401197177,-2,2,5,1,0,-1,-1,-2
1470331401219196,-4,-5,3,18,3,2,0,-3
1470331401219196,-1,0,-14,-12,-4,-2,-2,-3
1470331401219697,0,-7,-3,0,3,-1,1,0
1470331401219697,1,4,10,-11,-6,-1,-1,0
1470331401233252,0,14,5,0,-2,-3,-1,-4
1470331401233252,1,-2,-17,-20,-2,-1,-2,-1
1470331401234209,-3,-4,13,9,2,1,0,-1
1470331401234209,0,-4,-4,2,1,-2,0,-1
1470331401256737,-3,-4,-3,-6,-3,-1,-2,0
1470331401256737,-2,-2,-1,-2,-1,-2,-2,-2
1470331401257231,1,4,-6,-2,-2,0,-1,1
1470331401257231,-3,-8,8,7,-2,-3,-1,-1
1470331401278801,-1,-4,-12,3,0,1,0,0
1470331401278801,0,-2,4,-5,-1,-2,-2,-2
1470331401279793,-1,-3,-8,0,0,0,-1,-2
1470331401279793,3,9,19,7,-1,0,-1,0
1470331401293286,-3,-6,-14,-17,-6,-3,-3,0
1470331401293286,-4,-5,12,15,-1,-2,0,-2
1470331401294283,-3,4,-14,-15,-4,0,1,0
1470331401294283,0,-6,-10,2,-2,0,-1,0
1470331401316284,1,1,4,0,1,-1,-1,-1
1470331401316284,-3,13,10,4,-2,-2,0,-1
1470331401317285,0,1,-6,3,4,-1,1,1
1470331401317285,-1,0,-4,-12,-1,-1,-1,-1
1470331401338803,0,-3,-1,-1,-1,0,-2,-3
1470331401338803,-2,-6,-5,6,-2,-1,0,1
1470331401339804,-2,-3,5,4,0,0,-1,-1
1470331401339804,0,-2,-4,2,-1,-2,0,-2
1470331401353317,-2,-3,11,2,2,-2,0,0
1470331401353317,0,-3,-11,-10,1,-1,-1,0
1470331401353817,-1,1,8,8,2,0,-1,-1
1470331401353817,0,2,-8,-14,-5,-2,-2,-2
1470331401376371,0,-6,4,2,-5,-2,0,-1
1470331401376371,-1,4,-3,3,-2,-1,0,-1
1470331401377342,-3,-4,-8,-3,1,-1,-3,-3
1470331401377342,-2,5,22,6,-2,-1,-2,-1
1470331401398870,-1,-8,-27,-7,1,-1,-2,0
1470331401398870,2,1,7,-1,0,0,-3,0
1470331401399892,1,19,6,4,-1,1,2,1
1470331401399892,-3,-6,-18,2,-2,-2,-1,-2
1470331401413377,-1,3,16,4,0,-1,0,-2
1470331401413377,-2,-12,-23,-9,-4,-2,-1,0
1470331401413871,1,-2,1,-12,-4,-1,-2,0
1470331401413871,0,-4,-6,14,4,-2,0,-2
1470331401436392,0,0,-4,-13,0,-2,0,0
1470331401436392,1,-3,11,5,-4,0,-1,-1
1470331401437530,2,0,5,-5,0,-1,-1,-1
1470331401437530,-2,5,-4,-6,-4,-1,0,-1
1470331401458955,-4,-11,-9,7,2,-1,-2,0
1470331401458955,1,5,13,2,-2,-1,-1,-3
1470331401459940,-4,-9,-7,-2,-2,-2,-1,-3
1470331401459940,-2,-7,0,4,1,1,1,-1
1470331401473439,0,15,0,-20,-2,-2,-1,-2
1470331401473439,-1,0,-4,8,-1,-1,-2,0
1470331401473927,-1,-5,-1,0,-4,-1,0,0
1470331401473927,-1,-9,-2,4,0,0,-2,0
1470331401496523,0,9,17,10,0,1,-1,0
1470331401496523,-2,-8,-25,-23,-2,-1,-2,-2
1470331401497000,0,-1,20,-3,-2,-1,-2,-1
1470331401497000,1,-1,-1,4,-1,-1,1,0
1470331401518997,0,0,10,9,0,0,-2,-1
1470331401518997,0,-3,-7,3,-1,-1,-1,0
1470331401519966,-3,-5,-3,-2,0,-2,-2,-1
1470331401519966,0,-1,-7,-20,0,1,0,-1
1470331401541577,2,-6,-1,2,1,-2,-1,1
1470331401541577,-3,2,-10,2,-5,0,0,-1
1470331401541993,0,3,-2,-6,-1,-2,-2,-2
1470331401541993,0,3,-5,9,-3,-1,-3,-1
1470331401556528,0,-9,-3,-5,-1,-1,0,-1
1470331401556528,2,12,-1,-8,0,0,1,-2
1470331401556999,0,-5,10,13,1,1,-1,-1
1470331401556999,-1,-8,-13,-19,-2,-2,-1,-2
1470331401579064,-3,13,-4,3,-2,-2,0,0
1470331401579064,-3,1,5,7,0,-3,-3,1
1470331401579520,-2,-3,14,2,-3,-1,-1,-1
1470331401579520,-1,-2,-3,-5,0,0,-1,0
1470331401593033,0,1,-8,-7,-2,-2,-1,-2
1470331401593033,-2,-5,3,3,1,0,-1,-1
1470331401594034,-1,-4,-5,-1,-1,1,-1,-1
1470331401594034,-1,0,7,0,-2,-3,-3,-2
1470331401616552,1,-1,-9,2,0,1,0,3
1470331401616552,-1,-2,17,2,-1,-1,-2,1
1470331401617053,-2,-1,-15,6,-2,-2,0,-1
1470331401617053,0,-5,7,-24,0,-1,1,-1
1470331401646579,1,-1,-1,-1,-3,-2,-1,-3
1470331401646579,0,1,-2,2,0,-2,0,-3
1470331401648129,-2,-8,2,-1,-4,-1,-2,2
1470331401648129,-2,5,-2,15,1,1,-1,-1
1470331401652628,-2,1,-20,-16,-4,-3,-2,-1
1470331401652628,-3,-9,27,1,0,0,-1,1
1470331401661593,-1,11,-5,-1,-1,-1,-1,-2
1470331401661593,-1,-5,-19,-5,-2,-1,-2,-2
1470331401676606,-2,-6,19,2,-1,0,-1,-5
1470331401676606,2,1,1,2,0,-2,0,-1
1470331401678107,-1,2,4,-2,-2,-1,0,0
1470331401678107,-1,-5,-7,-3,-1,-2,2,0
1470331401699127,0,4,1,5,-1,-1,0,-1
1470331401699127,-1,-4,-7,-6,-3,-1,-1,0
1470331401700711,-1,2,12,18,2,-1,-1,-1
1470331401700711,0,-8,-9,-28,-7,-1,-3,-1
1470331401712675,0,-5,-9,1,1,-1,-1,1
1470331401712675,-1,0,-13,-6,-2,0,0,-3
1470331401721652,0,0,15,-4,0,-1,-1,-1
1470331401721652,-2,1,-3,14,-2,-2,0,-1
1470331401736665,-4,-5,6,-13,-6,-3,-3,-2
1470331401736665,0,-6,2,8,4,0,-1,-1
1470331401738163,1,6,-10,-8,-1,-1,-1,0
1470331401738163,-2,-1,1,12,-1,-3,-2,-1
1470331401766688,-2,-2,-3,-2,1,0,-1,0
1470331401766688,1,-2,-2,-4,-1,0,-2,-2
1470331401768189,-3,-10,-17,-6,1,-1,-2,-1
1470331401768189,0,3,19,2,-2,-2,-2,-1
1470331401772693,0,0,-10,5,1,0,0,1
1470331401772693,-1,-3,5,-1,-4,-2,-1,-1
1470331401781702,-1,1,-9,-11,-1,1,-1,-2
1470331401781702,2,9,14,9,0,-1,0,1
1470331401804222,-2,-8,-15,-4,-3,0,0,-2
1470331401804222,-3,0,-1,1,-3,-2,0,-3
1470331401805723,-1,2,-3,-2,1,-2,-1,-2
1470331401805723,-2,-6,-10,-2,0,-1,-3,0
1470331401818736,2,11,4,8,-1,0,0,0
1470331401818736,-3,7,18,-5,-4,-2,-1,1
1470331401820737,1,-10,3,-5,-3,-1,-1,-1
1470331401820737,-1,8,1,2,0,-1,1,-1
1470331401832751,-1,-6,-5,-4,-2,0,-3,-2
1470331401832751,-1,-3,-4,-4,4,1,-1,-2
1470331401841254,0,2,19,11,0,-2,-1,1
1470331401841254,-1,-5,-4,-10,-2,-1,0,-1
1470331401856296,0,3,-7,5,-3,-3,-1,-2
1470331401856296,-3,0,-6,3,2,-1,0,-3
1470331401858318,-1,-4,-15,-21,-5,-1,0,-3
1470331401858318,2,-3,-1,5,0,-1,-2,0
1470331401879801,-1,0,8,-5,-1,-1,-1,-1
1470331401879801,0,0,-4,-2,-3,-2,-2,0
1470331401881291,-1,-2,1,8,-1,-1,-1,-1
1470331401881291,0,-4,-10,-11,-2,1,0,0
1470331401892801,-3,9,3,-3,-1,-2,-1,-1
1470331401892801,-2,-2,-7,-1,1,-1,0,0
1470331401901312,1,16,7,5,-2,0,0,0
1470331401901312,0,-1,5,-1,0,0,-2,-1
1470331401916377,-2,-5,10,3,0,0,-1,-3
1470331401916377,0,-6,-11,-5,-3,1,-1,-1
1470331401917823,-1,5,0,3,0,-3,0,0
1470331401917823,-1,-1,8,5,-1,-1,-1,-1
1470331401938897,-1,-9,9,5,0,-2,-2,-1
1470331401938897,0,-3,-12,-12,-4,-2,-3,-1
