timestamp,emg1,emg2,emg3,emg4,emg5,emg6,emg7,emg8
1470262627995716,-4,2,11,-3,-3,-2,-1,-3
1470262627995716,-6,-12,-2,7,5,1,-1,-1
1470262627997217,0,-2,-7,-12,-4,-3,0,-2
1470262627997217,0,7,2,5,-1,-2,-1,-2
1470262628009729,0,-8,-4,-6,0,-1,0,0
1470262628009729,-8,8,-8,-7,-4,-2,-3,-3
1470262628016734,6,10,8,1,-2,-1,-1,-2
1470262628016734,-4,-7,17,9,2,-1,0,0
1470262628033249,-1,-5,-25,-1,0,-2,0,-2
1470262628033249,2,6,4,-5,-3,-3,0,0
1470262628034751,-4,-6,-4,-6,-3,-2,1,-3
1470262628034751,3,-1,2,3,-2,0,-1,0
1470262628055769,-1,-3,-1,-1,-1,-2,-2,-1
1470262628055769,3,10,2,-4,-2,0,-2,-1
1470262628057271,-10,-24,-7,1,0,0,-3,0
1470262628057271,-1,-2,7,1,0,0,1,-5
1470262628069783,2,11,-12,6,-1,-1,-1,-2
1470262628069783,0,-14,12,-3,1,-1,0,-2
1470262628076788,-5,8,-2,-4,-1,-1,1,-3
1470262628076788,-2,-8,-7,9,0,0,-1,0
1470262628093303,-4,-20,-6,-3,1,-2,-2,0
1470262628093303,-3,3,6,1,-2,-1,0,1
1470262628094804,3,0,0,-1,-1,-1,-1,0
1470262628094804,-3,-2,6,2,0,-2,-2,-3
1470262628115322,1,-3,-6,-6,-3,-1,-2,0
1470262628115322,3,2,-5,-4,-1,-2,-3,1
1470262628117324,-5,-8,-5,1,1,0,-2,-2
1470262628117324,-1,11,-6,-7,-3,-2,0,-2
1470262628137843,-3,-6,11,12,2,1,1,-4
1470262628137843,-2,10,-9,-7,-3,0,1,-2
1470262628139845,6,-3,10,0,-3,-2,-1,1
1470262628139845,7,-3,-18,-7,-1,-2,-1,4
1470262628152856,-3,6,8,-8,-1,-2,0,0
1470262628152856,-3,0,-5,-3,-1,0,-2,-1
1470262628154858,-3,3,0,8,2,0,0,1
1470262628154858,-4,-4,13,-7,-1,-1,-2,-1
1470262628175377,-1,0,-20,-6,-1,-2,0,1
1470262628175377,1,-5,-1,5,0,-1,-1,-4
1470262628176878,-1,1,8,-1,-2,-2,-2,0
1470262628176878,-2,-6,-13,-9,-4,-1,1,-1
1470262628189891,-3,4,0,4,0,0,-2,-2
1470262628189891,0,-5,-7,-7,-4,-5,0,4
1470262628196895,-3,3,3,5,1,-1,0,-4
1470262628196895,-5,3,1,0,0,0,-3,-3
1470262628212910,-3,-7,-3,-5,-4,-2,-2,0
1470262628212910,4,15,5,4,-2,-1,0,-2
1470262628214412,-8,-11,-2,-5,-1,1,0,-1
1470262628214412,4,0,5,0,-1,-1,0,3
1470262628235430,-2,-5,-13,1,-1,0,-2,-1
1470262628235430,-1,-9,-16,-4,-2,-3,-2,-2
1470262628236932,-5,-3,8,2,0,-1,-1,-2
1470262628236932,0,2,-5,0,1,0,-1,-2
1470262628249944,1,-1,13,-1,0,-1,-3,0
1470262628249944,-7,-11,-12,-3,-2,-1,-2,-2
1470262628256449,9,15,-10,-2,-1,0,-1,1
1470262628256449,-5,-9,2,-1,-2,-1,1,-2
1470262628272965,1,1,8,3,-1,-1,1,1
1470262628272965,-1,0,2,0,-2,-2,-3,-3
1470262628274466,-1,1,0,-7,-2,-4,-1,-1
1470262628274466,-2,-2,-13,4,-2,0,-1,0
1470262628295484,-4,-6,4,-9,-3,-1,-2,-1
1470262628295484,-2,-11,22,3,-1,3,-1,2
1470262628296987,0,-5,-39,-6,-3,-1,-1,2
1470262628296987,-1,3,4,-7,-4,-1,-2,-2
1470262628308996,0,6,9,8,-2,0,-2,-1
1470262628308996,-1,2,-2,-6,-3,-2,-1,-3
1470262628318005,-1,-4,-2,-5,-3,-1,-3,-3
1470262628318005,3,3,-3,6,2,-1,0,3
1470262628333018,-9,5,7,-7,-2,-2,-1,0
1470262628333018,2,-6,6,5,1,-2,-2,1
1470262628334525,3,6,0,-1,-1,-1,-1,-1
1470262628334525,-2,-8,-6,-4,-2,-2,-2,-2
1470262628355538,6,7,1,-2,1,-2,0,0
1470262628355538,-3,-2,3,4,3,-1,0,-3
1470262628357040,-2,0,11,4,-2,-2,-1,-1
1470262628357040,-4,-6,1,8,-1,-2,-2,-4
1470262628369053,-3,-9,-1,-3,-3,-2,1,-3
1470262628369053,5,8,-24,-8,-2,0,1,1
1470262628378058,-5,-22,1,-1,-2,-1,0,-5
1470262628378058,3,16,8,-4,0,0,-3,-2
1470262628393073,-2,-7,-4,-4,0,-1,-1,-2
1470262628393073,-5,-5,-3,0,0,0,0,0
1470262628394574,6,11,11,1,0,-2,0,2
1470262628394574,-11,-5,-12,-2,-2,-2,-1,-2
1470262628415593,2,1,-10,-6,-4,-3,-1,-1
1470262628415593,3,9,-2,0,1,0,0,-2
1470262628417094,-5,-2,2,7,1,0,-1,-2
1470262628417094,4,-2,7,-7,0,0,-1,-1
1470262628429106,0,6,-3,-2,-1,0,0,-2
1470262628429106,3,10,3,1,0,1,0,-2
1470262628438113,-5,-2,3,-1,-1,-1,-1,-2
1470262628438113,2,4,-11,-4,-2,-2,0,0
1470262628453128,-5,-6,1,-1,-1,-1,-2,-3
1470262628453128,-2,-5,-6,-5,-2,-3,-4,-2
1470262628454629,-3,2,-8,-3,-2,0,-1,0
1470262628454629,-5,-18,7,5,0,0,-1,-3
1470262628475646,6,7,-1,3,0,1,1,3
1470262628475646,-4,-7,-5,-1,0,-1,-2,0
1470262628477148,-4,0,5,-3,-2,-1,-2,-4
1470262628477148,-4,2,-7,-1,-2,-2,-1,-1
1470262628489160,2,-7,-3,-1,-2,-3,-2,-2
1470262628489160,-5,-13,3,3,0,-2,-1,-3
1470262628498167,7,11,2,-1,-2,0,0,2
1470262628498167,0,0,4,1,0,-1,-1,1
1470262628513179,-5,2,-13,-2,0,1,0,1
1470262628513179,3,3,16,2,-4,-1,1,-1
1470262628514682,-2,-5,1,7,1,-3,-2,0
1470262628514682,1,0,-1,-7,-2,-2,0,-1
1470262628535700,2,-1,-11,-1,-2,-2,0,0
1470262628535700,-4,0,5,-2,2,0,-2,0
1470262628537202,-4,-13,4,8,-2,-3,-1,-3
1470262628537202,3,-2,-8,-1,0,-1,0,-2
1470262628549213,-4,-10,2,-6,-3,-2,-3,0
1470262628549213,-12,3,0,-3,-3,-2,-1,-3
1470262628558221,6,1,-1,-2,1,0,-2,3
1470262628558221,-2,6,-14,-3,-1,-2,-2,0
1470262628573233,0,-13,4,-1,-3,-2,-2,-1
1470262628573233,3,8,0,0,-1,0,-1,-1
1470262628574735,-2,3,0,-7,-2,-1,0,-2
1470262628574735,-3,-3,4,-5,-2,-2,-2,-2
1470262628595755,1,17,14,13,-1,-1,-1,1
1470262628595755,0,-7,-13,-1,0,-2,0,-1
1470262628597255,-3,1,-10,-3,-4,-3,0,0
1470262628597255,0,-5,3,-3,-1,-2,-1,-2
1470262628609766,0,5,2,-6,0,-1,0,-1
1470262628609766,-2,-15,-7,-1,-1,-1,-1,-4
1470262628618274,9,15,2,-4,0,-1,-2,-1
1470262628618274,-15,-9,2,2,-2,-1,-3,1
1470262628633288,2,2,6,4,3,-2,0,0
1470262628633288,-8,-9,5,-2,-2,-2,-1,-1
1470262628634790,7,17,-6,-1,-1,-3,0,0
1470262628634790,2,-1,-13,-5,-2,1,-1,-1
1470262628655308,-6,-16,-2,-6,-2,0,-2,-2
1470262628655308,1,-1,-1,8,2,-1,0,0
1470262628657309,-2,-1,-2,-12,-4,0,-1,1
1470262628657309,-3,-2,16,8,1,-3,-1,-3
1470262628669320,0,3,-21,-8,-3,-2,-2,-2
1470262628669320,3,-3,-2,-4,-2,-1,-2,0
1470262628678328,-5,-11,-5,-4,0,0,0,-2
1470262628678328,0,8,7,8,0,0,1,-2
1470262628692841,2,6,-1,-4,-1,-2,-1,-1
1470262628692841,-2,4,-1,1,-1,0,-1,0
1470262628694843,-6,-6,8,0,0,-2,0,-1
1470262628694843,1,-11,-15,1,0,1,-1,-1
1470262628715361,7,19,20,-2,-1,-1,-3,0
1470262628715361,0,-6,-27,5,-2,-3,-2,-1
1470262628717363,-5,-2,8,2,0,-2,-1,-2
1470262628717363,5,4,1,5,2,-2,-1,1
1470262628729374,-4,-6,-2,0,-1,-2,-1,-5
1470262628729374,0,6,5,-8,-4,-2,-2,0
1470262628738382,-1,-14,-17,-5,-3,-1,-2,-1
1470262628738382,-4,5,9,0,0,2,1,-1
1470262628752895,4,5,-2,5,2,0,0,-1
1470262628752895,2,4,9,-1,-2,-2,-1,-2
1470262628754396,-4,2,-8,-6,-1,0,-1,-1
1470262628754396,-6,-11,1,2,1,-1,-2,-2
1470262628775416,0,3,-8,-4,-2,0,0,0
1470262628775416,-1,-13,0,0,0,0,1,-1
1470262628776917,7,19,9,3,-3,-3,-2,-1
1470262628776917,0,-4,-3,-5,0,-1,0,0
1470262628797936,-3,-12,-10,-2,-2,0,-1,0
1470262628797936,-3,0,10,-1,2,0,0,0
1470262628799438,-7,-18,-7,3,-1,-3,-3,-3
1470262628799438,2,23,5,-9,-4,-2,-1,-3
1470262628812949,-2,-10,3,4,1,0,1,1
1470262628812949,-4,5,-3,-4,0,-1,0,-1
1470262628814451,1,0,0,-3,1,-2,-2,-3
1470262628814451,4,1,-6,-4,0,1,0,0
1470262628835469,-9,-12,6,2,-2,-2,-2,-2
1470262628835469,0,-6,-15,-5,-4,-2,-2,-1
1470262628841475,1,-3,-1,8,2,0,0,-2
1470262628841475,-1,-6,-6,-9,-1,-1,0,-2
1470262628857989,3,22,19,6,-1,0,-1,-2
1470262628857989,-2,-16,-15,-8,-2,0,-3,-1
1470262628859491,-2,-7,-14,-4,-5,-3,-2,0
1470262628859491,0,4,4,1,0,-1,0,0
1470262628873003,-4,-1,-4,-7,0,-2,0,-2
1470262628873003,-1,6,5,6,2,0,-1,1
1470262628874505,-3,-3,5,-7,-2,-1,-2,-2
1470262628874505,2,2,-9,1,-3,-4,-1,-1
1470262628895524,-4,-8,-1,2,1,-1,0,-2
1470262628895524,2,8,4,-1,-4,-1,-1,-2
1470262628897024,2,-7,3,0,1,2,2,2
1470262628897024,-6,-5,3,1,-2,-1,0,0
1470262628918044,1,-10,-8,-1,1,-1,-1,0
1470262628918044,-9,-16,-13,-10,-1,-2,-3,-3
1470262628919545,0,6,8,9,0,0,-1,1
1470262628919545,6,-4,-4,-3,-2,-1,-2,1
1470262628932556,-6,-4,-5,-6,-1,-1,0,-4
1470262628932556,-1,3,2,-6,-5,-3,-2,-2
1470262628939063,-1,-1,6,12,5,-1,-2,1
1470262628939063,-6,-8,4,-6,-2,2,-1,-3
1470262628955577,-4,10,-8,-4,-4,-2,-2,-2
1470262628955577,7,-2,3,7,-1,-1,1,2
1470262628957080,-3,4,-8,-4,0,2,-1,-2
1470262628957080,5,3,10,2,1,-1,-2,2
1470262628978097,-5,-6,-10,4,1,-2,-2,0
1470262628978097,-1,4,8,-4,-2,-2,-1,-2
1470262628979599,-3,4,5,-4,-2,-1,1,-2
1470262628979599,-6,-13,-15,6,-1,-1,-2,-2
1470262628992610,9,12,-5,-8,-2,1,0,1
1470262628992610,-3,4,5,5,0,-2,-1,-1
1470262628999116,-1,-2,-4,-2,0,-2,0,-1
1470262628999116,-6,0,-7,-12,-3,-3,-1,-2
1470262629015631,2,-2,18,13,-1,-2,-1,2
1470262629015631,3,10,-7,11,2,0,-2,-2
1470262629017133,1,-13,1,-7,-4,-3,-3,-2
1470262629017133,0,9,1,-3,-2,-2,-1,1
1470262629038151,-7,-12,-10,-7,-3,-1,-2,-2
1470262629038151,3,11,4,-1,-1,-3,-1,2
1470262629039652,4,-14,-10,-3,0,-2,-2,-3
1470262629039652,-6,-4,-4,-1,-1,0,-1,0
1470262629052664,0,-2,-3,-5,-1,0,-1,-2
1470262629052664,-8,-15,12,3,0,1,-1,-4
1470262629059171,-2,0,-18,3,-1,1,-1,1
1470262629059171,3,4,-1,0,0,-1,-1,-3
1470262629075684,4,1,7,2,-2,1,-1,0
1470262629075684,0,4,-3,-4,-2,0,0,3
1470262629077186,-4,-2,5,-1,-2,-1,-1,-1
1470262629077186,1,-2,-2,3,2,-1,-2,0
1470262629098205,1,7,6,-3,-4,-1,-1,-2
1470262629098205,1,1,-4,-4,-2,2,0,0
1470262629099707,-2,13,-16,-2,0,-1,-1,0
1470262629099707,0,-1,3,-6,-4,-2,-2,-4
1470262629112219,-8,-14,-4,-7,0,-1,0,-1
1470262629112219,-2,-3,8,7,-1,-2,-1,-1
1470262629120726,0,12,2,-8,-2,0,-1,-1
1470262629120726,-12,-26,-7,0,-3,0,0,-3
1470262629135738,7,5,-2,-8,-1,-1,-2,-1
1470262629135738,1,4,7,11,2,-2,0,2
1470262629137241,-5,-18,-10,1,1,0,-1,-2
1470262629137241,0,1,7,-2,-3,-2,-3,-3
1470262629158259,-5,-9,-10,-2,-1,-1,-1,-2
1470262629158259,3,6,-2,-8,-3,-2,-2,-2
1470262629159760,1,-4,7,-4,-4,-3,-1,-2
1470262629159760,2,2,-8,5,-1,-1,-1,-1
1470262629172272,-1,5,2,7,2,-2,-1,-2
1470262629172272,-6,-11,-1,-9,-3,-1,1,-2
1470262629179277,0,0,4,21,1,-1,0,0
1470262629179277,-3,5,5,-10,1,0,-1,-1
1470262629195292,9,12,4,9,-1,-1,-1,1
1470262629195292,-1,-1,-16,-8,-1,-1,-3,-2
1470262629197294,4,-9,5,-4,0,-1,-2,2
1470262629197294,0,1,-2,5,-1,-3,0,0
1470262629217813,2,6,-4,-3,-1,0,2,2
1470262629217813,-2,4,6,1,0,0,-2,-3
1470262629219814,-1,7,4,-2,-1,-1,1,-2
1470262629219814,4,9,-11,-2,1,0,-2,1
1470262629232326,-7,-16,-1,-1,-1,-1,-2,-2
1470262629232326,-2,11,0,-2,0,-1,-1,-1
1470262629239332,-6,-10,1,-2,-2,-2,0,-2
1470262629239332,3,-2,20,6,0,-3,-2,0
1470262629255346,-5,-4,-28,-7,-4,-1,-1,-3
1470262629255346,-1,-4,1,-5,-2,-1,-1,-2
1470262629256848,1,6,10,11,0,-1,-2,0
1470262629256848,-2,10,0,-4,0,-3,-1,-2
1470262629278367,-5,-8,9,-7,-1,-1,0,-1
1470262629278367,-1,-5,-13,-5,-3,-2,0,-1
1470262629279869,-3,6,3,8,1,0,-1,0
1470262629279869,1,-9,1,3,0,0,-1,-1
1470262629291879,-1,5,6,-1,-3,-2,-3,0
1470262629291879,-7,-7,-2,-3,-4,0,0,-2
1470262629300388,-3,5,-5,-8,1,-1,-1,-1
1470262629300388,-3,-22,-11,0,-2,0,-1,2
1470262629315401,3,17,5,-2,1,0,0,4
1470262629315401,0,-15,0,2,-4,-3,-2,0
1470262629316901,2,5,8,-2,-3,-2,1,-2
1470262629316901,-7,-10,-15,-10,-1,1,0,-1
1470262629337921,-4,-7,-7,8,-1,-2,-1,-4
1470262629337921,0,0,-13,-10,-3,0,-4,-1
1470262629339422,-7,-16,5,6,0,-1,-1,-1
1470262629339422,-3,9,15,-1,-1,-1,0,-5
1470262629351932,-1,0,-20,-2,-2,-1,-2,-1
1470262629351932,6,11,20,8,3,2,1,2
1470262629360441,-5,2,-22,-12,0,0,-3,-3
1470262629360441,1,6,16,2,-2,-3,-4,1
1470262629375454,1,0,4,1,-1,-1,-1,-1
1470262629375454,-2,3,-17,-4,-1,-1,-1,-1
1470262629376956,-2,-6,15,-5,-4,-2,-3,-4
1470262629376956,-1,8,0,3,0,1,0,-1
1470262629397976,0,-4,-16,-5,-1,-3,-3,-3
1470262629397976,-3,-4,0,4,4,0,0,-2
1470262629399477,0,-13,5,-4,-3,-2,0,0
1470262629399477,-8,-6,-21,-5,-4,-1,-1,1
1470262629411487,3,9,-3,3,0,0,0,-3
1470262629411487,-3,-11,12,0,-1,-2,-2,-4
1470262629420494,5,16,5,-3,-3,-2,-1,-2
1470262629420494,-2,-2,-9,-5,-3,-1,0,1
1470262629435507,-4,-27,10,10,8,1,1,-2
1470262629435507,-3,10,-3,-3,-4,-2,-2,-2
1470262629441513,-5,0,-11,-8,-3,1,-2,0
1470262629441513,-1,1,1,-2,-1,-3,-1,-4
1470262629458029,-5,-13,3,-5,-4,-3,-1,-1
1470262629458029,3,-5,-8,4,0,1,0,0
1470262629459529,1,9,14,5,3,0,2,1
1470262629459529,0,10,-15,-7,-4,-2,-3,-1
1470262629471541,-3,-7,-8,3,0,-1,-2,-2
1470262629471541,0,-1,7,4,0,0,0,-1
1470262629480548,-4,-11,-15,-5,-2,0,-2,-4
1470262629480548,6,18,20,7,1,0,-1,2
1470262629503069,-7,-8,2,-10,-2,0,-1,-1
1470262629503069,0,-7,-5,-5,-4,-4,-2,-3
1470262629504570,-1,2,-16,3,-3,-1,-2,0
1470262629504570,2,3,5,3,5,1,-1,-2
1470262629518082,-5,0,-1,-5,-4,-2,-2,0
1470262629518082,0,2,4,1,-1,-1,-2,0
1470262629519583,-3,-5,-9,0,0,-2,-1,-1
1470262629519583,-3,-7,-2,4,-2,-2,-1,0
1470262629531595,1,3,8,-6,-4,-1,-1,-3
1470262629531595,-1,5,-3,-1,0,-2,1,0
1470262629540602,1,-6,-8,0,-3,-3,-2,1
1470262629540602,-2,-11,-7,-6,0,-1,-2,-4
1470262629555616,-4,-4,-1,2,-2,-1,0,-5
1470262629555616,0,-4,0,2,0,0,-1,0
1470262629557118,-2,6,8,-6,-3,-1,-3,-3
1470262629557118,-4,-8,-6,-4,-2,-2,-2,-1
1470262629578137,6,-1,5,-4,0,-1,0,2
1470262629578137,-10,-9,-7,-4,2,0,-1,-2
1470262629580138,-1,-5,-6,-4,-1,-1,0,-1
1470262629580138,0,1,9,3,-2,-2,0,-2
1470262629591649,-8,-9,4,-7,-3,-1,-2,0
1470262629591649,14,10,-6,-2,-2,0,-2,1
1470262629600656,-3,7,-6,3,-1,-1,-2,-3
1470262629600656,4,-10,-14,-9,-3,-2,-1,-1
1470262629615670,3,20,4,4,0,0,-1,0
1470262629615670,-7,-11,7,-9,0,-1,-1,-3
1470262629617171,-1,3,1,-3,-4,-3,-2,-2
1470262629617171,6,3,1,16,1,-1,1,2
1470262629638190,-1,3,1,-1,0,-2,-2,-2
1470262629638190,3,7,-2,-5,-4,-5,-2,0
1470262629639692,4,6,-2,6,6,3,-2,2
1470262629639692,-8,-4,3,-5,-4,0,-1,-3
1470262629651702,4,-1,2,7,0,0,0,0
1470262629651702,-7,2,2,-2,-2,-2,-1,-1
1470262629660711,0,-21,-11,-5,-2,-1,-1,1
1470262629660711,-1,4,1,1,1,0,0,2
1470262629675723,3,11,32,7,0,0,-1,-2
1470262629675723,-3,0,-44,-1,0,2,0,-1
1470262629677225,4,5,11,-7,-3,-3,-1,-1
1470262629677225,-1,2,-6,-4,0,-1,-2,0
1470262629698243,-6,-21,-3,0,-4,-1,-3,-1
1470262629698243,2,9,0,2,1,-2,-1,1
1470262629699745,-4,4,11,-3,-1,-1,0,-3
1470262629699745,1,0,0,-3,-3,-4,-1,-1
1470262629720764,-1,-12,-20,-6,-1,0,1,-3
1470262629720764,-4,-7,12,10,3,-1,0,0
1470262629722265,-1,0,-10,-7,-3,-2,-2,-3
1470262629722265,1,2,7,5,0,-1,-1,1
1470262629735778,1,3,-5,-6,-3,-1,-1,-1
1470262629735778,-1,-3,-20,-12,-4,-2,-2,0
1470262629737278,-4,8,20,10,1,-3,-1,-2
1470262629737278,-8,-11,-9,-7,-1,-1,-2,-4
1470262629757797,13,25,2,0,0,-1,0,3
1470262629757797,-6,-16,-6,2,-1,-1,-2,-3
1470262629759799,5,5,7,-6,0,0,0,1
1470262629759799,-3,-3,-7,-1,-2,-1,-1,2
1470262629780818,-3,-4,3,0,-1,-2,0,-1
1470262629780818,-6,-7,2,0,-4,-2,-2,-3
1470262629782319,1,-12,-5,-2,-3,-1,-2,-2
1470262629782319,-1,-3,0,-3,-3,-1,-1,-5
1470262629802837,-4,-6,0,5,-1,-3,-1,-1
1470262629802837,-4,-4,10,-4,1,-2,-1,-2
1470262629803839,-3,-6,-7,4,-2,0,0,-2
1470262629803839,0,3,-2,-4,-3,-1,-2,3
1470262629817351,-10,-8,-19,-1,-1,-2,-1,-2
1470262629817351,2,-6,8,3,-4,1,-3,-4
1470262629817851,-8,-7,-7,-3,-1,-2,0,0
1470262629817851,0,6,10,-3,-1,1,0,1
1470262629839871,0,7,-9,-2,1,-1,-2,1
1470262629839871,0,-1,-1,1,-2,0,-2,-1
1470262629840371,2,-1,2,-6,-2,0,-2,-1
1470262629840371,-3,7,30,2,1,-1,-2,-3
1470262629854885,-1,-3,-50,2,-1,-1,-1,-1
1470262629854885,5,12,7,-4,2,-1,0,1
1470262629855384,-6,-11,0,0,-1,-2,1,-1
1470262629855384,0,-1,-9,-6,-1,0,-3,-5
1470262629877405,5,-2,15,6,-3,0,-1,0
1470262629877405,-12,11,4,-4,-1,0,0,1
1470262629877905,1,4,-7,-2,-1,-2,-2,-1
1470262629877905,2,-7,-4,6,1,-1,-1,0
1470262629899953,-1,7,10,-10,0,0,-2,0
1470262629899953,-7,-17,-11,3,-4,-1,-2,-4
1470262629900425,0,0,3,2,-1,0,0,-2
1470262629900425,7,4,-8,-1,0,-1,-1,-1
1470262629915044,-5,3,1,-5,0,-1,-2,-3
1470262629915044,0,-7,14,7,4,-1,0,-1
1470262629915439,0,10,-5,0,-4,-3,-3,0
1470262629915439,-6,-20,-18,-3,-3,-2,-1,-1
1470262629937484,-6,-7,-10,-8,-4,0,-2,-2
1470262629937484,10,18,1,-4,-4,-1,-1,0
1470262629937961,-2,-1,-11,-2,-1,0,-3,-1
1470262629937961,0,7,21,6,1,0,-1,0
1470262629960061,-10,-17,0,9,1,-2,0,-1
1470262629960061,6,-3,9,-3,-2,-2,-1,2
1470262629960479,-4,-3,-13,-4,1,-2,1,-3
1470262629960479,2,3,-1,-2,0,-3,-1,1
1470262629974506,-1,-2,1,1,-2,-3,-1,-4
1470262629974506,0,-4,-3,3,0,-1,-1,1
1470262629982499,-6,1,-5,-5,1,-2,-2,-2
1470262629982499,0,3,5,-2,-2,-1,-2,-1
1470262629997513,2,-16,-11,-6,-1,-3,0,1
1470262629997513,0,10,11,3,-1,-2,0,0
1470262629998013,5,9,-14,2,-2,-2,-2,1
1470262629998013,-8,-7,6,12,3,1,0,-1
1470262630020032,6,17,8,-2,-1,1,-3,-1
1470262630020032,2,-3,1,-6,-2,0,-1,-1
1470262630020533,-2,-11,-14,-4,-3,-1,-2,2
1470262630020533,-7,-2,2,-1,-3,-2,0,-3
1470262630035051,2,2,0,-1,3,-1,-2,-2
1470262630035051,-3,-4,-8,7,1,-2,0,-2
1470262630035546,1,3,13,-5,-3,-2,0,2
1470262630035546,-2,-3,0,7,1,0,-1,-4
1470262630057566,0,11,-1,8,2,-1,0,-2
1470262630057566,-2,-3,3,-8,-1,-2,-1,-1
1470262630058067,0,-3,-20,-2,-3,0,-3,-1
1470262630058067,-2,0,7,-7,-5,-2,-2,-1
1470262630080087,4,14,0,-12,-4,-1,-2,4
1470262630080087,-6,-10,13,23,8,3,-1,-2
1470262630080625,-1,-5,-12,-3,-1,-3,-2,-2
1470262630080625,-5,-15,1,-3,-4,-2,-3,-2
1470262630095100,2,-1,-1,-7,-1,-1,-2,0
1470262630095100,0,3,-9,-11,-3,-3,-1,0
1470262630095600,-3,-4,27,7,1,0,0,0
1470262630095600,0,-2,-42,-2,-1,-1,2,1
1470262630117625,-2,-1,7,-6,0,0,0,-1
1470262630117625,-3,-5,5,3,0,-2,-3,-1
1470262630118121,0,6,13,4,-1,0,-2,0
1470262630118121,2,1,-8,-12,-2,-1,0,-2
1470262630140141,-7,-2,2,9,-1,-1,1,0
1470262630140141,-2,-16,-34,-12,-4,-3,-2,-5
1470262630140641,3,23,21,1,-2,-1,0,2
1470262630140641,5,-3,-7,0,0,1,-2,1
1470262630163185,-6,-1,19,5,0,-1,-2,-5
1470262630163185,0,0,-10,-6,-4,0,-1,-3
1470262630163662,-5,-19,-6,3,-2,-1,-1,-3
1470262630163662,3,7,-1,-7,1,0,-1,0
1470262630177674,0,-10,2,4,0,0,-1,-1
1470262630177674,4,5,0,0,-1,0,0,2
1470262630178178,-4,-5,-9,-12,-3,0,1,-3
1470262630178178,2,1,22,5,1,-1,-3,-1
1470262630200195,-1,-29,-14,-6,-1,-1,-1,0
1470262630200195,-9,4,-18,-5,-2,-1,-1,-2
1470262630200711,2,5,5,-3,1,0,-2,-1
1470262630200711,-4,-6,-5,4,-3,-2,0,0
1470262630214708,2,12,7,4,0,0,0,-2
1470262630214708,-2,-7,-2,-13,-5,-4,-2,0
1470262630215709,6,8,4,8,-1,0,-1,-1
1470262630215709,-13,-13,-35,-16,-5,-3,0,-5
1470262630237228,5,-6,10,4,-1,-3,-4,-1
1470262630237228,-2,6,20,-5,-3,-1,0,-2
1470262630238230,4,1,-10,-2,1,-2,-1,2
1470262630238230,0,-7,-11,-3,-3,-2,-2,-1
1470262630259804,-5,4,19,-5,-3,0,0,-3
1470262630259804,3,8,-28,1,-2,1,0,3
1470262630260751,-5,-9,11,-1,-3,-3,-2,-4
1470262630260751,-4,-11,2,2,1,-3,-1,-3
1470262630274262,-1,6,1,0,0,-1,0,2
1470262630274262,1,-1,17,4,1,0,-1,-1
1470262630282313,-9,-11,-9,-2,1,0,0,0
1470262630282313,2,5,-13,0,1,0,-2,-2
1470262630297326,5,9,14,-2,-3,-3,-1,1
1470262630297326,-1,-5,17,-1,-3,-2,-2,-1
1470262630298282,-6,-18,-41,-12,-1,-1,-1,-2
1470262630298282,6,19,16,15,3,-1,-1,1
1470262630319847,-4,-6,-9,-8,-3,-1,-3,-3
1470262630319847,-4,-4,-16,-6,-2,-3,-1,-3
1470262630320802,1,-3,13,5,0,-1,-1,-1
1470262630320802,6,11,22,-3,-2,0,-1,0
1470262630334315,-16,-21,-17,-8,-3,-3,-3,-3
1470262630334315,-5,-12,-19,5,1,0,1,-7
1470262630342322,3,36,18,5,0,-1,-1,1
1470262630342322,-4,-15,15,2,-1,-3,-3,-4
1470262630357876,-2,-24,-48,-9,-2,-2,-2,-4
1470262630357876,-3,-8,5,-6,-3,-5,-3,3
1470262630357876,3,7,4,11,1,-1,0,-2
1470262630357876,-5,-7,-7,-8,1,1,0,1
1470262630379871,2,10,19,5,-4,-1,-2,-2
1470262630379871,-3,-4,-55,-8,0,-1,0,0
1470262630380856,4,1,26,-2,-2,-2,-2,-2
1470262630380856,-1,8,12,11,2,-1,-1,2
1470262630394397,-1,12,-8,0,2,-2,1,0
1470262630394397,3,-16,19,4,1,0,-2,0
1470262630402408,-3,18,-14,-8,-2,-3,-1,-3
1470262630402408,-7,-5,14,-10,-6,-1,-1,2
1470262630417421,1,-6,-48,-6,0,1,-1,-1
1470262630417421,-7,5,39,16,1,1,-1,0
1470262630417890,6,-6,13,8,5,2,0,1
1470262630417890,-11,-20,4,4,0,-2,0,-3
1470262630439911,11,22,13,-3,0,-3,-2,0
1470262630439911,7,6,-28,-16,-5,-4,-4,1
1470262630440411,-5,-7,6,1,-1,2,1,0
1470262630440411,-5,-4,5,5,-2,0,-1,-3
1470262630453923,9,7,7,0,-3,-4,0,1
1470262630453923,2,7,9,0,0,-1,0,-1
1470262630462480,-7,-7,-4,-6,-2,2,-1,-4
1470262630462480,11,16,-18,-9,-1,-2,-2,2
1470262630477489,-6,-21,0,2,-2,-1,-1,1
1470262630477489,-1,-2,19,2,0,-1,-2,-4
1470262630477944,-5,-18,-15,-1,-2,-2,-2,-1
1470262630477944,0,24,-3,-6,-3,-2,-3,0
1470262630499997,-2,-2,2,1,2,-3,-1,-2
1470262630499997,7,12,18,1,0,1,0,1
1470262630500464,-4,-6,-36,-7,-2,-1,0,-2
1470262630500464,0,-14,-12,-6,-2,-1,-1,-1
1470262630514014,-3,8,11,-3,-2,-1,0,-2
1470262630514014,3,3,-2,9,1,0,-1,2
1470262630522486,4,0,5,-7,-1,-1,-2,-1
1470262630522486,-9,0,-10,-3,-4,0,0,-4
1470262630537591,-1,7,14,13,8,4,1,4
1470262630537591,-1,-4,3,-2,-4,-2,-2,1
1470262630538000,-3,-3,2,-1,-2,-3,-2,-2
1470262630538000,3,3,-13,-4,1,-1,-1,-2
1470262630560019,-2,-6,-3,-12,-4,1,1,-2
1470262630560019,3,4,8,0,-2,-1,-2,0
1470262630560518,-7,-4,-8,-14,-3,-3,0,-4
1470262630560518,7,2,10,14,2,1,-1,0
1470262630574549,-3,0,-14,5,0,-3,-2,-2
1470262630574549,-1,-1,12,-1,-4,-2,0,-2
1470262630583039,1,2,-9,-2,-5,-2,-1,-1
1470262630583039,2,-6,-7,-9,-4,-3,1,-1
1470262630597551,0,15,10,3,-1,2,1,0
1470262630597551,-7,-16,-17,-12,0,1,1,-2
1470262630598052,-2,1,11,9,-1,-3,-2,-4
1470262630598052,2,-10,-3,-7,-3,1,-1,-1
1470262630620071,1,13,4,-12,-4,-3,-3,-3
1470262630620071,-6,-7,-21,-7,-2,-2,-1,-4
1470262630620572,0,-9,17,7,1,1,-1,1
1470262630620572,-13,-15,-17,-2,-1,-1,0,-1
1470262630634111,-3,3,13,-5,-4,-2,-2,-4
1470262630634111,-1,-13,-7,-7,-5,-2,-2,-3
1470262630642591,0,-6,-21,2,0,-1,0,2
1470262630642591,1,11,23,5,2,0,0,0
1470262630657138,-12,-49,-10,3,-1,-3,-2,-5
1470262630657138,0,18,-5,1,0,0,0,1
1470262630665112,7,20,19,6,5,0,-1,3
1470262630665112,-2,-30,-14,-14,-4,-4,-2,-3
1470262630680125,1,19,20,-1,-5,-1,-3,-1
1470262630680125,-3,-21,10,10,1,-1,1,-1
1470262630680626,-6,-20,-45,-9,-2,-1,0,-1
1470262630680626,4,18,19,2,0,-3,-1,1
1470262630703179,-3,1,-2,3,3,3,2,3
1470262630703179,4,-5,-23,-10,-9,-8,-10,-9
1470262630703686,-12,-19,14,-5,-3,-2,-3,-3
1470262630703686,-6,-21,-16,16,3,-1,-1,-4
1470262630717659,0,18,-17,-10,-4,0,0,-2
1470262630717659,0,24,-4,11,5,5,2,1
1470262630718160,-3,-9,23,-6,-2,-1,-3,-3
1470262630718160,-4,8,-8,11,0,-2,-2,-4
1470262630739720,14,1,-14,-8,-7,-3,-4,-2
1470262630739720,-6,-19,32,6,2,-1,-1,-2
1470262630747713,-6,-30,-15,-7,-3,-3,-3,-2
1470262630747713,11,15,-10,-13,-6,-1,-1,2
1470262630763199,-7,-27,-31,-3,-2,-2,0,-5
1470262630763199,2,40,25,-2,0,-1,0,4
1470262630763700,1,-3,-3,4,0,-1,0,-3
1470262630763700,-3,6,2,0,-3,-1,-1,-2
1470262630785720,-12,-36,6,7,1,-3,-1,-1
1470262630785720,6,15,-19,-14,-1,0,2,2
1470262630786221,-4,-2,-10,12,-1,0,-1,-4
1470262630786221,3,2,4,4,2,0,-1,-1
1470262630799733,-11,-7,-8,-3,-2,0,-1,-1
1470262630799733,8,9,7,1,-1,-1,0,2
1470262630800734,3,20,19,-5,-2,-2,-2,0
1470262630800734,-7,-17,14,0,4,3,0,3
1470262630823253,1,-4,-18,-6,-3,-3,-2,-1
1470262630823253,9,10,23,-2,-2,-2,-4,-1
1470262630823754,-4,30,-8,7,3,2,1,2
1470262630823754,-15,-44,-27,-3,-3,-3,-2,-7
1470262630837279,8,14,16,-1,2,2,1,3
1470262630837279,3,13,-7,-3,-1,-1,-2,0
1470262630838267,10,-19,10,1,-2,-2,-3,-1
1470262630838267,-2,7,-10,-11,-2,-2,-3,-2
1470262630859806,7,-6,-10,0,0,-3,0,-3
1470262630859806,-22,-7,-15,-5,0,1,1,-3
1470262630860787,9,19,25,2,-1,-1,-1,-1
1470262630860787,4,11,20,-1,-1,-3,-1,0
1470262630882807,-2,-2,-9,-3,-1,1,0,2
1470262630882807,-9,-2,-33,-5,1,1,1,0
1470262630883809,2,-12,39,3,-3,1,1,0
1470262630883809,12,28,22,0,0,0,0,2
1470262630897322,-10,-33,1,-3,0,-1,0,-4
1470262630897322,4,24,7,13,3,0,1,3
1470262630898321,-6,-12,-20,-14,0,-2,-1,-2
1470262630898321,-7,8,-20,-4,-3,1,-1,-1
1470262630919891,2,20,10,-8,-1,-1,-2,-2
1470262630919891,6,-20,12,13,0,-1,-2,-3
1470262630920842,-18,16,-15,-8,-2,0,1,0
1470262630920842,32,20,20,3,-1,-2,0,0
1470262630943362,-6,27,7,-6,-3,-3,-3,-3
1470262630943362,-14,-27,-44,2,1,1,-1,-1
1470262630943864,-6,-21,37,-3,-1,-2,-1,-1
1470262630943864,-9,-46,-60,4,0,1,1,-2
1470262630957407,3,32,10,-1,0,-1,-1,-1
1470262630957407,16,0,21,2,-2,-1,-1,1
1470262630957890,-1,7,-8,-12,-5,-2,-3,-2
1470262630957890,-7,7,-31,11,7,0,0,2
1470262630979927,-3,-4,20,2,-2,2,0,2
1470262630979927,2,-1,-17,-8,-2,-3,-4,-4
1470262630980395,6,-2,-8,-1,-2,-3,-2,1
1470262630980395,-10,15,-1,-7,1,3,3,1
1470262631002931,0,-56,12,8,-3,-5,-6,-6
1470262631002931,-7,32,26,-1,-1,1,2,1
1470262631003916,-6,-15,16,-1,-1,-3,0,-2
1470262631003916,-3,66,-57,-12,-5,-2,1,5
1470262631017430,58,34,61,30,9,1,0,8
1470262631017430,-22,-36,-32,-16,-9,-5,-3,-15
1470262631018429,16,-15,15,23,8,4,4,11
1470262631018429,-52,-38,-2,-5,2,4,2,-8
1470262631039949,22,66,4,-17,-4,-1,-1,1
1470262631039949,48,23,26,28,9,0,-1,9
1470262631040476,-33,-52,-74,-4,-4,-1,-1,-9
1470262631040476,38,26,58,-3,-4,-4,-5,5
1470262631062997,-20,2,-49,-5,-3,-1,-1,-3
1470262631062997,6,10,7,-10,-1,-1,-2,0
1470262631063970,32,55,-51,8,1,-1,-2,0
1470262631063970,3,-2,35,-11,-6,-4,-3,-2
1470262631077524,-46,-103,-11,15,1,-2,-4,-10
1470262631077524,-11,-5,-29,-17,-2,-2,1,-2
1470262631078018,-16,-14,35,0,0,0,-1,-3
1470262631078018,-7,2,-15,-9,-4,-1,0,-3
1470262631100008,0,17,15,15,2,0,1,4
1470262631100008,-16,-17,0,-10,-5,0,0,-8
1470262631100502,30,56,-13,-5,-5,-2,1,7
1470262631100502,-30,-49,10,12,3,0,-2,-7
1470262631123069,-2,-43,4,-12,-1,-5,-3,-2
1470262631123069,-11,23,26,-2,-7,-4,-1,-1
1470262631124024,-26,-54,15,3,3,-2,-1,-7
1470262631124024,34,42,-15,-9,-2,0,-1,0
1470262631137565,1,34,-27,2,-4,-3,-1,0
1470262631137565,-7,-44,10,-8,-3,-3,-4,-3
1470262631138036,-12,22,-23,-9,-2,0,-1,-3
1470262631138036,-27,-37,26,11,1,1,-2,-3
1470262631160056,-29,-23,-18,-5,0,-1,0,-8
1470262631160056,28,52,18,-2,-2,-3,-1,9
1470262631160559,-11,-26,-16,-5,-3,-3,-2,-5
1470262631160559,-7,-23,8,13,-1,-6,-3,-6
1470262631183107,-9,53,18,0,2,3,4,2
1470262631183107,-36,-54,-29,5,-2,-3,-1,-6
1470262631183625,9,3,9,-1,2,-1,-1,-1
1470262631183625,22,-16,8,-8,-2,-3,-4,-1
1470262631198110,6,0,-22,-5,-3,-1,-1,0
1470262631198110,7,-10,-22,-5,-2,-1,0,0
1470262631205103,7,53,21,0,-2,2,-1,2
1470262631205103,19,-1,10,-14,-4,-3,0,3
1470262631220112,-22,-21,-49,-8,-6,-4,-5,-9
1470262631220112,14,34,18,13,2,0,-2,2
1470262631220611,2,10,42,21,4,0,0,4
1470262631220611,4,35,-32,-8,-3,-1,1,0
1470262631243147,39,17,15,0,3,1,2,6
1470262631243147,-6,-18,-10,1,5,2,-1,-1
1470262631243632,12,3,23,0,-5,-1,-1,-1
1470262631243632,1,-18,-19,-3,-2,-2,-1,0
1470262631256643,4,0,30,-2,-1,0,0,0
1470262631256643,-14,-51,7,-1,-5,-2,-2,-2
1470262631265151,-11,-40,-57,-12,-3,-2,-1,-1
1470262631265151,1,0,1,-3,-1,0,0,0
1470262631280164,36,70,29,-2,2,1,3,8
1470262631280164,-14,21,-47,-12,-2,-3,-2,-7
1470262631280665,-14,-41,11,-5,-3,-3,-1,-5
1470262631280665,-5,-9,24,12,2,3,2,4
1470262631303187,-13,-19,-3,5,0,-2,-2,0
1470262631303187,26,2,-29,-4,0,1,-1,5
1470262631303687,3,26,2,-7,-4,-3,-4,-1
1470262631303687,2,-14,-15,-5,-5,-3,-3,-6
1470262631316724,-12,11,7,-1,0,0,-1,-1
1470262631316724,-28,-12,-9,-2,-2,-2,-1,-5
1470262631324704,8,31,-16,-11,-4,-3,-1,1
1470262631324704,12,38,55,17,1,-2,-2,1
1470262631340218,-38,-57,-68,-5,-1,-1,-1,-9
1470262631340218,-4,-2,41,10,-1,-1,2,2
1470262631341219,-3,28,10,-15,-3,0,0,-3
1470262631341219,0,6,-46,16,8,1,1,0
1470262631363280,-4,-15,21,-3,-3,-5,-4,-3
1470262631363280,5,7,0,-4,-1,0,0,1
1470262631363741,10,31,6,0,-1,-1,0,0
1470262631363741,-12,-20,-7,-6,-1,1,-1,-1
1470262631376814,18,-11,-16,-10,-4,-2,0,-1
1470262631376814,-11,0,17,11,4,3,1,1
1470262631385301,23,13,10,1,-1,-3,-3,6
1470262631385301,-64,-67,-10,6,-1,0,-2,-10
1470262631399774,6,4,15,-8,-3,-2,-1,1
1470262631399774,-4,0,22,5,-1,0,-1,-2
1470262631400772,-4,15,-61,5,2,-1,1,-4
1470262631400772,-5,-12,33,-9,-4,-3,-2,-2
1470262631423389,2,-14,0,1,0,3,-2,1
1470262631423389,-4,-24,-9,-12,-5,-3,-2,-3
1470262631423795,-31,-48,8,15,2,1,1,-2
1470262631423795,29,66,17,-5,-1,0,2,3
1470262631436805,-23,-17,7,-6,-3,-2,-4,-5
1470262631436805,25,39,1,1,-1,-2,-1,5
1470262631445814,-30,-54,-11,-14,-4,-2,-3,-6
1470262631445814,2,-38,2,2,-4,1,1,-2
1470262631459825,-3,-7,9,17,5,0,-1,2
1470262631459825,3,7,0,-11,-1,-2,-1,-3
1470262631460828,-5,-6,10,11,4,1,0,0
1470262631460828,82,80,-15,-16,-8,-4,-5,8
1470262631482846,5,7,0,-2,1,-2,-2,0
1470262631482846,-13,0,24,4,-1,0,0,-4
1470262631483847,6,-3,1,-2,-1,0,0,2
1470262631483847,-20,35,-21,-12,1,0,-2,-3
1470262631496859,4,1,-13,3,-1,-1,-1,-2
1470262631496859,17,66,-16,-4,0,1,-2,5
1470262631504890,-10,-38,25,-2,-5,-3,-1,-3
1470262631504890,9,2,12,8,1,-1,0,1
1470262631519879,15,28,-23,-9,-3,-1,0,3
1470262631519879,-28,-29,5,10,4,2,2,-4
1470262631520382,18,47,2,-11,-2,1,-3,0
1470262631520382,-16,-59,-12,0,-3,-5,-4,-6
1470262631542399,-7,-18,15,2,-3,-4,-2,-3
1470262631542399,6,-9,11,14,7,0,1,2
1470262631549961,-18,-59,-18,-12,-7,-3,-6,-8
1470262631549961,-11,59,-29,0,3,1,2,-1
1470262631557010,11,-4,37,7,-3,-3,-2,1
1470262631557010,-4,-24,-36,-10,-4,-3,-5,-3
1470262631564954,-9,-11,12,1,0,-1,0,-1
1470262631564954,-7,-4,7,-13,-4,-1,1,-6
1470262631579978,-6,-3,-23,10,1,-2,-1,0
1470262631579978,-2,-4,5,-2,-1,-1,-1,-5
1470262631580436,9,28,-14,8,3,-1,1,1
1470262631580436,-15,-61,8,-7,-4,-2,-2,-1
1470262631603013,-6,19,-7,-7,-1,0,1,-1
1470262631603013,9,-7,-10,-8,-5,-1,-2,-2
1470262631603955,6,8,13,2,1,0,0,0
1470262631603955,1,-2,-18,-3,-4,-2,1,-1
1470262631625476,-3,17,-17,-19,-4,-2,-1,1
1470262631625476,-9,-12,14,25,5,-1,-3,1
1470262631626475,-4,-46,-28,-4,2,3,1,-2
1470262631626475,-3,28,4,-11,-7,-8,-8,-7
1470262631639998,-3,0,5,-12,-3,-2,-2,-5
1470262631639998,-3,-22,-9,-36,-12,-6,-4,1
1470262631640488,0,17,39,50,8,1,-1,-1
1470262631640488,-3,-14,-42,3,2,0,0,-2
1470262631663009,0,6,-9,-13,-3,0,1,1
1470262631663009,3,-4,0,-16,-4,-2,-1,-2
1470262631664009,3,11,7,8,0,-4,-1,0
1470262631664009,-1,9,2,-1,2,3,2,-1
1470262631693035,-7,-18,-8,1,-2,-1,-1,-4
1470262631693035,3,-1,-1,8,-2,-1,0,3
1470262631694036,7,7,2,-4,-3,-1,-1,1
1470262631694036,-2,-3,-1,-8,-2,-1,-1,2
1470262631700043,-4,-11,3,4,0,-1,-2,-4
1470262631700043,-2,-23,2,6,5,0,0,1
1470262631700542,8,35,-14,-8,-1,0,0,4
1470262631700542,0,-4,35,1,-3,-2,-1,-1
1470262631723061,-10,-35,-6,0,-1,-1,0,-5
1470262631723061,-2,17,8,-4,-3,-2,-1,-1
1470262631724064,3,-25,-33,-14,-2,0,-1,-6
1470262631724064,-2,-25,16,24,8,2,1,1
1470262631745608,1,0,-8,-7,-2,0,-1,1
1470262631745608,1,7,33,3,-2,1,1,-1
1470262631746096,-10,-13,-38,-18,-4,-3,-3,-5
1470262631746096,-6,-14,-2,-17,-8,-4,-4,0
1470262631760094,5,24,21,16,6,-1,-2,1
1470262631760094,3,-5,-36,-1,-6,-2,-2,-8
1470262631760596,-1,3,15,-17,-3,-2,-3,0
1470262631760596,1,6,21,9,2,-1,0,2
1470262631783117,4,-2,-25,-2,3,2,2,-2
1470262631783117,-8,4,46,-5,-7,-6,-3,-5
1470262631784117,0,18,-27,-3,-1,-2,-2,-1
1470262631784117,-3,-12,-7,-6,2,2,-1,1
1470262631805676,-6,10,18,9,-1,-5,-3,-4
1470262631805676,0,-9,-10,3,5,1,0,0
1470262631806136,-1,-10,-5,-21,-8,-3,-1,1
1470262631806136,-9,-11,13,9,2,-2,-1,-2
1470262631820149,1,24,-19,-2,-1,1,0,-2
1470262631820149,-13,-20,-14,-7,-1,-2,-3,-5
1470262631820649,0,23,24,24,3,-1,0,-2
1470262631820649,-6,-19,3,-4,-5,-3,-1,-1
1470262631843170,-4,-3,-36,-18,-7,-3,-2,0
1470262631843170,5,11,15,11,0,1,0,3
1470262631843709,3,20,17,-10,0,1,-1,0
1470262631843709,-6,15,-6,9,0,1,0,-2
1470262631865689,1,-13,4,6,1,0,-2,-2
1470262631865689,-2,-6,-24,-1,6,-1,-1,-4
1470262631866190,0,1,4,-9,-12,-8,-3,-2
1470262631866190,7,9,21,-15,-5,-1,-1,3
1470262631879702,-2,-4,-26,7,0,-1,-2,0
1470262631879702,-1,-4,-16,3,10,4,0,1
1470262631880703,1,-1,24,40,11,4,2,-1
1470262631880703,-2,-7,-26,-33,-14,-3,-1,-2
1470262631903224,-1,-9,28,48,-3,-2,-1,2
1470262631903224,5,13,-4,-12,7,-3,-1,1
1470262631903725,-1,-5,-2,-21,4,1,2,3
1470262631903725,2,10,-15,14,0,2,-1,-3
1470262631925837,-3,-6,10,-3,-2,0,1,-2
1470262631925837,4,8,-4,-2,-13,-3,-1,3
1470262631926246,-3,-3,-7,-3,-2,-5,-3,-5
1470262631926246,0,-3,-3,-3,1,0,-1,-2
1470262631940261,1,0,-8,-15,-3,1,1,3
1470262631940261,-5,-3,23,15,2,3,1,-2
1470262631940757,-1,11,-8,0,-1,-2,-4,-1
1470262631940757,0,-18,-10,8,2,-3,-1,1
1470262631963410,2,3,9,-3,1,3,0,2
1470262631963410,-2,0,-25,-12,-2,-1,-1,-4
1470262631963797,2,6,-9,-5,-4,-2,-1,1
1470262631963797,1,-6,0,10,2,1,-1,0
1470262631985832,-4,1,12,-10,1,-2,-2,-4
1470262631985832,1,5,7,-8,-6,-3,-1,1
1470262631986298,-2,-8,-10,6,0,0,1,0
1470262631986298,-1,9,-16,-7,1,-1,-1,-2
1470262632000312,0,3,36,17,7,3,2,2
1470262632000312,-1,-12,-44,-18,-8,-3,-2,-2
1470262632000811,1,4,15,4,-3,-1,-1,1
1470262632000811,1,2,30,6,1,-3,-2,-3
1470262632024349,-2,-8,-21,-22,-6,-5,-2,-1
1470262632024349,2,2,0,14,4,1,0,1
1470262632025333,0,-1,12,-5,-1,0,0,-4
1470262632025333,-1,-3,-15,4,1,-1,-2,0
1470262632045851,-1,1,16,-3,-1,-2,-1,2
1470262632045851,-2,-4,2,3,-3,-1,0,-1
1470262632046352,-2,-17,-45,-16,-6,-5,-3,-2
1470262632046352,0,11,15,-2,1,2,0,2
1470262632059867,4,-3,-8,-1,0,0,-2,0
1470262632059867,2,2,14,4,0,0,-2,3
1470262632060366,0,-4,7,0,0,-1,-1,1
1470262632060366,1,-12,-3,4,-2,1,0,1
1470262632083385,-1,-4,-10,-15,-4,-3,-2,2
1470262632083385,0,2,6,12,3,0,0,1
1470262632083886,3,1,4,-7,-2,0,-1,1
1470262632083886,-2,-1,-3,-8,0,-1,-3,2
1470262632105433,2,-3,19,1,-1,-1,0,-1
1470262632105433,-1,1,1,-6,-1,-1,-1,-1
1470262632106406,4,-1,11,2,0,0,2,5
1470262632106406,3,0,10,-6,1,1,2,2
1470262632119918,-5,-10,-44,-1,4,3,1,0
1470262632119918,3,0,6,-4,-1,0,-2,0
1470262632120419,4,1,17,6,3,1,0,-3
1470262632120419,-1,-1,-10,-4,-1,-1,-2,-3
1470262632142994,3,5,16,6,2,-1,1,-3
1470262632142994,-6,-5,-12,-2,-3,-1,0,-1
1470262632143940,-2,4,21,-2,-1,0,-1,-4
1470262632143940,-6,-9,-36,-17,-4,-2,-1,-6
1470262632172993,-2,-5,7,23,4,0,-1,-7
1470262632172993,-1,2,-2,-4,-1,0,-1,-8
1470262632173967,-3,-5,-7,-1,-1,0,0,-5
1470262632173967,-4,2,34,2,-2,-3,-1,-3
1470262632179472,-4,-7,-43,-19,-6,-3,-3,-2
1470262632179472,1,-5,-7,-6,-2,-1,0,3
1470262632187505,-5,-13,-7,-1,-1,-1,-2,-3
1470262632187505,17,19,7,4,0,-2,-1,2
1470262632203006,-4,3,5,-4,0,0,-2,-2
1470262632203006,0,2,12,5,1,-2,-2,-1
1470262632203993,0,5,3,-3,-4,-3,-1,-1
1470262632203993,-6,-5,-19,5,2,0,1,-1
1470262632225516,0,0,13,0,-1,-1,-1,-3
1470262632225516,1,-3,-6,-3,-2,-3,-2,-3
1470262632226514,-1,-3,6,1,0,1,0,2
1470262632226514,1,6,3,1,-3,-2,-2,5
1470262632239526,-8,-13,-26,-3,0,-1,-2,-18
1470262632239526,2,-6,5,-5,-4,-2,-8,7
1470262632247584,3,6,-4,0,2,1,0,0
1470262632247584,-1,8,12,6,2,0,1,0
1470262632263084,-2,-5,14,-2,-2,-4,-3,2
1470262632263084,3,5,-7,-3,-1,6,6,0
1470262632264047,-6,-8,-20,-2,-1,-3,-2,-5
1470262632264047,-4,-8,-3,-1,-2,-3,-3,-4
1470262632285608,4,13,22,1,1,-1,1,6
1470262632285608,1,-4,10,1,0,-3,-2,-5
1470262632287069,0,1,-41,-2,-1,-1,-1,-3
1470262632287069,-1,-1,7,1,-1,1,3,-1
1470262632299079,3,3,1,-6,-3,-1,0,8
1470262632299079,-5,6,1,-3,1,-2,-1,-6
1470262632308088,-5,2,-3,-1,-2,0,-3,-4
1470262632308088,-3,-19,7,-2,-1,-2,-2,0
1470262632321632,3,-3,-13,1,-1,0,0,-3
1470262632321632,-3,10,5,2,0,-2,0,0
1470262632330609,-3,-11,6,3,1,0,3,2
1470262632330609,-8,2,-13,-3,0,1,-1,-4
1470262632345655,-4,-8,1,-1,0,-2,-1,-1
1470262632345655,13,-2,8,-2,-1,-2,-1,0
1470262632347276,-4,-1,0,-1,-1,-2,-1,-2
1470262632347276,2,-2,-8,1,-3,-1,0,0
1470262632359133,-1,0,4,-1,-1,1,-1,1
1470262632359133,-1,-6,-5,-1,-1,0,0,-1
1470262632368172,4,-1,-11,-5,-2,-3,-3,1
1470262632368172,0,7,21,8,2,0,-2,-1
1470262632381653,-1,-2,-19,-4,-3,-2,-1,-3
1470262632381653,-3,-1,-2,-4,-1,-1,0,-1
1470262632390693,4,2,17,-3,-3,-1,-1,-1
1470262632390693,-2,-6,-22,-14,-3,-2,-4,-2
1470262632405177,3,8,14,21,2,1,-2,-2
1470262632405177,-3,-20,-18,-11,-2,-2,-1,-3
1470262632411682,2,3,13,6,2,1,-1,1
1470262632411682,1,6,17,-2,-3,-2,-2,-1
1470262632419689,-3,-11,-29,-8,-1,-1,-3,-1
1470262632419689,-3,-3,-5,0,-1,-2,1,-2
1470262632428197,1,1,4,1,-2,-1,0,1
1470262632428197,0,-3,-10,3,1,1,1,-3
1470262632450748,2,1,11,-4,-1,-1,0,3
1470262632450748,-1,-4,1,3,-1,1,-1,2
1470262632452353,-2,3,-13,-4,-1,-1,-2,-1
1470262632452353,-4,5,3,1,-2,0,0,-1
1470262632465730,-1,0,16,-6,-3,0,0,-1
1470262632465730,-4,-3,-23,-2,-2,0,0,0
1470262632467243,4,1,12,10,3,1,0,1
1470262632467243,-5,-10,-1,-1,-3,-1,-1,-4
1470262632479293,4,12,1,-3,-1,-2,-1,-1
1470262632479293,-4,2,10,-1,-1,-2,-3,-2
1470262632488249,-6,-14,-14,-6,1,-1,-1,1
1470262632488249,3,16,-8,-5,-1,-4,1,0
1470262632502762,-4,4,29,0,-3,-1,-2,0
1470262632502762,0,-5,-41,4,-2,-4,-2,-4
1470262632509269,-5,-1,0,-3,-2,-1,0,-2
1470262632509269,0,-13,-9,-1,-2,-1,-1,-2
1470262632525782,-1,2,9,-5,-1,0,0,-3
1470262632525782,-3,-2,7,0,-1,0,-3,-2
1470262632527284,0,1,-8,-4,-2,-1,-4,-1
1470262632527284,2,-1,4,4,0,0,0,-2
1470262632548304,-4,-6,-5,-2,-1,-4,-3,-5
1470262632548304,1,4,25,2,0,1,1,1
1470262632549804,-2,-2,-22,-3,-1,-1,0,-1
1470262632549804,3,0,6,-2,-2,-1,-2,-2
1470262632562317,0,-3,-12,-5,-1,0,0,1
1470262632562317,-2,1,10,1,0,-1,-1,-3
1470262632569322,2,3,7,2,-2,0,3,-1
1470262632569322,0,-6,-15,-2,-1,-2,-3,-1
1470262632585837,-4,4,-5,-3,-4,-4,-1,-2
1470262632585837,0,0,2,-1,-1,-1,0,-3
1470262632587338,-1,-2,5,-2,-1,-2,-1,-1
1470262632587338,-3,-4,1,-1,-2,-1,0,2
1470262632608373,-2,-1,-9,0,1,1,1,-2
1470262632608373,-4,6,25,-1,-2,-1,-3,-1
1470262632609859,0,-6,-31,-5,-2,-2,-1,0
1470262632609859,-3,-7,2,-4,-1,-2,0,0
1470262632622886,1,-7,5,3,1,-3,-3,0
1470262632622886,1,13,9,1,0,-1,0,0
1470262632629389,-3,-2,2,-3,-2,-1,-1,-3
1470262632629389,2,3,-5,5,3,-1,-1,1
1470262632645390,-2,-4,-7,-3,-2,-3,-1,-1
1470262632645390,2,-1,-13,-2,-2,-1,-1,2
1470262632647391,-4,-3,20,0,-1,-1,-3,-2
1470262632647391,-2,3,-21,-2,-2,-1,-3,1
1470262632667926,0,0,-5,-1,1,-2,-1,-1
1470262632667926,-1,-7,-10,-1,-2,-1,1,1
1470262632669912,1,11,11,0,0,0,-2,-2
1470262632669912,0,-6,10,-1,-1,-1,-2,-1
1470262632690430,-3,-9,-10,-2,-1,1,-1,1
1470262632690430,-3,-1,-6,-2,2,-1,0,-1
1470262632691932,-3,2,6,-1,-3,-3,1,-3
1470262632691932,-4,-7,-14,0,-1,0,0,-3
1470262632705446,-4,-5,2,-4,-4,0,-2,0
1470262632705446,0,6,5,3,0,0,0,1
1470262632707449,-5,-1,0,-1,-1,1,0,-1
1470262632707449,1,1,-10,-2,0,-2,-4,0
1470262632727966,-5,-7,4,2,-2,-4,0,-2
1470262632727966,2,-2,11,0,-2,3,1,3
1470262632729966,2,-1,-15,-4,-2,-3,-2,-2
1470262632729966,-5,-3,14,1,1,0,2,1
1470262632742504,6,4,7,0,-1,1,-2,2
1470262632742504,-3,11,-13,-4,-1,-3,-3,-4
1470262632749484,0,-12,6,-3,-2,-2,-2,-1
1470262632749484,-2,-5,-5,-4,-2,0,-2,-4
1470262632765500,1,-3,1,1,1,-2,0,3
1470262632765500,5,4,-26,-4,-4,-2,-2,-4
1470262632773505,-3,-2,5,2,-1,-1,-2,-2
1470262632773505,3,2,7,0,1,0,-1,3
1470262632788018,-4,-2,-19,-3,-1,-2,0,-3
1470262632788018,-4,-12,6,-1,-2,0,-1,1
1470262632790019,0,5,-13,-2,-2,-1,-3,0
1470262632790019,-2,-3,2,-2,-2,-1,0,-2
1470262632801531,-1,1,9,0,-3,1,-1,-3
1470262632801531,-1,-6,2,-1,-1,-2,-1,-3
1470262632811039,-7,6,-4,-1,1,-2,0,-3
1470262632811039,0,3,6,3,0,-2,-1,-1
1470262632825571,1,-2,-2,-1,-2,-2,-1,0
1470262632825571,-2,-2,11,0,-1,0,2,-2
1470262632827055,6,-8,-3,-3,-1,0,-1,1
1470262632827055,-4,5,4,-1,0,-2,-1,0
1470262632848086,0,2,-2,0,1,-1,0,-6
1470262632848086,0,-6,-2,1,-1,0,-3,0
1470262632849574,2,-1,3,-1,0,-2,1,0
1470262632849574,-7,-3,-6,-4,-2,1,0,-1
1470262632862084,5,0,-1,0,-1,-2,-3,2
1470262632862084,-5,1,0,-2,0,-1,-2,-5
1470262632870593,1,-1,18,2,1,1,-1,3
1470262632870593,2,-8,-34,-2,-3,-2,-2,-2
1470262632885663,-3,-1,6,0,0,1,-1,2
1470262632885663,0,-2,-9,-3,-1,-2,0,-1
1470262632887142,-2,5,5,0,-3,-2,-2,-1
1470262632887142,-4,-6,9,0,-1,-2,1,-1
1470262632908175,-1,4,-1,0,0,1,1,-2
1470262632908175,-5,-4,-9,-3,-3,-3,-1,-3
1470262632909628,4,-3,0,0,-3,-1,-1,1
1470262632909628,-4,3,5,1,-1,-1,-1,-7
1470262632921662,0,0,-8,-1,-1,-2,0,-1
1470262632921662,-4,-2,6,-3,0,-1,-1,0
1470262632930646,3,2,-16,-2,-2,-2,-1,-2
1470262632930646,-2,-1,7,0,-2,-2,0,1
1470262632945721,-2,0,3,-2,-1,-1,1,1
1470262632945721,-1,-2,2,2,-1,-1,-2,-1
1470262632947163,-6,-11,-2,-1,-1,1,0,-2
1470262632947163,0,5,-6,-2,0,-2,-3,-3
1470262632968179,-1,-2,-10,0,-1,-1,0,-2
1470262632968179,-3,-4,0,2,0,0,-1,0
1470262632969681,-4,-4,-5,0,0,-2,0,-1
1470262632969681,1,0,10,0,-1,1,-1,0
1470262632981692,-4,-4,0,-3,-1,0,-1,-2
1470262632981692,2,-6,-13,-1,-1,-4,-4,-1
1470262632990700,0,6,19,1,2,1,2,2
1470262632990700,-6,0,-26,-1,3,0,-2,-10
1470262633005715,-1,0,7,1,-3,-1,-2,0
1470262633005715,-1,0,-8,-2,-2,-3,-2,-1
1470262633007215,3,-4,-3,-2,-2,1,0,1
1470262633007215,0,-4,14,-1,-1,-3,-2,1
1470262633028328,-3,5,-4,-3,0,0,-2,-4
1470262633028328,-1,-8,-31,0,-2,-1,-1,-2
1470262633029776,-2,-2,0,0,-2,-1,-1,-3
1470262633029776,2,-2,-1,-1,-1,-1,-1,2
1470262633041800,0,-1,11,1,-1,-1,-1,-1
1470262633041800,-3,-1,-21,-5,-2,0,0,0
1470262633050754,-3,5,2,5,2,-3,-2,-3
1470262633050754,0,-3,-5,-3,-3,0,-1,0
1470262633065767,-3,-2,2,-6,-2,-1,0,-2
1470262633065767,-2,3,15,0,-2,-2,-2,0
1470262633067271,-7,-5,6,-2,0,1,0,-4
1470262633067271,5,2,-19,2,-1,-3,-1,4
1470262633088315,-6,-6,-10,-4,-2,-3,-1,-1
1470262633088315,0,-2,24,0,-1,-1,0,-1
1470262633089833,1,9,-5,-5,-2,-2,-3,-1
1470262633089833,7,2,-9,-5,-4,-3,-1,1
1470262633101801,-5,-2,0,-11,-2,-2,-2,-3
1470262633101801,2,-2,-10,-2,-1,0,1,1
1470262633110808,1,-6,40,38,10,2,2,-1
1470262633110808,-1,-3,-18,-4,-3,-2,0,0
1470262633125820,4,4,35,18,-1,-1,-1,3
1470262633125820,-3,2,-6,-11,-2,-1,-1,-3
1470262633127331,-1,1,-26,-14,-5,0,-1,-3
1470262633127331,-8,-1,13,-2,-2,0,-1,-3
1470262633148341,3,-3,-16,3,1,1,0,3
1470262633148341,4,1,14,1,0,-1,-1,0
1470262633149843,-9,-7,-12,0,-2,-1,-1,-1
1470262633149843,-3,0,18,-1,1,1,-2,-2
1470262633161854,4,4,-9,-5,0,0,-3,1
1470262633161854,-4,-8,10,7,1,1,0,-3
1470262633170862,-11,6,-15,-11,-4,-3,-3,-1
1470262633170862,-1,-1,13,-2,2,-3,0,-3
1470262633185875,-9,-15,-3,-2,0,0,-1,-2
1470262633185875,3,19,-20,-2,-3,-2,-2,3
1470262633187378,1,-20,-13,-7,-5,-2,-1,-1
1470262633187378,-4,1,42,15,0,0,2,0
1470262633207895,-1,3,-20,6,2,0,-2,-4
1470262633207895,-7,-15,-10,-9,1,-2,0,-3
1470262633209897,-1,-3,-36,-19,-6,-2,1,0
1470262633209897,3,8,22,4,0,-1,-2,-2
1470262633221907,-1,-14,-13,-14,-4,-3,0,0
1470262633221907,3,1,17,-1,-2,0,-1,2
1470262633230915,0,22,9,-6,-2,-5,-3,-5
1470262633230915,1,-6,-29,-5,-2,-3,0,1
1470262633245975,0,16,15,16,1,-1,0,1
1470262633245975,-7,-12,0,-2,-1,2,1,-7
1470262633247430,7,0,1,-3,1,-1,-1,2
1470262633247430,9,13,4,-6,-3,-1,-1,4
1470262633267973,-11,-6,-29,2,-1,-1,0,-4
1470262633267973,2,-8,8,3,-1,-3,-2,3
1470262633269951,-2,-5,-2,6,0,-2,-2,-3
1470262633269951,-4,-3,5,-3,2,2,-1,-1
1470262633282462,3,-5,-2,-3,0,-1,0,-2
1470262633282462,1,1,-8,-1,0,-2,0,-3
1470262633290505,-7,-17,22,1,0,1,0,0
1470262633290505,2,8,-36,-7,-3,-2,-3,-4
1470262633305056,0,-1,-12,-8,-1,-1,-3,-1
1470262633305056,-7,12,13,3,-1,-2,-3,-2
1470262633311998,2,-10,-12,0,1,-1,0,1
1470262633311998,-4,-1,8,0,-2,-3,-1,0
1470262633328049,-4,3,7,2,1,2,-1,-6
1470262633328049,3,8,-4,-3,-3,0,-1,3
1470262633330037,-1,0,3,2,0,0,-2,2
1470262633330037,-7,-15,-8,3,0,1,-2,-6
1470262633342041,7,11,2,-6,-3,-6,-1,5
1470262633342041,-4,-8,3,5,2,0,-1,-5
1470262633350540,0,3,-3,-6,-3,0,-2,-2
1470262633350540,-2,-5,-4,2,-2,-3,-1,-2
1470262633365036,-3,-8,16,-3,-1,0,-1,3
1470262633365036,-3,1,-10,1,-1,-1,-1,-4
1470262633371586,3,9,-1,0,-2,-3,-1,2
1470262633371586,-5,-9,2,1,1,0,-1,-3
1470262633388059,3,5,2,-4,-2,-2,0,-1
1470262633388059,-3,2,-2,-3,1,-1,0,-1
1470262633389559,0,-8,0,0,1,-1,-2,0
1470262633389559,-1,-4,-2,-2,-1,-1,-1,-4
1470262633401569,-5,2,2,-1,-3,0,-1,-2
1470262633401569,-3,11,0,0,-1,-1,-2,-2
1470262633410577,0,-10,0,0,0,0,-1,-1
1470262633410577,0,-2,-1,-4,-2,-1,1,3
1470262633425132,-1,-2,-3,-1,-1,-2,-2,-4
1470262633425132,-1,-7,-1,-1,-1,-2,-1,3
1470262633439103,-5,2,0,2,0,-1,-1,-3
1470262633439103,-1,0,-5,-1,0,0,0,-1
1470262633448111,-4,-2,1,-1,-2,0,-2,-2
1470262633448111,4,-2,7,0,-1,-1,-1,2
1470262633450114,-2,1,-6,-3,1,-1,0,1
1470262633450114,3,0,-4,-3,-1,-1,-1,2
1470262633462136,-2,-6,-2,0,0,1,-1,-4
1470262633462136,1,-6,16,0,-2,-1,-2,-2
1470262633470631,0,-4,-36,-1,-5,-4,-2,-3
1470262633470631,0,-1,1,0,0,1,-1,3
1470262633485167,-1,-5,-3,0,-3,-2,0,0
1470262633485167,-3,1,-3,1,-1,0,0,-3
1470262633492150,-1,-3,7,-1,-2,0,-1,0
1470262633492150,0,7,2,-1,-2,-2,-2,-4
1470262633508165,1,-4,-20,-5,-1,0,-1,2
1470262633508165,-4,3,7,-2,-1,0,-2,-8
1470262633509666,-3,-13,-12,-1,-3,-3,2,3
1470262633509666,-5,-2,5,1,0,2,-2,-4
1470262633530751,-1,-3,7,1,0,-2,-1,2
1470262633530751,0,2,-4,-2,-1,-2,-1,2
1470262633532186,1,-1,6,0,1,0,-2,-3
1470262633532186,-2,-4,-6,-2,0,0,-2,0
1470262633544697,2,-3,0,-1,-2,-1,3,-1
1470262633544697,-4,-7,-12,-1,0,-1,-1,0
1470262633553205,4,9,7,-4,-2,-4,-2,-3
1470262633553205,-3,-6,-3,-1,0,-2,0,2
1470262633568253,-6,-1,-3,-1,-2,0,-1,-4
1470262633568253,2,-5,-3,-2,-1,-2,-2,3
1470262633569720,-3,4,4,-1,-2,2,-2,-3
1470262633569720,-1,0,-1,-2,-1,-1,1,1
1470262633591272,2,-3,1,-1,-2,-3,-4,-5
1470262633591272,-2,-7,-2,1,0,1,-1,-2
1470262633593282,1,5,12,-1,-2,0,2,-2
1470262633593282,-8,-8,-30,-6,-3,-3,-3,-2
1470262633604277,-3,2,10,1,0,0,0,-6
1470262633604277,-2,-4,-9,0,-1,-2,-1,-1
1470262633613259,-1,1,8,-2,-2,0,-1,-1
1470262633613259,5,5,7,-1,-1,-3,-1,-1
1470262633628278,1,-1,-2,-2,-1,-3,0,1
1470262633628278,-5,0,-4,0,0,-1,-1,-3
1470262633629775,-1,-1,2,-1,-1,0,-1,0
1470262633629775,2,3,0,-1,-2,0,1,-3
1470262633650793,0,-2,-4,1,-1,0,-2,1
1470262633650793,0,-2,-1,-1,-2,-1,0,-3
1470262633652294,-3,-1,-4,0,-2,-2,1,3
1470262633652294,-3,-4,0,-2,0,0,-1,-1
1470262633664305,-3,-3,0,-1,1,0,-1,0
1470262633664305,0,3,6,-1,0,-2,0,0
1470262633673313,0,0,-7,-1,-2,-1,-3,-2
1470262633673313,1,-4,4,-1,-2,0,-1,-1
1470262633688865,-4,2,4,-2,-2,-3,-2,-1
1470262633688865,1,-3,-3,1,-3,-1,0,0
1470262633690331,-3,10,4,0,2,0,-2,-3
1470262633690331,-2,-4,2,0,-1,0,0,-2
1470262633718353,1,0,-15,-2,-2,-1,0,-2
1470262633718353,-6,-2,-4,-2,-1,1,-1,-1
1470262633719857,-5,2,5,-1,-2,0,-1,-2
1470262633719857,-1,2,-2,-2,-1,-2,-2,0
1470262633724386,-1,-1,-3,-3,-1,0,0,-2
1470262633724386,-1,-2,7,-1,0,-2,-1,-2
1470262633733367,1,-5,-15,-2,-4,-1,-1,-2
1470262633733367,-3,3,7,-2,-2,-3,-1,-4
1470262633748380,-1,-2,1,-1,-1,-2,-2,2
1470262633748380,-1,1,9,1,-1,1,-2,-2
1470262633749953,0,-4,-11,1,0,-2,1,-1
1470262633749953,0,-2,-6,-2,-1,-1,-2,-2
1470262633770903,-3,-2,2,0,-1,-1,-1,0
1470262633770903,0,7,7,-1,-3,-3,-1,-1
1470262633771902,-3,-6,-4,-1,1,-1,1,0
1470262633771902,1,-1,-3,-1,0,0,0,1
1470262633784412,0,-4,8,1,-3,-2,-1,-2
1470262633784412,-2,0,-6,-3,0,-1,-1,-2
1470262633793420,0,-2,9,-1,-1,0,-1,1
1470262633793420,-3,0,-6,0,-1,-1,0,-2
1470262633808435,1,-2,3,-2,-1,0,0,0
1470262633808435,3,1,-4,2,0,-1,-1,0
1470262633809935,0,0,2,0,-1,-1,-2,-1
1470262633809935,0,0,1,0,-2,-1,-1,-1
1470262633829989,-2,0,2,-1,-1,-1,0,1
1470262633829989,-2,-5,-9,-2,0,0,-1,-1
1470262633837963,-1,-2,-4,-1,0,-2,-2,0
1470262633837963,-1,4,9,-1,-2,-1,-1,-1
1470262633844486,1,-2,-3,-2,-1,-2,-1,-2
1470262633844486,1,3,-4,-3,-3,-1,-1,-4
1470262633852975,-1,-1,8,-1,-3,0,-1,-1
1470262633852975,-2,-3,0,0,0,-1,0,0
1470262633868508,0,1,6,-2,1,0,-1,-3
1470262633868508,-1,-3,5,0,0,-1,-2,1
1470262633869494,-2,-5,-23,-2,-1,-3,-2,-2
1470262633869494,-2,0,1,1,-2,-2,-4,-2
1470262633890508,-1,-4,-6,-1,-1,-2,0,-3
1470262633890508,-3,2,1,-3,-1,-1,-1,-1
1470262633892009,-1,2,5,-1,1,0,0,0
1470262633892009,-1,-2,-3,-3,-1,-2,-2,-2
1470262633913045,-1,0,-1,-2,-2,0,-1,1
1470262633913045,-2,-3,-6,-1,-3,-4,-1,-1
1470262633914531,-1,-4,8,0,1,2,-1,-3
1470262633914531,0,2,-9,0,-2,1,-3,0
1470262633928083,0,1,0,-2,-2,-1,-3,1
1470262633928083,-1,-2,-3,-3,0,0,1,0
1470262633930043,-2,0,5,-2,-2,1,-3,-1
1470262633930043,-3,-2,1,0,1,-1,-1,-1
1470262633950617,-1,0,-7,-2,-1,-1,-1,1
1470262633950617,0,0,-2,-3,-1,-2,-2,-2
1470262633952065,-3,-1,0,-1,-1,-2,0,-4
1470262633952065,0,-2,0,-1,-1,0,0,-1
1470262633964574,-1,0,-3,-1,-2,-2,-1,-1
1470262633964574,0,-2,-5,0,-2,0,0,1
1470262633973084,-2,1,3,-2,0,0,-3,-2
1470262633973084,0,-3,3,0,-1,-2,-2,-1
1470262633988154,-1,0,-5,-2,-1,-1,-2,-2
1470262633988154,-3,-3,0,-2,-1,0,2,1
1470262633989596,-1,-2,-2,2,0,1,-10,-1
1470262633989596,-1,-2,0,-1,-1,-1,3,-1
1470262634010651,0,0,1,1,-1,-2,-1,-1
1470262634010651,-3,-4,-3,-2,0,0,-1,-1
1470262634012689,-1,0,-2,-1,-2,-1,2,1
1470262634012689,-3,-1,-5,-2,-1,-1,-2,-1
1470262634024172,-2,0,0,-1,-1,-1,-1,-3
1470262634024172,1,2,-4,0,-2,-1,1,-1
1470262634033172,-1,-2,9,-2,-3,-3,0,-4
1470262634033172,-1,-3,-18,-4,-2,-3,-3,-1
1470262634048181,-3,-1,2,-2,-2,-1,1,0
1470262634048181,-1,-2,-4,-3,1,0,-3,-2
1470262634049652,-2,0,0,1,-1,-2,1,1
1470262634049652,1,-5,2,-2,-2,0,0,5
1470262634069670,-3,3,-1,-3,-2,-3,-4,-10
1470262634069670,1,-3,-2,0,-1,-1,-2,-4
1470262634078176,-1,0,-2,-3,1,0,-1,2
1470262634078176,-3,-3,0,1,0,0,-1,-2
1470262634084197,-1,4,-2,-1,-1,-2,0,3
1470262634084197,-3,3,2,0,-2,-3,-2,-3
1470262634093190,0,-4,-4,-2,-1,-2,1,-2
1470262634093190,-2,0,1,-2,-2,-3,0,-2
1470262634108228,-3,-2,0,-1,1,0,0,3
1470262634108228,-2,-1,-2,-3,-1,-2,-4,4
1470262634109706,0,0,-2,-2,-3,-2,0,-6
1470262634109706,0,3,4,0,-2,0,1,0
1470262634130810,2,-3,-2,0,-2,-2,-1,1
1470262634130810,-2,-2,-2,-1,0,-1,-1,1
1470262634132225,-3,-2,-3,-1,-1,-2,-1,2
1470262634132225,-2,-3,2,1,-3,1,-2,-4
1470262634144269,1,-2,-4,0,-5,1,-1,0
1470262634144269,-3,-1,-2,0,-3,0,0,-2
1470262634160751,4,1,-1,-1,-2,-1,0,-1
1470262634160751,-1,-3,-2,-3,-1,0,0,-1
1470262634166867,-6,-6,6,-2,1,0,-2,-2
1470262634166867,1,-3,-14,-3,-3,-1,0,-1
1470262634175764,-5,1,1,1,-2,0,0,-1
1470262634175764,-2,1,-1,-1,1,-1,-1,2
1470262634190821,-1,-6,-4,-2,-1,-1,1,1
1470262634190821,1,6,4,-1,-4,-2,-3,-2
1470262634192279,-2,-12,1,0,3,-1,0,-1
1470262634192279,-1,5,-2,-2,-2,-2,-1,-2
1470262634204334,-2,-1,2,1,-1,0,-1,-4
1470262634204334,0,-1,-1,-1,-2,-2,0,-1
1470262634213298,0,0,4,-3,-5,2,0,-1
1470262634213298,0,-8,-13,-1,5,0,-2,1
1470262634227310,0,3,0,3,3,1,0,-1
1470262634227310,-1,-1,11,1,-3,0,1,-1
1470262634234322,-4,1,-17,-2,-2,-5,0,1
1470262634234322,-1,-3,1,-4,-2,0,0,-1
1470262634250849,2,2,1,-5,-3,0,0,0
1470262634250849,-4,-5,-1,3,3,0,-3,0
1470262634252362,-1,-2,0,2,-4,-2,0,2
1470262634252362,1,0,16,1,1,-1,0,-1
1470262634273384,-2,-1,-6,28,2,0,-2,-4
1470262634273384,-3,-1,-15,-6,1,-2,-1,-1
1470262634274853,3,-1,7,-3,5,-1,-4,-2
1470262634274853,0,3,1,-1,-5,-2,0,0
1470262634287419,-1,-3,2,-12,-4,-4,-3,-1
1470262634287419,0,-3,3,-1,-9,-1,-2,0
1470262634301877,-1,4,-9,-2,1,-1,-1,0
1470262634301877,-3,5,-3,1,6,1,-2,-3
1470262634310411,-1,-7,0,-4,-7,-2,0,-1
1470262634310411,-2,-3,-3,-1,1,0,-1,-3
1470262634312386,1,1,0,-5,-1,-1,0,6
1470262634312386,0,1,-2,1,-3,-3,-3,-7
1470262634324397,-4,-8,-2,-3,2,1,-1,1
1470262634324397,3,11,2,0,0,-1,1,3
1470262634333406,-1,-5,2,1,-1,-1,-1,-1
1470262634333406,-4,3,1,0,-2,-2,-2,4
1470262634347419,-3,-8,-3,-5,1,1,-3,1
1470262634347419,-3,-14,-19,-4,1,-2,0,-2
1470262634354424,4,13,8,0,-1,-1,-1,-4
1470262634354424,-7,-14,-9,-3,-2,-2,-1,-2
1470262634371027,11,15,7,-4,-1,-2,-1,-1
1470262634371027,-5,-4,3,0,-1,1,-1,-1
1470262634372441,-5,-5,-12,-1,-1,0,0,-2
1470262634372441,3,-3,4,1,-2,-1,-1,-3
1470262634384471,-4,-2,-6,-2,2,-2,-1,0
1470262634384471,2,1,-11,-3,-1,-2,1,-1
1470262634392977,-1,-6,-2,-3,0,-1,-1,-2
1470262634392977,-3,10,5,-2,-2,-1,-1,-3
1470262634407474,-3,1,0,-2,-1,-1,-1,2
1470262634407474,-1,3,20,2,1,1,1,1
1470262634414478,-7,-10,-37,-5,-3,-1,-2,-5
1470262634414478,3,-8,3,-1,-2,-1,0,1
1470262634430493,1,13,-2,0,-1,0,-1,0
1470262634430493,-5,-7,0,-1,0,-1,-1,-2
1470262634431995,-2,-5,10,1,-1,-3,-2,-1
1470262634431995,0,3,2,0,-1,2,0,2
1470262634452031,-2,-8,-6,-1,-2,1,-1,-4
1470262634452031,-1,3,1,-3,-2,-1,-2,-4
1470262634460520,4,0,-1,0,-1,-1,-1,0
1470262634460520,-6,-5,-1,2,0,0,1,0
1470262634467526,-4,-14,-7,-2,2,-1,0,-4
1470262634467526,7,6,-4,1,-2,-1,-3,0
1470262634474536,0,-8,6,4,1,1,2,2
1470262634474536,-9,-4,-5,-8,-4,-1,-3,-8
1470262634490564,2,3,1,0,-2,-4,-4,1
1470262634490564,2,-1,-1,-4,-1,-1,0,0
1470262634492048,-3,-6,-9,-3,-3,-2,0,-1
1470262634492048,2,-6,11,-1,-3,0,0,3
1470262634513068,-3,4,-20,-6,-4,-2,1,1
1470262634513068,2,-8,-1,6,0,0,0,-3
1470262634514569,-4,5,13,-1,-1,-1,-3,-1
1470262634514569,0,-2,-3,-2,0,-3,-3,1
1470262634527584,2,-10,-12,0,-1,1,1,0
1470262634527584,0,18,10,-3,-3,-2,-2,-3
1470262634534107,-2,-8,1,-1,-2,-2,0,-4
1470262634534107,4,6,-5,1,1,1,-1,2
1470262634550601,-4,-1,3,-3,-2,-2,-1,-2
1470262634550601,-4,-7,7,-1,0,-3,0,-1
1470262634552103,2,1,8,0,0,0,-1,-1
1470262634552103,2,1,-34,-4,-2,-1,0,-1
1470262634573137,-4,1,9,-2,-3,-3,-2,-1
1470262634573137,-2,1,5,-2,-1,-1,-1,1
1470262634574622,2,-1,11,1,-1,0,-1,1
1470262634574622,-1,5,13,6,1,1,1,-5
1470262634586652,7,2,-17,-7,-1,0,-1,1
1470262634586652,-1,-3,3,-1,-3,0,-1,3
1470262634595641,-4,-5,-16,-4,-1,-1,-2,-5
1470262634595641,-2,2,13,0,-2,-3,-2,-3
1470262634610681,-5,5,-4,6,-1,0,0,0
1470262634610681,1,-3,-2,-7,-2,-1,-1,-1
1470262634612156,-2,5,2,-3,-1,-3,-3,-2
1470262634612156,-2,-9,-3,3,1,-1,0,-2
1470262634633238,-1,6,10,0,1,-1,0,0
1470262634633238,-6,-6,-9,-2,-3,-1,-3,-5
1470262634634676,1,3,-1,0,0,1,-2,-1
1470262634634676,1,-4,-6,-5,-3,-2,0,2
1470262634647687,-4,2,12,-6,-1,-3,-3,-6
1470262634647687,-3,-9,-10,5,0,-2,-1,-1
1470262634654194,5,6,-10,-3,-3,-2,-3,-1
1470262634654194,-1,1,4,-1,-2,-2,-3,-1
1470262634670740,-1,-12,3,1,-2,-1,-2,0
1470262634670740,3,6,0,1,2,-2,-2,1
1470262634672210,-3,-5,5,-1,0,-1,1,1
1470262634672210,-2,-2,-15,-4,-3,-1,-1,-1
1470262634693260,-5,-9,3,3,0,0,0,1
1470262634693260,2,12,-2,-2,-1,0,1,2
1470262634694764,-5,-5,0,0,-1,-2,-1,-4
1470262634694764,6,1,0,-3,0,-1,-2,-2
1470262634707741,-10,-5,-4,-1,-2,-1,0,0
1470262634707741,5,-8,3,-1,-1,-2,1,-1
1470262634714279,-3,3,2,3,0,-3,-2,-4
1470262634714279,1,-2,3,3,1,2,0,0
1470262634730775,9,5,-3,0,-1,-1,0,-3
1470262634730775,-7,-9,4,-4,-3,-3,-1,-3
1470262634732266,0,8,-6,-3,-3,0,0,1
1470262634732266,-4,-12,-6,-5,0,-2,-1,-3
1470262634753282,3,-2,3,-2,1,1,1,-2
1470262634753282,-4,0,-6,1,0,0,-1,-3
1470262634754787,-1,-8,0,-1,-2,-2,1,-1
1470262634754787,0,-3,4,-2,0,-2,-2,-4
1470262634766796,-10,-4,4,1,0,0,-1,-3
1470262634766796,9,20,-9,-4,2,1,-1,1
1470262634775804,-1,0,3,1,1,1,0,-3
1470262634775804,3,8,-1,0,-1,-2,1,0
1470262634790816,4,-2,-1,0,1,-1,-3,-2
1470262634790816,-8,-13,-2,-1,-1,0,0,0
1470262634792318,-7,1,-1,-1,0,-2,-1,-3
1470262634792318,-5,-1,1,-2,-1,-1,-2,-1
1470262634813336,5,7,-3,-4,-1,-1,1,2
1470262634813336,-8,-12,-8,-2,-1,-1,-3,-4
1470262634814840,-3,-3,-3,-3,-1,0,-3,0
1470262634814840,0,-9,-1,-1,-2,-2,1,-1
1470262634826875,-5,7,0,0,-1,-2,-2,-1
1470262634826875,1,-5,-1,1,-1,-2,-1,-1
1470262634835857,1,-1,1,1,0,0,-1,0
1470262634835857,-11,-3,3,0,-1,-1,0,0
1470262634850870,5,1,-17,-2,-2,-3,-3,-3
1470262634850870,-3,22,8,3,1,0,0,2
1470262634852371,0,-7,5,0,-1,2,-1,1
1470262634852371,-3,-34,-43,-11,-5,-5,-3,-3
1470262634872892,-3,4,2,-4,-4,-2,-2,-3
1470262634872892,-2,4,5,1,-1,0,-3,-3
1470262634874892,4,14,12,5,1,1,0,0
1470262634874892,-2,11,9,2,-1,-1,-2,-2
1470262634887418,-3,-4,-2,-1,-2,-2,-1,-1
1470262634887418,3,-3,0,-1,-1,-1,0,4
1470262634894409,-4,-15,-12,-3,-2,-2,-2,-3
1470262634894409,4,31,9,-1,1,0,-2,3
1470262634910425,-4,-50,-37,-5,0,-1,1,1
1470262634910425,-7,-1,8,-7,-6,-2,-4,-7
1470262634912425,5,22,19,2,-1,-3,0,-2
1470262634912425,-1,-7,2,3,-1,-1,-1,2
1470262634932948,6,18,7,2,0,2,2,1
1470262634932948,1,-18,-14,-1,-1,-3,0,-2
1470262634934945,-7,-13,-12,-3,-2,0,-1,-2
1470262634934945,5,12,9,2,1,1,2,2
1470262634946956,-6,-1,2,-1,-1,0,-3,-7
1470262634946956,0,-8,-5,-3,-1,0,-2,0
1470262634955479,0,-1,-1,-2,-2,-4,-2,1
1470262634955479,-2,7,1,-1,-1,-1,-3,-2
1470262634970478,-2,-3,-8,-2,-1,0,-1,0
1470262634970478,-3,-4,6,-1,-1,1,0,-2
1470262634972479,-1,0,-5,1,-1,0,2,1
1470262634972479,0,-10,-8,-3,-2,-2,-2,-2
1470262634993535,2,3,-2,-2,-3,0,-2,0
1470262634993535,-1,4,1,2,1,0,1,0
1470262634995000,3,-6,-3,0,2,1,-1,-3
1470262634995000,-9,-11,0,-2,0,-1,0,-5
1470262635007010,4,18,9,0,-1,-2,0,4
1470262635007010,-4,-10,1,-1,-1,-1,-2,-2
1470262635016018,0,0,-10,-5,-5,-2,-2,-1
1470262635016018,6,17,3,-3,-4,-4,-2,0
1470262635030558,1,7,21,4,0,-2,0,-3
1470262635030558,-2,9,-6,1,-1,0,-1,-2
1470262635032033,-2,-26,-12,-3,-1,-2,-1,0
1470262635032033,-1,-16,-20,1,-1,1,-1,0
1470262635053084,-4,2,-5,-1,-3,-2,-2,-3
1470262635053084,0,2,6,-2,-1,-1,0,-2
1470262635054553,4,17,6,1,-1,0,0,3
1470262635054553,3,7,13,2,2,0,0,-2
1470262635067140,-6,-32,-31,-7,-2,-4,-2,-2
1470262635067140,-2,4,1,1,0,0,-2,-2
1470262635075586,2,18,5,-1,-3,-1,-1,0
1470262635075586,-6,-24,10,1,-1,0,-1,0
1470262635090641,1,6,10,3,-1,0,1,1
1470262635090641,1,-7,-7,-3,-1,-1,-2,0
1470262635092119,-4,1,0,-2,-2,-1,0,-5
1470262635092119,-2,-2,-2,-2,-2,-1,-1,-1
1470262635113161,4,29,17,3,0,1,0,2
1470262635113161,-4,-24,-8,-2,-3,-1,-2,-3
1470262635114608,0,-1,9,-1,-1,-1,0,2
1470262635114608,-3,-1,-9,-2,-3,-1,-1,-1
1470262635126667,-5,3,-7,-4,-1,-1,-1,2
1470262635126667,3,3,8,2,0,-1,0,-2
1470262635141679,-3,1,-16,-7,-4,-3,-2,-1
1470262635141679,-1,-13,7,-2,-2,-3,-6,-6
1470262635150668,-7,0,-4,-1,2,1,-3,-3
1470262635150668,-1,0,-5,-3,-2,-1,1,2
1470262635152142,-1,-3,4,3,-2,-3,-3,1
1470262635152142,-5,-35,-24,-5,-4,-4,-1,-2
1470262635173186,0,7,11,1,-3,-1,0,-7
1470262635173186,-2,4,0,1,0,-2,-3,-5
1470262635174662,-3,-6,11,1,-2,0,-2,0
1470262635174662,3,19,-7,1,-1,0,0,1
1470262635186701,-2,-10,6,-3,-3,-2,-4,-2
1470262635186701,-2,-5,-14,-4,-3,0,0,3
1470262635195680,1,3,8,-1,1,0,2,-2
1470262635195680,2,11,6,0,0,0,-3,2
1470262635210724,1,-13,-9,1,0,-1,3,11
1470262635210724,-4,4,4,-2,-2,-3,-3,-8
1470262635212243,-4,6,-8,0,0,1,1,-4
1470262635212243,1,-18,6,-2,-3,-1,-3,1
1470262635233249,5,-3,-6,-2,-2,-1,0,2
1470262635233249,1,11,0,-1,-1,-1,-2,6
1470262635234717,-4,-16,-14,-2,-1,-1,-1,-9
1470262635234717,-13,11,3,-2,0,0,0,-4
1470262635246781,3,-4,13,-1,-1,-2,-2,3
1470262635246781,1,5,-7,0,0,-1,1,-5
1470262635255734,-6,-8,-1,-3,0,0,-1,6
1470262635255734,16,7,4,-1,-2,1,4,8
1470262635270247,-14,0,-4,-1,-1,-1,-4,-7
1470262635270247,-7,-5,-3,1,-1,-1,-2,-4
1470262635276779,-2,6,-3,-2,-1,-1,-2,-1
1470262635276779,11,5,4,0,-2,-1,-1,-1
1470262635293302,-3,-1,-8,-2,0,0,-1,-1
1470262635293302,4,-10,-3,-2,-2,1,-1,-1
1470262635294787,-7,-14,-3,-3,-3,-1,-3,-4
1470262635294787,7,20,-1,-2,-1,0,2,3
1470262635306821,-2,-8,3,1,-1,0,3,10
1470262635306821,0,-7,2,2,-1,-3,0,-10
1470262635315791,0,11,-1,0,-1,-4,-8,-2
1470262635315791,5,0,0,0,-1,-2,-1,-5
1470262635330399,-13,5,0,-3,-2,-1,-4,-25
1470262635330399,-4,-6,-3,-1,1,-1,-1,12
1470262635336846,4,-4,-4,-3,-2,0,4,7
1470262635336846,-10,-1,-5,-2,1,0,-2,-17
1470262635353322,-5,3,4,-1,0,-3,-4,-1
1470262635353322,-1,-2,0,0,-3,-5,-4,-1
1470262635354822,6,-4,-6,2,-2,-1,-2,2
1470262635354822,-7,-8,-1,-2,-1,-2,0,3
1470262635374843,9,5,3,-1,-2,0,2,-1
1470262635374843,-2,-2,-3,-1,-1,0,-3,-3
1470262635383349,-1,-5,6,2,2,0,2,0
1470262635383349,-2,0,-4,2,0,-1,2,5
1470262635389856,4,-1,-2,-4,-3,-4,-5,-6
1470262635389856,-10,4,7,-1,1,0,-3,-4
1470262635396860,-3,-2,-10,-6,-4,-2,0,-2
1470262635396860,5,3,-3,-2,-1,-5,-3,3
1470262635413375,1,-1,6,1,1,4,4,2
1470262635413375,-2,-1,-14,-2,-2,-3,-3,-1
1470262635414877,-7,-2,6,-1,0,0,1,-4
1470262635414877,1,-4,4,0,-1,1,-4,0
1470262635435396,-4,15,-2,-3,-2,0,0,2
1470262635435396,10,1,2,-1,-1,-3,-3,2
1470262635437396,-8,-4,-5,-1,1,0,0,-4
1470262635437396,6,1,-4,0,-2,-2,-4,0
1470262635449910,0,-6,2,1,-1,-3,0,-7
1470262635449910,-12,3,0,-2,0,3,5,8
1470262635456914,15,3,-2,-1,-1,-3,-6,1
1470262635456914,-5,-3,-3,-2,-1,1,5,12
1470262635472929,-9,-10,-3,-2,-3,-3,-7,-9
1470262635472929,11,4,-1,-1,-2,-1,1,6
1470262635474930,4,-4,0,-1,-1,-3,-1,-4
1470262635474930,-10,11,0,-2,-1,-1,-1,-12
1470262635494950,2,-8,-3,1,1,1,6,5
1470262635494950,-14,-3,-5,1,-1,0,1,-3
1470262635502956,8,0,7,-3,-2,-2,-2,-3
1470262635502956,-5,-8,-8,-1,-2,-2,-1,-4
1470262635509962,10,9,1,2,0,-3,-2,4
1470262635509962,0,1,-1,-3,1,0,-2,-6
1470262635517970,-7,-8,-1,-1,0,-1,-1,-5
1470262635517970,-5,-7,1,2,-1,-1,-2,-2
1470262635532983,-4,-1,-2,-1,-4,-2,0,0
1470262635532983,10,3,4,-1,-2,-2,0,-1
1470262635534484,-12,-2,-4,0,-2,-1,0,1
1470262635534484,0,-3,-1,0,-1,1,1,0
1470262635556015,3,4,-1,-3,0,-3,-4,-1
1470262635556015,-1,-11,-3,-3,-3,-2,-3,-6
1470262635557524,0,-11,-4,-3,-2,0,0,3
1470262635557524,-6,11,-2,-5,-3,-2,-2,-4
1470262635570042,8,-4,11,3,-1,-2,-1,1
1470262635570042,-10,2,-7,-2,-2,0,1,-3
1470262635577027,-2,-2,8,7,2,-2,-4,-4
1470262635577027,-5,-12,-7,2,0,-3,-2,-2
1470262635593039,7,5,3,-1,1,0,0,1
1470262635593039,4,-3,-3,-5,-3,-1,1,1
1470262635594538,-11,2,-3,-5,-3,-4,-3,-2
1470262635594538,4,9,0,0,-2,-2,-1,-1
1470262635615581,-10,-14,-6,-2,-1,-1,0,0
1470262635615581,1,4,5,-2,-1,-5,-4,-1
1470262635617059,3,10,-5,-1,-2,0,0,1
1470262635617059,0,-1,2,2,0,-1,1,-1
1470262635630083,-10,-13,-3,0,-1,-1,-1,-3
1470262635630083,15,15,-1,-3,-1,-2,0,1
1470262635636577,2,-5,-2,0,-3,-4,-1,2
1470262635636577,3,5,0,-4,0,2,-1,-1
1470262635653122,-3,-4,-4,-1,-2,-2,0,1
1470262635653122,-2,1,1,2,0,1,0,-2
1470262635654593,3,-11,-2,1,0,2,-1,-1
1470262635654593,-4,8,1,-1,-2,-2,-1,-3
1470262635675612,0,-1,-7,-4,-2,-1,-1,-2
1470262635675612,1,-2,1,0,1,0,-1,1
1470262635677112,0,3,0,-3,-2,-1,0,-4
1470262635677112,-4,-9,1,-2,1,-1,-1,3
1470262635690144,2,0,-4,-2,-1,-1,-1,1
1470262635690144,-7,-5,-4,1,-1,-1,-1,-7
1470262635696666,4,6,3,0,-1,-3,0,-3
1470262635696666,3,-3,-4,-2,-2,-1,-2,1
1470262635713188,-4,-4,6,3,0,-1,0,-3
1470262635713188,0,0,-3,-1,0,-1,-2,2
1470262635714646,-12,-2,-7,-3,-1,0,-1,-2
1470262635714646,5,3,2,0,-3,-2,-2,-7
1470262635735698,-4,-1,2,1,-1,-1,-1,4
1470262635735698,-1,-2,3,-1,-1,-1,0,3
1470262635737166,-1,-3,-3,1,-1,-2,-1,5
1470262635737166,0,-3,-2,-3,0,-1,0,-5
1470262635750202,-6,-5,-4,-1,-1,0,0,-5
1470262635750202,-1,0,3,-2,-1,1,-1,-6
1470262635756739,-1,0,-5,-5,2,1,2,7
1470262635756739,-13,-3,-5,-5,-2,-2,-2,-2
1470262635773200,9,2,1,4,0,-1,-3,9
1470262635773200,1,-4,4,5,1,-1,1,-4
1470262635774700,-8,-6,-1,-2,-3,0,-3,-4
1470262635774700,0,-3,-1,-1,-4,-1,0,6
1470262635795735,-2,3,-6,-7,-3,-1,-3,-6
1470262635795735,0,-9,-1,1,-2,-2,-1,2
1470262635797222,-3,4,2,-1,1,0,0,-3
1470262635797222,0,1,0,-1,-1,-4,-2,-4
1470262635810232,-13,-12,-5,-1,-1,-3,-2,-3
1470262635810232,13,-5,0,-3,-1,-2,-2,5
1470262635816752,-2,9,0,2,-2,0,0,-5
1470262635816752,-8,-15,-1,-2,-2,-1,-2,2
1470262635833252,6,11,0,-1,-3,-2,-2,-5
1470262635833252,-3,-7,-5,-2,-1,0,-1,-1
1470262635834754,-2,-2,1,0,0,0,0,0
1470262635834754,0,4,0,0,0,-1,-2,-1
1470262635855772,3,-4,-3,-4,0,-2,0,0
1470262635855772,-9,-1,-1,1,-2,-1,-2,2
1470262635857274,6,-4,-4,-1,-2,-3,-1,-1
1470262635857274,1,1,0,0,-3,-2,-1,1
1470262635869359,-2,-4,-4,0,-1,0,1,-4
1470262635869359,0,3,-1,0,0,-1,-1,-4
1470262635884298,4,-2,-2,-4,0,-3,-2,-2
1470262635884298,-6,-4,-1,-1,0,0,-1,0
1470262635893306,6,7,-1,0,1,-1,0,4
1470262635893306,-5,7,-3,-2,-2,-3,-1,-2
1470262635894808,7,-2,3,0,0,1,-2,2
1470262635894808,-2,3,-3,-1,0,0,0,-1
1470262635915826,-6,-4,0,-2,-2,0,0,0
1470262635915826,-2,3,3,0,0,-1,-1,-6
1470262635917330,1,-2,-1,-3,-2,0,0,6
1470262635917330,2,1,-1,0,0,-1,0,2
1470262635938347,6,4,1,-1,-1,-2,-4,-7
1470262635938347,-7,-10,-1,-2,0,-2,-3,-10
1470262635939850,-8,5,-3,-3,-4,-1,-1,-1
1470262635939850,2,-6,-1,-3,-1,-1,-2,-5
1470262635953363,-3,4,2,2,0,1,-1,4
1470262635953363,3,0,2,3,1,2,-1,-5
1470262635954861,-7,-2,-2,-1,0,-2,-1,-3
1470262635954861,-2,-1,2,-1,0,-3,-1,-5
1470262635975884,2,-3,-5,-5,-2,0,-1,-1
1470262635975884,-7,0,-6,0,-2,0,1,1
1470262635977414,-1,8,3,-1,-2,-2,-1,-9
1470262635977414,0,-3,-4,1,-2,0,-1,3
1470262635989392,0,-1,5,0,-2,-2,0,0
1470262635989392,-6,-2,-2,-3,-2,-3,-2,-2
1470262635998400,6,-2,-3,-1,0,-2,1,4
1470262635998400,0,1,-1,-2,-1,-1,0,0
1470262636021007,-2,-3,-3,-2,-1,-2,-3,-1
1470262636021007,-2,-1,0,-3,-1,-1,-1,5
1470262636022422,-5,-4,-2,1,0,0,-1,-3
1470262636022422,2,8,-1,0,-1,0,-2,-4
1470262636035934,-3,-13,-2,-1,-2,-2,-1,-3
1470262636035934,5,-2,-3,-4,-1,-3,-1,9
1470262636037436,0,2,1,-2,-1,0,-1,1
1470262636037436,-1,-4,-3,1,-1,-1,-2,-6
1470262636049459,-1,2,0,-1,1,0,-1,-3
1470262636049459,0,0,-1,-1,0,-1,0,4
1470262636057954,-4,-8,-4,-4,-3,-2,-2,-2
1470262636057954,-3,1,-1,-2,-3,-1,-1,2
1470262636072972,5,5,0,0,1,-1,-1,-2
1470262636072972,-6,-5,-2,-2,-2,1,-2,0
1470262636074471,2,-2,0,-2,-2,-2,-3,-3
1470262636074471,-2,-5,1,-2,-2,-1,0,2
1470262636103016,-4,0,-1,-1,1,-1,-1,2
1470262636103016,-3,1,-2,0,-2,-1,-3,-8
1470262636104998,-1,-3,3,0,-2,-2,0,0
1470262636104998,3,3,-4,0,-1,-2,0,-1
1470262636109506,-7,-1,-1,-2,-1,0,1,2
1470262636109506,0,-4,-1,-4,-1,-1,-3,-11
1470262636118013,-1,0,-2,1,0,-1,-3,1
1470262636118013,1,-4,0,0,-1,-1,-1,3
1470262636133066,-1,1,-1,-5,-3,-2,0,-7
1470262636133066,0,0,-4,-1,0,-2,-1,7
1470262636135110,-3,-6,-2,0,0,0,0,-3
1470262636135110,-5,3,-1,-1,-1,-1,-1,-5
1470262636155569,4,6,-1,2,-2,-1,-2,0
1470262636155569,0,-6,1,-2,-3,0,-2,-5
1470262636157043,-7,-2,-4,-2,-1,-1,-1,-6
1470262636157043,3,-4,0,-2,0,-1,-2,5
1470262636178117,-4,-5,-3,-1,-2,-1,0,-2
1470262636178117,-1,-2,-2,1,-2,0,1,1
1470262636179563,5,4,-2,-2,1,-1,-3,-3
1470262636179563,-4,-5,-1,0,0,-1,1,0
1470262636193077,-1,-7,0,-1,-2,-1,1,-1
1470262636193077,4,3,-1,-1,0,-2,0,-2
1470262636194577,-5,0,0,0,-2,1,-1,0
1470262636194577,-2,-3,0,-2,-2,0,-2,4
1470262636215598,4,0,-3,-1,-1,0,-3,0
1470262636215598,-6,-3,-1,-1,0,-2,1,-1
1470262636217652,2,2,0,1,-1,-2,0,0
1470262636217652,-2,-6,-1,0,1,-1,2,-5
1470262636229640,-1,4,-1,-2,-2,-2,-2,-1
1470262636229640,2,-4,-2,-1,0,-1,-2,0
1470262636238132,2,4,-2,-2,0,-2,0,2
1470262636238132,-5,-3,-2,-1,-1,-2,-1,-2
1470262636253154,-1,-2,-3,0,-2,-1,-2,-3
1470262636253154,4,2,-3,0,-2,0,0,-2
1470262636254631,2,1,0,1,1,0,-1,-3
1470262636254631,2,3,0,-1,1,-2,0,5
1470262636275649,-2,-2,1,-3,1,-1,-1,-5
1470262636275649,2,-2,-4,-2,-1,-2,0,3
1470262636277151,0,0,1,-3,-2,-1,-2,-8
1470262636277151,-3,-2,-3,-2,-1,-1,1,-2
1470262636298173,-1,0,0,-2,-2,-1,-1,2
1470262636298173,-3,0,0,-4,-1,-1,0,-4
1470262636299673,2,-2,-2,-1,-1,-2,-1,3
1470262636299673,-2,-1,-3,-2,0,-1,-2,-4
1470262636313202,-5,-2,-3,1,1,0,-1,-1
1470262636313202,-5,0,1,-2,-1,-1,0,-2
1470262636314686,0,-3,-4,1,-2,-1,-1,5
1470262636314686,-4,1,2,-4,0,0,-1,-5
1470262636335735,-1,-1,-1,-1,-2,-4,-4,-5
1470262636335735,2,-1,0,-1,-3,-1,-1,-1
1470262636337205,-2,-5,0,-2,-1,0,1,2
1470262636337205,1,-6,0,0,-2,-1,-3,-2
1470262636358310,-3,5,-1,-4,0,-1,-2,-3
1470262636358310,-3,0,-2,-2,-1,-1,0,3
1470262636359725,3,1,-2,-3,-1,-2,0,1
1470262636359725,0,-1,0,0,-2,-2,-3,0
1470262636373254,1,-6,-2,1,0,0,1,1
1470262636373254,-1,0,-1,0,0,0,-2,0
1470262636379244,-1,-3,-2,-2,-1,-1,-2,-3
1470262636379244,1,1,-2,-2,-2,-2,1,-1
1470262636395768,-2,-4,-2,0,-1,0,1,1
1470262636395768,-5,6,0,0,-1,-2,-2,-2
1470262636397259,-2,-4,0,-2,0,-1,-2,0
1470262636397259,1,-2,-2,0,-2,0,-2,-3
1470262636418298,-2,1,-1,-3,-1,-2,-2,-3
1470262636418298,-9,-6,-2,1,-1,-2,0,-3
1470262636419847,2,-1,1,-2,-2,0,-2,3
1470262636419847,0,0,-1,0,0,-1,-2,-1
1470262636433291,5,1,0,-1,0,-1,0,-2
1470262636433291,-1,-3,-1,-1,-1,0,-1,-4
1470262636434811,-13,-2,-1,0,-2,-1,0,0
1470262636434811,3,-1,-2,-2,-1,-3,0,3
1470262636455813,1,0,-1,-1,-1,-1,-1,5
1470262636455813,2,-1,0,0,0,0,-2,-3
1470262636457333,-2,0,-1,-1,0,-1,-2,-4
1470262636457333,-5,-1,-1,0,0,0,0,0
1470262636478331,9,10,1,-2,-3,-2,-1,2
1470262636478331,-6,7,-1,-1,-3,-3,-1,-1
1470262636479833,2,-4,0,-1,-2,-1,0,2
1470262636479833,-4,0,0,1,-1,2,-2,-11
1470262636492873,-4,-4,-2,0,-2,1,3,7
1470262636492873,-1,1,0,-2,-2,-1,-3,5
1470262636499383,1,2,-2,-1,-2,-3,2,5
1470262636499383,5,5,-1,-1,0,-2,-4,-15
1470262636515866,-10,-14,0,1,-1,-1,-5,-5
1470262636515866,5,4,1,-2,-1,-2,2,-9
1470262636517366,3,-4,-4,-2,1,-2,-2,8
1470262636517366,-1,4,0,-1,-2,-1,2,2
1470262636538386,-2,-1,-1,-3,0,-1,-2,-2
1470262636538386,0,-4,-3,-1,-2,-2,-2,7
1470262636539887,1,3,0,1,0,1,1,-4
1470262636539887,1,0,-3,-2,-3,-2,-3,-19
1470262636551898,-2,-9,-1,0,-1,2,0,25
1470262636551898,-2,-8,-3,-2,-1,1,3,-10
1470262636560906,0,8,-1,-2,-2,-2,-3,-13
1470262636560906,-1,6,3,3,0,0,-1,-1
1470262636575421,6,-3,-4,-4,-4,-1,1,6
1470262636575421,-6,-4,-2,2,1,1,0,3
1470262636577420,-5,-3,-2,-1,-2,0,-1,-10
1470262636577420,-8,-3,1,-3,0,-2,-4,1
1470262636597941,6,-1,-1,1,0,0,-2,-11
1470262636597941,1,2,-1,-1,-1,-1,-2,12
1470262636599941,-1,-3,1,-3,-1,1,-3,-7
1470262636599941,4,-4,-3,-2,-2,-2,-1,12
1470262636611951,-7,5,0,-1,-2,-4,-1,-3
1470262636611951,9,1,0,1,-1,1,8,4
1470262636620959,-2,-3,5,0,0,-2,-7,7
1470262636620959,-14,-7,-8,-6,-2,-3,-7,-3
1470262636635984,2,4,-3,1,0,-2,0,2
1470262636635984,7,1,-3,1,0,3,0,-6
1470262636637567,-8,-5,-3,1,-2,-1,3,-6
1470262636637567,3,-2,1,-2,-3,-2,-1,-3
1470262636657992,-9,2,-2,0,0,-3,-3,-8
1470262636657992,2,-7,-2,-2,0,-1,5,-5
1470262636659494,-3,12,0,-2,-2,-3,-4,2
1470262636659494,2,-5,-2,1,0,1,2,13
1470262636672006,-5,-6,-6,-2,-1,-1,-4,-3
1470262636672006,-5,-5,-2,-4,-4,-4,-6,-7
1470262636680513,-4,-2,-1,1,-3,0,8,-4
1470262636680513,3,-2,-1,2,0,-1,-11,4
1470262636696027,1,-3,1,1,0,2,10,-10
1470262636696027,-3,4,1,-2,-1,-3,-9,5
1470262636702032,0,-6,-6,-1,-4,-2,-10,4
1470262636702032,-4,-1,0,2,-2,1,8,-3
1470262636718054,-3,-4,-2,-6,-1,-1,-4,-8
1470262636718054,-1,-4,-1,1,-1,0,4,14
1470262636720049,-6,-3,-1,-1,0,-1,4,-2
1470262636720049,-6,-2,-1,-3,-3,-3,-5,-8
1470262636731560,15,4,0,-2,-4,-2,0,-4
1470262636731560,1,-2,0,-1,-2,-2,-6,-1
1470262636740584,2,-3,-2,-2,-1,0,-1,-2
1470262636740584,-1,4,-1,-2,-1,-2,2,5
1470262636755636,-8,-3,0,0,-2,-2,-3,0
1470262636755636,1,-2,-1,-3,-1,-2,-2,-7
1470262636757623,0,1,0,1,-1,-2,-5,-3
1470262636757623,-4,-3,-3,0,-1,-1,2,5
1470262636778100,-1,0,0,-1,0,1,2,5
1470262636778100,-10,-2,-3,-3,0,-5,-10,-27
1470262636779602,5,-1,-2,-1,0,-1,0,3
1470262636779602,-1,-3,-3,0,-3,-5,14,-3
1470262636800640,-6,0,-1,0,0,0,-15,4
1470262636800640,9,4,2,-1,0,-4,-2,-5
1470262636802639,-11,-4,-1,-1,0,-1,-13,-11
1470262636802639,4,-2,-1,-2,0,0,5,1
1470262636815651,1,-1,-1,-2,-2,-2,2,-7
1470262636815651,-10,-2,-2,0,-1,2,3,4
1470262636817136,-5,-4,-2,-3,-3,-2,-1,14
1470262636817136,20,-1,-1,-4,-1,0,-3,4
1470262636838156,-6,1,0,-1,-1,-1,3,-4
1470262636838156,-5,-1,1,0,0,1,0,2
1470262636839656,4,-2,-2,-2,-2,0,9,-2
1470262636839656,-14,1,0,1,-3,-2,-24,-1
1470262636851692,3,-3,-2,0,-1,-1,19,1
1470262636851692,1,0,-2,-1,-1,-4,-22,-3
1470262636860675,3,-2,-1,-1,-1,0,11,-6
1470262636860675,3,-2,-1,-1,1,1,6,8
1470262636875690,-13,1,-1,1,2,2,-7,-6
1470262636875690,0,-2,-1,-1,-2,-2,6,-3
1470262636877190,4,0,-1,0,-2,-1,0,-2
1470262636877190,-2,1,0,-2,0,4,0,-11
1470262636898241,-4,1,2,5,-3,-6,-7,2
1470262636898241,-4,-2,0,-2,1,1,16,1
1470262636899712,7,0,0,-2,-2,-2,-39,-10
1470262636899712,-2,2,-2,-7,-3,-2,12,1
1470262636911777,-3,-2,-2,-5,-2,-3,1,-2
1470262636911777,-6,0,2,9,5,0,-3,-1
1470262636920729,12,-1,-1,8,4,0,14,16
1470262636920729,-15,-1,-1,1,-3,-6,-15,-18
1470262636935820,11,-1,-3,-5,-4,5,10,6
1470262636935820,-10,-2,-3,-7,-5,-3,2,11
1470262636937298,-3,-5,-2,-6,-3,-4,-26,-1
1470262636937298,7,-1,-1,2,2,8,32,0
1470262636958262,-4,-2,-3,-3,-3,-7,-27,-10
1470262636958262,14,1,0,1,3,2,-4,6
1470262636959782,-7,0,1,3,0,0,9,-5
1470262636959782,-16,-2,-1,-1,-3,-19,-12,-9
1470262636971777,27,-1,-1,2,3,17,-7,18
1470262636971777,-18,-2,-1,-1,-4,-6,3,-7
1470262636980783,6,-1,-2,-4,-1,-2,1,-4
1470262636980783,4,0,2,-2,-1,4,-8,4
1470262636995796,-22,-6,0,-1,-1,-5,9,-18
1470262636995796,12,-1,-3,-3,-3,-1,-11,21
1470262636997297,-13,-1,-1,-4,-2,2,11,-5
1470262636997297,12,0,1,0,1,0,-2,7
1470262637018316,-14,0,2,-1,-1,-3,7,-10
1470262637018316,3,-2,-1,-1,-2,0,-18,-6
1470262637019817,-2,-1,-2,0,-1,0,14,2
1470262637019817,0,1,-4,-1,0,-2,-7,6
1470262637031831,-3,-3,-1,-2,-1,-4,-4,-10
1470262637031831,-7,-3,0,0,2,-2,-6,-2
1470262637040836,6,-1,-3,-2,-4,-2,2,5
1470262637040836,-7,-1,-1,0,1,3,-2,-1
1470262637055850,-5,-2,0,0,-1,1,7,2
1470262637055850,0,0,0,0,-4,-2,2,-13
1470262637057433,6,1,-1,-1,1,0,-4,14
1470262637057433,-13,-5,-2,0,-1,0,0,-6
1470262637078370,15,-2,-1,-2,-2,-4,-5,7
1470262637078370,-4,0,-4,-4,-4,0,13,-4
1470262637079878,-7,-1,0,3,0,1,-8,-5
1470262637079878,3,-2,0,-1,-2,0,9,6
1470262637091915,5,3,-5,-1,-2,-4,-18,11
1470262637091915,-3,-2,-1,-3,0,1,14,-5
1470262637100890,-4,-1,-3,-4,-1,-4,-8,-9
1470262637100890,-7,0,1,1,0,-1,3,-2
1470262637115904,-3,-3,-1,-2,-2,-2,-2,-6
1470262637115904,8,-1,-3,0,0,2,5,7
1470262637117405,-3,0,-1,-2,0,0,3,-10
1470262637117405,-9,1,-3,-1,-2,-2,-4,-3
1470262637137939,5,2,-2,-1,-2,-2,-2,9
1470262637137939,-7,-2,-2,-1,0,-1,0,-10
1470262637139925,6,-3,-1,-2,1,-1,2,7
1470262637139925,4,0,1,-1,-3,0,-7,0
1470262637151970,-2,-3,-1,0,1,0,4,-3
1470262637151970,-9,0,-1,1,-4,-1,4,-3
1470262637166950,-16,1,0,-2,-2,-5,-19,-11
1470262637166950,11,0,-2,0,1,2,7,9
1470262637174963,9,1,0,-2,-2,-2,12,5
1470262637174963,-16,-4,-1,-3,-1,-3,-16,-14
1470262637181963,1,-3,-1,-1,-2,0,11,4
1470262637181963,1,-1,0,2,1,1,-1,-3
1470262637197978,-10,-1,-2,1,-1,-2,-7,-14
1470262637197978,10,-2,-1,-4,-1,-2,0,5
1470262637199979,-1,0,-1,-1,-1,0,6,10
1470262637199979,0,-3,-2,-2,-3,-2,-2,-6
1470262637212030,-1,-1,-2,-2,-1,1,-16,-3
1470262637212030,5,-1,1,2,1,-1,4,4
1470262637220998,-3,-4,-1,-1,-1,0,6,2
1470262637220998,3,-1,-1,-4,-1,0,11,-1
1470262637235554,-10,1,0,-1,2,-2,-26,-8
1470262637235554,7,-1,-1,-3,-4,-1,-11,2
1470262637237514,-1,0,0,-1,-2,-1,3,1
1470262637237514,0,-4,1,0,-1,0,4,0
1470262637258032,-8,-1,1,-1,-1,-1,18,-3
1470262637258032,2,-1,-2,-3,0,-2,-29,-6
1470262637260147,9,1,0,0,-1,1,7,8
1470262637260147,-1,-3,-3,-2,-3,-4,-13,-15
1470262637280551,-5,-1,-2,-1,-2,0,15,10
1470262637280551,4,0,-1,-1,-3,-9,-18,-6
1470262637282553,-3,-2,0,1,3,2,7,6
1470262637282553,-3,0,-1,-3,-2,-2,-8,-9
1470262637295621,-8,-3,1,1,-1,-1,2,4
1470262637295621,4,-1,-3,-3,-1,6,20,6
1470262637297066,-1,0,-2,-2,-2,-4,-4,-8
1470262637297066,2,0,-2,1,-1,-2,-23,2
1470262637318141,-1,0,-2,-2,-1,1,9,1
1470262637318141,-4,-1,0,1,0,-1,1,6
1470262637319587,-7,-1,0,-1,-1,-1,2,-14
1470262637319587,8,2,-3,-1,-1,0,3,12
1470262637340636,1,-2,-2,-1,-3,0,-2,-12
1470262637340636,1,-3,-5,-2,0,-1,-7,12
1470262637342637,4,-3,-3,-3,-2,-1,1,-2
1470262637342637,-14,0,2,1,-2,0,5,8
1470262637355619,7,0,-3,-1,1,-1,0,-2
1470262637355619,-1,-1,0,-2,-1,1,8,2
1470262637357120,-3,-2,-3,-5,-2,-3,-1,-12
1470262637357120,4,-1,-1,-2,0,1,-15,-1
1470262637378153,7,-3,-1,-1,-2,-1,15,5
1470262637378153,-13,-1,0,-2,-1,-1,-7,-3
1470262637379641,3,-1,0,0,0,-3,-6,-2
1470262637379641,-7,-2,-3,-3,-1,0,14,0
1470262637400693,4,0,-3,-1,-3,1,-10,-7
1470262637400693,-1,0,-2,-1,-1,-5,2,-7
1470262637402161,-4,0,-5,-3,-3,0,-4,-3
1470262637402161,-1,-3,-3,-2,-1,0,0,0
1470262637414769,4,0,0,-1,1,-6,2,4
1470262637414769,-12,0,-2,0,0,-2,-15,-10
1470262637423181,-4,-1,1,-2,-2,0,-3,5
1470262637423181,5,0,-1,0,-1,-3,0,-3
1470262637438193,-8,-1,0,-2,-1,-1,-5,-5
1470262637438193,6,-3,-1,-2,-2,0,11,-2
1470262637444224,-6,-3,1,2,1,-1,7,0
1470262637444224,1,-3,0,-2,0,0,-28,-6
1470262637460742,-7,-1,0,-2,0,-1,-1,-2
1470262637460742,9,0,0,-1,1,-1,3,1
1470262637462248,-7,0,-1,0,-1,0,-1,-7
1470262637462248,2,-2,0,0,-2,-5,6,11
1470262637474241,0,-2,1,-2,-1,-3,-7,-8
1470262637474241,-6,-1,-1,-1,0,1,1,-2
1470262637483778,6,-1,0,-1,-3,-1,-4,-1
1470262637483778,-4,0,-2,0,0,-1,3,2
1470262637497746,3,0,-2,0,-1,-2,-6,-7
1470262637497746,-3,-2,-1,-1,-3,-1,7,3
1470262637498248,-3,-1,-3,-2,-2,-4,-7,-2
1470262637498248,1,-3,-1,-2,1,-1,1,-3
1470262637520267,-1,-1,-2,-2,-1,-1,-1,3
1470262637520267,-5,0,-1,-1,-1,2,2,-1
1470262637520767,-2,-1,0,1,0,1,-4,2
1470262637520767,-1,-2,-2,-1,0,-3,9,0
1470262637534279,-3,0,1,-2,-1,-3,-20,-9
1470262637534279,3,1,-1,2,-1,3,11,7
1470262637542286,0,0,0,-1,1,-1,-5,-3
1470262637542286,-3,-3,-1,0,-1,0,8,-2
1470262637557800,-1,-2,0,1,1,1,2,12
1470262637557800,-3,-2,-1,0,-1,-2,-10,-24
1470262637558302,1,-2,-2,-3,0,-1,-2,1
1470262637558302,-2,-1,-1,1,-4,-5,-10,4
1470262637580326,-4,1,0,-1,1,2,14,-13
1470262637580326,1,-4,1,-1,1,0,-3,20
1470262637580823,-3,-3,-2,-3,-4,-3,-2,-52
1470262637580823,-2,0,0,-2,0,0,-8,-11
1470262637603342,0,0,-4,-2,-4,-2,13,22
1470262637603342,1,1,-2,1,0,1,-4,-5
1470262637603842,-3,-1,0,-1,-4,-7,-27,-7
1470262637603842,-4,1,1,0,-1,1,-21,17
1470262637617354,4,2,-1,0,1,1,11,-30
1470262637617354,2,3,1,-2,-1,0,-1,4
1470262637618360,1,3,-1,0,0,-1,7,20
1470262637618360,-5,-2,-1,-2,-2,-2,-1,-5
1470262637639879,-8,-5,-4,-1,0,-1,-6,5
1470262637639879,9,8,8,3,0,-2,-3,6
1470262637640875,-2,-4,-6,-2,0,-1,7,0
1470262637640875,5,2,-1,-3,-3,-1,40,9
1470262637663395,0,-1,2,-1,0,-3,-28,-15
1470262637663395,-7,-2,1,0,0,-1,4,-9
1470262637663896,-3,-6,1,0,-1,2,-4,29
1470262637663896,-1,-1,-3,-2,-1,-1,6,-17
1470262637685415,9,-4,-2,-1,-1,0,4,18
1470262637685415,-13,-5,-3,-3,-2,-2,-9,-15
1470262637686417,-1,-2,-1,-1,0,1,38,13
1470262637686417,-3,0,-1,1,3,1,-38,15
1470262637699960,-4,-3,0,0,0,8,13,9
1470262637699960,8,-4,-5,-4,-4,-6,-12,-10
1470262637700930,-5,5,5,0,-4,-3,4,10
1470262637700930,7,-3,0,-1,-1,-1,-5,-14
1470262637722974,-4,3,0,1,-1,-1,3,-10
1470262637722974,-10,-4,-5,-4,-2,-2,-43,-8
1470262637723950,10,2,-1,3,2,3,-1,-7
1470262637723950,-7,-4,-4,-2,-1,0,3,-7
1470262637737495,-7,3,-1,-2,0,-2,13,5
1470262637737495,19,0,-1,0,-1,2,-4,9
1470262637738462,-13,-2,-2,-3,-3,-4,-5,-11
1470262637738462,-2,-2,-3,-3,-2,-1,-6,4
1470262637760033,11,-7,1,-2,-3,0,16,-1
1470262637760033,-8,1,-5,-2,-1,-5,22,7
1470262637760510,14,0,-2,-1,0,2,-35,4
1470262637760510,3,1,4,-1,-2,-1,7,-13
1470262637783005,-8,3,6,2,1,0,14,10
1470262637783005,8,-5,4,2,2,4,-6,-3
1470262637784003,11,6,-7,0,2,-1,6,5
1470262637784003,9,0,-1,-1,-2,0,17,1
1470262637797521,-12,1,1,2,-2,-1,-18,-7
1470262637797521,-3,-6,0,-3,0,-1,10,-9
1470262637798017,-11,0,0,-2,-2,-4,0,16
1470262637798017,11,-9,-4,-1,-1,1,30,-4
1470262637820036,6,6,-5,2,1,-2,-55,-2
1470262637820036,-2,2,-2,1,2,11,83,8
1470262637821037,-20,-4,-3,-4,-7,8,23,5
1470262637821037,2,0,2,-1,-8,-18,-96,-27
1470262637843610,-15,-4,-2,-4,1,-5,-35,-4
1470262637843610,6,-3,-1,-3,-6,-8,28,20
1470262637844060,-1,-9,-9,-2,2,2,29,-19
1470262637844060,-8,0,-1,-1,-3,14,57,9
1470262637857570,-1,-2,-6,-4,-3,0,2,-1
1470262637857570,-2,3,-2,2,0,-2,-18,-18
1470262637858072,-1,4,7,1,2,1,-5,-7
1470262637858072,-4,6,-2,4,3,-3,-42,2
1470262637880092,9,-7,-4,-6,0,-3,9,-4
1470262637880092,-1,-1,-3,0,-1,3,-10,-1
1470262637880591,5,-2,1,-3,-4,-5,-23,-1
1470262637880591,-3,3,0,2,0,-3,9,1
1470262637894104,-10,-12,-6,-5,-3,0,7,9
1470262637894104,-10,-5,-5,-5,-2,-1,-3,-11
1470262637902618,-9,-7,-5,-4,-1,-4,-8,0
1470262637902618,7,-4,0,-2,0,2,11,3
1470262637917672,-4,0,1,-2,-3,-3,3,-22
1470262637917672,-9,-3,-2,-3,-4,-4,-11,0
1470262637918148,10,-5,-4,2,0,-1,-14,2
1470262637918148,-3,4,-2,-2,0,1,8,-10
1470262637940184,-3,-1,-4,-3,-5,-4,6,0
1470262637940184,-2,0,4,3,2,-6,-41,-15
1470262637940682,-2,1,-1,0,-4,2,6,6
1470262637940682,-3,-1,0,0,1,3,22,11
1470262637954659,6,-3,-5,-3,-3,-3,18,0
1470262637954659,3,1,1,1,1,1,5,8
1470262637962668,-4,1,-4,1,4,-2,1,-3
1470262637962668,-2,-7,-3,-3,-4,-4,4,27
1470262637977679,1,4,4,2,1,0,-8,-30
1470262637977679,-6,-3,-1,-2,-2,-2,-3,7
1470262637978183,4,-7,-1,-3,-1,0,-5,-4
1470262637978183,-7,-6,-2,0,0,-5,4,1
1470262638000199,0,7,2,-1,0,0,14,4
1470262638000199,-15,1,-1,-2,-1,0,7,-2
1470262638001199,11,3,4,0,-2,-1,-5,7
1470262638001199,-16,-3,-4,-1,-1,-1,-1,-20
1470262638023219,7,-6,-3,1,-2,-2,3,17
1470262638023219,7,4,-3,-3,-1,-2,5,-7
1470262638024219,7,3,-2,2,1,-2,-45,3
1470262638024219,-9,5,0,1,3,2,3,-25
1470262638037231,9,-3,1,1,-2,-1,4,16
1470262638037231,9,2,1,-1,-2,1,21,9
1470262638045239,-6,0,3,-1,0,-2,-7,-1
1470262638045239,-3,-4,-1,-1,-1,1,-7,-1
1470262638060252,-2,5,-2,-3,-3,2,-4,2
1470262638060252,6,-6,-2,0,1,2,6,-3
1470262638060754,-4,-1,-5,-3,0,-2,1,-8
1470262638060754,-7,-2,-1,-2,-2,-5,-14,-3
1470262638083272,-3,0,-3,0,-2,-1,7,7
1470262638083272,-7,-3,-3,-4,-3,-1,11,3
1470262638083775,8,-2,2,-1,-1,-5,-32,-7
1470262638083775,3,-1,0,1,0,7,50,28
1470262638097329,-1,-1,1,1,-1,-2,-50,-30
1470262638097329,-8,1,-3,-1,-1,-6,1,-3
1470262638098287,0,3,2,2,0,3,35,0
1470262638098287,-10,1,-2,-3,-4,-6,-58,-10
1470262638120382,-3,-3,1,-1,0,-2,20,7
1470262638120382,7,1,-3,-3,-1,-1,-10,0
1470262638120806,-5,0,1,-1,-4,-1,20,-8
1470262638120806,-1,-2,-3,-1,0,-2,1,1
1470262638143327,4,-5,-1,-1,-1,-1,-1,6
1470262638143327,-9,-2,-1,0,0,0,-14,2
1470262638143827,5,-1,-2,-1,-1,-3,3,-14
1470262638143827,0,2,-1,-4,-2,-1,-23,1
1470262638157341,-8,-1,-1,0,0,0,-1,-6
1470262638157341,1,1,3,-2,-4,-7,-20,4
1470262638158340,-5,-4,-2,-2,-3,2,10,-1
1470262638158340,8,-3,-2,-1,-2,-1,5,-10
1470262638179907,-9,1,-5,-2,0,2,-6,9
1470262638179907,-6,0,-1,0,-3,-2,0,-2
1470262638180860,-7,1,-1,-1,0,-1,23,-4
1470262638180860,27,0,-2,-4,-4,-6,-44,13
1470262638203443,-15,2,3,3,0,1,20,5
1470262638203443,1,-2,-5,-1,1,2,5,-8
1470262638203887,-4,-2,0,-1,-2,1,-3,-7
1470262638203887,4,2,1,2,1,1,22,4
1470262638217393,2,-4,-5,-3,-5,-9,-14,-12
1470262638217393,-5,-7,-7,-2,-1,3,-13,7
1470262638218393,-10,-3,-4,-3,0,1,14,1
1470262638218393,-6,1,-2,-3,-2,2,31,-12
1470262638239935,-2,-3,0,1,-3,-4,-9,3
1470262638239935,-3,1,-1,-2,0,-6,-33,-12
1470262638240916,3,0,0,0,-1,-3,-3,5
1470262638240916,-4,-1,0,2,-1,3,6,0
1470262638263487,6,-4,-7,-3,1,2,13,4
1470262638263487,-12,0,-4,1,-1,-2,-3,-7
1470262638263938,10,0,1,-1,-3,-2,-18,3
1470262638263938,-4,-3,-1,-3,-2,-5,5,-6
1470262638277449,3,-1,2,-1,0,0,-5,-6
1470262638277449,-5,0,1,-2,-3,-2,12,7
1470262638278448,4,-8,-1,0,1,1,-11,-11
1470262638278448,-9,1,-4,-1,0,-3,0,1
1470262638299980,13,2,1,-2,-2,-3,-4,3
1470262638299980,-1,1,0,-1,-1,0,1,7
1470262638300467,0,3,1,0,-3,0,2,-4
1470262638300467,-1,-3,1,0,0,2,-1,0
1470262638323488,-1,1,1,1,3,0,6,-24
1470262638323488,14,1,6,1,2,2,-9,13
1470262638324004,-5,4,-1,-2,-2,-2,-11,-1
1470262638324004,-2,-1,-1,-2,0,-2,10,6
1470262638337514,-14,5,3,2,-1,-2,-4,-2
1470262638337514,5,-1,0,0,-1,2,22,-1
1470262638338022,7,-2,-1,-1,-1,0,-8,-3
1470262638338022,-12,-3,-6,-1,-1,-2,-15,2
1470262638360023,10,0,4,4,-1,0,-4,6
1470262638360023,-9,4,0,0,2,-2,0,-3
1470262638360522,-4,-4,-1,-3,-3,-3,3,3
1470262638360522,5,2,0,0,0,1,1,-1
1470262638383076,-7,-5,-3,-2,1,1,-3,3
1470262638383076,0,-3,-2,-2,-3,-1,-3,-8
1470262638384042,-7,-2,-3,-3,1,1,1,2
1470262638384042,0,3,0,0,-1,-2,0,-8
1470262638397599,-5,-3,-4,-6,-2,-1,-6,-2
1470262638397599,0,-6,2,-1,-4,-1,2,-4
1470262638398556,-6,-1,-5,-1,2,1,4,1
1470262638398556,-5,-6,-6,-3,0,-2,-4,0
1470262638420101,2,-3,-1,-2,-1,-2,1,6
1470262638420101,-5,-1,-6,-3,-3,-1,-4,-2
1470262638420575,-2,-9,-7,0,-1,-1,0,-2
1470262638420575,-1,-2,0,-2,-4,-1,-4,-6
1470262638444097,0,-1,-3,1,-2,-1,-1,4
1470262638444097,1,-2,1,1,2,2,5,3
1470262638445599,-2,1,1,0,-1,-1,-8,-7
1470262638445599,7,3,2,1,0,-1,8,18
1470262638457610,-6,-6,-7,-1,-1,-1,-5,-1
1470262638457610,2,-8,2,-1,-2,-3,-2,-5
1470262638458609,-2,-1,-1,-2,-4,-4,-2,-3
1470262638458609,2,5,3,-1,-4,-2,2,4
1470262638480148,-1,-5,0,0,1,-1,-2,-5
1470262638480148,3,16,3,0,-1,-1,-1,-5
1470262638480634,1,14,9,0,-1,1,4,7
1470262638480634,-3,9,-5,-1,-1,-2,-4,-10
1470262638502149,-5,-45,-9,-5,-5,-2,-3,-4
1470262638502149,3,12,3,1,-1,1,0,-4
1470262638510155,3,12,4,1,0,-1,0,9
1470262638510155,0,12,8,0,-1,1,-2,-19
1470262638517662,0,8,-3,-2,0,0,1,-2
1470262638517662,-1,-2,-6,-1,-2,-4,0,6
1470262638518162,-4,-2,0,-3,-4,0,-2,-3
1470262638518162,-2,-22,-3,-1,-1,-1,1,-5
1470262638555753,2,9,-1,0,1,1,1,6
1470262638555753,-6,-10,1,-3,-2,-3,-2,-2
1470262638556199,1,-4,-5,-3,-1,-3,-1,-3
1470262638556199,-7,-3,-3,0,2,0,-4,-11
1470262638562703,1,16,4,1,-4,0,0,5
1470262638562703,-1,1,-3,-4,-1,0,-1,2
1470262638563203,4,-2,-2,1,0,-2,0,-5
1470262638563203,-1,-24,-5,-3,-2,-3,-3,10
1470262638577717,2,-4,-3,-2,-2,-2,-2,-5
1470262638577717,-6,-28,-8,-4,-4,-3,-4,-6
1470262638578217,-6,10,-4,-2,0,-1,1,2
1470262638578217,-3,1,-1,-2,-3,0,-2,1
1470262638600240,2,12,5,0,-1,-2,1,-1
1470262638600240,-2,-18,-9,-2,0,-1,-2,-3
1470262638600737,8,34,4,1,1,1,0,5
1470262638600737,-7,-30,-8,-3,-2,-5,-5,-7
1470262638623286,5,-4,6,-2,-1,-1,1,2
1470262638623286,0,-3,-12,-4,1,0,1,-1
1470262638623759,-6,-4,2,7,1,-1,-4,-4
1470262638623759,0,14,4,-2,0,-1,0,-2
1470262638637769,-3,11,2,-4,-4,-1,-2,-1
1470262638637769,3,12,-1,-2,-6,-1,-2,-3
1470262638638272,-10,-42,-16,-9,-3,0,-3,-7
1470262638638272,3,19,4,6,4,2,0,4
1470262638660291,-5,-7,-11,-4,-5,-8,-6,1
1470262638660291,1,22,8,10,1,2,2,0
1470262638660792,-2,4,6,-4,-3,-3,-3,0
1470262638660792,3,6,-5,-3,1,1,0,-1
1470262638683311,-3,12,-3,-5,-3,-2,-3,-4
1470262638683311,-3,-12,6,1,1,1,-4,0
1470262638684312,0,-6,-2,12,-4,0,-2,-3
1470262638684312,1,1,3,-7,-3,-6,-2,-1
1470262638696855,-5,3,-4,-9,2,0,3,-3
1470262638696855,-4,-9,-3,10,6,1,-1,-3
1470262638712350,-6,-12,-5,-1,2,2,2,0
1470262638712350,0,-1,-3,-3,-3,-5,-5,-6
1470262638720352,2,-6,3,-6,-15,-3,1,2
1470262638720352,-4,-2,-1,-17,-4,-2,-1,0
1470262638720845,-1,-4,-13,-16,-4,1,1,-1
1470262638720845,2,0,7,10,-1,-4,1,2
1470262638743439,-2,0,0,7,-2,-7,-2,-2
1470262638743439,3,2,5,9,19,19,8,3
1470262638743866,0,-1,3,9,6,-3,-3,0
1470262638743866,-2,-7,-4,-9,-5,1,0,-2
1470262638765886,0,0,4,8,1,3,0,-4
1470262638765886,0,2,-2,-11,-9,-11,-5,-4
1470262638766387,-2,-8,0,-1,1,-1,1,2
1470262638766387,1,-1,-6,-2,4,4,1,1
1470262638779899,-1,-1,0,-3,-4,-5,-5,-4
1470262638779899,0,-2,0,3,-10,-6,-2,1
1470262638780898,2,2,5,7,16,9,1,1
1470262638780898,1,1,2,-2,-1,-3,-3,0
1470262638803436,-3,-5,-12,0,-5,4,-1,1
1470262638803436,1,2,2,-8,12,-3,-1,-5
1470262638803949,0,-4,2,10,-11,-3,-2,-5
1470262638803949,1,0,2,6,4,2,1,0
1470262638817487,-1,-4,-2,-5,4,2,0,0
1470262638817487,-2,1,-6,1,-11,-4,-2,0
1470262638818432,-3,-1,1,-5,-11,-6,-4,-5
1470262638818432,-3,-5,-5,-17,-1,1,-1,-1
1470262638839952,-3,0,0,14,7,0,0,-2
1470262638839952,-2,-2,-3,-6,-19,-10,-3,-3
1470262638847514,1,1,1,-5,12,2,-3,1
1470262638847514,-1,-3,0,12,15,5,3,1
1470262638862975,-3,1,4,-5,-1,-1,0,-2
1470262638862975,2,1,-5,-18,-15,-6,-2,-3
1470262638863973,0,-4,-2,4,-31,-2,0,4
1470262638863973,0,0,-6,9,21,1,0,-2
1470262638876985,-2,0,2,1,16,2,-3,-4
1470262638876985,0,-1,0,2,5,2,-2,-1
1470262638884994,-4,-2,-5,-10,-14,-4,-2,-1
1470262638884994,-10,-4,-3,-8,-16,-3,-3,-4
1470262638908513,4,4,0,-11,-7,-4,1,1
1470262638908513,0,-9,0,1,-2,-2,0,1
1470262638909014,4,2,2,-9,11,1,1,0
1470262638909014,-1,1,6,23,-14,-2,-2,-5
1470262638923080,-4,-4,-8,8,0,2,0,0
1470262638923080,-1,0,0,6,21,1,1,1
1470262638924027,0,1,3,-25,8,0,-3,-2
1470262638924027,0,-2,5,33,13,4,1,4
1470262638937050,-1,-4,0,-5,-9,2,-2,-5
1470262638937050,-2,2,-3,-1,-21,-5,-4,-1
1470262638945073,-2,0,-2,-7,-12,-8,-3,0
1470262638945073,-2,0,-6,-29,-14,0,-3,-2
1470262638960102,-2,-2,0,1,7,2,1,0
1470262638960102,-2,-1,-1,8,-11,-2,-2,-7
1470262638960560,-2,-3,-3,13,31,3,2,2
1470262638960560,-2,-1,-7,-13,-12,0,-1,-2
1470262638990586,-1,0,2,-1,-9,-5,-3,-3
1470262638990586,-1,0,-1,1,12,0,-1,-1
1470262638991623,-5,-4,-1,-6,-10,-1,-1,-2
1470262638991623,-1,1,2,9,6,-3,-1,-4
1470262638997093,0,-1,0,-5,3,1,0,3
1470262638997093,-4,1,-2,-5,-5,0,0,-2
1470262639005162,-5,-4,-4,3,-5,-1,-3,-4
1470262639005162,-1,0,-1,-11,-5,-3,-3,-3
1470262639020157,-1,-4,-4,-3,-6,-2,0,2
1470262639020157,-4,1,0,2,3,0,-1,-2
1470262639020620,-1,2,0,1,-7,-5,-3,-7
1470262639020620,4,-2,3,-3,6,-1,0,4
1470262639043176,-5,-1,1,-4,-3,1,1,-2
1470262639043176,-4,-2,0,5,5,1,-1,-2
1470262639044135,-3,-3,-4,6,1,1,0,0
1470262639044135,-1,-1,-4,-11,-16,-7,-3,-2
1470262639057146,2,0,2,-16,-20,-5,-4,-5
1470262639057146,1,1,3,26,41,4,-2,2
1470262639072681,0,-1,0,-8,2,0,3,0
1470262639072681,0,1,-1,4,-3,0,1,1
1470262639080167,-3,-1,1,-3,-1,-1,-1,-4
1470262639080167,2,0,-2,-12,-16,-3,-2,0
1470262639081168,3,1,-2,4,-3,-3,-2,1
1470262639081168,-2,1,-1,-4,0,-1,-3,-2
1470262639103188,1,2,2,-2,0,-4,-1,2
1470262639103188,-4,-2,-9,-3,-5,3,2,-7
1470262639103689,1,0,2,5,4,0,0,2
1470262639103689,-1,-2,3,-10,-2,-2,-2,0
1470262639116701,0,-4,-2,18,7,3,-1,4
1470262639116701,3,2,3,-2,-1,-1,0,1
1470262639125208,0,1,-4,-5,-7,-4,-3,-3
1470262639125208,1,-5,-1,-5,-5,-1,2,7
1470262639140221,2,-1,-4,2,2,-1,-1,0
1470262639140221,2,3,-2,3,2,1,-3,1
1470262639140723,-2,-3,0,0,0,0,-1,4
1470262639140723,2,-2,0,4,-2,-1,-1,1
1470262639162810,-2,4,1,-2,2,-2,0,1
1470262639162810,0,-7,-4,-11,-10,-4,-2,-2
1470262639163242,0,-4,-5,-3,-4,-2,-2,4
1470262639163242,-2,-1,1,0,3,0,-2,1
1470262639185794,-1,-1,1,5,4,0,-3,-1
1470262639185794,2,-3,-3,-3,-3,0,1,6
1470262639186264,0,0,-3,1,-1,-2,-1,2
1470262639186264,-6,-3,-4,-5,-1,-2,0,-4
1470262639199777,1,-6,-7,-5,-1,1,0,3
1470262639199777,4,-2,4,-1,-3,1,-1,3
1470262639200778,6,1,1,2,0,-1,-2,0
1470262639200778,2,-5,-3,-1,-2,0,-1,3
1470262639222861,3,9,1,1,1,-1,-1,0
1470262639222861,-10,-6,-1,-1,1,0,-1,2
1470262639223296,-1,-10,-7,-3,-1,-1,0,-2
1470262639223296,4,-8,3,1,0,1,0,1
1470262639245888,5,24,4,5,1,-1,2,0
1470262639245888,1,0,-5,-3,0,-2,-1,0
1470262639246319,0,-3,5,3,-2,0,1,-1
1470262639246319,1,5,1,1,1,1,0,-2
1470262639260400,-4,-17,-5,-2,2,-2,-1,-2
1470262639260400,2,3,3,-2,-4,0,0,4
1470262639260829,-1,0,-2,3,2,2,0,-1
1470262639260829,2,4,-3,-3,-3,-2,-2,-1
1470262639283350,-1,-12,-1,0,-1,-1,0,0
1470262639283350,2,-1,0,-3,-2,-1,0,-1
1470262639283850,-3,0,4,-2,-2,1,-1,-1
1470262639283850,-7,-4,-1,-1,-1,0,-2,-3
1470262639306386,1,-2,-2,2,1,1,0,2
1470262639306386,-2,2,6,2,-1,-1,-4,-4
1470262639306872,-2,0,3,-3,-1,-2,-2,-2
1470262639306872,0,7,1,0,-1,-2,-2,0
1470262639319902,-2,-10,-3,-4,-3,-2,-1,-1
1470262639319902,2,3,-2,-3,-4,-2,0,-2
1470262639320884,-1,-2,2,-3,-3,-2,-1,-3
1470262639320884,-1,3,-1,-1,-1,0,-1,-1
1470262639343403,-1,-2,-5,-5,0,-2,-1,-3
1470262639343403,-2,-4,-4,-4,-3,-3,0,-2
1470262639343906,-3,1,-1,0,0,0,-1,1
1470262639343906,-4,-10,-5,-3,1,0,1,-2
1470262639365924,-3,0,-1,0,-3,-3,-2,-1
1470262639365924,1,15,9,-3,0,1,0,0
1470262639366425,-6,-3,3,5,3,0,0,-6
1470262639366425,2,-4,-1,-1,-4,0,-1,0
1470262639388445,-3,-4,2,-3,-1,-2,-2,-3
1470262639388445,-4,-1,1,4,0,-1,-2,1
1470262639388947,-7,4,1,-2,-3,-2,-1,-2
1470262639388947,0,-1,-13,-4,-2,-1,-3,-2
1470262639403457,1,-3,1,-5,0,-1,1,1
1470262639403457,-1,-7,-3,-5,-3,0,0,-1
1470262639403959,5,-27,-2,-1,-1,-1,1,1
1470262639403959,-2,22,1,4,1,0,-1,-4
1470262639433485,-1,12,3,-5,-2,1,-2,0
1470262639433485,-1,-4,1,0,0,-1,-1,-4
1470262639434486,0,-10,-7,-11,-6,-3,-3,2
1470262639434486,-4,-20,-12,3,1,0,-1,3
1470262639440497,-2,2,1,0,-1,0,-3,-2
1470262639440497,-1,-2,-2,-5,-1,-3,-1,-3
1470262639442592,4,9,-1,-2,-1,1,0,5
1470262639442592,-4,-8,-5,-7,-3,-3,-1,-2
1470262639463020,-2,3,7,-11,-5,-1,-1,-1
1470262639463020,-7,-3,10,23,7,4,0,-2
1470262639464012,-1,3,-11,-1,-2,0,-2,-5
1470262639464012,-1,1,3,-1,-2,-2,-1,-1
1470262639485534,1,-9,-4,3,0,-2,1,-1
1470262639485534,0,0,2,-6,-3,-2,-1,3
1470262639486532,3,10,5,1,-1,2,0,2
1470262639486532,1,11,-3,-1,0,-1,-2,-2
1470262639500077,-2,-9,9,5,-2,2,-1,2
1470262639500077,-2,-8,-29,-14,-5,-4,-2,0
1470262639500557,2,10,6,9,0,-2,-1,0
1470262639500557,-8,3,3,-2,0,0,-1,-2
1470262639523075,-2,-5,-6,-7,-1,-2,1,-1
1470262639523075,3,-2,-1,6,-1,-2,-1,-4
1470262639524066,-2,1,3,-9,-2,-3,-3,-3
1470262639524066,-7,-1,-5,2,-2,-2,1,-3
1470262639545586,0,7,-3,0,-3,-1,-3,0
1470262639545586,2,-6,-10,-12,-1,-1,0,-2
1470262639546586,-1,3,-4,20,4,1,0,0
1470262639546586,-1,-3,39,6,0,-1,-1,2
1470262639560098,-1,-6,-26,-6,-1,-3,-2,-3
1470262639560098,-2,10,13,12,-1,-3,-2,4
1470262639560599,3,-12,-16,-14,-3,-3,-2,-9
1470262639560599,-4,-11,4,5,1,1,-2,-1
1470262639582618,-2,6,-7,0,-1,0,0,-1
1470262639582618,3,-4,7,-7,-3,0,-1,4
1470262639583119,0,-1,-7,-6,-2,-2,-1,3
1470262639583119,2,5,0,3,2,0,2,-2
1470262639605639,3,-9,0,-1,1,0,-3,-1
1470262639605639,-5,-5,-10,1,2,0,0,-1
1470262639606640,-5,1,0,-3,-1,-1,-1,-3
1470262639606640,8,2,-10,-8,-4,-2,-2,2
1470262639628174,0,9,16,7,0,0,1,2
1470262639628174,-6,6,-11,-10,-3,-3,-3,-6
1470262639629161,-5,-5,4,9,2,0,0,1
1470262639629161,4,-6,-11,-1,-1,-2,-2,-2
1470262639643199,-7,-6,8,-6,-3,-1,-2,-4
1470262639643199,-2,0,12,5,-3,-2,-1,0
1470262639644174,-1,3,-20,-4,0,0,1,-1
1470262639644174,-9,-10,-11,-2,0,-1,-1,-5
1470262639665706,0,3,1,3,-1,-2,0,-2
1470262639665706,5,-9,3,-5,-2,0,0,2
1470262639666694,2,6,4,-1,-1,-4,-1,-2
1470262639666694,3,1,-3,-1,-2,-1,-2,-1
1470262639680206,-3,-4,-5,-2,-1,-1,-2,-3
1470262639680206,2,1,4,-3,-2,1,2,0
1470262639680707,-10,-5,0,-1,0,-4,0,0
1470262639680707,2,2,5,-6,-1,1,0,-1
1470262639702726,-3,-5,-4,6,3,-1,-2,-1
1470262639702726,-4,1,-11,0,1,-1,-3,-2
1470262639703227,-1,-2,1,-6,-2,-2,-1,-1
1470262639703227,-1,-2,-3,-6,-2,-2,-1,0
1470262639725778,2,-3,1,-2,-2,-1,0,-1
1470262639725778,-1,-5,-4,0,-1,-2,-3,-1
1470262639726248,2,0,0,-1,-2,0,0,1
1470262639726248,-2,-3,4,-1,-1,-1,-1,0
1470262639740260,-5,14,-8,-1,-1,-2,1,-1
1470262639740260,-7,-6,-14,0,3,2,0,-8
1470262639740761,-1,3,27,9,-4,-1,-2,0
1470262639740761,3,-11,-13,-4,-2,-3,0,0
1470262639762342,-4,0,7,0,-3,-3,-1,2
1470262639762342,2,-4,-3,0,-4,-1,-1,2
1470262639763281,-4,2,-4,-9,-2,-2,-4,-4
1470262639763281,-2,0,-4,8,2,0,0,-2
1470262639785801,-2,-8,0,-5,-3,-3,-3,-2
1470262639785801,-6,7,8,-7,-3,-3,-1,-2
1470262639786302,-7,-7,-8,-2,1,-1,-2,-5
1470262639786302,1,-4,-7,-3,-2,-2,-1,2
1470262639799814,3,1,-11,-3,-1,-1,0,-2
1470262639799814,4,5,18,5,0,0,0,1
1470262639800815,6,1,-3,4,1,0,-1,2
1470262639800815,-6,3,-1,-8,-3,-1,1,0
1470262639822838,-11,-4,-4,1,2,3,0,-5
1470262639822838,2,2,-4,-2,-2,-2,-3,-2
1470262639823335,2,-10,-1,1,-2,1,-1,1
1470262639823335,-4,9,9,7,1,-1,-3,-3
1470262639853381,6,-4,-8,-6,-2,0,0,3
1470262639853381,-3,-7,-3,2,-2,-3,-1,0
1470262639853862,-1,1,-2,-7,0,-1,1,-2
1470262639853862,2,6,-1,-4,-4,-3,-3,-2
1470262639859397,-2,-1,-2,3,-1,-2,-2,-1
1470262639859397,-2,-6,-1,-3,0,-1,0,-3
1470262639867874,-5,-6,-1,0,-3,-2,-2,-2
1470262639867874,-1,-1,-2,-7,-3,-2,0,0
1470262639882388,3,4,-3,-1,-1,0,0,-3
1470262639882388,2,-2,6,-17,-5,-5,-3,0
1470262639883389,-6,-6,-8,22,4,1,-2,0
1470262639883389,-5,5,-15,-7,-2,-2,-3,-2
1470262639905928,2,-7,9,-5,-3,-2,-3,-4
1470262639905928,-1,-4,-21,-5,0,0,0,-2
1470262639906411,2,12,10,-6,-1,-2,0,1
1470262639906411,-1,-5,12,2,0,-1,0,-2
1470262639919448,-1,1,-5,-2,-3,-4,-2,0
1470262639919448,3,-3,-5,0,0,-2,-1,-2
1470262639927453,-7,-6,-3,1,1,-1,-1,-1
1470262639927453,3,1,4,-5,0,-1,-1,-3
1470262639942972,0,-6,-2,6,3,2,-1,0
1470262639942972,3,2,3,19,1,1,0,4
1470262639943943,-2,5,7,-6,-4,-3,-1,-4
1470262639943943,0,0,1,-9,-3,-2,-1,1
1470262639965962,2,-4,11,8,0,0,2,2
1470262639965962,-6,-4,-11,-3,-1,-1,-1,-3
1470262639966463,-2,-3,-16,-11,-4,0,-2,-3
1470262639966463,2,-4,8,6,1,1,-1,0
1470262639988485,4,4,2,-5,0,-1,-1,0
1470262639988485,1,2,6,5,1,-2,-1,-2
1470262639989985,3,-1,-3,-4,-1,-2,1,-3
1470262639989985,-2,-6,-10,-7,-5,-2,-2,3
1470262640001994,-1,-4,18,16,4,0,0,1
1470262640001994,1,10,7,-14,-3,0,-1,0
1470262640011003,1,-8,-36,0,-4,-2,-5,-2
1470262640011003,3,-9,9,5,2,-1,-1,0
1470262640026127,-7,0,-14,-4,-2,-1,-1,-4
1470262640026127,4,0,-3,-10,-1,0,1,-2
1470262640027541,4,5,31,10,4,2,0,1
1470262640027541,3,-5,-32,-9,-3,-3,-3,0
1470262640039528,-6,9,10,-5,1,2,0,-4
1470262640039528,-4,-8,8,10,-3,-2,-2,2
1470262640048537,-7,0,-7,-5,-1,0,0,-2
1470262640048537,0,-4,4,4,-2,-2,0,-2
1470262640062050,1,-7,-20,-9,-1,0,0,1
1470262640062050,-3,7,8,3,0,-2,-1,0
1470262640071057,1,2,12,0,-3,-2,0,2
1470262640071057,-6,-3,-11,-11,-2,-2,-2,0
1470262640085629,-2,-1,3,15,2,0,0,-2
1470262640085629,2,-1,-7,-3,1,-2,-1,-3
1470262640087591,0,-4,-1,-5,-3,-2,0,0
1470262640087591,-7,1,4,3,1,0,0,-3
1470262640099582,2,-2,-6,-10,-3,-2,-1,-1
1470262640099582,-2,-5,-6,2,-1,0,-2,-2
1470262640108136,-3,1,-2,-7,-1,-2,-1,-1
1470262640108136,-1,-6,11,9,2,0,-2,-2
1470262640122103,11,9,15,-1,-4,0,0,4
1470262640122103,-10,-3,-22,0,-2,0,0,-2
1470262640130610,-1,-3,7,-7,-1,-1,-2,-3
1470262640130610,2,4,-7,11,2,2,-1,-4
1470262640145668,3,-11,-5,-7,-4,-5,-2,2
1470262640145668,3,5,2,-3,0,0,1,0
1470262640147126,3,1,-7,-2,-2,-1,-2,1
1470262640147126,-6,-5,-1,-4,-2,0,-1,-3
1470262640168200,1,0,-1,-3,-2,-2,0,0
1470262640168200,-1,-14,-7,-1,-3,-3,-1,-4
1470262640169648,-2,1,-9,-4,-2,0,-2,0
1470262640169648,-2,4,11,4,-1,-1,-1,-2
1470262640182157,-3,1,-16,-7,-1,-2,-1,0
1470262640182157,-2,-1,25,6,1,-1,-2,-1
1470262640191167,0,1,-3,-5,0,-2,-1,0
1470262640191167,-2,-2,0,9,0,0,-2,-1
1470262640205711,-1,-2,-9,2,0,1,0,0
1470262640205711,-7,-3,3,-1,-1,0,1,-3
1470262640207679,-1,2,3,7,0,0,-1,0
1470262640207679,-3,2,2,0,-2,-2,-2,-4
1470262640228231,0,2,-1,-3,-1,-1,0,-1
1470262640228231,4,0,-9,-5,-3,-2,-2,-1
1470262640229700,0,-2,1,-4,-2,-1,2,3
1470262640229700,-5,-2,-3,-4,-1,-1,-1,-5
1470262640242797,-11,-6,-6,-5,-3,-1,-2,-4
1470262640242797,4,5,-1,-3,0,-1,-2,4
1470262640249217,-3,-1,4,-2,-2,-3,-2,-4
1470262640249217,-1,-3,5,6,0,0,0,2
1470262640265735,-2,1,-18,-14,-2,-1,-2,-2
1470262640265735,-4,-2,27,31,0,1,2,1
1470262640267233,0,0,-14,-8,-4,-2,-1,-4
1470262640267233,3,3,10,0,-2,-1,1,0
1470262640288259,1,-10,-2,-5,-3,-2,-2,-4
1470262640288259,-4,-2,-30,-8,-3,-1,-4,-3
1470262640289754,1,-9,4,-5,-4,-3,-2,-1
1470262640289754,9,6,-5,-1,-2,-1,-1,2
1470262640302767,-10,-9,11,1,-2,-1,-1,-6
1470262640302767,2,1,-10,-5,-2,-1,-2,-1
1470262640309271,2,3,5,7,1,-3,0,-1
1470262640309271,2,-1,-7,-8,-1,-1,-1,-1
1470262640325815,-1,-6,-2,3,-3,-3,-4,-2
1470262640325815,3,1,1,-7,0,-2,1,0
1470262640327290,-3,0,-7,0,-1,2,-3,-1
1470262640327290,1,4,14,7,-1,-1,1,1
1470262640348343,-5,-4,9,-2,-1,0,-3,-2
1470262640348343,-1,-5,-21,-11,-1,-2,1,-2
1470262640349807,-3,-3,8,1,-1,-2,0,-1
1470262640349807,-3,-2,-4,-7,-3,-3,-1,0
1470262640362374,-4,1,5,5,2,0,-1,-2
1470262640362374,-2,-5,0,-5,-2,-1,-2,-3
1470262640369380,-2,-3,-7,-1,0,1,1,1
1470262640369380,-2,2,-2,-7,-3,1,-1,1
1470262640385900,-2,5,-1,6,-1,-2,0,4
1470262640385900,7,-1,5,-6,-2,-1,-1,0
1470262640387343,0,-2,-8,0,0,0,-3,-2
1470262640387343,-2,0,2,1,0,-2,-3,-2
1470262640408363,0,5,-6,-5,-1,0,0,-2
1470262640408363,-5,-2,-3,3,0,0,-1,-4
1470262640409862,1,7,8,8,1,1,0,-1
1470262640409862,3,-5,-15,-1,-1,-2,0,0
1470262640422375,-1,-1,5,3,1,-1,-1,-1
1470262640422375,-3,4,13,0,-3,-3,-1,-3
1470262640429379,-4,-9,-4,3,2,-1,-2,0
1470262640429379,-1,-1,-11,-1,-1,-1,-2,-3
1470262640446394,1,2,3,-3,-3,1,0,-2
1470262640446394,-5,-5,-3,-2,-2,-2,-2,0
1470262640448897,-1,-5,4,-7,-1,-2,1,-1
1470262640448897,4,5,-1,5,1,-1,1,-1
1470262640468414,-1,-4,-2,2,0,-1,-1,-2
1470262640468414,2,-2,-2,-2,-1,0,-2,1
1470262640469917,0,-4,0,-1,-1,0,0,2
1470262640469917,-7,6,1,-7,-2,-4,-3,-4
1470262640482426,-6,-8,-5,-3,-3,-1,2,0
1470262640482426,-6,-2,-2,0,0,-1,1,-5
1470262640496970,-2,-4,-5,-1,0,1,-2,-2
1470262640496970,0,-3,-2,-5,-1,1,0,1
1470262640505948,1,3,-4,2,-5,-2,-2,-2
1470262640505948,-2,-1,-3,-4,3,-2,-1,1
1470262640507465,0,-5,-4,5,-3,-1,0,-2
1470262640507465,-10,7,0,-7,-4,-2,-3,-5
1470262640528468,7,2,2,4,0,-2,-1,0
1470262640528468,1,-1,-7,-8,-6,-1,-1,-2
1470262640530025,-1,1,14,1,-1,-3,-1,1
1470262640530025,-1,-7,-19,3,1,0,-1,1
1470262640542536,5,4,11,7,0,-3,0,0
1470262640542536,-7,-3,-6,1,1,0,-2,-1
1470262640549540,2,3,-1,-8,-2,1,0,-2
1470262640549540,-5,-8,8,-4,-2,-3,-1,-1
1470262640566005,3,-1,-12,-1,0,1,-1,-1
1470262640566005,0,3,1,1,0,-1,0,-1
1470262640567538,0,2,-3,0,-1,0,-1,-1
1470262640567538,-8,2,5,1,-2,-1,-2,-3
1470262640588627,1,-6,-10,-9,-2,0,-1,1
1470262640588627,0,8,8,0,-2,-1,-1,1
1470262640590023,-3,-10,-5,-1,-4,-3,-2,-5
1470262640590023,4,5,9,0,1,-1,0,1
1470262640602565,-14,-7,-5,9,3,0,1,-3
1470262640602565,1,-1,-1,-1,-2,-1,-1,3
1470262640609552,-2,-2,-3,-3,-1,-1,-1,-1
1470262640609552,5,-2,-6,-2,-1,0,1,0
1470262640626056,-3,-1,4,-1,0,-1,-2,-2
1470262640626056,-2,-9,-1,-1,-2,-1,0,-1
1470262640627057,3,9,-2,-3,0,-1,-1,1
1470262640627057,1,-7,-3,-4,-2,-1,1,-1
1470262640648075,0,-1,4,6,-3,-3,-3,1
1470262640648075,1,-4,-2,-2,-3,0,0,-2
1470262640650078,1,-2,2,-3,-2,-2,-1,1
1470262640650078,-9,-12,-20,-5,0,-1,0,-3
1470262640662088,1,16,19,-6,-2,-2,-3,-1
1470262640662088,2,-2,-2,2,0,-1,0,-2
1470262640670595,2,-3,-6,-1,-1,-1,-2,-1
1470262640670595,-1,-2,7,6,3,-1,-1,2
1470262640685609,2,-3,-13,-15,-3,-2,0,1
1470262640685609,-1,-1,7,20,3,0,-1,2
1470262640687110,-2,8,-2,-8,-2,-2,-2,-4
1470262640687110,6,0,3,5,-1,1,0,-3
1470262640708143,-3,-9,-13,-9,0,-1,-3,-2
1470262640708143,-4,4,9,-3,-1,0,0,-3
1470262640709631,-1,-2,-12,-6,-4,-2,-1,0
1470262640709631,-2,3,6,7,0,0,-2,0
1470262640721642,2,5,-3,-7,-3,-2,-1,0
1470262640721642,2,-5,6,-2,-1,-2,-2,1
1470262640730671,-3,-4,-12,3,2,0,1,0
1470262640730671,1,-4,-3,-3,-1,-2,-3,-2
1470262640745747,-4,2,-2,3,0,1,0,-3
1470262640745747,3,4,4,-6,0,-3,-2,-1
1470262640747165,-6,-3,-2,1,-2,-1,-3,-5
1470262640747165,0,8,-1,-6,-2,-3,-1,-3
1470262640768183,-2,-6,0,-1,0,0,0,2
1470262640768183,-3,-3,-1,0,-1,-2,-1,-1
1470262640774689,1,4,-3,-4,-3,-4,-1,-2
1470262640774689,-6,-14,-4,-2,-1,-1,-2,-2
1470262640781696,0,3,-5,-3,1,-2,-2,-3
1470262640781696,0,2,-18,-5,-2,0,0,-1
1470262640790715,-5,-6,17,4,1,0,-1,1
1470262640790715,0,2,-4,-5,-3,0,-2,-1
1470262640805772,0,1,6,5,0,1,0,1
1470262640805772,0,-9,-4,-7,-4,-2,-3,-1
1470262640807218,0,4,5,3,0,-2,-1,-1
1470262640807218,3,6,-1,-5,-2,-4,-1,1
1470262640828285,1,-7,-2,2,0,0,-2,-2
1470262640828285,-3,3,-5,-3,-3,-2,1,-1
1470262640829738,-3,-4,-13,-7,0,0,0,-1
1470262640829738,0,-5,18,8,0,1,0,-3
1470262640842256,-4,-6,-5,-3,0,-1,-2,-1
1470262640842256,1,2,-3,-1,-2,-4,-4,1
1470262640850758,-3,6,5,1,0,0,-2,-2
1470262640850758,0,-1,-8,-5,-3,-2,-1,2
1470262640865771,-5,-10,-8,-1,-2,-1,-1,-2
1470262640865771,2,4,-4,-2,-1,-2,-2,0
1470262640867272,-8,-2,12,0,-1,-2,-2,-3
1470262640867272,1,-4,-17,-1,2,-2,-1,-3
1470262640888307,0,2,-3,-3,-2,-1,0,0
1470262640888307,-5,-2,6,0,0,0,0,-5
1470262640889792,2,-3,-7,-3,-4,-4,-1,1
1470262640889792,-5,8,0,-3,-4,0,-1,-2
1470262640901805,-3,-9,-2,-11,-3,-2,0,0
1470262640901805,-2,-2,14,29,4,0,0,-3
1470262640910812,0,-1,-6,-6,-4,-2,-2,-2
1470262640910812,-1,-6,3,-3,-2,1,0,0
1470262640925356,0,-4,-2,2,-2,-2,0,1
1470262640925356,-14,0,-10,-9,-1,-1,-1,-1
1470262640931833,-7,-1,11,5,2,2,1,-4
1470262640931833,4,6,-10,0,-1,-1,0,-1
1470262640948359,3,-3,11,11,1,-1,-3,0
1470262640948359,2,-2,2,-3,0,-1,-2,-1
1470262640949847,4,5,-13,-12,-4,-2,0,0
1470262640949847,1,-5,4,3,-1,-3,1,2
1470262640961857,2,3,3,-1,0,1,0,0
1470262640961857,-1,-5,-9,1,1,-1,-2,-1
1470262640970866,6,0,-8,-2,-1,-2,-2,3
1470262640970866,1,2,8,2,-1,-2,-1,1
1470262640985878,-1,1,-2,3,-2,-1,-1,-1
1470262640985878,6,1,-7,-8,-4,-2,-1,1
1470262640987379,-6,-2,-3,2,1,0,-1,-3
1470262640987379,2,-6,1,1,-2,-1,-2,-1
1470262641015905,-6,1,-2,-2,-2,0,0,0
1470262641015905,-3,7,0,-12,-2,-1,-3,-8
1470262641017469,4,-6,5,8,-1,0,-1,4
1470262641017469,-1,-1,-4,2,1,-1,-1,1
1470262641021961,5,6,18,1,-4,-2,-4,-3
1470262641021961,-5,-5,-10,-7,-4,-3,0,1
1470262641030919,0,-5,-4,2,-1,-3,-1,-1
1470262641030919,-4,0,4,-9,-2,2,3,1
1470262641044998,1,6,-4,-2,16,0,0,-1
1470262641044998,0,-4,0,9,-8,2,0,0
1470262641053440,0,-1,-6,1,6,2,0,0
1470262641053440,-7,-3,7,-5,11,3,-1,-5
1470262641068455,-3,-4,-12,6,-13,-2,0,1
1470262641068455,7,9,3,-11,-3,-3,-4,0
1470262641069954,-12,-3,0,-5,-11,-2,0,-9
1470262641069954,6,2,-9,-4,-5,-2,-1,3
1470262641081966,-9,-8,-8,-8,5,-1,-2,-6
1470262641081966,5,-5,3,4,-2,0,-1,3
1470262641090973,4,-7,-1,0,-1,0,1,4
1470262641090973,-2,-4,0,-2,-3,-1,-1,-4
1470262641104986,-14,-6,1,1,0,0,2,-3
1470262641104986,8,4,-5,-1,-1,-1,-1,0
1470262641112027,-1,-2,7,2,4,-1,0,2
1470262641112027,-2,-12,-3,0,-3,-4,-3,-4
1470262641128507,7,11,0,-1,-7,-2,0,3
1470262641128507,-6,-14,-4,-6,1,1,0,-1
1470262641130008,-1,0,2,-2,-2,0,-1,1
1470262641130008,-3,3,-4,1,-4,-3,-1,-1
1470262641151123,-1,-9,-9,-4,-2,0,1,3
1470262641151123,3,1,8,1,1,-1,-1,1
1470262641152533,-6,-16,-2,-1,-1,-2,-3,-5
1470262641152533,7,29,5,-2,-4,-2,-3,-4
1470262641165043,9,-2,-4,-1,-1,-1,-3,-1
1470262641165043,-11,-1,2,-2,1,0,1,-4
1470262641172075,8,3,-3,6,1,0,1,4
1470262641172075,-18,-11,-6,-7,-2,1,-3,-4
1470262641188561,4,6,10,3,-2,-2,-2,-1
1470262641188561,7,13,2,-3,-4,-5,-3,-4
1470262641190062,-6,-2,-5,3,2,-1,-1,0
1470262641190062,0,-2,-2,-3,0,1,2,-1
1470262641210636,1,5,-1,-2,-2,-3,-1,-1
1470262641210636,-7,-8,-5,-1,-1,0,-1,-3
1470262641212583,2,5,1,-6,-2,-4,-2,-3
1470262641212583,3,-6,-1,4,2,1,1,-1
1470262641224656,-12,-7,-3,-4,-2,-3,-1,-2
1470262641224656,3,3,-1,-1,1,0,2,2
1470262641233600,-5,-3,-2,-3,0,0,-2,-6
1470262641233600,-4,-3,2,1,-1,-1,-2,2
1470262641248114,3,6,-3,0,-2,1,0,0
1470262641248114,-4,-5,1,-1,0,1,0,1
1470262641250116,-1,4,-6,-3,-2,-1,-1,-2
1470262641250116,-3,-3,10,2,-2,-1,0,-3
1470262641270656,3,1,-5,-2,-1,-2,-1,1
1470262641270656,-7,-7,-7,1,0,-2,-1,-1
1470262641272636,4,5,2,-2,-3,0,-4,-4
1470262641272636,-1,-8,-5,-4,-1,-2,-1,1
1470262641284648,-1,1,1,1,-1,-1,-1,-2
1470262641284648,2,3,-1,-1,-2,1,-2,-1
1470262641293655,-6,-1,0,-2,-2,1,1,-1
1470262641293655,-4,-3,-7,-2,-4,-4,-4,-3
1470262641308169,1,2,8,-2,0,-2,0,3
1470262641308169,1,0,-2,0,0,-3,0,4
1470262641309671,2,-1,-3,-2,-1,0,-2,-1
1470262641309671,16,14,1,-1,-1,-2,0,3
1470262641330688,-9,-5,0,-1,0,1,1,-3
1470262641330688,-3,-6,-3,-3,-4,-2,-1,-2
1470262641332690,-2,4,3,-3,-1,0,0,2
1470262641332690,-1,-5,-1,1,0,-3,0,-1
1470262641344702,2,-4,-3,0,-1,-1,-3,1
1470262641344702,-2,-1,-2,0,2,1,1,-8
1470262641354711,-1,-3,0,0,-3,-2,-2,1
1470262641354711,-4,-6,-4,1,-1,1,1,0
1470262641368224,10,5,-2,-2,0,1,-1,2
1470262641368224,-12,-3,4,1,1,2,0,-6
1470262641369723,-3,-6,-1,0,0,-2,-2,0
1470262641369723,0,-1,-3,-2,-2,0,0,0
1470262641390756,6,-4,-5,-3,0,-2,0,2
1470262641390756,6,7,0,1,0,-1,-3,2
1470262641392249,3,3,-3,-2,-2,-3,0,3
1470262641392249,-6,-5,-2,-3,-3,-3,0,2
1470262641404267,-1,-4,2,1,-1,0,-2,-1
1470262641404267,6,-9,-3,-2,-3,-2,2,9
1470262641413262,7,0,1,2,0,0,0,3
1470262641413262,-3,-13,-6,-3,1,1,-1,0
1470262641428291,0,-4,0,-3,-3,-1,-1,-3
1470262641428291,0,-3,0,-1,0,-1,1,3
1470262641429777,0,-5,-1,-1,-2,-3,-1,-2
1470262641429777,4,-1,3,-1,0,-1,-1,6
1470262641450797,-3,1,-3,-3,-2,-1,-2,0
1470262641450797,-1,-7,0,0,0,0,-1,1
1470262641452297,0,-6,-5,-3,0,0,-1,2
1470262641452297,-9,-2,-2,1,-2,1,-3,-1
1470262641464324,5,-2,-3,-3,-3,-1,-1,2
1470262641464324,-3,1,2,2,-1,1,-1,0
1470262641473318,-2,-3,-4,3,1,2,-2,-2
1470262641473318,4,-3,-7,2,0,0,-1,1
1470262641488387,-3,6,3,-3,-2,-3,1,0
1470262641488387,6,-6,-2,-2,-1,-3,-2,1
1470262641489855,2,10,2,-2,0,1,0,1
1470262641489855,0,0,-2,-1,-1,0,-1,-2
1470262641510854,-4,-5,-1,2,1,0,1,-2
1470262641510854,2,-3,-3,1,-1,0,1,-1
1470262641512352,1,-1,0,-3,-2,-2,-2,1
1470262641512352,1,1,0,-1,-2,-1,-1,0
1470262641524379,-1,2,-2,-2,-1,1,0,-2
1470262641524379,-1,-4,1,-2,-1,-1,0,0
1470262641533372,-4,14,1,-1,-3,-2,0,-1
1470262641533372,1,6,4,2,0,0,-2,-7
1470262641548384,1,-3,-6,-1,-3,-3,-2,1
1470262641548384,-4,1,-2,0,-1,0,-2,-5
1470262641549886,-2,-13,-3,1,-1,-1,0,-3
1470262641549886,3,-3,-1,-2,-2,-2,0,2
1470262641570903,0,-1,0,0,0,2,0,-2
1470262641570903,0,4,-3,-2,-1,-1,-2,0
1470262641572405,3,-4,5,-3,-4,-2,0,-1
1470262641572405,-3,6,1,-2,-3,0,1,-3
1470262641584440,1,-6,1,-3,-1,-2,0,0
1470262641584440,0,-2,-3,0,-1,-2,-1,3
1470262641593424,-3,-16,-5,0,0,1,-1,0
1470262641593424,-9,5,0,-2,-1,-2,-1,-4
1470262641608438,-6,-5,0,2,1,0,-4,-2
1470262641608438,1,0,0,-2,0,-2,-1,-4
1470262641609999,-1,-6,-4,-1,-1,-1,-1,-2
1470262641609999,0,-6,-3,-1,-2,-1,0,3
1470262641630957,-11,6,-6,-3,-2,-1,0,-5
1470262641630957,-4,2,6,-1,-3,-1,-1,-2
1470262641632460,-10,2,0,-2,-2,-1,0,-4
1470262641632460,0,-8,-2,-1,0,-1,0,0
1470262641644499,0,-3,1,-3,0,-1,0,3
1470262641644499,-3,-5,-3,-1,-1,0,-1,-3
1470262641653479,0,0,-1,-2,-2,-2,-2,-2
1470262641653479,1,1,-2,-2,-1,1,0,1
1470262641668491,-1,-10,-1,1,-1,-2,-2,-2
1470262641668491,-5,7,-2,-1,0,-1,-3,-4
1470262641669994,4,-5,2,-2,-2,-2,-1,0
1470262641669994,3,13,-2,0,-1,0,-1,2
1470262641691011,-1,-5,1,-1,1,0,0,-2
1470262641691011,6,5,-1,-1,-2,-4,-1,3
1470262641692545,-12,3,0,2,2,2,-3,-3
1470262641692545,3,-1,-3,-3,-2,-3,-1,0
1470262641704523,-1,-7,-4,0,0,1,0,0
1470262641704523,1,9,7,-2,-2,-1,-1,3
1470262641713532,-1,-2,-4,-1,-3,-2,0,0
1470262641713532,2,4,5,0,-2,-3,-1,-2
1470262641728045,-6,-6,-7,2,0,-2,-2,-2
1470262641728045,-4,-14,-10,-1,-1,1,0,0
1470262641729547,5,7,3,-2,0,-2,-1,2
1470262641729547,-7,-6,1,-1,0,-1,-1,-4
1470262641750580,4,0,-4,1,-1,-2,0,2
1470262641750580,0,-2,0,1,-3,0,-1,-2
1470262641752567,-2,-1,-3,1,-1,0,-1,0
1470262641752567,0,-5,-3,-1,-1,0,-1,1
1470262641764577,-1,2,1,-1,-2,-1,-1,-3
1470262641764577,0,-1,-4,-1,1,0,-1,-2
1470262641773588,3,6,2,-1,-1,0,-2,0
1470262641773588,-4,-3,2,-1,-1,-1,-1,-1
1470262641787098,0,3,2,0,-1,-1,0,-1
1470262641787098,-4,-7,-3,0,-1,-2,0,0
1470262641795606,2,-4,-11,-1,-1,0,-1,-2
1470262641795606,-1,-1,1,1,0,-2,-1,0
1470262641810620,-1,3,-1,-1,0,0,-2,0
1470262641810620,0,-6,-4,-2,0,-1,0,3
1470262641812120,0,3,4,-1,-2,-1,0,-1
1470262641812120,0,1,0,-2,-1,-2,-2,-3
1470262641824631,1,-2,-3,0,-2,-2,0,1
1470262641824631,-3,1,-1,-1,0,-2,-1,-2
1470262641833639,1,-2,-2,0,0,-3,-2,0
1470262641833639,-2,-4,-2,-1,-1,0,-1,-2
1470262641847653,0,0,1,-3,-3,-2,0,-2
1470262641847653,0,0,-3,-2,-2,-1,-2,-2
1470262641854159,-2,-3,-1,0,-2,-1,0,0
1470262641854159,0,-1,-1,-1,-1,-2,-2,-1
1470262641870708,-3,3,2,-1,-3,-1,-2,-4
1470262641870708,2,-2,-1,0,-1,-1,0,-1
1470262641872697,-2,0,-1,-2,-3,-2,0,1
1470262641872697,-2,-6,-6,-1,3,-1,1,-1
1470262641884740,-2,4,5,3,1,-1,-2,0
1470262641884740,-2,-4,-6,0,-3,-3,0,0
1470262641893195,0,-1,3,-1,1,1,0,0
1470262641893195,2,8,5,0,-2,-1,-1,-3
1470262641907796,-2,-3,-1,-3,-1,1,-1,0
1470262641907796,-1,-5,1,-1,-2,-2,-1,0
1470262641914712,1,-7,-14,-6,-6,-2,0,-1
1470262641914712,2,-2,-3,3,2,-1,0,1
1470262641930755,-1,2,3,0,1,1,0,-2
1470262641930755,-2,0,3,0,0,0,-2,-5
1470262641932229,-2,0,-2,-1,0,-1,-1,-2
1470262641932229,-1,-6,-4,-2,-4,-2,-1,0
1470262641944750,1,-2,-4,-3,-2,-3,-2,0
1470262641944750,-1,1,3,1,0,-1,0,0
1470262641953749,-2,-1,2,0,0,0,-3,-4
1470262641953749,-7,-3,-3,-2,-2,-1,-3,2
1470262641967761,0,-4,-1,2,-1,-3,-1,-1
1470262641967761,-2,2,-3,-3,-2,1,-1,-1
1470262641974266,0,1,2,2,2,-1,1,-2
1470262641974266,-1,-4,-2,0,-1,-2,0,0
1470262641990780,-2,-2,-3,-3,-3,-2,0,-3
1470262641990780,-1,-5,-2,-2,-2,-2,0,1
1470262641992281,0,1,5,0,0,-3,0,-1
1470262641992281,-2,2,1,-1,-1,-2,-2,0
1470262642004292,1,0,-4,-4,-2,-2,-3,0
1470262642004292,1,2,5,-1,-1,0,0,1
1470262642013301,0,0,-5,5,-2,-1,-2,-1
1470262642013301,-4,-7,-12,0,3,0,-2,-1
1470262642027814,0,9,12,-1,-4,-1,-1,1
1470262642027814,-1,-5,6,-1,-3,-3,-2,-2
1470262642041860,0,-6,-18,-9,-3,-2,-2,1
1470262642041860,1,-5,0,8,4,0,2,-2
1470262642050892,-3,0,-5,-1,-1,0,-1,-1
1470262642050892,-2,1,2,-4,-1,0,-3,-2
1470262642052336,-1,1,8,0,-3,0,-1,-3
1470262642052336,-1,-1,-5,-4,-1,-1,1,1
1470262642073855,-2,-4,2,-2,-3,-3,-1,-1
1470262642073855,-2,-1,-6,-1,-5,-2,0,1
1470262642075357,-1,-3,2,-1,2,0,-3,-1
1470262642075357,-1,-4,0,-2,-1,-1,-2,-3
1470262642087981,-1,0,2,1,0,0,-2,1
1470262642087981,0,4,-2,-2,0,0,-2,-2
1470262642094409,0,-2,-6,-4,-7,-3,1,0
1470262642094409,2,7,8,3,1,-2,0,1
1470262642110888,-2,-10,-9,-4,-3,-3,-2,2
1470262642110888,0,1,1,1,-3,-1,-1,0
1470262642112447,-3,-8,-2,-2,2,0,-3,-2
1470262642112447,-2,-5,1,-10,-8,0,-1,1
1470262642133409,-2,-3,-10,11,6,2,-2,-3
1470262642133409,0,5,-26,-9,2,0,-1,-3
1470262642134910,0,4,18,-2,-17,-3,-2,2
1470262642134910,-3,5,-11,3,24,1,-1,0
1470262642147978,1,-13,-9,-7,-11,0,-1,1
1470262642147978,1,4,7,1,-1,-1,1,0
1470262642161990,-2,1,9,-3,1,-3,1,-2
1470262642161990,2,-1,-4,-5,-12,-3,-2,-1
1470262642170942,1,4,7,3,2,-1,1,-3
1470262642170942,-1,-7,-2,2,1,-1,-1,-1
1470262642172444,-1,-1,-11,-4,-4,-2,0,0
1470262642172444,-2,3,9,4,3,0,-1,-1
1470262642193462,-1,-3,-6,-6,3,1,-3,-1
1470262642193462,-3,-4,4,-2,-10,-2,-1,0
1470262642194966,-2,-6,1,2,7,1,-1,-1
1470262642194966,-2,-4,-4,-1,-4,0,-1,0
1470262642206975,0,6,2,-4,-3,-3,-3,-2
1470262642206975,2,0,-8,0,0,-1,-1,-2
1470262642215985,0,3,-1,1,1,-1,-1,0
1470262642215985,0,-5,3,-3,-6,-3,0,-2
1470262642238017,-1,-5,-9,-4,-2,-1,3,0
1470262642238017,-4,-1,7,1,-1,-1,1,2
1470262642240005,-1,-6,1,1,2,0,0,-2
1470262642240005,1,9,-4,-2,-5,0,0,-2
1470262642253046,-2,1,7,0,-2,-1,-1,0
1470262642253046,-2,0,2,-4,-3,-3,-3,-4
1470262642255030,0,4,7,1,1,-2,0,0
1470262642255030,-1,-10,-15,1,2,-2,-3,0
1470262642267029,-1,2,0,0,-1,-1,-2,-2
1470262642267029,-2,-4,-3,0,0,1,0,0
1470262642275536,0,10,8,4,5,-3,0,0
1470262642275536,-3,-9,-3,-8,-11,-1,-1,-3
1470262642291061,0,1,-8,2,-1,1,-3,0
1470262642291061,0,-4,2,-1,0,-2,0,0
1470262642292552,0,-1,-6,-3,-4,0,-1,0
1470262642292552,-2,7,7,0,-1,-2,1,0
1470262642313125,-1,0,2,-1,0,0,0,0
1470262642313125,-3,0,-3,-1,0,0,-1,0
1470262642315072,0,0,-1,0,1,-2,0,-1
1470262642315072,0,-7,-3,-1,-3,0,-2,0
1470262642327083,1,-2,1,-1,3,-2,0,-2
1470262642327083,-1,2,2,3,-2,-3,-2,-2
1470262642336091,-2,-6,-11,-4,1,0,-2,-1
1470262642336091,-2,-1,10,-2,-3,-1,-2,0
1470262642350663,-4,-3,-5,-4,-4,-2,0,-5
1470262642350663,0,0,-5,-1,2,-1,0,0
1470262642352625,0,-1,-2,-6,-9,-2,-1,-2
1470262642352625,0,-1,1,7,8,-2,-1,-1
1470262642373625,-1,8,11,1,0,0,-1,1
1470262642373625,-2,-19,-11,-4,0,-2,-2,-1
1470262642375626,-1,2,4,1,-6,-1,-1,0
1470262642375626,0,3,-2,-6,1,0,0,3
1470262642386636,-2,-7,-3,0,2,-2,0,-3
1470262642386636,-3,-3,-3,-3,-1,-1,-1,-2
1470262642395645,-3,-3,-6,-1,-2,0,-1,-3
1470262642395645,0,2,3,-5,-7,0,-1,-2
1470262642410660,-2,-3,-2,2,0,-3,-2,2
1470262642410660,1,4,3,-3,-2,0,-1,-1
1470262642412660,-2,-4,4,7,4,-1,-2,-1
1470262642412660,-2,-2,-6,-2,0,-1,0,-3
1470262642440687,2,-3,-2,-2,-3,-2,-1,0
1470262642440687,-3,-3,-3,-4,-3,-1,1,0
1470262642442186,1,8,-10,-1,0,-2,1,1
1470262642442186,-2,-14,5,2,-4,-2,1,-3
1470262642446692,0,1,-8,-3,-1,-1,-1,0
1470262642446692,-2,-9,13,2,2,-2,-2,-2
1470262642455699,-2,3,-26,-7,1,0,-3,-2
1470262642455699,-1,-6,2,-4,-4,-1,0,-1
1470262642470713,-2,7,5,-3,2,-2,0,-3
1470262642470713,-1,-1,2,6,-3,0,0,1
1470262642473214,0,-9,2,-1,0,-1,-2,-2
1470262642473214,-2,11,0,-2,-4,-1,-1,-3
1470262642493232,-2,-4,-1,-1,-2,-1,0,-1
1470262642493232,0,7,0,0,2,-1,-1,0
1470262642494734,-2,-7,3,0,1,2,1,1
1470262642494734,0,-1,-1,-1,-4,-2,-1,1
1470262642506745,-1,-3,3,0,1,-1,-1,-2
1470262642506745,-1,1,-12,-1,2,-3,-2,-1
1470262642515753,2,2,10,-5,-6,-1,-1,-2
1470262642515753,-1,3,-9,-1,7,0,-2,-3
1470262642530766,1,-2,7,4,-3,-1,0,1
1470262642530766,0,-7,-6,-3,-1,0,-2,-1
1470262642532267,-3,-3,3,0,-1,-3,0,-2
1470262642532267,-2,7,-3,-7,-5,-1,-3,0
1470262642553285,-1,-8,-7,-2,-2,0,-3,-1
1470262642553285,0,7,3,1,-2,-2,1,-2
1470262642554788,-2,-2,5,-2,1,1,-2,-2
1470262642554788,1,-5,-5,1,1,-1,0,2
1470262642566798,-1,9,-5,-2,-4,-1,-1,1
1470262642566798,-1,-3,0,1,3,-1,-3,-1
1470262642575806,0,0,2,-1,-2,-2,0,1
1470262642575806,-1,-1,-7,-4,-7,-2,-1,-4
1470262642590820,2,-4,-2,5,7,-2,0,0
1470262642590820,0,-6,-1,-3,-1,1,1,-3
1470262642592321,-5,-9,-3,-3,-5,-1,-1,-4
1470262642592321,0,13,2,0,11,-1,-3,0
1470262642613339,-2,-19,-4,-4,-12,-2,-1,-2
1470262642613339,0,18,5,-2,-8,-3,-2,0
1470262642614841,0,3,3,0,10,0,1,-1
1470262642614841,-2,-17,-1,0,-8,0,-1,-3
1470262642635860,-1,3,-15,-5,5,-2,-1,2
1470262642635860,-2,-5,1,-2,-1,-1,-3,-1
1470262642637362,-2,-11,-15,-5,-6,-3,-2,-1
1470262642637362,1,11,8,1,-1,-2,0,0
1470262642650873,-1,-2,5,1,1,0,0,-4
1470262642650873,-2,-2,-4,0,-3,-1,-1,-2
1470262642652377,-1,-2,1,-3,-1,-1,-1,0
1470262642652377,-2,-3,-3,-1,2,-1,0,0
1470262642673393,-1,4,-2,0,-5,-3,-1,-3
1470262642673393,-2,1,2,-2,1,-3,-1,0
1470262642674895,2,4,2,4,3,-2,-3,0
1470262642674895,-2,-1,2,0,-3,-1,1,-1
1470262642686905,0,-1,-1,-2,-3,-1,-2,-4
1470262642686905,2,1,-5,-1,0,1,0,-1
1470262642695914,0,-2,-9,-4,-4,-1,-1,-1
1470262642695914,-2,-8,1,1,0,-2,-2,-2
1470262642718434,-1,6,6,-2,1,-1,-2,-2
1470262642718434,-2,-11,-3,-2,-3,0,0,-1
1470262642719936,-2,10,9,0,1,-1,-1,-2
1470262642719936,-1,-4,-14,-7,-4,-1,-2,-2
1470262642733447,1,5,7,-1,-1,2,1,5
1470262642733447,-2,-15,-7,5,4,-3,-3,-2
1470262642734949,-4,-1,-1,-3,-3,0,0,-2
1470262642734949,-4,-1,-1,-2,-2,-1,1,-2
1470262642746961,-1,1,3,-4,-3,-1,-2,-1
1470262642746961,-3,3,0,-4,0,-2,-1,-1
1470262642755968,1,-3,-7,-2,2,0,-1,0
1470262642755968,2,-5,5,6,1,0,0,1
1470262642769980,-4,0,-3,-5,-3,-1,-1,-4
1470262642769980,0,2,3,-4,-6,-4,-2,-1
1470262642776987,-3,-2,-1,-2,4,0,0,1
1470262642776987,-3,5,-9,-3,-4,-2,-3,-2
1470262642793001,0,-1,8,0,-2,-2,0,-2
1470262642793001,0,-1,3,-3,-7,2,-1,1
1470262642795002,-1,-1,-13,4,6,-2,-2,-2
1470262642795002,0,-3,2,-1,0,-3,-1,1
1470262642816022,-2,-1,0,0,-2,0,0,1
1470262642816022,0,-1,-5,-2,1,1,0,1
1470262642817525,-2,1,-1,4,-5,-2,-1,-1
1470262642817525,-4,1,2,-3,-1,-1,-3,-3
1470262642830037,1,-4,-2,0,2,-1,-2,0
1470262642830037,-1,6,-6,0,-1,-3,0,-4
1470262642837040,-1,-1,11,-4,-5,-2,-4,-3
1470262642837040,0,-3,-10,1,0,0,-1,2
1470262642853055,-5,-1,-5,-1,0,1,-1,1
1470262642853055,-3,0,4,-4,-1,2,-2,-2
1470262642855056,-1,-2,12,1,-3,-3,1,0
1470262642855056,-1,1,-21,-3,-3,-1,-2,-2
1470262642867068,-1,0,9,1,0,-2,1,-2
1470262642867068,2,-2,-1,-2,-2,0,-1,-1
1470262642876076,-4,1,-10,-9,-3,-1,0,0
1470262642876076,-4,-4,22,5,-2,-1,-1,-5
1470262642890090,1,0,-11,-5,-1,0,-3,-2
1470262642890090,0,0,-12,1,1,-1,-1,2
1470262642897095,1,-3,3,-1,-3,1,-2,0
1470262642897095,-1,-2,-1,-5,-1,0,-1,0
1470262642913110,-5,-2,2,-1,0,-2,1,0
1470262642913110,4,-1,9,1,1,-1,-2,2
1470262642914611,4,-2,-12,-3,-4,-1,-1,-4
1470262642914611,-9,-1,1,-1,0,-1,1,0
1470262642927121,-2,-2,-3,1,-1,-1,-2,1
1470262642927121,-2,0,1,1,0,-1,0,-4
1470262642936129,4,-2,-4,0,2,-1,-2,-2
1470262642936129,8,-1,-1,2,-1,-1,-2,2
1470262642950143,-2,-1,-3,0,-1,0,0,-1
1470262642950143,-2,-2,-2,0,-2,-2,-2,1
1470262642956648,-3,-1,4,1,-1,0,0,1
1470262642956648,0,-2,-1,-4,-2,0,-1,-1
1470262642973162,2,-5,-8,-2,-2,-3,-2,-2
1470262642973162,0,3,14,3,1,2,2,-1
1470262642974665,-2,2,-8,-2,-1,0,0,1
1470262642974665,-2,0,-7,-5,-2,-1,-2,-3
1470262642986675,2,-2,4,1,-1,-2,0,0
1470262642986675,-3,-1,-6,2,0,-1,0,-2
1470262642995683,-2,-2,3,-1,-1,-2,-1,-3
1470262642995683,-1,0,4,-1,-3,-1,-2,-2
1470262643010197,-1,-5,0,-2,-1,1,-2,0
1470262643010197,-5,-4,-16,-6,-1,-3,-2,-2
1470262643017202,-1,1,-2,2,-2,1,-4,0
1470262643017202,-3,-8,-6,-1,0,-2,-3,-1
1470262643033217,1,5,-3,-4,-2,-1,-1,-1
1470262643033217,-1,-1,1,1,-2,-3,-3,-2
1470262643034719,0,-3,-2,-3,-1,-2,0,0
1470262643034719,1,1,4,2,-1,-1,1,0
1470262643055737,-2,-3,-4,1,0,0,1,-2
1470262643055737,0,-2,-1,-4,-2,-3,-1,-2
1470262643057239,1,1,-3,3,0,0,-1,-1
1470262643057239,0,1,4,0,-1,-3,-1,-2
1470262643070751,-4,-1,-4,-1,0,0,-1,-3
1470262643070751,-4,0,0,-1,0,1,1,1
1470262643072252,-1,-1,0,-2,-1,-2,-2,-1
1470262643072252,2,-2,-4,-1,-2,-2,-2,0
1470262643093270,-3,0,-1,-3,0,0,-1,-1
1470262643093270,-1,1,3,-1,1,-2,0,0
1470262643095273,-1,-2,1,-1,-3,-2,-1,-2
1470262643095273,-1,-1,-2,0,-2,1,1,-2
1470262643115792,-1,-3,-2,1,0,-3,-1,-2
1470262643115792,-1,2,1,-2,0,-1,-1,-4
1470262643117293,2,-4,-2,1,0,-1,0,2
1470262643117293,-2,3,1,-2,-1,0,-1,-2
1470262643130804,-7,-3,-1,1,-1,-1,0,-2
1470262643130804,1,0,-3,-2,-1,-3,-2,-2
1470262643132306,4,-2,0,-2,1,-1,1,-3
1470262643132306,-2,-2,0,-2,-3,-1,-3,0
1470262643153325,-6,1,-1,-1,-2,0,-3,-3
1470262643153325,-9,-6,-3,-1,-2,-1,0,-1
1470262643154826,0,-2,-4,-2,-1,-3,-1,1
1470262643154826,3,-1,1,-2,1,0,2,1
1470262643175844,5,0,0,-1,-1,-2,0,3
1470262643175844,0,-2,0,-2,-1,-1,-3,-3
1470262643177347,-3,0,0,-1,-2,0,-1,-5
1470262643177347,-4,0,1,1,0,-1,-1,0
1470262643189858,-2,-2,-2,1,0,0,-2,-4
1470262643189858,5,-2,-2,-2,-2,-1,2,3
1470262643196865,-7,0,-2,0,-3,-1,-1,-6
1470262643196865,0,0,-2,-2,-3,-2,0,-1
1470262643213378,2,0,-2,-1,-2,0,-1,2
1470262643213378,-1,0,0,-2,-1,-1,1,-4
1470262643214881,-2,-1,-1,-2,0,0,-1,-2
1470262643214881,-9,-1,0,0,-1,-1,-1,1
1470262643235898,5,-3,-3,0,0,-2,-1,-1
1470262643235898,3,1,-1,-1,-2,1,-1,3
1470262643237401,-7,-2,-2,0,-3,-1,-2,-1
1470262643237401,6,-1,-1,-2,0,-1,1,1
1470262643249911,-5,1,-2,-2,-2,-2,-2,-11
1470262643249911,-7,0,-1,0,-1,-1,1,-2
1470262643256918,7,-1,-2,0,-1,-2,-1,4
1470262643256918,-4,-1,0,0,-2,-1,-2,-1
1470262643273432,4,-1,-1,-2,-2,-1,-4,4
1470262643273432,1,1,0,0,2,0,0,-4
1470262643274933,-6,-2,-3,-2,-2,-2,-4,-10
1470262643274933,1,-2,-2,0,-3,0,-1,7
1470262643295952,-1,-2,0,-2,-3,0,6,4
1470262643295952,1,-2,-1,0,-1,-3,-5,5
1470262643297454,-3,-1,2,0,0,-2,-1,2
1470262643297454,-2,0,-2,-1,-1,-1,-4,-16
1470262643309967,0,-1,-1,-2,-1,0,-1,4
1470262643309967,0,-1,-1,-1,-2,0,0,0
1470262643316971,-1,4,1,-1,-1,-3,1,-1
1470262643316971,2,-1,-2,-2,-2,-1,-4,-1
1470262643332986,-5,-3,-1,0,-3,-1,0,0
1470262643332986,-1,-2,0,-1,-2,-4,-1,-3
1470262643334988,1,-4,-3,-3,-2,-2,0,5
1470262643334988,-1,-1,-1,-1,-1,-3,-8,-7
1470262643355507,1,-1,-2,-3,-1,-1,-2,-4
1470262643355507,-3,-2,-1,-1,0,2,1,2
1470262643357510,3,0,0,1,2,3,5,0
1470262643357510,-4,-1,-1,-2,-1,-1,0,-2
1470262643370020,-1,-2,0,0,0,-1,-3,0
1470262643370020,3,-2,0,-1,0,-1,0,4
1470262643377025,-6,0,-2,-1,-2,1,-1,-10
1470262643377025,3,-1,-2,0,-2,-1,2,2
1470262643393039,2,1,1,0,-1,-1,1,-4
1470262643393039,-3,-1,-2,-1,-1,-1,-2,0
1470262643395042,-1,-2,1,-2,-1,-2,-2,-1
1470262643395042,0,-1,-1,0,2,1,3,-3
1470262643415573,-5,2,0,1,-3,0,-2,-4
1470262643415573,3,-1,-1,-1,-3,-1,-3,-3
1470262643417561,-1,-2,-1,-1,-2,-1,0,2
1470262643417561,1,-1,0,-3,0,-3,0,0
1470262643430573,-4,-2,-2,-2,-1,-2,0,-1
1470262643430573,-3,-1,-1,-1,-1,0,-2,-3
1470262643438581,-1,0,-3,-1,-1,-2,-3,2
1470262643438581,-1,-2,-1,0,0,0,1,1
1470262643453093,2,-1,-2,-4,-1,-1,-3,-1
1470262643453093,-6,-2,0,0,-1,-2,0,-1
1470262643454595,1,-1,-1,-3,-1,0,-3,0
1470262643454595,-2,1,-1,-1,-1,0,0,-2
1470262643475614,1,-2,-2,-1,-2,-1,0,1
1470262643475614,-3,1,-1,-2,-2,-2,-1,-3
1470262643477616,-2,-2,-1,-3,-2,-1,-1,-4
1470262643477616,1,-3,-2,-1,-1,-2,-2,2
1470262643490127,-1,1,-3,0,-3,-2,-2,-1
1470262643490127,-1,-2,-2,-1,-2,-1,-1,-1
1470262643497133,1,-1,0,-1,-2,-2,-1,-1
1470262643497133,-2,1,-1,-2,-1,1,-1,-3
1470262643513149,0,-1,3,1,1,-2,1,1
1470262643513149,0,-2,-3,-2,-1,-2,-2,-3
1470262643515150,-3,-1,0,-4,0,-2,0,-1
1470262643515150,-3,-3,-1,-1,-3,-2,-1,0
1470262643535668,-4,-3,-2,1,0,-1,-1,0
1470262643535668,1,-2,0,-3,0,0,0,-3
1470262643537670,-3,-1,-1,0,-1,-1,-1,-1
1470262643537670,2,-1,-3,-2,-1,-1,-2,0
1470262643549680,1,0,0,-4,0,-3,-1,-2
1470262643549680,-2,-1,-1,-2,0,-2,-2,-4
1470262643558688,0,-1,0,2,-2,0,0,4
1470262643558688,-9,2,-2,-1,-2,-1,-1,-3
1470262643573203,2,-3,-1,-1,-2,-3,-4,-2
1470262643573203,-1,-2,-2,-1,-1,-1,1,4
1470262643574703,1,-3,-1,-1,-1,-2,0,-4
1470262643574703,0,-1,-1,-1,-1,-1,0,0
1470262643595723,-3,0,0,-1,-2,-1,-1,-2
1470262643595723,0,1,-3,1,0,-1,-3,-4
1470262643597224,-1,1,-2,-3,-1,-1,-2,1
1470262643597224,0,-4,0,0,0,-2,0,1
1470262643609735,1,-1,-1,-2,-1,2,-1,0
1470262643609735,0,-1,0,-1,-3,0,-1,-2
1470262643618242,-3,1,-2,-2,-2,2,0,0
1470262643618242,-2,-2,-2,0,-1,0,1,-2
1470262643633256,0,-5,-1,-2,-1,0,0,-2
1470262643633256,1,-1,-2,-2,-2,-2,0,0
1470262643634757,-1,1,-3,-1,-2,0,0,0
1470262643634757,-1,0,0,-2,-2,-1,-1,-5
1470262643655777,-1,-1,0,-1,0,0,-2,1
1470262643655777,-3,-3,-1,-1,1,1,-1,-1
