timestamp,emg1,emg2,emg3,emg4,emg5,emg6,emg7,emg8
1470344207642669,37,34,13,-55,46,-2,25,37
1470344207642669,91,77,35,-110,-30,-25,44,74
1470344207643667,-98,-99,-60,107,-68,-2,-85,-100
1470344207643667,21,18,2,127,-107,-1,15,17
1470344207646725,41,39,24,44,-108,1,24,44
1470344207646725,-88,-86,-40,-11,-84,-1,-69,-83
1470344207647672,45,46,23,-98,-82,7,49,50
1470344207647672,15,21,3,-118,-63,-1,19,11
1470344207654727,7,-5,-7,-55,-64,3,-9,47
1470344207654727,-38,-38,-20,-41,-45,-1,-30,127
1470344207660682,27,23,6,-63,-39,-8,10,67
1470344207660682,18,10,2,-41,-22,-6,9,-55
1470344207685709,-67,-66,-39,-41,-29,-1,-38,-88
1470344207685709,42,21,4,-7,-28,9,21,-128
1470344207686712,57,49,33,-33,-10,3,22,-39
1470344207686712,-44,-46,-25,-40,-5,-3,-26,-67
1470344207692719,-3,12,7,-18,-39,-3,-3,-15
1470344207692719,28,21,15,-1,-112,5,11,22
1470344207705731,11,-25,-10,-9,-74,-2,1,12
1470344207705731,-61,2,-10,-20,-1,-6,-10,22
1470344207714740,-128,1,1,1,46,-12,-9,92
1470344207714740,13,23,17,22,98,5,12,78
1470344207720745,120,-19,-14,-10,96,6,-3,-45
1470344207720745,58,21,15,-116,78,0,1,-68
1470344207737761,21,21,16,-84,72,-4,19,-8
1470344207737761,41,-18,-7,-10,61,2,-13,-4
1470344207743808,-1,-1,4,31,34,-16,5,-26
1470344207743808,-81,-16,-4,79,31,-3,-9,2
1470344207752774,-67,-24,-26,63,26,13,-17,-95
1470344207752774,44,10,-2,81,21,-8,0,-41
1470344207765811,-128,-8,-6,81,52,5,-2,57
1470344207765811,-128,14,10,123,34,4,4,61
1470344207774801,102,-1,17,76,-1,5,18,37
1470344207774801,-128,-15,-10,59,6,111,-1,24
1470344207781392,-128,11,-15,22,7,118,-6,-10
1470344207781392,-26,0,-2,7,-16,33,-7,1
1470344207796847,51,-5,-4,23,-1,-35,-4,19
1470344207796847,80,5,4,17,16,-102,2,-23
1470344207803856,91,2,11,-7,3,-112,-9,3
1470344207803856,93,6,11,10,-6,-76,7,31
1470344207811877,100,-13,-10,9,-7,-117,-11,-26
1470344207811877,-128,-4,-15,10,10,-128,9,-5
1470344207834880,72,35,23,-6,1,-76,15,-15
1470344207834880,-67,-13,-4,3,2,-18,-5,-9
1470344207835883,-122,-10,-14,21,1,50,-7,-25
1470344207835883,-3,27,32,57,8,51,-2,-32
1470344207841906,-128,-11,32,116,6,46,-1,34
1470344207841906,-59,-24,-52,116,22,45,5,62
1470344207856899,-41,-7,-40,50,-13,55,-5,17
1470344207856899,-104,81,-24,36,-21,44,4,-24
1470344207862905,-104,-64,-11,-41,1,9,-5,18
1470344207862905,24,-55,18,-76,7,24,-9,17
1470344207871960,-25,97,46,-45,3,16,-4,-25
1470344207871960,-65,-19,-7,-113,-4,15,-5,79
1470344207885934,-63,-47,-21,-114,-8,10,-12,42
1470344207885934,36,-62,6,-82,-15,2,5,-27
1470344207895002,-92,53,1,-86,9,13,1,3
1470344207895002,-58,79,21,-66,7,6,3,50
1470344207900981,17,42,-1,-47,-1,8,5,-45
1470344207900981,-53,-73,-3,-51,1,1,4,127
1470344207916019,-76,-47,-3,-27,-2,3,-3,73
1470344207916019,-39,24,-10,-19,1,8,-14,39
1470344207922985,-28,124,5,-9,-1,3,25,37
1470344207922985,-61,93,-2,-25,-2,-3,-14,9
1470344207931997,-48,10,-4,-9,3,-6,-26,13
1470344207931997,0,-53,3,-5,-11,0,28,7
1470344207946042,-63,-92,-7,-25,-2,-2,-10,-86
1470344207946042,34,-102,3,-12,-2,-5,-10,-128
1470344207955038,20,-88,-4,5,-1,6,8,-48
1470344207955038,-46,-10,1,-8,5,0,1,-94
1470344207961066,-11,69,-3,-10,0,1,-10,18
1470344207961066,-9,74,1,-4,-1,-2,-14,79
1470344207977571,-40,13,3,8,-14,1,21,96
1470344207977571,30,-22,-3,-6,3,2,-9,-76
1470344207983618,-24,0,-4,-7,2,-4,-18,-57
1470344207983618,-27,42,2,-2,-6,3,21,-59
1470344207992164,82,-17,-4,-5,-1,2,-4,-128
1470344207992164,54,-39,-8,-3,4,3,-4,-121
1470344208006188,-53,-5,-1,-1,-8,-4,4,-7
1470344208006188,-15,36,3,-4,-14,-2,2,-49
1470344208015151,10,0,-3,-1,-12,-9,-3,48
1470344208015151,24,-29,-10,-1,9,22,-11,70
1470344208028218,-65,31,2,1,3,5,10,55
1470344208028218,12,-77,-10,-4,2,-2,-2,71
1470344208037171,12,-99,-10,-1,-16,-71,-2,25
1470344208037171,-115,-15,-4,0,-2,-118,12,127
1470344208052233,-37,18,-2,-5,-7,-128,-8,41
1470344208052233,-71,64,11,-3,1,-128,1,-93
1470344208054214,6,46,0,1,6,-30,19,-114
1470344208054214,113,6,-22,-1,-1,36,13,-119
1470344208066248,127,-16,-9,-3,-5,86,-15,-23
1470344208066248,97,36,17,-1,-13,127,-24,-1
1470344208075214,-34,51,34,1,2,30,-26,77
1470344208075214,-54,6,48,-2,0,75,-15,34
1470344208088726,26,-43,37,-2,-9,49,-13,-35
1470344208088726,-40,9,1,-1,14,-77,31,127
1470344208097031,113,13,-2,-2,-10,91,8,98
1470344208097031,116,26,9,-1,-11,108,0,70
1470344208103039,19,23,9,-1,6,49,4,14
1470344208103039,-60,54,-52,-2,-2,-33,-22,-115
1470344208112044,-120,118,-102,-1,7,-79,0,-128
1470344208112044,-121,99,-63,-1,9,-124,-7,-49
1470344208126104,-103,-40,-73,-1,21,-118,17,-41
1470344208126104,126,13,77,-2,19,-85,1,-98
1470344208135065,111,-49,-62,-1,12,-97,-5,-75
1470344208135065,61,-120,-103,-1,22,-84,1,-7
1470344208148122,-67,-9,-103,-2,37,-83,0,36
1470344208148122,-124,-114,-6,-1,-4,-32,-5,68
1470344208157085,-128,-128,-65,0,-11,-23,3,74
1470344208157085,-78,-111,127,-2,-42,-51,1,10
1470344208163130,-54,1,-25,-1,-61,-26,-2,49
1470344208163130,112,55,11,-1,5,-1,1,127
1470344208172100,-128,-6,127,0,108,-15,-1,127
1470344208172100,-39,108,47,-1,104,-31,-1,121
1470344208186157,-83,70,127,-1,17,-22,-6,100
1470344208186157,-20,127,-93,-1,-69,7,-3,-33
1470344208195171,78,97,-117,-1,-110,-12,2,-115
1470344208195171,50,101,-117,-1,-94,-15,-2,-128
1470344208208180,127,47,-99,-1,-89,-1,2,-128
1470344208208180,104,125,-28,-1,-79,2,0,-116
1470344208217212,46,50,127,-1,-68,0,-5,-112
1470344208217212,122,-63,6,-1,-61,-7,-3,-128
1470344208223222,76,-102,127,-111,-47,-6,1,-121
1470344208223222,-56,-128,-22,-124,-30,0,-1,-114
1470344208232242,64,-79,-24,10,-27,-5,-1,-99
1470344208232242,63,35,127,3,-35,-5,-2,25
1470344208246279,47,-115,-75,17,-17,-7,-2,110
1470344208246279,-107,90,117,18,-1,2,-6,7
1470344208255222,-118,118,-54,-22,-17,2,-4,111
1470344208255222,-122,3,-128,8,-16,-116,-1,88
1470344208268278,-81,-77,-73,-105,2,93,-15,111
1470344208268278,-83,-22,-128,-80,-104,-94,-26,-1
1470344208277288,58,-128,-84,25,-128,-99,-25,-13
1470344208277288,-62,-111,115,108,79,59,78,80
1470344208283793,-13,107,95,127,123,44,112,72
1470344208283793,-43,60,114,127,127,127,34,-4
1470344208292359,-2,127,127,109,127,127,-88,122
1470344208292359,-128,-106,25,95,102,-122,-128,-128
1470344208306389,-81,-123,-22,127,19,-122,-53,-120
1470344208306389,127,33,-19,64,-102,106,-100,121
1470344208314435,104,114,-3,19,102,75,29,35
1470344208314435,79,46,-47,-92,76,127,-61,127
1470344208328394,-71,-23,-21,-63,-38,47,-94,127
1470344208328394,-103,-123,-35,53,-30,-128,-120,88
1470344208337442,-72,-41,-98,-90,68,-128,-75,123
1470344208337442,72,-75,-120,116,108,99,-32,67
1470344208343509,60,-56,-91,114,91,71,-23,-122
1470344208343509,40,48,64,64,-24,124,99,127
1470344208358473,-120,33,127,16,-53,127,127,114
1470344208358473,49,127,32,-121,-128,74,113,-28
1470344208365476,-35,99,-61,-128,-128,-95,-112,-72
1470344208365476,113,-120,-104,-86,70,106,109,56
1470344208374939,-128,-128,-90,-91,110,-29,-67,11
1470344208374939,101,-55,-111,-114,-110,-28,66,-68
1470344208388496,89,7,-68,-40,-92,-114,-109,-51
1470344208388496,-106,-128,-125,-126,-47,-128,-95,-128
1470344208397085,86,-59,-117,-111,9,-6,15,-97
1470344208397085,-56,12,-4,-44,-82,-128,-97,60
1470344208403108,-70,100,109,80,107,-92,46,19
1470344208403108,-83,98,125,89,127,64,122,88
1470344208418104,29,43,106,127,-73,-40,-38,-91
1470344208418104,-103,-103,109,127,-33,-111,53,-40
1470344208426111,104,27,100,-56,115,127,-72,-78
1470344208426111,28,109,4,17,127,-40,-122,-71
1470344208435161,-110,-128,110,117,-79,120,27,18
1470344208435161,-33,-15,84,51,70,39,-55,102
1470344208448132,-1,108,29,115,66,56,127,45
1470344208448132,-9,37,105,-5,-6,-58,0,-109
1470344208457201,-28,54,13,-56,15,-38,23,67
1470344208457201,63,66,71,-117,3,67,101,-23
1470344208463172,68,-69,39,-78,-9,-28,-64,15
1470344208463172,-46,-49,-3,13,7,127,-92,26
1470344208478690,-88,-31,-14,98,-99,-35,-36,-62
1470344208478690,34,89,18,-91,127,108,-122,-57
1470344208486198,-13,-97,-3,-119,48,-5,-73,29
1470344208486198,-37,-41,-11,25,101,23,5,-53
1470344208494784,114,-17,48,27,127,41,78,-91
1470344208494784,-32,44,-92,-59,0,69,102,82
1470344208508827,23,8,-53,6,-8,-6,-89,115
1470344208508827,-82,-53,-97,32,-110,-68,-110,-91
1470344208517809,-12,84,-20,-76,-38,72,39,54
1470344208517809,-102,-57,-114,-3,-128,-95,-121,-128
1470344208523817,95,-89,127,121,70,32,127,34
1470344208523817,-94,14,126,-128,105,-4,-36,29
1470344208538828,-39,15,51,-84,10,45,6,-36
1470344208538828,-128,-97,124,37,123,-13,-82,46
1470344208545874,-121,99,-70,-118,-37,-33,-39,34
1470344208545874,-71,-22,-52,79,127,-62,-32,-50
1470344208554890,-24,21,-102,65,58,-92,-114,-54
1470344208554890,27,104,93,113,39,-19,-61,11
1470344208584912,-128,-24,-128,-48,119,-32,127,-25
1470344208584912,102,-3,111,-50,-76,-7,81,-23
1470344208586387,-91,112,-122,-110,-38,-50,-126,-116
1470344208586387,32,81,-58,-105,-52,-50,2,-9
1470344208606966,-27,-5,95,127,-107,0,0,92
1470344208606966,8,93,20,-14,-128,-22,127,98
1470344208608969,19,59,-81,127,-23,-54,114,-79
1470344208608969,-34,127,-96,43,-13,-17,-65,59
1470344208628957,3,61,125,87,-91,11,110,-128
1470344208628957,20,97,-124,-113,-56,10,-88,37
1470344208637026,127,32,-47,-74,-10,-31,90,71
1470344208637026,-128,15,45,94,-19,10,127,-64
1470344208643998,37,35,-81,57,-40,18,-73,-122
1470344208643998,-95,-18,76,28,-35,-11,-40,-32
1470344208644966,38,-6,115,-95,1,-15,8,-40
1470344208644966,98,-31,-85,66,-10,-5,127,-117
1470344208659980,64,53,76,109,-10,0,-24,-128
1470344208659980,84,114,-126,9,-8,-3,111,-36
1470344208660981,-128,105,127,127,-5,-9,-54,-54
1470344208660981,3,-57,50,-8,8,6,0,-47
1470344208675002,-121,7,54,48,-10,2,72,-81
1470344208675002,66,-115,-46,-95,-17,7,88,35
1470344208676502,-128,-123,73,0,2,-4,75,-51
1470344208676502,46,15,-93,-123,3,-5,-84,-23
1470344208688514,-41,-13,-1,-45,-9,4,-31,64
1470344208688514,-126,63,-100,65,-14,-2,92,45
1470344208697023,-2,-73,-52,106,7,-10,127,78
1470344208697023,124,50,-35,106,8,-2,-24,57
1470344208712038,-103,127,-31,-128,-11,3,-15,19
1470344208712038,-80,-23,28,-70,-5,3,-110,-58
1470344208718044,-78,-57,-11,61,3,-7,-40,68
1470344208718044,-40,-72,115,113,0,2,-72,-127
1470344208735059,56,-52,-86,107,-6,3,105,-48
1470344208735059,-99,-5,92,127,-6,-3,108,-59
1470344208736060,16,-120,-30,-46,2,-4,-128,36
1470344208736060,-6,-17,-13,-106,-2,-2,-80,127
1470344208748100,120,-33,17,-79,-2,0,-107,31
1470344208748100,-40,-128,118,44,-2,-1,-118,55
1470344208757151,127,-67,-55,30,-2,-3,102,127
1470344208757151,-99,-40,4,121,2,1,65,-64
1470344208772157,-86,28,-43,94,-2,0,-115,-8
1470344208772157,127,-18,-99,126,-4,1,-87,-85
1470344208778604,100,122,-94,-89,0,-2,29,-115
1470344208778604,115,-91,92,-27,0,-2,127,43
1470344208795129,-98,-61,126,-128,-2,0,14,11
1470344208795129,-78,28,86,-45,-3,-1,-53,-30
1470344208796126,-61,8,-11,58,1,-3,-103,29
1470344208796126,-27,47,58,36,1,-1,-68,-73
1470344208808192,56,32,-67,-85,-3,0,-17,110
1470344208808192,36,-45,44,-33,-2,0,57,48
1470344208817175,-28,58,-36,-22,0,-2,-86,-95
1470344208817175,-102,47,20,55,-1,-1,-85,-24
1470344208832177,-92,-67,-57,127,-2,0,-94,-6
1470344208832177,-9,46,-54,-21,-2,-1,-98,-100
1470344208838219,18,-73,-51,7,-1,-2,-125,4
1470344208838219,-10,-33,45,75,-1,-1,-106,17
1470344208846255,45,127,-61,42,-1,-1,14,-46
1470344208846255,103,39,127,6,-1,-1,70,-18
1470344208855209,-86,-107,21,68,-1,-1,26,-37
1470344208855209,-57,-69,-88,-90,0,0,-56,-30
1470344208868237,-22,-128,-112,-89,-1,-1,127,23
1470344208868237,5,101,8,-15,-2,-1,105,-9
1470344208877722,-26,89,127,74,-1,-1,66,104
1470344208877722,-19,92,49,53,-1,-1,90,89
1470344208883737,103,49,-62,10,-1,-1,108,69
1470344208883737,81,-111,-104,81,-1,-1,29,62
1470344208898311,64,-2,38,-107,0,-1,45,7
1470344208898311,-33,-90,-8,61,-1,-1,-28,31
1470344208906292,-31,-65,107,85,-1,-1,6,-45
1470344208906292,-93,-30,-18,12,-1,-1,-38,-52
1470344208914325,16,101,-54,81,-1,-1,-48,-72
1470344208914325,-61,42,26,-89,-1,-1,42,-45
1470344208928332,-34,-11,-16,-107,-1,-1,-105,-50
1470344208928332,22,85,110,127,-1,-1,-109,-8
1470344208937320,-13,-71,97,-24,-1,-28,-102,-38
1470344208937320,-23,33,-69,-128,-1,6,27,-6
1470344208951335,-25,29,19,-41,-1,-71,-52,29
1470344208951335,-42,-27,-128,-128,-1,-102,-18,-11
1470344208958357,68,-25,-88,19,-1,70,57,-41
1470344208958357,28,61,46,90,-1,19,125,46
1470344208966346,-27,34,-38,22,-1,52,90,19
1470344208966346,16,-27,37,-38,-1,87,57,85
1470344208974886,-18,19,-16,55,-1,8,64,67
1470344208974886,-13,-99,-77,-27,-1,8,42,36
1470344208988453,38,-33,127,41,-1,6,36,51
1470344208988453,-11,-78,12,-19,-1,-14,72,43
1470344208997412,-13,-27,8,-17,-1,-10,16,-6
1470344208997412,-5,-16,-105,-26,-1,-30,-4,-61
1470344209011432,12,-17,6,6,-1,-5,-45,-71
1470344209011432,35,15,-54,34,-1,-44,-51,-36
1470344209018431,10,26,-17,-52,-1,-95,-68,-36
1470344209018431,26,10,-7,-39,-1,-52,-58,-29
1470344209025435,-1,31,-27,-53,-1,-54,-36,-34
1470344209025435,-16,-4,-71,-9,-1,-64,-30,-23
1470344209034494,-27,12,-19,-62,-1,-70,-16,-1
1470344209034494,-7,-12,-26,-43,-1,6,-36,-17
1470344209048504,-4,7,1,19,-1,-14,-17,-12
1470344209048504,-1,14,-25,1,-1,-1,0,1
1470344209057491,-15,-6,27,-37,-1,57,2,0
1470344209057491,4,4,-2,8,-1,20,7,5
1470344209072477,1,23,19,28,-1,0,-4,-10
1470344209072477,-2,20,29,1,-42,74,8,3
1470344209078491,-23,0,10,-8,-57,31,6,-1
1470344209078491,-3,-19,8,11,-59,18,4,-7
1470344209085997,-6,-26,4,18,-49,25,6,-3
1470344209085997,-9,-6,4,1,-17,32,-7,-5
1470344209100516,-8,9,5,9,18,22,11,4
1470344209100516,5,7,10,13,22,-21,5,4
1470344209109524,4,-2,-7,12,-30,31,-1,-15
1470344209109524,16,-6,6,11,-13,-27,3,0
1470344209115563,26,14,-19,-4,9,-37,-2,0
1470344209115563,28,10,11,-16,-19,0,-14,-8
1470344209131556,-9,12,-1,7,22,-19,-7,-5
1470344209131556,1,10,15,20,18,1,3,-5
1470344209138614,-67,-38,-1,-9,-1,19,10,14
1470344209138614,-29,-2,-14,-9,1,4,-17,-7
1470344209145603,-24,0,14,5,20,6,-9,22
1470344209145603,5,0,0,-12,20,1,5,64
1470344209171579,0,-15,34,-19,-24,7,7,12
1470344209171579,17,-3,-18,-15,-1,-4,6,-11
1470344209172591,19,32,-21,19,33,-19,-4,9
1470344209172591,-17,-38,-43,-15,-25,24,2,-85
1470344209176228,2,11,-13,-1,7,-14,-7,-22
1470344209176228,-17,3,-16,14,11,-17,0,-5
1470344209191509,0,-4,34,-9,-8,13,7,-35
1470344209191509,-6,12,18,34,16,-14,-14,0
1470344209198449,8,16,23,1,12,-10,1,15
1470344209198449,11,9,39,37,14,-4,0,15
1470344209222488,-1,-24,3,-47,-23,8,8,-26
1470344209222488,0,13,-15,14,18,-5,1,17
1470344209223447,2,43,-41,22,29,-13,-10,18
1470344209223447,-3,-29,38,-17,-13,21,8,-22
1470344209229496,3,-4,3,17,6,-15,-7,13
1470344209229496,-1,6,-9,10,4,-18,-11,8
1470344209236463,5,-33,11,-16,0,23,8,-14
1470344209236463,-1,10,-46,0,-4,-19,-5,12
1470344209251499,2,9,-4,-5,20,-7,-2,9
1470344209251499,1,-11,-5,-16,6,4,-5,2
1470344209258495,0,-14,15,9,-20,-7,9,-12
1470344209258495,1,28,-2,-2,14,-8,2,17
1470344209274494,2,21,-24,32,44,-20,-21,24
1470344209274494,-3,-20,27,-28,-33,21,20,-33
1470344209281052,1,11,-9,-6,19,-16,-6,-1
1470344209281052,-6,11,-19,-12,18,-14,-7,7
1470344209289511,-10,-24,3,-22,-40,17,12,-19
1470344209289511,-7,3,-13,50,7,-19,-10,11
1470344209296081,-2,-6,-22,-2,16,-11,1,2
1470344209296081,-1,-1,-29,-10,-20,-3,-6,1
1470344209312037,-1,-14,-4,30,-14,-13,6,-12
1470344209312037,4,16,-33,-5,-5,-26,-7,9
1470344209318068,-3,26,-2,13,10,-18,-9,17
1470344209318068,-1,-32,21,-19,-22,9,17,-30
1470344209326051,-4,2,-41,-9,4,-9,-1,7
1470344209326051,0,-5,11,-17,14,-2,-1,10
1470344209341144,-1,-20,12,8,-6,20,5,-32
1470344209341144,2,13,22,74,34,-16,-2,4
1470344209349089,-4,23,18,23,-3,-22,-8,-2
1470344209349089,0,1,-3,15,16,8,10,-7
1470344209356118,-6,7,-32,-6,-4,-15,-5,-5
1470344209356118,-3,-28,9,-14,18,2,1,10
1470344209371091,-3,-2,13,-17,-7,-8,-1,0
1470344209371091,1,-13,21,-13,-11,1,5,-3
1470344209387109,-3,-12,11,27,5,-25,-5,7
1470344209387109,-6,-1,-35,-24,3,-18,-9,17
1470344209387610,3,-3,-4,-47,-33,17,8,-10
1470344209387610,-4,-1,-17,9,24,-11,-6,-2
1470344209401237,-1,0,-5,-7,-25,-8,-1,-12
1470344209401237,-8,-22,-23,16,-6,6,-1,-18
1470344209409206,3,11,-14,5,15,-8,-5,-2
1470344209409206,0,13,12,-13,1,-24,0,2
1470344209417196,-1,6,14,7,-11,-7,-1,8
1470344209417196,2,-11,7,1,-7,-8,-4,-5
1470344209431251,0,4,-2,72,31,4,1,6
1470344209431251,-1,19,-2,44,6,-18,-3,10
1470344209438213,3,-10,26,32,8,9,7,-7
1470344209438213,-3,6,2,23,16,-19,-4,4
1470344209446241,0,-3,-11,43,-4,-5,1,-1
1470344209446241,3,3,25,6,-4,8,9,-2
1470344209461236,-7,18,-29,30,16,-11,-11,3
1470344209461236,4,7,9,7,5,-6,2,0
1470344209469312,-2,-15,-10,-10,-8,-8,3,0
1470344209469312,2,-9,-6,7,-2,-5,-6,-2
1470344209476422,-1,-14,-12,-13,-17,-14,-2,-2
1470344209476422,-2,5,-3,32,0,-28,-4,6
1470344209490867,3,-21,15,-12,1,8,-1,-13
1470344209490867,-5,0,-15,-16,-17,-20,-7,-7
1470344209499994,4,-8,39,35,38,4,9,3
1470344209499994,-10,-5,38,50,-22,3,-7,-14
1470344209505969,1,-9,-26,13,-1,-13,-13,7
1470344209505969,-3,-7,-7,26,7,1,2,-2
1470344209521000,-1,-5,6,6,8,-2,15,12
1470344209521000,2,26,7,3,3,-8,-12,2
1470344209529060,2,-4,4,35,-2,-2,3,2
1470344209529060,-3,-6,23,4,19,-20,-5,9
1470344209536040,3,-7,-18,78,-12,6,-4,-21
1470344209536040,0,6,-9,-69,-18,-20,4,3
1470344209552009,-4,36,4,6,5,-12,2,-2
1470344209552009,-4,-9,20,-67,-37,-4,6,-12
1470344209558051,-2,19,-22,-33,-1,-18,-16,6
1470344209558051,5,-14,-34,-4,9,9,8,-7
1470344209599188,-1,15,110,-14,-1,-10,-2,10
1470344209599188,3,1,-2,53,30,-6,-10,-7
1470344209603193,1,15,-1,-59,-17,1,3,2
1470344209603193,-4,17,-12,15,4,-17,4,9
1470344209627214,5,-15,-3,-43,-2,2,3,-13
1470344209627214,1,15,-27,74,24,-1,-1,-1
1470344209629216,-6,-3,3,-9,-7,-17,-6,7
1470344209629216,4,-12,-22,8,-8,13,7,0
1470344209642272,-2,8,-25,83,28,-6,-9,3
1470344209642272,-1,-29,8,17,-3,7,6,1
1470344209644230,-1,-13,-14,-55,-14,-3,6,-3
1470344209644230,-1,7,-1,13,7,-8,-8,-7
1470344209657282,5,-9,-17,8,11,-9,4,-1
1470344209657282,-5,-3,2,-46,-10,-12,-3,6
1470344209659247,6,4,29,-2,-11,18,3,-5
1470344209659247,-1,-23,70,26,5,-6,-2,-16
1470344209663246,-5,-41,-7,55,-3,-2,1,-12
1470344209663246,2,3,-9,-75,-34,15,7,-11
1470344209671255,-2,-12,21,61,-5,-19,-12,-11
1470344209671255,-3,-9,28,-42,-7,-1,2,-1
1470344209679770,0,7,46,-64,-27,-3,8,-17
1470344209679770,2,0,15,13,-4,-8,-11,-7
1470344209681270,-3,-1,11,-10,0,-4,1,-2
1470344209681270,1,6,2,15,-4,-3,5,9
1470344209701795,4,-12,4,-30,1,6,0,5
1470344209701795,-3,-18,-2,9,-19,-17,-6,-10
1470344209703796,-2,-23,-34,-15,3,-8,-1,4
1470344209703796,7,-17,24,12,-24,10,5,-6
1470344209716806,-6,-4,9,35,-2,-12,-13,-1
1470344209716806,4,-1,13,23,-12,6,8,-1
1470344209724814,7,-7,43,-17,-14,9,12,-15
1470344209724814,3,9,17,10,-4,-8,-8,1
1470344209739852,-1,-8,-18,-2,-5,5,0,-12
1470344209739852,2,8,22,23,8,-2,8,12
1470344209741957,2,12,25,15,-9,3,-6,-2
1470344209741957,0,-2,-7,5,4,-11,2,1
1470344209761892,7,7,-12,62,8,-13,-1,7
1470344209761892,7,16,38,31,-11,11,4,-2
1470344209763849,-1,11,13,23,15,-20,-12,12
1470344209763849,-4,-1,-58,-13,-8,-6,-3,-5
1470344209775885,-3,-20,18,12,-9,3,9,-8
1470344209775885,-7,-8,-28,23,0,-11,-15,2
1470344209784898,0,-3,-40,44,22,-16,1,0
1470344209784898,-8,10,-12,33,3,-10,-1,12
1470344209800013,1,-3,0,10,-1,-2,-6,-4
1470344209800013,2,-2,-4,-8,-3,-13,0,4
1470344209800968,-6,12,-23,-13,1,-8,-2,5
1470344209800968,-1,-7,-72,-36,-17,8,-3,-8
1470344209821021,-9,-8,11,-60,-4,-32,-11,15
1470344209821021,-5,-3,-39,-10,-14,-3,-1,-5
1470344209829995,3,-22,-2,-13,-13,13,9,-6
1470344209829995,-3,13,2,22,2,-11,-11,11
1470344209845009,-5,10,-29,28,7,-4,2,8
1470344209845009,-4,8,-30,15,14,-8,4,11
1470344209846011,-5,4,17,7,-10,-2,-11,-7
1470344209846011,-4,-8,-10,3,12,-8,0,-2
1470344209867028,0,15,-19,-23,1,2,3,5
1470344209867028,5,5,43,55,20,12,5,-4
1470344209869031,-9,-38,-72,62,22,-13,-8,4
1470344209869031,1,15,-7,-8,2,-8,3,1
1470344209882080,-3,-14,-54,-38,-19,11,1,-11
1470344209882080,0,12,-27,-13,6,-12,-1,14
1470344209888600,-6,-4,-10,19,0,-13,-4,-3
1470344209888600,-3,-5,3,10,13,-9,1,-4
1470344209904711,-3,-1,-3,-7,-13,-9,-8,-2
1470344209904711,-2,-5,-20,33,3,1,2,-9
1470344209906713,-2,4,-11,17,-4,-8,2,1
1470344209906713,3,13,17,-5,0,13,1,-7
1470344209926835,-7,3,22,42,10,-26,-11,8
1470344209926835,-4,4,-6,-22,7,-5,-1,8
1470344209943760,3,-10,50,37,2,7,8,-5
1470344209943760,2,18,10,21,-1,-12,-5,14
1470344209944748,-3,-6,-27,-8,-1,-4,-3,-6
1470344209944748,-2,-6,8,10,0,-15,0,-13
1470344209948751,0,5,8,-13,-9,-2,0,0
1470344209948751,-8,-14,4,21,7,-7,-2,-5
1470344209964767,-5,-8,-44,-19,-6,-2,-5,4
1470344209964767,1,-2,-14,-21,-5,8,-4,-15
1470344209966766,-1,9,15,32,16,-17,-4,4
1470344209966766,0,-3,11,2,-3,-7,1,1
1470344209994437,4,7,-11,61,11,7,9,-9
1470344209994437,-4,26,47,-7,15,-12,-8,15
1470344209996441,5,18,13,17,0,-2,-3,-2
1470344209996441,-1,-35,7,26,1,-6,5,-11
1470344210000468,5,-9,20,23,11,-7,1,4
1470344210000468,-1,12,41,6,11,-6,3,4
1470344210009481,-2,31,-28,7,12,-11,2,12
1470344210009481,1,-9,-6,24,-7,24,2,-15
1470344210024506,3,-5,26,25,13,-10,0,6
1470344210024506,-7,-41,-39,43,-2,1,-5,-6
1470344210026465,2,-21,6,-47,-28,8,3,-13
1470344210026465,0,9,-27,3,17,-10,-6,9
1470344210047527,4,7,2,-14,2,2,7,4
1470344210047527,-1,-15,-11,-1,2,-4,-3,-5
1470344210048485,-1,-6,-1,-1,-5,0,-6,6
1470344210048485,0,10,-4,5,0,4,2,1
1470344210060528,-8,16,-8,12,-9,-19,-8,-4
1470344210060528,3,3,13,-28,-24,0,1,-2
1470344210069505,2,12,7,24,12,-9,3,2
1470344210069505,-1,13,73,-7,14,-6,2,9
1470344210085110,8,8,52,-36,-13,9,2,-10
1470344210085110,-3,9,-56,-19,4,-8,-4,10
1470344210086582,2,17,14,33,-2,-3,2,-8
1470344210086582,-4,-6,-3,11,2,-5,2,0
1470344210107513,-13,-24,-48,14,-3,-4,-14,-4
1470344210107513,-3,-5,48,3,-7,-14,-4,0
1470344210108514,-4,-2,-17,17,22,-11,2,7
1470344210108514,6,-24,-7,3,-9,5,-2,-14
1470344210121558,0,10,2,-46,1,-12,1,7
1470344210121558,0,3,87,57,12,-5,2,-2
1470344210128582,1,-1,34,-49,-19,15,-1,-8
1470344210128582,0,3,-51,22,2,-13,-8,4
1470344210144548,3,22,40,6,-6,-3,5,0
1470344210144548,-4,-24,-45,0,-13,1,-1,-7
1470344210146551,-3,-2,-13,-3,-3,-5,-7,4
1470344210146551,-8,-10,-26,-7,-13,-12,-9,-7
1470344210167579,-4,16,21,27,19,-13,6,12
1470344210167579,0,0,-20,33,-8,9,-5,-12
1470344210168570,-6,0,-43,-54,1,-15,-2,5
1470344210168570,-5,8,-58,1,0,-7,-3,9
1470344210181617,-3,-26,-17,-35,3,7,-2,-6
1470344210181617,-11,-3,-101,-14,8,-15,-4,13
1470344210188635,-2,12,-26,41,14,1,2,0
1470344210188635,-1,-2,19,-5,13,-4,2,-6
1470344210212657,-2,-6,-17,25,2,-4,-6,-4
1470344210212657,-1,2,15,-41,4,-5,2,3
1470344210213659,2,13,8,11,7,-13,-1,6
1470344210213659,-2,-15,0,0,-13,-2,-9,-14
1470344210227671,-7,-5,-27,-13,-16,-12,-5,2
1470344210227671,0,-13,-82,-17,-4,-5,0,-2
1470344210228672,-2,-26,-10,-67,-42,8,0,-12
1470344210228672,-4,25,22,9,-8,-17,-4,13
1470344210240697,5,-13,-30,72,-2,12,5,-6
1470344210240697,0,0,59,24,-12,2,0,-13
1470344210249690,-2,-14,8,32,10,-5,-8,-6
1470344210249690,-4,1,44,-40,-8,-9,-5,-10
1470344210264717,2,16,38,1,11,-9,6,8
1470344210264717,0,15,-17,-1,-7,8,-4,4
1470344210266706,0,-9,-32,-18,-3,-9,-2,-6
1470344210266706,-2,10,17,10,26,5,5,3
1470344210287229,3,-4,20,-26,-9,8,-3,-14
1470344210287229,-1,17,11,19,19,-11,-5,3
1470344210289231,-4,6,12,-14,-6,1,1,-3
1470344210289231,8,-6,51,-1,-12,11,3,-18
1470344210300747,8,23,-11,5,7,-5,-3,6
1470344210300747,2,7,-1,54,2,1,-1,-3
1470344210309769,-5,-2,-21,-6,-2,-6,-4,6
1470344210309769,7,0,-2,10,-4,14,7,0
1470344210332780,0,20,68,-33,-6,-16,-2,2
1470344210332780,-3,-11,46,28,15,-6,2,-2
1470344210333777,4,3,21,-30,4,9,5,-9
1470344210333777,-3,-6,-15,-11,12,-12,-3,3
1470344210347842,0,-9,-17,-23,4,1,0,-5
1470344210347842,6,-10,14,3,-17,10,3,-23
1470344210348790,3,3,-26,18,-4,-5,-1,3
1470344210348790,0,1,13,16,4,-7,2,6
1470344210360831,-4,-10,-35,25,-2,-1,0,-4
1470344210360831,4,-8,8,-23,-2,5,2,-9
1470344210370809,2,0,17,10,7,-2,2,-3
1470344210370809,-1,-10,-6,1,1,-9,0,2
1470344210384368,3,-15,0,13,-9,13,0,-12
1470344210384368,0,9,-9,17,15,-9,-2,11
1470344210384871,2,-2,36,18,0,2,1,-2
1470344210384871,4,-2,-15,21,-7,17,5,-14
1470344210406852,-4,1,-21,31,1,-6,-13,-1
1470344210406852,-3,-24,-43,-54,-6,-2,-2,-3
1470344210406852,5,-8,-5,28,10,-2,2,-1
1470344210406852,-2,-37,-7,6,-15,8,-10,-13
1470344210429871,0,-10,1,-30,-15,-3,1,-6
1470344210429871,2,-11,18,64,-9,-4,-2,-2
1470344210430875,-3,-17,5,-18,-23,10,-4,-8
1470344210430875,-1,0,-4,1,-3,-12,-1,4
1470344210443883,-2,-1,-34,2,-11,-3,0,3
1470344210443883,4,-12,-2,-49,-22,9,-2,-16
1470344210444885,-4,15,11,17,4,-7,-1,9
1470344210444885,7,28,15,-12,6,-2,4,4
1470344210466905,-4,-8,19,8,10,-5,-3,-4
1470344210466905,3,4,15,-5,-3,1,0,4
1470344210466905,1,-18,-71,0,-3,-2,-3,-3
1470344210466905,-2,18,18,29,3,-7,-2,9
1470344210496943,0,-22,2,9,9,18,4,-12
1470344210496943,-5,16,3,-13,10,-15,-3,7
1470344210497945,-4,-4,-13,-17,4,-2,1,0
1470344210497945,3,-14,-14,10,-8,10,6,-9
1470344210503951,-3,9,-23,20,-6,-5,-6,7
1470344210503951,0,-8,8,-1,-2,-1,-2,-7
1470344210504952,1,-11,30,16,0,-8,-3,-13
1470344210504952,0,-15,-2,2,-5,4,-4,-2
1470344210526971,-6,-16,16,6,-9,-6,-2,-1
1470344210526971,-1,5,15,30,9,-11,1,15
1470344210526971,2,10,-4,-9,-23,7,-1,-2
1470344210526971,-8,7,-2,-4,8,-28,-5,11
1470344210549991,4,9,-12,20,17,-5,5,10
1470344210549991,-5,3,-15,-16,-3,5,0,-6
1470344210550993,-8,30,5,9,22,-6,-1,20
1470344210550993,-2,19,-18,60,12,-7,1,1
1470344210564005,0,18,-1,1,3,-6,2,1
1470344210564005,0,14,-3,11,7,-3,-2,8
1470344210565006,-7,1,-68,24,3,-14,-4,-1
1470344210565006,-5,9,-43,33,25,-3,0,12
1470344210612055,-2,2,-4,-6,-7,5,0,-8
1470344210612055,-6,-2,5,7,10,-15,2,2
1470344210613056,-2,-16,10,42,17,0,1,6
1470344210613056,-1,-42,6,-55,-28,2,-5,-14
1470344210618062,-1,-14,-11,13,18,-6,-2,10
1470344210618062,-4,-4,-17,23,-9,0,-3,-2
1470344210619062,-1,4,7,3,6,-6,-1,3
1470344210619062,-8,-12,-28,2,2,-1,-6,2
1470344210620063,2,4,-5,0,15,-7,2,6
1470344210620063,-8,29,-37,14,18,-17,0,15
1470344210623066,-2,3,-32,5,-5,14,-5,-9
1470344210623066,-8,-6,-42,-41,-4,-19,-6,-2
1470344210639079,-13,-8,-32,-60,-4,-14,-10,-2
1470344210639079,3,4,30,-16,6,11,3,-8
1470344210640081,-6,3,5,39,25,-17,-4,13
1470344210640081,0,-4,26,13,6,2,0,-7
1470344210671108,4,12,-7,2,-6,-2,0,-2
1470344210671108,-4,5,-14,7,-1,-5,0,9
1470344210672110,0,2,36,-21,-3,-1,-1,0
1470344210672110,-2,19,-30,25,18,-11,1,11
1470344210676114,-2,-22,1,2,-13,12,-2,-11
1470344210676114,3,-5,10,-7,8,-11,-2,1
1470344210683632,-3,-18,-23,-15,-6,2,0,-6
1470344210683632,2,4,25,7,-14,16,0,-12
1470344210699153,-5,6,-19,13,10,-13,1,12
1470344210699153,1,-11,-35,2,-11,1,-5,-9
1470344210700153,0,4,-15,1,-4,-4,2,-4
1470344210700153,-5,-21,-9,13,3,0,-3,2
1470344210715167,1,0,-14,52,13,5,4,-3
1470344210715167,-3,11,1,16,11,-13,2,4
1470344210721171,3,-11,26,10,-13,2,-4,-9
1470344210721171,0,8,47,0,5,-13,-1,3
1470344210736186,-3,-8,-42,-1,-1,-3,-6,-1
1470344210736186,0,-31,0,-22,-14,14,-1,-8
1470344210743191,-6,4,-61,40,16,-14,-4,6
1470344210743191,2,8,-21,-12,-2,1,3,3
1470344210759206,2,-3,-2,4,-1,-1,0,-8
1470344210759206,-1,-4,-14,14,5,1,-7,-1
1470344210760206,-2,-10,-25,-32,-7,-4,1,-3
1470344210760206,-1,3,-16,12,6,-8,-7,-1
1470344210775219,2,-5,8,-2,-10,12,0,-8
1470344210775219,0,-24,-46,23,12,-5,1,-7
1470344210781232,2,6,33,-15,0,-1,1,10
1470344210781232,6,-7,18,44,-8,20,3,-7
1470344210796245,0,27,37,14,6,-8,-5,11
1470344210796245,-3,8,-18,-30,-3,0,1,-3
1470344210803752,3,-13,17,-2,-6,6,-3,-22
1470344210803752,-1,-7,-19,13,10,1,-2,-1
1470344210826773,1,-1,-12,-15,-3,-1,0,-1
1470344210826773,3,10,-6,11,-2,-5,4,13
1470344210827774,1,10,4,27,-5,8,-5,-3
1470344210827774,1,10,8,9,13,-9,4,5
1470344210835280,3,16,-6,50,28,-6,1,5
1470344210835280,1,-4,10,-19,0,13,-1,-10
1470344210841287,-4,29,4,35,12,-13,-1,13
1470344210841287,2,-2,-8,-30,5,-3,-1,4
1470344210856300,6,-10,59,5,-24,8,3,-22
1470344210856300,-3,8,4,31,2,-3,-7,-4
1470344210863805,-10,-40,-32,-13,-12,-7,-6,-6
1470344210863805,-2,1,-31,9,-4,-7,1,5
1470344210879824,-1,-15,-3,-3,-11,12,-1,-2
1470344210879824,-1,0,2,4,-16,-7,-3,-4
1470344210880831,4,1,-3,-4,-2,-2,2,3
1470344210880831,-9,-20,19,-24,-30,5,-2,-14
1470344210894839,1,15,-19,5,16,-16,-2,15
1470344210894839,-1,11,16,27,13,-2,-3,3
1470344210900870,6,14,35,-11,3,10,5,-9
1470344210900870,-3,19,-21,23,15,-10,-3,16
1470344210915858,-8,10,-11,28,18,-7,-4,1
1470344210915858,-8,1,-32,19,18,-10,-1,10
1470344210923900,0,-1,2,11,7,3,-2,2
1470344210923900,1,-17,-13,8,14,-7,-3,-3
1470344210938911,-7,-1,-36,34,12,-7,-1,9
1470344210938911,0,-16,-46,-35,-29,4,-4,-8
1470344210939879,-8,-11,-46,7,2,-12,1,9
1470344210939879,-1,10,22,-27,0,-2,2,6
1470344210954890,0,-11,13,-4,-14,8,0,-9
1470344210954890,-10,0,-12,11,20,-12,-4,21
1470344210961472,-1,19,-8,9,17,-1,0,2
1470344210961472,-7,17,-46,13,15,-11,-4,2
1470344210976051,-1,5,-7,-11,-5,3,0,-3
1470344210976051,-1,11,1,38,10,-1,-2,-3
1470344210983032,0,3,-15,-10,-3,-10,-2,6
1470344210983032,0,-16,-7,3,-11,14,-5,-10
1470344211000092,-7,0,-13,-5,16,-16,-1,8
1470344211000092,4,-1,7,-13,1,2,4,-3
1470344211001048,0,25,28,-23,-9,6,-1,-4
1470344211001048,-1,12,-6,23,8,-6,1,11
1470344211015061,-1,-8,-23,-17,-7,-7,-4,-1
1470344211015061,1,2,-15,2,4,-7,7,0
1470344211021107,0,-11,-5,19,1,4,-5,-10
1470344211021107,-3,-15,-8,1,7,3,3,-7
1470344211036159,-3,11,-23,1,-3,-6,-2,6
1470344211036159,0,-11,21,-15,-8,11,-2,-9
1470344211052135,-2,-8,23,42,13,-15,2,9
1470344211052135,-6,-1,6,1,-7,-5,-6,-3
1470344211067213,0,-17,28,-21,-16,7,-1,-9
1470344211067213,-5,6,-9,22,2,-7,-3,0
1470344211067655,3,-8,-7,-1,6,3,0,1
1470344211067655,0,-5,-1,9,2,-8,2,-2
1470344211089901,4,-3,0,10,2,10,-2,-4
1470344211089901,-3,-7,-21,-7,-2,-6,-2,-4
1470344211090861,-2,1,-51,19,5,-5,-1,6
1470344211090861,6,-5,-10,-2,-11,9,-5,-13
1470344211103872,-5,3,-30,16,1,-14,-5,8
1470344211103872,-4,-15,-4,-14,0,-2,1,4
1470344211104874,-1,-9,6,-12,-12,3,-2,-12
1470344211104874,-1,9,-29,17,14,-3,2,13
1470344211126939,-1,3,-4,5,3,-4,1,-3
1470344211126939,6,-2,13,5,-4,-3,-1,-2
1470344211126939,-4,-11,1,8,3,1,-4,-3
1470344211126939,-2,-9,3,-6,-7,-7,-3,-7
1470344211156920,-3,9,-25,6,14,-5,4,8
1470344211156920,2,3,-3,0,-8,11,-5,-8
1470344211157921,3,6,9,29,16,-7,3,1
1470344211157921,2,13,23,-4,5,-1,-1,6
1470344211164496,3,-26,-36,0,-9,12,-3,-20
1470344211164496,-1,11,-37,28,15,-8,-2,11
1470344211164937,-2,-5,-7,-20,-2,0,1,-4
1470344211164937,0,7,-5,8,-2,-2,1,-1
1470344211186552,-1,6,7,6,5,1,1,11
1470344211186552,-5,6,-6,44,16,-2,1,3
1470344211187473,-1,12,-19,30,16,-10,0,8
1470344211187473,1,-32,-7,6,-15,12,-5,-14
1470344211209492,0,6,9,-9,3,-11,-2,-1
1470344211209492,0,-5,24,1,-2,0,0,0
1470344211210524,0,-8,48,-2,-12,8,-2,-12
1470344211210524,-4,17,-15,23,13,-13,3,13
1470344211224506,-4,-15,4,-1,-3,-1,-3,-5
1470344211224506,-2,-6,28,-5,-4,-3,-1,-1
1470344211224506,-5,1,-5,6,2,3,-3,5
1470344211224506,-1,0,-9,6,2,0,1,-2
1470344211246528,-5,12,-2,17,18,-9,0,4
1470344211246528,1,-5,0,-11,-13,11,-2,-8
1470344211247528,-2,3,-5,6,4,-10,0,1
1470344211247528,-3,2,0,11,4,-2,0,-1
1470344211270127,3,-10,11,-20,-20,10,-1,-9
1470344211270127,-3,5,-14,16,15,-13,1,11
1470344211270609,0,-4,-13,1,-2,0,-2,-1
1470344211270609,3,3,5,1,0,0,0,-7
1470344211284683,-3,3,0,11,5,-1,-3,5
1470344211284683,3,-5,-3,-19,-7,-2,-1,-2
1470344211284683,-3,0,-3,8,2,-12,0,1
1470344211284683,0,-5,0,-2,-7,11,-1,-5
1470344211306670,-2,5,1,12,8,-12,1,1
1470344211306670,-3,3,-10,6,4,-4,-4,1
1470344211307669,3,-10,0,-15,-14,10,-1,-10
1470344211307669,-3,15,-15,21,17,-14,0,12
1470344211329717,1,2,-5,3,2,-6,-1,-1
1470344211329717,-1,-5,11,-3,-3,2,0,-17
1470344211330689,2,0,-15,7,7,-2,-6,3
1470344211330689,-1,-5,-2,-3,0,-3,-3,-2
1470344211343732,-4,3,-1,8,6,-11,1,4
1470344211343732,-1,-4,-2,-3,-8,10,-3,1
1470344211344703,1,0,0,6,3,-7,0,-2
1470344211344703,-3,2,-12,14,8,0,-2,3
1470344211366799,6,-7,5,-16,-13,8,-3,-9
1470344211366799,-4,9,-19,19,14,-11,-1,11
1470344211367744,-3,0,-7,2,1,2,1,-3
1470344211367744,2,-12,22,-15,-18,0,-2,-12
1470344211390428,-1,2,-13,15,8,2,0,2
1470344211390428,-3,-4,-3,-4,-8,-9,1,-5
1470344211390428,-3,5,-14,5,4,-10,1,6
1470344211390428,-3,-3,-2,1,-5,1,-3,2
1470344211404425,0,0,5,6,3,-6,1,-4
1470344211404425,-2,3,-4,9,2,-2,-2,1
1470344211405427,2,-4,8,-11,-13,8,-2,-8
1470344211405427,-4,7,-13,16,14,-11,0,10
1470344211426522,-5,-6,-3,-1,0,2,-1,-2
1470344211426522,7,-13,25,-18,-12,10,-4,-15
1470344211427446,-6,1,-12,12,9,-8,-2,10
1470344211427446,-2,-3,0,-5,-2,2,-1,-5
1470344211449508,-3,1,-17,11,4,-9,-1,6
1470344211449508,2,3,-6,2,0,-6,-1,3
1470344211450492,-3,-5,4,-4,1,-2,0,-1
1470344211450492,-1,0,-3,5,6,-2,1,0
1470344211464492,0,-2,-1,-6,-7,4,-3,0
1470344211464492,-4,3,-14,13,9,-17,2,5
1470344211464990,0,3,4,-3,-3,2,1,-3
1470344211464990,6,-14,4,-16,-15,18,-3,-22
1470344211487041,1,9,-4,10,7,-13,0,10
1470344211487041,-2,-2,-6,-4,-7,-1,-2,-2
1470344211487041,-4,-2,-15,8,3,2,-1,-5
1470344211487041,-2,2,-2,3,-3,-9,-1,7
1470344211510068,0,-8,5,-10,-9,-2,-1,-4
1470344211510068,-2,3,2,4,5,0,0,-3
1470344211510068,0,-5,0,-5,-8,9,-2,-1
1470344211510068,-3,6,-9,9,13,-17,0,7
1470344211524109,-1,-1,7,-5,-6,2,0,-5
1470344211524109,2,-8,11,-12,-14,18,-4,-17
1470344211525072,-3,9,-19,2,5,-19,1,16
1470344211525072,-2,-1,3,2,-4,-1,1,-3
1470344211547172,-3,-6,-7,6,0,8,-1,-7
1470344211547172,-3,2,-5,1,3,-9,-4,7
1470344211547172,0,-5,8,-10,-3,-1,-1,-11
1470344211547172,0,-1,1,-5,-1,3,-2,-3
1470344211570675,-1,2,-2,-1,-4,8,-1,-2
1470344211570675,-5,8,-7,10,10,-12,3,6
1470344211571177,0,-8,-7,-5,-6,0,-3,0
1470344211571177,2,-8,0,-11,-16,15,-4,-11
1470344211584006,-4,14,-14,10,14,-20,3,17
1470344211584006,1,-4,9,-13,-7,-1,1,-3
1470344211584963,3,-5,20,-6,1,17,-3,-13
1470344211584963,-2,0,-12,3,3,-12,-1,10
1470344211606982,-2,-4,4,-13,-6,-3,-2,-9
1470344211606982,1,0,-4,5,4,2,0,0
1470344211606982,-1,-3,0,2,-3,2,-4,5
1470344211606982,-3,3,0,-1,8,-15,3,1
1470344211630003,-2,-3,7,-4,-6,2,-4,-6
1470344211630003,4,-15,-1,-13,-14,18,-5,-8
1470344211631004,-3,19,-28,16,17,-22,1,13
1470344211631004,-1,4,8,8,-1,2,-3,-2
1470344211643016,4,-17,14,-26,-15,14,0,-14
1470344211643016,-7,11,-12,19,14,-10,0,10
1470344211652023,0,-6,6,-7,-5,2,0,-6
1470344211652023,1,0,-8,2,-1,2,0,0
1470344211667043,-1,-1,-10,10,-1,0,-5,7
1470344211667043,-3,4,1,-5,7,-12,2,2
1470344211667544,-4,-1,0,-1,-3,-1,1,-7
1470344211667544,0,-11,9,-20,-18,14,-1,-8
1470344211690089,-6,-12,-17,12,18,-15,1,12
1470344211690089,1,8,2,-8,-5,4,-2,-3
1470344211690089,0,-14,20,-17,-22,6,-4,-12
1470344211690089,-6,15,-25,17,20,-11,-2,14
1470344211703083,1,1,-1,-7,3,5,-4,-5
1470344211703083,0,-7,-2,-7,-6,-1,4,-4
1470344211712090,-1,2,-9,4,-1,0,-1,5
1470344211712090,-2,-5,-1,0,3,-8,-4,-7
1470344211726102,-1,-8,0,-4,-7,2,-2,-4
1470344211726102,0,-3,15,-7,-8,13,-5,-5
1470344211727103,-4,15,-25,12,18,-15,2,9
1470344211727103,-3,-11,22,-14,-9,0,0,-4
1470344211750123,3,9,15,-11,-19,8,-3,-15
1470344211750123,0,5,-32,22,19,-12,2,13
1470344211750123,-3,-9,10,-12,-5,-1,-1,-4
1470344211750123,1,-2,-3,-5,-2,2,1,-2
1470344211763642,-1,7,-4,7,4,-1,-2,3
1470344211763642,-1,-1,3,-2,3,-5,5,-5
1470344211771650,1,0,2,0,-3,2,-8,-2
1470344211771650,3,-4,-3,-7,-12,11,-3,-2
1470344211786168,-6,2,-12,11,14,-14,1,7
1470344211786168,0,-4,-3,6,-6,1,0,-9
1470344211787168,-2,-9,10,-24,-17,8,-1,-5
1470344211787168,-4,8,-23,21,17,-12,4,4
1470344211810189,-1,4,7,-3,1,0,2,-4
1470344211810189,2,-3,3,-8,-7,1,-5,-5
1470344211810189,-2,-7,-12,3,8,0,0,6
1470344211810189,-3,-1,5,1,-3,-3,-1,-3
1470344211823203,-2,-10,-4,-6,-8,-2,-3,0
1470344211823203,0,-6,-2,-11,-17,2,-8,-6
1470344211831209,-1,3,-7,11,23,1,4,3
1470344211831209,-4,1,4,-5,-6,0,-1,-3
1470344211846226,1,-17,7,-16,-16,9,-2,-11
1470344211846226,-9,1,-17,11,11,-10,0,11
1470344211847222,4,2,1,4,-8,-2,-1,-4
1470344211847222,2,-5,11,-9,-3,-1,-2,-3
1470344211870247,-3,3,-12,10,3,-3,-3,3
1470344211870247,1,0,4,-3,-2,-2,0,-2
1470344211870749,0,0,7,1,-4,0,0,-4
1470344211870749,-5,-3,-2,-6,-5,6,3,-2
1470344211883267,-4,6,-10,6,8,-12,-3,7
1470344211883267,-1,-1,18,6,-2,2,0,-4
1470344211891273,-1,-2,-3,-11,-13,4,-6,-5
1470344211891273,2,7,-7,8,12,-5,2,7
1470344211906286,-1,-6,-9,-2,-4,2,3,-6
1470344211906286,-2,3,13,-11,-2,2,-1,0
1470344211907286,-1,-4,-3,18,1,-1,0,-2
1470344211907286,0,-2,0,-3,-4,-3,-2,-1
1470344211929307,3,-14,3,-1,-2,2,1,-1
1470344211929307,3,1,-15,-15,-10,6,-2,-1
1470344211930307,-2,-1,-2,12,10,-8,3,4
1470344211930307,2,-6,-6,-6,-3,-1,-4,-3
1470344211943319,2,-3,14,-7,-11,8,-2,-10
1470344211943319,-3,4,0,3,4,-7,-3,5
1470344211951327,-4,-9,-11,-8,-6,-3,-4,-5
1470344211951327,2,-6,10,6,1,-1,-2,-2
1470344211966845,-1,13,0,-4,3,1,-1,3
1470344211966845,0,-8,-2,1,-2,-2,-2,-4
1470344211967350,-2,1,3,-6,-3,-3,-2,-1
1470344211967350,0,-5,-4,-7,-3,2,-4,-3
1470344211989371,-1,6,-5,4,7,-7,-3,0
1470344211989371,-2,1,0,-1,4,-1,-1,-2
1470344211996377,0,2,14,-9,-8,4,0,-3
1470344211996377,-3,2,-4,6,0,-3,0,-1
1470344212012391,0,2,1,2,0,-3,2,2
1470344212012391,-2,-4,-2,0,2,-3,-2,2
1470344212013394,-1,11,4,2,0,-1,1,1
1470344212013394,-2,-8,-9,-6,-4,-2,-3,-2
1470344212026404,-2,1,-2,-1,4,-4,-2,0
1470344212026404,-3,-4,-13,-2,-7,2,-1,-1
1470344212027405,2,5,-4,7,4,-6,-2,2
1470344212027405,2,-6,1,-3,-1,2,-1,0
1470344212049424,3,2,6,-6,-4,3,3,0
1470344212049424,-3,1,-23,-5,-1,-3,-1,-4
1470344212050426,0,0,2,-2,1,-4,2,0
1470344212050426,-1,6,-2,6,0,-1,-5,1
1470344212072451,3,-9,-8,6,-3,-3,0,1
1470344212072451,-5,-5,8,-2,1,0,0,-3
1470344212073451,-5,-2,-6,-4,-6,-4,-2,-2
1470344212073451,-1,-3,2,-12,0,1,-1,1
1470344212086469,-3,3,3,11,0,-6,2,1
1470344212086469,-3,-9,-1,-2,2,-5,-1,-1
1470344212087470,6,0,10,-2,-4,4,-1,-3
1470344212087470,-6,-7,-16,6,0,-6,-3,1
1470344212109490,-3,17,8,-4,0,2,-2,-2
1470344212109490,0,-2,-7,-1,-2,0,5,-1
1470344212110491,-1,-4,-11,-3,-3,3,-9,-3
1470344212110491,0,0,9,-2,-2,-1,3,3
1470344212132510,-4,-8,0,-5,-1,-3,-1,-2
1470344212132510,1,2,16,16,3,-2,-2,-1
1470344212133511,-2,2,2,-2,3,-4,0,1
1470344212133511,3,5,-1,7,-3,0,-2,-1
1470344212146523,0,-10,-6,-30,-9,4,-1,-4
1470344212146523,0,6,1,6,4,-5,0,1
1470344212147525,1,-7,-3,-8,1,1,0,-1
1470344212147525,1,0,4,-7,-4,1,-3,-7
1470344212170049,-1,2,1,6,2,-1,0,0
1470344212170049,2,-3,-1,1,-1,-1,-3,-5
1470344212170550,-6,-8,-1,-5,-1,-2,0,-1
1470344212170550,0,3,3,-2,0,2,2,1
1470344212192574,-2,4,-7,-1,1,-5,-5,1
1470344212192574,0,-6,-1,0,1,-1,-1,0
1470344212192574,1,-2,1,1,-10,1,-2,-4
1470344212192574,0,-2,-4,6,7,-6,-3,1
1470344212214595,-2,-2,0,0,-2,1,3,-3
1470344212214595,0,-3,7,-12,-8,3,-2,-4
1470344212215596,-1,3,-1,5,3,-2,-1,3
1470344212215596,-3,-4,-5,-2,-5,-2,5,-7
1470344212229607,6,2,1,0,-2,-1,-3,-2
1470344212229607,0,-8,-3,-9,-4,2,1,3
1470344212230608,0,-12,-5,3,-2,-2,-1,0
1470344212230608,-3,8,-3,-5,-4,-2,-1,-2
1470344212252629,2,-9,5,0,-2,1,-4,0
1470344212252629,-4,4,-3,5,4,-4,0,0
1470344212252629,0,-2,-3,-4,-1,1,1,1
1470344212252629,2,-5,4,-6,-6,-1,-1,-1
1470344212266661,-3,0,-3,5,4,-3,0,1
1470344212266661,0,3,1,-2,4,0,1,0
1470344212267646,0,3,-3,-1,-3,1,-2,1
1470344212267646,-2,0,-3,-2,-4,-2,-1,-5
1470344212289684,-3,1,-2,1,0,-3,-4,0
1470344212289684,1,2,-14,-13,-2,0,-2,0
1470344212290685,-6,-8,-3,-1,-5,4,-3,-4
1470344212290685,-2,0,-3,1,5,-5,0,2
1470344212312750,-1,6,3,7,-3,-2,-1,-2
1470344212312750,-2,5,7,-2,0,0,1,-1
1470344212312750,2,2,-7,1,2,-3,-1,-1
1470344212312750,-3,-3,8,1,-1,0,0,0
1470344212326718,1,-2,-2,0,1,-1,-2,-5
1470344212326718,3,1,-1,1,-1,1,-4,-1
1470344212327720,1,5,-1,1,0,-1,1,-2
1470344212327720,-3,-7,-2,1,-4,-2,-2,0
1470344212349737,0,-10,-2,-2,-4,1,2,0
1470344212349737,2,4,0,-2,-1,-5,-1,-1
1470344212350738,-2,-7,0,-5,-1,0,-3,1
1470344212350738,-1,1,-1,2,-1,1,-2,-2
1470344212372262,-1,-2,-6,-1,4,1,-2,3
1470344212372262,0,-5,1,-1,-3,-1,-3,0
1470344212373263,0,2,-4,1,0,-1,1,0
1470344212373263,0,3,-3,-3,-2,0,-2,-2
1470344212386782,-2,-3,3,0,-1,-4,0,-4
1470344212386782,-4,-4,5,0,2,-2,0,-3
1470344212387783,2,-2,1,-1,-3,-1,0,-4
1470344212387783,1,4,-3,2,-2,-1,-3,0
1470344212409803,0,-1,-3,0,-1,-1,2,-2
1470344212409803,-3,-5,-1,-1,-3,0,1,2
1470344212410804,0,8,-6,5,-2,-3,-2,-2
1470344212410804,0,-7,-6,-6,-3,1,-1,1
1470344212432823,-1,7,4,5,2,-1,-3,-2
1470344212432823,3,-3,-1,-6,-3,-2,-2,1
1470344212433824,-3,-1,0,6,0,-1,0,-1
1470344212433824,-4,0,0,3,2,-1,2,1
1470344212446834,-3,0,-7,-9,-1,0,-3,0
1470344212446834,-1,-2,-3,7,2,3,1,1
1470344212447836,2,0,0,-6,2,-3,0,0
1470344212447836,-2,2,1,-3,-3,-2,-1,-1
1470344212469862,1,-2,0,-1,0,-2,-1,-2
1470344212469862,-4,-5,-5,0,-3,0,-1,-3
1470344212471862,-2,-5,-2,-7,3,0,1,1
1470344212471862,-2,11,2,2,1,0,-1,-3
1470344212492406,0,-9,-1,0,-1,-1,1,2
1470344212492406,-1,1,1,7,1,0,1,-4
1470344212493407,-1,-2,5,-4,-6,-1,-7,-5
1470344212493407,-2,1,-5,-1,3,0,-1,4
1470344212505419,-8,-6,-4,-1,-4,-2,2,-3
1470344212505419,0,2,-1,-6,-4,1,-1,-7
1470344212514427,-5,4,6,-5,1,-1,0,-1
1470344212514427,-1,-5,-4,4,-1,-1,-1,-2
1470344212529439,-1,1,2,-3,0,-2,-2,-2
1470344212529439,0,-1,-2,-4,-6,-1,-3,1
1470344212531443,2,2,-4,-1,-1,-2,0,-4
1470344212531443,3,-3,0,-2,2,0,-1,-1
1470344212552490,1,-4,-8,-1,-5,2,-2,-2
1470344212552490,-2,2,5,1,0,-4,-2,2
1470344212554496,-6,-1,3,-3,-2,-1,0,-1
1470344212554496,1,-7,0,-8,-5,1,0,-2
1470344212566521,0,-8,-1,5,0,-3,-3,-2
1470344212566521,0,-4,-6,-4,-2,1,-3,0
1470344212574997,-2,3,-1,2,1,-4,-2,2
1470344212574997,0,-4,-2,-1,-4,-1,-4,0
1470344212590024,-2,1,0,2,0,-1,-1,-3
1470344212590024,-1,-4,1,-4,0,-2,-2,-2
1470344212592033,1,-6,-2,-1,-5,-1,-1,-1
1470344212592033,-3,-7,-7,1,-1,-2,-1,3
1470344212612063,2,3,3,3,-2,-2,0,-4
1470344212612063,-1,-3,2,-6,-2,-1,-1,1
1470344212614037,3,0,-5,-6,-2,0,0,-3
1470344212614037,2,-4,1,-1,0,-2,-3,-1
1470344212626049,1,8,-3,0,0,-4,-2,3
1470344212626049,-1,-1,0,6,1,-1,-2,0
1470344212635055,-2,-4,0,-2,-3,2,0,-1
1470344212635055,-1,5,1,1,1,-1,2,-1
1470344212650130,-1,9,-4,-1,-6,0,-3,-1
1470344212650130,-7,-4,-5,-1,0,-2,-1,-1
1470344212651069,0,0,0,8,1,-3,1,-1
1470344212651069,1,-2,-4,-6,-1,0,-2,-1
1470344212672637,2,-9,2,-4,-1,-1,0,1
1470344212672637,0,8,-1,3,-1,-2,0,-2
1470344212678149,1,7,-5,1,2,0,-4,0
1470344212678149,-8,-8,7,2,-2,-1,-1,-3
1470344212686154,-2,-6,1,0,-2,0,-1,0
1470344212686154,4,10,-2,-2,-5,-2,0,-3
1470344212695162,0,-3,1,-6,-1,-2,-2,-3
1470344212695162,1,5,-7,10,1,-3,-2,-3
1470344212710176,-3,-6,0,-11,1,1,0,1
1470344212710176,-2,0,-8,6,-3,0,0,-2
1470344212711177,-2,-1,-8,-4,3,-1,-2,1
1470344212711177,0,-2,5,-2,-1,-1,-3,-3
1470344212732197,-3,6,1,-1,-2,-2,0,-5
1470344212732197,-1,-2,9,3,-1,1,0,-1
1470344212734199,-2,-8,-4,-3,-5,-2,-1,-1
1470344212734199,-5,-2,5,2,-5,-3,-2,-2
1470344212746208,2,4,-3,-3,1,3,0,2
1470344212746208,5,-12,0,-5,1,-1,-2,1
1470344212755217,-5,-1,-6,0,-3,1,-3,-3
1470344212755217,0,-3,2,-6,-5,-2,-1,-2
1470344212771236,1,3,-2,2,3,-2,1,3
1470344212771236,-1,-1,2,-3,-2,-3,0,-2
1470344212776240,1,-1,8,-1,2,-4,1,3
1470344212776240,-3,1,-4,-3,-1,2,0,-4
1470344212792276,-3,-6,4,5,-2,-2,-4,-1
1470344212792276,-1,8,-5,-2,-1,-1,-2,-1
1470344212798277,0,-1,1,1,-1,-1,-2,-2
1470344212798277,2,4,-2,-3,1,-3,-1,-1
1470344212806273,2,1,-5,0,-1,-1,0,-1
1470344212806273,-5,-4,-1,-1,-2,2,1,-1
1470344212815281,0,-5,-2,-2,-2,0,-2,-3
1470344212815281,-1,1,-6,0,1,0,1,1
1470344212829293,-3,-5,-7,-2,-2,0,-2,1
1470344212829293,-3,-1,-1,2,0,-1,-3,0
1470344212831294,0,0,-4,1,0,-2,2,0
1470344212831294,-1,1,-1,-5,-1,0,0,-1
1470344212852315,2,1,2,3,-2,1,-2,-5
1470344212852315,1,7,-3,2,2,-4,1,1
1470344212854317,-2,-10,1,-2,-4,-2,-2,1
1470344212854317,1,-8,-1,-2,-3,-2,1,-1
1470344212866333,-5,6,-3,7,5,-2,1,0
1470344212866333,-1,1,-7,-2,-4,0,-1,-2
1470344212882174,1,1,5,-2,-1,1,0,-1
1470344212882174,-5,1,-15,0,-1,3,-2,0
1470344212890182,3,-7,-5,1,-2,-4,0,-2
1470344212890182,2,-2,3,-4,0,-3,-1,3
1470344212891183,1,5,-2,0,-2,-3,0,-1
1470344212891183,-2,5,3,2,-2,-3,-2,-2
1470344212912201,-2,2,-3,-1,0,-1,-2,4
1470344212912201,-3,-7,6,-11,-6,0,-3,-4
1470344212914204,1,-4,-4,12,2,0,-1,2
1470344212914204,0,-5,5,-6,-1,0,1,-2
1470344212935221,0,-3,3,3,-1,0,-3,0
1470344212935221,-1,-2,-5,-7,-1,-4,-2,0
1470344212936224,-2,0,1,1,-4,-3,0,-2
1470344212936224,5,-3,-1,4,5,-2,-2,-1
1470344212949234,-2,-2,0,-6,-5,0,-2,-4
1470344212949234,0,-9,-2,1,0,1,1,-1
1470344212956240,-2,5,7,-1,0,-2,-2,-3
1470344212956240,0,-21,4,-6,-7,-1,-2,-1
1470344212972259,-3,9,-2,-6,-3,-6,-4,-2
1470344212972259,2,-4,-1,1,4,1,-2,0
1470344212974261,-1,-2,-2,-6,-3,-1,-1,-4
1470344212974261,3,0,6,2,0,-2,-1,-1
1470344212995284,0,-1,4,0,-1,0,2,-1
1470344212995284,-3,-2,-6,-4,-5,-3,-9,5
1470344212996284,-5,0,1,-1,-2,4,-3,0
1470344212996284,1,5,-1,2,2,1,9,2
1470344213010297,-3,-2,-1,-5,1,-2,1,1
1470344213010297,1,6,-2,2,-2,0,1,-2
1470344213011299,-1,-2,-7,0,1,-4,-4,2
1470344213011299,-4,-2,-1,-4,-2,1,-1,-2
1470344213032319,2,-5,1,-2,-6,-1,0,0
1470344213032319,-3,-6,-2,-2,-1,-1,0,-3
1470344213034319,1,-4,2,-2,-4,-2,0,-2
1470344213034319,1,0,-6,-1,0,-2,-3,-1
1470344213054337,1,-3,-2,-1,-1,0,-2,-1
1470344213054337,-2,7,4,3,2,-2,-2,-1
1470344213056338,-3,-8,-17,-1,0,1,2,-2
1470344213056338,-2,1,-1,2,-4,-3,-4,0
1470344213070355,-6,-2,-3,-2,1,-1,-1,1
1470344213070355,4,2,-6,-1,0,-1,2,-2
1470344213071856,0,8,10,2,0,2,-1,-1
1470344213071856,2,3,1,5,-1,-3,-1,-2
1470344213092378,-3,3,-5,-4,-2,0,-4,-3
1470344213092378,-2,-8,0,7,0,1,-1,0
1470344213094382,2,0,0,-4,-4,0,1,-1
1470344213094382,-4,1,0,-5,0,-1,-2,0
1470344213114398,3,-3,-1,0,-1,0,-2,0
1470344213114398,0,0,5,-3,-4,0,0,-3
1470344213116401,-3,-3,-3,1,0,-2,2,-1
1470344213116401,0,1,3,2,-2,0,0,0
1470344213129412,3,-5,5,-6,-2,0,-8,-2
1470344213129412,-10,0,-1,11,1,-2,1,-2
1470344213136419,-2,2,-1,-6,0,-2,-3,0
1470344213136419,-2,-2,-4,-1,1,-1,0,-1
1470344213152432,2,-9,-5,-10,-2,0,1,-2
1470344213152432,1,1,-1,-3,0,0,-1,-1
1470344213153434,2,4,6,5,-2,-1,-3,0
1470344213153434,0,3,-7,-8,-3,0,-4,-1
1470344213174960,-3,10,-6,3,0,-4,0,1
1470344213174960,-3,2,3,-2,-2,2,-4,2
1470344213175961,-1,-5,-4,-2,-4,1,3,-2
1470344213175961,-1,1,-4,5,5,-1,-4,0
1470344213189198,-2,1,-4,1,0,1,3,-2
1470344213189198,0,-4,-2,-1,-1,-5,1,1
1470344213196203,-3,-1,-5,-3,0,-2,-1,-3
1470344213196203,-2,0,8,0,-3,-3,-3,0
1470344213212219,0,-5,0,3,-1,-2,-1,-1
1470344213212219,2,-3,0,-2,-3,1,0,-1
1470344213214220,1,-2,-1,0,0,-2,-1,-2
1470344213214220,-1,0,-4,-3,-4,-2,-2,-1
1470344213235239,-4,-11,5,-4,1,-3,1,1
1470344213235239,2,5,-6,4,4,-1,-1,0
1470344213236240,-1,-2,3,3,3,-3,-2,-2
1470344213236240,-2,5,-1,-3,-2,1,-3,-3
1470344213249251,1,3,-2,3,-3,1,-2,-3
1470344213249251,1,-1,2,-1,-1,-1,-1,2
1470344213256258,-1,-4,2,3,-1,-2,-2,1
1470344213256258,1,-4,4,-5,0,-3,0,-3
1470344213272775,1,9,-1,1,-2,-3,-3,1
1470344213272775,-3,-9,-6,0,-1,0,-2,-3
1470344213274278,0,-3,0,1,-4,-1,1,-4
1470344213274278,0,-3,-1,-1,2,0,0,0
1470344213295299,-3,-4,4,4,-2,0,0,-5
1470344213295299,-2,-3,-7,-4,-3,0,-3,-3
1470344213296300,2,7,-1,-5,-4,0,1,0
1470344213296300,-1,-6,1,-3,-3,-2,-1,-2
1470344213309312,0,-1,1,-4,2,-1,-5,3
1470344213309312,0,-10,-1,-2,-5,0,0,-2
1470344213316318,-3,-2,0,-5,1,-2,2,-1
1470344213316318,-2,5,0,-2,0,1,-6,1
1470344213332332,-3,-3,0,3,-1,-1,5,-2
1470344213332332,-4,0,1,0,2,-4,-3,1
1470344213334334,1,-2,0,-2,-1,0,-3,-3
1470344213334334,-2,-7,5,2,-2,0,0,-3
1470344213355353,0,7,2,0,-3,-1,-1,-3
1470344213355353,-1,-4,1,-4,0,1,6,2
1470344213356354,1,-1,-2,1,0,-1,-11,0
1470344213356354,2,-2,0,-4,-3,0,2,0
1470344213368884,-5,-5,-4,-1,1,-2,-1,2
1470344213368884,-1,7,4,2,-2,-1,4,-2
1470344213377383,-1,-1,-4,1,0,1,0,-2
1470344213377383,0,0,-8,3,0,-1,-1,-1
1470344213392395,1,-3,-1,-1,-3,-1,-3,1
1470344213392395,1,7,-3,3,1,1,-2,-2
1470344213394397,-6,-9,-6,0,-3,-4,2,0
1470344213394397,-1,-3,-1,-2,-2,-1,-1,1
1470344213414415,-2,3,0,2,3,-4,0,-1
1470344213414415,-2,0,1,-3,-3,-1,-6,-3
1470344213416418,-2,-5,-2,-5,0,-4,2,-1
1470344213416418,0,1,-1,1,0,-2,1,1
1470344213428429,-3,-7,-2,-4,-5,2,-3,-1
1470344213428429,1,3,-4,0,-1,-4,-2,-2
1470344213437435,-1,-3,5,2,0,1,-1,1
1470344213437435,1,-2,-2,1,-2,-2,1,-4
1470344213452449,1,1,-5,-3,-4,0,-1,1
1470344213452449,-1,0,1,1,-1,-2,-4,-2
1470344213453449,0,1,-2,-2,2,-1,-1,-2
1470344213453449,-2,1,3,-3,-1,1,1,-1
1470344213474977,-1,-6,-4,2,-1,-1,-3,-3
1470344213474977,-4,-2,-1,0,-1,-3,-9,-1
1470344213475976,-2,-19,-9,-4,-2,0,0,0
1470344213475976,-3,6,3,3,-1,1,1,-2
1470344213488343,-2,-3,2,-2,2,0,1,-3
1470344213488343,1,-2,-4,-6,-1,-1,-1,-3
1470344213497351,-2,0,0,4,0,-3,-3,1
1470344213497351,-4,-8,-6,-3,-2,1,-3,1
1470344213512365,-1,-1,0,-4,-3,-2,1,-1
1470344213512365,-1,-1,9,-4,-1,-1,0,-1
1470344213514366,0,2,-4,-7,-4,-2,-2,0
1470344213514366,-1,-3,-2,3,1,-2,1,-4
1470344213534384,1,3,1,-1,-4,1,-3,-2
1470344213534384,-3,-3,-7,4,1,0,1,0
1470344213536386,-3,3,5,-6,-1,0,1,-3
1470344213536386,0,-5,-3,-3,-3,-4,-4,0
1470344213548396,0,0,3,5,2,1,-2,1
1470344213548396,-3,-10,2,-4,0,0,2,0
1470344213557404,0,4,-4,2,2,-1,-3,-1
1470344213557404,1,-1,-2,-4,-2,-2,-3,-2
1470344213572421,0,-1,3,1,0,-1,0,-1
1470344213572421,0,3,-3,-2,0,-1,1,0
1470344213573923,1,-10,1,-6,-2,2,-1,0
1470344213573923,-4,-1,-4,3,2,-3,-1,0
1470344213594393,-1,-4,2,-2,-3,0,-1,-2
1470344213594393,3,5,-7,-4,-5,0,0,0
1470344213596395,1,0,5,1,-3,0,-1,-1
1470344213596395,-2,0,1,0,-1,-4,-2,-3
1470344213608404,-3,-6,-10,2,1,0,-1,3
1470344213608404,1,-1,-1,-1,-1,-2,0,-4
1470344213617414,0,2,2,-1,-6,-2,-2,-3
1470344213617414,0,1,1,1,0,-1,-1,-2
1470344213632426,0,-4,-6,-3,-1,-1,2,-3
1470344213632426,-4,-6,-3,0,-2,-2,-3,1
1470344213633427,-2,5,-3,0,1,0,-2,-3
1470344213633427,0,-3,2,-4,-1,1,-2,-2
1470344213654445,-1,-1,-3,-1,-6,1,1,-5
1470344213654445,0,4,3,-1,0,0,-1,0
1470344213656448,-1,1,-3,1,2,-1,2,-1
1470344213656448,-4,-1,0,4,-2,-1,-1,-2
1470344213668463,-4,1,-1,-2,2,-3,0,1
1470344213668463,-1,1,3,6,-2,-1,0,0
1470344213676997,-1,2,3,-6,-7,-1,-1,-4
1470344213676997,0,1,-6,-4,0,-2,-1,1
1470344213692011,1,-2,-1,-2,1,-1,-3,3
1470344213692011,-1,2,7,-2,-6,-2,-2,-6
1470344213694013,-1,-3,4,1,0,0,0,-2
1470344213694013,1,1,-6,-1,1,-1,0,2
1470344213715033,-1,-4,-7,-2,-2,-3,-4,0
1470344213715033,0,-4,-2,-3,1,-1,0,1
1470344213716034,3,2,1,2,3,-2,5,0
1470344213716034,-2,-2,-1,0,-3,0,-10,-1
1470344213728045,-3,-2,0,-5,-3,-1,0,1
1470344213728045,-2,3,-3,3,-1,-2,-2,0
1470344213737052,-1,-3,-5,2,-1,0,-1,1
1470344213737052,1,-5,5,-7,-3,0,2,-5
1470344213752066,-4,-3,-4,-3,0,0,-2,-1
1470344213752066,0,4,3,2,-1,-1,-1,0
1470344213754068,-3,-5,2,-2,-2,-4,-1,-3
1470344213754068,-2,3,-4,-5,-5,-1,0,-1
1470344213775094,-2,-3,8,0,-1,1,-1,0
1470344213775094,-1,-6,-5,1,2,0,-1,-3
1470344213776596,-3,-4,-2,-4,-3,0,-3,-3
1470344213776596,-4,-6,3,-4,1,-3,-2,5
1470344213788614,-1,0,-1,0,0,-3,0,-5
1470344213788614,-1,-1,-4,-8,-5,1,0,-1
1470344213797622,-3,2,-5,4,1,-2,-3,0
1470344213797622,0,-4,-3,-4,0,-1,2,-3
1470344213812635,-1,5,3,1,0,0,-2,-2
1470344213812635,-1,-5,3,-1,-1,-2,-2,1
1470344213813637,2,7,-1,-3,-2,-3,-2,-2
1470344213813637,-3,-2,1,1,-1,-3,-1,-1
1470344213834656,2,5,0,-2,-1,0,1,-4
1470344213834656,3,-4,-5,0,-1,1,-1,1
1470344213836657,1,0,1,2,-2,-1,-1,3
1470344213836657,-2,1,5,3,-1,0,1,-3
1470344213857675,-2,0,-5,-2,0,-3,-1,4
1470344213857675,-4,-1,-2,-1,1,-1,-1,-1
1470344213858676,-2,-4,4,-6,-2,1,-3,0
1470344213858676,2,-6,0,-1,-1,-1,-2,0
1470344213872697,-1,-2,1,-5,-4,-2,-2,-2
1470344213872697,2,3,-4,1,2,-1,1,-2
1470344213874200,-2,-6,-1,1,-3,1,-1,0
1470344213874200,0,1,-6,4,-2,0,1,-1
1470344213894730,1,3,-3,3,-1,-3,-3,1
1470344213894730,-1,-5,1,-2,-2,0,-3,-2
1470344213896726,0,7,-2,7,3,-4,0,-2
1470344213896726,0,4,-3,-4,0,0,1,-2
1470344213917743,-1,-8,1,-3,0,0,-10,1
1470344213917743,0,-5,-1,-1,-3,1,0,0
1470344213918746,-3,-1,-4,-1,-1,0,-1,-2
1470344213918746,-2,-7,-6,0,0,-2,-1,-3
1470344213932756,0,7,1,-1,-3,-1,2,0
1470344213932756,0,-2,-10,-1,-2,-2,-4,-2
1470344213933761,0,0,0,-4,-4,0,-3,-1
1470344213933761,-1,-2,-1,-4,-4,-1,2,-3
1470344213954779,-2,-1,-2,2,2,0,2,1
1470344213954779,0,1,1,-2,-1,-4,-2,-4
1470344213956779,1,1,1,-1,-4,0,2,-1
1470344213956779,-1,6,-4,0,0,-2,-2,3
1470344213976820,2,-4,-1,1,0,-4,1,-1
1470344213976820,-1,2,-3,2,4,-1,0,1
1470344213978825,2,-4,-4,-4,-4,-2,-2,-6
1470344213978825,-3,-9,1,3,1,2,-1,2
1470344213991854,-3,-1,4,-3,-2,0,-1,-4
1470344213991854,0,0,1,0,-3,1,0,-1
1470344213993836,-3,0,-8,1,2,-2,-2,-1
1470344213993836,0,-6,2,-2,0,-1,-2,-2
1470344214014855,-5,-3,-6,3,0,-1,0,-5
1470344214014855,0,2,-4,-4,-2,-2,1,2
1470344214016857,-1,0,-4,-1,-1,-2,-1,-2
1470344214016857,0,0,-2,2,-1,-1,-1,1
1470344214036876,-2,2,0,-1,-1,-1,-2,-2
1470344214036876,-5,1,-1,1,-1,-4,0,1
1470344214038877,1,-5,1,-1,-1,-1,0,0
1470344214038877,-3,5,4,0,-1,0,-2,-2
1470344214051887,3,-5,-5,-2,1,-3,-2,1
1470344214051887,-2,-7,4,-1,0,-1,0,-2
1470344214058894,0,-1,3,3,-2,1,0,-1
1470344214058894,0,3,0,-2,1,-3,-2,-3
1470344214074914,-2,-1,-2,1,-3,-1,1,-2
1470344214074914,-4,-1,2,0,0,-3,-2,1
1470344214076416,0,-6,-6,-1,-3,1,0,-1
1470344214076416,2,0,-3,-1,-2,-2,-2,0
1470344214096938,0,5,-1,1,-2,-1,1,1
1470344214096938,1,-8,-2,1,1,-3,-3,-3
1470344214098941,-1,2,-1,1,3,-3,-1,0
1470344214098941,0,-5,-3,-4,1,1,-1,-2
1470344214111954,-1,6,3,-2,-1,3,2,-2
1470344214111954,1,-7,0,-2,-3,-2,-1,-1
1470344214117957,-1,-3,0,-6,1,-1,-3,-2
1470344214117957,0,3,3,5,2,-2,1,0
1470344214134971,1,-11,2,-3,-2,0,-3,0
1470344214134971,0,3,-1,-3,-3,0,-2,1
1470344214135973,0,-4,3,2,-3,0,-3,-1
1470344214135973,-2,-7,0,-11,-6,0,0,-2
1470344214156993,1,-6,-3,6,0,0,0,0
1470344214156993,-1,10,3,1,0,1,0,-2
1470344214158994,-4,-9,-1,-3,-2,-1,-1,-1
1470344214158994,1,3,-1,4,-1,-2,0,3
1470344214172012,-1,1,1,-5,-2,1,-3,-3
1470344214172012,0,5,4,2,1,-1,0,3
1470344214178537,1,-1,0,-3,0,1,0,1
1470344214178537,2,5,6,2,0,1,-1,0
1470344214194551,-5,-1,-3,-2,2,-3,-3,1
1470344214194551,1,-4,0,-7,-4,-2,-1,-4
1470344214196557,-1,-3,0,5,1,0,-1,4
1470344214196557,-1,4,2,1,-2,0,0,-3
1470344214217571,0,-11,0,-6,-5,-1,-8,1
1470344214217571,1,2,6,-3,-2,3,-1,-5
1470344214218572,-5,2,-6,0,-1,-3,-1,-1
1470344214218572,-2,-1,-9,3,0,-1,6,-4
1470344214231585,-1,-5,-1,-2,-4,1,3,-1
1470344214231585,-4,3,-4,-1,1,-4,-3,-2
1470344214238591,1,-4,2,-1,1,-2,-3,2
1470344214238591,-1,-2,1,-4,-2,-1,-4,-4
1470344214254604,-1,5,-6,1,1,1,-2,-1
1470344214254604,-3,-2,0,-2,-3,1,2,-1
1470344214256607,2,2,6,1,-3,-2,-2,-3
1470344214256607,-3,-4,-1,-5,0,-3,-3,0
1470344214277880,-3,1,2,-9,-1,-3,-1,1
1470344214277880,-1,-4,-5,10,1,0,1,0
1470344214278882,-2,-2,-3,-6,-5,-1,-1,-3
1470344214278882,-2,0,1,0,3,-1,-3,-1
1470344214291892,4,2,4,10,4,1,0,1
1470344214291892,-6,-1,-10,4,-2,-3,-2,-2
1470344214298897,-2,6,1,3,2,1,-1,-1
1470344214298897,0,-9,-1,1,-2,-3,0,-2
1470344214314913,-2,2,-1,-3,-5,1,1,-8
1470344214314913,0,-5,-2,1,3,0,-1,1
1470344214315914,-4,-3,-2,0,-2,-1,-3,-1
1470344214315914,-3,4,-4,3,2,1,-2,3
1470344214336931,0,-3,-4,5,-3,-3,-1,-3
1470344214336931,1,-5,1,-5,-2,0,2,0
1470344214338933,-3,4,-5,-4,-2,1,0,-1
1470344214338933,3,-2,-3,-5,-5,-2,-5,-3
1470344214350944,-3,-1,-3,0,2,-3,1,3
1470344214350944,-2,3,-2,-7,-4,1,-2,-4
1470344214359952,-1,-4,2,8,-2,-3,0,-3
1470344214359952,-2,-3,-7,0,1,-1,-3,2
1470344214382515,-4,4,1,-8,-1,-2,-3,0
1470344214382515,-3,-5,0,2,0,-1,-4,0
1470344214383517,0,-1,3,-9,-6,-1,-1,-1
1470344214383517,-1,-6,0,-9,-5,1,-2,-2
