timestamp,emg1,emg2,emg3,emg4,emg5,emg6,emg7,emg8
1470340049219704,-15,-7,-7,-27,-37,-40,-24,-22
1470340049219704,0,6,9,3,-6,-17,-13,-7
1470340049220705,26,28,36,37,32,2,-15,8
1470340049220705,-44,-61,-70,-24,18,70,66,18
1470340049226210,7,2,-1,5,6,3,-5,-1
1470340049226210,22,33,41,27,7,-43,-45,-8
1470340049227711,-32,-43,-53,-37,-2,56,63,14
1470340049227711,15,18,27,14,-6,-38,-37,-15
1470340049232716,4,15,14,5,0,-15,-8,-5
1470340049232716,-12,-16,-24,-17,9,42,46,19
1470340049249230,-1,0,7,-4,-20,-38,-32,-16
1470340049249230,5,15,15,0,-8,-17,-15,-7
1470340049255236,3,-4,-6,25,47,45,32,22
1470340049255236,-27,-41,-42,-12,9,37,36,4
1470340049269750,0,1,-2,3,-2,-7,-9,-4
1470340049269750,12,21,30,3,-14,-46,-41,-13
1470340049277757,-14,-23,-24,-13,-6,31,24,7
1470340049277757,-1,8,7,-3,-5,-13,-14,-7
1470340049286264,2,9,8,2,-15,-21,-16,-6
1470340049286264,0,-11,-11,2,7,25,21,8
1470340049300277,1,3,4,5,2,-11,-18,-9
1470340049300277,3,1,0,-3,-6,-6,-12,-6
1470340049308784,-8,-11,-15,7,18,29,23,7
1470340049308784,-12,-11,-17,-16,-4,15,12,-2
1470340049315290,-2,-3,-1,-2,-4,-1,-3,-2
1470340049315290,13,19,30,-3,-26,-45,-40,-14
1470340049329803,-4,-2,-5,-12,-7,8,4,-4
1470340049329803,2,0,0,3,-2,-8,-5,-1
1470340049337309,8,8,13,-1,-3,-15,-8,-3
1470340049337309,-8,-12,-14,-5,7,21,22,6
1470340049346317,-4,2,3,3,4,-15,-12,-3
1470340049346317,5,6,4,-2,-6,-6,-7,0
1470340049359830,-6,-13,-12,-13,-8,10,13,1
1470340049359830,-7,-1,-5,-12,-20,-13,-7,-7
1470340049368838,3,2,6,-3,-9,-10,-9,-5
1470340049368838,9,19,23,0,-18,-26,-22,-6
1470340049374843,-6,-4,-10,-6,1,10,12,7
1470340049374843,3,-2,-4,-2,-3,2,4,2
1470340049389857,2,0,1,-3,1,-4,2,2
1470340049389857,-7,-12,-13,-10,0,6,10,1
1470340049397363,5,6,7,5,-3,-13,-9,-3
1470340049397363,-1,-4,-4,0,7,2,0,1
1470340049406372,-8,-4,-3,-33,-37,-12,-8,-6
1470340049406372,7,12,14,-8,-24,-33,-29,-12
1470340049419883,-4,-5,3,-3,-11,-5,-6,2
1470340049419883,1,-1,3,8,10,8,1,0
1470340049428892,-5,-11,-17,0,11,12,8,5
1470340049428892,-1,-2,-4,8,12,11,9,2
1470340049434897,-4,-2,-4,0,5,4,1,-1
1470340049434897,-3,-5,-9,-7,-4,7,7,-1
1470340049449911,0,4,4,3,5,-7,-9,2
1470340049449911,0,-8,-5,3,10,11,7,4
1470340049457418,-1,9,3,-14,-26,-23,-12,-1
1470340049457418,5,12,18,-7,-25,-31,-26,-8
1470340049466425,2,-1,1,-1,-4,-9,1,-4
1470340049466425,-9,-20,-17,14,33,42,35,13
1470340049479938,-3,-15,-13,-2,6,11,3,3
1470340049479938,-4,-5,-6,0,2,7,7,4
1470340049488945,2,-2,-2,9,8,2,1,1
1470340049488945,-9,-7,-7,-2,1,8,1,-1
1470340049494952,-2,1,7,3,1,-4,0,-4
1470340049494952,-2,-3,-6,0,2,4,5,-4
1470340049509964,2,-2,1,-5,-7,-1,-4,0
1470340049509964,3,12,9,6,-1,-11,-14,-3
1470340049517472,4,-4,3,4,3,6,4,1
1470340049517472,-11,-24,-30,5,31,44,33,9
1470340049526479,-5,-7,-8,-4,-7,3,5,-3
1470340049526479,3,3,-1,-6,-7,-10,6,-3
1470340049539993,3,8,7,-5,-12,-29,-26,-10
1470340049539993,-9,-4,-6,-6,-4,6,1,3
1470340049549025,0,0,-2,4,-2,-2,-5,-2
1470340049549025,-3,-4,-2,-5,-9,-6,-4,-5
1470340049555005,-4,-4,-12,0,8,14,18,-1
1470340049555005,4,1,8,12,14,-6,-14,-4
1470340049570018,-4,-1,5,-1,2,-8,-2,-7
1470340049570018,-4,-7,-10,-6,-3,14,11,6
1470340049577526,-5,-1,1,-10,-15,-6,-6,-8
1470340049577526,5,1,5,-3,-7,-10,-3,2
1470340049586533,9,16,18,-7,-20,-20,-23,-9
1470340049586533,-10,-10,-4,-4,2,1,5,1
1470340049600047,-2,3,1,1,4,2,1,6
1470340049600047,0,7,4,0,-10,-9,-7,-4
1470340049609053,-4,-10,-15,5,16,24,26,7
1470340049609053,5,3,11,13,12,-12,-15,-6
1470340049615059,-3,-6,-7,-4,-2,11,9,2
1470340049615059,-2,5,5,-11,-20,-12,-7,-2
1470340049630072,3,9,10,-7,-26,-26,-21,-8
1470340049630072,-9,2,-2,-5,-2,1,-5,1
1470340049637578,6,7,16,2,-6,-14,-15,-7
1470340049637578,-6,-15,-17,-6,4,7,13,3
1470340049646587,-2,-11,-2,1,9,7,4,4
1470340049646587,-2,0,-3,0,-6,-2,1,2
1470340049660098,-12,-15,-18,-1,15,24,15,6
1470340049660098,5,4,5,-3,-11,-10,-11,-9
1470340049669106,-9,0,-5,-3,2,7,5,-2
1470340049669106,7,13,15,-17,-28,-27,-15,-3
1470340049675112,9,16,19,-4,-25,-32,-28,-6
1470340049675112,-3,1,4,-3,-4,-3,2,-3
1470340049690125,7,4,4,6,6,3,-4,2
1470340049690125,-4,-13,-12,-6,-2,10,7,-5
1470340049697632,-3,1,-3,-3,-2,1,1,0
1470340049697632,-1,-1,-1,5,6,0,-5,5
1470340049706641,-6,-10,-13,-7,-4,12,7,1
1470340049706641,1,10,12,-4,-10,-16,-18,-11
1470340049720179,-4,-5,-2,0,3,3,4,-1
1470340049720179,4,12,9,-5,-10,-15,-10,-1
1470340049731663,0,5,5,-1,-8,-16,-7,-5
1470340049731663,-1,-5,-3,-1,-3,5,2,4
1470340049735167,-3,-6,-7,13,20,10,17,5
1470340049735167,-9,-11,-10,-12,-4,3,5,-1
1470340049750181,-2,4,-1,4,6,3,6,4
1470340049750181,3,-4,0,4,1,-4,-10,-5
1470340049758689,-8,-7,-9,-6,-10,5,2,5
1470340049758689,10,14,12,-2,-17,-24,-16,-7
1470340049766699,-1,-5,2,1,-2,-3,-2,3
1470340049766699,0,-7,-8,4,9,15,12,9
1470340049780209,-2,-3,-3,7,18,3,-2,4
1470340049780209,-2,-5,-3,6,7,10,7,0
1470340049791717,-2,-5,-6,7,9,8,6,1
1470340049791717,-8,2,-3,-12,-16,-1,1,-2
1470340049795220,-1,-4,-3,-6,-2,-7,-5,-1
1470340049795220,2,5,5,1,-4,-2,-11,-1
1470340049810234,-7,-5,-3,-15,-12,2,-1,-1
1470340049810234,11,13,18,6,-2,-16,-20,-7
1470340049818741,4,4,5,-6,-9,-14,-10,-3
1470340049818741,-11,-22,-26,8,36,46,35,12
1470340049826749,-7,-6,-8,17,28,5,2,2
1470340049826749,0,-2,-10,3,8,9,6,1
1470340049840261,4,-8,-1,-1,-3,-2,-6,-2
1470340049840261,-5,3,4,-3,-11,-10,-5,-7
1470340049878795,19,24,27,11,8,1,5,12
1470340049878795,-24,-30,-39,-31,-22,14,17,-5
1470340049887303,3,8,5,-3,-8,-19,-19,-10
1470340049887303,27,27,37,45,35,-9,-18,4
1470340049887804,-48,-56,-71,-40,3,73,76,13
1470340049887804,12,18,26,12,-2,-27,-26,-10
1470340049889306,10,10,25,4,-10,-34,-34,-12
1470340049889306,-15,-30,-33,-22,3,57,51,14
1470340049899843,11,13,19,3,-13,-48,-52,-19
1470340049899843,6,9,7,5,4,-8,-11,-3
1470340049908822,-1,-1,-2,4,13,18,17,14
1470340049908822,-10,-13,-21,-4,-2,6,3,2
1470340049914841,12,2,9,9,5,-16,-11,0
1470340049914841,7,8,13,20,13,8,-4,4
1470340049929841,-20,-30,-44,-22,-7,42,43,4
1470340049929841,2,8,8,-9,-17,-32,-21,-15
1470340049937849,13,24,29,-3,-32,-42,-45,-19
1470340049937849,-11,-19,-25,-10,7,33,29,13
1470340049946356,-5,4,3,10,1,-13,-16,-7
1470340049946356,0,9,12,-4,-10,-19,-12,-8
1470340049960373,1,-10,-6,14,25,26,20,12
1470340049960373,-12,-7,-5,5,13,-1,2,0
1470340049968891,3,1,1,3,1,-3,-1,3
1470340049968891,8,9,7,-7,-17,-24,-17,-9
1470340049974904,-9,0,-7,-17,-17,0,-1,-5
1470340049974904,4,2,4,1,-6,-6,-5,-3
1470340049989913,10,20,28,-4,-23,-21,-22,-8
1470340049989913,-8,-17,-19,-3,10,23,20,5
1470340049997404,4,3,8,6,-3,-9,-5,-2
1470340049997404,8,4,8,-1,-5,-10,-4,-1
1470340050014418,-8,-7,-19,2,21,27,27,3
1470340050014418,-1,-4,-1,0,-6,-7,-12,-6
1470340050019948,-4,0,-1,6,6,10,7,-2
1470340050019948,4,17,17,-18,-32,-37,-26,-13
1470340050028930,3,7,12,-11,-14,-24,-17,-11
1470340050028930,2,7,3,3,-3,-1,-3,4
1470340050034959,7,10,12,6,0,-13,-10,-10
1470340050034959,-9,-7,-11,1,9,17,17,2
1470340050049949,0,-2,1,0,4,3,3,2
1470340050049949,-6,0,-2,-4,-5,0,-1,4
1470340050057456,-12,-11,-17,-4,6,10,17,1
1470340050057456,7,5,2,-4,-12,-10,-10,-4
1470340050066465,-3,-5,-5,1,-1,4,2,4
1470340050066465,7,12,14,-14,-25,-32,-18,-5
1470340050079999,4,7,9,-4,-10,-7,-12,-4
1470340050079999,-2,-1,-3,-4,-1,-1,3,-2
1470340050088986,1,1,-10,7,11,7,5,4
1470340050088986,-8,-11,-16,-8,1,10,8,-4
1470340050094992,-4,-4,0,-1,-2,-5,-2,1
1470340050094992,-3,-3,-2,2,6,2,-5,1
1470340050110019,-7,-13,-3,-8,-4,11,8,2
1470340050110019,1,1,13,-4,-9,-14,-12,-7
1470340050117510,0,0,-3,-5,-7,-3,-5,-2
1470340050117510,4,2,6,-1,1,1,-3,5
1470340050126518,-3,-12,-4,8,15,-3,-2,-3
1470340050126518,-5,-2,-6,2,4,5,-4,2
1470340050140046,-3,-14,-10,6,16,12,7,3
1470340050140046,-3,-8,-6,-11,-8,6,7,-4
1470340050149038,3,-4,-2,-9,-7,-10,-3,-3
1470340050149038,2,-2,-2,-3,-5,-13,-11,-9
1470340050155046,-4,-10,-7,-14,-15,-2,-2,-1
1470340050155046,6,17,16,1,-5,-28,-23,-5
1470340050170059,-2,-1,-1,-12,-11,-11,-9,-2
1470340050170059,-12,-17,-12,14,28,35,40,9
1470340050177563,-4,-10,-5,8,20,-2,0,6
1470340050177563,-8,-13,-6,3,1,2,3,3
1470340050186572,-5,-1,-3,4,2,1,3,0
1470340050186572,-3,-5,3,-7,-6,-2,-2,-4
1470340050200084,0,4,-4,-4,-1,-1,0,3
1470340050200084,3,5,9,2,-7,0,1,-7
1470340050209092,-4,-1,-4,-5,-12,-3,3,-5
1470340050209092,7,6,12,-3,-7,-19,-17,-7
1470340050215098,-1,1,6,-2,-1,-6,-7,-7
1470340050215098,-11,-24,-33,13,43,55,44,13
1470340050230111,-5,-10,-5,10,22,4,-1,5
1470340050230111,-2,-2,-7,-3,3,1,0,-1
1470340050237618,3,4,8,-4,-19,-29,-18,-3
1470340050237618,-3,0,1,-11,-21,-9,-12,-4
1470340050246626,-1,-4,0,0,0,0,5,6
1470340050246626,0,5,9,2,-7,-6,-11,-3
1470340050260138,-4,-7,-6,-3,2,8,9,-2
1470340050260138,4,6,8,10,2,-13,-15,-6
1470340050269147,3,8,7,-1,-3,-3,-6,-8
1470340050269147,-8,-17,-24,7,25,39,36,9
1470340050275151,-2,-1,-7,-4,1,6,4,-2
1470340050275151,0,-1,-3,0,-3,-2,0,-2
1470340050290165,9,17,22,-8,-28,-31,-30,-14
1470340050290165,-2,0,0,-6,-7,-7,-11,-2
1470340050298173,-2,4,-2,5,5,5,5,-4
1470340050298173,5,-1,3,2,1,-10,-9,-4
1470340050312685,-2,-5,-12,2,10,12,9,4
1470340050312685,2,4,6,7,4,-12,-12,-7
1470340050320191,2,1,2,-1,1,-1,-6,-6
1470340050320191,-9,-16,-12,-19,-15,9,8,4
1470340050329200,-3,2,2,-10,-20,-15,-17,-13
1470340050329200,-2,-1,4,-5,-4,-4,-1,5
1470340050335205,12,17,21,-2,-17,-27,-20,-7
1470340050335205,-2,-5,-8,0,7,-3,1,-1
1470340050350218,2,-4,-3,5,9,7,11,6
1470340050350218,3,2,0,5,6,-5,1,0
1470340050357728,-9,-11,-5,-4,-4,11,6,-1
1470340050357728,4,10,14,9,4,-8,-8,-3
1470340050372739,-3,-6,1,-3,-2,-2,3,1
1470340050372739,-3,-3,2,-26,-28,-9,-4,-2
1470340050379745,0,14,17,-12,-35,-38,-26,-9
1470340050379745,0,2,3,-9,-10,-8,-4,-3
1470340050388753,0,1,4,8,11,6,5,3
1470340050388753,-5,-10,-10,-4,4,0,4,2
1470340050395259,-5,-8,-5,-5,5,4,7,3
1470340050395259,-4,-5,-7,3,13,7,7,-1
1470340050409342,-3,-1,-9,-3,-3,0,4,6
1470340050409342,1,3,2,0,-1,-6,-8,-5
1470340050425353,-1,-3,-5,1,6,6,2,7
1470340050425353,-2,6,10,-22,-25,-20,-12,-5
1470340050432362,7,11,18,-7,-24,-30,-24,-14
1470340050432362,0,2,1,2,-7,-4,-1,-5
1470340050439364,-5,-13,-14,23,44,47,34,14
1470340050439364,-10,-11,-12,1,9,1,3,3
1470340050448372,1,0,-7,-1,4,9,6,1
1470340050448372,2,-2,-2,4,9,3,1,0
1470340050454376,-4,-13,-10,-10,-9,-1,7,3
1470340050454376,4,-3,5,3,1,-6,-1,-1
1470340050469390,-6,-8,-1,-2,6,2,2,1
1470340050469390,0,2,0,-10,-12,-6,0,1
1470340050477398,9,10,9,13,1,-18,-19,-6
1470340050477398,1,-4,0,-5,0,4,3,-2
1470340050492412,-15,-24,-32,13,39,48,35,12
1470340050492412,-7,-5,-6,-5,-4,4,3,-2
1470340050499923,-2,1,0,-2,1,3,2,1
1470340050499923,4,11,6,0,-17,-28,-28,-9
1470340050508935,-6,-5,-6,-2,-7,0,-1,-1
1470340050508935,-4,0,0,7,3,-4,-2,0
1470340050514941,-1,3,2,-7,-3,-5,-10,1
1470340050514941,-2,-2,-9,3,8,14,14,12
1470340050529953,1,1,5,8,11,-17,-11,-10
1470340050529953,-3,3,-3,2,3,-2,4,2
1470340050536960,-9,-10,-16,-7,-2,6,12,4
1470340050536960,-1,4,0,-8,-11,0,-5,-10
1470340050551973,0,1,2,-5,-10,-9,-4,3
1470340050551973,13,14,21,-3,-22,-24,-21,-12
1470340050559981,-5,-9,-11,-1,0,2,6,6
1470340050559981,-1,-4,4,5,4,4,2,3
1470340050568989,-1,2,0,-1,-6,0,-4,-4
1470340050568989,-11,-17,-18,8,25,34,21,4
1470340050574993,1,2,7,9,8,-21,-16,-8
1470340050574993,-2,-2,-1,4,2,4,4,7
1470340050590006,4,2,8,-16,-20,-16,-11,-2
1470340050590006,2,11,14,-10,-30,-28,-24,-10
1470340050597520,2,3,2,-2,-5,3,-2,-9
1470340050597520,4,18,18,6,-9,-19,-12,-3
1470340050612654,-9,-9,-15,-7,3,3,6,1
1470340050612654,1,3,0,9,9,6,1,4
1470340050619661,-1,-6,-1,-7,-6,-6,-9,0
1470340050619661,-6,-15,-22,3,11,27,19,3
1470340050628669,1,6,7,1,-6,-12,-14,-8
1470340050628669,-4,-6,-4,-2,-1,3,4,2
1470340050642681,10,12,15,-18,-31,-28,-18,-6
1470340050642681,3,15,13,-8,-24,-32,-24,-16
1470340050649691,4,0,-2,-1,-4,-2,0,3
1470340050649691,2,3,2,7,9,2,1,-3
1470340050657695,-6,-9,-13,-10,-2,6,9,2
1470340050657695,-3,-6,-5,-3,3,0,3,-2
1470340050672708,5,1,1,1,2,-6,-3,0
1470340050672708,-9,-5,-14,-12,-7,5,3,-4
1470340050679716,3,13,11,4,-13,-12,-15,-5
1470340050679716,-3,-2,-3,-2,4,8,3,3
1470340050688725,5,10,20,-5,-18,-17,-12,-4
1470340050688725,9,10,5,2,1,-12,-12,-5
1470340050703241,-1,1,-4,-4,2,-3,7,-1
1470340050703241,-4,-6,-7,7,17,10,7,4
1470340050710250,-7,-5,-12,-7,-6,10,4,0
1470340050710250,-1,-4,-2,-5,2,-8,-2,0
1470340050717257,-1,2,0,1,6,-3,-6,0
1470340050717257,-2,-7,-4,-15,-12,-1,7,-1
1470340050732270,5,9,9,1,-11,-13,-20,-6
1470340050732270,0,-6,-3,-6,-5,1,-3,-2
1470340050740277,-1,-1,-5,8,17,25,18,9
1470340050740277,-3,-4,-1,9,17,-4,-4,1
1470340050749287,4,-7,-3,3,7,12,7,5
1470340050749287,-3,0,-2,5,9,8,7,3
1470340050763299,-6,-6,-6,-9,-10,-6,0,-7
1470340050763299,4,3,-8,0,1,-1,0,2
1470340050770308,-1,-1,5,-3,-3,-6,-10,-5
1470340050770308,-5,-3,-1,-8,-12,-8,1,-4
1470340050777312,8,9,14,9,-1,-21,-13,-7
1470340050777312,0,-4,3,-11,-9,-7,-11,-7
1470340050792326,-13,-19,-29,8,39,51,39,11
1470340050792326,-9,-11,-7,10,24,2,-3,7
1470340050799838,-1,-2,-2,2,6,10,7,2
1470340050799838,1,1,0,-1,-1,-9,-4,-4
1470340050808876,-6,-3,-2,-11,-10,-9,-3,-4
1470340050808876,-1,-1,-2,-3,-8,2,1,1
1470340050822890,-1,6,7,5,-4,-1,-9,-4
1470340050822890,-2,3,-5,-2,0,-4,4,-1
1470340050829895,7,6,14,12,-3,-19,-14,-5
1470340050829895,2,8,4,3,-4,-5,1,1
1470340050836902,-14,-27,-28,10,37,51,42,15
1470340050836902,-7,-8,-1,0,2,3,1,-2
1470340050851916,-2,1,-5,-3,4,1,3,7
1470340050851916,6,10,15,-9,-26,-36,-28,-10
1470340050859922,2,1,0,-8,-14,-12,-15,-11
1470340050859922,0,-1,2,-2,-4,6,-1,1
1470340050874936,1,3,1,-3,-1,-6,-5,-4
1470340050874936,-4,-6,-4,-2,6,12,5,1
1470340050889950,5,5,4,3,6,-10,-17,-4
1470340050889950,2,3,-1,3,0,-5,-4,-8
1470340050898461,-17,-21,-23,-15,-2,23,22,3
1470340050898461,-3,2,-1,-8,-11,-7,-5,-8
1470340050898962,-1,-1,-1,-4,-10,-5,-4,-4
1470340050898962,17,20,24,-6,-26,-31,-28,-13
1470340050912477,2,2,4,4,-5,-5,-4,-3
1470340050912477,-1,-7,-3,2,8,7,7,6
1470340050919483,-3,1,5,-1,4,-7,-4,1
1470340050919483,-8,-12,-10,-6,3,15,9,2
1470340050934497,2,8,9,4,1,-17,-16,-3
1470340050934497,0,-6,0,4,4,-6,-4,3
1470340050942504,-4,-8,-12,-25,-23,0,1,-4
1470340050942504,1,10,2,-7,-25,-21,-22,-4
1470340050958518,-1,-5,1,-5,-9,-7,0,-7
1470340050958518,1,6,9,-2,-5,-8,-9,0
1470340050958518,-5,-8,-9,0,2,0,2,-1
1470340050958518,-5,-8,-3,-5,3,11,5,4
1470340050972531,-1,2,-3,5,3,0,3,0
1470340050972531,-6,-5,-7,1,2,10,9,-3
1470340050979536,5,8,13,5,-3,-17,-11,-2
1470340050979536,-5,-6,-3,0,6,6,4,-2
1470340050995057,-1,9,4,-23,-35,-20,-14,-5
1470340050995057,8,15,22,-9,-28,-37,-34,-18
1470340051003064,-1,1,1,-4,-10,-4,-3,-3
1470340051003064,-2,-7,-9,12,21,21,22,3
1470340051017582,-5,-14,-12,7,16,6,4,3
1470340051017582,-4,-5,-8,1,5,12,8,6
1470340051018583,-6,-4,-1,0,1,1,4,0
1470340051018583,-5,-3,-6,-6,-3,-3,0,0
1470340051032600,5,5,7,4,3,-1,-5,-3
1470340051032600,-1,-1,-8,1,8,4,8,7
1470340051039602,-2,4,9,-9,-20,-15,-8,-6
1470340051039602,9,15,13,1,-14,-24,-21,-12
1470340051054617,2,2,1,-3,-7,3,-1,-5
1470340051054617,-8,-23,-22,16,40,48,40,12
1470340051062624,-7,-11,-10,-1,6,7,5,1
1470340051062624,-2,-7,-6,-10,-2,-7,2,0
1470340051077637,1,-3,2,1,3,-11,-11,-5
1470340051077637,-4,-2,-3,-12,-13,-8,4,-4
1470340051078638,4,1,1,6,4,1,0,-3
1470340051078638,-2,-1,3,0,2,-1,-4,3
1470340051092650,-9,2,-4,-4,1,2,4,2
1470340051092650,5,3,3,14,10,-9,-12,0
1470340051100665,-1,-4,-4,-2,8,7,1,1
1470340051100665,-6,-16,-17,13,24,28,28,10
1470340051114683,-3,-8,-6,-8,-6,6,5,-3
1470340051114683,-7,4,1,-8,-11,2,0,-3
1470340051122691,7,15,15,-2,-21,-27,-27,-14
1470340051122691,0,-4,-3,-2,-4,8,6,2
1470340051137703,-1,4,7,2,2,0,-4,0
1470340051137703,2,4,3,-3,-8,-14,-8,-3
1470340051138704,-10,-6,-13,4,16,27,17,8
1470340051138704,-1,3,10,12,9,-19,-15,-1
1470340051152716,3,-5,-5,6,0,9,3,2
1470340051152716,-2,-8,-5,-14,-14,-1,-4,-1
1470340051159723,-6,6,1,-11,-19,-11,-12,-4
1470340051159723,0,-2,5,-3,-2,-5,-7,-2
1470340051174737,8,19,21,1,-17,-21,-23,-12
1470340051174737,-6,-15,-15,-7,1,8,6,1
1470340051190751,1,-8,-3,-3,-3,-7,1,1
1470340051190751,1,3,0,-3,-4,-7,-4,-5
1470340051198265,-6,-15,-21,3,16,22,19,4
1470340051198265,1,4,11,5,5,-14,-15,-4
1470340051198765,-1,-6,-7,-6,8,2,7,-2
1470340051198765,-2,3,7,-19,-33,-29,-20,-5
1470340051211782,2,11,12,-13,-29,-38,-27,-8
1470340051211782,0,1,0,-3,-4,2,-4,-4
1470340051219789,9,14,16,7,2,-8,-6,-2
1470340051219789,-11,-10,-15,-5,4,8,5,2
1470340051234803,0,-2,0,1,9,2,5,3
1470340051234803,-4,4,1,1,-5,-4,-1,-2
1470340051242810,-5,-15,-14,-2,5,16,17,4
1470340051242810,1,4,2,0,-2,-2,-14,-4
1470340051257823,0,-6,-5,-5,-1,-1,2,-2
1470340051257823,2,12,14,-19,-30,-29,-20,-7
1470340051258824,3,12,16,-2,-22,-25,-20,-16
1470340051258824,0,0,2,1,-2,1,0,-2
1470340051272837,5,0,2,14,19,8,7,2
1470340051272837,-6,-15,-14,-6,6,9,5,-1
1470340051279845,-2,1,1,1,-1,1,-6,4
1470340051279845,-2,2,-1,0,2,3,0,0
1470340051294863,-12,-16,-8,-8,-1,6,8,1
1470340051294863,6,8,6,-4,-10,-23,-14,-7
1470340051303370,-3,-2,-4,0,3,2,3,8
1470340051303370,-1,1,1,-6,-8,-8,1,1
1470340051317886,4,5,3,6,2,-8,-8,-2
1470340051317886,2,0,-1,6,2,9,1,2
1470340051318887,-2,-2,-5,14,21,15,10,5
1470340051318887,2,-4,-3,2,5,6,7,1
1470340051331899,-1,1,8,-4,-6,-8,1,3
1470340051331899,5,3,7,2,3,-3,-6,0
1470340051339906,-7,-8,-8,-16,-14,-5,-1,-4
1470340051339906,5,8,11,0,-8,-17,-18,-10
1470340051354919,-2,1,1,-7,-11,-5,-7,6
1470340051354919,-9,-12,-16,5,23,27,22,8
1470340051362926,-2,-12,-4,14,27,-1,-4,2
1470340051362926,3,0,-2,2,1,-3,-3,-4
1470340051377941,-5,-4,-4,7,16,4,1,4
1470340051377941,-5,-3,-1,-8,-12,-3,-1,-2
1470340051385949,-2,-4,-4,-8,-1,4,2,-3
1470340051385949,-3,2,4,0,-8,0,-5,-2
1470340051391953,-2,2,-6,-9,-10,-1,-3,-7
1470340051391953,7,12,10,5,-4,-18,-15,-8
1470340051399966,-7,2,8,-4,-11,-11,-11,-5
1470340051399966,-9,-23,-31,12,44,54,47,16
1470340051414985,-7,-11,-3,11,13,5,-2,0
1470340051414985,-5,-5,-2,3,7,5,3,4
1470340051422995,5,10,5,2,-5,-15,-9,-1
1470340051422995,1,0,4,-11,-17,-12,-10,0
1470340051438007,1,-5,-9,-5,3,8,1,-4
1470340051438007,4,6,4,2,-6,-5,-8,-3
1470340051439008,-6,-16,-14,-10,-4,1,5,-3
1470340051439008,3,4,10,2,-2,-14,-16,-6
1470340051452018,0,2,-3,-5,-7,1,-3,-5
1470340051452018,-14,-24,-29,5,28,48,37,13
1470340051460025,-1,-8,-3,-1,2,9,5,5
1470340051460025,-2,1,0,-2,-5,-5,1,-3
1470340051475038,9,12,19,-14,-30,-37,-33,-10
1470340051475038,0,7,3,-5,-8,-12,-9,-1
1470340051483050,2,1,-1,-2,10,9,4,5
1470340051483050,4,2,9,-3,-9,-12,-7,-4
1470340051498065,-9,-6,-17,-8,2,9,14,-1
1470340051498065,4,7,7,9,5,-16,-11,-4
1470340051499066,1,1,2,-1,-4,0,-11,-8
1470340051499066,-9,-13,-16,-4,4,22,16,7
1470340051511846,-1,5,3,-4,-9,-7,-13,-10
1470340051511846,8,4,5,-1,-3,-6,-2,-3
1470340051519856,10,18,22,-4,-20,-30,-28,-13
1470340051519856,-5,-3,0,-2,2,-2,0,-1
1470340051534869,0,-5,0,-1,-5,0,5,8
1470340051534869,2,-4,-5,-4,0,1,-7,1
1470340051542875,-2,-6,-9,-5,-2,10,10,2
1470340051542875,8,10,9,6,-4,-17,-13,-9
1470340051556887,0,-6,-2,0,6,6,2,5
1470340051556887,-4,-5,-2,-22,-29,-11,1,-3
1470340051565898,4,16,15,-6,-27,-36,-28,-9
1470340051565898,-3,-3,2,-3,-3,-4,-5,2
1470340051571903,8,6,5,1,-2,-2,-3,1
1470340051571903,-3,-7,-10,4,11,4,3,-1
1470340051579912,-5,-11,-10,-4,4,11,7,5
1470340051579912,-4,-6,-5,-2,1,1,3,3
1470340051594928,-6,-11,-3,-5,-1,2,4,3
1470340051594928,2,-1,8,1,0,-7,-11,-2
1470340051603434,2,-3,-2,-3,2,1,-2,1
1470340051603434,5,11,4,-20,-29,-16,-11,0
1470340051617601,10,21,21,-3,-22,-41,-27,-13
1470340051617601,-2,3,7,-3,-4,2,-5,-4
1470340051625594,-8,-11,-14,12,37,36,29,14
1470340051625594,-11,-16,-11,4,14,7,5,7
1470340051640608,2,-6,-2,3,6,7,5,1
1470340051640608,-6,-8,-7,7,11,9,10,4
1470340051641609,-5,-6,-8,1,-8,2,1,-6
1470340051641609,6,2,4,1,0,-2,-3,-5
1470340051654619,-1,1,0,3,9,5,6,5
1470340051654619,1,4,5,-12,-12,-10,-5,-5
1470340051662626,11,19,12,10,-4,-18,-15,-8
1470340051662626,-5,-4,-4,3,8,2,2,4
1470340051677640,-9,-22,-24,28,50,58,42,21
1470340051677640,-4,-14,-6,1,-3,0,3,-8
1470340051685647,-3,-3,1,-2,-6,2,6,4
1470340051685647,0,1,7,-1,-8,-16,-19,-7
1470340051700664,-5,-2,-4,-9,-8,-1,3,-5
1470340051700664,-6,1,-2,0,4,-3,-5,3
1470340051701165,2,-3,-1,-4,-9,-11,-3,-6
1470340051701165,-4,-8,-9,4,11,15,13,4
1470340051723870,1,3,8,9,9,-12,-16,-4
1470340051723870,-3,0,-2,1,2,0,4,0
1470340051724869,-8,-15,-16,1,14,25,24,8
1470340051724869,-5,-5,-9,-12,-16,-4,-3,-8
1470340051745888,-6,-2,0,-2,-5,4,-4,0
1470340051745888,11,13,19,-1,-18,-20,-24,-8
1470340051746890,-9,-11,-11,-10,-4,3,3,6
1470340051746890,1,1,-1,0,2,-1,-3,-5
1470340051760902,-3,3,-3,-11,-16,-10,-2,-10
1470340051760902,-10,-16,-19,-1,17,24,20,5
1470340051760902,-1,2,9,13,9,-14,-18,2
1470340051760902,-3,-1,-1,-2,3,3,1,1
1470340051774916,-5,-1,-5,-19,-22,-11,-10,-7
1470340051774916,2,10,7,-12,-27,-23,-19,-12
1470340051782924,1,5,4,-4,-3,-7,0,-5
1470340051782924,10,16,19,6,-6,-18,-18,-3
1470340051797440,-8,-7,-8,3,6,6,7,8
1470340051797440,1,3,2,4,8,2,4,1
1470340051805949,3,5,1,-2,0,-1,-5,-2
1470340051805949,-8,-13,-15,-1,15,16,22,5
1470340051820466,-1,3,6,4,2,-8,-10,-7
1470340051820466,-3,-5,-3,1,0,7,3,-2
1470340051821466,6,12,18,-13,-23,-30,-20,-6
1470340051821466,5,16,17,-9,-27,-35,-29,-12
1470340051834477,4,-5,2,-8,-6,0,1,0
1470340051834477,3,11,8,6,7,1,-3,-2
1470340051843486,-9,-9,-15,-7,-2,9,8,0
1470340051843486,-4,-4,1,1,-1,7,7,6
1470340051857498,5,3,-1,6,-2,0,0,-3
1470340051857498,-6,-5,-11,-4,3,14,11,7
1470340051865505,3,8,13,0,-9,-10,-12,-4
1470340051865505,-5,-3,-2,-5,-2,5,2,1
1470340051880519,3,9,17,-18,-26,-25,-21,-6
1470340051880519,7,10,8,1,-10,-21,-12,-5
1470340051881519,-4,-6,-1,-3,1,2,-5,-9
1470340051881519,2,-3,-4,11,13,11,7,3
1470340051895035,-7,-15,-7,-7,-8,9,3,-2
1470340051895035,-1,-1,2,1,-1,-1,-3,6
1470340051903042,1,-7,-3,0,-3,0,1,1
1470340051903042,-5,-6,-3,-11,-4,9,6,-4
1470340051917377,4,11,7,3,-6,-21,-17,-4
1470340051917377,4,3,4,-3,0,-1,-5,-1
1470340051925386,8,0,1,4,6,7,9,9
1470340051925386,-1,-9,-6,4,9,-4,-6,-3
1470340051940398,-4,2,-4,-4,4,3,0,1
1470340051940398,-4,-9,-5,8,14,12,10,5
1470340051941399,-7,-2,-4,-7,-14,-6,-3,-4
1470340051941399,-2,0,3,-1,3,0,3,1
1470340051954410,1,6,2,0,1,-10,-3,-4
1470340051954410,-6,-8,-3,-16,-15,-8,-5,-3
1470340051963418,8,15,9,9,0,-17,-16,-7
1470340051963418,-4,1,2,-4,-8,-5,-6,-2
1470340051977432,-5,-20,-20,13,29,39,33,11
1470340051977432,-5,-10,-2,9,20,1,0,9
1470340051985439,0,-9,-4,0,8,6,8,0
1470340051985439,0,2,-1,0,-3,-8,-2,-3
1470340052000957,-2,0,-1,-7,-12,-8,0,0
1470340052000957,-4,-2,-3,-2,-8,-2,1,-4
1470340052001458,6,2,9,-3,-8,-6,-12,-1
1470340052001458,3,-2,-3,-7,-11,-3,3,-2
1470340052014476,6,10,14,10,1,-7,-12,-3
1470340052014476,-1,-1,2,-6,-10,-2,-5,-6
1470340052023483,-20,-28,-38,1,26,51,46,11
1470340052023483,-6,-10,0,4,10,6,1,2
1470340052037496,3,-5,-2,2,5,8,5,3
1470340052037496,0,1,6,-4,-18,-19,-14,-1
1470340052045503,-4,2,7,-4,-10,-17,-14,-5
1470340052045503,1,-5,-8,-6,-5,0,4,2
1470340052060518,4,6,10,2,-4,-8,-8,-2
1470340052060518,-3,-8,-7,-9,-5,2,7,0
1470340052061517,8,7,10,13,14,-7,-9,-2
1470340052061517,3,6,4,0,-3,-10,-2,1
1470340052074529,-19,-33,-29,-8,13,28,25,11
1470340052074529,-4,-8,-4,-7,-9,-4,0,-9
1470340052083536,-3,-2,-1,1,-5,-1,2,1
1470340052083536,11,19,21,-3,-20,-32,-33,-3
1470340052097554,-3,6,0,-2,-4,-6,-9,-6
1470340052097554,-4,-3,1,1,4,1,3,0
1470340052105560,2,5,5,4,-4,-5,-7,2
1470340052105560,-6,-12,-12,-4,1,11,9,-1
1470340052120446,8,7,16,10,-2,-15,-11,-2
1470340052120446,-1,2,2,1,0,1,-3,0
1470340052121447,-12,-13,-16,-20,-13,10,11,2
1470340052121447,1,5,3,-6,-14,-12,-15,-10
1470340052134458,1,2,-1,-6,-4,-4,1,0
1470340052134458,8,17,20,9,-3,-13,-14,-7
1470340052143466,-3,-8,-10,-6,6,3,5,-4
1470340052143466,-1,-7,-2,-2,2,8,8,5
1470340052157479,0,4,3,1,0,-1,-2,6
1470340052157479,-3,-9,-16,-5,4,5,2,0
1470340052165487,10,14,12,6,-3,-8,-12,0
1470340052165487,-4,-3,-5,-1,0,8,1,-4
1470340052180500,-1,3,-8,-19,-23,-9,-4,-4
1470340052180500,12,19,16,-5,-21,-32,-36,-13
1470340052181502,0,0,0,-2,-6,-7,-6,-5
1470340052181502,7,9,1,12,17,12,15,3
1470340052195017,-6,-16,-16,1,7,2,6,-4
1470340052195017,-5,-5,-4,0,2,8,13,-5
1470340052203023,-3,-6,-8,0,10,5,4,1
1470340052203023,-5,-8,-8,-4,-4,-1,1,2
1470340052217543,9,3,8,3,-1,-7,-8,-2
1470340052217543,-1,-10,-7,-1,2,4,2,2
1470340052225551,0,1,4,-27,-34,-23,-12,-7
1470340052225551,12,18,19,-2,-20,-35,-26,-9
1470340052240563,3,-1,1,2,-1,-2,-2,-4
1470340052240563,-6,-16,-19,12,29,38,39,18
1470340052241565,-7,-10,-8,-2,6,1,8,-1
1470340052241565,1,0,-1,2,4,1,2,0
1470340052254575,-2,-3,1,-2,3,-7,-3,0
1470340052254575,-3,-2,-1,-5,-2,0,2,5
1470340052262583,4,7,5,4,-1,-4,-4,2
1470340052262583,-3,-5,-3,-6,-1,1,0,-2
1470340052285604,-3,-4,-4,-12,-12,-2,-2,-7
1470340052285604,2,6,8,7,5,-13,-11,-8
1470340052286604,0,0,4,0,2,6,4,1
1470340052286604,-12,-23,-32,8,27,42,30,9
1470340052300635,-12,-4,-4,-5,-1,0,6,-3
1470340052300635,-1,0,2,-5,-4,-4,-1,-4
1470340052301135,4,8,13,-2,-12,-26,-26,-10
1470340052301135,-4,-3,1,-5,-6,2,2,-3
1470340052323662,4,-2,3,0,6,2,3,3
1470340052323662,-1,3,-4,-8,-12,-7,-3,3
1470340052324663,-8,-12,-13,-1,10,19,17,9
1470340052324663,3,0,11,9,11,-12,-19,2
1470340052337674,-4,-2,1,-1,4,0,3,2
1470340052337674,-9,-11,-10,-8,-3,14,9,-1
1470340052352687,-2,4,0,-9,-11,-12,-9,-9
1470340052352687,-2,3,0,-14,-9,-9,-7,-5
1470340052359695,12,23,24,-4,-19,-23,-24,-9
1470340052359695,-3,-8,-5,1,2,6,6,3
1470340052367700,3,1,0,3,4,8,5,-1
1470340052367700,3,2,3,-3,-8,-4,-3,-9
1470340052374708,-11,-16,-21,1,17,30,19,11
1470340052374708,6,2,13,10,12,-14,-16,0
1470340052382719,-2,-5,-3,1,0,4,2,3
1470340052382719,-4,3,7,-14,-22,-19,-11,-6
1470340052397731,7,15,13,-1,-13,-30,-21,-12
1470340052397731,4,6,-1,-5,-7,-5,-4,5
1470340052405738,10,20,18,9,-6,-16,-14,-4
1470340052405738,-10,-16,-19,-7,2,12,7,2
1470340052420424,0,-3,3,0,-1,-3,5,1
1470340052420424,-1,-4,-5,-1,-4,-6,-2,-8
1470340052421423,-14,-16,-20,-1,8,21,11,1
1470340052421423,2,5,8,4,2,-4,-12,-2
1470340052434435,-2,-2,-11,3,2,4,4,0
1470340052434435,7,14,14,-16,-33,-29,-21,-6
1470340052443442,6,18,15,-1,-16,-33,-25,-8
1470340052443442,0,3,1,3,-2,0,3,2
1470340052457455,4,1,7,9,15,5,-1,-5
1470340052457455,-7,-11,-12,-4,1,14,9,3
1470340052465464,-3,-6,-4,6,5,7,2,-1
1470340052465464,0,-6,-2,-3,-2,-5,-2,3
1470340052479475,-11,-14,-11,-10,0,10,9,-1
1470340052479475,0,4,2,-3,-6,-10,-17,-7
1470340052488483,-1,-2,-1,-1,-2,4,4,6
1470340052488483,7,12,12,1,-9,-14,-6,-2
1470340052494999,-4,9,8,3,-1,-9,-9,-1
1470340052494999,-1,-9,-1,-4,6,8,9,1
1470340052503006,-2,-7,-5,8,21,11,10,8
1470340052503006,-6,-5,-6,0,-3,8,5,-6
1470340052517021,0,0,-2,-3,-2,0,-1,3
1470340052517021,4,1,2,1,0,-8,-2,-4
1470340052525030,-3,-6,-6,-11,-8,-2,5,3
1470340052525030,5,10,14,0,-4,-22,-16,-5
1470340052540042,1,-4,0,-4,-9,-7,-3,0
1470340052540042,-2,-3,-5,6,8,15,14,1
1470340052548050,1,-12,-3,8,16,1,0,-3
1470340052548050,-3,-7,-2,-2,1,1,3,1
1470340052563066,-2,-11,-6,0,5,8,4,5
1470340052563066,-4,0,-4,-9,-6,-10,-3,1
1470340052570069,-3,-3,2,-3,0,2,-2,-1
1470340052570069,-2,2,6,3,4,0,-9,-1
1470340052577075,-5,-2,-3,-9,-12,0,2,-1
1470340052577075,9,14,13,2,-5,-17,-11,-6
1470340052586083,0,3,5,-3,-9,-7,-11,-1
1470340052586083,-9,-23,-30,6,31,47,42,16
1470340052600102,-5,-11,-5,10,13,9,-2,5
1470340052600102,-8,-9,-2,0,3,10,0,3
1470340052609111,0,-2,3,-1,-6,-5,-6,-4
1470340052609111,-5,2,1,-6,-11,-12,-5,-1
1470340052624128,3,7,0,-7,-1,-2,3,1
1470340052624128,6,8,8,5,-3,-2,-7,-3
1470340052625129,-5,2,-5,-8,-7,0,0,0
1470340052625129,11,7,12,4,-1,-13,-17,-5
1470340052637139,4,0,1,-1,-3,-4,-6,-1
1470340052637139,-21,-28,-31,7,27,50,42,14
1470340052646147,-3,-8,0,2,8,8,6,-4
1470340052646147,-1,-7,-3,-3,0,8,2,2
1470340052660160,9,15,14,-6,-13,-34,-25,-12
1470340052660160,0,1,0,-9,-12,-17,-11,-9
1470340052669169,0,-3,-4,-1,0,6,9,2
1470340052669169,0,7,4,-4,-6,-11,-7,-2
1470340052683183,-3,-11,-9,0,-1,9,10,3
1470340052683183,4,9,10,9,8,-10,-12,-6
1470340052685184,3,4,3,-6,-5,-9,0,3
1470340052685184,-14,-17,-31,-8,3,27,30,7
1470340052697703,1,4,-4,-9,-16,-7,-7,-2
1470340052697703,-1,5,-2,-3,-2,-5,3,2
1470340052706711,8,17,20,-2,-20,-28,-25,-8
1470340052706711,0,-1,5,-3,-6,-4,-2,-5
1470340052720228,-3,-1,-6,-4,3,7,4,6
1470340052720228,-1,4,2,1,0,-4,-4,5
1470340052729237,-8,-7,-15,-8,0,3,9,-3
1470340052729237,7,9,12,6,3,-14,-10,-3
1470340052743251,1,3,-1,-2,-1,2,-2,-4
1470340052743251,-9,-6,-5,-20,-21,-2,2,5
1470340052745251,5,10,12,-7,-21,-32,-22,-14
1470340052745251,3,4,6,-4,-9,-6,-6,-3
1470340052757263,9,12,15,9,3,-9,-7,0
1470340052757263,-6,-8,-10,6,10,10,7,0
1470340052774277,-6,-1,-9,2,4,10,10,-2
1470340052774277,-4,1,-1,8,4,0,2,2
1470340052780282,-3,-13,-12,-8,0,9,8,0
1470340052780282,4,6,8,0,-1,-12,-8,-5
1470340052796300,2,-4,0,1,7,0,-3,-1
1470340052796300,0,3,5,-22,-26,-16,-10,-7
1470340052803808,9,21,19,7,-19,-34,-32,-11
1470340052803808,2,0,-5,-4,-1,4,-4,-1
1470340052805309,-3,-2,-5,14,23,29,17,13
1470340052805309,-7,-15,-14,-1,13,12,8,5
1470340052817325,-6,-6,-1,1,5,9,9,-1
1470340052817325,1,-5,-3,6,10,6,4,2
1470340052826331,-3,-7,-5,-6,-5,2,7,3
1470340052826331,4,7,10,2,2,-4,-12,-6
1470340052840347,-4,-4,-4,2,4,5,2,0
1470340052840347,-2,5,11,-12,-22,-18,-10,-3
1470340052848364,14,18,15,6,1,-18,-17,-6
1470340052848364,-2,1,-6,-3,-1,-1,-1,2
1470340052863378,-12,-26,-28,6,32,42,37,9
1470340052863378,-4,-11,-10,-1,1,6,7,1
1470340052865368,-6,-3,-8,-7,-4,1,1,4
1470340052865368,2,-5,-5,-5,-4,-8,-13,-4
1470340052877378,-6,-5,-1,-4,-5,-7,0,-3
1470340052877378,2,4,4,0,-1,-3,-1,-2
1470340052886385,6,2,3,2,-5,2,-1,4
1470340052886385,3,-5,-6,3,7,9,11,2
1470340052899901,7,7,7,9,13,-10,-10,0
1470340052899901,1,-3,0,2,6,4,-2,1
1470340052908909,-17,-21,-23,1,18,34,22,9
1470340052908909,-7,-5,-4,-2,-5,4,3,-8
1470340052924021,-2,3,1,-3,-4,0,2,0
1470340052924021,7,13,16,5,-14,-23,-27,-8
1470340052925023,-4,-9,-9,-5,-2,7,4,-3
1470340052925023,3,2,0,2,3,-1,0,2
1470340052937032,-6,0,1,-6,-9,-8,-6,-5
1470340052937032,-2,-9,-14,7,19,23,21,3
1470340052946041,6,0,7,12,16,-12,-10,-8
1470340052946041,-2,-5,-1,2,-2,4,2,1
1470340052960055,1,-4,-4,-11,-13,-1,6,-4
1470340052960055,-2,6,3,-15,-22,-26,-17,-9
1470340052969062,0,1,3,-9,-6,-6,-6,-1
1470340052969062,15,22,31,0,-17,-24,-23,-7
1470340052984075,-11,-12,-15,-6,1,12,8,8
1470340052984075,1,-1,-2,1,7,7,2,-2
1470340052985077,-1,2,3,-6,-9,-8,-6,-2
1470340052985077,-14,-12,-22,-2,16,28,17,10
1470340052997595,4,1,8,5,3,-9,-13,0
1470340052997595,0,-10,-13,-6,4,4,10,3
1470340053006604,3,5,8,-15,-27,-27,-18,-1
1470340053006604,8,17,14,-5,-20,-29,-28,-15
1470340053019619,2,-2,3,-6,-5,-4,-6,-2
1470340053019619,6,10,9,8,0,-13,-11,-1
1470340053028627,-12,-13,-12,-2,-2,15,11,3
1470340053028627,-2,-3,1,2,7,6,0,5
1470340053043641,-2,3,0,-4,0,-6,-3,-3
1470340053043641,-14,-15,-15,-7,0,13,15,0
1470340053045643,4,15,4,2,-1,-11,-13,-2
1470340053045643,-4,-6,-10,1,3,7,8,-9
1470340053057653,7,11,16,-7,-24,-23,-21,-7
1470340053057653,6,19,17,-1,-11,-21,-19,-7
1470340053066662,0,-6,-3,-3,2,1,3,-1
1470340053066662,-1,-1,1,10,14,4,6,6
1470340053079674,-6,-3,-5,-2,3,9,4,3
1470340053079674,7,4,2,1,4,4,0,3
1470340053088681,1,-8,-4,-3,-1,-4,-1,-2
1470340053088681,-4,-7,-8,-14,-9,8,8,5
1470340053103698,6,7,8,0,-8,-22,-14,-9
1470340053103698,-2,-5,0,-7,-6,-3,0,5
1470340053105701,-1,5,7,-4,-7,-2,-1,-4
1470340053105701,1,3,-2,5,6,-6,-4,0
1470340053117274,-5,-2,-1,1,5,-1,2,-7
1470340053117274,-3,-11,-10,-1,10,8,9,1
1470340053126281,0,-2,-9,-4,-4,-2,1,-2
1470340053126281,-1,0,7,-5,-5,-7,5,3
1470340053140295,-3,5,4,4,3,1,4,3
1470340053140295,-7,-4,-2,-12,-16,-2,0,-6
1470340053149305,7,13,18,8,-5,-16,-21,-6
1470340053149305,-1,-1,0,0,-7,-10,-5,-5
1470340053164317,-8,-13,-18,5,20,32,25,11
1470340053164317,-2,-9,2,18,24,5,0,3
1470340053165318,-4,-2,-5,4,11,8,9,2
1470340053165318,1,-1,-3,3,3,6,4,-3
1470340053177329,-3,-8,-6,-16,-14,-9,1,-6
1470340053177329,2,0,-1,1,-7,2,1,3
1470340053186338,4,11,11,1,-6,-7,-13,1
1470340053186338,-2,-3,-5,-9,-10,-4,2,-6
1470340053199853,11,9,10,3,-3,-21,-12,-5
1470340053199853,3,0,-3,-6,-4,-5,0,0
1470340053208861,-17,-32,-35,3,29,58,42,11
1470340053208861,-9,-12,1,7,13,4,1,0
1470340053223881,-4,-5,-4,1,2,9,1,-2
1470340053223881,-6,8,6,-8,-12,-14,-15,-7
1470340053224882,-2,0,5,-6,-6,-16,-9,-4
1470340053224882,-1,-2,-5,-4,-1,4,4,5
1470340053236892,10,11,6,6,-4,-6,-3,8
1470340053236892,-8,-2,-7,-5,-6,5,6,-5
1470340053245900,8,12,8,7,-1,-17,-9,-9
1470340053245900,-1,1,-1,2,-1,-3,-7,2
1470340053259991,-15,-27,-30,-8,18,40,29,5
1470340053259991,-6,-5,-5,-2,-3,9,5,-2
1470340053268921,-3,-5,-1,-5,-1,-1,2,1
1470340053268921,12,19,23,-5,-27,-34,-32,-7
1470340053283933,-4,4,1,-3,-12,-12,-5,0
1470340053283933,-1,-2,-3,-3,8,2,5,4
1470340053284935,1,-2,2,-5,-3,-7,-6,-2
1470340053284935,-6,-12,-14,-4,4,15,12,-1
1470340053297451,5,5,10,10,6,-6,-14,-4
1470340053297451,0,-1,3,3,2,-4,-1,4
1470340053306459,-8,-16,-16,-13,-8,8,13,7
1470340053306459,5,5,6,-10,-14,-19,-13,-8
1470340053319976,1,-1,6,-6,-7,-4,-11,-2
1470340053319976,11,18,24,3,-11,-18,-23,-5
1470340053328983,4,-2,0,4,2,5,3,1
1470340053328983,-6,-7,-4,-5,-1,8,5,4
1470340053343996,2,1,2,4,4,-6,-1,0
1470340053343996,-6,-8,-9,-6,1,6,11,-3
1470340053344998,7,7,11,6,-2,-12,-14,-7
1470340053344998,-3,-4,-4,3,7,4,-2,3
1470340053357009,0,1,-3,-19,-25,-11,-3,0
1470340053357009,11,12,14,-5,-22,-34,-32,-13
1470340053366020,2,3,1,-4,-3,-6,-2,1
1470340053366020,-1,3,11,5,14,3,3,1
1470340053380031,-7,-3,-7,5,9,13,9,4
1470340053380031,0,1,-5,1,6,9,9,12
1470340053389038,-4,-3,-4,0,5,6,0,-3
1470340053389038,-11,-8,-14,-9,-2,-1,3,4
1470340053404053,0,2,8,4,2,-8,-16,-7
1470340053404053,0,-9,-3,-1,1,3,2,-1
1470340053405555,-4,7,9,-15,-28,-19,-8,-5
1470340053405555,8,13,14,-5,-17,-34,-28,-11
1470340053417070,3,3,-1,-4,-5,-7,1,-2
1470340053417070,-4,-13,-15,9,27,33,30,10
1470340053426077,-8,-13,-9,0,-1,3,5,3
1470340053426077,-7,-1,-5,-1,-2,7,6,1
1470340053440091,-2,-6,-7,-2,8,4,9,1
1470340053440091,-7,-3,-6,-5,-5,-2,2,-5
1470340053449098,1,-2,1,2,5,2,-2,-2
1470340053449098,1,-1,1,4,-1,2,3,1
1470340053463110,-1,0,4,-6,-11,-13,-5,-5
1470340053463110,10,12,10,7,-3,-15,-18,1
1470340053470118,0,5,7,5,5,3,7,-1
1470340053470118,-10,-19,-28,9,31,45,37,8
1470340053477123,-3,-6,-3,-4,-2,9,1,2
1470340053477123,-3,-4,-2,-3,-4,2,6,-2
1470340053486131,-1,4,4,-1,-9,-23,-19,-5
1470340053486131,1,-6,-5,-3,-6,8,2,-5
1470340053500151,-2,1,3,-1,0,-2,0,-5
1470340053500151,-3,4,4,-2,-8,-6,-4,-4
1470340053509156,-4,-5,-9,-4,3,7,10,1
1470340053509156,3,6,12,16,20,-7,-10,0
1470340053522914,-5,-5,-11,-2,2,-1,0,2
1470340053522914,-4,-15,-8,4,9,16,20,3
1470340053529927,-1,0,-3,-8,-13,-6,-8,-5
1470340053529927,3,0,4,4,-1,-6,-4,-4
1470340053545933,14,20,21,-3,-20,-27,-25,-6
1470340053545933,-10,-10,-6,-6,2,9,4,0
1470340053547936,2,-2,2,4,5,0,0,2
1470340053547936,3,0,5,-9,-13,-16,-6,-9
1470340053559946,-14,-13,-15,7,15,18,23,-3
1470340053559946,-1,-1,8,7,10,-15,-19,0
1470340053568954,1,-4,-3,3,7,10,8,0
1470340053568954,1,0,4,-14,-23,-17,-8,0
1470340053582968,4,-4,10,-6,-22,-26,-22,-8
1470340053582968,4,10,2,-1,-7,-9,-4,-2
1470340053589973,10,19,21,6,-6,-15,-16,-6
1470340053589973,-8,-7,-10,-7,2,12,13,5
1470340053606510,0,-4,-5,1,-3,5,4,1
1470340053606510,1,4,-4,-3,-9,-4,-7,-4
1470340053607994,-8,-19,-20,0,7,25,23,2
1470340053607994,4,2,6,8,-1,-8,-9,-5
1470340053619542,-8,-4,-6,-3,1,5,10,3
1470340053619542,7,8,10,-17,-28,-28,-18,-7
1470340053628597,7,19,15,-6,-22,-36,-29,-9
1470340053628597,5,1,3,-3,-8,-4,0,4
1470340053642571,5,5,14,13,14,2,-4,4
1470340053642571,-5,-11,-13,-6,0,13,10,-1
1470340053649610,-3,-7,-3,-3,0,0,1,-1
1470340053649610,-2,1,-3,-4,-4,3,-4,-4
1470340053666566,-11,-12,-12,-8,0,12,5,0
1470340053666566,6,5,5,-1,-7,-16,-15,-9
1470340053667568,-1,-5,-3,-4,4,3,3,-2
1470340053667568,5,14,14,-4,-18,-19,-18,-5
1470340053679622,2,14,10,-1,-9,-18,-14,-11
1470340053679622,-5,-4,-4,1,5,4,5,5
1470340053688631,-1,-1,-8,12,18,12,10,10
1470340053688631,-8,-11,-10,-9,-4,0,4,8
1470340053703650,2,0,-2,-1,2,-3,-3,3
1470340053703650,-3,-7,5,1,2,1,-4,-4
1470340053710156,-9,-11,-5,-10,-13,2,-3,-1
1470340053710156,4,14,11,0,-8,-22,-19,-5
1470340053726618,-1,-8,0,-7,-3,2,-2,0
1470340053726618,2,0,-2,-1,8,8,7,2
1470340053727590,-3,-8,-1,12,19,3,-2,-2
1470340053727590,-1,-6,-4,-2,5,7,5,0
1470340053739706,2,-4,-4,8,12,10,9,0
1470340053739706,-6,-8,-8,-16,-14,0,0,-7
1470340053748643,1,0,0,-2,1,5,6,-2
1470340053748643,2,4,5,3,5,-8,-7,-6
1470340053762637,-1,-4,-3,-10,-11,-4,-2,4
1470340053762637,10,13,15,2,-8,-21,-14,-4
1470340053769642,1,11,8,-4,-10,-6,-14,-9
1470340053769642,-7,-15,-21,7,26,37,36,8
1470340053786643,-11,-10,-2,11,24,7,0,7
1470340053786643,-7,-15,-14,11,21,19,12,5
1470340053787644,1,0,0,-1,-2,-1,0,3
1470340053787644,-5,-4,-10,-6,-5,-5,-13,-9
1470340053800279,1,-4,-3,-8,-9,1,-1,-2
1470340053800279,6,5,2,0,-2,-6,-10,1
1470340053809222,-6,-6,-4,-7,-4,0,4,4
1470340053809222,8,12,14,7,0,-4,-6,-2
1470340053822813,-3,9,1,-5,-5,-8,-7,-5
1470340053822813,-14,-25,-30,4,25,46,38,13
1470340053829790,-4,-11,-1,-3,6,6,-2,0
1470340053829790,-1,-7,-3,-3,-6,-5,-2,-2
1470340053846833,6,9,12,-2,-16,-21,-19,-6
1470340053846833,-5,2,5,-6,-9,-22,-9,-8
1470340053847780,-5,-6,-3,0,1,2,0,5
1470340053847780,3,6,3,-1,-4,-11,-12,-1
1470340053859846,-3,-5,-6,-5,-5,5,3,0
1470340053859846,5,8,13,12,-1,-7,-9,-3
1470340053868826,3,5,3,-5,-9,-5,-5,-6
1470340053868826,-18,-24,-22,-7,14,37,28,11
1470340053882901,-6,-4,-1,-1,-2,4,7,-2
1470340053882901,-1,1,2,-7,-9,-4,-9,-5
1470340053889868,16,18,23,-3,-22,-25,-31,-9
1470340053889868,-4,0,3,-3,-6,-9,-7,-5
1470340053906440,0,3,-1,1,3,3,1,3
1470340053906440,3,4,6,7,1,-5,-6,2
1470340053907898,-9,-9,-11,-3,-2,3,11,-4
1470340053907898,7,11,12,7,2,-11,-16,-4
1470340053919587,4,-2,3,2,3,-2,3,2
1470340053919587,-12,-9,-8,-18,-15,5,6,3
1470340053928577,3,5,5,-8,-18,-25,-15,-9
1470340053928577,-3,-5,2,-4,-6,-2,-2,-1
1470340053942608,11,11,20,5,-11,-16,-18,-4
1470340053942608,-5,-3,-10,-6,-2,8,4,1
1470340053949615,-3,-5,-2,1,-1,5,12,4
1470340053949615,0,-2,-3,-4,-1,-4,5,2
1470340053966655,-7,-12,-8,-10,-3,4,6,-8
1470340053966655,9,11,15,7,-1,-12,-10,-1
1470340053967574,1,-2,-4,2,6,2,-1,3
1470340053967574,-1,-1,2,-20,-32,-16,-4,-5
1470340053979628,6,17,15,-6,-23,-36,-33,-14
1470340053979628,-1,-2,7,-8,-7,-4,-1,-5
1470340053988624,0,1,-2,11,20,21,12,6
1470340053988624,-5,-10,-8,5,16,14,9,8
1470340054003200,-2,-10,-7,-2,-1,9,9,-1
1470340054003200,-2,-5,-10,4,11,5,4,2
1470340054010220,-9,-9,-5,-11,-1,3,3,2
1470340054010220,4,9,12,7,2,-5,-1,0
1470340054025932,-6,-4,-10,0,8,8,8,4
1470340054025932,-3,10,3,-17,-19,-10,-11,-1
1470340054027881,9,10,15,6,-7,-20,-21,-6
1470340054027881,-1,3,0,-2,-1,-6,-1,-4
1470340054039945,-10,-19,-25,10,34,44,37,15
1470340054039945,-8,-11,-10,2,4,5,2,2
1470340054048898,-5,-4,-10,-8,-1,3,0,-1
1470340054048898,-10,-3,-4,0,-3,1,-5,-3
1470340054063910,1,-3,-1,-7,-11,-2,-3,-2
1470340054063910,6,2,0,2,1,-7,-6,-1
1470340054069916,-2,-5,-4,5,2,9,-2,0
1470340054069916,-2,2,-1,-2,-3,-2,2,2
1470340054085932,4,9,10,18,13,-13,-10,-2
1470340054085932,-1,0,5,2,-2,3,1,-9
1470340054087933,-9,-21,-30,1,21,42,35,14
1470340054087933,-6,-14,-11,-7,-4,11,0,-5
1470340054100002,0,5,-1,-8,-4,-10,-5,-3
1470340054100002,8,13,11,4,-6,-28,-19,-7
1470340054109030,-5,-6,-2,-10,-5,0,0,-4
1470340054109030,6,6,5,2,8,5,-2,-1
1470340054123636,-1,2,4,-1,-7,-5,-4,-3
1470340054123636,-12,-16,-16,-1,11,17,15,6
1470340054129628,6,8,12,17,19,-13,-9,-4
1470340054129628,-1,-2,-4,-3,1,-2,0,-2
1470340054146645,-10,-15,-16,-14,-9,10,8,6
1470340054146645,0,3,-5,-13,-21,-16,-10,-6
1470340054147645,1,-3,3,-9,-14,-6,-5,5
1470340054147645,10,22,22,4,-21,-23,-23,-5
1470340054160657,-8,-12,-13,-4,7,10,9,5
1470340054160657,4,-3,3,2,0,4,1,3
1470340054168705,2,0,3,-7,-7,-10,-6,-6
1470340054168705,-7,-16,-17,-1,10,26,24,2
1470340054182741,7,6,13,1,4,-14,-19,-10
1470340054182741,-3,-6,-8,-6,3,10,9,7
1470340054189682,-2,8,6,-21,-34,-26,-17,-9
1470340054189682,5,8,10,-13,-18,-35,-28,-10
1470340054206702,0,4,-1,-1,-3,-12,-3,1
1470340054206702,8,13,12,6,3,-17,-12,-2
1470340054208203,-4,-11,-14,-2,0,12,12,3
1470340054208203,-1,-5,-1,0,1,3,-2,5
1470340054219729,7,1,5,-1,0,-3,0,-2
1470340054219729,-11,-20,-16,-6,3,21,12,5
1470340054228725,2,5,9,7,-1,-7,-10,-3
1470340054228725,-5,-9,-5,-1,6,2,11,-1
1470340054242768,5,12,18,-14,-26,-25,-23,-3
1470340054242768,8,20,18,-3,-16,-32,-31,-13
1470340054249836,1,2,6,-1,-8,-5,-5,2
1470340054249836,0,2,5,7,13,0,-1,3
1470340054266853,-1,-5,-7,-5,-5,10,8,0
1470340054266853,0,-4,-1,-3,0,2,7,4
1470340054267760,-3,-1,-2,2,6,0,-2,0
1470340054267760,-7,-7,-14,-10,-2,2,4,6
1470340054279795,5,9,10,8,-7,-19,-10,-2
1470340054279795,-5,-9,-8,-4,-3,2,-1,-4
1470340054288780,5,10,10,-3,-11,-11,0,-3
1470340054288780,1,2,3,3,-5,-3,-11,-6
1470340054303346,-3,-11,-5,-5,4,1,3,0
1470340054303346,-2,-8,-5,8,16,11,9,5
1470340054310330,-7,-5,-8,-5,-2,-4,6,1
1470340054310330,2,4,-2,-5,-4,-2,-7,-3
1470340054326848,-1,5,6,3,0,-3,-5,-4
1470340054326848,-1,-4,-3,-9,-16,0,4,-6
1470340054327850,8,9,8,3,-3,-20,-14,-5
1470340054327850,2,2,0,-2,-3,-5,1,-1
1470340054339898,-5,-6,-12,3,15,26,21,10
1470340054339898,-1,-8,-1,22,24,5,2,5
1470340054348869,-6,-6,-4,-2,6,4,7,-4
1470340054348869,-4,-3,-7,5,13,6,11,6
1470340054362921,-4,-3,-4,-8,-9,-6,-1,-7
1470340054362921,0,-4,2,-9,-4,-7,-4,2
1470340054369917,5,7,7,0,-5,-2,-5,0
1470340054369917,-6,-5,-1,-6,-6,-4,2,6
1470340054385957,4,6,6,1,-2,-6,-14,-5
1470340054385957,-1,4,2,-11,-9,-7,-2,-3
1470340054392935,-10,-27,-32,3,30,52,36,15
1470340054392935,-4,-12,-3,10,15,0,-2,3
1470340054400103,1,0,-5,6,8,7,10,-1
1470340054400103,-1,-5,4,-2,-3,-8,-8,-1
1470340054409020,5,5,6,0,-1,-10,-10,-2
1470340054409020,3,-3,-2,-5,-2,3,1,-2
1470340054423130,-2,3,10,0,-5,-8,-3,-4
1470340054423130,-7,1,-4,-5,-5,-1,1,-6
1470340054430138,0,6,7,4,-4,-9,-10,-4
1470340054430138,-2,-3,-1,-6,-5,-1,-2,-1
1470340054446129,-15,-28,-33,2,23,45,34,16
1470340054446129,-4,-7,-2,1,-2,3,2,1
1470340054452157,-6,0,-3,0,-1,2,0,0
1470340054452157,9,20,24,-4,-17,-33,-25,-8
1470340054469131,-3,5,3,-7,-10,-16,-11,-2
1470340054469131,-2,1,1,-5,-1,-2,7,4
1470340054470132,1,4,3,-5,-4,-12,-7,-1
1470340054470132,-4,-8,-10,-1,0,13,13,-3
1470340054483202,6,2,8,8,5,-11,-13,-5
1470340054483202,6,7,0,0,2,2,-6,-3
1470340054490150,-11,-19,-22,-15,-2,16,19,3
1470340054490150,1,6,5,-3,-19,-12,-10,-5
1470340054505714,2,5,3,-8,-10,-11,-8,0
1470340054505714,13,20,26,2,-15,-20,-18,-7
1470340054512755,-1,2,2,-2,-4,-8,-5,-2
1470340054512755,-2,2,-2,-4,0,6,7,-1
1470340054529044,2,1,1,0,-3,-2,-3,-3
1470340054529044,-4,-8,-12,-8,-4,4,5,-1
1470340054530021,6,4,14,5,5,-13,-12,-4
1470340054530021,-1,1,-2,0,1,0,4,2
1470340054543086,-8,-6,-8,-22,-24,-6,0,-1
1470340054543086,5,13,12,-4,-16,-31,-20,-10
1470340054550068,-1,-1,3,-7,-11,-6,-6,-2
1470340054550068,10,7,18,6,3,-4,-7,-1
1470340054566052,-8,-10,-9,-5,8,12,7,2
1470340054566052,-4,-4,-7,1,6,5,13,4
1470340054572083,3,-3,-3,3,3,1,2,2
1470340054572083,-4,-8,-8,-5,0,3,6,3
1470340054589152,5,2,10,4,2,-6,-10,-4
1470340054589152,-6,-3,1,-6,-1,4,-3,-3
1470340054590074,-8,3,1,-20,-26,-22,-4,-3
1470340054590074,8,16,25,1,-22,-37,-27,-7
1470340054603125,0,5,-2,-2,-4,-7,0,1
1470340054603125,-3,-4,-9,12,24,29,23,9
1470340054610133,-4,-8,-9,2,12,12,-1,-3
1470340054610133,-2,-2,-5,-5,3,11,8,-3
1470340054625191,-2,-2,-3,1,9,3,9,0
1470340054625191,-6,-10,-3,-8,-7,-3,-3,-1
1470340054632198,4,-1,4,2,-5,-5,-6,1
1470340054632198,-3,-7,-14,-3,-1,5,1,3
1470340054649170,-2,-2,1,-16,-21,-12,-8,-10
1470340054649170,8,11,11,4,-2,-15,-20,-9
1470340054650170,2,3,4,2,-1,4,3,-3
1470340054650170,-11,-24,-27,6,30,42,35,10
1470340054663236,-6,-10,-7,2,6,12,7,4
1470340054663236,-6,-5,-6,-3,-1,3,4,1
1470340054670220,-3,4,0,-3,-3,-15,-11,0
1470340054670220,-4,-8,-10,-8,-6,4,0,2
1470340054685282,6,1,0,7,0,2,-1,1
1470340054685282,-6,-4,0,-3,-2,-7,-2,-2
1470340054692229,2,-5,-1,2,4,9,5,1
1470340054692229,-3,4,5,12,18,-6,-10,0
1470340054709272,2,-1,2,2,-3,-2,-3,1
1470340054709272,-6,-15,-27,-2,12,28,24,6
1470340054710772,-5,-8,-2,-3,-5,0,0,-3
1470340054710772,-1,-1,0,-9,-9,-6,-2,-3
1470340054723018,7,11,20,-3,-18,-28,-30,-11
1470340054723018,-11,-12,-9,-17,-3,4,6,-1
1470340054729982,-1,-4,-5,5,8,2,4,-4
1470340054729982,1,8,1,0,-9,-13,-6,-7
1470340054745995,-10,-12,-18,1,14,19,19,6
1470340054745995,4,5,9,14,10,-12,-16,-1
1470340054752020,1,0,1,0,-3,4,1,-2
1470340054752020,-2,-5,-4,-11,-16,-1,4,2
1470340054769071,2,12,8,-7,-17,-20,-16,-7
1470340054769071,2,0,0,7,3,-1,1,2
1470340054770020,16,19,27,2,-13,-21,-25,-7
1470340054770020,-8,-16,-15,-4,2,8,7,-3
1470340054783073,0,0,3,4,6,3,4,3
1470340054783073,5,2,-3,-5,-10,-10,-9,-5
1470340054790115,-15,-17,-21,-3,16,21,17,1
1470340054790115,7,2,13,7,1,-6,-15,-7
1470340054805612,-5,-7,-8,-1,1,8,6,6
1470340054805612,2,5,14,-16,-31,-28,-18,-7
1470340054812621,8,18,19,-6,-18,-36,-23,-14
1470340054812621,0,1,-2,-5,-4,-3,-6,-3
1470340054829330,5,4,11,2,5,-6,-8,-8
1470340054829330,-7,-14,-17,-8,3,11,7,3
1470340054830310,-4,-1,-3,0,-2,4,3,6
1470340054830310,-4,-3,-6,0,2,-3,4,-1
1470340054843364,-10,-9,-11,-7,4,12,11,2
1470340054843364,4,6,10,5,2,-9,-9,-6
1470340054850415,-2,0,-7,-3,-1,1,5,0
1470340054850415,10,18,22,-10,-27,-29,-22,-1
1470340054865363,5,15,13,2,-13,-24,-23,-10
1470340054865363,2,1,4,-2,-3,4,-1,0
1470340054872391,1,-1,-3,13,14,10,8,6
1470340054872391,-7,-11,-9,-4,-4,3,9,-6
1470340054888406,-1,-7,-2,0,5,4,6,2
1470340054888406,0,-2,0,7,7,2,-2,0
1470340054890364,-6,-7,-10,-12,-9,1,4,0
1470340054890364,6,14,11,-5,-12,-14,-15,-4
1470340054903451,-2,-7,1,-2,-1,-5,0,0
1470340054903451,3,7,4,-1,-2,-2,-1,2
1470340054909954,-1,-3,-4,7,6,3,-3,-4
1470340054909954,-2,-4,-4,0,10,7,3,2
1470340054925983,0,-12,-11,10,21,11,9,0
1470340054925983,-6,1,-4,-3,-3,1,2,1
1470340054932987,2,0,1,-4,0,-6,1,2
1470340054932987,3,2,6,5,2,-7,-5,-1
1470340054949061,-7,1,1,-14,-20,-2,4,2
1470340054949061,6,9,10,2,-7,-17,-18,-8
1470340054949994,0,4,4,1,1,-1,-5,3
1470340054949994,-6,-11,-17,3,27,32,29,9
1470340054962040,-5,-6,-6,10,22,2,-3,5
1470340054962040,0,-5,-1,2,4,2,3,0
1470340054971038,-3,-11,-5,2,5,5,4,2
1470340054971038,-9,-5,-4,-7,-6,-5,-5,-9
1470340054986026,-3,-2,-3,-3,-9,1,0,-4
1470340054986026,0,4,10,-1,-5,-5,-3,-5
1470340054992076,-7,-3,-4,-6,-11,-6,2,-5
1470340054992076,10,15,19,11,1,-12,-17,-5
1470340055016139,3,2,4,-5,-11,-5,-7,-6
1470340055016139,-13,-24,-33,9,30,50,41,11
1470340055018176,-11,-10,0,5,13,5,-1,-1
1470340055018176,-6,-7,-7,0,5,8,2,3
1470340055022143,-4,1,4,-2,-3,-17,-12,-7
1470340055022143,-1,1,8,-1,-13,-16,-16,-2
1470340055039161,1,2,-3,-6,-12,0,-3,-5
1470340055039161,3,4,7,-1,-11,-8,-3,0
1470340055045122,-2,-10,-7,-3,-4,5,8,-1
1470340055045122,4,6,12,8,8,-5,-7,-7
1470340055052129,2,0,4,3,4,-4,-3,0
1470340055052129,-12,-24,-26,-1,11,38,31,10
1470340055069218,6,2,-6,-2,-4,5,0,1
1470340055069218,-9,-5,-6,-4,-10,-12,-4,-4
1470340055071200,3,11,19,-11,-23,-35,-31,-11
1470340055071200,-2,4,2,3,-4,-16,-10,-9
1470340055082159,-1,0,-3,-9,3,5,5,2
1470340055082159,8,7,4,0,-7,-8,-7,0
1470340055091195,-4,-4,-4,-2,1,14,7,0
1470340055091195,8,5,10,8,1,-10,-13,-6
1470340055105753,0,5,0,3,-6,-3,-7,-4
1470340055105753,-7,-9,-12,-13,-10,10,6,5
1470340055112719,7,10,7,-12,-21,-17,-19,-10
1470340055112719,-3,-1,-1,-8,-8,-4,-5,-3
1470340055129153,10,12,26,-1,-18,-26,-26,-11
1470340055129153,-5,-5,-7,-6,0,5,4,2
1470340055130156,-4,-6,-5,1,2,9,7,4
1470340055130156,-2,-4,-2,-4,-4,-2,-7,-5
1470340055142210,-4,-10,-10,1,2,5,5,-4
1470340055142210,4,6,7,7,4,-10,-10,0
1470340055151230,2,-6,-3,2,4,3,3,-2
1470340055151230,-5,0,1,-20,-28,-14,-3,-4
1470340055165219,5,19,17,-10,-21,-32,-26,-10
1470340055165219,0,2,1,-6,-6,-9,-6,-4
1470340055172194,-1,3,3,10,6,2,5,5
1470340055172194,-7,-8,-15,3,15,8,7,1
1470340055189211,-1,-2,0,-4,3,5,9,1
1470340055189211,2,-3,0,5,4,2,2,-4
1470340055190208,-6,-8,-8,-9,0,4,9,2
1470340055190208,3,5,12,7,3,-8,-10,-2
1470340055202726,-2,-8,-7,-1,0,3,9,0
1470340055202726,-3,4,1,-20,-25,-14,-9,-6
1470340055211731,12,15,18,-5,-15,-28,-28,-14
1470340055211731,2,4,6,-1,-6,-18,-16,-6
1470340055225308,-6,-16,-16,8,31,39,30,11
1470340055225308,-7,-10,-6,5,9,11,4,5
1470340055232297,-4,1,-6,-1,0,-4,3,2
1470340055232297,-3,-5,-5,2,8,4,7,4
1470340055249298,-1,-2,-6,-6,-5,-3,3,-2
1470340055249298,2,3,7,4,0,-6,-2,2
1470340055250295,-1,0,-7,1,9,6,5,4
1470340055250295,2,-6,3,-11,-9,-4,-2,-1
1470340055262371,4,6,6,8,-2,-15,-21,-4
1470340055262371,-5,-6,-5,-4,3,2,6,-1
1470340055271339,-9,-19,-24,13,32,38,28,10
1470340055271339,-5,-8,-11,-7,-4,4,1,3
1470340055285370,-2,-1,-2,-5,-1,-5,-3,7
1470340055285370,6,9,12,0,-7,-26,-24,-7
1470340055292373,-5,-4,-4,-3,-6,2,4,0
1470340055292373,5,3,6,1,2,1,4,-6
1470340055307935,0,-2,0,2,-6,0,-7,2
1470340055307935,-5,-9,-7,3,12,19,20,4
1470340055316316,0,3,9,9,11,-14,-14,-6
1470340055316316,-1,-3,-3,0,2,10,4,5
1470340055322290,-6,-15,-19,3,16,15,19,2
1470340055322290,-1,-2,-9,-13,-24,-8,-10,-4
1470340055331300,5,4,6,-8,-11,-7,-7,-4
1470340055331300,6,16,23,-7,-22,-26,-26,-7
1470340055345397,-6,-2,-4,-2,1,6,6,-2
1470340055345397,0,1,1,6,9,3,2,4
1470340055352362,-1,-3,4,-3,-5,-6,-2,-2
1470340055352362,-6,-18,-20,4,18,27,21,7
1470340055368357,0,-3,10,10,9,-9,-11,-7
1470340055368357,-4,-4,-3,-9,-2,-1,-2,-2
1470340055375337,-3,-5,-4,-14,-19,-11,-5,-4
1470340055375337,0,1,3,-13,-26,-31,-22,-10
1470340055382343,-4,1,1,-4,-10,-4,-2,4
1470340055382343,7,18,19,7,-5,-15,-20,-12
1470340055391383,-3,-8,-11,2,5,10,8,7
1470340055391383,-4,7,-1,1,6,6,0,-4
1470340055405886,3,2,8,1,-4,-4,-5,-1
1470340055405886,-5,-13,-21,-2,10,22,20,4
1470340055412430,4,3,8,3,2,-9,-12,-1
1470340055412430,-2,-3,-3,5,-1,5,-2,2
1470340055428370,5,11,11,-18,-35,-31,-29,-11
1470340055428370,3,11,23,-11,-23,-37,-32,-14
1470340055435297,2,2,-2,-4,-6,-2,-6,-5
1470340055435297,9,5,12,9,8,-4,0,-3
1470340055451311,-8,-9,-15,-10,-4,6,10,2
1470340055451311,1,-2,-4,-1,7,4,3,0
1470340055453314,-1,0,6,0,3,-3,-7,-3
1470340055453314,-7,-13,-12,-8,1,9,10,0
1470340055465355,9,14,3,7,8,-12,-15,-5
1470340055465355,-6,-5,-5,-2,-2,9,10,7
1470340055472373,2,7,8,-14,-23,-22,-18,-2
1470340055472373,4,7,8,3,-3,-11,-10,-7
1470340055488389,-1,-7,-1,1,5,2,4,0
1470340055488389,0,-2,-8,10,13,8,7,-2
1470340055494395,-3,-8,-12,-8,-4,5,8,-2
1470340055494395,3,2,-3,-1,0,5,0,4
1470340055511377,-3,-10,-4,-3,1,2,-2,-3
1470340055511377,-3,-9,-7,-7,-11,-3,4,-5
1470340055512877,1,1,4,4,-7,-14,-14,-3
1470340055512877,-2,1,1,0,0,-1,2,-2
1470340055525361,-1,-2,-3,-1,6,7,8,5
1470340055525361,-2,1,-1,13,17,4,-6,1
1470340055532313,1,-4,-7,4,8,6,11,2
1470340055532313,-2,-4,-3,6,20,8,9,10
1470340055548327,-4,-2,-2,-7,-6,3,5,1
1470340055548327,3,-1,1,-5,-1,-1,4,3
1470340055555336,0,1,-1,1,-5,-5,-10,-6
1470340055555336,-7,-3,-5,-13,-11,2,0,-3
1470340055571400,5,11,14,-2,-10,-22,-24,2
1470340055571400,3,-1,2,-5,-3,1,-1,-3
1470340055573453,-13,-23,-14,8,30,41,36,12
1470340055573453,-9,-12,-6,17,25,1,2,1
1470340055585387,-6,-4,-7,0,4,6,7,1
1470340055585387,-1,-4,-1,2,-3,0,-1,1
1470340055592418,-1,-2,0,-3,-1,-5,-1,-4
1470340055592418,3,0,-1,-2,-7,-1,-3,-1
1470340055608505,2,6,8,-3,-10,-6,-7,-5
1470340055608505,-3,-4,-7,-11,-9,-3,-3,-1
1470340055614995,2,8,2,3,0,-6,-6,-12
1470340055614995,-1,0,5,-3,-4,-5,-5,-2
1470340055631116,-17,-30,-38,10,41,58,48,13
1470340055631116,-6,-11,-1,4,10,4,0,-3
1470340055633011,-1,0,1,-2,2,0,2,5
1470340055633011,6,11,12,-5,-14,-26,-19,-5
1470340055646052,0,0,5,-3,-13,-14,-7,-3
1470340055646052,5,3,3,-2,-3,-6,2,-1
1470340055653030,1,5,4,-1,-4,-3,-5,2
1470340055653030,-4,-6,-10,0,1,5,11,2
1470340055668097,4,5,5,8,5,-4,-9,-2
1470340055668097,0,0,-1,1,0,-8,-1,-4
1470340055675073,-18,-22,-27,1,16,37,30,15
1470340055675073,-5,2,-7,-10,-10,-2,-3,-4
1470340055691063,3,-2,2,-1,-2,0,1,1
1470340055691063,11,15,25,-7,-24,-32,-29,-7
1470340055693122,3,6,8,-8,-8,-6,-6,-5
1470340055693122,-4,-1,-1,1,4,12,1,1
1470340055705680,6,7,2,0,0,-10,-5,0
1470340055705680,-7,-12,-12,-4,3,17,5,-4
1470340055712686,5,9,10,4,-6,-21,-15,-4
1470340055712686,0,0,0,5,6,2,4,-2
1470340055728334,-11,-8,-16,-16,-19,6,8,-2
1470340055728334,3,17,8,-8,-13,-17,-14,-10
1470340055734324,-4,-2,4,-6,-12,-11,-10,-4
1470340055734324,8,10,19,-8,-16,-30,-13,-5
1470340055751388,-4,-4,-5,2,0,5,3,-1
1470340055751388,-10,-1,-5,-3,7,12,10,4
1470340055753315,3,0,-3,0,1,-6,1,-2
1470340055753315,-11,-12,-14,-10,-10,4,2,0
1470340055765339,3,5,12,2,0,-17,-12,2
1470340055765339,-3,-10,-6,1,3,2,6,1
1470340055772376,0,4,3,-17,-28,-13,-7,-11
1470340055772376,9,18,21,-9,-26,-38,-35,-13
1470340055788364,5,4,1,-4,-7,-11,-7,0
1470340055788364,0,5,6,10,16,11,7,9
1470340055795406,-5,-5,-11,8,16,10,7,4
1470340055795406,-2,-7,-1,2,7,9,8,5
1470340055811461,-1,-5,-1,0,7,9,5,-1
1470340055811461,-5,-11,-9,-6,-8,-3,1,1
1470340055812909,1,-1,6,-4,-5,-11,-6,-6
1470340055812909,-7,-10,-7,1,3,3,3,0
1470340055825996,-1,4,6,-16,-18,-17,-16,-5
1470340055825996,9,16,19,8,-4,-25,-22,-7
1470340055831992,1,2,4,1,3,-1,1,5
1470340055831992,-6,-18,-24,12,35,44,37,11
1470340055848024,-6,-11,-8,0,2,8,7,1
1470340055848024,-6,-13,-12,-7,4,9,2,0
1470340055855013,0,-2,-4,1,1,-1,-2,-1
1470340055855013,-4,-3,-9,-2,1,-2,4,0
1470340055871036,-1,5,5,3,0,-4,-2,-2
1470340055871036,0,-4,-2,-1,1,3,4,-2
1470340055872996,-4,2,-1,-7,-3,-1,0,-1
1470340055872996,0,6,3,7,7,-9,-10,1
1470340055886008,1,1,2,6,7,5,4,-5
1470340055886008,-11,-21,-28,11,23,40,34,19
1470340055892072,-2,-2,-5,-1,3,8,3,1
1470340055892072,-1,-3,-1,-8,-5,-4,-3,-2
1470340055908582,3,6,13,-1,-7,-26,-24,-6
1470340055908582,-1,-5,-4,-8,-5,-2,4,-4
1470340055915087,1,-7,-2,7,3,6,-1,1
1470340055915087,0,0,0,-5,-13,-10,-4,-4
1470340055931105,-12,-6,-13,1,15,17,16,2
1470340055931105,4,-2,10,17,22,-9,-12,-1
1470340055933163,-5,1,0,-2,2,3,5,-3
1470340055933163,-2,-8,-9,-2,0,12,9,3
1470340055945153,-3,1,2,-7,-18,-12,-8,-5
1470340055945153,3,9,2,-6,-5,-5,-4,-3
1470340055954125,8,19,24,1,-16,-26,-23,-15
1470340055954125,-4,-10,-6,0,3,11,7,4
1470340055968161,0,0,-2,5,6,7,4,-1
1470340055968161,-2,2,-4,-9,-11,-9,-6,0
1470340055975190,-14,-17,-21,2,13,22,20,5
1470340055975190,1,0,9,10,5,-10,-13,-6
1470340055991214,0,-6,4,-1,1,1,-5,1
1470340055991214,-2,4,5,-17,-24,-18,-11,-5
1470340055993163,6,8,13,-9,-18,-27,-24,-4
1470340055993163,-2,4,-3,-6,-5,-4,2,-3
1470340056005187,8,13,17,5,-1,-12,-14,-4
1470340056005187,-13,-14,-11,-8,3,10,9,-1
1470340056014195,1,0,-1,6,6,0,0,6
1470340056014195,-3,7,7,0,-1,-3,-3,-3
1470340056027783,-9,-12,-19,-3,11,17,17,5
1470340056027783,3,8,5,3,3,-7,-13,-2
1470340056034807,-6,-8,-11,3,10,10,8,3
1470340056034807,9,9,10,-17,-32,-21,-21,-6
1470340056050777,8,10,17,-8,-23,-32,-25,-14
1470340056050777,1,10,1,3,-4,-8,1,1
1470340056052779,-2,0,5,3,7,3,0,6
1470340056052779,-10,-15,-14,-5,7,5,7,3
1470340056064815,-5,-7,-8,1,0,-3,-7,-1
1470340056064815,4,-4,-1,-1,3,-1,-2,-3
1470340056073798,-3,-8,-13,-10,-7,6,1,-2
1470340056073798,2,15,22,4,-6,-18,-17,-6
1470340056087837,-3,-3,-8,-5,-6,4,7,-1
1470340056087837,1,5,6,-5,-16,-10,-8,-3
1470340056094881,9,8,10,2,-3,-11,-7,-1
1470340056094881,-3,-5,0,1,4,8,5,4
1470340056111375,2,-7,-12,6,17,12,11,5
1470340056111375,-7,-9,-8,-6,-5,5,0,-1
1470340056112842,-5,-7,1,-5,-1,-4,-2,-7
1470340056112842,1,-5,-1,4,4,-3,-10,-3
1470340056125395,-8,-6,-5,-13,-17,-3,4,4
1470340056125395,10,15,15,2,-9,-12,-18,-2
1470340056133458,0,2,-7,-4,-5,-4,-6,3
1470340056133458,2,1,-7,8,17,19,18,5
1470340056148442,-3,-9,-7,6,20,8,-1,5
1470340056148442,-4,-6,-5,1,5,6,9,7
1470340056154472,0,-11,-5,3,8,6,5,-6
1470340056154472,-1,-7,-8,-6,-11,-8,-7,-5
1470340056171486,-2,2,-3,0,0,3,-2,-5
1470340056171486,2,4,8,7,-2,-6,-9,-2
1470340056172433,-7,1,-3,-8,-9,2,-1,2
1470340056172433,6,14,15,8,-5,-13,-17,-4
1470340056193550,2,5,6,-8,-6,-8,-4,1
1470340056193550,-9,-20,-25,9,32,42,31,9
1470340056193550,-2,-12,-7,16,18,7,0,-2
1470340056193550,-6,-9,-10,-5,4,8,5,2
1470340056208971,-1,3,3,2,-2,-5,-5,-3
1470340056208971,-6,4,1,-4,-11,-12,-10,-5
1470340056214977,0,-2,-3,-2,-1,-10,-5,-1
1470340056214977,6,9,8,-3,-7,-15,-14,-11
1470340056230498,-4,-5,-7,-8,-3,-2,-2,0
1470340056230498,11,5,5,5,4,-13,-12,-5
1470340056231497,0,2,1,-6,-3,-2,-4,-5
1470340056231497,-14,-28,-32,3,27,49,42,17
1470340056253557,-5,-10,-9,2,3,6,3,-3
1470340056253557,-2,1,-3,-4,-2,3,8,0
1470340056253557,0,13,19,-7,-17,-34,-27,-12
1470340056253557,0,0,0,-8,-18,-18,-12,-4
1470340056268531,2,2,0,-5,-4,4,0,2
1470340056268531,4,-5,3,2,-3,-2,-8,-3
1470340056274591,3,-4,-12,-1,-2,8,9,-1
1470340056274591,6,11,7,10,12,-8,-10,-2
1470340056289550,3,0,-1,0,3,3,3,1
1470340056289550,-16,-18,-21,-11,4,22,18,6
1470340056297560,-5,1,5,-12,-14,-10,-13,-6
1470340056297560,6,3,1,-4,-8,-4,1,2
1470340056313123,9,10,21,-8,-24,-31,-26,-9
1470340056313123,0,4,-1,-4,-7,-2,-6,-6
1470340056314077,1,2,1,4,8,6,7,0
1470340056314077,-3,0,-2,5,1,-3,-5,1
1470340056328378,-2,-7,-2,-2,3,1,7,2
1470340056328378,6,9,6,3,-2,-17,-16,-9
1470340056335373,-1,-4,0,-1,-1,8,3,7
1470340056335373,-8,-9,-11,-22,-24,-1,1,-2
1470340056350354,7,17,9,-3,-19,-29,-23,-11
1470340056350354,-5,-3,-2,-5,3,-2,4,-2
1470340056357394,6,10,8,1,-6,-12,-11,-2
1470340056357394,-4,-9,-6,-1,5,10,7,-3
1470340056373375,-2,-5,-5,-1,7,4,3,2
1470340056373375,3,-2,-3,-2,2,-1,0,4
1470340056373375,-4,-10,-8,2,3,7,8,-1
1470340056373375,4,-1,6,1,-6,-6,-7,-4
1470340056388447,-6,-3,-1,4,6,7,8,-3
1470340056388447,-1,4,4,-26,-31,-21,-7,-6
1470340056394438,10,19,15,-7,-25,-31,-26,-16
1470340056394438,-2,-1,5,-7,-2,-9,-7,-3
1470340056418409,3,-8,-9,12,19,24,19,7
1470340056418409,-6,-11,-15,5,9,10,8,-1
1470340056418409,0,-1,-5,-2,-1,4,11,5
1470340056418409,2,2,-1,3,10,10,6,-2
1470340056433423,-1,-7,-7,-6,1,2,-3,-1
1470340056433423,3,6,8,5,1,-7,-8,0
1470340056433423,-3,-2,-2,3,11,0,2,1
1470340056433423,0,2,5,-10,-19,-18,-15,-6
1470340056448463,6,17,11,1,-11,-19,-18,-12
1470340056448463,1,5,8,-4,-8,-2,-8,-3
1470340056455447,-12,-17,-25,10,35,45,36,12
1470340056455447,-12,-17,-15,-1,6,10,8,1
1470340056469499,-1,-6,-4,-3,-2,1,-2,-3
1470340056469499,1,-3,2,0,2,-4,-9,-7
1470340056477531,-2,-4,-6,-7,-6,2,-1,3
1470340056477531,7,3,6,4,3,1,-3,2
1470340056493480,0,3,0,2,2,4,2,-3
1470340056493480,-2,-5,-7,-3,-1,2,8,-2
1470340056493480,5,7,4,12,8,-8,-9,-3
1470340056493480,-2,-3,-6,-1,0,1,1,-1
1470340056509081,-11,-21,-21,2,15,33,24,13
1470340056509081,-6,-10,-9,-5,-8,-4,-3,-4
1470340056515121,-2,-4,0,-5,-8,0,-1,-2
1470340056515121,5,20,14,-2,-18,-30,-29,-7
1470340056530234,-7,-3,-7,-6,-7,5,2,4
1470340056530234,3,1,5,2,1,0,-1,2
1470340056537202,1,-3,4,-2,-7,-9,-12,1
1470340056537202,-3,-12,-13,2,13,21,16,6
1470340056553217,3,2,7,7,12,-13,-17,-4
1470340056553217,1,-2,3,5,3,7,3,0
1470340056554217,-6,-9,-7,-11,-8,2,-1,-2
1470340056554217,-2,5,4,-11,-16,-15,-12,-13
1470340056569230,1,-3,2,0,-7,-5,-1,2
1470340056569230,10,17,14,-3,-19,-22,-21,-8
1470340056575241,-10,-6,-14,-9,-2,11,8,-1
1470340056575241,0,5,-3,2,1,6,1,0
1470340056590250,-3,-3,4,-9,-11,-8,-8,-3
1470340056590250,-10,-16,-13,1,15,23,20,3
1470340056597312,4,4,7,5,4,-11,-16,-6
1470340056597312,-3,-4,-5,4,8,6,6,2
1470340056613397,5,9,6,-18,-29,-27,-16,-7
1470340056613397,7,14,15,-2,-21,-32,-32,-7
1470340056613851,-3,2,3,-2,-5,-10,-3,-2
1470340056613851,5,8,14,2,0,-12,-10,-5
1470340056628789,-5,-7,-14,2,8,15,13,3
1470340056628789,1,1,-3,4,3,-1,2,9
1470340056634803,-3,-1,2,-4,-1,0,0,2
1470340056634803,-6,-11,-14,-4,-1,11,14,7
1470340056649820,0,-4,5,-6,-15,-13,-16,-11
1470340056649820,-3,-7,-9,-1,2,12,3,2
1470340056657769,8,11,11,-14,-29,-30,-15,-8
1470340056657769,7,10,15,0,-14,-29,-22,-10
1470340056672809,1,-1,2,-2,3,-5,2,-1
1470340056672809,5,5,0,10,13,3,3,-2
1470340056673791,-8,-11,-8,-9,-3,6,3,2
1470340056673791,2,3,-2,-1,-4,4,7,0
1470340056688796,-1,2,-3,5,3,-1,3,-1
1470340056688796,-11,0,-10,-5,-4,7,2,-1
1470340056694857,6,8,7,-2,-7,-18,-19,-7
1470340056694857,-9,-6,2,-8,-8,0,-6,-2
1470340056710320,-1,4,8,-5,-8,-5,-5,0
1470340056710320,3,-1,6,9,3,3,0,0
1470340056717530,0,-5,-1,-2,2,6,5,-2
1470340056717530,1,-2,-6,11,15,11,11,8
1470340056740551,-2,-2,-3,-12,-15,0,1,-3
1470340056740551,-2,-2,2,0,0,6,3,3
1470340056741508,5,1,-1,-1,-1,-4,-7,2
1470340056741508,-7,-7,-11,-11,-12,-2,7,-2
1470340056748514,3,10,11,0,-2,-14,-17,-8
1470340056748514,1,0,2,-8,-7,-7,-3,-4
1470340056754610,-6,-7,-14,10,18,30,25,12
1470340056754610,-8,-8,-9,13,25,8,3,4
1470340056769589,-5,-3,-8,1,4,8,8,5
1470340056769589,-5,-8,-7,0,11,4,6,8
1470340056777596,-2,1,-3,-5,1,-3,-3,-8
1470340056777596,0,-1,-1,-6,-3,1,-1,3
1470340056792607,1,3,3,1,-10,-5,-3,-7
1470340056792607,-2,0,-2,-8,-14,2,2,-4
1470340056793555,11,9,7,6,-3,-21,-10,-6
1470340056793555,6,5,1,-5,-11,-11,-11,-5
1470340056809122,-10,-21,-26,11,43,50,44,13
1470340056809122,-8,-6,-10,9,20,7,6,1
1470340056815143,0,-9,-5,-2,1,15,9,3
1470340056815143,4,3,9,-7,-8,-8,-9,-3
1470340056829819,2,0,4,-3,-4,-13,-6,-3
1470340056829819,1,-1,-2,-2,-1,-4,0,-3
1470340056837800,0,12,11,4,-6,-10,-9,-1
1470340056837800,-5,-3,-8,0,5,1,9,1
1470340056852901,1,5,8,3,-2,-12,-17,-4
1470340056852901,-2,-4,1,-9,-11,-8,-7,-6
1470340056853816,-14,-25,-30,2,27,43,34,15
1470340056853816,-5,-9,-8,-2,-2,2,1,-5
1470340056868831,0,-6,-5,0,-1,4,3,4
1470340056868831,6,20,21,-3,-13,-36,-26,-9
1470340056874876,0,-1,6,-10,-13,-16,-14,-6
1470340056874876,2,-1,-1,-3,2,3,7,1
1470340056889900,3,5,3,0,-6,-7,-7,-5
1470340056889900,-5,-8,-16,1,1,7,10,6
1470340056897854,5,2,6,10,0,-14,-12,-11
1470340056897854,2,5,1,-6,-2,-5,-6,-3
1470340056913416,-12,-16,-18,-11,-4,14,20,5
1470340056913416,2,6,7,-7,-18,-16,-14,-3
1470340056913919,1,7,5,5,0,-4,1,2
1470340056913919,8,20,25,-3,-22,-34,-26,-11
1470340056937495,-2,-1,-2,-2,1,0,-2,-1
1470340056937495,1,-9,-9,-5,-2,5,5,-1
1470340056937495,-2,-3,3,1,7,0,1,3
1470340056937495,-7,-7,-9,-5,0,3,3,-1
1470340056949561,7,12,9,4,-2,-15,-13,-1
1470340056949561,-2,-9,-7,1,9,3,0,1
1470340056957568,-1,-1,1,-17,-23,-8,-1,-7
1470340056957568,5,12,12,-2,-11,-29,-22,-10
1470340056973527,3,5,8,1,4,-5,-7,-2
1470340056973527,11,10,11,4,0,-1,-4,-1
1470340056973527,-4,-10,-11,-3,9,7,7,6
1470340056973527,-1,-5,-5,-3,-3,9,10,0
1470340056988542,3,-1,-6,2,4,-3,1,3
1470340056988542,-5,-11,-9,-6,-6,-2,2,-5
1470340056994547,0,3,5,3,-1,-2,-6,-1
1470340056994547,-4,-3,-7,3,5,8,4,0
1470340057010144,-5,-1,6,-18,-28,-14,-7,-2
1470340057010144,5,16,22,-4,-17,-33,-33,-10
1470340057017311,0,5,0,1,1,-6,-3,-3
1470340057017311,-2,-12,-16,12,32,30,25,15
1470340057033367,-7,-4,-9,5,17,10,7,5
1470340057033367,-3,-7,-8,-3,0,8,9,3
1470340057033367,0,-2,-10,2,9,10,8,2
1470340057033367,-6,-5,-3,-11,-13,-5,1,-1
1470340057049325,0,4,3,4,-4,-3,-5,-6
1470340057049325,-6,-7,-13,1,7,12,7,1
1470340057055375,6,9,6,-8,-17,-16,-8,-3
1470340057055375,8,14,14,4,-7,-18,-17,-6
1470340057070343,0,-3,0,2,5,8,5,-3
1470340057070343,-8,-16,-18,13,34,46,35,15
1470340057077350,-10,-12,-9,-4,0,4,3,-3
1470340057077350,2,-3,0,-5,-7,1,2,0
1470340057093373,2,2,3,0,0,-18,-17,-2
1470340057093373,2,2,-2,1,-2,3,4,-1
1470340057093373,-2,3,1,4,6,3,-3,1
1470340057093373,-1,-2,-4,3,2,0,-5,-2
1470340057108890,-6,-6,-14,-7,-2,2,9,-2
1470340057108890,6,12,12,19,21,-7,-8,4
1470340057114893,2,-7,-6,0,3,7,3,0
1470340057114893,-18,-25,-25,-5,10,31,27,4
1470340057129939,5,6,3,-3,-7,-14,-20,-3
1470340057129939,-7,-2,-5,-9,-8,-5,0,-6
1470340057136988,1,10,9,-15,-20,-30,-24,-7
1470340057136988,-3,1,0,-2,-3,0,-4,-8
1470340057152961,-2,0,-1,1,1,13,10,-1
1470340057152961,-1,1,4,-8,-8,-12,-8,-1
1470340057153962,-2,-4,-7,13,15,19,13,2
1470340057153962,2,5,-1,16,15,2,0,0
1470340057169031,1,0,-5,3,6,8,12,1
1470340057169031,-4,-6,-7,-15,-7,1,3,-3
1470340057175022,3,8,11,-5,-17,-28,-18,-9
1470340057175022,3,0,-2,-2,-5,-6,-5,1
1470340057190036,5,6,14,-5,-17,-21,-22,-11
1470340057190036,-3,-3,-6,-4,5,6,4,-3
1470340057197000,-2,-4,-4,-3,2,4,2,1
1470340057197000,3,3,3,-4,-6,-6,1,-4
1470340057213554,-6,-12,-13,-1,6,21,18,11
1470340057213554,0,3,6,11,2,-6,-5,-5
1470340057214055,-5,-6,-5,-2,5,11,5,3
1470340057214055,-4,2,6,-15,-27,-23,-21,-7
1470340057228652,3,16,14,-12,-21,-39,-31,-15
1470340057228652,5,3,1,-4,-5,-3,3,1
1470340057234687,4,0,2,-1,0,-7,-5,-4
1470340057234687,-4,-10,-5,-4,2,14,7,-1
1470340057249735,-1,-4,-8,7,4,6,10,3
1470340057249735,1,0,0,-1,-2,-2,1,-1
1470340057257729,-3,-3,-14,-3,1,10,11,2
1470340057257729,3,5,10,0,-10,-17,-19,-2
1470340057272767,-6,-4,-5,-6,1,8,6,-3
1470340057272767,-1,8,10,-15,-20,-26,-16,-7
1470340057279696,7,7,9,3,-8,-21,-16,-9
1470340057279696,0,-1,0,5,10,8,3,0
1470340057295710,0,-3,-4,10,13,10,6,1
1470340057295710,-4,-9,-11,-2,-7,4,1,4
1470340057296711,-1,1,0,-3,-1,-4,-1,-2
1470340057296711,-1,0,-7,4,8,3,-6,1
1470340057310251,-1,-8,-5,-8,-7,6,5,0
1470340057310251,3,7,10,-6,-11,-23,-21,-9
1470340057317269,-3,-5,-7,-2,2,6,2,-1
1470340057317269,5,8,7,-1,-4,-2,-1,-3
1470340057332283,-5,-3,0,7,6,7,2,1
1470340057332283,-5,-2,-4,-1,0,0,-1,0
1470340057340335,-1,-12,-4,5,13,13,14,3
1470340057340335,-8,-6,-4,-14,-12,-3,-1,-4
1470340057355355,2,-10,-2,-3,-6,-6,-3,-1
1470340057355355,3,-2,0,0,-3,-3,-7,-8
1470340057356346,-5,-3,-6,-12,-7,3,1,-4
1470340057356346,12,12,9,-2,-6,-23,-16,-10
1470340057370317,-1,4,-2,2,3,-7,-2,0
1470340057370317,-3,-9,-10,9,23,32,25,7
1470340057377326,-4,-5,-8,15,18,14,7,3
1470340057377326,-4,-4,-4,1,0,10,9,0
1470340057392381,-7,-7,-9,-2,5,7,3,-2
1470340057392381,1,1,-6,-8,-15,-7,-3,2
1470340057400408,3,-3,2,-3,-3,-3,-1,1
1470340057400408,3,2,3,-2,-7,-7,-4,-1
1470340057415871,-5,-3,3,-9,-7,-1,1,-1
1470340057415871,2,9,9,8,2,-17,-13,-6
1470340057416365,-1,9,3,-5,-7,-11,-11,-2
1470340057416365,-10,-20,-26,6,27,39,38,18
1470340057430454,-4,-8,-9,5,11,5,1,1
1470340057430454,-9,-17,-10,-1,11,16,8,4
1470340057437417,0,-2,7,-5,-14,-12,-13,-8
1470340057437417,-2,4,2,-3,-3,-12,-9,-9
1470340057452403,-3,3,-1,1,3,2,2,1
1470340057452403,6,11,10,0,-1,-7,-13,-7
1470340057460410,-8,-11,-12,-7,-5,12,9,2
1470340057460410,3,5,7,8,4,-9,-7,-4
1470340057475479,1,3,4,-5,-4,-11,-8,0
1470340057475479,-10,-23,-23,-2,10,36,28,6
1470340057476425,-4,-9,-9,-10,-6,-2,2,-4
1470340057476425,1,-3,-3,-3,-3,1,0,-2
1470340057490455,15,18,22,-5,-23,-40,-32,-6
1470340057490455,-8,-10,-7,-6,3,0,2,-4
1470340057497488,2,3,2,4,4,1,3,4
1470340057497488,3,-4,4,1,2,-5,-2,0
1470340057512544,-5,-6,-4,-5,2,14,11,1
1470340057512544,5,2,6,10,8,-11,-6,-7
1470340057520150,3,3,4,-3,6,-3,-5,-4
1470340057520150,-8,-14,-16,-14,-5,11,17,6
1470340057535198,-6,-1,2,-15,-22,-15,-14,-10
1470340057535198,5,6,0,-9,-9,-7,-9,-6
1470340057536164,11,17,19,-1,-13,-29,-24,-5
1470340057536164,-5,-8,-11,1,6,10,8,4
1470340057550211,2,-6,-4,9,11,6,4,3
1470340057550211,2,-3,2,2,3,-6,-4,-1
1470340057557229,-4,2,-5,-4,-2,8,9,2
1470340057557229,5,4,5,6,-1,-10,-12,-4
1470340057572230,3,9,1,1,3,-1,1,-3
1470340057572230,-1,1,-4,-20,-25,-12,-5,-5
1470340057580244,6,7,10,-9,-21,-33,-28,-12
1470340057580244,-7,-3,-4,-7,-5,-3,-7,-1
1470340057596266,8,6,5,4,4,3,2,-3
1470340057596266,-13,-12,-10,-1,11,17,11,8
1470340057596266,0,-2,-6,0,-3,10,10,2
1470340057596266,0,-4,-3,0,4,-1,3,0
1470340057610270,-6,-8,-4,-1,0,8,10,-1
1470340057610270,2,7,9,0,-11,-14,-7,-1
1470340057617782,1,-1,-3,9,10,12,8,6
1470340057617782,3,9,8,-19,-21,-15,-10,-4
1470340057632795,4,12,14,-5,-19,-27,-28,-11
1470340057632795,4,-2,-7,-3,-2,-2,2,-2
1470340057639860,-4,-10,-15,18,33,36,28,14
1470340057639860,-12,-15,-18,-9,-1,8,5,-1
1470340057655849,0,-5,-2,-2,3,8,1,5
1470340057655849,0,-5,-4,-1,7,3,3,0
1470340057655849,-11,-9,-3,-3,-4,-3,0,-1
1470340057655849,7,6,8,1,2,-2,-7,0
1470340057669883,-3,-5,-4,-2,5,3,1,2
1470340057669883,-5,-1,3,-10,-14,-11,-8,0
1470340057677842,6,8,15,1,-7,-16,-19,-9
1470340057677842,-1,2,1,-3,-10,0,-3,2
1470340057692849,-11,-21,-28,8,30,42,38,10
1470340057692849,-9,-7,-8,-4,1,9,6,-2
1470340057699898,-2,-2,0,-7,-11,-8,-5,-5
1470340057699898,3,6,9,9,3,-17,-18,-10
1470340057715975,-5,-4,-10,-1,-3,3,5,-1
1470340057715975,6,3,-2,4,-2,-4,-2,1
1470340057716462,-7,0,-3,-3,-8,-4,0,1
1470340057716462,-5,-2,-6,4,11,11,12,3
1470340057730101,-1,-1,-3,9,13,-8,-13,-6
1470340057730101,-7,-6,-6,2,7,1,2,-4
1470340057737130,-13,-15,-17,0,12,18,18,3
1470340057737130,-1,1,2,-9,-15,-2,-1,-6
1470340057752074,-1,-1,4,-3,-2,-2,-2,3
1470340057752074,1,13,23,-7,-21,-27,-28,-10
1470340057760098,-3,-7,-12,-7,2,10,8,4
1470340057760098,1,-4,2,4,3,-1,-1,2
1470340057776148,1,3,4,-3,-6,-6,-6,-4
1470340057776148,-9,-9,-11,4,14,23,17,10
1470340057776148,4,-6,0,6,11,-9,-12,-6
1470340057776148,-6,-4,-3,-3,0,4,5,0
1470340057790154,-2,-5,-7,-14,-21,-6,-7,-6
1470340057790154,1,4,7,-4,-18,-24,-17,-9
1470340057797204,3,-3,3,-4,-9,-7,-10,-3
1470340057797204,9,18,19,7,-5,-17,-18,-8
1470340057812699,-9,-10,-8,-8,-1,9,13,4
1470340057812699,4,3,-3,6,6,4,5,2
1470340057820278,2,4,7,-3,-4,-1,-4,-2
1470340057820278,-10,-18,-26,-1,11,27,15,9
1470340057835335,4,2,5,2,-1,-10,-7,-4
1470340057835335,-3,-4,-5,0,1,2,5,-2
1470340057836310,4,11,10,-23,-31,-31,-17,-6
1470340057836310,9,12,17,-4,-21,-39,-26,-12
1470340057850304,-4,1,2,-9,-7,-7,-1,-3
1470340057850304,7,9,14,12,11,-3,-2,-1
1470340057857333,-7,-12,-10,-2,3,12,11,3
1470340057857333,3,-1,-4,-2,-1,4,8,0
1470340057872368,-1,1,0,3,1,-2,2,-2
1470340057872368,-6,-13,-14,-14,-11,8,8,3
1470340057880359,5,4,4,-5,-11,-20,-15,-10
1470340057880359,-5,0,-2,1,2,8,5,4
1470340057895361,3,8,13,-14,-21,-21,-20,-4
1470340057895361,7,11,12,-3,-14,-16,-15,-7
1470340057896368,1,8,7,6,4,3,5,0
1470340057896368,2,-3,-2,15,20,7,10,1
1470340057909959,-5,-9,-9,-8,-5,6,5,0
1470340057909959,0,3,-1,-4,0,4,-1,2
1470340057917952,-2,0,-3,2,4,-2,-3,-1
1470340057917952,-7,-5,-8,-16,-12,1,1,-5
1470340057932092,6,11,14,3,-6,-14,-14,-3
1470340057932092,0,-2,2,-8,-4,-8,-3,-1
1470340057940110,6,1,-1,5,7,8,8,6
1470340057940110,-1,-1,-3,9,15,3,-4,0
1470340057955157,-1,-7,-9,3,4,4,6,1
1470340057955157,-3,-6,-6,9,13,15,10,1
1470340057956144,-7,-3,-9,-13,-14,0,-1,-5
1470340057956144,7,9,12,-8,-15,-9,-2,3
1470340057970173,-2,6,6,-3,-8,-6,-9,-5
1470340057970173,-1,-5,-2,-6,-5,-1,4,3
1470340057977172,2,9,16,5,-14,-23,-18,-1
1470340057977172,-3,-1,6,-7,-9,-6,-5,-1
1470340057992132,-7,-17,-21,14,30,37,30,13
1470340057992132,-6,-11,-6,13,26,9,1,4
1470340058000165,-5,-1,-10,5,9,12,11,1
1470340058000165,-2,0,-9,-2,6,-1,-1,-1
1470340058015700,-2,-1,1,-13,-12,-11,-6,-6
1470340058015700,-2,-5,-10,-11,-9,0,-3,-2
1470340058016711,0,0,3,-3,-6,-7,-7,-5
1470340058016711,-10,-13,-7,-9,-7,-1,1,-5
1470340058029770,7,10,8,6,-2,-13,-13,-3
1470340058029770,2,-4,-6,5,0,-1,-1,-1
1470340058037765,-13,-17,-27,9,29,49,37,7
1470340058037765,-12,-10,-7,3,6,1,-4,0
1470340058052735,0,-3,2,-2,5,3,-3,0
1470340058052735,3,4,11,-6,-14,-27,-20,-7
1470340058060743,-1,6,3,-10,-13,-18,-13,-8
1470340058060743,-4,-7,-6,-5,4,6,7,1
1470340058083797,2,0,4,1,-1,-6,-9,-6
1470340058083797,-3,-3,-10,-9,-1,4,4,1
1470340058084765,2,0,5,9,9,-4,-12,-1
1470340058084765,4,0,-2,1,-4,-3,-6,1
1470340058089829,-18,-25,-28,-5,15,35,27,6
1470340058089829,-2,-1,-5,-7,-11,-7,-4,-6
1470340058097809,-2,-1,4,-3,-11,-4,-1,-1
1470340058097809,14,16,24,-6,-21,-30,-31,-12
1470340058112354,2,2,1,0,-3,-3,-5,-6
1470340058112354,-3,-6,2,-5,1,-3,3,-4
1470340058119603,2,1,4,2,-3,-5,-6,-6
1470340058119603,-2,-9,-11,-3,1,9,7,-3
1470340058135568,5,3,7,6,2,-11,-11,0
1470340058135568,-3,2,-1,1,0,2,-5,-1
1470340058136568,-2,-15,-15,-13,-13,3,10,6
1470340058136568,3,5,12,-13,-25,-21,-17,-10
1470340058149580,0,5,3,-10,-14,-8,-5,-4
1470340058149580,7,15,21,1,-13,-18,-16,-6
1470340058157591,-1,-3,-3,4,2,8,4,1
1470340058157591,0,0,-10,4,3,7,7,6
1470340058172602,-1,0,-1,1,1,-7,0,3
1470340058172602,-9,-11,-8,-5,0,11,4,3
1470340058179608,5,0,7,4,2,-10,-16,-3
1470340058179608,0,-5,-5,2,5,2,3,1
1470340058194626,-3,1,0,-18,-24,-13,-3,-2
1470340058194626,9,20,19,-5,-22,-39,-33,-11
1470340058203630,-2,5,5,-4,2,-4,-6,-1
1470340058203630,3,2,2,9,14,12,9,3
1470340058218149,-9,-13,-14,-2,13,9,7,4
1470340058218149,3,0,-1,3,7,10,9,6
1470340058218651,-3,-3,-6,-1,3,4,6,1
1470340058218651,-9,-9,-8,-3,-1,1,4,-5
1470340058232749,6,6,3,5,0,-4,-6,-4
1470340058232749,-3,-5,-8,3,6,2,3,3
1470340058239737,-3,1,0,-19,-22,-18,-9,-3
1470340058239737,13,15,20,1,-16,-25,-28,-8
1470340058254707,-4,-4,-1,-2,-2,1,1,0
1470340058254707,-5,-16,-21,8,30,41,36,14
1470340058262747,-5,-13,-10,-4,7,6,3,1
1470340058262747,-5,-4,-5,-5,1,4,1,0
1470340058277728,5,1,-2,5,5,-1,-4,-7
1470340058277728,-5,-10,-5,-5,-4,-3,0,-4
1470340058278729,3,6,9,4,-2,-5,1,-1
1470340058278729,1,4,-4,1,7,2,2,1
1470340058292742,-1,0,-2,-4,-8,-6,-5,0
1470340058292742,8,12,9,8,1,-10,-9,0
1470340058299789,2,0,-3,3,5,2,-3,-2
1470340058299789,-12,-16,-20,7,27,40,34,13
1470340058315294,-4,-7,-6,-8,-5,4,3,-1
1470340058315294,-4,-1,2,-5,-3,0,-3,-7
1470340058323345,5,6,12,4,-8,-25,-20,-9
1470340058323345,-5,-2,-4,-4,-6,2,-1,0
1470340058338358,5,5,4,3,-1,0,-2,-1
1470340058338358,3,3,-1,-6,-8,-12,-7,0
1470340058338358,-5,-15,-5,3,6,17,14,5
1470340058338358,0,-3,6,17,23,-7,-3,-2
1470340058352397,-4,-4,-1,-1,2,1,0,-2
1470340058352397,-6,-10,-17,-6,-3,17,13,1
1470340058360426,0,6,2,-12,-18,-18,-9,-10
1470340058360426,0,2,0,-8,-8,-13,-4,-1
1470340058374424,12,17,20,-5,-18,-24,-24,-12
1470340058374424,-7,-14,-8,-3,2,8,8,2
1470340058383380,-1,-3,-5,3,7,9,4,1
1470340058383380,4,1,0,-4,-7,-8,-2,-1
1470340058398394,-11,-10,-17,0,15,22,23,7
1470340058398394,-1,5,13,10,9,-7,-11,0
1470340058398394,-3,-5,-5,-1,11,12,10,3
1470340058398394,-2,3,5,-18,-29,-20,-12,1
1470340058412942,5,9,9,-6,-22,-28,-24,-11
1470340058412942,1,2,-1,-9,-12,-4,-8,-8
1470340058419490,4,10,16,-1,-10,-14,-17,-9
1470340058419490,-5,-13,-16,-2,1,11,13,2
1470340058435502,-2,-3,-2,-3,5,0,2,3
1470340058435502,1,2,1,-5,-6,-2,-2,-1
1470340058443510,-6,-13,-19,3,7,18,22,9
1470340058443510,5,6,2,4,-3,-7,-16,-9
1470340058458523,0,-7,-4,-2,2,4,6,4
1470340058458523,4,11,13,-13,-26,-27,-18,-7
1470340058458523,9,14,15,-8,-21,-32,-24,-11
1470340058458523,0,2,3,0,-3,-5,-6,3
1470340058472593,-2,-1,0,9,12,1,-2,0
1470340058472593,-6,-10,-8,-3,3,14,8,3
1470340058479597,-6,-8,-10,1,3,4,9,3
1470340058479597,-1,-5,1,0,3,9,2,-2
1470340058494555,-5,-9,-6,-3,-2,8,4,-2
1470340058494555,6,2,8,3,-4,-15,-14,-4
1470340058503563,-8,-5,-5,-4,-2,5,0,3
1470340058503563,0,4,8,-12,-11,-10,-5,-2
1470340058518677,5,8,7,4,-3,-12,-7,-1
1470340058518677,-6,-1,-5,3,7,1,3,-6
1470340058519121,-1,2,-6,7,10,8,5,5
1470340058519121,-7,-3,-11,-9,-8,2,-4,2
1470340058532702,0,1,1,1,-1,1,1,8
1470340058532702,0,-1,-1,4,2,-3,-4,-1
1470340058539647,-7,-6,-2,-11,-14,2,-3,-2
1470340058539647,6,12,13,-1,-8,-20,-19,-11
1470340058554617,0,0,-2,-1,-7,-3,-5,-2
1470340058554617,-8,-6,-8,0,8,12,13,0
1470340058562704,-3,-14,-6,10,21,3,0,5
1470340058562704,-5,-9,-7,0,2,3,12,0
1470340058577680,-3,-13,-13,5,15,11,11,1
1470340058577680,-6,-7,-4,-8,-12,0,-1,-3
1470340058578638,2,1,7,3,-4,-1,-3,-6
1470340058578638,3,8,8,2,-6,-7,-3,-9
1470340058592766,-1,-2,1,-11,-9,-1,1,3
1470340058592766,8,13,13,2,-13,-20,-17,-5
1470340058599660,2,5,4,-7,-10,-5,-8,-5
1470340058599660,-11,-25,-28,11,31,43,40,14
1470340058615232,-8,-16,-5,5,20,4,1,5
1470340058615232,-6,-16,-11,-2,7,11,7,3
1470340058622837,3,2,4,-3,1,-7,-1,-1
1470340058622837,0,-1,-2,-7,-11,-13,-9,-5
1470340058637798,-5,-2,-1,-6,-7,-3,1,-3
1470340058637798,6,6,7,1,0,-8,-6,-2
1470340058638798,-2,-4,-3,-6,-6,1,3,-6
1470340058638798,2,5,3,6,4,-5,-12,1
1470340058652812,4,8,2,-1,-10,-8,-5,-3
1470340058652812,-16,-27,-32,1,24,43,38,13
1470340058659840,-4,-9,-8,-4,3,6,5,1
1470340058659840,-1,-8,-5,-8,-4,-1,0,0
1470340058674883,3,9,15,-3,-20,-28,-24,-15
1470340058674883,-1,9,7,-7,-11,-15,-10,-4
1470340058682917,3,-1,-2,-2,-4,-2,1,4
1470340058682917,1,2,5,-3,-10,-9,-10,-4
1470340058697854,-2,-4,-9,-3,0,7,6,2
1470340058697854,7,7,5,9,0,-8,-10,-4
1470340058698850,-2,5,-2,4,4,-5,-3,1
1470340058698850,-15,-21,-25,-8,3,23,22,10
1470340058712915,6,-3,-6,-7,-16,-11,-6,-9
1470340058712915,0,-3,-8,-7,-1,4,-1,-1
1470340058719476,10,18,24,-10,-32,-32,-32,-14
1470340058719476,-2,6,1,2,-1,-13,-3,-3
1470340058734651,1,-3,-5,-3,5,6,4,0
1470340058734651,0,5,0,-3,0,-14,-6,-2
1470340058742642,-4,-8,-12,-1,6,5,1,1
1470340058742642,6,7,8,2,6,-10,-21,-8
1470340058758641,-3,-2,1,5,6,1,-2,3
1470340058758641,-4,-6,-9,-22,-23,-1,1,1
1470340058758641,2,10,13,-8,-20,-29,-24,-13
1470340058758641,2,0,0,2,-1,-4,3,-7
1470340058772726,2,14,14,6,-1,-10,-11,-1
1470340058772726,1,-4,-7,4,6,7,4,1
1470340058779746,-2,-1,-9,-1,3,6,7,3
1470340058779746,-2,-3,0,1,-1,-2,-4,4
1470340058794689,-6,-12,-10,-12,-5,0,3,-2
1470340058794689,4,5,15,2,-2,-8,-12,-5
1470340058802725,-8,-10,-9,-1,7,11,5,1
1470340058802725,-4,2,3,-19,-25,-11,-4,-6
1470340058818277,7,14,17,-10,-28,-39,-30,-19
1470340058818277,0,-1,6,3,-2,-8,-7,1
1470340058818739,6,-3,-2,15,19,20,21,10
1470340058818739,-8,-8,-11,4,12,12,1,3
1470340058832308,-9,-5,-11,-4,-2,7,5,7
1470340058832308,-4,-7,-8,2,10,8,6,6
1470340058840305,-4,-10,-13,-7,-1,4,-1,1
1470340058840305,2,4,7,-1,-8,-12,-9,-5
1470340058855318,-6,-8,-9,0,10,9,17,1
1470340058855318,-1,-4,0,-13,-20,-11,-1,-4
1470340058863388,0,11,13,-1,-2,-21,-15,-7
1470340058863388,5,4,-2,1,5,8,1,0
1470340058878336,-6,-24,-25,13,35,46,39,17
1470340058878336,-8,-8,-8,3,4,9,4,0
1470340058878336,-1,-1,0,-5,-9,-5,-1,-4
1470340058878336,-1,0,4,0,-5,-5,-4,3
1470340058900411,-7,2,1,-9,-8,2,-3,-11
1470340058900411,4,4,2,10,10,2,4,-2
1470340058901355,-4,-6,-5,-1,0,-1,-6,1
1470340058901355,0,-2,0,-1,-4,-3,0,-2
1470340058914890,9,0,7,12,11,-5,-10,-3
1470340058914890,-1,-2,-5,11,9,5,3,0
1470340058923494,-12,-20,-24,3,23,34,30,12
1470340058923494,-5,-10,-3,-7,-10,-1,-3,-4
1470340058938485,-3,-1,-4,-3,-3,-1,-3,-5
1470340058938485,8,14,20,-4,-23,-29,-29,-7
1470340058938485,-3,-3,-6,-8,-6,3,7,-2
1470340058938485,2,6,7,6,6,-1,3,4
1470340058952486,1,2,6,-4,-6,-6,-4,-7
1470340058952486,-5,-9,-13,-2,13,16,12,4
1470340058959518,-1,-4,-1,16,19,-1,-10,0
1470340058959518,-1,-4,-3,2,4,5,5,0
1470340058974556,-7,-9,-8,-3,-4,3,6,12
1470340058974556,-4,7,5,-12,-16,-15,-16,-6
1470340058983508,0,12,9,-6,-15,-13,-12,-7
1470340058983508,9,11,21,0,-13,-26,-26,-11
1470340058998523,-2,-1,-8,1,1,10,9,1
1470340058998523,3,-3,-2,2,-1,4,1,-5
1470340058998523,-1,0,1,-9,-9,-6,-6,-4
1470340058998523,-5,-12,-18,5,16,26,22,7
1470340059012626,2,6,4,6,7,-12,-11,-2
1470340059012626,-8,-6,-7,-2,4,3,9,-1
1470340059020133,1,7,3,-16,-27,-20,-15,-6
1470340059020133,5,10,11,-2,-16,-31,-32,-12
1470340059035375,0,-1,5,-4,-10,-11,-1,-2
1470340059035375,12,19,15,2,-6,-18,-12,-8
1470340059043384,-8,-8,-12,-5,6,10,12,4
1470340059043384,4,-2,-5,-7,-2,0,2,3
1470340059058448,-2,3,3,-7,-6,-2,-1,1
1470340059058448,-11,-13,-13,-7,-2,12,15,5
1470340059059461,5,3,8,4,-2,-11,-10,-7
1470340059059461,7,9,19,5,-10,-32,-32,-7
1470340059073411,6,8,13,-16,-26,-28,-24,-9
1470340059073411,3,13,20,-5,-14,-34,-26,-11
1470340059080416,0,0,2,3,-4,-1,-4,-1
1470340059080416,1,-6,-4,7,13,5,11,2
1470340059095429,-6,-7,-7,-9,-7,5,-3,1
1470340059095429,-1,-5,-4,-5,2,2,1,0
1470340059103491,5,0,-3,2,9,7,-1,2
1470340059103491,-9,-13,-14,-18,-7,13,9,0
1470340059117953,6,11,12,-5,-17,-18,-18,-8
1470340059117953,-3,-3,-8,-5,-2,3,4,-5
1470340059125581,6,11,9,-1,-7,-17,-10,-6
1470340059125581,-1,2,2,3,1,4,2,-2
1470340059132543,1,-3,0,5,9,7,4,3
1470340059132543,1,1,-5,10,18,10,7,6
1470340059139599,-3,-2,-4,-8,-7,-4,4,4
1470340059139599,-4,0,0,-3,0,4,3,2
1470340059154606,2,3,-1,9,10,-1,-1,0
1470340059154606,-7,-5,-7,-10,-15,-3,-2,-2
1470340059163577,7,5,10,-1,-13,-23,-28,-7
1470340059163577,-4,-3,-6,-7,-7,-5,5,-2
1470340059177627,0,-6,-11,4,11,17,18,10
1470340059177627,-2,-10,-5,11,19,7,1,1
1470340059185646,2,-2,-2,5,9,10,13,-1
1470340059185646,0,-11,-7,4,5,7,9,-2
1470340059200638,-5,-2,-5,-4,-5,-6,-6,-5
1470340059200638,0,2,-3,-4,-2,-1,-4,8
1470340059201606,-2,3,5,-1,-13,-3,-10,-6
1470340059201606,-5,-5,-4,-11,-10,0,-2,-5
1470340059215193,8,8,10,5,-8,-16,-16,-9
1470340059215193,1,-2,-4,-7,-7,-8,-9,-6
1470340059222670,-8,-23,-26,7,34,47,40,13
1470340059222670,-4,-10,-11,8,23,6,2,6
1470340059237715,-5,-2,-6,-2,3,10,8,4
1470340059237715,5,3,5,2,-3,-7,-8,3
1470340059245734,-1,-1,-3,-6,-11,-9,-3,-4
1470340059245734,0,1,0,-7,1,-2,-3,-1
1470340059260705,1,0,6,-1,-3,-5,-4,-1
1470340059260705,-5,-3,-4,-3,-1,2,9,-3
1470340059261705,2,1,7,10,8,-8,-7,0
1470340059261705,1,4,4,3,-3,2,0,2
1470340059274772,-15,-20,-32,4,26,47,41,12
1470340059274772,-1,1,-5,-1,1,5,3,-5
1470340059282772,1,-2,-3,-4,-3,-1,1,0
1470340059282772,3,11,15,-9,-22,-35,-27,-13
1470340059297779,-1,-2,1,-9,-11,-12,-13,-8
1470340059297779,-1,-6,0,-1,-1,10,3,1
1470340059305848,2,1,-1,-3,-3,-11,-11,-7
1470340059305848,-4,-5,-9,0,2,9,9,5
1470340059320365,8,3,5,5,4,-9,-11,-3
1470340059320365,2,1,4,4,-1,-4,-6,-1
1470340059321487,-17,-18,-19,-12,-1,21,18,3
1470340059321487,3,6,10,-8,-23,-12,-17,-8
1470340059335487,2,-3,0,-5,-6,-8,-5,1
1470340059335487,10,16,24,-4,-15,-26,-23,-9
1470340059343500,-1,4,-1,3,-2,-1,-4,-1
1470340059343500,-1,-5,-8,0,3,9,9,5
1470340059357525,-3,3,-1,-2,-3,-5,-4,-3
1470340059357525,-7,-11,-9,0,6,11,7,2
1470340059373507,7,7,6,4,3,-9,-6,-8
1470340059373507,-4,-2,-7,5,9,5,6,2
1470340059380514,-8,-4,-5,-23,-23,-2,1,1
1470340059380514,9,14,12,-11,-32,-35,-23,-9
1470340059381516,-4,1,-1,-5,-8,-2,-5,-5
1470340059381516,8,6,14,6,4,-1,-2,-2
1470340059394582,-8,-11,-8,-1,10,9,7,-2
1470340059394582,-1,-6,-5,3,12,10,6,7
1470340059403534,-1,-6,-1,9,6,0,9,3
1470340059403534,-6,-2,-12,-2,2,4,3,3
1470340059417554,2,5,11,8,-3,-8,-10,-5
1470340059417554,-10,-2,-5,-1,5,6,5,-4
1470340059425604,-6,3,0,-20,-26,-23,-6,-5
1470340059425604,9,17,17,-5,-20,-35,-28,-13
1470340059440659,-1,2,-3,-1,3,-5,-3,2
1470340059440659,-6,-9,-12,8,27,22,22,9
1470340059441619,-5,-16,-13,-1,15,10,5,-1
1470340059441619,-3,-8,-12,-4,-1,5,7,-1
1470340059454684,1,-1,-2,5,11,10,8,5
1470340059454684,-5,-2,-7,-8,-10,4,-1,-5
1470340059462690,0,8,9,1,-1,-7,-8,2
1470340059462690,-3,-2,-7,-2,1,1,1,-3
1470340059477755,5,9,11,-9,-19,-12,-13,-2
1470340059477755,7,10,10,3,-9,-15,-14,-5
1470340059485714,1,2,-1,-5,-2,-2,3,-1
1470340059485714,-10,-17,-25,3,36,44,36,18
1470340059500670,-2,-11,-11,-3,2,9,7,2
1470340059500670,-3,-1,-5,-7,0,-3,3,-1
1470340059501669,1,0,1,3,-1,-11,-14,-4
1470340059501669,-5,-8,-6,-7,-5,4,3,-1
1470340059515198,4,8,5,5,0,-4,-2,-5
1470340059515198,-3,-5,-1,-8,-6,-1,-3,-2
1470340059522882,2,3,1,2,0,6,3,3
1470340059522882,-4,-5,0,8,10,-1,-5,-1
1470340059537893,1,-2,-3,0,-3,1,1,-1
1470340059537893,-9,-23,-27,0,16,23,20,7
1470340059545943,-3,0,-5,-4,-6,-4,-4,-9
1470340059545943,-5,-6,0,-5,-3,-3,-1,1
1470340059560911,-1,13,16,-4,-16,-29,-30,-13
1470340059560911,-8,-9,-4,-7,-3,1,4,3
1470340059560911,-1,3,-2,1,-3,4,0,5
1470340059560911,8,3,0,-3,-11,-10,-8,-5
1470340059574944,-7,-15,-21,2,14,24,21,2
1470340059574944,1,-5,4,18,22,-1,-7,0
1470340059583014,1,-19,-5,-5,9,8,8,5
1470340059583014,-6,-4,-6,-16,-11,-1,2,-7
1470340059596962,-3,5,3,-8,-17,-18,-15,-6
1470340059596962,0,3,4,-7,-15,-7,-6,-9
1470340059605993,6,13,20,-5,-21,-22,-21,-10
1470340059605993,-7,-9,-10,-5,-5,8,9,2
1470340059621005,2,-1,3,-1,0,-4,-2,-1
1470340059621005,3,3,4,0,-7,-6,0,-1
1470340059621005,-11,-13,-14,5,17,20,16,10
1470340059621005,9,6,8,8,-4,-12,-13,-5
1470340059635280,0,-8,-6,-3,0,6,8,4
1470340059635280,0,2,10,-17,-30,-25,-13,-6
1470340059643343,8,16,18,-6,-24,-37,-32,-14
1470340059643343,-1,5,4,1,-9,-8,-4,-3
1470340059657381,4,3,6,9,2,-9,-8,0
1470340059657381,-4,-7,-15,-1,8,16,13,0
1470340059665307,-1,-5,-1,-5,2,3,1,1
1470340059665307,1,9,1,4,-1,-10,-13,-5
1470340059680349,-4,-5,-11,0,8,16,8,2
1470340059680349,3,12,7,0,-10,-17,-18,-9
1470340059681321,-10,-6,-6,0,-4,8,5,1
1470340059681321,7,9,15,-14,-24,-28,-17,-4
1470340059695386,2,6,13,-6,-11,-27,-16,-11
1470340059695386,1,0,0,12,8,8,3,2
1470340059710998,2,-3,-6,10,20,5,5,7
1470340059710998,-2,-11,-7,-4,3,11,5,-4
1470340059717913,-2,-3,0,-1,4,-4,-2,2
1470340059717913,1,4,1,-1,3,-2,-6,0
1470340059726076,-9,-8,-7,-8,-9,2,3,-3
1470340059726076,3,16,17,4,-5,-18,-17,-6
1470340059741107,-6,-7,-1,-6,-4,-5,-4,7
1470340059741107,0,8,4,0,0,2,0,2
1470340059741107,2,6,-2,7,7,2,-1,-2
1470340059741107,-6,-8,-3,-4,5,8,6,2
1470340059755126,-5,-7,-8,6,13,10,5,2
1470340059755126,-1,-2,-2,-14,-9,-3,2,-3
1470340059763134,3,-2,1,-1,-5,1,4,-3
1470340059763134,2,-2,2,6,0,-5,-5,-5
1470340059777144,2,1,-3,-11,-19,-4,4,0
1470340059777144,5,6,15,3,-11,-23,-21,-7
1470340059785164,0,-1,3,-12,-5,-9,-2,-1
1470340059785164,-7,-14,-17,0,19,30,21,8
1470340059800214,-5,-17,-8,9,21,12,3,2
1470340059800214,-5,-7,-9,5,12,10,9,5
1470340059809193,-5,-8,-8,5,7,9,5,3
1470340059809193,-5,0,-3,-8,-12,-5,-5,-1
1470340059815232,-1,2,2,-3,-2,5,2,-3
1470340059815232,2,4,4,-4,-8,-8,-6,-3
1470340059823777,-6,-2,-4,-6,-10,5,1,-1
1470340059823777,7,7,18,4,-3,-11,-8,-1
1470340059837821,-2,3,3,-5,-12,-9,-4,-5
1470340059837821,-12,-21,-27,14,32,51,39,13
1470340059846775,-4,-11,-10,10,19,9,6,0
1470340059846775,-2,-4,-1,5,10,3,-4,1
1470340059859877,3,5,8,-2,-6,-8,-9,-5
1470340059859877,-5,4,0,-10,-14,-16,-12,-4
1470340059868800,3,-1,2,0,2,-3,-4,-1
1470340059868800,2,-1,0,0,0,-6,-4,-4
1470340059874824,-3,-1,-8,-6,-2,6,3,-3
1470340059874824,3,-1,7,10,0,-11,-10,-4
1470340059883807,1,8,9,1,-3,-2,-4,-2
1470340059883807,-17,-24,-36,-1,17,41,33,8
1470340059897862,-8,-8,-10,-4,-5,-6,0,-6
1470340059897862,-3,-4,-5,-1,2,9,5,-1
1470340059906876,6,14,15,-6,-23,-35,-29,-8
1470340059906876,0,-7,3,-7,-6,-15,-9,-6
1470340059920387,4,1,1,4,2,4,-4,4
1470340059920387,2,2,4,-1,1,-8,-14,-6
1470340059928960,-2,-10,-13,-4,3,7,6,5
1470340059928960,-2,5,3,0,-3,-12,-9,-7
1470340059934995,0,-1,-3,9,6,9,3,0
1470340059934995,-11,-12,-19,-21,-6,11,18,7
1470340059943942,2,9,7,-7,-22,-19,-12,-9
1470340059943942,4,-1,4,2,-2,-3,-2,1
1470340059957953,11,14,16,-1,-13,-23,-19,-8
1470340059957953,-1,-7,-2,1,-3,6,7,-2
1470340059966964,-2,-1,-1,3,9,10,7,4
1470340059966964,-4,4,-1,0,-3,-2,-4,-1
1470340059979976,-8,-8,-9,-3,3,3,10,1
1470340059979976,4,2,7,5,6,-7,-9,-5
1470340059988982,-2,-7,-2,-2,0,1,4,0
1470340059988982,-1,-4,-3,-14,-26,-8,-5,-2
1470340060003995,7,16,21,-11,-26,-33,-28,-14
1470340060003995,5,1,3,-2,-13,-9,-8,-6
1470340060004997,1,5,5,6,7,2,-5,-4
1470340060004997,-10,-11,-10,5,14,13,8,4
1470340060017571,-4,-5,-10,-4,2,4,7,5
1470340060017571,0,-3,-4,5,8,7,3,5
1470340060026055,-4,-11,-11,-4,3,4,7,-1
1470340060026055,4,8,5,1,-4,-7,-12,0
1470340060040067,-9,-11,-14,-4,1,16,3,-2
1470340060040067,2,7,2,-13,-20,-18,-11,-7
1470340060049076,8,13,15,-3,-20,-34,-32,-15
1470340060049076,4,11,8,2,-3,-4,-2,0
1470340060055083,-3,-8,-13,13,27,34,27,16
1470340060055083,-7,-7,-7,3,11,12,4,6
1470340060064206,-1,-8,-6,-4,2,5,11,-2
1470340060064206,2,-1,2,3,9,3,6,1
1470340060077132,0,-10,-5,-7,-7,-2,2,0
1470340060077132,0,8,7,2,-3,-10,-5,2
1470340060086110,-4,-8,-10,-5,1,4,1,0
1470340060086110,-6,6,2,-9,-13,-11,-3,-2
1470340060100123,5,10,11,4,1,-16,-17,-10
1470340060100123,2,-3,-5,-1,1,2,0,1
1470340060109137,-9,-19,-20,11,25,40,33,16
1470340060109137,-6,-10,-6,-2,1,12,7,0
1470340060115142,-1,-1,0,1,5,-3,-2,4
1470340060115142,2,-2,5,-6,-1,-21,-20,-6
1470340060123704,-1,-2,-8,-5,-3,3,6,-1
1470340060123704,7,-4,-2,2,2,9,-5,4
1470340060137752,-1,-3,-4,-2,1,-9,-5,2
1470340060137752,-5,-1,-8,-5,2,9,9,1
1470340060146727,2,2,8,17,13,-3,-10,1
1470340060146727,-5,-8,-7,-4,2,0,0,-4
1470340060159792,-5,-10,-14,5,13,23,17,7
1470340060159792,-8,-4,-4,-13,-13,-8,-3,-4
1470340060168744,-2,6,2,-7,-11,-3,-4,1
1470340060168744,3,8,15,-7,-15,-27,-23,-11
1470340060183775,-7,-6,-4,-7,-5,5,7,1
1470340060183775,2,-6,-6,-4,3,1,5,-1
1470340060185773,2,6,4,-2,-8,-7,-4,-4
1470340060185773,-5,-13,-18,0,9,20,18,4
1470340060197771,0,-2,6,13,14,-12,-16,-5
1470340060197771,-4,-4,-4,2,0,3,5,2
1470340060206780,-3,1,5,-13,-10,-6,-2,-2
1470340060206780,0,6,6,-12,-22,-28,-26,-11
1470340060219797,0,2,3,-3,-7,-3,-1,-9
1470340060219797,8,12,17,-2,-14,-18,-22,-12
1470340060229310,-9,-10,-16,-5,1,11,8,2
1470340060229310,0,-3,-3,-1,6,2,2,2
1470340060243355,-2,2,0,-4,-10,-3,-4,-1
1470340060243355,-4,-10,-12,8,14,19,17,6
1470340060245324,2,5,6,-3,-4,-8,-10,-6
1470340060245324,-8,-3,-6,-6,5,5,4,2
1470340060257337,2,6,7,-19,-28,-24,-13,-4
1470340060257337,3,7,16,-6,-18,-31,-22,-12
1470340060266345,-1,-5,-5,-10,-6,-5,-9,-3
1470340060266345,10,9,2,11,8,-5,-3,-1
1470340060280356,-12,-17,-21,-8,1,13,9,0
1470340060280356,-4,-3,-3,1,4,8,4,2
1470340060289364,0,-2,-4,2,5,-1,0,-5
1470340060289364,-11,-11,-14,-3,3,14,15,2
1470340060303432,6,6,11,-1,-10,-15,-15,-7
1470340060303432,0,1,5,2,-1,6,2,2
1470340060305379,8,6,12,-15,-24,-23,-16,1
1470340060305379,6,12,13,4,-6,-15,-14,-12
1470340060326475,1,2,-3,-3,0,-1,-3,0
1470340060326475,-3,-11,-8,6,12,6,2,6
1470340060328434,-12,-14,-10,-13,1,5,6,-4
1470340060328434,-5,1,2,2,-4,-2,-1,4
1470340060340444,-4,-5,-2,0,0,6,2,1
1470340060340444,-2,-7,-9,-13,-11,4,0,2
1470340060348451,9,8,10,6,-10,-16,-16,-1
1470340060348451,2,-1,-2,-5,-8,4,1,0
1470340060363515,4,3,6,0,0,-7,2,2
1470340060363515,1,4,-5,9,15,2,0,-2
1470340060365466,-1,-6,-6,1,8,7,0,2
1470340060365466,-2,-5,-6,9,21,10,9,1
1470340060377478,-5,-6,-9,-5,-10,-2,2,3
1470340060377478,2,0,1,-4,-7,-5,1,-5
1470340060393490,-3,6,6,4,-1,-4,-9,-2
1470340060393490,-5,-8,-4,-9,-7,0,2,-1
1470340060399561,11,16,23,8,0,-17,-21,-4
1470340060399561,1,0,3,-7,-8,-13,-9,-6
1470340060409070,0,-9,-13,13,21,34,30,7
1470340060409070,-2,-15,-8,11,18,7,1,2
1470340060423621,-5,-3,-5,-2,5,4,4,-3
1470340060423621,-4,-1,-6,0,-4,4,0,2
1470340060425610,0,-1,2,-12,-15,-15,-16,-6
1470340060425610,0,-3,-1,-2,0,-2,1,-6
1470340060437673,5,9,2,-1,-6,-1,-5,-8
1470340060437673,-9,-4,-4,-10,-7,0,-1,-4
1470340060446625,10,16,12,8,1,-11,-10,-4
1470340060446625,-2,7,11,-6,-9,-11,-7,-5
1470340060459729,-14,-20,-23,7,28,49,37,10
1470340060459729,-6,-8,-7,9,14,8,5,5
1470340060468644,-5,-3,-4,4,7,3,3,-2
1470340060468644,6,3,6,-2,-15,-22,-15,-1
1470340060483714,-2,2,1,-7,-10,-13,-9,-2
1470340060483714,0,-1,1,1,2,-1,2,-1
1470340060485744,1,2,10,3,0,-7,0,-1
1470340060485744,-5,-2,-6,1,-2,6,5,-1
1470340060497730,3,6,8,5,6,-11,-12,-6
1470340060497730,-2,3,0,-5,-3,-7,-5,-5
1470340060506694,-14,-22,-29,-6,19,38,35,13
1470340060506694,-5,0,-7,-3,-3,-1,-1,1
1470340060520253,-6,-6,-8,-7,-4,-1,-2,-3
1470340060520253,8,18,19,-6,-16,-34,-30,-8
1470340060528739,-2,-4,-5,-4,-12,-11,-7,-6
1470340060528739,0,5,-1,-1,3,10,0,2
1470340060543803,1,-3,-2,1,-2,-8,-7,2
1470340060543803,-2,-5,-2,-3,-1,11,9,1
1470340060545786,0,0,3,5,2,-8,-10,-3
1470340060545786,3,5,6,3,-2,-2,-4,4
1470340060557807,-5,-12,-14,-15,-8,7,12,4
1470340060557807,2,5,6,-14,-20,-22,-18,-9
1470340060566771,-1,-1,0,-6,-3,-5,-3,-3
1470340060566771,7,13,16,-4,-14,-20,-21,-12
1470340060579824,-5,-5,-5,-3,1,8,7,-5
1470340060579824,2,-9,-4,3,5,6,9,3
1470340060588836,-4,-1,3,-3,-2,-2,-3,-3
1470340060588836,-9,-9,-15,-9,2,4,7,-2
1470340060603861,9,5,9,4,2,-11,-13,-3
1470340060603861,-2,-2,-9,1,6,9,6,1
1470340060605827,-5,0,-1,-15,-23,-5,0,0
1470340060605827,5,4,10,-5,-19,-35,-26,-15
1470340060617880,4,5,6,-6,-6,-9,-8,3
1470340060617880,5,3,4,8,4,2,1,-2
1470340060625992,-5,-10,-10,4,16,9,7,1
1470340060625992,-6,-2,-10,-6,3,9,12,7
1470340060639918,0,2,-3,5,10,3,6,4
1470340060639918,-6,-17,-10,-6,-2,3,3,-1
1470340060648924,2,7,7,1,-6,-8,-13,0
1470340060648924,-1,-8,-8,6,12,12,7,2
1470340060663995,-5,1,-1,-16,-22,-12,-4,-1
1470340060663995,6,13,13,-4,-16,-29,-28,-12
1470340060664938,1,3,-3,1,-6,-3,-5,5
1470340060664938,-1,-15,-12,9,28,37,25,11
1470340060677982,-11,-13,-14,1,5,11,7,0
1470340060677982,-1,-6,0,-5,-6,5,3,-2
1470340060685975,-7,-2,-3,1,6,4,5,1
1470340060685975,-8,-1,-1,-8,-7,-2,-4,4
1470340060699983,3,5,10,0,-6,2,-2,-5
1470340060699983,-1,-1,-6,3,6,5,2,2
1470340060709061,-3,4,1,-11,-11,-8,-4,-7
1470340060709061,5,8,11,8,-4,-13,-14,-7
1470340060724126,-3,0,4,-1,2,-4,-2,-3
1470340060724126,-12,-20,-24,12,29,42,38,15
1470340060725093,-3,-11,-4,-3,-4,-1,0,-5
1470340060725093,1,-8,-4,-8,-3,-2,3,-4
1470340060737144,6,5,6,-4,-10,-19,-20,-7
1470340060737144,-8,-3,-8,-8,-6,5,2,4
1470340060746165,4,3,3,2,1,-7,-3,-2
1470340060746165,-2,-9,-5,-10,-9,-3,-4,-1
1470340060760129,-7,-13,-8,-1,10,13,15,2
1470340060760129,0,3,7,11,12,-9,-11,1
1470340060769136,4,-2,-6,-2,4,3,-4,-3
1470340060769136,-10,-7,-16,-3,4,10,12,0
1470340060784146,2,-4,-2,-14,-19,-14,-12,-4
1470340060784146,0,7,7,-2,-7,-6,0,-4
1470340060785147,3,8,23,-10,-18,-24,-25,-11
1470340060785147,-8,-7,-7,-4,2,7,12,8
1470340060797216,4,-3,-4,2,5,3,0,1
1470340060797216,4,4,5,2,-2,-5,-9,-5
1470340060806166,-3,-6,-17,4,13,21,20,7
1470340060806166,-4,-9,-2,13,11,-2,-7,2
1470340060820242,-2,-1,-3,2,0,6,5,2
1470340060820242,-5,0,-2,-15,-16,-12,-8,-3
1470340060829237,2,12,10,1,-11,-16,-13,-8
1470340060829237,-1,5,5,-2,-4,-3,-2,-1
1470340060844250,8,16,12,3,-9,-16,-14,-9
1470340060844250,-6,-6,-9,-4,0,10,8,3
1470340060845251,1,-4,-2,1,8,6,7,5
1470340060845251,4,6,3,1,-4,-3,-3,-5
1470340060857317,-18,-17,-18,2,11,23,14,0
1470340060857317,-3,-2,2,-5,-7,-11,-8,-8
1470340060866299,-6,-9,-7,2,10,8,9,1
1470340060866299,9,13,14,-14,-29,-31,-17,-10
1470340060880375,0,11,15,-6,-18,-34,-26,-8
1470340060880375,-2,3,0,-10,-10,-10,-3,-5
1470340060889291,7,7,6,9,0,-3,-10,3
1470340060889291,-9,-12,-17,-10,0,9,11,1
1470340060903345,0,2,-1,0,4,6,3,5
1470340060903345,0,-8,-3,1,4,-2,-3,-3
1470340060905305,-8,-10,-13,-10,-3,9,12,1
1470340060905305,8,7,8,-4,-10,-14,-15,-8
1470340060926390,2,-1,0,-2,3,4,4,6
1470340060926390,10,4,10,-18,-19,-20,-13,-4
1470340060927376,2,11,15,3,-6,-9,-9,-4
1470340060927376,-6,0,-3,3,2,-2,-2,-1
1470340060940390,3,-3,-4,6,9,6,6,-1
1470340060940390,-8,-12,-7,-4,0,13,4,2
1470340060949394,-5,-4,-2,1,-1,-4,-3,-2
1470340060949394,-2,7,6,6,6,0,-3,7
1470340060963464,0,-7,-4,-9,-11,-1,4,3
1470340060963464,5,9,11,-4,-10,-20,-20,-8
1470340060965409,1,-1,-3,-7,-7,-5,-7,-6
1470340060965409,2,-2,0,-1,2,4,7,1
1470340060977500,-5,-4,-7,8,14,6,1,-2
1470340060977500,-2,-4,-6,1,3,11,8,2
1470340060986428,-1,-7,-6,3,9,10,7,2
1470340060986428,-2,-7,-1,-12,-12,0,-2,-4
1470340061000440,-1,1,-3,0,1,2,5,-4
1470340061000440,-1,2,0,1,-3,-11,-14,-3
1470340061009034,-7,-2,-9,-9,-12,-2,2,-1
1470340061009034,3,12,10,1,-5,-18,-20,-10
1470340061023048,2,-3,3,-7,-6,-8,-6,-1
1470340061023048,-3,-9,-12,12,32,38,35,15
1470340061030334,-7,-13,-6,7,20,3,-1,-2
1470340061030334,-3,-4,-2,5,11,9,11,3
1470340061037341,-3,-2,-7,-1,1,1,-1,2
1470340061037341,3,2,2,-6,-11,-10,-6,-4
1470340061046348,-1,-7,-2,-6,-7,-4,0,0
1470340061046348,1,5,3,-4,-13,-9,-9,-7
1470340061060362,-9,-9,-13,-13,-8,0,3,0
1470340061060362,7,10,13,9,1,-14,-6,-2
1470340061069369,0,7,0,2,-10,-2,-7,-1
1470340061069369,-11,-22,-27,10,35,49,39,15
1470340061083384,-4,-9,-3,8,12,3,-2,2
1470340061083384,-4,4,-3,-1,1,3,4,-1
1470340061090387,5,8,6,-11,-12,-23,-20,-6
1470340061090387,-1,3,1,-5,-10,-16,-11,0
1470340061106428,-4,-2,-3,-3,-1,5,2,-1
1470340061106428,4,6,4,7,0,-3,-10,-1
1470340061107908,1,1,-1,2,2,4,6,-1
1470340061107908,10,9,4,4,2,-14,-9,-1
1470340061120424,3,-1,4,1,-2,-5,-1,2
1470340061120424,-14,-19,-28,-3,13,31,34,11
1470340061128510,0,-1,-1,-4,-9,-7,-9,-5
1470340061128510,3,-5,-2,-4,-2,3,1,-2
1470340061143507,8,16,21,-5,-17,-35,-28,-11
1470340061143507,-2,-5,-1,-2,-6,-4,-5,-2
1470340061157575,-3,-6,-4,4,4,8,10,5
1470340061157575,-3,-2,2,4,6,-1,-1,-6
1470340061166574,-3,-3,-6,2,6,6,6,0
1470340061166574,10,6,6,9,5,-9,-12,-5
1470340061167529,5,4,2,1,1,-4,-3,1
1470340061167529,-6,-9,-10,-18,-16,7,5,-1
1470340061179554,2,12,11,-10,-28,-23,-21,-14
1470340061179554,-4,5,1,-1,-3,-2,-5,-3
1470340061188550,9,14,19,-3,-7,-14,-11,-10
1470340061188550,-3,-3,-9,-3,-2,5,4,1
1470340061203563,2,-5,-2,1,4,5,4,4
1470340061203563,-3,-5,0,-1,0,-3,0,2
1470340061210105,-7,-9,-11,-5,-4,3,10,-2
1470340061210105,4,8,13,8,1,-5,-9,-2
1470340061226409,-4,-8,-1,0,1,5,-1,3
1470340061226409,-3,0,0,-21,-24,-14,-7,0
1470340061227410,6,11,19,-7,-20,-33,-27,-9
1470340061227410,1,-1,5,-2,-4,-5,-5,-1
1470340061240419,2,-4,-1,7,13,11,8,1
1470340061240419,-2,-12,-12,4,12,12,10,3
1470340061248427,-5,-8,-7,-4,-1,14,3,6
1470340061248427,2,-4,-3,5,6,7,8,7
1470340061263454,-8,-1,-5,-3,1,9,3,0
1470340061263454,3,13,7,5,-3,-6,-8,-4
1470340061270446,-4,-6,-1,1,3,7,4,0
1470340061270446,-1,6,6,-14,-19,-18,-14,-1
1470340061286460,10,17,18,-4,-19,-30,-22,-12
1470340061286460,1,1,1,-5,-6,0,0,-2
1470340061287460,-7,-10,-20,12,34,39,34,15
1470340061287460,-5,-14,-11,-3,5,7,6,-1
1470340061300475,-5,-8,-13,-1,2,1,12,1
1470340061300475,-4,-6,-6,-2,2,0,-2,-4
1470340061308985,-7,-8,-5,-3,-5,2,-1,0
1470340061308985,0,0,6,2,2,-7,-5,-1
1470340061322997,4,-3,-7,-4,1,6,2,0
1470340061322997,-2,-4,-1,-13,-16,-4,-1,-2
1470340061329452,6,10,7,7,-5,-15,-14,-2
1470340061329452,-4,-3,-7,-4,-5,3,0,-3
1470340061346479,-13,-20,-26,6,26,38,30,12
1470340061346479,-3,-11,-8,-5,-7,-2,6,-8
1470340061347454,1,-2,0,-5,-4,-4,1,-3
1470340061347454,4,9,13,-3,-10,-25,-21,-8
1470340061359490,0,-7,-5,-7,-9,5,6,1
1470340061359490,3,5,7,3,11,-3,-6,3
1470340061368499,0,2,-1,0,-1,-8,-1,-1
1470340061368499,-5,-8,-11,0,6,15,12,1
1470340061383487,-2,-2,2,13,15,0,-11,-1
1470340061383487,-4,-6,-4,-1,8,6,3,-5
1470340061390548,-4,-10,-18,-6,4,18,16,1
1470340061390548,-4,0,-5,-11,-15,-14,-8,-7
1470340061406563,0,5,3,-7,-13,-9,-6,1
1470340061406563,6,7,18,-7,-16,-26,-24,-13
1470340061408013,-6,-10,-11,-7,0,8,7,2
1470340061408013,4,0,3,4,1,6,-2,-1
1470340061420523,-1,0,4,-3,-3,-12,-7,-4
1470340061420523,-10,-10,-14,0,11,22,16,5
1470340061436610,-1,-4,2,12,14,-7,-15,0
1470340061436610,-6,-9,-5,3,9,12,7,3
1470340061443601,0,6,6,-14,-18,-15,-10,-6
1470340061443601,2,10,12,-6,-22,-31,-27,-6
1470340061449619,0,-2,-2,-7,-9,-8,-3,-7
1470340061449619,9,13,21,7,-2,-13,-18,-4
1470340061466592,-5,-4,-10,-1,5,6,9,0
1470340061466592,5,-1,-1,6,4,2,6,6
1470340061467593,-2,3,4,-9,-8,-8,-4,-8
1470340061467593,-8,-13,-20,3,11,22,21,8
1470340061479659,3,-2,0,-2,-6,-12,-9,-6
1470340061479659,1,3,-1,8,4,4,5,7
1470340061488636,2,6,11,-14,-28,-23,-18,-4
1470340061488636,9,15,15,-5,-22,-35,-30,-12
1470340061503625,-3,0,7,-1,1,-5,2,-2
1470340061503625,4,7,9,10,4,0,-4,1
1470340061510193,-5,-9,-9,-11,-3,4,3,0
1470340061510193,3,-5,-2,-6,-3,-2,1,-1
1470340061526387,3,-4,-3,0,-4,1,-3,-2
1470340061526387,-11,-15,-11,-10,-1,7,11,-4
1470340061527346,8,11,12,1,-7,-15,-12,-7
1470340061527346,-5,-5,-13,-1,6,2,7,1
1470340061540358,3,10,10,-2,-14,-13,-12,-3
1470340061540358,4,5,4,3,-1,-11,-7,-11
1470340061549366,1,-2,2,-1,0,3,4,0
1470340061549366,-3,-8,-8,6,15,9,4,6
1470340061563500,-5,-6,-6,-5,-1,-1,1,3
1470340061563500,3,1,-2,-1,0,0,0,-3
1470340061570385,-5,2,-6,9,11,4,-2,1
1470340061570385,-7,-4,-3,-13,-9,-3,0,-6
1470340061586439,4,12,11,2,-6,-14,-19,-11
1470340061586439,0,-8,-6,-9,-6,-3,-2,0
1470340061587400,-1,0,-1,2,10,13,3,3
1470340061587400,-3,-1,-7,11,15,6,1,0
1470340061600413,-1,-3,-5,8,11,9,6,3
1470340061600413,-1,-3,-1,11,11,9,7,0
1470340061609010,-6,1,-3,-8,-15,1,-2,-3
1470340061609010,2,-2,2,-4,-4,9,5,1
1470340061623615,0,4,2,2,-5,-7,-8,-6
1470340061623615,-5,-4,-6,-13,-11,-4,0,-3
1470340061629861,5,8,17,7,-2,-22,-15,-10
1470340061629861,1,4,3,-7,-13,-11,-10,-4
1470340061646859,-11,-18,-16,7,26,44,35,10
1470340061646859,-6,-12,-7,11,21,7,0,7
1470340061647861,-2,-5,-4,0,4,2,4,5
1470340061647861,2,-4,-2,-1,0,-4,-1,1
1470340061659871,1,-1,0,-7,-9,-13,-7,-4
1470340061659871,0,3,4,-2,1,7,2,3
1470340061668879,2,3,3,-4,-8,-4,-7,-4
1470340061668879,-1,-6,-3,-5,-5,-6,2,-1
1470340061682896,1,8,11,6,2,-8,-14,-1
1470340061682896,0,6,5,-3,-12,-11,-9,-5
1470340061689953,-12,-23,-32,6,32,46,44,12
1470340061689953,-4,1,-2,1,6,12,4,-5
1470340061705962,7,0,1,0,-3,-2,-4,-1
1470340061705962,2,13,11,-4,-10,-23,-17,-4
1470340061708419,5,1,2,-6,-11,-13,-12,-1
1470340061708419,-3,1,-1,-5,-4,-2,4,-3
1470340061720430,0,6,1,-2,-4,-4,-6,-5
1470340061720430,-9,-7,-8,-4,-2,7,7,-2
1470340061728981,4,3,7,7,4,-12,-10,-2
1470340061728981,0,2,5,-3,0,-5,-8,2
1470340061743029,-13,-24,-26,-8,7,29,25,9
1470340061743029,0,1,6,-8,-10,-6,-4,-10
1470340061758051,-3,0,0,-7,-4,-1,1,0
1470340061758051,5,17,18,-5,-28,-32,-30,-11
1470340061766017,0,0,2,-2,-3,-6,-4,-5
1470340061766017,1,-5,-9,-10,-4,-3,-2,3
1470340061768018,-3,2,-1,4,-3,-10,-8,-2
1470340061768018,-5,-7,-9,-5,3,6,12,0
1470340061780040,6,13,11,5,-5,-21,-18,-7
1470340061780040,-3,2,-3,3,1,4,-1,-5
1470340061789036,-6,-9,-7,-13,-19,1,-1,3
1470340061789036,2,9,8,-12,-24,-27,-22,-10
1470340061803087,0,-1,-3,-8,-6,-9,2,-1
1470340061803087,7,9,10,1,-9,-11,-14,-3
1470340061810095,-6,-2,-3,2,8,7,8,3
1470340061810095,-3,-8,-6,2,2,6,5,5
1470340061826083,1,-2,2,6,6,-1,2,5
1470340061826083,-8,-12,-13,-11,2,-1,2,0
1470340061828086,6,2,2,-2,-4,-9,-15,-7
1470340061828086,-2,-1,-3,1,2,1,6,3
1470340061840097,-8,-1,0,-25,-32,-14,-8,-1
1470340061840097,8,16,19,-7,-25,-37,-25,-16
1470340061849106,1,3,1,-3,-2,-2,-6,-8
1470340061849106,5,-4,-6,11,14,16,17,8
1470340061863117,-5,-10,-14,1,9,13,8,2
1470340061863117,-1,-10,-8,2,4,15,4,6
1470340061870124,-1,-6,-2,5,12,10,7,2
1470340061870124,-4,-4,-9,1,1,2,3,1
1470340061886137,-1,0,4,0,1,-10,1,-3
1470340061886137,1,2,-1,6,9,3,7,4
1470340061888141,0,4,9,-18,-26,-16,-8,-1
1470340061888141,7,13,18,3,-11,-24,-25,-10
1470340061900151,0,-1,-1,1,1,0,-1,3
1470340061900151,-12,-15,-18,8,27,38,31,9
1470340061909162,-7,-15,-14,-1,0,6,5,-1
1470340061909162,-8,-2,-6,-4,3,6,5,-2
1470340061923174,-1,1,-1,8,11,3,-2,-6
1470340061923174,-4,-4,-5,-3,-1,4,6,-3
1470340061930185,5,3,2,6,-1,-1,1,1
1470340061930185,-3,-6,3,-3,-4,-4,-6,3
1470340061946201,0,-1,-2,-4,-7,-2,0,-2
1470340061946201,3,7,5,7,1,-7,-9,0
1470340061948202,-4,0,-6,-3,1,-5,0,-2
1470340061948202,-7,-26,-26,7,27,41,31,12
1470340061960213,-6,-4,1,-8,-5,4,-1,-3
1470340061960213,-2,-1,-1,-7,-3,-5,-4,1
1470340061969222,1,10,16,-4,-18,-29,-22,-6
1470340061969222,1,-4,-7,-5,-3,-3,7,-1
1470340061983234,4,0,5,5,3,-2,3,2
1470340061983234,3,-2,0,-2,-3,-8,-7,1
1470340061990239,-7,-7,-6,2,15,11,13,5
1470340061990239,-3,0,3,19,18,4,-9,-2
1470340062005253,-2,-1,-2,2,-2,5,1,1
1470340062005253,-5,-12,-10,-8,-1,9,11,4
1470340062012763,4,6,1,-5,-10,-8,-9,-7
1470340062012763,1,1,1,-6,-6,-7,-4,-1
1470340062020270,6,14,15,-4,-14,-22,-26,-8
1470340062020270,-8,-6,-9,-7,-3,12,7,1
1470340062029282,3,-3,-1,7,8,5,4,5
1470340062029282,6,11,7,-3,-8,-7,-9,-3
1470340062043294,-9,-11,-23,4,17,23,20,6
1470340062043294,4,3,5,9,4,-11,-11,-3
1470340062050300,-2,-7,-10,-1,5,11,6,4
1470340062050300,-2,4,-3,-21,-25,-18,-10,-3
1470340062065321,3,11,10,-11,-17,-27,-26,-14
1470340062065321,4,3,4,-1,4,-5,-3,-5
1470340062072321,6,10,15,-1,-9,-14,-11,-3
1470340062072321,-4,-5,-3,3,6,13,9,0
1470340062088335,2,-2,-2,2,6,8,5,2
1470340062088335,3,2,3,-2,1,-4,0,-3
1470340062090336,-5,-8,-13,4,10,19,20,4
1470340062090336,6,3,2,5,1,-11,-9,-5
1470340062103348,-2,-3,-8,-5,-2,1,9,3
1470340062103348,3,6,9,-14,-25,-27,-13,-3
1470340062110362,1,12,13,-4,-14,-29,-25,-14
1470340062110362,-2,1,-1,-4,-2,-5,-3,-4
1470340062125381,2,1,1,3,7,-2,-5,6
1470340062125381,-9,-6,-10,-6,-4,9,7,3
1470340062132390,0,-1,-4,-3,6,5,7,1
1470340062132390,-1,-3,-1,2,-2,0,1,-3
1470340062148402,-2,-5,-8,-7,-3,7,9,-1
1470340062148402,-1,7,6,-4,-16,-20,-15,-3
1470340062150404,-7,-3,-12,-3,2,5,1,-1
1470340062150404,1,2,8,-11,-12,-13,-10,-2
1470340062163414,3,0,7,1,-6,-8,-9,-7
1470340062163414,-1,-2,-2,5,5,4,0,0
1470340062170421,3,-6,-7,10,11,9,9,1
1470340062170421,-7,-9,-7,-9,-4,2,3,0
1470340062185435,-4,-3,2,-3,-1,-4,-3,0
1470340062185435,2,0,3,1,-1,-4,-1,-2
1470340062192442,-7,-10,-5,-20,-15,2,-2,-2
1470340062192442,1,13,9,-1,-10,-23,-23,-5
1470340062208962,-3,0,-1,-5,-6,-7,-2,-5
1470340062208962,-5,-9,-10,3,13,21,13,4
1470340062210463,1,-3,-2,18,22,6,1,7
1470340062210463,-4,-3,0,0,4,7,5,5
1470340062223476,0,-6,-4,10,12,10,7,7
1470340062223476,-6,-4,-3,-8,-5,-3,-5,1
1470340062229485,3,1,-1,-1,-7,-4,1,2
1470340062229485,2,1,3,0,-2,-3,-5,-6
1470340062245499,-5,-6,-4,-8,-9,2,4,-5
1470340062245499,4,12,11,5,-1,-15,-22,-5
1470340062252507,-3,-1,2,0,-4,-4,-5,1
1470340062252507,-9,-15,-17,8,30,41,32,13
1470340062276527,-7,-15,-12,9,19,5,3,6
1470340062276527,-6,-8,-3,2,5,8,5,-2
1470340062277530,-3,-1,-3,-3,0,0,-4,-5
1470340062277530,-2,2,0,-4,-8,-7,-6,-4
1470340062283534,-1,-2,-3,-4,-3,-2,-4,5
1470340062283534,4,1,5,2,-5,-7,-6,-5
1470340062289538,-6,-1,-4,-1,-3,2,-1,-2
1470340062289538,7,9,8,6,3,-6,-13,-8
1470340062305554,3,3,4,-2,-6,-8,-7,-2
1470340062305554,-11,-25,-29,7,31,49,38,17
1470340062312566,-4,-4,-7,6,12,6,2,-4
1470340062312566,1,-5,-5,-3,-3,-1,3,3
1470340062328584,-1,7,13,-7,-17,-27,-24,-7
1470340062328584,1,1,5,-1,-13,-12,-10,-8
1470340062330586,-1,-6,0,-1,-2,1,-2,-4
1470340062330586,3,3,-4,-1,-6,-8,-6,-3
1470340062343596,-9,-3,-9,-3,2,4,4,-4
1470340062343596,1,7,1,7,4,-12,-10,-4
1470340062349605,0,5,5,-1,-11,-11,-4,-1
1470340062349605,-14,-20,-23,-9,7,28,25,8
1470340062365619,4,9,10,-2,-12,-5,-12,-5
1470340062365619,-1,-5,-7,-5,-3,1,0,-2
1470340062372624,6,18,18,-4,-23,-34,-29,-7
1470340062372624,-4,1,2,-4,-7,-2,-1,-4
1470340062388638,-3,-4,-4,-2,7,6,4,5
1470340062388638,-1,5,3,-2,-1,-3,-3,-1
1470340062390642,-8,-10,-6,-11,1,3,6,1
1470340062390642,0,5,6,3,0,-11,-12,-7
1470340062403652,-1,-2,3,-1,4,1,2,-5
1470340062403652,-6,-9,-8,-16,-17,0,6,-2
1470340062410165,9,9,14,-9,-23,-22,-22,-10
1470340062410165,-1,2,6,-2,-8,-6,-2,-1
1470340062425683,10,14,9,2,-9,-8,-10,-5
1470340062425683,-10,-6,-8,-6,5,7,5,-1
1470340062432688,1,-6,-3,-7,0,7,11,6
1470340062432688,1,-6,0,3,8,2,-3,0
1470340062448718,-3,-3,-6,-1,-1,7,8,3
1470340062448718,8,12,8,4,1,-15,-16,1
1470340062450706,-2,2,-6,10,11,9,5,1
1470340062450706,-1,5,1,-18,-27,-17,-9,-4
1470340062462725,5,5,12,-3,-18,-30,-22,-10
1470340062462725,0,0,6,-3,-8,-3,-2,3
1470340062469734,-1,-5,-2,12,23,20,17,8
1470340062469734,-5,-12,-11,3,9,12,10,5
1470340062485735,-6,-10,-8,0,7,10,8,3
1470340062485735,-3,-7,1,6,9,8,7,7
1470340062492747,-9,-12,-14,-8,1,1,2,-1
1470340062492747,6,7,11,3,-4,-9,-9,0
1470340062509279,1,-1,-5,-7,-3,1,3,2
1470340062509279,1,2,-3,-14,-15,-14,-5,-7
1470340062510782,8,14,19,4,-6,-22,-19,-6
1470340062510782,-3,-1,2,-4,-4,7,0,-1
1470340062523796,-9,-10,-18,8,27,39,35,6
1470340062523796,-6,-11,-12,-2,3,5,4,2
1470340062529837,-4,-8,-3,-7,-3,-2,1,-5
1470340062529837,-1,-8,-7,3,4,3,-2,-4
1470340062545817,-5,-12,-8,-5,-2,2,0,-3
1470340062545817,5,3,2,1,2,-4,-7,-8
1470340062552822,2,1,2,-1,0,1,1,-3
1470340062552822,-5,1,1,-2,-2,-4,4,2
1470340062568864,5,5,7,15,11,-11,-10,0
1470340062568864,0,-1,2,1,0,5,0,1
1470340062570838,-13,-21,-24,4,20,38,31,14
1470340062570838,-2,-8,-7,-9,-10,-4,-2,-6
1470340062582849,0,0,0,-2,-5,-2,0,1
1470340062582849,5,10,9,4,-16,-29,-23,-8
1470340062591858,-8,-7,-9,-6,-2,4,0,-3
1470340062591858,1,-1,-3,3,6,0,4,0
1470340062605926,-2,-1,7,-5,-8,-7,-5,-3
1470340062605926,-7,-10,-7,-2,6,13,16,3
1470340062612884,-1,-6,-2,11,12,-6,-8,-5
1470340062612884,4,2,-2,2,8,3,-2,0
1470340062629030,-6,-11,-12,-7,-3,8,5,3
1470340062629030,0,3,-3,-11,-15,-11,-10,-7
1470340062631044,4,2,5,-11,-11,-11,-10,-5
1470340062631044,5,14,16,1,-14,-20,-21,-7
1470340062642033,-7,-5,-6,-5,2,10,11,-3
1470340062642033,1,3,4,8,10,5,2,4
1470340062651071,6,9,5,2,-5,-6,-3,4
1470340062651071,-9,-14,-19,6,21,23,23,7
1470340062666002,3,6,5,9,6,-6,-11,-4
1470340062666002,1,-5,-4,4,9,11,7,5
1470340062672050,0,6,3,-14,-27,-19,-10,-9
1470340062672050,3,12,15,-9,-21,-28,-21,-11
1470340062689078,1,2,-1,0,-1,-7,-1,0
1470340062689078,6,14,11,0,-6,-11,-13,-6
1470340062690028,-5,-10,-20,-2,0,11,8,1
1470340062690028,3,4,-2,1,3,2,3,0
1470340062702089,5,1,0,2,2,-5,-1,-3
1470340062702089,-4,-12,-13,-3,8,13,16,2
1470340062711596,4,4,13,2,-2,-9,-10,-3
1470340062711596,-6,-10,-6,-1,-2,2,4,8
1470340062726125,0,4,8,-22,-28,-30,-21,-3
1470340062726125,3,15,13,-8,-19,-30,-24,-10
1470340062732133,-2,6,10,-3,-8,-3,-3,-4
1470340062732133,3,3,3,13,14,2,-3,2
1470340062749193,0,-11,-6,-3,3,9,10,5
1470340062749193,-4,-1,-2,2,3,7,8,4
1470340062750146,0,3,0,0,6,0,1,6
1470340062750146,-4,-9,-11,-10,-7,10,0,4
1470340062762196,1,8,8,-7,-15,-18,-17,-8
1470340062762196,-6,-7,-7,-6,-4,0,2,2
1470340062771165,0,7,5,1,-7,-13,-6,-5
1470340062771165,5,1,7,5,8,-2,-5,-9
1470340062785179,-1,4,-1,-5,-5,2,-1,-1
1470340062785179,0,-5,-8,6,12,10,7,6
1470340062792202,-5,-6,-5,-9,-7,3,-3,-2
1470340062792202,2,0,5,1,1,-3,-6,2
1470340062809200,-1,-5,1,6,5,-1,-4,-4
1470340062809200,-2,-7,-4,-7,-2,-2,-3,-2
1470340062810706,3,6,9,-1,-2,-17,-20,-6
1470340062810706,-1,-2,-4,-6,-4,-8,-1,0
1470340062822717,-6,-9,-10,4,11,18,13,9
1470340062822717,-2,-9,-5,8,15,9,4,4
1470340062830894,-1,-9,1,5,7,12,8,6
1470340062830894,-1,0,-5,10,15,5,11,2
1470340062845907,0,1,-2,-10,-11,-5,-4,-1
1470340062845907,1,4,4,-3,-4,2,-4,-4
1470340062852913,2,3,-1,-5,-5,-9,-7,-5
1470340062852913,-5,-3,-4,-10,-9,-1,0,-2
1470340062868962,3,6,8,3,0,-13,-17,-6
1470340062868962,1,4,4,-5,-8,-9,-5,-5
1470340062869930,-11,-17,-23,8,32,40,42,9
1470340062869930,-5,-12,-8,9,15,8,3,3
1470340062882945,0,-5,-7,1,7,2,2,-1
1470340062882945,2,1,2,1,1,0,-4,-2
1470340062891009,0,1,-4,-3,-13,-6,-12,-6
1470340062891009,0,2,-1,-8,-8,-1,1,-1
1470340062905963,4,5,8,0,-7,-5,-8,-1
1470340062905963,-5,-13,-9,-3,-5,3,4,2
1470340062912976,9,6,11,8,2,-9,-14,-3
1470340062912976,-1,-1,-2,-5,-7,-1,0,-2
1470340062928579,-12,-22,-30,10,30,45,38,18
1470340062928579,-7,-3,-5,3,3,8,1,-3
1470340062935562,0,0,-2,5,6,1,4,8
1470340062935562,4,5,7,-10,-19,-28,-29,-11
1470340062942596,-1,5,2,-2,-8,-10,-13,-1
1470340062942596,0,3,-1,0,3,10,10,3
1470340062951594,2,10,8,0,-3,-4,-9,0
1470340062951594,-5,-3,-7,-2,0,9,5,1
1470340062965600,3,6,7,10,4,-2,-7,-5
1470340062965600,-6,2,7,-4,-6,-12,-7,-2
1470340062972620,-14,-21,-27,-12,0,26,21,8
1470340062972620,1,6,5,-4,-15,-14,-15,-6
1470340062988600,0,-7,3,-4,-11,-3,-1,2
1470340062988600,11,22,24,-5,-22,-29,-31,-13
1470340062994600,-3,0,-2,-7,-6,-5,-7,-5
1470340062994600,-4,-7,-4,-6,-1,8,4,3
1470340063011645,1,6,5,-5,-7,-8,-4,-10
1470340063011645,-7,-12,-8,-4,6,9,10,-3
1470340063013163,3,-1,7,4,2,-13,-10,-2
1470340063013163,5,6,2,11,13,2,7,2
1470340063025683,-4,-5,-4,-15,-17,-3,2,3
1470340063025683,6,13,15,-6,-23,-29,-27,-9
1470340063032748,-2,-3,-3,-2,-6,-5,-1,-5
1470340063032748,5,15,15,8,-2,-5,-7,-1
1470340063047705,-10,-5,-9,-4,6,8,8,3
1470340063047705,-3,-6,-12,0,8,5,6,2
1470340063054740,-3,-4,-3,-2,3,0,-2,1
1470340063054740,-4,-7,-9,-8,-2,3,2,-4
1470340063070738,3,5,5,3,-1,-8,-6,-2
1470340063070738,4,0,5,2,-4,-18,-13,-4
1470340063072726,-2,7,3,-17,-28,-17,-13,-4
1470340063072726,9,14,22,-4,-17,-36,-26,-10
1470340063085735,5,6,10,-1,-8,-13,-18,-4
1470340063085735,3,-4,-4,5,15,22,20,6
1470340063092755,-9,-12,-7,1,8,6,6,-1
1470340063092755,-2,-10,-10,-4,1,8,11,-1
1470340063108799,0,-3,-8,6,4,10,9,-1
1470340063108799,-5,-10,-8,-3,3,6,4,5
1470340063115283,6,6,5,9,6,-5,-6,-3
1470340063115283,-7,-10,-7,2,7,6,4,5
1470340063130907,-2,4,10,-14,-20,-21,-7,0
1470340063130907,5,11,15,2,-8,-25,-16,-13
1470340063132848,-1,0,3,0,3,7,7,1
1470340063132848,-12,-21,-22,6,32,43,33,17
1470340063145917,-4,-12,-8,-1,7,8,1,0
1470340063145917,-7,-8,-5,-5,0,7,2,-1
1470340063152869,-1,-1,-1,1,-1,-6,-4,-3
1470340063152869,-8,-7,-5,-7,-9,-3,5,-6
1470340063168019,5,6,6,3,3,3,-2,-1
1470340063168019,-9,-3,-6,-2,0,1,0,-2
1470340063174890,-2,-3,1,-1,0,3,1,1
1470340063174890,6,5,11,12,14,-9,-7,2
1470340063191907,3,-3,-3,-2,6,-1,4,1
1470340063191907,-7,-19,-20,10,21,33,31,12
1470340063192906,1,0,-6,-8,-6,-3,-1,2
1470340063192906,-2,2,0,-4,-8,-6,-6,-1
1470340063205915,7,10,10,3,-10,-26,-23,-8
1470340063205915,-4,-2,-3,0,0,3,8,1
1470340063212424,6,0,6,7,7,-2,1,-1
1470340063212424,4,2,9,-1,-4,-5,-9,-3
1470340063228501,-9,-9,-13,-2,10,22,22,3
1470340063228501,3,5,8,15,17,-4,-14,-1
1470340063234503,-4,-4,-7,-4,3,4,7,-1
1470340063234503,-6,-3,-8,-8,-1,10,4,-2
1470340063251543,-4,2,2,-10,-16,-16,-11,-9
1470340063251543,4,2,6,-2,-7,0,-5,1
1470340063252492,10,12,22,-7,-22,-26,-29,-6
1470340063252492,-5,-8,-12,-5,3,6,6,-1
1470340063265531,-3,-2,-1,0,5,2,2,3
1470340063265531,1,-2,-7,-10,-8,-9,-2,-4
1470340063272549,-5,-4,-14,4,13,24,19,11
1470340063272549,1,-1,4,6,6,-8,-10,-2
1470340063288613,-6,-7,-8,1,6,3,5,-1
1470340063288613,0,5,6,-18,-25,-22,-17,-2
1470340063294582,-1,9,15,-5,-16,-26,-26,-13
1470340063294582,1,3,3,-8,-16,-13,-1,-3
1470340063311655,10,16,18,13,4,-10,-12,-6
1470340063311655,-3,-5,-16,-6,-2,12,8,3
1470340063313083,1,-2,-1,3,5,3,2,-1
1470340063313083,0,-2,-2,0,-4,-1,-5,-3
1470340063325634,-7,-17,-16,-3,4,16,15,-2
1470340063325634,6,3,8,-1,-8,-14,-12,-6
1470340063331964,4,-1,-2,-5,2,4,3,0
1470340063331964,4,6,8,-14,-28,-26,-23,-2
1470340063348022,6,10,20,-4,-14,-25,-21,-6
1470340063348022,-2,-2,-1,0,6,3,3,1
1470340063355039,3,1,3,13,8,4,6,4
1470340063355039,-3,-12,-16,-3,0,11,9,-1
1470340063371023,-1,4,1,-1,1,1,-3,-1
1470340063371023,2,2,2,2,5,-1,1,2
1470340063373002,-8,-8,-10,-9,-6,3,6,-4
1470340063373002,7,14,16,-1,-3,-17,-15,-3
1470340063386091,-2,-5,-7,-7,-4,1,0,-1
1470340063386091,3,1,12,-1,-8,-10,-6,-2
1470340063392052,4,4,2,9,-1,1,-1,-1
1470340063392052,0,-5,2,4,6,6,1,0
1470340063408081,0,-5,-6,9,15,15,8,6
1470340063408081,-2,-2,-4,-7,-6,4,-1,1
1470340063415088,-3,-6,0,-3,-3,-2,0,0
1470340063415088,1,3,0,2,5,-2,-6,0
1470340063431160,-3,-9,-6,-12,-8,5,3,2
1470340063431160,8,10,15,1,-12,-18,-20,-9
1470340063433146,-3,-4,-4,-5,-4,-7,-4,-3
1470340063433146,-2,-2,-7,7,14,24,21,5
1470340063446158,-4,-10,-10,12,22,5,1,3
1470340063446158,-4,-8,-3,3,13,8,9,3
1470340063452188,-8,-9,-8,5,3,2,3,2
1470340063452188,1,2,-4,-7,-6,-8,0,-4
1470340063467236,1,1,0,-3,3,0,2,0
1470340063467236,2,1,3,-4,-5,-5,-9,-5
1470340063475203,0,-3,-3,-9,-6,-2,-3,2
1470340063475203,3,7,15,8,-3,-18,-16,-3
1470340063490242,-1,1,3,-5,-13,-11,-7,-4
1470340063490242,-15,-21,-27,14,34,49,43,18
1470340063491211,-5,-9,-8,12,20,11,3,8
1470340063491211,-8,-8,-8,1,3,9,5,3
1470340063506211,7,2,0,1,1,-9,-8,0
1470340063506211,0,-1,3,-10,-10,-13,-13,-12
1470340063512861,0,3,4,-4,3,1,1,0
1470340063512861,4,9,6,2,3,-7,-7,-6
1470340063527413,-7,-7,-5,-5,-5,5,2,1
1470340063527413,5,1,9,5,-2,-14,-12,-8
1470340063535379,1,0,5,2,-5,-6,0,-4
1470340063535379,-16,-29,-34,-7,21,44,36,6
1470340063550425,-2,-7,-6,3,1,3,3,-3
1470340063550425,0,5,-2,-3,0,2,3,1
1470340063551370,7,16,16,-2,-17,-27,-28,-7
1470340063551370,-4,0,6,-7,-14,-13,-11,-6
1470340063566389,-6,-6,-3,-3,3,3,1,3
1470340063566389,0,8,8,2,-4,-7,-7,-2
1470340063572445,0,-6,-12,-5,3,9,10,3
1470340063572445,4,5,8,8,7,-6,-10,0
1470340063587429,3,6,5,-1,-1,-4,-3,1
1470340063587429,-18,-22,-21,-10,1,23,23,5
1470340063595410,-1,7,5,-9,-13,-10,-16,-14
1470340063595410,-1,5,5,1,-6,-5,-4,1
1470340063610973,10,15,20,-5,-21,-23,-21,-8
1470340063610973,0,3,-4,-5,-7,0,1,2
1470340063611480,-5,-3,-7,-8,-1,3,5,0
1470340063611480,4,2,3,-1,-3,-7,-8,1
1470340063625988,-12,-6,-10,-6,-2,6,11,-1
1470340063625988,2,4,5,6,6,-10,-13,1
1470340063632263,-2,-7,-4,-2,8,3,3,-2
1470340063632263,-3,-6,-8,-19,-23,-7,0,-3
1470340063647333,6,14,14,-11,-22,-35,-29,-14
1470340063647333,-4,2,3,-5,-5,-14,-7,-2
1470340063655256,8,9,9,0,-3,-8,-8,1
1470340063655256,-5,-9,-11,-2,7,10,7,0
1470340063670299,-1,-1,-6,-1,0,8,9,7
1470340063670299,-2,-5,2,-2,2,-1,3,2
1470340063671265,-6,-10,-7,-2,-4,5,2,0
1470340063671265,3,11,8,2,-4,-13,-7,-10
1470340063686289,-2,-1,-1,5,11,10,4,1
1470340063686289,-2,-2,-4,-17,-25,-14,-11,-6
1470340063692320,13,19,24,-4,-26,-38,-28,-14
1470340063692320,1,-1,3,1,-5,-2,-4,-1
1470340063707301,-4,-5,-7,8,14,19,20,8
1470340063707301,-3,-13,-12,5,11,12,5,1
1470340063715378,-7,-9,-7,0,8,13,10,9
1470340063715378,-5,-9,-6,1,1,3,5,5
1470340063730409,-6,-6,-4,-3,0,-2,8,-2
1470340063730409,6,3,2,4,-2,-6,-6,-6
1470340063731390,-1,-2,-3,-3,-2,3,-6,-3
1470340063731390,-2,1,2,-13,-15,-13,-6,-3
1470340063746437,10,15,12,4,-6,-21,-24,-12
1470340063746437,4,3,5,0,-2,3,-2,1
1470340063752431,-10,-15,-27,15,34,37,37,11
1470340063752431,-6,-5,-7,0,-1,6,-1,-4
1470340063767466,-3,-3,-4,-2,-2,8,7,0
1470340063767466,2,3,3,5,-1,-9,-7,-4
1470340063775500,-3,-9,-10,-9,-9,-3,5,1
1470340063775500,4,0,3,2,2,2,2,-2
1470340063790486,-3,-6,0,-7,-8,-1,-7,2
1470340063790486,-4,-4,-5,-1,0,7,2,3
1470340063791444,2,5,3,11,5,-3,-11,-2
1470340063791444,6,-2,-3,-1,0,-5,3,-3
1470340063806457,-6,-13,-22,2,16,26,21,6
1470340063806457,-1,0,-1,-7,-9,-5,-2,-6
1470340063812539,1,-4,0,-6,-4,-3,-4,-3
1470340063812539,5,10,21,1,-15,-24,-28,-4
1470340063827205,-5,-10,-10,0,1,8,12,1
1470340063827205,2,8,5,6,4,1,2,1
1470340063835220,-1,3,4,-6,-12,-10,-7,-1
1470340063835220,-8,-6,-10,5,15,16,17,10
1470340063851186,4,-4,1,11,17,-3,-10,0
1470340063851186,-3,-2,-1,4,7,10,11,9
1470340063851186,-8,-3,-5,-10,-12,0,6,2
1470340063851186,1,7,5,-10,-18,-14,-18,-10
1470340063866207,2,3,3,-6,-12,-4,-3,1
1470340063866207,9,19,18,-1,-15,-25,-22,-6
1470340063872235,-8,-9,-11,-6,1,9,8,-2
1470340063872235,4,0,-5,4,5,3,5,5
1470340063887249,3,6,6,-3,-9,-10,-8,-1
1470340063887249,-5,-11,-16,-4,12,24,19,1
1470340063895240,3,6,8,9,5,-9,-8,-4
1470340063895240,0,-7,-7,3,9,8,12,3
1470340063910269,4,8,11,-15,-27,-28,-17,-9
1470340063910269,4,6,10,-11,-21,-31,-26,-12
1470340063917788,7,7,2,1,-4,-6,-2,-6
1470340063917788,2,5,5,0,-2,-9,-8,-6
1470340063932850,-10,-11,-14,0,6,10,10,0
1470340063932850,-2,-3,-1,5,8,8,9,5
1470340063933832,1,4,5,-2,4,1,-1,0
1470340063933832,-5,-10,-13,-6,-1,13,9,5
1470340063947831,5,7,7,1,-6,-9,-8,-1
1470340063947831,-7,-3,-9,-6,-3,-2,4,0
1470340063954868,1,8,13,-16,-22,-18,-15,-2
1470340063954868,1,6,15,1,-9,-21,-14,-6
1470340063969904,-3,2,-4,-4,3,-4,-4,5
1470340063969904,4,3,1,12,13,5,0,4
1470340063977846,-5,-8,-12,-9,-6,4,8,4
1470340063977846,-6,-2,-2,-6,3,3,6,2
1470340063993865,-2,-4,0,1,9,-1,-8,-4
1470340063993865,-3,-5,-6,-7,-5,6,4,6
1470340063993865,5,11,8,1,-5,-21,-16,-5
1470340063993865,-4,-5,-2,-6,-3,6,3,-2
1470340064007873,3,4,5,-2,-5,-5,3,1
1470340064007873,1,2,3,5,0,1,-2,-2
1470340064014929,-1,-7,-6,-1,5,14,10,2
1470340064014929,-8,-9,-5,6,16,9,5,0
1470340064029752,-8,-8,-4,-9,-9,-4,-2,2
1470340064029752,-5,-3,2,-5,-9,-5,-2,-5
1470340064037747,0,-1,2,0,-7,-4,-5,-5
1470340064037747,-5,-4,-6,-13,-6,-1,-4,-6
1470340064052719,7,7,8,-5,-12,-19,-15,-10
1470340064052719,-3,-8,-4,-10,-10,-1,-5,-1
1470340064053717,-4,-8,-16,9,23,28,21,6
1470340064053717,-1,-6,-8,14,18,6,2,4
1470340064067732,-6,-5,-7,4,6,10,11,0
1470340064067732,-2,-3,-7,6,7,1,1,3
1470340064074738,-4,-7,-1,-9,-9,-3,-6,-4
1470340064074738,4,0,2,3,-3,-2,0,0
1470340064089768,4,4,5,-3,-4,-5,-11,1
1470340064089768,-2,-3,-5,-11,-9,-4,0,-5
1470340064097812,8,6,15,4,0,-20,-16,-7
1470340064097812,-3,-1,1,-9,-10,-8,-2,-2
1470340064113372,-12,-21,-30,6,29,45,38,15
1470340064113372,-7,-10,-9,0,7,5,0,-1
1470340064114329,-2,-1,-1,3,8,2,5,1
1470340064114329,1,4,8,-3,-11,-14,-14,-6
1470340064127879,-6,-5,2,-4,-11,-11,-7,-6
1470340064127879,-2,-2,0,-1,-2,0,1,-2
1470340064134884,7,5,3,6,-1,-4,-4,1
1470340064134884,-5,-4,-5,-3,-7,2,8,6
1470340064149924,4,2,3,7,9,-9,-8,-3
1470340064149924,-1,-2,5,-1,-1,-10,-8,-8
1470340064157904,-16,-26,-24,0,20,38,31,8
1470340064157904,2,2,-4,-1,-4,-1,-5,-1
1470340064172997,-4,-5,-1,-7,-9,0,-1,-5
1470340064172997,8,16,16,-3,-14,-33,-23,-7
1470340064173925,-3,3,2,-7,-8,-11,-11,-1
1470340064173925,1,0,-3,3,6,5,-1,6
1470340064187931,0,10,7,-2,-3,-5,-6,-2
1470340064187931,-6,-10,-11,1,2,7,9,3
1470340064194953,1,4,3,8,8,-4,-7,-3
1470340064194953,1,-1,0,2,0,-8,-5,-2
1470340064209967,-7,-19,-14,-9,-4,18,16,-1
1470340064209967,7,4,7,-6,-20,-24,-12,-5
1470340064217965,-4,-3,-2,-8,-10,-4,1,0
1470340064217965,11,21,24,3,-7,-19,-18,-5
1470340064232996,0,-2,2,1,1,1,-3,1
1470340064232996,-1,-8,-5,0,6,7,4,1
1470340064233995,0,-1,0,0,3,-4,-3,-1
1470340064233995,-5,-10,-8,1,2,7,9,3
1470340064247097,2,10,10,3,-9,-14,-10,-1
1470340064247097,0,-4,-9,-2,2,6,4,-4
1470340064255069,-4,-6,-3,-23,-26,-16,-5,0
1470340064255069,3,6,12,-13,-23,-32,-28,-13
1470340064270059,4,4,3,-2,-3,-7,-5,0
1470340064270059,8,7,13,4,3,5,-1,3
1470340064277037,-6,-8,-14,5,8,11,5,0
1470340064277037,-3,-4,-8,-8,0,10,8,1
1470340064293080,-3,-3,-1,2,7,4,1,0
1470340064293080,-12,-7,-14,-5,0,4,6,3
1470340064294049,6,6,11,3,-5,-9,-9,-9
1470340064294049,-3,-6,-7,1,6,4,1,1
1470340064307067,-2,6,1,-19,-30,-14,-8,-3
1470340064307067,11,11,18,-7,-22,-32,-29,-9
1470340064315141,4,5,8,2,-4,1,-2,3
1470340064315141,-3,-8,-15,12,24,30,26,7
1470340064329732,-7,-12,-4,3,13,6,7,1
1470340064329732,-8,-5,-2,3,9,5,9,10
1470340064337744,-1,-5,-10,0,5,4,3,0
1470340064337744,-5,-2,-3,-11,-12,4,3,-2
1470340064352772,5,-1,9,2,0,-3,-9,4
1470340064352772,-4,1,2,2,-1,5,10,6
