timestamp,emg1,emg2,emg3,emg4,emg5,emg6,emg7,emg8
1472133329554820,-4,-4,11,4,-4,-3,-3,3
1472133329554820,-3,-1,-18,-8,-4,-2,-1,0
1472133329555320,1,1,-1,0,0,2,0,-3
1472133329555320,1,1,5,3,-4,0,-2,2
1472133329556823,0,-2,-9,1,1,0,-1,-1
1472133329556823,-2,-4,11,-3,1,-1,0,-1
1472133329557822,-3,-3,-8,-1,2,-1,-3,-2
1472133329557822,-1,-5,2,-4,-1,0,-1,3
1472133329566331,2,0,2,1,-1,0,-1,0
1472133329566331,0,0,-11,-3,2,0,-3,-3
1472133329571335,-5,-2,2,-1,-6,-4,-1,2
1472133329571335,-4,1,5,2,0,-1,0,-4
1472133329585849,-3,2,-6,-1,0,1,2,-2
1472133329585849,0,-5,-4,1,2,0,-1,-1
1472133329594856,0,-3,8,-9,-4,-3,-1,-1
1472133329594856,2,2,-3,2,0,1,1,-1
1472133329602863,-1,-3,4,-6,-2,-1,-2,-4
1472133329602863,2,-1,7,4,-2,-3,-1,1
1472133329624884,1,0,-7,0,-1,-1,0,2
1472133329624884,-6,-2,-1,-7,-3,-3,-1,-2
1472133329663418,3,4,1,1,2,1,0,-1
1472133329663418,0,-1,-12,-10,0,-3,-2,-2
1472133329664420,-2,0,13,5,-3,-1,-1,1
1472133329664420,-4,-2,0,-2,0,-2,-3,-3
1472133329665922,2,0,-7,-4,1,0,-1,-4
1472133329665922,-2,-3,5,5,-3,-2,-3,3
1472133329668423,-1,1,-12,-3,0,2,0,-1
1472133329668423,2,-1,-3,0,2,1,-1,-2
1472133329675930,-1,-3,-3,2,-2,-5,-2,1
1472133329675930,-1,-2,1,2,-3,-1,0,0
1472133329684938,-1,1,-9,-3,1,-1,-1,-3
1472133329684938,2,0,13,2,-2,-1,-1,-1
1472133329690943,-3,-4,-12,-8,-5,-1,-1,3
1472133329690943,-1,2,3,5,0,0,-2,-5
1472133329705957,3,-2,1,-5,2,0,-2,-2
1472133329705957,-4,2,2,-4,-4,-3,-2,0
1472133329713464,-4,-3,-8,-1,-2,-1,0,0
1472133329713464,-2,-3,-13,-9,0,0,0,-5
1472133329728476,-4,-4,-7,2,-3,-2,-3,-1
1472133329728476,2,1,-1,-13,-1,-2,-1,1
1472133329735985,-2,-7,21,7,-2,0,-3,-3
1472133329735985,0,2,4,1,1,-1,-2,1
1472133329751497,2,0,-19,0,0,-1,2,2
1472133329751497,-2,2,1,10,2,-1,0,1
1472133329752499,-4,1,5,-9,-1,-3,-2,-3
1472133329752499,-2,-5,1,1,-3,-1,1,-3
1472133329774020,-1,-1,18,-1,3,-1,-1,0
1472133329774020,-2,-2,-17,-2,-3,-1,0,-2
1472133329775019,-1,3,-1,-1,-1,-1,0,-2
1472133329775019,0,-1,4,7,-1,-1,-1,2
1472133329788531,0,1,4,-4,0,-1,0,0
1472133329788531,-2,-2,-17,-7,-3,-2,-1,-2
1472133329796038,2,0,7,6,2,0,0,0
1472133329796038,1,3,7,-6,0,0,-2,2
1472133329811553,-1,-3,-13,-1,-1,-4,-1,-2
1472133329811553,0,-2,1,1,-1,-1,-2,-1
1472133329812553,-1,0,-4,3,-1,0,0,2
1472133329812553,1,0,1,-4,-3,2,-2,-2
1472133329834073,-2,0,11,2,-3,2,-1,-3
1472133329834073,1,4,-1,-2,-3,0,0,-1
1472133329835073,-1,-8,-11,6,-2,-1,-1,-1
1472133329835073,1,0,13,0,-1,-3,1,-3
1472133329848585,-3,-1,-9,-3,-3,0,-1,-3
1472133329848585,-1,-4,12,-2,1,0,0,1
1472133329856092,-2,1,-6,4,0,-1,-4,2
1472133329856092,-3,4,1,3,0,-1,0,3
1472133329871606,0,-4,-24,-18,-5,-2,-2,-2
1472133329871606,1,1,10,2,1,0,1,0
1472133329872607,-2,-2,-2,-9,-1,1,0,-2
1472133329872607,-4,1,-3,6,0,-2,-1,-4
1472133329894127,1,1,22,2,0,-1,-1,3
1472133329894127,-2,5,-3,1,-1,1,-2,-2
1472133329894627,3,-3,6,-3,-2,1,-2,-5
1472133329894627,3,-2,-5,1,-1,1,0,0
1472133329916647,-2,-4,-9,-8,-4,-2,0,-2
1472133329916647,-2,1,16,10,0,0,1,1
1472133329917147,-1,2,6,0,-2,-2,1,-2
1472133329917147,0,-1,1,-6,-1,1,0,-1
1472133329931660,-1,1,-17,4,-3,-3,0,2
1472133329931660,-1,-6,-3,-4,-2,0,-1,-3
1472133329932161,1,13,-7,0,3,1,0,-1
1472133329932161,-4,-8,-7,-10,-5,-2,-1,-2
1472133329954180,2,-2,8,2,2,2,-3,-2
1472133329954180,-1,-1,-2,6,-2,-2,-1,0
1472133329954681,-2,-6,-3,0,2,-1,-2,-1
1472133329954681,0,0,-9,0,2,2,0,2
1472133329976702,-1,13,18,3,-1,-3,-3,-3
1472133329976702,0,-4,-11,-5,-3,-1,-1,0
1472133329984208,-2,-5,-6,-5,-1,-2,0,-1
1472133329984208,-3,18,19,5,1,-2,-3,-3
1472133329991715,-1,-12,-2,-2,0,2,-1,-2
1472133329991715,0,-14,-29,0,-5,-2,-1,-3
1472133329992215,0,14,47,2,-5,-2,1,3
1472133329992215,-1,-15,-49,-11,0,0,0,1
1472133330014235,-3,-2,4,4,-1,-2,1,0
1472133330014235,1,0,2,4,1,0,1,-2
1472133330014736,-1,-9,-7,-7,0,-1,1,-3
1472133330014736,1,-1,9,-2,-6,-4,-3,0
1472133330036755,-1,2,2,-5,-2,-1,-2,0
1472133330036755,0,4,9,0,4,4,0,-1
1472133330037255,-2,-1,-49,-7,-3,-1,0,0
1472133330037255,1,7,31,1,-5,-2,-2,-3
1472133330051769,4,5,9,-1,4,-1,2,-2
1472133330051769,-6,2,6,4,-6,-6,-4,-1
1472133330052269,1,9,8,-10,3,2,-1,0
1472133330052269,0,4,-2,1,4,1,2,3
1472133330074289,-1,0,-7,4,-1,2,5,-2
1472133330074289,-2,-6,-10,-8,10,3,-4,-2
1472133330074790,-2,4,16,1,-1,1,-1,-1
1472133330074790,-1,-9,-10,3,-4,-8,-1,-1
1472133330096810,-2,2,13,5,3,6,-2,2
1472133330096810,-1,3,6,0,-9,-3,-2,-9
1472133330097310,0,-10,-15,3,-5,0,2,-2
1472133330097310,-2,-3,-1,-3,1,-1,0,1
1472133330111823,-2,-2,0,-5,-5,-3,-1,1
1472133330111823,-1,0,-2,0,-1,1,2,3
1472133330112323,-4,-9,-8,-4,-5,-1,-5,-4
1472133330112323,-3,1,-4,-3,-1,0,-1,-4
1472133330134344,0,-2,-4,5,0,-4,0,1
1472133330134344,0,1,-14,-16,-18,-8,0,0
1472133330134844,1,0,23,11,6,2,0,-4
1472133330134844,-4,-5,-17,4,1,1,7,5
1472133330156363,1,-1,-9,-4,-2,-3,-3,-1
1472133330156363,-2,-10,9,-4,1,-4,0,-1
1472133330157364,-7,5,-13,13,2,5,-3,2
1472133330157364,3,5,6,-6,-10,-2,3,-1
1472133330171377,-6,-23,-10,-5,9,2,-1,-3
1472133330171377,-1,7,18,15,4,-2,-9,-5
1472133330172378,0,-7,8,-9,-4,1,11,6
1472133330172378,-10,-2,2,5,4,1,-10,-2
1472133330194398,-7,3,-6,-1,-11,-5,0,-10
1472133330194398,-1,-7,2,-8,-3,-5,0,7
1472133330195398,5,2,-5,3,-3,-4,-2,3
1472133330195398,5,-3,-2,2,-3,1,-36,-6
1472133330216418,1,3,12,-3,-1,-1,33,3
1472133330216418,-6,-2,-22,-5,-13,-5,-11,1
1472133330217418,8,3,-3,0,22,9,35,5
1472133330217418,-4,-6,1,-7,-6,1,-20,-10
1472133330231431,4,4,2,6,0,0,-16,18
1472133330231431,-1,0,-6,0,6,1,5,2
1472133330232432,6,-1,0,-6,-9,-10,2,0
1472133330232432,2,1,-3,1,-2,-4,10,-4
1472133330253951,-8,-4,4,0,2,-3,-19,-10
1472133330253951,-2,2,-3,-2,-2,0,5,-8
1472133330254951,4,-6,4,-4,-2,1,-18,-1
1472133330254951,-4,1,-2,-3,1,-3,13,2
1472133330276472,7,3,0,1,-3,-4,-8,-5
1472133330276472,-1,-6,-1,-7,5,-4,0,-4
1472133330277473,-8,-9,-1,-7,-19,-15,-26,-5
1472133330277473,3,-4,7,6,-5,-5,12,1
1472133330291484,-8,-1,-18,-4,-1,-7,10,-1
1472133330291484,6,7,11,5,11,19,-6,1
1472133330292485,1,2,-4,2,0,0,-12,-7
1472133330292485,-1,1,4,-3,-3,-4,11,8
1472133330314006,-12,-10,-13,-11,-2,-4,-21,-13
1472133330314006,4,3,9,10,5,12,15,18
1472133330315007,2,5,-12,0,-4,-5,-26,-2
1472133330315007,0,3,9,2,7,-2,7,-14
1472133330336526,3,2,5,4,-7,7,21,22
1472133330336526,-8,-4,-4,-2,-6,-12,-11,2
1472133330337526,3,2,-2,-2,6,4,8,-6
1472133330337526,-3,-2,-12,1,1,5,5,4
1472133330351539,-2,-3,-15,-5,3,3,-6,-3
1472133330351539,8,8,2,2,2,-1,4,-4
1472133330352540,-8,-4,3,0,2,1,-2,-1
1472133330352540,-4,1,-7,-5,-5,0,16,3
1472133330374060,10,1,5,5,0,-5,-6,4
1472133330374060,6,4,-1,3,5,12,14,-5
1472133330375060,-25,-25,-17,-5,-10,0,-5,1
1472133330375060,5,1,10,-3,25,12,0,-1
1472133330396581,7,-10,-5,2,5,-2,2,-9
1472133330396581,-13,-7,1,-7,-23,-14,-9,4
1472133330397581,1,-11,16,-6,-1,-6,6,-2
1472133330397581,4,-2,-33,7,0,2,-1,-3
1472133330411594,-5,-8,28,-17,-3,-4,-7,-4
1472133330411594,4,2,3,11,-3,-2,-3,1
1472133330412594,-2,1,-32,-6,-21,-8,11,2
1472133330412594,5,11,30,6,7,-3,-13,-4
1472133330434114,0,32,-12,10,-6,2,2,5
1472133330434114,-11,-1,-4,-5,-11,-7,-5,-8
1472133330435115,8,18,7,-3,7,1,0,-1
1472133330435115,-6,4,12,-1,-5,-4,-4,5
1472133330456635,2,26,18,13,-2,-2,0,-1
1472133330456635,-1,-8,-7,-20,3,2,2,-5
1472133330457635,-1,-5,-11,5,16,3,-2,1
1472133330457635,-2,-2,17,3,-17,-6,-9,-1
1472133330472148,-1,-6,-7,-4,4,3,3,0
1472133330472148,0,0,-2,4,5,-5,-4,-6
1472133330478654,-2,-8,1,4,-4,-2,2,1
1472133330478654,5,3,-69,-20,-11,-2,0,1
1472133330494169,-3,-10,39,0,-6,-3,-5,-12
1472133330494169,-5,-1,7,4,-17,-5,-1,10
1472133330495169,-3,19,-14,-8,5,6,1,-4
1472133330495169,-2,-10,7,8,5,-4,0,-2
1472133330516687,-5,-9,10,5,4,5,-2,2
1472133330516687,6,2,-22,-9,-1,-4,-3,-5
1472133330517189,-1,-9,16,7,-3,2,-3,5
1472133330517189,-4,7,10,-1,-1,-4,-2,-2
1472133330531202,2,-8,-20,-16,-8,-4,-1,1
1472133330531202,9,-1,13,5,10,7,4,11
1472133330538208,-9,0,-10,-7,-9,-10,2,-7
1472133330538208,1,-3,3,5,21,12,-1,7
1472133330554222,-1,8,-14,-2,14,6,3,-6
1472133330554222,-6,0,8,2,16,-4,0,-6
1472133330554723,7,-1,8,9,-6,0,-1,5
1472133330554723,-6,-10,-7,-7,-1,-6,-1,-7
1472133330576749,-3,-3,-3,0,-14,-4,-3,-5
1472133330576749,-5,-5,-2,-1,3,3,-15,-3
1472133330576749,5,4,8,3,22,-3,20,10
1472133330576749,-5,3,11,2,-16,3,-6,0
1472133330590760,-1,8,-11,8,1,-7,1,0
1472133330590760,-1,4,-8,-19,-14,1,5,2
1472133330597767,-4,-1,4,-5,7,-5,-12,-10
1472133330597767,3,-6,6,6,-13,-3,0,10
1472133330613783,0,-8,-1,-8,3,3,3,-1
1472133330613783,0,2,-7,7,10,3,0,-8
1472133330614784,-7,-3,19,1,-14,-4,-6,-8
1472133330614784,-2,5,4,5,-6,-3,4,2
1472133330635802,-2,-7,-8,-11,13,3,-10,-7
1472133330635802,1,-13,-3,0,-9,-1,15,8
1472133330643810,-2,1,0,11,-5,-2,-19,-2
1472133330643810,2,7,0,-11,-7,-2,1,-11
1472133330659331,-9,1,5,9,-5,-4,-7,4
1472133330659331,2,1,2,-2,2,-2,12,10
1472133330659832,-2,1,-3,-1,-10,-4,-21,-7
1472133330659832,1,-5,-4,-9,1,-1,-1,-2
1472133330681858,-2,-2,-12,3,13,3,2,-10
1472133330681858,-6,0,13,3,-6,-2,-5,-2
1472133330682859,12,5,-5,-13,0,1,5,-1
1472133330682859,-16,4,-9,3,-3,-5,-3,-3
1472133330695871,1,3,2,-10,-9,1,-2,5
1472133330695871,7,4,-4,6,5,1,-24,-16
1472133330696872,-1,6,-2,-9,-4,-1,-2,-2
1472133330696872,-1,-19,-7,-6,18,7,1,-1
1472133330718893,-2,-2,-5,-5,-20,-4,7,9
1472133330718893,-5,-4,-10,-2,10,-8,-10,-7
1472133330719893,0,3,14,1,-2,12,21,2
1472133330719893,3,-5,-8,-6,3,0,-5,6
1472133330741912,-1,1,5,8,-1,-5,-12,-11
1472133330741912,0,-5,-5,-6,-2,3,15,6
1472133330742914,-7,-4,-1,7,-7,0,-2,5
1472133330742914,5,1,2,-6,2,-1,-2,-7
1472133330756433,-1,-3,-9,-6,-1,9,2,0
1472133330756433,-5,-15,-6,0,-10,-4,-22,7
1472133330757434,-2,2,8,9,12,8,21,3
1472133330757434,0,2,-4,-7,-6,-4,-19,-10
1472133330778962,8,-3,-2,-2,-2,-8,-15,-1
1472133330778962,-11,-4,6,1,-8,-6,-23,0
1472133330779962,8,-6,-13,-7,-2,-7,14,9
1472133330779962,-2,-7,7,5,6,6,-3,-6
1472133330801983,-3,-1,8,3,-12,-14,-1,1
1472133330801983,4,1,2,6,13,17,22,-2
1472133330802983,3,-2,-2,-3,9,4,-27,1
1472133330802983,-4,4,-3,-1,-17,-10,-1,-5
1472133330825003,-6,-19,3,1,1,4,22,10
1472133330825003,2,23,-9,-13,-33,-15,0,-1
1472133330826004,-3,-15,2,3,23,-11,-1,-10
1472133330826004,2,-1,-4,-2,5,14,8,19
1472133330839015,-4,-1,14,11,4,14,-15,-26
1472133330839015,3,-1,2,3,-5,-6,-33,-1
1472133330840015,5,-7,-14,-10,3,0,55,16
1472133330840015,-4,2,13,-1,-16,3,43,0
1472133330862051,6,2,-7,1,16,8,-43,9
1472133330862051,1,-11,-7,-9,-15,2,40,-6
1472133330863051,-3,45,2,26,8,-3,-39,-6
1472133330863051,-5,-29,-14,-5,11,4,4,1
1472133330876062,6,-2,15,-12,-29,-6,23,5
1472133330876062,-7,-6,12,11,14,-15,-8,-3
1472133330877064,6,-11,-14,1,-16,9,5,1
1472133330877064,2,13,4,-3,29,9,-6,-10
1472133330899084,3,-5,-3,21,3,-20,-6,11
1472133330899084,1,8,4,-38,-47,-9,36,7
1472133330900084,-12,-10,13,22,9,-10,-18,-15
1472133330900084,12,28,-32,-21,-13,-2,-21,5
1472133330922104,-15,-21,-4,5,4,8,12,-1
1472133330922104,15,21,-12,2,27,11,-6,7
1472133330923105,-2,-10,29,-13,-7,7,5,12
1472133330923105,2,7,1,5,-38,-25,-9,3
1472133330936116,0,14,-20,-22,-7,-10,2,-6
1472133330936116,-17,15,-29,8,22,8,-7,-12
1472133330937117,-7,-49,-7,-15,-19,4,-13,-4
1472133330937117,4,-38,-1,11,13,-13,-5,3
1472133330959144,10,39,37,2,-29,-8,9,0
1472133330959144,-9,0,6,-4,41,5,-16,-8
1472133330959645,-6,5,-35,-6,0,7,6,-2
1472133330959645,-10,-27,13,3,-8,18,7,0
1472133330982166,5,9,-16,3,47,1,11,8
1472133330982166,-7,-33,47,16,-43,-16,-6,-8
1472133330983166,-6,-7,-40,-19,0,-10,-6,-3
1472133330983166,0,28,35,-5,-45,-25,-7,-4
1472133331004685,-4,-3,-18,-15,0,15,-2,-1
1472133331004685,-2,-11,-30,-8,32,5,0,-2
1472133331005686,1,15,11,4,-10,-6,0,-2
1472133331005686,-5,-1,-21,-19,-23,-15,-11,-4
1472133331019198,-14,-20,4,14,-45,-8,-3,-4
1472133331019198,-1,17,4,2,59,23,7,-8
1472133331019699,8,19,34,23,-2,-1,-3,2
1472133331019699,-11,-2,-24,-3,-14,2,-1,-1
1472133331042219,-5,-3,6,-11,15,5,-7,-3
1472133331042219,6,-13,1,1,-70,-19,-6,6
1472133331043220,-5,4,6,-4,23,19,-18,-6
1472133331043220,7,-2,9,9,33,9,36,-2
1472133331055237,2,9,9,14,-29,-14,-1,5
1472133331055237,0,17,-5,3,15,-13,-11,-14
1472133331064244,-1,-12,6,-13,-9,-19,-4,-1
1472133331064244,4,-7,-6,2,9,-2,-16,-8
1472133331079259,0,-15,-15,-5,75,29,9,-5
1472133331079259,6,9,5,18,-3,5,11,11
1472133331079259,-5,-1,-16,-22,-86,-28,-4,-5
1472133331079259,2,20,1,6,95,13,10,-5
1472133331102279,-3,-25,-12,-7,-49,-9,-2,1
1472133331102279,4,4,7,10,19,9,-11,-1
1472133331102279,-1,5,3,-8,6,5,22,-3
1472133331102279,-1,-6,-10,4,-45,-12,-14,-2
1472133331115290,-12,-8,17,-8,10,-8,-4,3
1472133331115290,4,0,-1,3,8,7,21,1
1472133331124299,-1,-1,5,0,7,7,9,14
1472133331124299,0,-1,-24,0,-5,6,-5,3
1472133331140317,7,10,3,8,2,-6,-18,-7
1472133331140317,-13,-12,-8,-24,-34,10,-9,0
1472133331141317,9,4,4,5,41,1,7,0
1472133331141317,0,6,9,6,4,3,-3,7
1472133331162342,1,3,-9,-9,-23,-9,-8,-2
1472133331162342,-7,-4,9,3,-2,-17,-13,-5
1472133331162342,0,2,-1,4,-12,2,-13,-3
1472133331162342,-8,-16,-7,-20,8,0,24,8
1472133331175353,4,11,22,26,4,10,7,-14
1472133331175353,-1,-3,-16,-24,-1,-5,-17,1
1472133331184360,-1,12,14,-3,1,10,-2,-11
1472133331184360,8,10,3,3,-4,-6,24,7
1472133331198374,-2,-6,-20,0,1,2,-17,-2
1472133331198374,2,-5,0,-5,-16,-3,27,9
1472133331199375,-4,-3,1,5,13,3,-24,-13
1472133331199375,-8,3,0,4,-6,-2,-3,-6
1472133331222396,-3,7,4,-6,8,-2,28,14
1472133331222396,9,-14,2,-1,-6,6,-3,-2
1472133331222396,-9,-14,-18,1,-13,-5,20,-3
1472133331222396,-1,-7,10,3,0,24,-21,-4
1472133331235911,7,15,-4,-4,7,19,18,12
1472133331235911,-1,-8,3,13,-2,12,-26,0
1472133331243920,4,4,-10,-7,0,37,35,15
1472133331243920,-4,-9,14,13,19,10,-4,-11
1472133331258437,-3,-1,-19,-12,-6,-47,17,11
1472133331258437,3,-1,4,5,1,-59,-20,-4
1472133331259436,3,-10,-8,-3,-2,-67,-10,-12
1472133331259436,-13,5,5,4,-11,-54,-15,0
1472133331282455,4,-17,-13,-15,-2,-15,-11,-4
1472133331282455,-7,7,-2,3,2,3,30,10
1472133331282455,4,-5,7,-2,0,20,-19,-1
1472133331282455,2,-10,-1,2,-4,15,15,-2
1472133331295467,-3,2,5,5,10,24,5,-5
1472133331295467,-4,5,11,-3,-7,8,-14,-1
1472133331303475,-1,11,-12,-2,2,16,35,6
1472133331303475,9,-4,5,-6,-10,16,-12,-2
1472133331318490,-1,7,-8,-1,13,18,-9,9
1472133331318490,2,-1,-5,15,24,2,-20,11
1472133331319489,6,18,-3,-14,-24,5,16,-3
1472133331319489,-7,7,-6,-1,-1,-16,-21,-20
1472133331342513,1,1,-4,-7,12,0,-4,0
1472133331342513,1,1,17,-6,-37,25,40,-2
1472133331343014,1,13,-1,14,21,-28,-27,-4
1472133331343014,6,5,-10,9,-6,22,17,14
1472133331364124,-8,-5,-28,-16,16,-9,-11,-15
1472133331364124,4,32,36,-6,-9,-4,2,-6
1472133331365125,-10,-22,-20,-9,-27,-14,-5,-4
1472133331365125,1,-12,8,4,-15,-9,-2,-2
1472133331379137,5,21,-25,-14,13,-7,-11,-7
1472133331379137,-2,36,33,13,6,24,7,-2
1472133331379137,-7,-11,-6,13,-20,7,-4,0
1472133331379137,10,2,-19,-32,-25,-8,-16,5
1472133331402157,-22,-5,44,26,21,4,-10,-3
1472133331402157,2,11,-54,-14,3,10,20,1
1472133331403157,12,22,43,21,39,-2,-14,3
1472133331403157,-4,-1,-10,-8,-15,-16,2,-3
1472133331424178,8,10,26,-16,-39,-10,-22,-15
1472133331424178,-1,-33,-61,-15,-19,-28,-10,-6
1472133331425178,-6,4,-8,15,25,16,-5,-2
1472133331425178,-3,20,26,4,19,10,0,7
1472133331439195,-6,-2,41,-5,-12,-14,-1,-11
1472133331439195,-7,-38,-49,-6,23,1,-10,-1
1472133331439697,1,0,-15,-15,-35,-19,-3,5
1472133331439697,-2,5,-12,7,-6,4,-4,-2
1472133331461719,3,-6,-24,-2,6,29,10,5
1472133331461719,3,17,-10,-5,-1,-5,-5,1
1472133331462722,-2,-25,29,-2,8,2,-4,-1
1472133331462722,-14,-21,-26,-16,-5,-17,-6,-5
1472133331484756,0,-12,7,14,-25,-1,1,1
1472133331484756,2,7,50,27,30,9,-4,4
1472133331484756,7,-7,-31,-17,-3,9,34,2
1472133331484756,-3,11,17,2,17,-8,-8,-2
1472133331498766,9,-14,-5,-5,-22,3,-3,1
1472133331498766,-9,-20,6,-31,-60,-34,-9,-9
1472133331499754,5,7,-6,4,19,23,-7,2
1472133331499754,1,1,-17,13,53,5,4,0
1472133331521804,6,11,-1,13,17,14,14,14
1472133331521804,-12,-41,25,4,0,-12,12,-10
1472133331522774,1,13,-11,-11,-18,-22,-17,-1
1472133331522774,-9,-34,10,-5,-12,11,17,-4
1472133331544799,-5,-8,-4,18,9,-17,1,0
1472133331544799,7,1,29,4,9,11,-29,-1
1472133331545299,-9,14,-19,-22,-12,-11,16,0
1472133331545299,13,4,33,6,-4,6,-33,-1
1472133331558461,-6,-7,-3,10,43,38,32,2
1472133331558461,2,22,-14,4,17,-15,4,1
1472133331559429,-3,-14,9,-16,-33,-2,11,3
1472133331559429,6,10,5,8,24,-6,-30,-11
1472133331581449,-2,-26,-34,-2,5,-21,11,11
1472133331581449,-6,-5,-24,-9,-40,17,8,-10
1472133331582450,-10,-4,-8,-14,65,3,-15,-2
1472133331582450,-5,14,18,14,-52,-23,7,0
1472133331604503,4,-4,22,11,18,25,-9,-7
1472133331604503,1,3,-14,1,34,-6,14,6
1472133331605473,2,-5,41,1,-60,-35,-18,6
1472133331605473,-3,-10,-27,-36,-42,29,7,-3
1472133331618485,1,9,-18,1,59,-35,-20,-8
1472133331618485,2,-2,-8,8,10,20,7,-5
1472133331619484,-1,-1,38,19,19,-3,-18,-1
1472133331619484,-2,-1,-47,1,18,-1,14,15
1472133331641521,-2,5,0,-19,-58,-13,-1,-17
1472133331641521,-2,0,-4,0,6,2,-14,-2
1472133331642509,-1,-12,-8,-17,-4,2,-23,-7
1472133331642509,6,1,-2,12,6,32,34,10
1472133331665046,-7,-3,-10,-6,5,25,-22,4
1472133331665046,-2,-7,8,0,-5,1,0,-15
1472133331665046,-8,-17,-4,14,-6,-14,-1,-11
1472133331665046,0,4,6,-15,-2,-37,-30,-19
1472133331679091,-3,-2,0,-11,-30,-23,23,0
1472133331679091,0,-1,-3,4,-11,-13,-21,2
1472133331680059,2,-14,3,13,21,4,18,7
1472133331680059,-5,-10,-5,-10,5,4,4,-7
1472133331701110,2,-6,28,5,-11,3,3,5
1472133331701110,-3,-16,-16,-7,0,-1,-32,-2
1472133331702114,-6,20,-6,3,-5,16,16,-10
1472133331702114,3,0,0,3,-2,-1,4,4
1472133331725100,-4,11,-2,6,-16,-6,-16,-11
1472133331725100,0,9,-3,-13,0,2,36,20
1472133331725100,0,1,-14,3,-6,8,-3,-16
1472133331725100,0,7,14,4,3,-3,-16,3
1472133331739116,-9,-5,-7,-4,-9,-10,-3,5
1472133331739116,3,-13,-3,0,9,1,-15,-2
1472133331739617,-1,-9,5,2,0,-5,-13,9
1472133331739617,2,-5,-10,5,5,-2,6,-1
1472133331761141,0,1,10,-10,-17,-4,-31,-3
1472133331761141,-5,-2,1,4,-3,-4,28,9
1472133331762142,1,-8,-15,-8,1,5,2,2
1472133331762142,-2,3,-9,-9,-8,-12,-17,7
1472133331784193,0,4,13,-2,-18,-7,-19,-21
1472133331784193,0,10,9,6,27,14,40,6
1472133331785163,5,-5,0,7,7,-1,-15,-13
1472133331785163,-3,-7,15,2,0,-1,-19,-3
1472133331799176,-4,6,-23,3,6,-1,4,0
1472133331799176,7,-7,-7,-2,-3,1,-26,7
1472133331799176,2,-7,1,-17,-10,-10,34,-2
1472133331799176,-19,-6,5,16,4,15,-75,6
1472133331821228,7,-10,-11,-19,-20,-19,92,4
1472133331821228,-5,9,21,5,8,8,-42,-13
1472133331822197,3,8,-5,3,32,14,-32,3
1472133331822197,-2,10,-2,-5,-28,-2,29,-6
1472133331844754,-4,12,20,12,-28,9,-21,3
1472133331844754,-3,23,-7,-26,9,-27,3,-4
1472133331845254,-6,10,10,-3,-37,-13,-11,-1
1472133331845254,-3,-15,-57,-42,22,-1,27,-5
1472133331858956,7,3,-27,22,9,5,-24,-7
1472133331858956,-3,-3,52,43,-11,-18,23,4
1472133331859926,-4,-10,-9,-14,19,6,-26,-3
1472133331859926,-6,-11,-11,-3,-17,-40,8,-5
1472133331880943,2,0,18,-1,60,69,14,4
1472133331880943,-15,-18,-10,6,-68,28,-27,0
1472133331881943,6,5,1,-6,-10,-44,11,11
1472133331881943,9,-18,-1,19,10,54,4,-1
1472133331904964,-3,-38,-24,-19,-12,-34,9,1
1472133331904964,-7,-74,-8,0,-41,5,11,-7
1472133331904964,-4,15,11,3,-21,-1,-31,-6
1472133331904964,6,9,24,-4,27,-4,51,7
1472133331918979,5,21,-25,-1,1,-4,-13,7
1472133331918979,6,50,-6,-12,20,16,-15,-11
1472133331919979,-2,12,-18,8,-20,-6,3,0
1472133331919979,1,-11,-20,-23,-11,-13,-15,1
1472133331941566,1,-8,29,14,51,7,-3,2
1472133331941566,0,25,-38,7,0,-18,2,0
1472133331942534,4,16,44,-4,1,15,17,7
1472133331942534,12,22,36,19,11,-5,-3,-4
1472133331964573,-17,-9,-25,-17,-47,-28,-13,-5
1472133331964573,4,-52,-10,-19,23,33,-1,-2
1472133331965560,-4,-11,-17,28,21,103,4,4
1472133331965560,-8,-9,12,17,12,126,-1,1
1472133331978570,-6,9,3,6,-28,52,-5,2
1472133331978570,-4,-3,-31,-8,6,-15,5,-7
1472133331986578,4,5,42,12,-23,-102,-3,-6
1472133331986578,-13,-4,-22,-27,-31,-128,-11,-4
1472133332001591,6,10,11,-20,6,-117,-4,-9
1472133332001591,-6,10,1,29,45,-75,5,4
1472133332001591,-12,-23,25,-41,-18,-97,4,5
1472133332001591,0,-3,-24,30,-16,-72,4,5
1472133332024614,5,-1,13,0,5,-14,1,5
1472133332024614,11,13,13,-37,21,13,1,3
1472133332025614,-2,-11,-22,24,41,31,4,-9
1472133332025614,-1,4,39,-18,-24,13,48,13
1472133332038642,-3,-6,-6,-10,-35,-5,-17,-5
1472133332038642,9,-7,-13,-22,-14,21,7,-13
1472133332046649,-10,4,-5,13,16,43,-3,3
1472133332046649,2,14,6,-5,18,64,14,-3
1472133332061666,1,4,4,52,29,22,1,4
1472133332061666,1,9,-10,-22,0,3,-2,3
1472133332061666,2,11,-21,-7,-39,-8,-7,-7
1472133332061666,6,-10,-2,-23,24,41,-16,-7
1472133332084689,-2,-8,-33,-24,0,13,5,-1
1472133332084689,-12,-11,45,78,62,41,-22,3
1472133332085688,0,-6,-35,-15,-37,-12,52,18
1472133332085688,-3,4,28,-7,-50,-28,-22,-5
1472133332097715,4,-2,-12,-14,-26,-31,3,2
1472133332097715,2,9,-10,-15,12,5,-28,-4
1472133332106723,6,-6,-6,8,46,37,41,3
1472133332106723,1,-1,6,20,-5,-21,-9,1
1472133332121721,-3,-3,1,7,-3,5,-6,5
1472133332121721,-2,-3,1,-29,-32,-16,6,-3
1472133332121721,1,-1,-8,19,10,15,-14,-1
1472133332121721,-5,6,-6,7,5,-9,-8,-10
1472133332144749,0,3,18,-22,-17,13,12,-6
1472133332144749,10,16,-16,4,-10,-13,-17,4
1472133332145249,1,-9,28,-4,-20,7,-10,3
1472133332145249,2,9,-5,10,36,-2,3,-3
1472133332157825,-3,-2,-1,4,-1,5,-17,10
1472133332157825,-5,-2,2,-6,-22,-21,-13,-3
1472133332166801,0,-8,-9,-14,18,10,-9,-17
1472133332166801,8,3,10,5,-5,-13,-11,6
1472133332181817,-1,-9,6,-1,2,7,7,0
1472133332181817,-6,10,1,-6,-18,-11,-7,-1
1472133332181817,5,12,6,4,2,-7,-25,-6
1472133332181817,-1,-4,-8,6,8,4,67,-3
1472133332204850,0,6,-7,-4,7,7,-10,-11
1472133332204850,-6,-12,13,9,-6,-5,13,1
1472133332204850,-9,-6,-17,-6,5,-4,-22,5
1472133332204850,-5,3,-8,-4,-1,-4,-36,-16
1472133332217852,4,-2,0,-2,5,-7,47,8
1472133332217852,-3,-5,-6,1,-9,4,-6,-18
1472133332226856,3,6,6,-1,2,2,4,0
1472133332226856,-13,-17,1,-10,-1,-1,0,-8
1472133332241409,-4,0,1,11,8,8,10,-9
1472133332241409,3,2,-15,-4,-8,-1,-6,0
1472133332242410,-3,-14,-31,-10,-6,-3,18,4
1472133332242410,4,3,24,2,-4,8,-26,2
1472133332266008,-10,1,-7,11,8,-3,-19,-17
1472133332266008,3,-6,11,-2,-1,10,39,17
1472133332266971,5,3,-5,-5,1,-6,-4,-2
1472133332266971,1,-3,-4,-2,4,-1,32,18
1472133332287001,2,-4,20,4,-4,2,-35,-2
1472133332287001,9,2,-5,-1,-13,-18,32,11
1472133332287986,2,3,-2,2,9,13,-16,-11
1472133332287986,-10,6,11,-7,-9,-7,-27,-13
1472133332301012,8,4,11,-18,6,6,33,13
1472133332301012,-4,-1,-12,15,14,-3,-42,-14
1472133332301999,-18,-15,7,-6,-19,-3,-6,-2
1472133332301999,13,5,-18,-2,13,-4,65,19
1472133332325020,-12,3,-9,-3,-23,-10,-48,-11
1472133332325020,-6,1,5,-17,13,18,12,-2
1472133332325020,2,3,15,27,16,7,6,4
1472133332325020,-4,-10,-24,-17,-3,1,-32,-8
1472133332347045,1,3,4,-21,-57,-37,-5,2
1472133332347045,1,-1,39,18,53,10,23,4
1472133332348045,1,3,0,39,18,10,4,-3
1472133332348045,6,-2,-4,-41,-94,-34,-20,-4
1472133332361668,4,-6,6,31,107,54,12,1
1472133332361668,-4,-28,-34,-3,-3,-6,15,4
1472133332361668,-19,-12,11,-25,4,4,24,11
1472133332361668,-14,-13,4,-2,-19,-2,-18,-12
1472133332384672,8,-12,4,-4,-15,-33,-12,-2
1472133332384672,-2,9,-3,-28,-49,-25,16,-4
1472133332385657,6,19,-11,-16,-15,-12,-22,-7
1472133332385657,-2,14,2,20,34,20,-7,4
1472133332406691,2,4,13,1,-13,5,0,3
1472133332406691,-6,-17,0,-6,2,3,3,2
1472133332407707,16,1,19,1,-36,-18,-8,4
1472133332407707,-2,28,-3,30,41,7,9,3
1472133332421689,-6,3,-6,-28,-5,3,-14,-6
1472133332421689,12,18,-2,38,-25,-7,-9,-2
1472133332421689,5,14,0,-44,-24,1,6,0
1472133332421689,-4,-6,25,25,32,-12,-14,-7
1472133332444716,-6,-2,-28,19,34,36,13,10
1472133332444716,-10,-12,-4,0,-5,-16,-4,4
1472133332445718,-5,-7,23,22,-9,3,0,-7
1472133332445718,4,-13,-16,11,-10,-3,18,3
1472133332467251,-1,-12,-19,-13,-25,-9,-9,6
1472133332467251,10,-2,0,-28,4,8,-10,-10
1472133332467251,-16,4,-3,-19,-26,-16,-5,3
1472133332467251,5,-1,-15,27,31,32,-14,2
1472133332489271,-2,-5,5,11,-49,-49,10,6
1472133332489271,8,-7,0,-14,67,50,-6,-2
1472133332490272,9,6,4,15,84,14,12,5
1472133332490272,-2,-27,-26,-21,8,10,3,3
1472133332504284,-13,-10,32,-4,-6,-4,-24,-15
1472133332504284,15,12,-5,-24,-49,-51,12,-1
1472133332505286,-6,-9,-38,-11,50,54,-16,-6
1472133332505286,-3,-15,6,-8,-21,-21,-2,4
1472133332527338,8,17,3,16,40,6,21,-3
1472133332527338,-21,-5,-19,-26,-74,-20,-17,-5
1472133332527338,1,2,20,25,28,-20,-7,-1
1472133332527338,1,3,0,4,-6,23,3,-2
1472133332541321,-4,-10,-19,-38,-48,-13,5,7
1472133332541321,2,7,16,27,30,0,-18,-8
1472133332542323,-2,-13,-23,-2,-35,-13,8,-1
1472133332542323,-4,1,4,-27,-15,-20,-19,-2
1472133332564345,10,6,1,37,71,41,13,1
1472133332564345,-19,-4,20,23,-34,-21,-2,1
1472133332565347,6,7,3,26,22,12,-5,-3
1472133332565347,0,14,-8,-55,-19,-16,-10,-12
1472133332587368,8,10,3,-27,-7,9,-1,-4
1472133332587368,-1,5,-3,33,-11,15,25,14
1472133332587368,-10,-4,5,-11,-32,-15,-12,-2
1472133332587368,5,4,-1,-12,-65,-36,9,12
1472133332602380,-7,-6,-10,15,47,43,6,-4
1472133332602380,6,-2,5,3,3,-10,-16,-8
1472133332603380,-14,-10,-9,-22,-6,-12,14,-15
1472133332603380,9,4,16,24,-3,-1,-4,2
1472133332624414,7,5,-12,-13,-67,-39,-26,1
1472133332624414,-4,-2,0,-33,22,35,4,-4
1472133332625400,6,-3,-1,46,35,-6,-12,3
1472133332625400,1,8,4,4,24,21,13,-2
1472133332647441,-14,-15,9,19,-4,-8,-2,-5
1472133332647441,4,6,-7,-22,-17,-9,0,1
1472133332647941,-6,-8,-7,-30,-26,-19,6,-6
1472133332647941,-1,-2,3,31,10,5,3,-2
1472133332661143,2,4,-4,-22,-3,-4,1,-1
1472133332661143,-3,-1,4,2,-2,8,-5,6
1472133332662144,3,2,-3,-5,16,8,15,1
1472133332662144,0,-7,-2,0,7,4,-3,-7
1472133332684163,-7,1,-1,-4,-10,-9,1,16
1472133332684163,0,-4,-6,4,1,-3,-8,-17
1472133332685164,-5,-2,-5,-13,-14,-11,-28,2
1472133332685164,-5,-4,11,-3,26,20,12,8
1472133332707184,5,1,-4,16,11,-2,10,9
1472133332707184,1,1,-1,0,0,-3,-51,-2
1472133332708185,-10,-5,-4,-7,-12,2,38,31
1472133332708185,5,0,-3,-2,-7,-18,-22,-14
1472133332721212,-7,-2,-1,0,-2,7,-17,-21
1472133332721212,-4,3,-6,9,31,-12,4,1
1472133332722198,12,-3,-6,-9,-28,5,17,2
1472133332722198,-10,-2,0,-7,24,-6,-18,-6
1472133332744733,3,0,1,25,-3,5,3,-5
1472133332744733,10,1,-5,-5,41,23,45,9
1472133332745734,-7,-3,-5,-16,-22,-14,-21,-9
1472133332745734,3,7,3,20,-12,-3,-2,4
1472133332766772,1,-7,-6,-18,-17,-5,7,-9
1472133332766772,-11,-2,0,-12,3,-15,-12,-9
1472133332767758,3,5,6,9,6,15,-16,3
1472133332767758,-2,-5,2,-5,15,5,-12,4
1472133332781771,-3,5,1,-14,-40,-4,-14,-2
1472133332781771,2,-6,1,2,17,-18,17,4
1472133332781771,4,-1,-8,-4,-23,2,-2,-18
1472133332781771,-8,-3,-6,17,19,25,1,-3
1472133332803805,-5,-3,11,-1,34,-17,-10,7
1472133332803805,-4,-6,-5,-2,-25,-3,38,0
1472133332804792,3,1,6,-19,-17,-30,-22,-16
1472133332804792,15,-2,-5,26,30,41,10,7
1472133332826831,-8,-5,-6,-5,14,-1,46,25
1472133332826831,-6,21,1,-4,-31,-14,-21,3
1472133332827813,3,-12,-1,21,-2,-12,-11,-3
1472133332827813,-1,6,-16,-21,13,-11,7,1
1472133332841844,6,4,20,-11,-19,26,6,6
1472133332841844,-14,-29,-24,-4,-35,-23,-34,-3
1472133332842347,4,29,17,-35,-13,7,26,10
1472133332842347,-6,-49,-7,41,23,-18,4,0
1472133332863870,-10,-26,-9,-8,28,6,8,-12
1472133332863870,-1,18,16,2,-2,-17,0,8
1472133332864870,5,-11,-16,-15,-54,-20,-17,-25
1472133332864870,2,-8,-19,1,4,72,5,-7
1472133332886889,-2,-1,-5,17,48,-12,-10,-4
1472133332886889,13,29,21,0,18,25,52,10
1472133332887889,-17,-20,-2,10,-12,-27,-14,10
1472133332887889,-8,21,12,-39,-88,-59,-29,-18
1472133332900902,0,-14,-9,11,-11,36,-7,-9
1472133332900902,-7,-29,-9,-16,-35,-34,-16,-3
1472133332908908,13,24,-3,7,32,0,3,-1
1472133332908908,-6,2,18,5,47,-4,7,5
1472133332923922,-8,5,2,-3,-63,1,-8,1
1472133332923922,-7,-11,-8,14,-16,0,-17,-10
1472133332924924,6,-6,-16,-18,12,32,15,10
1472133332924924,-2,2,-1,-36,14,-17,1,7
1472133332947450,21,62,5,59,31,9,12,4
1472133332947450,-1,-8,20,-14,-3,11,6,-2
1472133332947953,-10,-10,19,15,-11,-7,-7,-7
1472133332947953,12,27,-3,14,-16,2,4,3
1472133332960967,9,-7,-11,-91,-1,-21,-2,0
1472133332960967,-14,2,-14,114,52,20,5,4
1472133332968976,3,2,22,-28,33,5,3,5
1472133332968976,-9,-11,3,-7,-16,22,-2,-9
1472133332983990,-12,-28,3,16,-29,-25,8,4
1472133332983990,19,7,-3,-35,48,-3,-13,-2
1472133332984991,-2,-10,-22,59,1,30,8,-2
1472133332984991,1,-11,-3,-49,-44,-31,18,9
1472133333008009,1,-14,-1,40,17,7,-12,-9
1472133333008009,-1,9,-5,-50,-24,-4,-22,-12
1472133333008009,-1,-10,22,15,11,-11,8,-8
1472133333008009,-6,5,22,-15,-7,-2,-11,-8
1472133333021022,4,2,12,-14,6,14,-6,-3
1472133333021022,-4,-10,-18,25,20,7,-6,0
1472133333029030,-3,-2,-20,0,-1,8,-25,-9
1472133333029030,3,-8,-47,27,1,4,5,4
1472133333044048,-5,6,-25,-22,-14,-29,-7,-7
1472133333044048,4,2,-13,18,-9,23,-3,-3
1472133333045048,-3,-2,-8,-15,-43,-18,3,6
1472133333045048,-2,4,2,-12,57,5,-3,4
1472133333066637,-5,-16,-1,39,-8,-4,4,-2
1472133333066637,-7,-9,6,-66,-36,4,-5,-1
1472133333067638,0,2,1,-18,0,3,7,1
1472133333067638,-2,0,15,0,1,-20,-20,-16
1472133333080648,-6,3,4,-19,15,6,10,4
1472133333080648,7,5,19,-8,-5,11,-2,-2
1472133333088656,-5,3,7,30,19,-6,-11,3
1472133333088656,-6,2,0,-17,-20,7,6,-4
1472133333103685,1,4,-3,26,-35,-22,-5,-10
1472133333103685,5,3,4,-13,61,14,0,4
1472133333104671,-4,-1,0,9,9,5,-5,4
1472133333104671,0,2,0,6,-18,-9,0,4
1472133333126691,3,6,-7,-24,1,1,1,0
1472133333126691,-2,-8,-3,-10,-28,-7,2,0
1472133333127691,3,0,-8,8,4,-1,-8,-3
1472133333127691,-7,-2,4,-12,4,-2,-2,1
1472133333140706,1,1,2,-10,-8,-1,-9,1
1472133333140706,-7,-11,-2,25,-2,5,-2,2
1472133333149230,10,15,-4,-25,35,4,20,-4
1472133333149230,-1,-1,1,11,-29,-8,13,-2
1472133333164247,0,-1,0,2,6,4,-6,0
1472133333164247,0,-3,6,-8,-23,-1,4,-3
1472133333164247,-2,-18,-11,-34,8,-7,5,16
1472133333164247,-12,-11,1,21,-20,-1,-3,1
1472133333187299,4,-3,2,-21,13,3,-29,-10
1472133333187299,6,9,10,21,5,-3,38,7
1472133333188270,1,2,0,-3,-18,-3,-31,-8
1472133333188270,2,13,-2,-12,-6,-12,18,10
1472133333200292,8,6,0,-12,20,21,42,-4
1472133333200292,-2,9,-1,16,7,-1,-115,-9
1472133333209285,2,4,3,-13,-2,6,109,14
1472133333209285,6,0,-5,11,1,-7,-25,-1
1472133333224299,-4,2,1,8,-10,-23,-42,-3
1472133333224299,-1,-5,-17,-14,15,15,72,-2
1472133333224299,-4,-3,5,30,-9,-2,-27,-8
1472133333224299,0,-8,5,-17,-1,12,-3,0
1472133333247359,1,-8,1,-12,10,7,14,-3
1472133333247359,-5,-3,5,32,-66,33,-26,-5
1472133333248359,-4,-4,-12,-22,62,108,9,-1
1472133333248359,6,-16,-2,15,10,79,36,9
1472133333269385,-24,-1,5,15,55,26,25,-6
1472133333269385,0,-4,5,1,-60,-7,31,4
1472133333270385,-8,11,-10,-6,26,-38,-18,-6
1472133333270385,-2,3,2,-29,-65,-13,-85,-28
1472133333284396,-4,3,-3,-12,-49,-78,75,13
1472133333284396,0,-4,-11,-19,120,-87,-24,-15
1472133333284396,1,-3,1,-44,-72,-128,-1,-3
1472133333284396,-1,4,-4,-89,54,-78,-12,4
1472133333307417,5,2,3,-17,-12,-22,-29,6
1472133333307417,-16,-4,-5,52,-78,-54,34,-2
1472133333307417,0,-8,2,127,17,-35,-22,-14
1472133333307417,-1,0,-9,95,-22,-20,-12,-7
1472133333329438,7,-1,-1,75,55,21,-40,-20
1472133333329438,5,-3,3,25,21,81,-5,8
1472133333330440,-10,-9,5,-68,-83,21,-42,11
1472133333330440,3,5,-2,-57,-35,-16,3,-9
1472133333344455,9,-2,-8,-53,68,-20,27,7
1472133333344455,4,10,-2,-49,-57,56,-3,1
1472133333344957,2,13,4,-29,80,-48,-13,3
1472133333344957,-7,-28,-22,5,59,6,46,9
1472133333367493,8,14,7,-9,-20,-2,-34,-3
1472133333367493,-4,5,27,25,-60,20,-22,9
1472133333367493,-6,3,5,26,-92,108,45,9
1472133333367493,-4,-28,3,-18,-113,-31,-33,1
1472133333389513,-5,6,-8,27,101,36,-24,-8
1472133333389513,4,-20,-14,-13,96,72,-2,0
1472133333390514,15,6,5,29,5,-43,79,12
1472133333390514,-10,44,-3,-12,-12,17,-24,-19
1472133333403539,-9,-37,1,-10,-128,-57,11,4
1472133333403539,-1,8,-10,-38,-12,-28,-37,0
1472133333404543,11,-9,3,8,9,11,8,-2
1472133333404543,-15,-28,-11,20,-5,-27,35,2
1472133333427547,7,13,-5,-19,25,121,14,11
1472133333427547,-2,54,18,49,50,-57,12,8
1472133333427547,-6,-7,-22,-20,12,34,-15,-6
1472133333427547,2,-19,50,34,21,-4,2,9
1472133333449588,-10,-24,-27,-71,-91,-22,-29,-7
1472133333449588,0,-14,-5,6,-5,-8,30,-4
1472133333450586,-1,23,-2,-33,22,9,-46,-12
1472133333450586,-3,17,2,33,43,14,31,10
1472133333463645,0,-5,9,-3,-26,-7,-12,-8
1472133333463645,2,-11,-4,-31,-44,-24,6,4
1472133333464652,-13,-20,-9,-28,-45,-14,-22,-11
1472133333464652,22,15,-1,16,117,36,-3,-9
1472133333486668,-11,-3,7,57,77,30,18,12
1472133333486668,-2,-39,3,-9,-21,-36,-1,-3
1472133333487636,7,-6,-8,21,21,3,10,-1
1472133333487636,-5,-16,-13,-26,-65,-19,-4,9
1472133333509657,3,25,-1,6,-45,-19,-18,-25
1472133333509657,-2,-15,-13,0,22,1,6,-4
1472133333510657,-4,9,1,-2,1,-4,-6,5
1472133333510657,7,21,5,-19,4,6,5,6
1472133333523702,-1,14,6,25,-4,-6,-4,6
1472133333523702,1,36,-6,24,11,2,7,-4
1472133333524670,-1,16,18,-10,1,4,-7,-4
1472133333524670,-4,-2,-5,5,6,5,16,3
1472133333547226,-3,-16,-7,-7,-2,-1,4,1
1472133333547226,-2,-31,3,-20,-6,-6,-1,-2
1472133333548229,-9,6,-2,5,-2,3,-7,4
1472133333548229,6,7,-4,27,11,7,-7,-1
1472133333569765,-9,-9,2,-20,-20,-8,-1,-1
1472133333569765,-3,7,1,-21,-2,-2,-10,-6
1472133333569765,6,-9,-5,11,11,1,21,7
1472133333569765,0,2,7,9,-10,4,6,-2
1472133333583797,-2,-10,-13,-16,-19,-11,-5,1
1472133333583797,-6,0,5,13,10,0,6,-8
1472133333584766,-2,-8,-1,-27,4,-2,-1,-4
1472133333584766,-5,6,-3,7,-3,-1,-13,-5
1472133333606783,5,0,-5,2,0,-5,24,8
1472133333606783,1,-11,5,14,7,3,-10,0
1472133333607784,-8,-6,4,9,-11,5,23,6
1472133333607784,5,-3,9,-11,-5,-2,-2,-5
1472133333629835,0,-10,-11,17,14,-6,-41,-3
1472133333629835,6,-23,-7,-36,-1,-1,48,10
1472133333630805,-9,-38,-9,16,2,-7,-11,-12
1472133333630805,0,-7,-12,-8,-1,3,-5,12
1472133333644355,7,8,15,-4,-8,-4,42,-3
1472133333644355,-11,4,-3,-9,-7,-7,-12,-8
1472133333644856,7,22,-9,9,6,0,-31,-5
1472133333644856,10,23,-4,-10,1,-1,48,7
1472133333666879,-7,24,9,-3,-5,0,-34,-1
1472133333666879,6,21,-14,-14,-1,-6,19,2
1472133333667881,-8,8,5,7,-15,-6,-34,-8
1472133333667881,-10,-8,-2,-23,-13,-11,-23,-5
1472133333689900,5,3,8,16,9,5,6,-5
1472133333689900,-1,0,4,-29,-15,-2,-40,0
1472133333689900,-5,-2,3,21,8,16,-22,-17
1472133333689900,0,3,-5,-7,-18,-1,-75,-8
1472133333703914,9,-8,-7,-22,4,-1,97,11
1472133333703914,5,7,2,43,30,34,-52,10
1472133333704915,-2,-21,-14,-24,-43,-20,-65,-18
1472133333704915,-10,-11,-3,-15,31,14,-45,-26
1472133333728935,1,-28,-2,-117,-82,108,71,58
1472133333728935,-1,-37,-2,-118,110,98,-25,-41
1472133333728935,-11,-42,10,-128,-88,23,2,28
1472133333728935,6,27,1,-28,92,81,5,-8
1472133333749972,2,45,-2,90,6,-108,-52,-26
1472133333749972,0,52,2,127,13,-81,24,-10
1472133333750473,12,29,10,127,-66,-123,13,6
1472133333750473,-11,-9,-9,127,98,-128,6,-15
1472133333763552,2,-6,-9,127,-53,-69,-21,2
1472133333763552,-5,4,-5,120,-42,-93,7,6
1472133333771558,10,-3,-8,-38,107,-6,32,-3
1472133333771558,-12,-13,-6,-105,-115,-48,-5,3
1472133333787571,0,-20,16,-128,46,70,-16,-9
1472133333787571,-3,-13,-2,-128,-18,32,11,10
1472133333787571,-4,-1,2,-110,42,35,-3,1
1472133333787571,-11,-8,9,-72,-96,29,50,16
1472133333809592,-4,18,-7,-91,-3,-28,-33,-11
1472133333809592,-2,4,13,-20,16,-5,-11,-5
1472133333810595,-7,-1,-7,-6,-32,44,9,-9
1472133333810595,8,-7,3,0,-28,61,-3,12
1472133333831613,-8,-1,-20,2,33,16,-35,-22
1472133333831613,3,27,27,26,-4,55,21,15
1472133333832613,-4,-8,-8,20,48,20,-32,6
1472133333832613,5,21,-1,-12,-16,25,58,5
1472133333847131,-6,-32,-1,7,-19,-10,-5,1
1472133333847131,6,32,-7,8,12,-17,-14,-7
1472133333848132,9,5,-20,-4,7,23,22,-2
1472133333848132,-6,-7,32,28,14,-5,-21,4
1472133333869157,2,10,4,-2,-24,-4,10,1
1472133333869157,7,-9,-17,-11,-39,-28,6,-1
1472133333870157,7,29,1,12,89,-24,-6,-2
1472133333870157,4,8,-22,3,-1,25,20,9
1472133333883169,3,-30,15,13,41,1,1,8
1472133333883169,-7,7,9,-6,-48,-13,-37,-9
1472133333891177,-20,2,-2,-16,-13,3,30,3
1472133333891177,17,-6,-9,14,6,-12,-13,0
1472133333907190,-5,0,2,8,15,-6,-11,1
1472133333907190,1,-29,-33,-24,-42,-6,3,-7
1472133333908192,0,-13,6,-10,2,10,10,1
1472133333908192,0,10,19,34,83,19,12,2
1472133333929211,-7,29,6,13,-19,-7,-18,2
1472133333929211,1,10,11,-53,19,14,12,16
1472133333930211,8,33,8,33,-70,-25,-16,-2
1472133333930211,-7,-14,-18,-5,-25,-9,-34,-5
1472133333952235,9,10,16,12,0,-11,18,-5
1472133333952235,-4,-42,-12,-11,-8,24,12,3
1472133333953235,-7,14,4,5,34,0,6,-3
1472133333953235,-2,-2,7,2,-22,-38,-8,-1
1472133333966249,3,-23,-30,-13,-2,31,9,-2
1472133333966249,-7,-13,-2,35,54,7,17,0
1472133333967251,8,-14,23,5,-41,-13,-12,8
1472133333967251,-8,-8,-2,-5,63,27,4,-1
1472133333989270,-9,-11,-7,11,-49,-12,0,0
1472133333989270,-2,1,21,-22,-33,-14,5,1
1472133333990272,6,13,3,20,45,20,14,-5
1472133333990272,-8,-20,4,45,-34,-29,5,-3
1472133334003284,-6,-15,-26,-28,-1,8,-11,-1
1472133334003284,3,-11,-17,7,-6,-9,-15,-8
1472133334011291,-3,1,15,-14,-44,-23,6,-2
1472133334011291,5,2,-23,-55,-37,-21,-47,-23
1472133334026305,8,-7,20,30,112,80,34,21
1472133334026305,-22,14,7,13,-32,-39,31,10
1472133334027308,-1,-26,-4,-3,26,29,-62,-17
1472133334027308,6,9,-5,1,-62,-13,70,27
1472133334050357,3,16,-10,-8,10,-15,-22,-15
1472133334050357,-2,-9,4,-33,-23,1,17,6
1472133334050845,-9,-5,2,41,-67,-18,-46,-17
1472133334050845,-3,17,3,-22,49,5,-24,-15
1472133334063403,6,9,8,30,54,27,-35,10
1472133334063403,-1,0,6,3,-1,-3,-14,0
1472133334071410,4,-7,-18,-46,-6,3,76,4
1472133334071410,-5,1,4,27,1,0,15,-6
1472133334086422,1,0,2,28,80,26,-32,-5
1472133334086422,-2,0,2,2,-70,-14,-80,-10
1472133334087393,0,-4,-4,15,23,22,54,12
1472133334087393,0,-7,2,-6,-18,1,7,-8
1472133334109413,3,5,4,21,22,62,82,18
1472133334109413,-9,-8,3,-1,-2,125,11,8
1472133334110414,-3,-7,-4,-11,-11,110,-24,-7
1472133334110414,2,-9,-2,-13,-32,-56,-19,0
1472133334123424,-8,-3,-4,-5,-47,-121,-81,-31
1472133334123424,11,0,-16,-7,41,-118,-64,-17
1472133334131433,8,-9,-2,-10,0,-93,88,26
1472133334131433,-5,3,5,15,45,-10,69,-5
1472133334146457,4,4,-6,-22,-42,-40,6,-8
1472133334146457,-5,6,-8,-3,14,-29,-82,6
1472133334147458,1,14,-3,6,24,-31,20,-12
1472133334147458,-2,3,2,10,7,-23,-61,-10
1472133334169544,-3,-6,-7,-25,-31,-32,127,23
1472133334169544,3,0,-5,-11,1,8,-44,-21
1472133334170513,-4,-5,7,45,19,27,11,0
1472133334170513,4,-16,-6,-24,3,38,35,16
1472133334183525,-11,1,-3,-9,-50,5,-46,-8
1472133334183525,-2,-5,-10,-2,20,24,35,7
1472133334191564,1,-1,9,-18,-14,-10,-54,-12
1472133334191564,11,-9,-15,-1,16,36,78,21
1472133334206577,-18,-9,7,0,-27,-1,-73,-11
1472133334206577,2,7,-4,5,13,-21,52,8
1472133334207546,11,14,-4,-3,6,23,25,15
1472133334207546,-7,6,0,4,11,31,-6,-7
1472133334229597,6,-3,1,4,32,0,62,22
1472133334229597,-1,-1,3,-18,-66,-9,36,3
1472133334230569,-14,-3,-23,-27,-6,-32,-6,-29
1472133334230569,5,13,8,47,21,31,-22,-5
1472133334252119,-2,-38,16,-24,-23,-25,-37,-6
1472133334252119,-3,-2,-22,23,65,51,3,-1
1472133334253106,-6,-29,20,-24,-32,-16,16,15
1472133334253106,2,10,-34,-18,-18,-7,-48,-11
1472133334266652,-5,11,-4,3,-28,-11,-24,-5
1472133334266652,4,-35,4,4,2,-5,46,10
1472133334266652,-6,22,11,-1,-10,-10,-44,-9
1472133334266652,2,-17,6,22,27,2,-8,-1
1472133334289673,-5,0,-12,32,38,26,-13,-6
1472133334289673,-5,-7,-9,-23,17,0,13,2
1472133334290676,9,13,4,-12,-45,-16,-4,4
1472133334290676,-6,27,6,-21,-5,-7,-23,0
1472133334311726,4,-23,-18,-10,-21,-9,17,-3
1472133334311726,0,6,25,25,-12,-8,15,-6
1472133334312698,4,-5,-2,1,15,1,-53,-4
1472133334312698,-13,-37,-2,19,-13,-11,-33,-14
1472133334326710,6,-13,-17,-25,1,11,20,5
1472133334326710,-9,17,39,13,-5,3,46,-1
1472133334326710,8,-22,-28,-10,8,-14,-9,17
1472133334326710,-6,-4,-16,-24,-23,-1,-62,-2
1472133334349734,8,16,29,31,8,9,58,13
1472133334349734,-11,-34,25,1,7,6,-16,-8
1472133334350733,-14,3,-19,6,20,1,8,2
1472133334350733,1,-18,38,7,-8,1,-17,-6
1472133334371757,1,13,-42,-13,-20,-7,-28,-6
1472133334371757,17,33,31,-36,-34,-12,53,21
1472133334372759,-7,3,-12,49,11,13,11,-3
1472133334372759,-4,-2,-36,-38,13,-7,-11,-8
1472133334386769,-17,26,22,-26,-21,-7,-19,3
1472133334386769,7,-17,-24,1,2,-16,-18,-2
1472133334386769,0,13,-3,-21,21,8,-24,-15
1472133334386769,5,-21,13,45,48,26,57,19
1472133334409791,-2,21,19,-14,-45,-20,-11,-7
1472133334409791,-7,20,-47,-11,16,13,-36,-19
1472133334410792,-7,-18,18,19,-23,-22,-32,-2
1472133334410792,-1,-3,-1,-19,29,2,31,2
1472133334431810,1,-9,3,-5,-3,1,-34,-4
1472133334431810,5,20,-4,-12,-18,-16,-12,6
1472133334432811,14,1,-17,8,36,22,47,22
1472133334432811,-2,13,21,7,-4,13,-3,-4
1472133334446828,-5,4,8,2,-20,-18,-43,0
1472133334446828,3,-3,-27,0,-3,-7,35,5
1472133334447328,1,8,10,6,-3,-8,-8,-11
1472133334447328,-2,-3,0,-9,17,25,-53,-5
1472133334469928,-12,-10,-7,0,-18,-14,72,-4
1472133334469928,-4,-7,14,-19,-34,-23,-72,-7
1472133334470853,-11,-25,-4,-22,35,9,20,-9
1472133334470853,3,9,-5,18,-30,-21,-26,-14
1472133334491872,1,-5,-5,-4,38,20,2,2
1472133334491872,-1,2,6,1,0,8,-2,-3
1472133334492873,2,-6,2,10,-8,-9,9,6
1472133334492873,-4,14,-9,-38,-34,-24,-57,-5
1472133334506885,13,0,-3,-4,10,15,44,-5
1472133334506885,0,-5,-3,29,34,9,-1,-10
1472133334506885,3,9,0,-4,-7,-5,-7,20
1472133334506885,-7,-4,5,-7,-32,-25,-10,-2
1472133334529906,-8,-14,-8,16,-6,10,-23,1
1472133334529906,8,6,6,3,14,-5,9,0
1472133334529906,1,1,3,-5,-7,10,7,6
1472133334529906,12,9,7,-23,-29,-14,44,9
1472133334552432,-2,-3,-23,5,30,-13,3,2
1472133334552432,-12,2,-4,-10,-5,22,-18,-10
1472133334552935,-6,6,15,26,0,-13,-19,8
1472133334552935,-3,-2,-8,-22,1,-2,-19,-7
1472133334565949,4,31,14,2,-1,4,-32,3
1472133334565949,6,-4,-8,15,12,4,98,-1
1472133334566950,6,13,2,2,-9,5,-24,-3
1472133334566950,-1,-12,4,15,7,24,-15,0
1472133334589970,4,16,9,-16,5,-2,32,16
1472133334589970,-4,-12,-8,24,-10,-5,-53,-17
1472133334589970,-1,-6,-3,-17,9,-8,43,12
1472133334589970,4,-3,-8,11,11,6,-4,-14
1472133334611990,-3,-14,4,-11,-9,3,-61,-15
1472133334611990,-1,-2,3,-6,-4,19,22,15
1472133334612992,4,0,-9,0,16,-9,25,-22
1472133334612992,1,-12,-1,7,-1,-15,22,9
1472133334626002,2,19,6,0,-47,-19,24,0
1472133334626002,-3,7,1,-13,39,9,-56,1
1472133334627006,8,3,-21,7,32,29,-25,5
1472133334627006,-10,3,29,-5,-13,-23,36,14
1472133334650044,-6,-8,-2,-8,-17,4,13,-2
1472133334650044,4,-34,-14,10,10,4,-20,-1
1472133334650544,-15,5,12,-29,-44,-6,-13,-26
1472133334650544,6,5,-26,3,5,-8,19,10
1472133334672093,-16,-5,16,-6,13,7,-38,-11
1472133334672093,1,1,26,-16,-21,-10,-16,2
1472133334673082,3,5,-28,14,37,-2,30,-1
1472133334673082,-4,-3,19,-34,-29,20,6,-2
1472133334686124,0,-21,-24,19,26,3,-13,0
1472133334686124,0,10,25,11,19,-1,-22,-7
1472133334687129,-11,-26,10,-8,-27,-12,-16,-8
1472133334687129,3,16,-22,16,8,-22,-6,2
1472133334709114,3,-1,11,-29,-9,-11,-19,-3
1472133334709114,-6,24,-11,-7,-5,33,40,2
1472133334710115,-17,-31,0,16,13,-4,-16,3
1472133334710115,2,-10,6,-26,-50,-15,-23,7
1472133334732167,0,-48,-37,4,81,16,-7,-4
1472133334732167,7,26,0,6,4,5,-12,12
1472133334733135,-19,-9,-19,-42,-65,-22,-2,-19
1472133334733135,-1,11,-10,10,-2,19,-3,3
1472133334746686,7,6,33,-20,-2,-4,-5,-2
1472133334746686,13,31,-24,43,29,-5,63,4
1472133334747187,7,31,15,-43,-27,14,-6,4
1472133334747187,5,14,10,13,42,0,5,-3
1472133334769214,0,15,9,-19,-7,13,20,1
1472133334769214,-1,1,-4,30,-2,-13,-31,-10
1472133334770239,6,13,19,-1,-2,-4,-7,-5
1472133334770239,4,21,-2,-5,-14,-4,20,-6
1472133334792235,3,-4,-1,49,-15,-12,8,3
1472133334792235,-5,-26,5,-46,3,-4,-13,-4
1472133334793238,-3,-10,0,50,16,7,-15,8
1472133334793238,4,-17,16,22,-4,-5,16,5
1472133334806251,-4,-4,-28,14,1,6,15,4
1472133334806251,1,-7,-10,-4,-10,-11,-27,-7
1472133334814253,4,-6,-11,-3,-14,4,8,8
1472133334814253,-5,4,-13,-34,-3,1,17,-10
1472133334829268,-4,12,4,45,8,1,-7,-9
1472133334829268,-7,-25,11,-12,-23,-2,14,8
1472133334830269,10,8,8,9,-6,-14,-31,2
1472133334830269,1,0,-16,-5,34,32,7,3
1472133334852309,5,12,11,-6,-8,-11,-6,-5
1472133334852309,-11,-9,1,-8,-11,-5,6,-3
1472133334853296,5,-14,-8,-15,-20,-3,-21,-3
1472133334853296,-8,-25,0,-12,-33,-15,-43,-4
1472133334866324,-4,16,15,19,41,17,7,-4
1472133334866324,4,6,-15,-20,-14,-6,-11,7
1472133334874331,-2,17,-1,10,6,-13,3,-7
1472133334874331,-6,5,15,-10,-36,-9,-24,-7
1472133334889345,6,4,-21,-16,11,6,-36,-5
1472133334889345,-9,-10,12,1,34,50,9,1
1472133334890346,-18,-23,-7,35,-47,-34,6,16
1472133334890346,6,5,-9,-26,71,6,10,-8
1472133334912366,-3,-10,-3,27,-79,-26,-13,-2
1472133334912366,-2,-6,-12,-11,-14,-28,-9,-6
1472133334913367,4,0,5,-7,39,35,7,5
1472133334913367,-1,-9,4,-4,-41,-16,15,17
1472133334925377,-6,-13,-15,-21,2,-7,18,-7
1472133334925377,1,3,3,3,-21,-12,13,-2
1472133334934384,0,-2,-1,1,3,18,-56,-2
1472133334934384,-7,-5,5,14,11,-8,0,-17
1472133334949901,4,-2,4,-10,14,12,-29,-10
1472133334949901,1,0,-4,0,-4,-13,25,13
1472133334950402,-1,0,5,-1,-5,-3,-31,-7
1472133334950402,-2,-3,-17,21,3,0,15,0
1472133334972424,0,-7,6,13,20,3,-41,5
1472133334972424,10,11,8,-6,7,6,23,-6
1472133334972424,-9,1,5,9,9,-3,26,0
1472133334972424,2,-1,4,3,-11,3,-8,-1
1472133334985437,-7,0,2,-18,-18,-14,-21,-9
1472133334985437,1,-2,-11,11,0,-8,34,2
1472133334993445,4,-4,-3,-21,-1,5,7,3
1472133334993445,-6,2,5,29,10,-5,-15,0
1472133335009458,-1,3,0,-31,-11,-11,-56,-12
1472133335009458,-6,-9,1,22,-1,2,15,-8
1472133335010460,-8,-2,-2,-1,13,15,33,-13
1472133335010460,-1,2,5,-4,5,1,6,10
1472133335032478,1,-3,-2,-6,-14,-20,-39,7
1472133335032478,-2,9,-5,-8,-5,6,62,11
1472133335032478,11,1,-1,0,0,-8,0,15
1472133335032478,-18,-10,5,2,-4,-3,-26,-21
1472133335046498,-6,-1,5,3,-5,-1,-38,-6
1472133335046498,-2,-7,-11,-8,-4,5,0,-11
1472133335054505,3,1,3,-6,13,2,20,3
1472133335054505,5,0,-11,-9,-7,-3,-2,20
1472133335068523,-2,3,3,-2,-18,-2,37,-6
1472133335068523,-6,-9,0,0,15,-5,-84,-17
1472133335069523,13,9,0,-11,6,2,81,7
1472133335069523,-5,-6,2,-5,-1,-15,-58,-9
1472133335092543,8,6,1,15,21,23,62,11
1472133335092543,-12,1,8,-3,-22,-6,-40,5
1472133335093545,-7,-2,-17,-11,21,1,-32,-26
1472133335093545,0,-4,5,11,35,25,35,-11
1472133335105554,1,-4,2,-9,-20,-27,41,17
1472133335105554,-2,-11,-6,-14,-35,1,36,-13
1472133335114563,-3,6,-4,11,-9,-23,-34,-21
1472133335114563,-3,3,0,-18,-7,-8,3,-3
1472133335128575,-3,-1,3,24,14,46,-3,-12
1472133335128575,5,0,-9,-9,3,-25,56,26
1472133335129577,-6,-6,6,-12,-28,-19,-128,-7
1472133335129577,-4,7,-12,-14,-33,-14,-19,-19
1472133335152114,-1,-2,-12,24,28,0,80,8
1472133335152114,-3,-1,29,-9,-30,17,-74,-7
1472133335153101,-1,-6,-6,7,25,17,28,19
1472133335153101,-4,7,16,-35,-87,5,16,15
1472133335174216,3,-6,-18,-21,23,6,-19,-7
1472133335174216,5,1,-10,24,54,-13,-21,5
1472133335175217,-8,-2,7,30,2,-14,19,0
1472133335175217,4,-10,-8,24,-5,22,37,8
1472133335189230,-1,-10,-1,-41,-30,-32,-9,-8
1472133335189230,7,-2,-7,-6,-31,11,48,0
1472133335189230,-4,1,-9,-23,13,2,15,10
1472133335189230,3,-10,-2,22,10,5,52,17
1472133335212251,2,2,9,-15,0,3,-28,-12
1472133335212251,-3,17,-12,30,40,-23,-13,0
1472133335213253,-5,-28,0,-7,-15,16,-22,-12
1472133335213253,6,6,-12,4,32,0,18,11
1472133335234270,0,9,15,34,11,8,26,20
1472133335234270,-13,-27,-5,-49,-28,-19,-50,-29
1472133335236272,11,19,7,19,-24,6,17,2
1472133335236272,-14,-48,-25,-12,1,-10,-28,-5
1472133335248300,-5,15,-8,-49,19,34,8,14
1472133335248300,10,-2,17,17,4,-15,-16,2
1472133335256309,-6,7,0,-9,-26,9,11,-7
1472133335256309,5,-11,2,56,8,-8,-8,-4
1472133335271801,2,11,-13,-24,-15,-13,-19,0
1472133335271801,-2,2,3,13,0,-5,-13,-3
1472133335273803,3,-12,-3,-23,-4,0,23,9
1472133335273803,5,28,6,-8,14,-5,-31,-6
1472133335294824,-6,-17,0,5,-14,-5,-31,-12
1472133335294824,4,2,-6,8,4,12,1,16
1472133335295822,2,4,0,15,3,-11,16,-9
1472133335295822,-2,-4,9,12,-10,3,-5,16
1472133335309835,-4,8,-11,-24,6,6,14,-6
1472133335309835,-2,-6,9,15,29,13,-12,-3
1472133335316872,-4,4,8,-8,-25,-24,-19,2
1472133335316872,4,16,-16,-40,2,5,-13,-5
1472133335331887,3,-6,-1,32,25,7,30,-3
1472133335331887,2,6,5,-1,-25,-5,1,12
1472133335333896,-3,-13,-20,-2,22,4,-14,-4
1472133335333896,2,5,7,-2,-17,-12,-14,-6
1472133335354912,7,-8,-4,-8,-23,-10,7,7
1472133335354912,-12,6,12,-4,30,27,-25,-7
1472133335356429,5,-1,6,23,-9,-14,21,5
1472133335356429,3,-10,1,-9,21,12,-3,-6
1472133335368601,-2,-3,-4,-9,-40,-15,11,7
1472133335368601,-2,-3,-5,10,-25,-24,-44,-10
1472133335377578,3,-6,-4,-20,25,23,29,1
1472133335377578,-8,35,10,24,-9,-15,26,5
1472133335391590,0,11,-7,-18,15,-9,-27,-8
1472133335391590,4,3,-3,-7,-17,-9,13,14
1472133335399597,2,7,2,4,-16,6,-15,-22
1472133335399597,2,-3,-7,-16,32,9,2,-4
1472133335414643,-3,-8,6,22,25,-7,-42,-1
1472133335414643,-5,-6,0,-7,5,6,38,11
1472133335416615,-1,-6,-12,23,3,-16,-16,0
1472133335416615,3,-7,-1,-45,8,8,-7,-2
1472133335428623,-4,-5,15,30,1,0,-13,-2
1472133335428623,1,-3,-11,-39,-12,-1,20,8
1472133335437632,-4,3,6,7,0,-5,-37,-5
1472133335437632,-2,4,-3,24,-9,-5,-19,-9
1472133335452151,2,2,0,-12,-21,-1,36,16
1472133335452151,-3,-11,-10,0,27,9,-42,-20
1472133335454150,-2,1,12,-19,-5,2,19,5
1472133335454150,-3,-8,-7,26,3,2,-6,18
1472133335474187,-5,-4,3,-2,-5,-1,17,-16
1472133335474187,0,-8,0,12,-3,-7,-18,-5
1472133335476174,-4,16,0,-11,-3,6,-36,-4
1472133335476174,3,-11,-7,-10,-3,-7,28,6
1472133335488217,-6,-7,3,7,0,-6,-74,-9
1472133335488217,-6,-7,1,3,-21,1,-19,-14
1472133335497193,3,4,6,-5,17,10,33,-2
1472133335497193,-3,3,-3,-1,9,-1,-3,-28
1472133335511205,-1,-4,0,-4,-54,-2,91,7
1472133335511205,1,1,-3,-2,46,18,14,-16
1472133335519245,8,6,-4,14,12,13,36,22
1472133335519245,0,3,0,2,0,-18,34,9
1472133335534230,-1,-2,-8,-5,-11,-2,-58,-5
1472133335534230,2,-5,-6,-16,-27,-17,-44,7
1472133335536228,-7,-4,4,0,13,13,0,3
1472133335536228,6,-8,0,-1,-8,8,-14,21
1472133335548777,-7,-2,0,1,-3,-12,-11,2
1472133335548777,0,4,-7,-4,-2,1,16,9
1472133335556799,2,-7,-1,10,3,1,-61,-6
1472133335556799,-7,-1,-5,-8,10,1,-19,-4
1472133335571997,1,-4,2,-1,-8,-18,9,8
1472133335571997,-3,3,-6,11,9,14,50,-15
1472133335573984,1,-8,2,-14,-15,-2,-15,2
1472133335573984,1,0,9,6,-18,-15,-40,-4
1472133335595007,8,-5,-3,1,41,17,62,-1
1472133335595007,1,-6,5,9,-13,16,48,9
1472133335596004,3,-3,-9,-12,5,0,78,12
1472133335596004,1,-1,-2,-7,6,-10,-75,-5
1472133335608014,-20,10,6,0,-40,-3,13,-16
1472133335608014,10,17,-12,6,9,-3,83,18
1472133335617023,-3,-1,1,-21,-24,0,-74,-12
1472133335617023,-15,4,8,-2,4,2,-4,-33
1472133335632037,6,-6,-1,43,23,-6,-11,4
1472133335632037,1,-8,-8,-28,-12,13,-50,-6
1472133335634053,-14,1,0,-7,-30,-33,50,3
1472133335634053,8,0,-14,-4,21,28,28,-2
1472133335655075,-4,-8,4,-5,3,-6,15,3
1472133335655075,-10,-18,8,14,-28,11,-33,6
1472133335656577,-1,-5,-8,6,19,-35,-102,-26
1472133335656577,1,-7,-6,-23,-39,-9,116,6
1472133335668593,-3,4,8,-4,33,29,-63,-17
1472133335668593,-3,1,9,50,17,-32,-23,4
1472133335677600,6,-7,-9,-6,20,34,17,-13
1472133335677600,-8,6,-2,14,2,-14,-35,3
1472133335690624,1,4,-11,-25,5,8,-27,-9
1472133335690624,-3,-31,7,-9,-46,-14,36,-1
1472133335699620,1,7,5,12,23,-1,19,-4
1472133335699620,1,-2,2,19,-27,2,-19,-4
1472133335714647,0,-4,-4,-20,0,-4,-18,1
1472133335714647,7,22,8,-3,-1,-5,-30,-4
1472133335716637,-16,2,18,-20,-27,18,23,6
1472133335716637,9,27,-14,35,54,1,-13,11
1472133335728660,-7,5,-4,-14,2,6,20,5
1472133335728660,-6,8,5,9,13,-14,1,-2
1472133335737653,5,-8,4,-42,-28,-10,-16,5
1472133335737653,0,5,-16,31,9,3,1,-6
1472133335752206,-3,-14,-7,-17,8,-2,8,1
1472133335752206,8,41,9,6,-3,0,-7,-4
1472133335754206,-15,4,-38,-11,36,1,-5,10
1472133335754206,-5,-21,-10,-34,-20,3,-6,-10
1472133335774774,6,0,-11,14,-24,-15,-7,10
1472133335774774,-3,-8,0,-13,-4,2,7,3
1472133335775743,10,-14,5,5,-11,-6,-2,-4
1472133335775743,-5,-4,0,-22,-31,-11,-10,0
1472133335788752,-5,9,-2,14,46,19,6,3
1472133335788752,-3,6,3,-19,-9,-10,-22,-7
1472133335796794,3,22,-2,40,11,-7,-11,-1
1472133335796794,-9,2,8,-19,-3,8,8,9
1472133335811804,7,10,15,-9,-43,-16,10,-11
1472133335811804,-5,-11,-22,26,35,24,-10,2
1472133335813776,2,-6,7,-13,32,1,-14,-4
1472133335813776,6,-3,0,0,13,-9,31,5
1472133335834796,7,-5,0,-3,-18,0,-9,7
1472133335834796,-3,-11,0,-21,-31,-12,-10,-7
1472133335835796,-1,-7,-8,-15,-12,-6,-28,-10
1472133335835796,-3,-8,11,45,12,-6,-4,11
1472133335848810,-10,-14,14,18,0,8,10,-2
1472133335848810,0,-9,-13,-39,-22,-18,38,9
1472133335857318,5,-4,1,1,-24,-2,15,9
1472133335857318,-9,-5,7,-2,14,23,-6,1
1472133335870836,6,-3,2,12,-9,-20,-34,-12
1472133335870836,-3,2,-3,4,2,3,12,-4
1472133335879845,-4,-2,2,-13,-7,-9,-13,2
1472133335879845,3,-8,6,19,6,5,19,9
1472133335894858,-7,-3,-9,-18,-25,4,24,-1
1472133335894858,-2,-5,9,14,27,-2,-23,-10
1472133335895859,0,-1,-4,8,-12,5,24,-2
1472133335895859,6,-1,5,-17,-1,0,-10,-1
1472133335907869,2,12,-8,7,3,-5,3,3
1472133335907869,0,-6,-4,-14,-2,-4,-16,-8
1472133335916878,2,9,-6,11,11,-4,-18,10
1472133335916878,-8,-5,8,-3,-9,5,-2,-14
1472133335931891,-1,0,-1,-3,1,-5,-6,5
1472133335931891,3,-1,-10,-12,6,1,-15,-1
1472133335937897,-4,-9,-4,26,9,3,-41,-5
1472133335937897,3,2,-1,-15,-9,-4,41,18
1472133335954915,4,-7,-1,-11,-3,2,-4,0
1472133335954915,-2,2,-1,0,10,5,-37,-1
1472133335956418,6,4,3,7,-8,1,37,25
1472133335956418,-8,5,1,-16,-13,-2,-16,-13
1472133335968671,-9,-4,-3,5,8,2,4,-13
1472133335968671,0,3,-5,3,-2,0,-15,1
1472133335977653,5,3,4,2,-14,-9,73,11
1472133335977653,2,3,1,4,19,20,30,4
1472133335990678,2,3,-2,1,0,9,-12,-8
1472133335990678,5,7,-2,6,12,-8,64,7
1472133335999672,-7,2,0,-4,-14,8,30,-3
1472133335999672,-4,-3,-10,-8,0,-12,6,-2
1472133336014700,4,3,-4,2,3,4,-9,-17
1472133336014700,-2,5,3,4,-14,-20,17,-5
1472133336016686,-7,-5,-1,-15,-2,1,-24,-13
1472133336016686,5,-1,-4,-6,-25,2,22,2
1472133336028697,0,-1,1,13,46,31,8,13
1472133336028697,-5,-2,6,18,7,6,23,4
1472133336037707,-4,-2,-1,4,-5,-15,-27,-6
1472133336037707,-3,-5,-5,-14,-22,-11,-64,-14
1472133336051727,3,-2,2,-12,-20,-17,-37,7
1472133336051727,7,0,-6,-9,4,14,87,18
1472133336058765,-9,-7,5,10,2,-1,5,-33
1472133336058765,2,-2,5,9,14,11,-54,11
1472133336074782,-6,-5,3,-2,-20,-3,32,9
1472133336074782,-4,0,-9,-3,27,-13,-47,-4
1472133336075790,1,-5,-6,-4,-20,-7,50,2
1472133336075790,2,2,0,-10,-5,-12,-12,-9
1472133336096799,-8,-4,1,22,30,26,-14,14
1472133336096799,-4,-5,5,-5,-6,-4,-108,-26
1472133336098801,8,0,9,1,3,2,42,17
1472133336098801,-5,-2,-2,-7,-16,-11,30,-4
1472133336111812,8,1,-13,-21,-22,-18,8,2
1472133336111812,-5,0,-1,-20,-25,4,-45,-8
1472133336117819,2,3,4,34,65,17,-54,-3
1472133336117819,2,0,-8,-18,-12,4,28,-2
1472133336134835,-6,2,6,15,31,1,-4,-8
1472133336134835,6,0,-7,-6,-25,-15,28,5
1472133336135835,-6,-2,-1,-33,-25,-4,-6,-4
1472133336135835,1,2,-3,28,11,12,8,-6
1472133336157861,3,-3,-7,-6,1,-24,13,-2
1472133336157861,-7,-7,4,-6,-15,-4,68,9
1472133336160027,5,7,-15,-1,8,12,-23,0
1472133336160027,-4,-2,17,12,25,22,-28,-8
1472133336171070,-17,-2,-1,9,-17,0,3,-15
1472133336171070,7,10,-4,2,9,-7,40,7
1472133336178067,-8,-12,8,-1,-25,0,-9,5
1472133336178067,-5,-3,-11,-7,-2,-11,-4,0
1472133336195059,11,-4,6,30,-29,-4,-35,-6
1472133336195059,-4,5,-10,-36,9,3,-23,6
1472133336196061,-1,-8,3,21,7,-4,-27,-6
1472133336196061,-2,-7,32,-6,0,-5,8,3
1472133336217110,1,0,-3,11,-25,-6,6,12
1472133336217110,2,9,-1,-6,6,-2,-16,-3
1472133336219081,1,0,-23,6,-4,-3,-32,-4
1472133336219081,0,-20,10,3,-19,-5,37,7
1472133336231122,6,15,20,-5,25,-6,11,2
1472133336231122,-8,-21,-16,-15,-5,15,-37,-9
1472133336240100,3,9,1,-10,6,8,49,8
1472133336240100,-2,-18,-1,31,-7,-14,0,-4
1472133336255119,-1,3,-14,-4,9,6,14,4
1472133336255119,8,6,19,15,-8,3,-26,-5
1472133336256621,-4,1,-2,-29,9,-1,19,2
1472133336256621,5,7,-7,0,8,-5,-27,2
1472133336276644,-5,-15,2,-25,-9,-2,26,7
1472133336276644,0,-6,1,15,-18,-5,-23,-3
1472133336278647,-6,-25,-7,-7,-2,3,-13,-4
1472133336278647,5,16,5,-17,-16,-6,-5,1
1472133336290657,-7,-29,-13,10,30,3,-15,0
1472133336290657,-3,-5,0,-37,-11,8,-3,1
1472133336299665,1,6,6,44,2,-21,16,2
1472133336299665,-1,3,-21,7,39,33,-2,-6
1472133336314679,-7,8,-14,-52,10,-26,-3,-3
1472133336314679,-9,-2,11,20,-50,17,1,1
1472133336315681,9,14,8,1,42,-1,-7,-5
1472133336315681,-5,9,-16,17,34,14,-8,1
1472133336337698,-2,4,1,-53,-51,-4,-4,-2
1472133336337698,1,17,-6,43,26,-4,-36,-5
1472133336338699,5,1,-7,-33,-60,-27,-22,-12
1472133336338699,10,15,-12,-37,75,47,-12,-10
1472133336351250,-1,-9,10,57,-4,18,22,11
1472133336351250,-11,-5,1,0,-50,-40,-6,-6
1472133336359760,0,6,0,2,-7,37,20,17
1472133336359760,-3,-11,-2,-27,-66,-53,14,-2
1472133336374774,1,5,-9,-12,3,4,-28,-26
1472133336374774,-7,-9,-9,-3,-17,11,28,-4
1472133336375774,-2,-5,7,10,58,-7,13,10
1472133336375774,2,-2,1,-4,-49,-19,-38,5
1472133336397816,5,7,11,35,50,40,45,19
1472133336397816,3,-9,5,5,-19,-34,17,4
1472133336398797,-4,1,-12,-31,-14,-3,-39,-17
1472133336398797,-3,-3,2,-2,-4,-10,-29,-13
1472133336410809,6,2,-5,-5,-19,-19,61,15
1472133336410809,3,-3,-1,-12,37,18,-16,-7
1472133336419819,-4,-2,-2,19,-9,5,-12,7
1472133336419819,4,0,5,14,8,-3,-3,-3
1472133336434828,-6,4,-3,-14,-21,-11,-23,0
1472133336434828,0,-3,-1,2,31,20,3,-5
1472133336435829,-6,-5,2,8,-6,-3,-2,5
1472133336435829,-3,-3,2,4,-16,-12,-4,-14
1472133336457356,7,6,-10,-10,-19,-3,29,9
1472133336457356,3,-2,-1,-1,50,0,-11,5
1472133336458857,-12,-3,6,0,-8,0,4,-20
1472133336458857,-1,-7,-3,-14,-28,-6,22,7
1472133336470904,6,0,3,29,20,1,-20,-17
1472133336470904,-2,-2,2,3,24,-3,-18,-3
1472133336479883,-1,2,-7,-17,23,-1,-6,-6
1472133336479883,-2,4,-3,0,-18,-4,11,5
1472133336494895,-6,-2,9,1,9,2,-23,-11
1472133336494895,-4,0,0,6,-11,10,-1,5
1472133336495895,0,1,-2,7,-2,-14,-76,1
1472133336495895,-8,-1,2,-3,-2,16,38,-6
1472133336516926,3,-4,2,-8,-36,-6,-4,2
1472133336516926,6,-5,-5,13,32,2,-10,-8
1472133336518928,2,0,0,-7,-21,2,5,4
1472133336518928,-4,-11,-6,1,5,6,63,7
1472133336530942,-5,-6,-2,0,5,-7,-66,-8
1472133336530942,0,5,1,-5,-12,6,31,1
1472133336539934,-2,-5,1,0,-16,-6,25,-3
1472133336539934,1,2,2,5,-6,8,-30,2
1472133336556456,-6,-3,-2,6,42,6,0,-7
1472133336556456,1,-4,2,-9,-27,-1,3,5
1472133336557957,-5,-6,-6,-11,-27,-10,15,-2
1472133336557957,9,3,-1,4,19,-14,-23,2
1472133336576984,-9,-3,2,-4,-11,-2,-56,-15
1472133336576984,0,3,8,21,24,45,-12,11
1472133336578985,1,8,-3,-2,36,-1,81,12
1472133336578985,-6,-2,-8,-5,-12,-5,-54,4
1472133336590994,1,3,1,-14,-34,-27,14,-3
1472133336590994,1,-1,-5,-6,-10,-3,5,-1
1472133336600004,2,1,7,6,-14,1,-53,-8
1472133336600004,-1,0,-2,2,21,5,25,7
1472133336615015,-1,-9,-1,-3,-5,4,-11,-4
1472133336615015,1,4,-14,-22,52,-42,26,-8
1472133336616018,-5,0,-1,-4,-32,37,-34,-3
1472133336616018,0,2,4,31,45,-10,26,2
1472133336637037,-2,3,-4,-22,-23,7,57,11
1472133336637037,-3,-3,2,-7,0,-3,-11,-14
1472133336639039,-1,-2,-5,11,2,-3,-23,-3
1472133336639039,-2,2,-6,-18,-16,1,-37,2
1472133336651065,3,0,3,25,31,11,1,12
1472133336651065,-7,-2,4,-10,15,-4,48,-2
1472133336660080,1,-2,5,-8,-44,3,-42,8
1472133336660080,-6,-11,3,6,2,-4,-1,-16
1472133336675094,5,3,-11,-14,-22,4,24,10
1472133336675094,-8,-8,-8,-17,-13,-22,-37,-8
1472133336676095,-1,-7,-7,3,26,4,1,-4
1472133336676095,0,-5,6,30,28,10,-9,10
1472133336697113,-1,-4,3,-6,9,-4,-25,0
1472133336697113,-3,9,0,3,-31,1,16,5
1472133336699115,-5,-3,-1,-12,-25,-13,25,-4
1472133336699115,-7,1,3,-9,-35,-5,-29,-20
1472133336711126,6,-7,3,11,19,2,33,0
1472133336711126,-16,2,-7,8,-35,20,-21,2
1472133336720134,4,1,7,-4,8,-1,15,3
1472133336720134,0,-9,-19,-5,-1,-8,-10,-2
1472133336735146,-2,19,6,-2,-22,8,-22,-4
1472133336735146,9,-10,-5,8,7,-21,31,3
1472133336736148,-7,7,-7,-19,11,13,8,-4
1472133336736148,7,0,19,24,32,-7,2,6
1472133336757176,3,-11,-3,-21,-31,-8,21,-2
1472133336757176,-1,25,11,7,6,17,-31,-1
1472133336759177,2,3,5,16,-21,-19,2,-6
1472133336759177,-9,-17,-33,-33,21,10,4,4
1472133336771193,0,9,14,-24,13,-13,-15,-3
1472133336771193,4,-14,-15,19,-16,-8,-10,1
1472133336780201,-4,2,5,23,-1,5,-6,-8
1472133336780201,4,2,16,17,-5,5,10,4
1472133336795216,-19,-5,-10,-10,-4,9,-7,0
1472133336795216,1,-6,4,-11,29,6,2,-3
1472133336796217,4,17,-6,-3,-11,-15,11,2
1472133336796217,2,6,3,-5,-26,-3,2,1
1472133336817240,-3,11,-17,13,5,-20,-7,-9
1472133336817240,-2,-6,3,-8,3,27,-3,-1
1472133336819238,-2,-8,4,8,19,-10,1,5
1472133336819238,4,9,9,-9,-18,-1,4,-6
1472133336831248,1,-11,-1,12,-8,-7,-8,0
1472133336831248,2,6,5,-30,-26,-4,-4,-3
1472133336839254,1,-6,-8,26,33,0,3,-3
1472133336839254,-4,8,13,-11,-6,1,-12,-6
1472133336854774,0,-7,-3,6,-5,-7,3,5
1472133336854774,1,-2,2,-1,-5,8,1,-2
1472133336856275,-3,-5,-9,-19,15,27,-23,0
1472133336856275,-3,3,-1,12,-20,-23,20,4
1472133336876850,1,1,-3,-19,10,14,-14,-5
1472133336876850,-1,-2,-4,16,-11,-27,-10,-1
1472133336878851,8,-7,5,-25,-13,-10,3,1
1472133336878851,-7,-6,-5,-1,22,19,1,-4
1472133336890861,7,-3,0,1,-10,-1,29,2
1472133336890861,-4,-5,-3,15,27,-10,-2,-2
1472133336899870,-2,-5,0,-7,5,-4,13,-3
1472133336899870,-3,2,-7,-9,-3,-10,2,1
1472133336914883,4,-5,2,4,17,7,-12,-2
1472133336914883,-1,-1,-1,-5,-24,7,1,4
1472133336915885,-1,-2,4,9,20,-5,-7,-3
1472133336915885,4,2,-9,-16,-5,0,-7,1
1472133336936902,-5,-4,1,7,3,-7,7,-3
1472133336936902,0,9,0,-10,-6,-5,-12,-5
1472133336938906,-3,-6,-10,-1,-9,2,-10,-4
1472133336938906,-1,-5,0,-5,-33,-1,-19,2
1472133336950922,4,3,2,4,37,-1,-5,-4
1472133336950922,-1,-2,-2,8,1,3,30,8
1472133336959961,-2,2,0,-2,0,-3,10,1
1472133336959961,-2,1,-7,-13,-40,-11,-10,-9
1472133336973974,-3,-2,-7,8,11,-4,-7,-3
1472133336973974,4,-3,-2,-7,-7,10,-19,0
1472133336980979,-6,1,4,-3,29,1,-4,-8
1472133336980979,23,5,-5,7,24,6,87,4
1472133336996994,-11,-2,-2,3,-1,8,4,14
1472133336996994,-1,-6,-1,-1,-4,-1,15,-2
1472133336998996,5,4,-1,-7,-6,-2,-12,-4
1472133336998996,-4,2,0,-2,-3,-6,-25,-1
1472133337011010,2,0,-2,-5,-17,-3,-5,-4
1472133337011010,4,0,-3,-2,10,-8,25,4
1472133337020015,-4,-5,2,0,-10,-1,8,2
1472133337020015,-9,-5,-1,-4,3,1,-24,-5
1472133337034029,4,-6,0,4,-1,-1,3,10
1472133337034029,-8,-4,0,-5,-9,-8,-67,-9
1472133337041034,2,-2,2,6,-5,-2,8,2
1472133337041034,-9,-3,2,1,-5,-2,-25,-7
1472133337057553,-5,-3,-4,-5,-22,-11,11,-5
1472133337057553,2,2,0,4,6,18,0,-1
1472133337059055,-2,-3,6,6,19,10,-11,1
1472133337059055,-6,-3,0,-4,-12,-4,-51,0
1472133337080170,2,2,-2,3,9,-16,7,-5
1472133337080170,-3,0,-2,-2,11,12,-10,0
1472133337081172,4,-1,-3,9,-2,2,14,-2
1472133337081172,-6,-2,1,-1,18,3,-10,0
1472133337094184,1,0,-3,-8,-27,-22,-24,-7
1472133337094184,1,0,-3,-9,-8,2,11,2
1472133337101190,-4,-2,0,11,13,17,8,3
1472133337101190,3,-4,5,4,15,-3,4,7
1472133337117206,4,4,-7,-21,-61,-14,0,-7
1472133337117206,7,-4,3,5,15,9,-14,4
1472133337119205,-4,-2,-5,11,-4,-15,3,-11
1472133337119205,-4,-3,-5,-16,2,2,-2,-5
1472133337140226,4,0,2,-2,-3,8,19,11
1472133337140226,1,-3,-3,2,-29,-8,-9,-5
1472133337141226,-15,2,-4,1,1,10,-1,2
1472133337141226,19,0,3,6,13,-8,2,4
1472133337154246,-5,0,0,-4,-10,5,-5,0
1472133337154246,-3,1,0,-3,1,-5,-3,-4
1472133337160479,-2,-3,3,-16,-19,-8,25,-1
1472133337160479,2,4,-5,6,-20,7,14,4
1472133337177493,-4,-1,3,4,7,8,-9,-2
1472133337177493,-5,-4,9,5,-1,-17,12,-5
1472133337178494,3,2,-4,-12,19,13,-12,2
1472133337178494,-1,3,5,9,2,6,40,6
1472133337199513,3,3,1,-1,19,5,-34,-4
1472133337199513,-7,-2,-3,2,-44,-14,10,3
1472133337201515,4,-2,2,-14,1,-9,-20,-7
1472133337201515,-10,-2,-10,-3,-10,2,15,1
1472133337214526,5,-3,-2,2,17,3,-25,-2
1472133337214526,7,6,2,19,10,10,17,1
1472133337220532,-7,3,-4,-18,-2,-8,11,7
1472133337220532,2,-7,1,16,-5,-7,-7,-4
1472133337237547,-4,2,-3,-6,-1,1,3,-2
1472133337237547,-2,-4,-4,-16,11,-4,-12,0
1472133337238548,3,2,1,16,-26,-7,-3,-2
1472133337238548,-1,-4,-3,-16,17,0,0,-3
1472133337259073,-6,1,12,-8,1,9,0,-2
1472133337259073,1,-5,-5,4,11,-2,9,1
1472133337261486,-5,-8,4,6,-22,-9,-11,-4
1472133337261486,-4,-2,-4,-1,-5,-2,-7,4
1472133337274496,1,-5,-6,-18,17,2,-2,0
1472133337274496,-3,-6,-8,-21,-11,-1,4,-5
1472133337280502,2,-9,-7,4,18,-9,-4,2
1472133337280502,2,4,9,-5,-3,5,-11,-6
1472133337297517,-6,-3,-2,25,-1,-4,-3,-2
1472133337297517,1,1,2,-8,1,7,-1,2
1472133337298518,-7,0,2,14,-3,6,-6,0
1472133337298518,-1,-1,-7,-11,-16,-10,6,0
1472133337319538,-2,2,-5,-11,47,2,8,-3
1472133337319538,-2,-2,6,28,-11,-2,-3,6
1472133337321540,4,3,-3,-15,-28,-12,-6,-4
1472133337321540,1,3,2,-6,15,15,8,-5
1472133337333552,-5,-5,3,14,-21,6,6,4
1472133337333552,-7,1,0,-16,4,-9,0,-4
1472133337342559,4,3,0,3,9,-3,-1,0
1472133337342559,-5,-2,1,4,-2,0,13,0
1472133337357580,0,0,-7,-2,-12,-7,-5,-4
1472133337357580,-2,-2,-2,8,10,4,-1,-4
1472133337359082,1,-2,-2,-16,-9,-2,-1,4
1472133337359082,-4,0,0,-4,-21,-6,-8,-1
1472133337379605,-4,-3,-1,3,18,3,1,-5
1472133337379605,0,2,0,3,9,-4,8,0
1472133337381607,-1,-2,2,0,-7,-4,-9,3
1472133337381607,-1,0,0,7,10,5,-9,-4
1472133337393619,0,-1,-1,-5,-15,-4,3,0
1472133337393619,-2,-4,-4,-1,7,1,-3,-3
1472133337402627,-11,-1,-4,-11,-13,-1,11,-3
1472133337402627,0,-2,0,10,-2,-12,-14,0
1472133337417640,0,1,4,5,11,11,1,-3
1472133337417640,0,0,0,-11,-6,-4,3,-3
1472133337418641,3,-2,-1,5,9,4,5,-1
1472133337418641,-1,0,-1,-5,-1,-3,6,-5
1472133337447175,0,1,-4,-4,-20,-15,-3,-2
1472133337447175,-1,1,-4,-5,-12,0,-4,-1
1472133337449176,0,4,-1,1,27,3,-3,-1
1472133337449176,1,-2,1,5,3,2,-5,1
1472133337453680,4,-2,-3,-3,-4,0,6,2
1472133337453680,-2,0,0,-1,1,1,-12,-7
1472133337462694,6,-4,3,0,-21,-4,-4,0
1472133337462694,-3,2,-5,-3,18,-2,5,-1
1472133337477708,2,1,-3,6,1,-1,-31,-4
1472133337477708,-18,-4,0,-1,-5,2,27,4
1472133337479709,2,-1,1,6,18,4,1,7
1472133337479709,-1,-3,-1,-4,-5,-2,4,-8
1472133337499728,-4,-4,-2,-7,-5,-3,-4,-2
1472133337499728,7,3,-4,-1,-14,-8,-11,-1
1472133337501729,0,-4,-5,-5,5,3,0,-2
1472133337501729,-7,3,-1,5,11,6,6,8
1472133337513741,-5,-4,2,4,-11,5,8,-2
1472133337513741,4,1,-1,-3,-6,-6,-8,-3
1472133337521747,0,1,-2,-8,5,-5,-6,-6
1472133337521747,1,-2,3,4,-7,1,-12,1
1472133337536762,-2,0,-4,1,-1,-12,-1,-4
1472133337536762,3,0,-3,-1,3,5,11,8
1472133337538764,0,0,-2,-3,-9,-3,0,-1
1472133337538764,2,-3,-4,-5,1,4,-9,0
1472133337559292,5,2,1,2,2,-2,0,-6
1472133337559292,-9,-1,0,6,10,3,-16,-4
1472133337561506,-2,-1,-1,3,-1,-1,0,2
1472133337561506,4,-1,-2,0,-13,-4,-4,-1
1472133337573514,1,0,-2,-5,3,1,5,7
1472133337573514,3,-4,4,6,10,0,-4,-6
1472133337582522,-4,2,-7,-3,-20,3,-1,-3
1472133337582522,-1,0,-2,-7,-1,-8,-7,-1
1472133337597535,5,1,-1,0,18,1,11,3
1472133337597535,-1,-2,0,-3,0,-9,-13,-7
1472133337598538,0,-1,3,3,15,15,20,1
1472133337598538,-3,-3,1,-3,-12,-1,-12,-3
1472133337619556,8,-4,-1,3,-8,-7,1,0
1472133337619556,-12,-1,-1,-5,0,-4,3,0
1472133337621558,5,0,-3,-3,-8,-6,-5,-4
1472133337621558,-7,-1,-4,-12,-15,-11,-3,0
1472133337633568,-1,-1,2,8,8,14,-4,-2
1472133337633568,4,0,3,2,13,1,6,2
1472133337642578,-1,0,1,-1,-5,2,-1,2
1472133337642578,-3,-5,-3,3,-3,-4,-1,1
1472133337657595,-7,1,-5,-5,-15,-6,0,-1
1472133337657595,8,-2,1,-8,-19,-2,4,-1
1472133337659098,-5,-4,-3,-1,14,-3,-1,-1
1472133337659098,4,2,-1,16,6,-1,2,-5
1472133337680120,-5,-3,-1,-4,-5,-2,2,-2
1472133337680120,2,-2,-1,-3,4,12,3,2
1472133337681123,-4,0,-2,-7,0,-9,-5,-1
1472133337681123,-3,2,1,1,-5,0,3,0
1472133337693132,-5,-8,-1,-5,-3,-1,2,2
1472133337693132,-4,-1,3,9,-3,-2,-4,1
1472133337702147,3,-2,-7,-9,-8,-3,-3,0
1472133337702147,-3,-2,0,-1,6,-1,6,0
1472133337717185,-2,1,-3,-4,-1,4,-2,-2
1472133337717185,6,2,-3,5,-9,-3,4,2
1472133337719183,0,-1,6,8,7,-4,-3,-6
1472133337719183,1,0,-7,-12,15,8,-9,-7
1472133337739208,0,-1,2,-5,-8,-5,-1,-2
1472133337739208,-3,-4,-4,11,6,0,-2,1
1472133337741177,2,0,0,1,-12,0,-3,2
1472133337741177,-4,-1,2,-2,-10,-6,-1,-2
1472133337762216,-3,0,-3,-7,6,1,6,3
1472133337762216,9,-3,-3,-5,-1,-2,-3,-6
1472133337764212,-11,0,-1,3,-11,-1,0,0
1472133337764212,-2,-5,-1,-1,2,-3,0,-1
1472133337777228,-1,2,-1,5,-1,0,-2,-2
1472133337777228,-8,-1,-3,-4,-1,-2,-4,-2
1472133337779227,-1,3,0,4,2,0,0,4
1472133337779227,-3,-4,1,-6,-2,1,-1,0
1472133337801265,0,0,1,4,0,0,-2,-2
1472133337801265,-3,-1,0,-4,-4,-1,-2,0
1472133337803247,1,-1,-3,1,0,-3,-1,-2
1472133337803247,-1,1,-2,0,1,0,1,-1
1472133337813258,-2,0,1,0,-5,-4,-2,-1
1472133337813258,-1,-2,-3,-4,2,-1,-1,-2
1472133337822264,-3,-1,0,0,-5,-3,-2,-2
1472133337822264,4,-1,-1,-4,1,6,4,1
1472133337837280,-4,-3,1,6,1,1,-1,0
1472133337837280,4,1,-1,-4,-2,-5,1,1
1472133337838279,3,-1,0,1,-1,7,-1,-4
1472133337838279,-1,1,-1,1,2,-7,-2,0
1472133337859805,0,-2,0,1,0,-2,-9,-6
1472133337859805,-1,0,0,-6,-4,1,-5,-1
1472133337861313,4,-2,-3,0,-9,-6,5,0
1472133337861313,1,1,-2,1,10,4,-1,-3
1472133337873354,2,-4,0,-2,-13,-5,-1,1
1472133337873354,-3,-1,-1,-2,10,-4,-4,-2
1472133337882331,-4,-2,-3,-4,-7,-7,-5,-2
1472133337882331,-11,-3,-3,-3,2,8,5,-3
1472133337896375,-1,-3,0,1,0,-8,-2,-2
1472133337896375,-3,0,-2,-4,-7,2,2,0
1472133337903381,0,-1,-3,-2,8,-1,-2,-1
1472133337903381,3,-4,0,1,-6,-1,-4,1
1472133337919395,-5,1,-1,0,-1,1,3,1
1472133337919395,1,0,-3,0,-1,2,1,-4
1472133337921397,-2,-3,1,2,3,0,1,-1
1472133337921397,-1,0,-1,-1,-11,-3,-1,-3
1472133337933391,2,-2,1,-2,4,2,-1,1
1472133337933391,-3,-1,-2,-1,-10,-3,1,2
1472133337942385,-1,-2,-4,-6,7,1,-2,0
1472133337942385,1,2,0,2,-11,-6,0,2
1472133337957406,-2,-2,-2,0,16,7,-3,0
1472133337957406,-2,-2,2,3,-5,-3,-2,1
1472133337958908,-6,-1,-4,-12,-5,-2,5,-1
1472133337958908,4,0,-2,-2,-4,-6,-3,-2
1472133337979431,-2,1,-4,2,6,7,-1,-3
1472133337979431,-3,1,1,-1,-9,-11,1,1
1472133337981433,1,0,0,0,11,7,-1,1
1472133337981433,0,-2,1,0,3,-11,-3,-2
1472133338002482,2,-1,1,1,-21,0,4,-2
1472133338002482,1,-5,-1,2,15,1,0,-2
1472133338003452,-12,-3,0,2,-5,1,1,-2
1472133338003452,3,2,1,-3,-1,2,-1,2
1472133338017464,-7,-1,0,10,-9,-5,0,0
1472133338017464,0,-3,-8,-15,12,3,-1,-3
1472133338018465,1,0,2,8,0,-2,-1,1
1472133338018465,-6,-4,0,-3,6,12,-1,1
1472133338039518,9,2,0,3,-1,-7,0,2
1472133338039518,-10,-1,-5,-28,-8,-1,2,-2
1472133338041526,9,-3,0,23,-4,-7,-6,-3
1472133338041526,-4,1,1,-6,2,5,1,2
1472133338062558,-2,-6,-1,-10,-13,-6,1,0
1472133338062558,0,0,2,-2,0,1,2,-1
1472133338063540,-2,0,-4,10,5,3,-3,-2
1472133338063540,0,-1,3,18,-10,-2,1,-4
1472133338077553,1,1,-6,-39,2,-1,-1,1
1472133338077553,0,-2,-2,30,11,0,-3,-3
1472133338078555,0,0,-1,-27,2,4,1,1
1472133338078555,-7,-2,0,2,-9,-6,-2,-2
1472133338099605,-4,1,-8,-16,11,2,-4,-4
1472133338099605,2,1,2,25,-14,-4,-1,1
1472133338105579,2,-2,-2,-8,-6,4,0,1
1472133338105579,2,-1,4,3,7,-3,-1,1
1472133338122593,-1,-1,2,-5,-1,3,-1,-4
1472133338122593,-2,-2,3,-1,2,3,-1,-1
1472133338123612,1,-2,5,7,-2,-4,0,-1
1472133338123612,-2,0,-3,-30,-12,-3,-3,-1
1472133338136605,0,0,-6,33,13,3,0,-1
1472133338136605,4,-2,2,-11,-3,-1,1,2
1472133338145119,2,-1,-1,-9,-4,-1,-3,-2
1472133338145119,-4,-2,1,-6,6,-1,1,0
1472133338160132,3,-1,-2,-3,-1,-3,-1,-2
1472133338160132,-4,-1,1,-1,-8,-1,0,-4
1472133338161231,-3,-4,3,17,-1,-4,-2,1
1472133338161231,4,-2,-9,1,11,3,0,-1
1472133338182251,1,-7,5,7,-6,0,-1,1
1472133338182251,-8,4,17,-17,-5,-2,-4,-1
1472133338184252,4,-3,-13,-7,-10,0,-1,0
1472133338184252,-6,-1,4,18,1,-8,0,-4
1472133338196262,-4,1,-7,9,-5,-4,2,-1
1472133338196262,1,-2,1,-22,-4,9,-1,0
1472133338203269,-3,3,-5,4,3,-5,0,-1
1472133338203269,5,0,-10,-15,1,2,-2,-2
1472133338219313,-5,1,2,9,3,0,-1,2
1472133338219313,2,0,22,4,-6,-6,-2,-5
1472133338221320,-4,0,-10,-4,3,2,0,-2
1472133338221320,1,-5,-19,-4,-2,-2,1,0
1472133338242334,-1,0,11,-13,-18,-5,0,-1
1472133338242334,-2,-2,-14,10,21,4,0,-1
1472133338243305,-3,0,19,-22,-12,-4,-2,-1
1472133338243305,-1,-1,-6,29,7,0,-1,-1
1472133338255819,0,1,12,8,3,-4,-4,-4
1472133338255819,0,-9,-48,-16,-4,4,1,1
1472133338264436,-2,2,23,-3,6,-5,0,-2
1472133338264436,-1,-1,5,4,-8,-1,0,-1
1472133338279481,-3,-4,-16,-1,-1,1,0,-1
1472133338279481,1,1,1,7,-6,-2,0,-2
1472133338281451,1,-3,-8,0,0,-2,0,3
1472133338281451,-1,2,-24,-24,-10,-5,-4,-3
1472133338302472,-3,2,12,2,6,3,-1,0
1472133338302472,0,4,8,2,-6,-5,-1,0
1472133338303473,0,-1,-2,2,-4,1,-2,-2
1472133338303473,0,2,21,5,0,-1,0,1
1472133338315484,-4,-10,-44,-19,-19,-8,-2,1
1472133338315484,-2,-5,-11,-9,10,5,-2,-5
1472133338324490,-4,3,20,8,2,0,1,1
1472133338324490,0,4,1,-4,-3,0,1,0
1472133338339517,1,-3,-5,2,4,0,0,-2
1472133338339517,-8,-15,-27,-17,-8,-11,-5,-2
1472133338341521,0,1,-38,-11,-1,10,1,-1
1472133338341521,1,1,58,12,2,-3,-1,-1
1472133338362005,0,-1,0,-8,-5,0,0,0
1472133338362005,-1,4,14,13,1,-2,2,2
1472133338363975,-4,1,-10,-10,-5,-7,-4,-3
1472133338363975,0,2,18,2,1,-2,-1,-1
1472133338375987,4,4,-15,0,8,8,1,-1
1472133338375987,1,1,31,6,1,-2,-2,1
1472133338384994,-2,0,-2,2,4,1,-2,-2
1472133338384994,0,-5,-59,-19,-4,0,0,-1
1472133338400007,-3,5,63,12,11,-1,-3,-2
1472133338400007,1,0,-18,3,-13,0,1,-1
1472133338401009,-3,3,-24,-12,-21,-8,0,-3
1472133338401009,-6,-15,31,-2,13,-4,-6,-3
1472133338422028,-10,-12,-42,-19,-4,9,-4,-2
1472133338422028,1,4,6,2,8,-1,3,2
1472133338424067,2,-5,-1,7,5,0,1,1
1472133338424067,0,1,1,4,-11,-2,-1,3
1472133338436053,2,5,-2,11,3,-6,0,-1
1472133338436053,-2,-5,1,-22,-8,-4,-3,-5
1472133338445048,-1,1,8,14,6,1,-4,0
1472133338445048,1,-7,-38,-8,-7,-1,2,-1
1472133338460068,0,1,19,0,-15,-5,-2,0
1472133338460068,3,12,25,7,21,3,-1,3
1472133338460569,-4,-15,-29,-2,-11,-1,2,0
1472133338460569,0,15,23,6,5,-1,1,-1
1472133338481936,1,-1,-9,0,4,3,1,-1
1472133338481936,-2,-9,-22,-2,-8,-4,-1,1
1472133338483924,5,6,20,-6,-4,-5,-2,-2
1472133338483924,-5,-14,-28,-5,-13,5,-3,-2
1472133338495950,-1,14,43,10,7,-6,0,-2
1472133338495950,0,12,-8,11,-2,3,0,2
1472133338504943,0,3,34,7,5,2,3,0
1472133338504943,1,3,-5,-10,-8,-2,-1,1
1472133338519988,0,-10,-14,-6,1,-1,-4,-3
1472133338519988,-2,-2,-6,-5,-6,-2,-2,-3
1472133338520958,-4,3,11,7,-5,-2,-1,0
1472133338520958,0,-6,-27,-11,7,-3,-2,-1
1472133338541978,0,1,5,1,0,-2,-1,1
1472133338541978,2,-2,14,11,7,7,2,0
1472133338543979,0,-8,-10,-2,8,2,3,2
1472133338543979,-3,-5,9,2,-2,-1,-1,-2
1472133338555998,-1,3,-11,-5,0,-2,1,-1
1472133338555998,-2,-2,-21,-5,-17,-9,-1,-4
1472133338565010,-1,-4,-15,-5,1,3,-2,0
1472133338565010,-4,5,23,-2,1,-1,-1,-1
1472133338580021,0,-4,-18,-3,14,4,-1,-2
1472133338580021,-1,-6,0,-1,1,3,0,0
1472133338581023,1,0,-10,1,0,-5,-3,1
1472133338581023,0,6,29,13,3,-2,-1,-2
1472133338602056,-1,-5,-13,-14,-11,-2,-4,0
1472133338602056,-3,-7,-9,-2,-2,-1,-2,-3
1472133338608049,-3,4,-5,1,3,-1,-3,-3
1472133338608049,-1,0,3,-4,1,0,0,-2
1472133338616069,1,-4,4,1,-3,5,2,1
1472133338616069,1,11,4,6,0,-1,1,0
1472133338625062,-1,-2,1,-8,-2,-4,-3,0
1472133338625062,1,-10,-12,4,-11,0,1,-1
1472133338640076,-3,-11,-14,-2,-2,-4,-2,-2
1472133338640076,-3,-1,9,-3,-17,-5,-2,-2
1472133338641077,-2,-6,-7,-3,8,2,-2,-3
1472133338641077,0,3,28,17,3,2,0,0
1472133338662107,-1,-2,-5,-11,7,2,2,1
1472133338662107,-3,-13,-2,0,-3,-4,0,1
1472133338664109,-2,-3,14,-6,-6,-4,-1,-3
1472133338664109,3,3,-1,0,-4,-4,-1,-3
1472133338676119,2,5,13,9,-5,-2,1,0
1472133338676119,-1,-1,-16,-10,7,1,-3,-1
1472133338685129,0,3,7,1,0,1,1,-2
1472133338685129,0,-3,-15,-9,2,0,1,0
1472133338699153,-3,3,2,1,-13,-3,-2,-1
1472133338699153,2,8,-8,-6,12,-3,-2,-2
1472133338706163,-1,-7,12,7,-8,4,-1,-1
1472133338706163,0,3,6,-5,-3,-2,-3,-1
1472133338722176,-2,-5,-29,-6,9,-2,1,-1
1472133338722176,-2,-11,12,16,-3,-1,1,4
1472133338724164,-2,9,-28,-16,-4,-2,-3,-1
1472133338724164,-4,0,4,4,-4,1,-1,-1
1472133338736173,0,6,5,-6,3,-1,-1,-1
1472133338736173,2,-4,-5,-4,2,1,-2,-3
1472133338745182,-2,-6,2,12,-4,-3,-1,-2
1472133338745182,-2,-5,-18,-15,3,1,1,0
1472133338759699,0,-1,16,5,-2,-3,-2,-1
1472133338759699,1,6,8,4,-1,1,0,0
1472133338760701,2,-1,4,-3,-3,-1,-1,3
1472133338760701,-1,2,-16,-4,-2,0,-3,-3
1472133338782099,0,1,8,6,2,2,1,-1
1472133338782099,-6,-3,22,0,-6,-1,-3,0
1472133338784102,0,-3,-37,-17,-4,-3,1,-2
1472133338784102,4,5,1,2,3,1,0,2
1472133338796100,-1,-3,3,0,-2,-2,-2,-1
1472133338796100,0,-1,-2,5,1,1,-1,-3
1472133338805109,-4,-8,-18,-10,1,1,1,0
1472133338805109,-2,-2,16,7,-4,-2,-3,3
1472133338820121,0,0,-9,-4,-6,-4,-3,-3
1472133338820121,-3,-1,-3,-3,2,0,-3,-7
1472133338821123,1,-1,13,2,0,0,0,3
1472133338821123,-4,-4,-15,-3,-2,2,3,-2
1472133338842143,4,3,20,8,-1,-1,1,8
1472133338842143,-3,-3,-29,-9,0,0,1,-5
1472133338844143,2,-2,8,-4,0,-2,-3,-2
1472133338844143,-1,1,-4,2,1,-2,-1,9
1472133338856163,0,-7,-20,-7,-4,-2,1,1
1472133338856163,1,2,1,-4,14,2,-3,0
1472133338865058,-5,0,8,11,-2,-3,0,-1
1472133338865058,2,0,-13,-8,-13,-1,-4,-4
1472133338879070,0,1,-2,2,10,-3,-3,-3
1472133338879070,0,-3,-9,-4,-4,3,7,2
1472133338886077,1,0,0,-5,-1,0,-3,0
1472133338886077,-1,-2,4,-1,1,0,-3,-4
1472133338902124,-4,0,3,-2,-10,-2,1,-2
1472133338902124,1,3,17,5,-3,-6,-3,2
1472133338904094,-6,-6,-18,-2,1,1,2,-1
1472133338904094,-3,0,-1,-6,-1,-5,-1,-6
1472133338916135,-2,2,1,-1,6,-1,-4,-2
1472133338916135,-1,-2,0,3,1,4,0,1
1472133338925112,-1,1,1,-2,4,2,2,0
1472133338925112,-2,1,13,15,1,-4,0,3
1472133338939156,0,-2,-1,-4,-2,3,-1,-3
1472133338939156,0,3,-1,-4,-4,-4,-1,-4
1472133338946184,-2,-3,0,-2,-5,0,-1,-2
1472133338946184,-2,-1,-1,-1,0,-2,0,-1
1472133338962191,2,-5,3,3,-2,1,-2,1
1472133338962191,-6,-1,-11,-3,-2,-3,-2,-1
1472133338964191,0,2,11,6,-10,0,-6,-3
1472133338964191,2,-4,-7,-10,4,-5,1,-1
1472133338984225,5,3,-2,2,7,0,0,-3
1472133338984225,-9,-1,-3,-2,3,10,0,2
1472133338986211,1,-2,10,4,-8,-15,0,0
1472133338986211,-1,-2,-5,-2,-6,4,-1,-6
1472133338999222,-2,-1,-3,-6,2,-2,0,3
1472133338999222,5,-2,-7,-5,-8,-5,-2,-3
1472133339006229,-4,2,16,0,4,-1,-1,0
1472133339006229,2,-1,-9,2,-8,0,0,3
1472133339022245,-6,-2,-7,-7,-2,3,2,-4
1472133339022245,5,-4,-2,2,-4,-5,-3,3
1472133339023245,-1,1,2,-2,0,2,-1,-1
1472133339023245,-1,-4,2,2,-1,-3,-3,-3
1472133339044266,-7,1,-16,-2,2,5,-2,-4
1472133339044266,2,-7,14,2,4,-1,1,3
1472133339046273,1,1,-4,-2,-8,-4,1,1
1472133339046273,-1,0,-5,-3,20,4,1,0
1472133339059286,0,2,4,-1,-12,-6,0,1
1472133339059286,0,0,-2,0,-7,-5,-2,-1
1472133339066297,1,-2,-10,-4,4,1,-1,-3
1472133339066297,-6,1,2,-7,-1,-1,-3,-5
1472133339082314,-1,-2,3,2,-3,1,0,5
1472133339082314,-1,-4,-5,-5,-4,-4,-2,-3
1472133339083315,2,-1,0,1,2,-1,-2,-4
1472133339083315,-5,-3,-3,2,-1,-4,0,-6
1472133339104334,6,1,-2,1,-1,-1,-1,5
1472133339104334,-7,0,-7,-4,-2,0,-2,-8
1472133339106334,5,-1,12,10,3,1,1,9
1472133339106334,-4,-2,-10,-18,-8,-1,-1,-5
1472133339119360,-7,-2,-3,-9,2,0,0,8
1472133339119360,0,1,-2,1,-5,-1,1,-9
1472133339125364,3,-1,1,1,-1,0,-4,-7
1472133339125364,-3,-5,-28,-10,1,3,0,3
1472133339142367,-9,-3,42,4,-12,-6,-3,-5
1472133339142367,5,2,-6,5,0,1,0,5
1472133339143369,-4,-1,-8,-9,10,2,0,-2
1472133339143369,4,-3,4,6,-5,-1,-2,0
1472133339164239,0,1,-9,-9,-3,-2,-2,-4
1472133339164239,-8,-6,-12,-11,-6,0,-3,-3
1472133339166241,2,-1,3,-2,-3,0,0,4
1472133339166241,-1,-1,-1,4,2,-2,-1,1
1472133339179250,0,4,9,4,-3,-3,-2,-4
1472133339179250,4,1,-4,7,3,-1,0,2
1472133339186259,-5,1,1,-5,-1,-1,-1,1
1472133339186259,-1,-2,9,-1,1,1,0,0
1472133339202273,0,-6,-19,5,-3,-6,-1,-5
1472133339202273,3,0,-7,-7,2,6,2,2
1472133339203275,-9,-1,22,6,1,0,-2,-6
1472133339203275,5,-2,-21,2,-5,-3,-2,2
1472133339224307,2,2,3,0,5,2,1,-1
1472133339224307,-2,-3,-3,-9,-3,-4,1,2
1472133339226293,3,5,9,-1,-2,0,1,-1
1472133339226293,-5,0,-1,-1,-8,-1,-3,-2
1472133339239321,6,0,-12,4,4,0,-1,-2
1472133339239321,-2,-7,-7,-10,3,-2,0,-1
1472133339245817,-3,2,-20,-3,-5,-1,-2,-1
1472133339245817,3,4,-5,7,2,0,0,1
1472133339262340,-2,-1,-1,2,-3,-1,-3,0
1472133339262340,-3,0,11,1,-2,-5,-2,-2
1472133339263341,-1,-9,-28,-5,-3,0,-1,6
1472133339263341,-4,-1,20,4,0,-1,-1,-5
1472133339284359,1,0,6,-4,-3,-2,0,-2
1472133339284359,-3,2,15,9,0,-2,1,-3
1472133339286362,-1,-1,5,-2,-2,-1,1,1
1472133339286362,-1,-1,7,-4,2,0,-3,-4
1472133339299372,0,-1,-7,-4,-1,2,5,5
1472133339299372,-2,-1,3,4,-4,-2,-6,-11
1472133339305377,1,2,-8,-1,1,0,1,4
1472133339305377,3,0,7,4,0,-3,0,4
1472133339322393,-5,-6,-6,-1,-1,-1,-1,-5
1472133339322393,-1,-1,-4,-2,-1,-1,-1,2
1472133339323395,2,1,-7,-1,-3,1,-3,-5
1472133339323395,2,1,5,0,0,1,0,2
1472133339344416,-12,-3,-11,-7,-5,-5,-3,-4
1472133339344416,6,0,-1,5,1,1,2,2
1472133339346421,-6,1,7,1,-5,-4,-3,-9
1472133339346421,-7,-1,3,0,4,-1,-1,0
1472133339358433,-1,-4,-3,-10,-3,0,-4,1
1472133339358433,-1,1,-3,7,4,1,-1,4
1472133339367142,1,0,17,-6,-4,1,-1,-4
1472133339367142,-2,-2,-10,-6,-1,0,1,0
1472133339382155,0,1,-14,-8,-8,-2,-3,-2
1472133339382155,4,-2,0,3,2,0,-1,-1
1472133339384157,-11,1,3,1,-2,-1,-2,-2
1472133339384157,4,0,5,-2,-3,-2,0,-2
1472133339404188,0,-7,5,-1,4,2,0,-4
1472133339404188,-1,1,3,-9,-4,-3,1,1
1472133339406179,0,-11,-7,6,4,1,1,-1
1472133339406179,-7,-11,-20,-9,-5,-1,-3,-4
1472133339419201,3,2,21,3,1,-1,1,1
1472133339419201,-3,-7,-3,-1,-2,0,-2,-2
1472133339426194,-4,-2,-12,-6,0,-2,0,-2
1472133339426194,2,1,16,8,-3,-1,-2,-2
1472133339442211,2,-1,-21,5,0,-2,-3,-2
1472133339442211,-2,1,-5,-2,2,0,0,0
1472133339444211,-1,-6,-11,-10,-3,-1,2,1
1472133339444211,3,4,5,7,4,-2,0,0
1472133339464739,0,-2,-2,-3,0,-1,-1,-2
1472133339464739,-17,1,8,-3,-4,-2,-1,-1
1472133339465740,13,5,-2,0,3,0,-2,2
1472133339465740,-6,-4,-24,-14,-7,-1,-2,-2
1472133339478752,1,1,12,9,6,4,0,-1
1472133339478752,-11,-1,-1,-5,-4,-3,-1,0
1472133339486761,4,-1,3,2,0,-1,-2,-5
1472133339486761,5,-1,4,3,4,1,0,1
1472133339501788,1,1,5,8,-3,0,1,1
1472133339501788,3,0,-36,-5,0,0,-2,0
1472133339503774,-3,-2,11,2,2,-1,-2,-2
1472133339503774,0,2,-10,-7,-2,-3,-1,3
1472133339524808,-4,4,8,3,-2,-2,1,-3
1472133339524808,-1,-7,13,2,1,0,2,-1
1472133339525793,-1,0,-4,-4,-4,-2,0,-1
1472133339525793,-2,-1,5,1,0,1,-1,0
1472133339538806,-1,1,-15,-4,1,-1,-5,2
1472133339538806,5,2,8,2,0,-1,-1,-2
1472133339547817,2,-3,0,0,0,0,-3,-1
1472133339547817,-10,-1,-5,-3,-2,3,0,-1
1472133339562453,1,0,6,-8,-4,-3,-1,-1
1472133339562453,-1,0,12,2,-3,0,-4,1
1472133339563445,-3,-3,-23,-2,0,-3,-1,-1
1472133339563445,1,1,9,0,-4,-1,-2,-2
1472133339584439,-2,-3,1,3,-1,-2,-2,-2
1472133339584439,1,3,12,-10,0,0,1,-1
1472133339586441,-3,-2,-1,8,2,0,-1,0
1472133339586441,3,1,-1,-8,-3,-4,2,0
1472133339598485,-3,-2,-7,0,-3,-2,-1,-1
1472133339598485,7,-1,-1,4,0,0,-1,1
1472133339607460,-2,-1,5,-2,-3,0,-2,-1
1472133339607460,-2,3,-8,1,-1,2,1,-2
1472133339622506,-1,-1,6,-1,-1,-1,1,1
1472133339622506,-2,-1,4,3,0,-1,-1,2
1472133339623474,-1,0,2,-2,0,1,1,0
1472133339623474,0,-1,9,10,-1,-2,-1,4
1472133339644527,0,-3,-6,-5,-2,0,0,-3
1472133339644527,-1,4,-9,0,2,-2,-5,-5
1472133339646495,-1,-2,-1,-3,-5,-1,-2,0
1472133339646495,0,-1,-5,-6,1,-1,1,0
1472133339658513,-2,-1,12,6,0,0,-1,2
1472133339658513,-3,0,-3,-1,-3,-2,-2,-2
1472133339667680,0,2,3,1,-1,0,-1,3
1472133339667680,0,-1,-6,0,0,-1,-3,-4
1472133339682693,0,-4,-11,-8,-1,-2,0,-3
1472133339682693,1,0,5,3,-2,-1,2,-1
1472133339683694,-4,2,8,1,-1,0,0,-6
1472133339683694,-1,-2,1,3,1,0,-3,2
1472133339704716,0,-1,-4,-6,-1,-2,-1,-4
1472133339704716,-11,-3,-18,-15,-4,-3,-1,3
1472133339706715,-2,-1,20,5,-1,-3,-2,-4
1472133339706715,0,-3,-15,-12,0,2,-2,-1
1472133339718725,0,6,7,11,-4,-1,-2,2
1472133339718725,1,-6,-6,-2,4,1,-1,2
1472133339727735,-2,-2,-9,-5,-4,-1,1,-1
1472133339727735,-2,-3,0,-1,-1,-1,-1,-1
1472133339741780,-2,3,-4,-6,1,-2,-1,-4
1472133339741780,1,-5,-5,2,-2,-3,-1,-5
1472133339743748,0,1,5,6,2,1,-1,1
1472133339743748,0,-2,-9,-5,-1,-2,1,0
1472133339765000,-2,-4,-7,-4,-1,-1,-1,-1
1472133339765000,1,1,5,-1,-2,0,0,4
1472133339765969,-4,-2,-9,-4,0,-1,0,-4
1472133339765969,1,-3,0,1,-2,0,1,-1
1472133339777980,-1,-5,11,-1,-1,-1,1,-2
1472133339777980,1,-1,-2,1,2,-2,0,0
1472133339786986,0,-3,-7,-2,0,-2,-4,-1
1472133339786986,2,-6,6,0,1,2,-3,0
1472133339802002,-5,4,4,6,-2,2,0,-3
1472133339802002,-4,1,1,1,-2,-2,-3,-3
1472133339804003,-1,-1,-2,-4,-3,-2,-3,2
1472133339804003,1,0,-5,-5,0,-3,0,-5
1472133339825054,4,-5,-4,2,0,-1,-4,-2
1472133339825054,-8,-2,0,-4,-6,-3,1,-3
1472133339826022,3,0,-1,2,2,-2,1,0
1472133339826022,-4,-3,1,-2,0,-2,-2,0
1472133339838033,-2,-1,6,0,0,1,0,0
1472133339838033,4,1,6,-2,-3,-1,-1,-2
1472133339847548,-2,-5,-13,-11,-4,-1,-3,-3
1472133339847548,-2,2,2,4,-1,-2,-1,2
1472133339862061,1,-1,-3,2,1,0,-1,2
1472133339862061,1,-3,-3,-3,-1,-1,-1,0
1472133339863530,1,-9,-2,-1,0,0,1,1
1472133339863530,0,3,-4,0,-3,1,0,-2
1472133339884551,-5,3,-8,-10,-3,-2,0,-1
1472133339884551,1,-6,-8,4,-1,2,-3,-6
1472133339886554,1,2,-4,-6,0,1,-1,4
1472133339886554,2,1,4,6,-4,-2,-2,-4
1472133339907570,-9,-3,-1,-1,1,0,2,3
1472133339907570,2,-1,5,3,1,-2,1,-1
1472133339908578,-1,2,3,-1,-1,0,-1,-2
1472133339908578,-1,-4,-6,-4,-2,-1,-3,-4
1472133339922584,1,-1,1,0,-2,-2,-3,1
1472133339922584,-1,3,1,5,0,-2,-2,1
1472133339923585,-2,-1,-7,-2,-1,-2,1,-2
1472133339923585,-1,-4,6,-3,-1,-1,0,1
1472133339944607,4,-5,-6,1,-2,-1,-1,-5
1472133339944607,-2,5,5,-2,1,-1,-2,1
1472133339946608,-1,0,0,4,-1,-1,-2,-2
1472133339946608,-4,0,-1,-2,2,-2,0,-4
1472133339967636,1,1,-5,-5,-2,0,-2,0
1472133339967636,-3,-6,-6,8,-3,2,-1,3
1472133339968638,0,-1,-5,-4,0,-1,0,-1
1472133339968638,-1,0,12,-2,-1,0,-2,0
1472133339981683,1,-5,-15,-6,-1,2,-1,1
1472133339981683,0,-4,-1,14,7,1,-1,0
1472133339988686,-8,7,14,-6,-4,-5,-3,-3
1472133339988686,-2,-7,-14,-15,-3,-3,-2,-1
1472133340004701,1,1,7,4,-1,-2,-1,0
1472133340004701,6,-8,-11,-10,-2,0,-2,-1
1472133340006672,-6,6,31,13,-2,-3,-4,-2
1472133340006672,3,-2,-19,-2,0,0,1,2
1472133340026690,-1,-1,6,-1,-1,-2,0,2
1472133340026690,-4,1,-1,0,-3,-1,-3,-3
1472133340028692,2,-11,-17,0,0,2,2,5
1472133340028692,-2,4,12,4,1,0,1,-3
1472133340041703,-3,-4,-9,1,-2,-2,-4,-8
1472133340041703,1,3,8,-6,1,0,-1,2
1472133340048716,1,0,-7,-2,-2,0,0,5
1472133340048716,-1,-2,-1,5,-2,-4,-7,4
1472133340064735,-2,2,3,-3,0,1,5,-3
1472133340064735,-3,1,-2,-4,-4,-2,-9,-3
1472133340066739,1,0,-2,-3,-1,0,-1,-4
1472133340066739,2,1,2,2,0,-1,3,-2
1472133340086757,0,-6,2,-2,-2,-1,-3,0
1472133340086757,-2,4,-1,-8,-2,-1,1,-1
1472133340088757,0,-5,16,0,-2,0,-1,0
1472133340088757,-4,-6,8,2,-2,0,-3,0
1472133340101800,1,4,9,2,0,-1,-1,-1
1472133340101800,1,1,-7,-3,-4,-1,1,1
1472133340108775,-5,1,-13,-8,-2,-3,-1,0
1472133340108775,-4,8,-1,-9,0,0,1,-7
1472133340124790,-1,-3,1,6,1,0,-1,-1
1472133340124790,-3,0,-3,-5,-3,0,3,-1
1472133340126793,0,-4,-2,8,1,-2,-2,-1
1472133340126793,-3,-1,-4,5,-5,0,0,0
1472133340147319,2,1,-15,-8,-1,-2,-3,1
1472133340147319,-1,1,8,1,-1,-1,-2,-2
1472133340148821,4,-3,-5,3,-2,3,2,7
1472133340148821,0,-2,1,-10,-1,-2,-1,-6
1472133340161831,-10,0,2,-7,1,1,-4,3
1472133340161831,2,-4,1,5,2,-3,-3,-2
1472133340168845,1,-7,-6,-7,0,1,0,-6
1472133340168845,-2,0,-4,6,0,3,1,1
1472133340184859,-1,-7,8,0,0,-1,1,1
1472133340184859,3,0,-3,-2,-2,0,1,-1
1472133340192865,-5,-4,-11,-5,-3,-2,-4,-3
1472133340192865,0,-1,0,1,-1,-3,-1,0
1472133340206892,1,1,-8,-4,-5,-2,2,3
1472133340206892,-4,-5,5,9,3,-1,0,-7
1472133340208880,4,1,-9,3,3,0,0,-4
1472133340208880,-3,-5,-1,-2,-2,0,-2,1
1472133340221891,2,7,0,0,-1,-1,0,-2
1472133340221891,2,0,-7,-7,0,0,0,2
1472133340228897,-2,0,9,-3,-2,-3,-1,1
1472133340228897,-2,7,-9,2,0,-1,-3,-5
1472133340244945,-1,-10,7,-2,-1,-1,-4,1
1472133340244945,-1,-3,-5,-4,-1,0,1,-1
1472133340245912,0,1,12,1,-1,0,0,-2
1472133340245912,-4,-3,-6,0,2,2,0,1
1472133340267624,-1,0,-4,0,0,-1,-1,-3
1472133340267624,-4,-6,-2,-8,-4,-3,1,-2
1472133340268660,1,0,6,1,-1,1,0,3
1472133340268660,-3,-2,-6,-6,-3,-2,-1,1
1472133340281653,-8,-8,-7,1,1,-1,-1,-8
1472133340281653,0,-1,8,1,-1,0,1,1
1472133340288660,-3,4,-3,-2,1,-2,-2,-3
1472133340288660,1,3,17,7,-1,-2,-1,-4
1472133340304691,0,-4,-24,-6,-4,-3,-3,4
1472133340304691,-1,1,2,1,1,-1,-1,-2
1472133340306662,1,1,0,-1,1,0,2,-3
1472133340306662,-7,-3,-2,-4,-2,1,-1,4
1472133340327680,-4,3,8,0,-1,0,0,-2
1472133340327680,8,-1,-2,-4,-3,-2,-5,-3
1472133340328681,-4,-2,-5,10,-1,1,-1,2
1472133340328681,-1,-8,3,6,0,-2,-3,-2
1472133340341726,4,1,2,-10,0,0,-1,0
1472133340341726,-5,-1,-4,-1,1,-2,-2,-3
1472133340348707,-1,-3,-16,-3,-1,-2,0,0
1472133340348707,-4,-3,4,5,-2,-1,0,1
1472133340364264,2,0,14,-2,-6,-2,-2,-2
1472133340364264,-3,0,-8,5,-2,0,-1,-2
1472133340366230,-3,2,0,-7,-1,-1,2,-1
1472133340366230,0,-3,-8,1,1,0,0,-1
1472133340387264,-4,-7,-2,5,-1,0,1,-1
1472133340387264,-1,1,10,0,0,1,0,2
1472133340389248,-4,-4,0,-1,-3,1,0,0
1472133340389248,1,-2,-9,-7,-3,1,-1,1
1472133340401275,6,6,2,-1,0,2,-1,1
1472133340401275,-4,0,4,-2,-2,-2,-4,-1
1472133340410268,-3,-9,-13,-5,-3,-1,-2,-6
1472133340410268,1,3,5,2,-3,-1,-1,1
1472133340424295,-2,7,-1,5,-2,-1,-2,0
1472133340424295,-2,-9,-4,-5,-1,-1,0,2
1472133340426283,0,4,5,3,-1,-2,-1,-1
1472133340426283,2,-5,0,-5,0,-2,-1,-3
1472133340447304,-3,-5,-7,2,1,-2,-2,-1
1472133340447304,0,-3,-4,0,-2,0,0,-3
1472133340448810,1,-2,5,-1,0,-1,-1,-2
1472133340448810,-1,-4,4,-1,0,0,-2,-3
1472133340461321,0,1,-4,1,-1,-1,2,12
1472133340461321,0,4,-1,-1,-1,0,2,-3
1472133340469393,2,2,-10,-4,-1,-2,-3,0
1472133340469393,-1,0,20,-1,1,-5,-3,-3
1472133340484378,2,-2,-1,2,-3,0,-3,-2
1472133340484378,-2,3,0,-4,-1,0,-1,2
1472133340486378,-3,-3,-6,1,0,-2,-2,0
1472133340486378,4,0,-4,-6,-4,0,-2,-1
1472133340507429,-1,-4,7,-4,0,-2,2,-4
1472133340507429,-2,-3,4,11,0,-1,-1,-2
1472133340509398,-4,-1,0,-15,-1,-2,-3,-6
1472133340509398,1,-1,-6,4,-2,-2,1,0
1472133340520438,-3,0,-4,-4,4,-1,-2,-5
1472133340520438,4,-2,-5,2,-2,-2,-1,-1
1472133340529435,-8,-3,5,-2,-1,-1,-1,0
1472133340529435,-3,4,-6,0,-2,1,1,0
1472133340544431,-1,-4,0,-4,-3,-1,0,-2
1472133340544431,4,1,-7,-4,-4,-2,-3,-1
1472133340546432,7,5,-1,1,0,0,3,-1
1472133340546432,-5,-11,0,-2,1,0,1,-1
1472133340567531,-4,-5,-18,2,-3,-1,2,-9
1472133340567531,-1,0,0,-4,-2,-1,-1,0
1472133340568499,3,-3,-3,2,-2,1,0,0
1472133340568499,0,2,10,4,-2,-2,-4,-1
1472133340580541,1,0,-7,-6,-2,-2,-1,3
1472133340580541,-3,-7,-1,-3,-3,-1,0,1
1472133340589517,-3,-6,-9,-1,-1,0,0,-2
1472133340589517,-1,-12,4,-3,-2,-3,-2,-2
1472133340604544,-3,5,-7,0,0,0,-2,-1
1472133340604544,-5,3,2,-4,-1,-3,-1,-1
1472133340606566,-1,-4,0,5,0,-3,1,0
1472133340606566,2,9,-10,-2,1,0,2,-1
1472133340627551,-1,-2,2,-1,1,-1,2,-4
1472133340627551,-2,-2,0,1,2,-1,2,2
1472133340628552,-2,2,2,1,-2,-1,-2,-1
1472133340628552,1,2,-5,-1,1,-1,-1,-3
1472133340640578,0,-2,0,-2,-3,-1,-2,-3
1472133340640578,-4,1,-3,8,-1,0,0,1
1472133340650076,-3,-2,7,-8,0,-2,-3,2
1472133340650076,6,0,-7,-1,0,0,2,1
1472133340664657,0,-6,-1,-1,-3,-1,0,-1
1472133340664657,-2,-1,4,-2,-1,0,-3,0
1472133340666629,0,-1,1,3,-2,-1,-5,-3
1472133340666629,-5,0,-2,0,-1,2,3,0
1472133340687645,7,3,-3,1,-1,-2,-5,-1
1472133340687645,-2,8,12,-3,-3,-4,1,4
1472133340688673,1,-3,-9,-1,0,2,-4,0
1472133340688673,0,1,7,-2,-3,-3,8,-3
1472133340700657,-3,9,6,3,-1,0,0,3
1472133340700657,-4,-4,-12,-4,0,2,8,1
1472133340709665,-2,3,6,-3,1,-7,-10,-6
1472133340709665,0,1,-3,-2,-2,-1,-9,-3
1472133340724709,-2,-3,5,-1,0,-2,1,1
1472133340724709,0,-5,-6,-4,3,0,4,-2
1472133340726680,0,1,3,6,-5,0,8,-1
1472133340726680,-2,-3,-8,1,1,-2,-4,0
1472133340746701,-4,0,9,-4,-2,-3,-3,-3
1472133340746701,2,1,8,6,0,-1,-5,-2
1472133340749207,-1,-1,-16,-14,0,1,1,-1
1472133340749207,-4,-3,13,9,2,0,-2,1
1472133340761219,-4,-8,-38,-32,-10,-2,-4,-2
1472133340761219,-2,0,6,6,0,1,-1,-4
1472133340769761,3,-3,2,2,-3,-1,0,2
1472133340769761,0,4,8,-2,2,2,-3,-1
1472133340784778,-6,-8,-15,3,1,1,0,-4
1472133340784778,-1,-12,-11,-4,-3,-1,-6,1
1472133340786778,-5,-1,0,-1,-1,0,0,-3
1472133340786778,-2,-2,-7,-3,-3,-3,1,4
1472133340806797,2,4,16,9,1,-1,-1,-1
1472133340806797,-2,3,3,-2,-1,-2,-3,1
1472133340808796,0,-2,-6,-1,0,0,-3,-1
1472133340808796,0,1,4,0,-1,1,-2,0
1472133340829817,-2,-2,-6,4,0,0,0,2
1472133340829817,-2,2,21,2,0,-3,-1,-3
1472133340830817,1,0,-11,-9,-5,-2,-1,0
1472133340830817,1,0,-12,-4,-2,1,2,-1
1472133340844831,-1,1,17,5,1,-1,-5,1
1472133340844831,-1,-2,-16,-2,0,1,-1,-3
1472133340845831,-1,-1,4,2,0,-1,0,1
1472133340845831,0,-2,-2,-6,-3,-1,-1,-2
1472133340866859,-4,-1,16,3,-2,-2,-2,-3
1472133340866859,0,-1,-19,-4,-4,-3,-3,2
1472133340868862,0,-2,4,8,1,-3,-1,-1
1472133340868862,0,3,-7,-6,0,-1,-1,-2
1472133340889881,-2,2,4,-3,0,0,-1,2
1472133340889881,4,0,8,1,-2,0,-2,-3
1472133340890882,-10,0,-3,6,2,0,-1,-1
1472133340890882,0,-1,-6,-1,-1,-2,-1,-2
