timestamp,emg1,emg2,emg3,emg4,emg5,emg6,emg7,emg8
1470243544377209,-2,1,-6,-4,-2,0,-2,0
1470243544377209,2,1,-7,-3,-1,-2,-1,-1
1470243544382727,-1,-2,-8,-1,0,-1,-1,-1
1470243544382727,-5,-2,-11,-7,-2,-3,-1,0
1470243544383715,2,-5,-12,1,1,-1,-1,-3
1470243544383715,-1,0,8,0,0,-2,-2,-1
1470243544385217,-5,-1,3,0,-4,0,0,1
1470243544385217,3,1,-6,-1,0,-4,-1,0
1470243544395727,0,-1,3,-1,0,0,0,-2
1470243544395727,-5,-4,-3,-2,-3,-1,-1,0
1470243544407236,0,-3,-18,-9,-2,-2,-1,-3
1470243544407236,-1,1,5,3,0,1,-3,-2
1470243544418259,-2,1,5,-1,0,-1,-2,-1
1470243544418259,-3,-3,-4,-3,-1,-1,-1,-1
1470243544429756,2,1,4,0,-1,0,-1,-2
1470243544429756,-1,-1,0,-1,-3,1,0,-2
1470243544433268,-2,-2,-2,0,-2,-1,0,1
1470243544433268,1,-1,-4,-2,-1,-1,-1,-3
1470243544456292,0,-2,-9,-1,1,0,-1,-2
1470243544456292,-3,0,21,6,-2,-2,-1,-2
1470243544457282,-1,1,-3,-4,-3,-1,-1,0
1470243544457282,0,6,-3,-3,0,0,0,1
1470243544471309,-1,-12,0,-1,0,-1,-1,1
1470243544471309,-2,0,-4,-6,-2,-1,-2,-3
1470243544472294,-1,1,-2,2,-2,-1,-2,-2
1470243544472294,-1,-15,-2,-1,-1,-1,-1,-1
1470243544518838,1,3,9,0,-1,-1,0,-1
1470243544518838,0,1,5,4,-2,-2,-2,-2
1470243544519874,-3,-7,-5,-2,0,-1,0,0
1470243544519874,-1,0,-3,-5,-3,-1,-2,-2
1470243544520338,1,-5,-4,1,0,1,-1,1
1470243544520338,0,5,-5,-1,-1,0,0,-1
1470243544523841,-3,-1,3,-2,-2,0,1,1
1470243544523841,2,-1,-5,-1,-1,-1,0,-1
1470243544530346,-2,-2,-4,-2,0,-1,-1,-2
1470243544530346,-4,-4,4,-3,-2,0,-1,0
1470243544537884,1,4,-12,0,0,-2,-2,-2
1470243544537884,-2,-2,10,-3,0,0,-1,-2
1470243544546863,-3,0,1,1,-3,-1,-1,-1
1470243544546863,0,-3,0,1,0,-2,0,-2
1470243544561374,0,-1,-3,-2,-1,-2,-2,-2
1470243544561374,0,-4,1,0,0,0,0,0
1470243544567880,-4,-2,-3,-2,-2,1,-2,-2
1470243544567880,0,0,-7,-3,0,0,-2,-2
1470243544582894,1,2,1,-1,-2,0,1,0
1470243544582894,-1,-2,2,1,-1,-1,-2,1
1470243544591902,1,1,-5,-1,-1,-2,0,-1
1470243544591902,0,1,2,-2,-1,-3,-1,-1
1470243544614424,-3,-9,-1,2,-1,0,-1,-3
1470243544614424,-2,2,1,3,1,0,-2,0
1470243544615924,-2,0,-4,-2,0,-2,0,-1
1470243544615924,-2,0,-7,-5,1,1,-1,0
1470243544629435,0,0,4,-2,-2,-1,-2,-1
1470243544629435,-2,0,-4,-1,-1,-1,-1,-3
1470243544630937,-3,-3,3,3,-3,-1,-2,-1
1470243544630937,-3,-3,1,0,-1,-1,-2,-1
1470243544651971,1,1,-1,-2,0,-1,0,0
1470243544651971,-1,-2,-4,-1,-1,0,0,-1
1470243544653457,-1,1,2,-1,-1,1,1,1
1470243544653457,-3,-11,-7,-1,-2,-2,0,-2
1470243544666469,0,14,-10,-9,0,-1,-1,-2
1470243544666469,-4,-12,19,2,-3,-4,-4,-1
1470243544672975,-2,-1,-11,0,-2,-2,-2,-2
1470243544672975,0,0,12,2,-2,0,0,-2
1470243544696996,-3,-4,-7,-1,-2,0,-2,-1
1470243544696996,0,0,-6,-4,-1,-1,-1,2
1470243544698497,-1,0,-2,-4,1,-1,-2,0
1470243544698497,-1,-3,1,0,0,-2,-3,0
1470243544711509,0,-5,2,0,-1,0,-1,0
1470243544711509,0,3,-12,-2,-1,0,-1,-4
1470243544713511,-1,-3,8,0,-2,-1,-2,0
1470243544713511,-2,4,7,2,-1,-3,-1,-1
1470243544727023,1,-2,7,-3,-1,-2,0,-1
1470243544727023,-2,0,1,-1,-1,-1,0,-2
1470243544728524,0,-1,0,2,1,-1,0,-2
1470243544728524,0,-1,-9,-7,-1,-1,-1,0
1470243544749543,-2,-2,0,2,0,-1,-1,0
1470243544749543,1,-2,-2,0,1,-1,0,0
1470243544751045,-2,-2,2,0,-1,-2,-3,0
1470243544751045,0,1,-4,-4,-2,-2,2,0
1470243544771563,-3,-4,14,6,-1,-3,-2,-1
1470243544771563,0,-1,-11,-6,-1,-1,-1,-1
1470243544773565,1,-4,-15,-2,-2,-1,-1,-1
1470243544773565,-1,-2,-10,2,-1,-2,0,-2
1470243544786076,1,1,-6,-2,-1,-1,0,-1
1470243544786076,-3,3,9,-1,-1,-1,0,-2
1470243544793082,-1,-9,0,-2,0,-1,-2,-1
1470243544793082,-1,-3,-6,-4,-2,-1,-1,-1
1470243544809597,-2,-3,9,1,-3,-2,-1,-2
1470243544809597,-3,5,-8,-2,-1,-2,-2,-1
1470243544811099,-3,0,3,0,0,-2,0,-2
1470243544811099,0,-2,-1,-2,-1,0,-2,0
1470243544831617,-1,-5,-7,-2,-1,-1,-1,-2
1470243544831617,-1,4,-8,-1,-2,-1,-1,0
1470243544833620,0,-8,9,-5,0,1,0,-1
1470243544833620,-2,3,10,2,-3,0,0,-1
1470243544846130,-2,0,-6,2,-1,-1,-1,1
1470243544846130,-1,-3,-1,0,1,0,-1,-1
1470243544853137,-1,5,-4,-5,0,-2,-1,-1
1470243544853137,-2,-2,8,4,1,-1,0,0
1470243544869651,0,-2,4,1,-1,-1,-2,-2
1470243544869651,0,-1,-4,-4,-1,-1,0,1
1470243544871152,-1,0,-2,-2,-1,-1,-2,-1
1470243544871152,-1,-1,2,0,-2,-3,-1,-3
1470243544892171,0,2,-5,-3,0,-2,-1,-1
1470243544892171,-2,-3,7,3,-1,-2,-2,-2
1470243544893672,-1,-2,3,1,0,1,0,-2
1470243544893672,-4,-3,-13,-3,-3,-2,-1,0
1470243544906184,0,-4,-2,-3,-2,0,-1,-1
1470243544906184,-1,0,1,-3,1,0,0,-2
1470243544913190,-1,-1,-7,1,-2,0,1,0
1470243544913190,-1,-2,-15,-11,-1,0,-2,-2
1470243544929205,-2,2,21,3,0,-1,-1,-1
1470243544929205,1,-5,-10,-1,-2,0,-2,-1
1470243544930706,-2,2,5,0,-1,0,-1,-1
1470243544930706,1,0,-2,0,-1,0,-2,0
1470243544951725,-2,-3,-6,-5,0,-2,-1,0
1470243544951725,-1,-1,5,1,-2,-1,0,-2
1470243544953227,-1,-1,-11,-2,-2,-1,0,0
1470243544953227,-2,0,19,3,-2,-1,-1,-3
1470243544966238,-1,-2,-7,-4,-1,0,-1,-1
1470243544966238,0,0,4,3,0,0,-1,0
1470243544973244,1,2,-5,-3,-2,-2,-1,0
1470243544973244,-1,-1,1,2,0,-1,-1,-3
1470243544989258,-1,-2,1,0,-2,0,-2,-1
1470243544989258,0,-1,-8,-2,-1,-1,-2,0
1470243544991260,0,-2,-1,-2,-2,-1,1,-2
1470243544991260,-2,-2,0,-1,0,0,-1,2
1470243545011778,-2,1,-1,0,-3,-1,-1,-4
1470243545011778,-1,-1,5,-1,0,1,0,0
1470243545013280,-2,-2,-2,-1,-1,-1,-2,-1
1470243545013280,-1,2,1,-2,0,-1,1,-1
1470243545026292,-2,0,0,1,0,-1,-1,-3
1470243545026292,-2,-2,2,-2,-1,-1,-2,1
1470243545032798,0,1,13,1,-1,-2,-2,-4
1470243545032798,0,-1,-8,0,-2,0,-1,-1
1470243545049313,-1,0,-5,-2,0,0,-1,0
1470243545049313,0,-1,-3,0,-2,-1,-1,-2
1470243545050814,-2,2,-2,-2,0,-2,-1,-1
1470243545050814,-1,-1,-4,-2,0,-2,-2,-2
1470243545071833,-3,-1,-1,0,0,-1,0,-1
1470243545071833,-1,-2,-3,-1,-2,0,-2,-1
1470243545073334,0,-4,-6,-3,-2,-1,-1,0
1470243545073334,-2,-3,10,0,-1,-2,-1,1
1470243545086346,-1,0,4,2,0,-1,0,1
1470243545086346,-2,-3,-3,3,0,-1,0,-3
1470243545093352,0,0,3,-3,-1,0,-1,0
1470243545093352,1,-2,-7,-4,-2,-1,-2,-2
1470243545109368,-1,-4,-10,-4,1,-2,0,-1
1470243545109368,0,1,-2,-2,-2,-1,-1,-1
1470243545110868,-1,-2,2,1,-2,-2,-2,-2
1470243545110868,-3,1,10,2,1,0,-1,-2
1470243545131888,0,-2,-7,-2,-2,-2,-1,-2
1470243545131888,-2,-2,0,-1,1,-1,-2,0
1470243545133388,-4,1,1,4,-2,-1,-2,-2
1470243545133388,0,-1,-5,0,-2,-2,0,-1
1470243545145399,0,1,-2,-1,-1,0,-3,-1
1470243545145399,-1,-2,-1,-3,0,-1,0,-1
1470243545154407,-2,-1,1,-1,-1,1,-2,-1
1470243545154407,-1,0,1,0,-1,-2,0,0
1470243545169419,-1,1,-3,0,-2,0,0,-1
1470243545169419,-1,-6,-4,-1,-1,-1,0,0
1470243545170922,0,2,3,-7,0,-2,-1,-1
1470243545170922,-1,0,-9,2,-2,-1,-1,-2
1470243545191941,-2,-1,7,0,0,-1,-2,1
1470243545191941,-4,-2,-9,-3,-1,-1,-1,0
1470243545193442,1,-3,-4,-2,0,-2,0,-1
1470243545193442,1,-2,-9,-3,-2,1,0,-1
1470243545205453,1,2,12,2,-2,0,-1,-2
1470243545205453,1,2,3,-1,-2,-1,-1,-1
1470243545214461,-2,-1,-1,2,0,-1,-1,-1
1470243545214461,0,-2,-1,-2,-1,-2,-1,-2
1470243545229475,-2,-3,-6,-3,-2,-2,0,-3
1470243545229475,-2,-1,-3,-1,-1,-1,-1,0
1470243545230976,-2,-1,-3,-3,-2,0,-1,1
1470243545230976,-1,-1,2,1,-1,-1,-2,0
1470243545251994,-1,-1,-3,1,-1,-1,-1,0
1470243545251994,-1,1,1,-1,-2,-1,0,-2
1470243545253496,1,-2,-12,-5,-1,-3,-1,0
1470243545253496,-1,2,15,4,-1,-3,-2,0
1470243545265507,-1,-7,5,-2,-2,0,-1,-1
1470243545265507,-2,1,4,1,-1,-1,2,-2
1470243545274516,-1,-2,-6,-2,-2,-2,0,0
1470243545274516,0,-3,-12,-6,-1,0,1,1
1470243545289528,1,0,6,0,0,-1,-1,-1
1470243545289528,-1,0,-4,-1,1,0,-2,0
1470243545291029,-1,0,13,1,-1,0,-2,-1
1470243545291029,-2,-3,6,0,0,-1,-1,-2
1470243545312048,-1,1,-5,-1,-1,0,-1,0
1470243545312048,0,-2,-4,-2,-3,-1,-1,0
1470243545313551,-2,0,-6,0,-1,-1,1,-2
1470243545313551,0,-1,-5,-3,-2,-1,-1,1
1470243545325574,0,0,-4,-1,0,-1,-2,-1
1470243545325574,-2,-3,-7,-5,-2,-1,-1,-1
1470243545334569,0,0,15,1,-2,0,-2,-2
1470243545334569,0,-2,-3,-3,-3,0,-2,-2
1470243545349582,-3,-1,-6,0,-1,1,1,1
1470243545349582,0,-2,1,2,0,-2,-1,-1
1470243545351085,0,-1,-1,-4,-1,0,-1,0
1470243545351085,-2,-3,-3,-2,-1,-1,0,-1
1470243545371603,-1,-3,-13,-6,-3,-3,-2,-3
1470243545371603,-1,1,3,0,-1,-2,-2,-1
1470243545373604,1,0,-5,0,-1,1,-1,-2
1470243545373604,-1,0,2,-1,0,-1,-1,-2
1470243545385614,-2,-1,-2,1,1,0,0,0
1470243545385614,-1,1,3,0,-2,-1,-2,-2
1470243545394622,-4,-3,-7,-3,-2,-1,0,1
1470243545394622,-2,-1,4,-1,-2,-3,-1,-2
1470243545409636,-1,-1,4,-1,-1,-2,-2,1
1470243545409636,-2,-6,2,0,-1,-1,0,-2
1470243545411137,-2,0,-7,1,0,-1,-1,-1
1470243545411137,0,-4,-1,-1,0,1,0,0
1470243545431655,-1,1,-4,-4,-1,-1,0,-2
1470243545431655,-2,1,5,-1,-2,-2,-3,-1
1470243545433658,-2,0,13,6,0,-1,0,-2
1470243545433658,-1,0,-9,-1,-1,-1,-1,-1
1470243545445667,0,-1,1,-3,-1,0,0,-3
1470243545445667,-1,-4,-19,-2,-2,0,0,-1
1470243545454676,-2,-1,-3,-3,-3,-1,0,0
1470243545454676,0,0,-1,-1,-1,-2,-1,-2
1470243545469189,-1,-4,-5,-3,0,-1,-2,-1
1470243545469189,0,-2,5,-2,0,0,1,-1
1470243545470691,-2,2,9,1,-1,-2,-2,-2
1470243545470691,-1,-3,-11,3,-1,-1,-1,0
1470243545491211,-2,-2,-3,-4,-2,-2,-3,-1
1470243545491211,-1,2,-1,-3,-2,-2,-1,-1
1470243545498216,-2,-3,-4,-1,0,-1,-1,0
1470243545498216,-1,-1,2,-2,0,-1,0,-1
1470243545514230,0,1,0,3,-2,1,-2,-1
1470243545514230,1,-3,1,1,1,-2,0,-1
1470243545515732,-1,-2,-11,-2,-1,0,-2,-1
1470243545515732,-3,1,15,0,-1,-1,-1,-2
1470243545536750,-3,-3,6,2,-3,-1,-1,-1
1470243545536750,0,0,1,0,-2,0,-1,-2
1470243545538251,-3,-3,-7,-1,-1,-1,-1,-1
1470243545538251,0,0,-9,-4,0,-1,-2,0
1470243545551263,1,-2,2,-1,-2,-2,-2,0
1470243545551263,-2,-1,3,0,-1,0,-1,-1
1470243545558269,1,-4,-4,-2,-2,-1,-1,0
1470243545558269,0,-1,0,1,-1,-1,-1,1
1470243545574283,-2,1,1,-1,-1,-4,0,-1
1470243545574283,0,-1,-3,-2,-1,-1,-1,-1
1470243545575785,-1,1,-3,-2,-3,-2,-1,-2
1470243545575785,-2,-2,-4,-3,-1,1,-1,-2
1470243545596804,0,-1,2,0,0,1,0,0
1470243545596804,0,-2,-4,0,-1,0,-2,-2
1470243545598305,-2,-1,-1,1,-2,-2,-1,1
1470243545598305,-1,-1,11,2,1,-1,-2,-2
1470243545611317,-3,-2,-2,-1,-1,-1,0,-2
1470243545611317,-2,0,0,-1,-1,1,0,0
1470243545617824,2,-3,-4,-3,0,-1,0,-1
1470243545617824,-1,-3,-7,-4,-2,-1,0,1
1470243545634338,-1,0,0,-1,1,0,-1,-2
1470243545634338,-1,0,3,-1,-1,-2,-2,-1
1470243545635839,-1,2,-3,-5,1,-1,-2,0
1470243545635839,2,0,-6,-2,0,0,-1,1
1470243545656858,-2,-2,0,-2,-1,-3,-1,1
1470243545656858,0,-1,-3,1,-1,-1,0,0
1470243545658360,-1,1,2,0,1,-1,-1,-1
1470243545658360,-1,0,-1,1,-2,0,0,-1
1470243545670370,0,2,-3,-3,-2,0,-2,-2
1470243545670370,-1,0,8,2,-1,-3,-2,-3
1470243545679378,1,-1,-2,-1,-1,0,0,-1
1470243545679378,-1,-3,-4,-3,0,-2,0,0
1470243545694391,-1,-2,11,2,-2,-2,-1,-1
1470243545694391,-1,-1,-9,-3,-1,0,0,-2
1470243545695893,-2,-2,5,1,-2,-1,-1,-1
1470243545695893,-2,0,-6,-3,-1,-2,-1,-1
1470243545716912,-1,-3,-5,0,1,1,1,-1
1470243545716912,-1,-1,0,1,-1,-3,-1,0
1470243545718414,-1,-4,-2,-2,-1,-1,-1,-1
1470243545718414,-2,-1,5,-1,-4,-1,-4,-3
1470243545730926,-1,2,-3,0,0,-1,-2,-1
1470243545730926,0,-1,-4,-2,0,2,0,1
1470243545739433,-3,-2,-5,-1,0,-1,0,0
1470243545739433,2,0,-4,0,0,-1,-1,-2
1470243545754447,1,0,2,1,-2,-1,0,-3
1470243545754447,-4,-2,-8,-5,-2,-1,-2,-2
1470243545755947,0,0,7,0,-1,-2,0,-2
1470243545755947,-2,1,1,0,0,-2,0,-1
1470243545776967,-2,-1,-2,-2,-1,-2,-1,-2
1470243545776967,0,0,-4,0,0,0,0,-2
1470243545778467,-1,1,-4,0,-2,-1,0,-3
1470243545778467,-3,-4,2,-1,0,0,-1,-1
1470243545790480,-1,-3,-5,-3,-1,0,-1,-1
1470243545790480,-1,-1,5,0,-1,-2,-1,0
1470243545799487,-2,-5,-2,-4,-1,-1,-1,-1
1470243545799487,-1,0,-3,0,-2,-2,-1,0
1470243545814499,-1,-3,-5,-2,-1,-1,0,-1
1470243545814499,0,1,1,1,-1,-2,0,-1
1470243545816001,-1,1,-1,1,0,-1,0,-1
1470243545816001,-2,1,0,0,-1,-1,-1,0
1470243545837020,-2,-2,-6,-3,-2,0,-1,0
1470243545837020,-1,-2,2,-5,-3,0,0,1
1470243545838521,-4,-3,7,2,-2,-2,-3,-1
1470243545838521,1,-2,-3,-2,0,-2,-2,-1
1470243545850532,2,1,-2,2,0,-2,-2,0
1470243545850532,0,-2,-6,-1,-1,0,0,-1
1470243545859542,2,-1,-8,-2,-1,-1,-1,-1
1470243545859542,-1,-2,1,-2,-2,0,0,0
1470243545874553,-4,-1,10,1,-2,-2,-2,-1
1470243545874553,-3,-3,-1,-4,0,1,-2,-2
1470243545876055,-1,1,-2,0,-1,0,-1,0
1470243545876055,0,-2,-1,1,-1,0,-1,-2
1470243545897073,-2,0,-5,-1,-1,-1,-1,-2
1470243545897073,-1,1,2,3,-2,-2,-1,-2
1470243545898575,-1,-1,-3,-4,1,0,-1,-1
1470243545898575,-4,-1,7,2,-2,0,0,-1
1470243545910586,-1,-1,-6,-3,-2,1,-1,0
1470243545910586,-1,1,7,1,-2,-2,-1,-1
1470243545919594,1,-3,-9,-6,0,1,-1,1
1470243545919594,-2,0,-3,-3,0,-1,-2,0
1470243545934607,0,-1,-1,0,0,-1,0,1
1470243545934607,-3,-3,-2,-1,-1,-2,-1,-1
1470243545936109,0,2,1,1,-4,-2,-2,-2
1470243545936109,1,-4,-15,-5,0,-2,-1,0
1470243545957128,-1,-4,14,0,-1,-1,-1,-1
1470243545957128,1,0,-2,0,0,-2,-2,-2
1470243545958630,-1,-3,0,0,0,-3,1,-3
1470243545958630,-2,0,4,2,-1,-2,-1,1
1470243545970640,-2,0,-10,-2,-1,-2,0,0
1470243545970640,-1,1,-1,-2,0,0,0,2
1470243545979647,-2,-2,-6,-2,-1,0,0,-2
1470243545979647,-1,1,2,0,0,1,0,-2
1470243545994161,-1,-1,-5,-2,1,-1,-2,-1
1470243545994161,0,-2,8,1,-1,-2,-1,-2
1470243545996163,-2,4,-4,-3,-1,0,0,0
1470243545996163,-4,-10,4,-2,-1,-1,0,-2
1470243546017181,-1,-2,-7,-3,0,-1,-2,-3
1470243546017181,-2,-1,-4,0,-2,2,-1,-1
1470243546018683,1,-1,12,3,-1,-2,-2,0
1470243546018683,0,3,-8,-2,-1,-1,-1,-1
1470243546030694,0,0,5,-2,-1,0,0,-1
1470243546030694,-2,-7,-18,-6,0,-1,-2,-2
1470243546039703,-1,-2,1,0,0,-2,-2,-2
1470243546039703,-2,1,7,-1,-2,-1,-1,-1
1470243546054215,0,-1,-1,0,-2,-1,0,0
1470243546054215,-2,0,0,-1,-2,-2,-1,-2
1470243546055716,0,-1,-2,0,-1,0,0,-1
1470243546055716,1,-1,-9,-2,0,-1,-2,-3
1470243546076735,2,1,-3,-2,1,-1,-1,-1
1470243546076735,0,-3,-2,-1,-1,-1,-1,0
1470243546078236,-1,-2,-5,-2,0,0,-1,0
1470243546078236,-4,-2,3,-1,-4,-1,-3,-2
1470243546098755,-2,4,3,0,-1,-1,1,-1
1470243546098755,-2,-8,-3,3,0,-2,0,-3
1470243546099256,-4,-2,5,-1,-1,-1,-1,1
1470243546099256,0,0,-1,1,-1,-2,0,0
1470243546113768,-2,1,-6,-1,-3,-1,-2,-1
1470243546113768,-2,0,11,-4,-2,-2,0,-1
1470243546114269,-1,-1,-7,-1,-1,0,-1,1
1470243546114269,0,-1,0,-3,-2,0,0,1
1470243546136289,0,-2,5,-1,0,-1,0,-2
1470243546136289,-1,-1,-2,-2,-1,-1,-1,-1
1470243546136788,-4,0,0,-3,-1,-2,-2,-2
1470243546136788,-1,0,-8,-1,0,0,-1,0
1470243546158809,-1,-2,8,0,-3,-3,-2,-1
1470243546158809,-1,2,3,2,-3,-1,1,-1
1470243546159310,0,-2,3,3,0,-1,-2,-3
1470243546159310,-1,0,-4,-1,-1,0,-1,-1
1470243546173822,-3,-2,-12,-7,0,1,0,0
1470243546173822,0,-1,0,-3,0,0,0,-1
1470243546174323,1,0,5,0,0,-2,-2,-1
1470243546174323,-1,-2,0,2,0,-2,-2,-2
1470243546196342,-1,-4,1,1,0,-2,-1,1
1470243546196342,-1,-1,-6,-5,-1,-1,1,0
1470243546196843,-1,-2,-3,-2,-1,-1,-1,-1
1470243546196843,-1,-2,-1,-2,-1,-1,-3,-1
1470243546218863,0,-2,3,2,-1,-2,-1,-3
1470243546218863,0,0,-1,1,-2,-1,0,2
1470243546219363,0,-4,-7,-1,1,2,0,-1
1470243546219363,0,-1,7,0,-1,-1,-2,1
1470243546233876,-2,0,6,0,-1,-1,0,-1
1470243546233876,-1,0,-7,-3,-1,1,-2,1
1470243546234376,-1,-3,-6,-3,-2,-2,-1,0
1470243546234376,1,-1,-5,-4,0,-1,-1,-1
1470243546256396,-4,1,18,4,-2,-1,-1,-3
1470243546256396,0,1,-1,0,-1,-1,-3,-3
1470243546256897,-2,-5,-3,-1,-1,-3,-2,-3
1470243546256897,-1,0,-6,-1,0,-1,0,0
1470243546278416,-3,-2,-8,-4,-1,-1,-2,1
1470243546278416,-1,3,1,0,0,-1,-3,-1
1470243546279417,0,1,-3,-1,-1,-1,-1,1
1470243546279417,1,-1,2,-1,-1,-2,0,-3
1470243546293432,-1,-2,-6,-2,-1,-1,-1,0
1470243546293432,0,-2,0,0,-1,-1,-1,-1
1470243546294430,-2,-1,8,1,-3,0,-1,-3
1470243546294430,-2,1,0,-1,-2,0,-1,0
1470243546315950,1,1,-5,-4,-1,-1,1,-2
1470243546315950,0,-4,-7,-2,0,0,-1,0
1470243546316952,-3,-1,1,1,-1,-1,-1,0
1470243546316952,-1,-3,-5,2,-2,-1,-2,-3
1470243546338470,0,-4,-6,-3,-1,-1,0,0
1470243546338470,-2,0,13,-1,-1,-1,0,-2
1470243546339471,-1,4,4,0,-1,1,-1,0
1470243546339471,-2,0,-3,-1,-1,-1,-1,-1
1470243546353484,0,-1,-6,2,-3,-2,-1,1
1470243546353484,0,-3,-7,-4,-2,-3,-2,0
1470243546354484,0,0,-1,-5,-3,-2,-1,-2
1470243546354484,-1,-1,1,0,0,1,0,0
1470243546376004,-1,0,1,-1,0,-1,0,0
1470243546376004,-1,-2,-2,-2,-2,-1,0,-1
1470243546377005,-1,-1,-5,-1,-2,-2,-1,-2
1470243546377005,-2,-1,-1,-2,-1,-3,-2,0
1470243546398524,-2,-6,-6,-4,-3,1,-2,-1
1470243546398524,0,0,-2,0,0,-1,1,-1
1470243546399525,-1,-3,-7,-3,-1,-2,1,0
1470243546399525,-1,1,13,2,-2,0,-1,0
1470243546413539,-1,-3,-12,-1,1,-1,-2,-1
1470243546413539,-1,1,6,1,-1,0,-3,-2
1470243546414538,0,-3,-8,0,-1,-1,-1,0
1470243546414538,0,-1,-11,-5,-1,-1,-1,-2
1470243546436558,-2,-4,17,3,-2,-3,-2,-1
1470243546436558,0,-1,-5,-3,1,-1,-1,-1
1470243546437059,-1,0,1,0,-2,-1,0,1
1470243546437059,0,-3,-6,-3,-2,-1,-1,-1
1470243546458578,-1,0,-1,-1,-1,0,-1,-1
1470243546458578,-1,-2,0,-1,0,-2,0,-3
1470243546459579,-1,-3,6,-1,-2,-1,-2,-2
1470243546459579,-2,-1,0,-1,0,-1,-1,-1
1470243546473091,-2,0,-5,-1,0,-1,-1,-1
1470243546473091,-2,1,0,0,-3,-1,0,1
1470243546481098,0,-3,-7,-4,-1,1,-2,-1
1470243546481098,-1,-2,11,4,0,-1,-3,1
1470243546496112,0,1,-3,1,-3,-1,-2,-3
1470243546496112,0,-1,3,-3,-1,1,-1,0
1470243546497112,-2,-3,-5,-3,-2,1,-1,0
1470243546497112,2,-2,-2,-1,0,-1,-1,0
1470243546518633,1,-1,-1,-1,0,0,-1,-2
1470243546518633,-3,3,18,6,-2,-3,-2,-1
1470243546519634,-1,0,-1,-1,-1,1,0,-2
1470243546519634,-3,0,-2,-3,-2,-1,-1,-2
1470243546533645,-2,-4,-9,-3,-1,1,-1,0
1470243546533645,-1,-1,-5,-2,1,1,-2,0
1470243546534646,1,-1,-1,-1,-2,-2,-1,-1
1470243546534646,-2,1,-3,0,-2,-1,-1,-1
1470243546556165,-2,0,-4,-4,1,-3,0,-1
1470243546556165,-2,-3,5,-1,-4,-1,-1,-2
1470243546557166,-1,-1,4,2,0,-1,-3,0
1470243546557166,-1,-2,-1,0,-2,-1,-2,0
1470243546578686,0,-1,-2,-2,-1,0,0,-2
1470243546578686,0,-2,-10,-2,-1,-2,0,-1
1470243546579687,-1,2,-2,1,0,-2,1,0
1470243546579687,-1,-5,0,-5,-2,0,0,-2
1470243546593703,-2,0,13,-4,-1,0,-1,-1
1470243546593703,-2,1,-3,-1,0,-1,-1,-3
1470243546594700,1,0,-2,0,-1,0,-1,-2
1470243546594700,0,0,-5,1,0,-1,0,0
1470243546616221,-1,-2,-5,-4,-2,-1,-1,0
1470243546616221,0,-2,-2,-3,0,-2,-1,0
1470243546617220,-1,-1,4,-1,-1,-2,0,-3
1470243546617220,1,3,-1,-1,0,-3,-1,-3
1470243546638740,-2,-7,-9,-1,-1,-1,-1,-1
1470243546638740,-2,0,2,0,-1,-1,-2,0
1470243546639741,-3,0,3,0,-2,-1,-3,-2
1470243546639741,-1,1,3,1,-1,-1,0,-1
1470243546653753,0,1,0,2,-2,-3,-1,-2
1470243546653753,0,-2,-22,-2,-1,-3,-1,0
1470243546654254,-1,-2,3,-4,-1,-1,-1,0
1470243546654254,-1,-3,-2,-3,-1,1,-1,-1
1470243546676273,2,1,-14,-5,-1,-1,1,1
1470243546676273,1,7,23,4,-2,0,-1,0
1470243546676774,-3,-9,-5,-4,-1,0,-1,0
1470243546676774,0,-2,-4,-1,0,0,0,-3
1470243546698793,0,0,-4,3,-1,-2,-1,1
1470243546698793,1,-2,-7,-1,-2,1,-1,0
1470243546699294,0,2,4,2,-2,-2,-1,-2
1470243546699294,-4,-4,3,0,-2,-1,-1,0
1470243546713306,-1,0,0,-2,-1,-1,-2,-2
1470243546713306,0,-2,-6,1,-1,0,-2,-1
1470243546721314,-2,0,-1,-2,0,-3,-1,-1
1470243546721314,0,-1,-4,-2,0,-1,0,0
1470243546736327,1,1,4,1,-1,-2,-1,-3
1470243546736327,0,0,3,3,-1,-2,-2,0
1470243546736828,-1,0,1,-2,-1,-1,-1,2
1470243546736828,0,0,-4,-2,-1,0,1,0
1470243546758847,-2,-2,2,1,-1,0,-1,0
1470243546758847,-1,3,-3,0,1,-1,2,-2
1470243546759348,-1,-9,-3,0,-2,-1,0,-2
1470243546759348,-1,0,-5,-2,-1,-1,-1,-1
1470243546772860,0,0,5,-2,-1,0,0,0
1470243546772860,-1,-3,3,-2,-1,0,0,0
1470243546781368,-3,3,7,2,-1,-2,-1,-1
1470243546781368,-2,-2,-4,-2,-5,-2,0,-1
1470243546796382,-3,-2,-11,-3,0,-2,-4,-4
1470243546796382,0,-2,-4,-2,0,0,0,-1
1470243546796882,0,0,-5,-2,0,-1,-1,-1
1470243546796882,-3,-3,4,0,-1,-2,-1,-2
1470243546818401,0,2,-2,-1,-2,1,-1,-1
1470243546818401,-4,-6,-3,-6,-3,-1,-3,-2
1470243546819403,-1,0,-1,0,-2,0,0,-1
1470243546819403,1,-1,-2,-2,0,-1,-1,0
1470243546834415,-1,0,-1,-4,-2,-2,1,-2
1470243546834415,-2,-2,-4,-2,-1,-1,-1,-1
1470243546841422,-1,0,1,-2,-2,-2,-2,-1
1470243546841422,-1,-1,-7,-4,-1,-1,-3,0
1470243546856435,-1,0,3,1,0,0,-1,0
1470243546856435,-2,-3,0,-1,-1,-2,1,0
1470243546856936,0,0,-4,-1,0,0,0,-1
1470243546856936,0,0,-1,-2,-1,-2,-1,0
1470243546878957,-3,-1,14,-3,-2,-2,-1,1
1470243546878957,0,-1,-6,0,-2,0,-2,-2
1470243546879458,-2,0,2,-2,0,-2,-1,-1
1470243546879458,-1,-3,-9,2,0,1,-1,-3
1470243546892970,1,0,-3,-5,-2,-1,0,-2
1470243546892970,-4,-2,2,0,-1,-2,-1,-1
1470243546900975,-1,0,-4,0,-3,-2,-1,-1
1470243546900975,0,-1,4,1,-1,-1,-3,-1
1470243546915988,1,-1,-7,1,1,-2,-1,-1
1470243546915988,-2,-3,-2,-1,1,1,0,-2
1470243546916990,-3,-4,-2,-3,-1,-1,-2,0
1470243546916990,-1,1,6,0,-1,-1,-2,-1
1470243546938509,-2,0,3,-1,-2,-1,-2,0
1470243546938509,1,4,-4,-3,-3,-4,-1,0
1470243546939510,-2,-8,-4,-2,-2,-1,0,-3
1470243546939510,0,-1,-1,-2,-1,-1,-1,-1
1470243546953022,-2,-1,-1,1,-1,-2,-3,-1
1470243546953022,-4,0,9,-1,-1,-1,-1,-1
1470243546961029,2,4,-7,-1,-1,0,-2,-2
1470243546961029,-3,-2,2,-1,-2,-3,-1,-1
1470243546976045,-2,-1,-3,1,-1,-2,0,-2
1470243546976045,1,-1,-9,-4,-2,0,-2,-2
1470243546977043,-1,-1,-4,-2,-1,-1,-1,1
1470243546977043,0,-3,9,0,0,0,-1,0
1470243546998563,1,3,3,1,-1,-2,-2,1
1470243546998563,-1,-1,-1,0,-1,-2,0,0
1470243546999564,1,0,-4,1,1,0,-1,0
1470243546999564,-2,-3,-5,-2,-1,0,-1,-2
1470243547021083,-1,-2,-2,-2,-1,-1,-2,-1
1470243547021083,1,-3,-3,-1,-1,1,-2,-2
1470243547037599,-1,-1,-10,-1,-1,1,0,-1
1470243547037599,-1,1,11,2,-2,-2,-2,-2
1470243547039099,-3,0,2,-2,-2,-1,0,0
1470243547039099,-2,-9,-15,0,-1,0,0,0
1470243547040100,0,2,12,0,-1,-2,-2,-1
1470243547040100,-2,1,-6,-1,-2,0,0,-1
1470243547059118,-1,-2,-3,-4,-1,-1,-1,0
1470243547059118,-1,-1,-5,-3,-2,0,0,0
1470243547059619,0,1,-4,0,-1,0,1,-3
1470243547059619,-2,-2,7,1,-3,-2,-1,-2
1470243547081638,-1,-3,-3,0,-2,-1,1,-3
1470243547081638,0,2,-2,-2,1,0,-3,-2
1470243547082639,-1,-1,-3,-2,0,0,-1,0
1470243547082639,-2,0,1,-2,0,-2,-1,-1
1470243547096152,0,-2,-5,0,0,0,0,1
1470243547096152,0,-2,6,1,-2,-2,-1,0
1470243547097151,0,1,4,2,0,0,0,-3
1470243547097151,-1,-1,-6,-6,-2,0,1,0
1470243547118670,1,-1,-4,-2,-1,-1,0,0
1470243547118670,-3,1,2,0,0,-4,-3,0
1470243547119671,0,-2,2,0,-2,-2,-1,1
1470243547119671,0,-7,-9,-1,2,-1,0,-1
1470243547142191,0,2,3,-1,-1,0,-1,-2
1470243547142191,-2,-2,-5,-4,-2,0,1,-2
1470243547142693,-3,-2,14,1,-1,-2,-1,1
1470243547142693,1,2,-4,0,0,-2,-2,0
1470243547156205,-1,-2,-5,-2,0,-1,0,-2
1470243547156205,-4,-2,3,-3,-3,1,0,-2
1470243547157205,-2,0,-7,-3,-2,0,-1,0
1470243547157205,-2,-3,-5,-1,0,0,-1,-1
1470243547178724,-1,-2,11,2,-2,-2,-2,2
1470243547178724,-1,0,2,3,-1,-1,-1,-3
1470243547179725,0,-3,-5,-1,-1,-1,-1,-2
1470243547179725,0,2,-1,-2,-2,-1,-1,-2
1470243547201745,-1,-1,-7,-1,0,-1,0,-3
1470243547201745,-1,-3,1,-4,-1,-2,-1,0
1470243547202747,-3,-2,-2,-2,-3,-1,-1,-2
1470243547202747,-2,-1,-1,-2,-2,-2,-1,0
1470243547224766,-2,-1,-2,0,-2,-1,-1,-1
1470243547224766,-1,0,-3,-1,0,-1,-1,-1
1470243547225268,0,0,-1,-2,0,-1,0,-1
1470243547225268,-2,-2,4,-1,0,-1,0,0
1470243547238779,-3,-3,3,1,-2,0,0,-1
1470243547238779,0,0,-3,3,-1,0,-3,1
1470243547239280,0,-3,-7,-6,-1,-1,-2,-1
1470243547239280,-1,0,-3,0,0,1,-2,-2
1470243547261800,-2,1,2,-2,0,0,-1,0
1470243547261800,0,0,-3,1,-1,-2,0,0
1470243547262799,1,0,-3,-2,-1,-1,1,0
1470243547262799,-1,-3,7,-3,-1,0,0,0
1470243547276314,-2,-2,4,0,-2,0,-2,-1
1470243547276314,1,-3,-1,-2,-1,-2,-2,-1
1470243547276814,-2,-2,4,1,-3,0,-1,0
1470243547276814,-1,-3,-11,-4,-1,1,-1,-2
1470243547298832,0,-3,-6,-3,-1,-1,-1,-2
1470243547298832,0,-1,-1,0,-2,-1,-1,-1
1470243547299333,1,-1,-5,-2,0,-3,-3,-1
1470243547299333,-1,-2,1,-1,-1,1,-2,-1
1470243547321853,-3,-1,-2,-2,-1,-1,0,0
1470243547321853,-2,0,2,1,-2,0,-1,0
1470243547322855,-1,-3,-3,-2,0,0,0,1
1470243547322855,-1,5,13,2,-3,-4,-2,-3
1470243547336365,0,-4,-4,-1,-1,-1,-3,-2
1470243547336365,-1,-4,1,-2,0,0,-1,-2
1470243547336866,-1,1,0,0,0,1,-2,-1
1470243547336866,-1,-3,-1,0,0,-3,-1,0
1470243547358886,0,-4,-10,-6,-1,-2,0,-1
1470243547358886,-1,0,4,-1,0,0,-1,-1
1470243547359388,-2,-1,1,1,1,-1,-2,0
1470243547359388,1,-1,-3,-1,-1,-1,-2,-1
1470243547381907,-1,-1,5,1,-3,-1,-2,-3
1470243547381907,1,0,-11,-3,-3,-2,0,-2
1470243547382408,-1,-2,-5,-2,-1,-1,-2,0
1470243547382408,-4,-1,11,2,1,-1,-1,-1
1470243547396419,-1,0,-3,-1,-1,-1,-2,-1
1470243547396419,0,-2,0,-1,0,1,-3,-1
1470243547396921,-2,-3,-2,-2,-1,-2,-1,-1
1470243547396921,-1,0,-6,0,-1,-1,0,-1
1470243547418940,0,2,-1,-3,-2,0,-1,1
1470243547418940,-1,-2,-2,0,-1,0,-1,-1
1470243547419441,-3,-3,3,0,-2,-1,-1,-1
1470243547419441,0,0,-9,-1,-2,-2,-1,-1
1470243547441980,-2,2,5,-1,-1,-3,-1,-1
1470243547441980,-1,-2,-4,-4,-2,0,-2,-1
1470243547442480,1,2,-1,1,0,-1,0,-2
1470243547442480,0,0,-4,-2,-2,-2,-2,0
1470243547455992,-1,-2,1,1,0,-3,0,0
1470243547455992,0,-2,1,-2,0,-3,-1,-1
1470243547456992,-1,-2,-4,-2,-1,-2,-2,-1
1470243547456992,1,-3,-5,-4,-1,0,-1,0
1470243547478511,-1,-1,1,-2,-2,0,-1,-1
1470243547478511,-1,0,0,-1,-2,0,0,1
1470243547479512,1,0,0,1,-2,0,-1,0
1470243547479512,1,-1,-5,-6,-1,-1,-1,-1
1470243547502032,0,0,2,-1,-2,-3,-1,0
1470243547502032,-3,0,-4,-1,-1,1,-1,-1
1470243547502533,0,-2,13,2,-3,-1,0,-2
1470243547502533,0,4,-3,1,-1,0,-1,-2
1470243547516044,-3,-13,-5,1,0,-1,-1,2
1470243547516044,-2,0,-4,-2,-1,-2,0,0
1470243547517049,-2,-1,-5,-3,-2,-1,-1,-1
1470243547517049,-1,-1,0,1,1,-2,-1,0
1470243547538565,-1,1,1,-2,-1,-1,-2,-1
1470243547538565,-2,-1,1,-1,-2,-2,-1,0
1470243547539566,-1,-3,-7,-3,-1,-1,-1,-1
1470243547539566,-1,-2,2,-2,-1,-1,1,-1
1470243547562086,-2,-2,1,-1,-3,-1,1,-3
1470243547562086,-2,-2,1,0,1,-3,-2,0
1470243547562587,-1,0,-1,0,-1,-3,-2,-2
1470243547562587,-1,-3,-7,-3,-3,-2,-1,1
1470243547576099,-1,2,3,-2,-1,2,-2,-1
1470243547576099,-1,1,2,-1,1,-1,1,-2
1470243547577100,-1,-1,-4,-1,0,-1,0,0
1470243547577100,-2,-1,3,1,-1,-2,-2,-1
1470243547598620,2,4,-1,2,0,-1,-1,1
1470243547598620,-1,-5,2,-1,-4,-1,-2,-4
1470243547599619,-3,0,-2,-1,-1,1,-1,0
1470243547599619,-1,-2,-2,-1,0,0,-1,-1
1470243547622140,0,1,-5,-2,-1,2,-1,1
1470243547622140,-1,1,-2,-1,1,-1,-1,-1
1470243547622641,-3,-2,10,2,-2,0,1,-2
1470243547622641,-3,4,3,0,-2,-1,-2,-1
1470243547635653,-2,-4,-5,0,-2,-3,0,-2
1470243547635653,1,-2,-10,-3,-2,-1,-1,-1
1470243547643659,0,1,-1,-4,-2,-2,-1,-1
1470243547643659,-3,-2,6,0,-2,0,-2,-4
1470243547666681,-1,-1,0,1,0,-1,-2,0
1470243547666681,1,-2,-5,0,-1,0,-1,1
1470243547667681,-1,-3,-6,0,0,-3,-1,-1
1470243547667681,0,-2,2,-5,0,0,-1,0
1470243547681693,0,0,2,-1,-1,-2,-1,-1
1470243547681693,-2,0,-3,-3,0,-1,0,0
1470243547682694,1,-3,-1,0,-2,0,-2,-1
1470243547682694,-3,-3,-5,0,-2,-2,-1,-1
1470243547695706,0,0,-4,-1,-1,-2,-1,-1
1470243547695706,-1,0,7,1,0,0,-2,-2
1470243547703712,0,3,-3,-1,0,-1,-2,-2
1470243547703712,-1,-11,-2,-1,-2,-1,0,-4
1470243547718727,-1,0,1,-2,-2,0,-2,0
1470243547718727,-2,-3,-3,-1,-1,-3,0,-1
1470243547719727,0,0,1,-1,-1,1,-1,1
1470243547719727,2,1,-7,-2,-2,-1,-1,0
1470243547742249,-2,-1,0,0,-3,-1,-2,-3
1470243547742249,-1,-1,-3,-1,-2,-2,0,-3
1470243547743249,-1,1,-3,-1,0,-1,-2,-1
1470243547743249,-1,1,1,-2,0,-3,0,3
1470243547755760,-2,-2,9,1,-2,-3,0,-2
1470243547755760,-1,1,-3,-1,-2,0,-2,0
1470243547763767,0,-3,-2,-2,0,-1,1,-1
1470243547763767,-2,-2,-13,-3,-1,2,-2,-3
1470243547778780,-1,0,-4,1,0,0,-1,-1
1470243547778780,-1,-1,7,2,0,-1,0,-1
1470243547779782,1,-1,-4,-1,-2,-2,-1,-2
1470243547779782,-7,0,1,0,0,-3,-1,0
1470243547801802,2,-3,-4,-3,0,1,-1,-1
1470243547801802,-3,-2,3,-1,-3,-2,-1,1
1470243547802802,-2,-2,0,0,-2,0,-1,0
1470243547802802,0,3,1,3,-1,-1,-1,-1
1470243547815314,-2,1,-7,-4,0,0,-1,-1
1470243547815314,1,0,-6,-4,-1,1,0,-1
1470243547823822,-1,-1,19,4,-2,-2,-1,0
1470243547823822,2,0,-1,1,-2,-2,2,0
1470243547838834,-6,-2,-5,0,-3,0,-1,-3
1470243547838834,-2,-3,-5,-3,0,0,0,-1
1470243547839335,-3,2,-10,-4,-1,-3,1,-1
1470243547839335,-2,-7,11,1,-1,-2,-1,-2
1470243547861855,2,3,-2,-1,-2,-2,1,1
1470243547861855,1,2,-3,-2,0,-1,-1,-1
1470243547862356,-6,-3,2,-1,1,-1,-2,-3
1470243547862356,0,0,-8,-3,1,1,-1,-1
1470243547875368,-1,-3,1,-3,-2,-1,1,-1
1470243547875368,2,-1,6,2,-2,-2,-1,-1
1470243547883874,-6,2,-5,-1,-1,0,-1,0
1470243547883874,3,-2,-2,1,-1,-1,0,0
1470243547898888,0,-3,-3,-5,1,0,0,-2
1470243547898888,1,0,0,-1,-1,0,-2,0
1470243547899389,3,-1,-6,1,-1,-1,-1,-1
1470243547899389,-1,3,4,1,-2,-1,-1,-1
1470243547921909,-3,-2,-1,2,0,-2,-2,-2
1470243547921909,0,0,-4,-2,0,-1,-1,-2
1470243547922409,-2,-5,4,-3,-1,-1,-2,-2
1470243547922409,-1,-2,-6,0,-1,0,0,-2
1470243547935422,2,0,-1,0,-1,-1,-2,-1
1470243547935422,-4,-2,0,-1,-2,0,-1,-1
1470243547943928,1,0,-6,-1,0,-1,0,-1
1470243547943928,-1,0,1,-2,-1,-1,-2,-1
1470243547958442,-1,-3,6,4,0,-1,-2,-2
1470243547958442,5,1,-1,-5,-1,-2,0,0
1470243547959442,-5,0,3,2,-2,-1,0,2
1470243547959442,2,-1,0,-2,-1,0,-1,0
1470243547981963,-6,-1,-4,-2,0,-2,0,1
1470243547981963,-3,-2,-10,0,-2,-1,0,-1
1470243547982964,3,-1,5,-3,0,1,-1,0
1470243547982964,-1,0,2,0,0,0,1,1
1470243548004484,-1,-2,1,0,-3,-1,-3,-2
1470243548004484,0,1,-1,-1,-1,-2,-1,-3
1470243548004984,-3,-5,-4,0,1,0,-1,0
1470243548004984,-1,3,-6,-3,0,-1,-1,-1
1470243548027003,1,-2,2,1,0,-1,-1,1
1470243548027003,-3,-2,3,-2,-1,0,-2,0
1470243548027504,-3,0,-4,-1,-1,-1,-1,-1
1470243548027504,-1,-4,-7,-2,-1,-1,-2,0
1470243548042016,-3,-2,0,0,0,-2,1,1
1470243548042016,-4,-1,7,3,-1,-1,-1,-1
1470243548042517,6,1,-4,-1,-3,-2,-1,0
1470243548042517,-4,-4,-13,-5,-1,-2,-1,0
1470243548064537,0,1,1,-2,0,0,-3,-1
1470243548064537,-3,2,18,5,-3,-3,-1,0
1470243548065037,-1,0,-5,-1,-1,0,0,-1
1470243548065037,-2,-4,-1,-1,-1,-1,-1,-1
1470243548078550,1,-1,-11,-2,-1,0,0,0
1470243548078550,1,-1,-4,-3,0,0,-2,0
1470243548079551,-1,-1,0,-1,-3,-1,-1,-2
1470243548079551,-1,-1,2,0,-3,-1,-2,-2
1470243548109577,-6,-2,-1,-2,-1,-2,-2,0
1470243548109577,0,-5,-1,0,-2,-1,-2,-2
1470243548110078,-1,-2,-2,-1,-1,-1,-1,-1
1470243548110078,3,-1,1,-1,0,0,1,-1
1470243548124591,-6,-2,0,1,-2,-1,-1,1
1470243548124591,2,2,-9,-3,-1,-2,0,-2
1470243548125092,-7,-8,-1,1,-2,1,-1,1
1470243548125092,5,3,12,4,-1,-1,0,-2
1470243548138605,-18,-5,-11,-7,-1,-3,-2,-3
1470243548138605,9,-2,-2,0,-2,0,0,1
1470243548139605,-17,0,4,3,-1,-3,-2,-4
1470243548139605,0,0,-2,-4,1,0,-1,-1
1470243548161624,2,-11,-3,-2,-1,1,0,0
1470243548161624,3,20,-10,-2,0,1,0,1
1470243548168631,0,-28,-6,-2,0,-1,-1,-1
1470243548168631,-1,19,8,4,-3,-1,-2,-1
1470243548184145,-1,-15,1,-4,-5,0,-1,-1
1470243548184145,-9,-20,-12,-14,-1,0,-2,-1
1470243548185146,4,17,2,-3,-3,-2,-3,1
1470243548185146,2,1,-5,2,-1,-1,-1,-2
1470243548198657,3,0,2,2,0,0,0,-1
1470243548198657,-2,6,5,7,-2,-3,-3,0
1470243548199658,2,-3,-5,-4,0,0,0,0
1470243548199658,-5,-20,-3,-5,0,-2,-1,-1
1470243548221677,-1,11,0,10,0,-1,0,-2
1470243548221677,2,-5,3,-11,-2,-1,-1,-2
1470243548222679,-1,6,-6,-1,-1,0,-2,0
1470243548222679,-7,-3,5,-1,0,0,-1,1
1470243548244199,14,4,6,2,-2,-3,0,2
1470243548244199,-28,-6,-2,-5,-1,-2,-1,-5
1470243548245200,3,8,-5,1,-1,-2,-1,-3
1470243548245200,-1,-7,-4,-8,-1,0,-2,-2
1470243548258712,1,2,-10,-1,1,-2,-1,0
1470243548258712,7,2,22,7,-2,-2,-1,1
1470243548259213,0,-16,-22,-2,-1,-1,-1,0
1470243548259213,-6,13,5,2,-1,0,-3,-1
1470243548281732,-7,-13,1,-8,0,0,-2,-3
1470243548281732,8,8,-9,4,0,0,0,1
1470243548282734,-10,-3,12,-1,-1,0,0,0
1470243548282734,2,9,5,2,-4,-2,0,0
1470243548304252,6,-19,2,-9,-1,0,-1,1
1470243548304252,8,-2,-12,3,-2,0,0,-1
1470243548305253,-24,-13,-13,-6,-3,-2,-4,-5
1470243548305253,-3,4,-13,0,-1,-3,-1,-1
1470243548318765,3,11,8,-3,-2,0,-1,-1
1470243548318765,-2,-4,22,5,-1,1,-1,1
1470243548319266,11,3,-9,-2,-2,0,-1,3
1470243548319266,-3,-6,-9,-1,-2,-3,0,-3
1470243548341786,-9,2,-8,-5,-2,-2,-1,-2
1470243548341786,0,-2,5,14,-4,-1,-1,-1
1470243548342788,9,5,1,-15,0,0,0,1
1470243548342788,3,-4,-8,0,-2,-1,0,1
1470243548364307,0,1,-8,3,2,2,-1,1
1470243548364307,-7,0,-4,-9,-1,-3,-1,-3
1470243548365307,8,8,10,8,-2,-1,-1,-1
1470243548365307,-10,-10,-16,5,3,-1,0,-1
1470243548378819,4,2,0,-5,2,0,1,0
1470243548378819,-5,-7,-1,3,1,-1,-2,-1
1470243548379321,-2,8,0,1,-3,-1,-1,-3
1470243548379321,6,-14,-15,-17,-2,-1,-1,0
1470243548401839,-9,6,9,2,-3,-1,-1,-4
1470243548401839,-7,1,-4,-5,-1,-1,0,0
1470243548402841,7,4,-2,6,0,0,2,0
1470243548402841,1,-2,-1,1,0,-1,-1,-2
1470243548424361,0,5,0,4,-1,-1,0,-1
1470243548424361,1,-2,-5,-11,-4,-2,0,0
1470243548425362,-3,-6,-5,8,-1,-2,-3,-2
1470243548425362,1,-5,6,-6,-2,0,1,0
1470243548438872,-8,11,8,3,0,0,0,-2
1470243548438872,-1,-8,-3,-4,-1,-2,0,-3
1470243548439373,-6,-1,8,11,-1,-3,-3,-2
1470243548439373,-3,-7,-37,-17,-2,-1,-2,0
1470243548461893,7,10,1,8,-1,-3,-1,2
1470243548461893,10,-4,-6,-6,-1,-1,1,-1
1470243548462394,1,-1,12,-3,-1,-1,-1,0
1470243548462394,0,4,10,1,-2,-1,0,-1
1470243548484413,-4,-4,-17,-2,-4,-2,-1,1
1470243548484413,-4,-32,-11,7,2,0,0,0
1470243548484915,7,30,7,-2,-1,-3,0,1
1470243548484915,-2,-1,16,2,-1,-1,-2,0
1470243548498427,2,-8,-6,-3,-1,-2,-1,-1
1470243548498427,0,2,-1,3,-1,0,-2,0
1470243548499428,-2,-14,-7,-6,0,1,-1,-3
1470243548499428,3,6,13,-7,0,-3,-1,0
1470243548521947,-4,-4,8,-1,0,-1,0,0
1470243548521947,-10,-7,-9,-2,-3,-1,-2,-2
1470243548522449,-1,-3,3,8,-2,0,-1,-1
1470243548522449,-1,8,4,7,2,-1,0,-3
1470243548544469,4,-14,-14,-12,-3,-1,0,-3
1470243548544469,7,11,10,1,1,-1,-2,1
1470243548544969,-9,-3,0,3,0,-1,1,-1
1470243548544969,6,-6,-2,2,-2,-2,-1,0
1470243548558481,-15,2,1,7,-3,-2,-1,-4
1470243548558481,0,10,-6,-1,-1,0,-3,-1
1470243548559482,-3,-22,-3,-18,-2,-1,1,-2
1470243548559482,-4,6,0,1,-3,0,-2,-2
1470243548582001,3,0,0,0,-3,-1,-2,-1
1470243548582001,-3,7,1,-1,-2,0,-1,-2
1470243548582502,-5,-6,0,5,2,-2,-2,0
1470243548582502,-5,-5,9,-6,-1,-1,-2,0
1470243548604521,8,-1,-4,1,-3,-2,-3,2
1470243548604521,-9,1,6,0,-1,-1,-1,-3
1470243548606023,2,-1,-9,1,0,-1,0,1
1470243548606023,-4,-8,3,-7,0,0,0,-2
1470243548618035,10,3,7,1,-1,0,-1,-1
1470243548618035,-4,-4,-4,-4,-2,-1,-1,-2
1470243548627042,0,5,-4,-9,-3,0,0,-2
1470243548627042,-6,6,-10,8,0,-1,-2,-1
1470243548642059,-2,-6,5,10,-2,-3,-2,1
1470243548642059,1,1,-5,-15,1,-2,1,0
1470243548643559,-3,-4,-4,-6,-4,-1,-2,-2
1470243548643559,0,2,3,1,-2,0,-2,-2
1470243548664576,-2,-4,-7,-3,0,1,-1,-2
1470243548664576,5,0,5,10,-1,-2,-1,1
1470243548666078,-2,5,-2,-1,-2,-2,-1,-2
1470243548666078,-2,-6,1,-10,1,0,-1,-2
1470243548678089,-5,-4,-2,-2,-2,0,-1,-2
1470243548678089,-7,-2,0,4,-3,-2,-1,-1
1470243548687096,12,0,-2,-2,0,1,0,2
1470243548687096,-2,-1,3,3,-3,-2,0,-2
1470243548702109,-6,-4,-4,-4,1,-1,-1,-1
1470243548702109,-1,9,-6,-1,-1,0,0,0
1470243548703611,-1,-5,1,-8,-1,-2,-3,-3
1470243548703611,-5,-9,-9,-6,-2,-3,0,0
1470243548724129,1,4,-1,-10,-2,1,-1,1
1470243548724129,-4,1,4,1,-1,0,0,1
1470243548726131,7,0,5,8,-1,-1,-1,1
1470243548726131,1,5,0,5,0,-1,-1,1
1470243548738157,-8,-8,-4,-6,1,-2,-1,-3
1470243548738157,0,4,0,0,0,-1,-1,-1
1470243548747149,0,-4,-3,-4,0,0,-1,-1
1470243548747149,0,-3,2,6,-2,-1,-2,-3
1470243548762165,-1,2,4,-1,1,0,0,-2
1470243548762165,-1,-5,-5,-2,-1,-2,0,-3
1470243548763667,-4,3,-2,-1,-1,-2,-2,-1
1470243548763667,2,-3,-4,-2,-4,-2,-1,-1
1470243548784683,1,1,-7,1,0,0,-1,-3
1470243548784683,-3,-3,5,4,0,-2,-2,0
1470243548786185,-5,1,-2,-20,2,-1,-2,-1
1470243548786185,-2,1,7,6,-1,0,0,0
1470243548798196,0,4,-1,-9,-2,-2,0,-1
1470243548798196,-2,-7,-18,-6,-3,0,-2,-3
1470243548807205,-1,-1,-4,8,-2,1,0,0
1470243548807205,3,-4,19,7,1,0,0,1
1470243548822233,-10,-1,-11,-6,1,-2,-2,0
1470243548822233,4,-3,-2,0,-1,-2,0,-2
1470243548823719,-4,-19,-8,-4,-6,-3,-2,-2
1470243548823719,-5,0,5,-1,1,-2,-3,-4
1470243548844739,1,0,-6,-6,-4,-2,0,1
1470243548844739,-1,-5,0,2,0,-2,0,-1
1470243548845739,4,-1,-8,-5,0,-2,1,0
1470243548845739,1,2,-2,-6,-3,-1,-1,-1
1470243548858250,2,-4,1,5,0,-1,0,-1
1470243548858250,-2,1,6,-8,-2,0,-1,-3
1470243548867260,0,-2,6,8,-3,-1,0,1
1470243548867260,-1,-6,-8,-1,0,-1,-1,-2
1470243548889278,-3,-4,-2,2,1,-1,-3,-4
1470243548889278,-1,13,-7,-10,0,1,0,-1
1470243548890779,0,2,17,7,2,-2,0,-1
1470243548890779,-1,-4,-9,-3,-2,-1,-3,1
1470243548904291,5,-3,-2,3,-2,-1,-1,-2
1470243548904291,-7,-3,0,-3,-3,0,-2,-2
1470243548905792,-2,1,-18,-20,-2,-2,-1,-3
1470243548905792,3,7,-8,-1,1,1,2,-1
1470243548926825,4,3,-7,3,0,-1,-2,0
1470243548926825,-7,-2,0,3,-1,0,-2,-2
1470243548928326,1,2,5,3,0,0,-3,-2
1470243548928326,0,-3,0,0,-1,-1,1,-1
1470243548941854,4,5,3,-3,-4,0,-1,-1
1470243548941854,1,-6,-1,4,0,-2,0,-2
1470243548943340,-1,3,-2,0,1,0,0,0
1470243548943340,-5,-2,-2,7,-2,-2,-1,-2
1470243548964357,-2,2,8,6,0,0,-1,-1
1470243548964357,1,-1,-3,6,1,-1,-2,0
1470243548965859,-3,-9,13,1,2,0,0,0
1470243548965859,-4,-8,-23,-20,-1,-1,0,2
1470243548986905,-2,18,7,1,-1,-1,0,-1
1470243548986905,-2,-3,2,5,-1,-3,-1,0
1470243548988379,8,-4,-7,5,1,0,0,-1
1470243548988379,-4,0,4,-4,-3,0,-1,-2
1470243549001916,-2,-8,1,-6,-2,-2,0,-2
1470243549001916,8,-2,1,0,0,-1,-1,0
1470243549003394,-10,6,1,3,-2,0,0,-2
1470243549003394,-7,-4,6,8,-2,0,0,-1
1470243549024413,3,1,-6,-1,1,-1,-2,-1
1470243549024413,7,-5,2,-14,-4,0,1,1
1470243549025913,-5,0,10,1,-2,-2,-2,-1
1470243549025913,-1,1,-9,3,0,-1,-3,0
1470243549046934,-4,5,7,-8,-3,-1,2,0
1470243549046934,-5,-20,-10,6,2,0,-2,-1
1470243549048433,1,17,4,-2,-2,1,-1,-3
1470243549048433,-2,1,2,0,-1,0,-1,-1
1470243549061967,-1,-1,-4,1,-1,0,-2,1
1470243549061967,-1,1,7,-4,-1,-2,-2,0
1470243549063447,-3,-11,-11,-6,-5,-2,0,-1
1470243549063447,5,-3,-1,-3,-2,-1,-3,-1
1470243549084479,-5,-8,-5,5,3,0,-1,0
1470243549084479,-5,4,6,1,-3,0,-1,0
1470243549085967,0,-6,-8,-1,0,0,-2,1
1470243549085967,2,7,3,-7,0,-1,0,-2
1470243549106986,-2,-6,-1,-1,-2,-1,0,-3
1470243549106986,-1,7,2,-2,-2,-1,-1,1
1470243549108488,-3,-1,2,14,-2,-1,-2,0
1470243549108488,-1,-12,-9,-9,1,-1,-2,-2
1470243549121499,0,-11,4,0,-2,-1,-1,0
1470243549121499,0,20,-10,-4,2,1,0,-3
1470243549128006,0,-4,-2,-4,-4,-2,-1,-3
1470243549128006,0,2,10,3,-1,-3,-1,-1
1470243549144532,-2,-13,-5,-1,-2,-2,-1,-1
1470243549144532,1,-4,-6,-6,0,-3,-1,-2
1470243549146021,0,-5,-8,-3,2,0,-1,0
1470243549146021,-1,3,4,5,0,-1,1,-2
1470243549167040,-3,-5,-2,-1,-1,-2,-2,-1
1470243549167040,-1,-6,-6,-3,1,-1,1,-1
1470243549168541,0,4,-2,4,0,0,-2,-1
1470243549168541,-1,4,2,-11,-2,-1,-1,-1
1470243549181054,-3,0,10,12,-1,-2,-2,0
1470243549181054,-1,-1,-2,-8,0,0,1,0
1470243549188060,-4,0,1,1,-1,-1,-3,0
1470243549188060,1,2,-11,-2,0,0,-1,-2
1470243549204573,1,-1,-2,-5,-1,0,-2,-2
1470243549204573,-5,-1,-4,13,-2,0,-1,-3
1470243549206075,1,1,-1,-11,1,1,-2,-2
1470243549206075,-1,-2,-7,-2,-1,-2,-1,-1
1470243549227093,-3,-3,-1,-5,-2,-1,0,0
1470243549227093,-2,-7,1,1,-1,-1,-2,-1
1470243549228595,0,1,0,0,-1,-3,-1,-4
1470243549228595,-2,-9,0,20,-1,-1,-3,-2
1470243549241608,-1,-1,-7,-29,-3,0,-1,-2
1470243549241608,-1,-7,5,5,0,-1,-3,-3
1470243549248128,2,-4,-3,-3,0,-2,0,0
1470243549248128,-9,-2,-5,3,1,-1,-1,-1
1470243549264627,0,3,3,11,-2,0,-1,0
1470243549264627,1,3,1,-11,-2,0,0,-1
1470243549266128,1,-15,-3,-2,-2,0,-1,0
1470243549266128,-8,13,12,-3,-3,-1,-2,-2
1470243549287147,-3,1,-9,10,2,0,-2,-3
1470243549287147,5,-2,2,-15,-4,-2,1,0
1470243549288650,-22,-5,-3,7,-1,0,1,-6
1470243549288650,13,-4,-2,-13,-2,-3,0,2
1470243549301161,-4,4,1,7,-1,-2,-2,-1
1470243549301161,-1,-2,3,-10,-3,-2,-2,-2
1470243549308166,3,4,-8,4,1,-1,0,2
1470243549308166,-1,-4,-8,9,-4,-1,0,-3
1470243549324682,-9,-1,0,-6,1,-1,-2,-2
1470243549324682,4,-1,2,9,-1,1,-1,1
1470243549326183,12,6,-5,-13,-3,-2,-1,3
1470243549326183,-16,-6,-3,-3,-1,-1,-1,-3
1470243549346700,6,-1,-1,3,-2,-1,-1,1
1470243549346700,-6,5,3,2,0,0,0,-2
1470243549348203,-2,-1,1,-7,-2,0,-2,-1
1470243549348203,6,-14,-4,-2,0,-2,-3,1
1470243549361213,3,14,-1,-14,-3,-3,-2,0
1470243549361213,-4,-8,-7,7,2,-1,-1,-1
1470243549368221,-1,6,11,18,-3,-3,-1,-2
1470243549368221,2,-6,1,-8,2,-1,0,-1
1470243549384234,0,2,1,0,-2,-1,0,-1
1470243549384234,-2,-9,-9,-7,-3,-1,0,2
1470243549386236,2,2,-2,0,1,0,0,0
1470243549386236,-1,2,1,5,-2,1,-1,-1
1470243549406754,-2,-8,5,-6,0,0,0,0
1470243549406754,3,0,2,-1,-2,-2,-2,-1
1470243549408257,-14,5,-4,-4,1,-3,-2,-2
1470243549408257,-2,-9,-7,-13,-2,-1,-2,-3
1470243549420767,-1,0,5,8,-2,-3,0,-5
1470243549420767,-3,3,-2,5,0,0,-2,1
1470243549429275,8,-8,1,-8,1,0,-1,1
1470243549429275,-5,7,-3,-1,-3,-2,-2,1
1470243549444288,2,-1,-11,-3,2,1,-1,1
1470243549444288,-3,2,1,-1,-2,-2,1,-1
1470243549445790,-2,-3,-2,2,1,-3,-1,0
1470243549445790,0,-4,0,-11,0,1,0,0
1470243549466809,3,-6,-3,3,-1,1,-1,-2
1470243549466809,-17,2,-1,0,-3,-2,-2,-3
1470243549468310,2,-10,-13,-10,-1,1,-1,0
1470243549468310,1,10,12,-3,-2,-2,0,1
1470243549480821,-6,-3,0,4,-1,0,0,-1
1470243549480821,3,-1,-9,-4,1,-1,0,-1
1470243549496836,2,1,-4,2,-5,0,-1,0
1470243549496836,-3,-7,3,-1,-1,-3,-2,-1
1470243549504342,-6,-2,4,0,0,-2,-2,-1
1470243549504342,-1,8,0,0,-3,1,-3,-2
1470243549505844,-5,1,3,-5,-1,0,-1,1
1470243549505844,7,-14,-5,4,-1,-1,1,-2
1470243549526862,0,-4,-2,-11,-6,-3,-1,-1
1470243549526862,-2,-6,-4,2,1,-1,1,-2
1470243549528864,2,8,5,1,-1,-3,-1,-3
1470243549528864,1,-2,2,5,-2,-1,1,0
1470243549540375,-9,-4,-3,-4,0,-1,-2,0
1470243549540375,1,-2,3,-7,-3,-4,-1,-2
1470243549549383,0,-3,-4,8,0,0,-1,1
1470243549549383,0,10,-3,1,1,-1,0,-2
1470243549564396,-1,-5,-6,-4,-4,-1,-1,-1
1470243549564396,1,-2,-5,-5,2,0,0,1
1470243549565898,-4,0,11,3,-4,-1,-2,-2
1470243549565898,-3,-3,-4,6,0,-1,0,-2
1470243549586916,2,5,-1,-5,2,-1,1,-3
1470243549586916,0,8,-6,0,-2,0,-3,0
1470243549588418,1,-2,0,-7,-4,-1,-1,-2
1470243549588418,-4,-7,-1,-6,-2,0,-3,-2
1470243549600429,4,5,-4,-3,-1,0,1,2
1470243549600429,2,-5,7,8,0,-1,-2,0
1470243549609437,-6,-3,2,1,2,-1,-1,-1
1470243549609437,0,13,-8,-4,0,2,0,0
1470243549624451,-1,-17,0,-1,-1,-2,-2,-1
1470243549624451,0,-9,-8,8,-4,-4,0,-2
1470243549625952,7,4,3,-12,-1,0,-1,-1
1470243549625952,-9,-3,1,2,1,0,-1,-3
1470243549646970,1,1,-1,-1,-1,-1,-1,-1
1470243549646970,-3,1,0,-3,-3,1,-1,-1
1470243549648472,-4,-5,-5,1,-2,-2,-1,-2
1470243549648472,1,2,7,-4,-4,0,0,0
1470243549660483,-1,-8,-5,-2,0,-1,-1,0
1470243549660483,-2,-1,0,-3,-3,-1,-1,-1
1470243549669491,-1,-10,-6,1,1,1,-1,-1
1470243549669491,2,20,0,8,-1,-1,-2,-1
1470243549684504,-1,0,-1,-5,-1,0,-1,-2
1470243549684504,-1,-6,4,-4,1,0,0,0
1470243549686005,-1,-3,-4,-2,-1,0,0,-1
1470243549686005,0,-3,-1,4,0,-1,-1,-1
1470243549707024,1,5,-1,2,-1,1,-3,0
1470243549707024,1,-2,-4,-5,0,-1,-1,-1
1470243549708527,-3,0,1,4,1,-1,-3,0
1470243549708527,1,3,1,6,1,-1,0,0
1470243549720536,-4,-6,0,-4,-2,-1,-2,-2
1470243549720536,1,1,-2,-2,0,-2,-1,0
1470243549729545,-3,0,4,-1,-3,-1,-1,-1
1470243549729545,-1,-4,-4,0,-1,-2,0,1
1470243549744558,0,6,-5,1,0,0,-1,2
1470243549744558,-2,-2,10,-2,-1,0,-2,-2
1470243549746060,-2,0,-1,-2,-3,-3,0,-1
1470243549746060,-1,-4,-9,-5,-2,0,-2,-1
1470243549767079,2,4,2,11,-1,-1,-1,-2
1470243549767079,-1,-2,-2,-7,2,-2,-1,-2
1470243549768580,-1,3,-2,0,-2,1,-1,-2
1470243549768580,-1,-4,-1,-13,-2,-2,0,-1
1470243549780590,0,-7,-4,-1,-1,-3,1,0
1470243549780590,0,16,0,4,-1,-1,-1,-1
1470243549789600,-2,0,-2,1,0,1,-1,-1
1470243549789600,-2,-15,-4,3,-2,-2,-1,-1
1470243549804112,-3,1,7,-2,-2,-2,-1,-1
1470243549804112,2,-4,-8,-3,-2,-2,-1,-1
1470243549810617,-2,1,-5,-5,0,-2,0,-2
1470243549810617,-3,-14,-6,1,-1,-2,-1,-2
1470243549826632,-1,4,-2,0,0,-1,-2,-2
1470243549826632,-2,-5,0,1,-2,0,-2,0
1470243549828633,1,3,5,-5,-2,0,-2,-1
1470243549828633,2,0,12,0,0,1,0,-1
1470243549840645,-2,3,-5,-1,-1,2,-1,0
1470243549840645,1,-4,-4,-1,1,-2,0,0
1470243549849652,0,2,-2,2,-1,-1,-2,-2
1470243549849652,-3,-3,1,-2,0,0,-2,-1
1470243549864667,1,-3,-6,4,-1,-2,-1,-1
1470243549864667,-1,-3,-2,-8,-1,-1,-1,-1
1470243549866167,-2,-12,3,6,2,0,1,1
1470243549866167,0,17,-6,-3,-2,-1,-1,-1
1470243549887200,-2,-9,6,-2,0,0,-2,-4
1470243549887200,-2,-1,1,5,-2,-1,-3,-1
1470243549888688,-1,-20,-11,-6,-3,-2,-2,-1
1470243549888688,1,6,1,-1,0,0,0,0
1470243549916713,0,9,4,0,-1,-1,-1,1
1470243549916713,-2,-13,-2,6,1,-2,0,-2
1470243549918229,-2,2,3,-3,-3,-1,-2,-2
1470243549918229,0,1,-1,12,1,-2,-2,0
1470243549924720,0,7,-8,-17,-1,-3,0,-3
1470243549924720,0,2,1,0,-1,0,1,0
1470243549926221,2,-4,-2,3,-2,-1,-1,-1
1470243549926221,-4,4,-4,-8,-1,1,-1,-4
1470243549946764,0,-8,6,7,-1,-2,0,-3
1470243549946764,0,2,1,6,2,-1,-1,-2
1470243549948241,-6,4,-7,-11,-1,-1,-2,0
1470243549948241,3,1,1,-2,-2,-3,-2,0
1470243549969760,-1,1,-6,2,1,-1,-1,-1
1470243549969760,-1,-3,6,-2,-4,-1,-2,1
1470243549971262,1,3,-10,3,-1,-3,1,-1
1470243549971262,-2,2,2,-5,-1,-1,-1,0
1470243549984273,-4,-11,-2,1,-3,-1,-1,0
1470243549984273,0,4,-4,-2,-3,-1,0,-1
1470243549985775,1,5,5,-6,0,-2,-1,-1
1470243549985775,-3,-6,-11,-14,0,1,-1,2
1470243550006823,-4,-6,6,10,-1,-1,-1,-1
1470243550006823,-1,-4,0,-5,-3,1,0,-2
1470243550008295,1,3,-1,0,3,0,1,-1
1470243550008295,5,-7,-5,-3,-3,-1,0,-4
1470243550029893,-6,7,-2,-3,-2,-1,-1,0
1470243550029893,13,2,6,-2,-2,-2,-2,-1
1470243550030817,-4,-1,-2,-1,-2,-1,0,-2
1470243550030817,-2,-5,-1,11,2,-3,-1,-1
1470243550043858,5,9,-5,-12,-1,-2,-1,-2
1470243550043858,-3,-8,0,1,0,-1,0,0
1470243550050833,4,6,3,-10,-4,-2,-1,-2
1470243550050833,-12,-17,-2,1,1,1,-2,1
1470243550066851,3,0,-3,4,-2,-1,0,-1
1470243550066851,-3,1,-7,-2,0,-1,-3,0
1470243550068350,0,-1,0,-1,-2,0,-2,-2
1470243550068350,1,0,6,-1,-4,0,-1,0
1470243550089415,-1,2,2,-2,-2,0,-1,-1
1470243550089415,-7,-6,-12,-6,-3,-3,-1,-2
1470243550090872,-4,-4,-5,8,5,0,-1,0
1470243550090872,1,8,8,-3,-4,-2,0,-3
1470243550103881,1,-4,2,7,-1,-1,-2,-2
1470243550103881,-1,-1,-5,-12,-2,-1,-1,-1
1470243550110404,-2,0,-1,-6,-1,0,0,1
1470243550110404,-1,-5,2,8,-1,-1,-1,-2
1470243550126944,2,8,1,-6,-1,-1,1,0
1470243550126944,-5,-12,1,0,-1,0,0,-1
1470243550128403,-1,-9,-3,1,0,-1,-2,1
1470243550128403,1,22,-1,-4,-5,-1,0,-1
1470243550149534,-3,-13,-1,-2,0,0,-1,0
1470243550149534,1,4,-2,6,-2,-2,-2,-1
1470243550150925,-5,-5,-1,-5,-1,-1,1,-1
1470243550150925,3,6,3,1,-2,-3,-2,0
1470243550163935,-3,-5,-4,-7,-2,-1,0,-1
1470243550163935,-4,3,0,-6,1,-1,-2,2
1470243550170941,1,-4,-3,2,0,0,-1,-1
1470243550170941,-1,-1,1,1,-2,-1,-1,-1
1470243550187012,-1,-6,-6,1,0,-2,-2,-1
1470243550187012,-1,1,7,-7,-3,0,-1,-3
1470243550188457,-2,4,2,2,-2,-3,-2,-2
1470243550188457,0,-1,-5,-8,0,1,0,-1
1470243550209475,-2,2,1,2,-1,0,0,-2
1470243550209475,0,-2,-5,3,4,1,0,-1
1470243550210980,1,12,0,1,-3,-3,-2,-1
1470243550210980,0,-8,-8,-8,0,-1,0,-1
1470243550223989,-5,-9,2,11,-4,-1,-2,0
1470243550223989,-5,3,0,-6,-3,-4,-2,-1
1470243550230517,9,0,-1,-6,0,-1,-1,-1
1470243550230517,-2,-7,-10,-4,1,1,1,-2
1470243550247009,1,5,8,-6,-2,0,-1,0
1470243550247009,-2,-2,1,11,1,-1,-1,-2
1470243550248511,4,3,-3,-5,-3,-1,-1,-1
1470243550248511,-6,-5,0,-3,-1,-2,-1,-2
1470243550269033,-2,-1,-5,-5,0,0,-1,-2
1470243550269033,0,2,-1,4,-1,1,-1,-2
1470243550275536,-3,0,8,9,0,-1,0,0
1470243550275536,3,-6,-7,-2,0,-1,-1,-2
1470243550284042,-4,-2,-2,-2,-2,-3,0,-2
1470243550284042,1,1,4,0,-1,0,-1,1
1470243550290567,-4,-8,-1,-5,-1,-1,-1,-4
1470243550290567,-1,3,7,-1,-2,0,0,1
1470243550307189,0,-5,-11,0,2,0,-2,-1
1470243550307189,2,2,-8,-14,-3,-1,-1,-2
1470243550308564,-5,-8,2,3,0,-1,0,0
1470243550308564,0,0,4,1,-2,0,-3,-1
1470243550329583,0,2,1,2,2,0,0,0
1470243550329583,-1,-1,-1,-2,-4,-2,1,-1
1470243550331090,-2,-2,-4,4,4,0,0,-2
1470243550331090,-2,-3,-3,4,-1,-4,-2,-1
1470243550344096,1,5,8,-9,-1,-4,-1,0
1470243550344096,-2,-19,-9,-2,-1,-1,-1,-1
1470243550350602,-3,2,0,1,-3,0,-2,-1
1470243550350602,2,3,-5,0,-1,-1,-2,0
1470243550367117,0,-5,-2,-1,-2,0,0,-3
1470243550367117,-2,1,1,-1,-2,-1,-1,-2
1470243550368618,-2,0,-2,-1,0,-1,-2,-1
1470243550368618,1,-4,-6,-1,0,0,0,-2
1470243550389639,0,-5,-1,0,-2,-3,-1,-2
1470243550389639,0,7,8,8,1,-1,0,-2
1470243550391140,-2,-4,-3,-4,-4,-3,1,0
1470243550391140,2,1,2,-3,-2,1,-1,-1
1470243550403166,-2,-2,-3,-4,-3,0,-2,-1
1470243550403166,-1,-3,-5,-2,0,-3,-1,-2
1470243550412160,0,5,-1,1,-4,-1,0,0
1470243550412160,-3,-18,2,3,2,-2,0,0
1470243550427171,1,16,2,-5,0,-1,-1,1
1470243550427171,0,2,-5,-2,-2,0,-1,0
1470243550428673,0,-2,7,-3,-3,0,0,-2
1470243550428673,-9,-5,-1,2,0,-2,-1,-3
1470243550449691,4,-4,-15,1,-2,0,-1,0
1470243550449691,-3,-1,-2,-6,1,0,0,-2
1470243550451193,2,2,0,-7,-4,-3,-2,-1
1470243550451193,0,0,-12,-8,-2,-1,-1,0
1470243550463236,-4,-2,16,10,1,0,0,0
1470243550463236,3,3,-2,-3,-2,-2,-1,0
1470243550472211,-15,-9,-6,-10,-2,1,-1,-2
1470243550472211,-4,4,1,4,-2,-2,-3,-1
1470243550487304,1,-2,-6,-4,-1,-1,-2,-2
1470243550487304,0,-2,-1,2,-1,-2,-1,0
1470243550488727,2,-2,1,5,0,-1,0,-1
1470243550488727,0,-1,3,-5,-2,-2,-2,-1
1470243550509746,-3,-2,-3,-3,0,0,0,-1
1470243550509746,-1,-2,4,12,-1,0,-3,-1
1470243550511246,0,-5,-9,-18,1,-2,-1,0
1470243550511246,-2,8,16,1,-2,-2,0,-2
1470243550523344,1,-6,1,-1,-3,-1,-2,-1
1470243550523344,1,3,1,5,-1,-2,1,-1
1470243550532265,-3,-6,-3,5,1,0,-2,-1
1470243550532265,-3,-2,-2,-2,-2,-2,-2,-1
1470243550546811,0,3,-1,-3,-2,0,0,-1
1470243550546811,0,-3,-5,-5,0,-1,0,0
1470243550548280,-1,2,4,15,0,-1,0,1
1470243550548280,0,-2,-4,-16,1,0,-1,-2
1470243550569799,-4,-4,-4,-1,-3,0,-2,-2
1470243550569799,-2,-4,-1,-5,-2,0,0,-2
1470243550571300,4,3,-2,4,1,-1,-1,1
1470243550571300,-7,-2,-2,9,-1,-2,0,-1
1470243550583313,-2,-3,3,0,2,-3,-1,-2
1470243550583313,1,-6,3,4,-3,-1,-1,-1
1470243550592319,-5,-3,0,1,1,-1,-2,-2
1470243550592319,2,1,-2,-3,0,1,0,-1
1470243550606866,3,-4,-6,1,1,0,1,1
1470243550606866,-13,0,-2,4,-3,-1,-1,-1
1470243550608858,1,2,-5,-1,-1,0,-2,-1
1470243550608858,1,1,-2,1,-1,1,-1,-3
1470243550629368,0,-12,5,-2,-3,-1,-1,-2
1470243550629368,-3,6,1,0,0,-2,-2,1
1470243550630854,-3,-6,-4,-6,-4,-2,0,-1
1470243550630854,2,2,-2,18,0,-3,-2,-1
1470243550643368,0,4,-5,-14,1,-3,-1,-1
1470243550643368,7,-2,15,2,3,-1,-1,-1
1470243550651873,-12,-2,-2,-4,-1,-1,0,-2
1470243550651873,1,-6,-4,-2,0,1,-1,0
1470243550666887,-1,1,0,5,-1,-2,0,-2
1470243550666887,0,-2,-6,-7,-2,-1,-1,0
1470243550668388,4,-1,0,5,0,0,-2,-1
1470243550668388,-3,-10,1,-4,-1,-1,0,1
1470243550689411,6,8,-4,-5,-3,-1,-2,-2
1470243550689411,-3,4,-1,-4,-2,-1,-1,-2
1470243550690907,1,-4,-10,1,-2,-2,-1,-1
1470243550690907,3,-3,13,2,-3,-2,-1,-1
1470243550702943,-7,0,-2,0,-2,-2,0,0
1470243550702943,0,7,-1,-3,0,-2,0,-2
1470243550711927,2,-5,0,0,-2,-1,-1,-2
1470243550711927,-1,-4,-6,-4,0,-1,-1,0
1470243550726958,-2,-1,4,-6,-3,1,0,1
1470243550726958,-1,1,2,3,0,-1,-1,-1
1470243550728441,-2,0,-2,-4,-1,-1,-1,1
1470243550728441,1,2,-5,-2,-2,-2,-1,-2
1470243550749463,-2,-4,-7,1,-2,-2,0,-1
1470243550749463,-2,-2,-7,-3,-2,-1,-2,-1
1470243550750962,1,4,6,1,0,0,-3,-1
1470243550750962,-1,5,11,-3,0,0,0,-3
1470243550763005,-5,-26,-4,4,0,-2,-1,-1
1470243550763005,0,-1,-7,-5,-3,0,-1,-3
1470243550771981,6,-5,-3,-2,1,-1,1,-2
1470243550771981,-7,8,9,4,-1,-2,-2,-3
1470243550787010,0,10,-3,0,0,0,-2,-3
1470243550787010,4,-6,-3,0,-1,1,1,6
1470243550788496,-3,-3,-1,-5,-3,-2,-3,-3
1470243550788496,2,0,-5,-4,0,-1,-2,-1
1470243550809581,-5,0,7,1,-3,-1,-1,-1
1470243550809581,-7,-15,-4,-2,0,-3,0,0
1470243550811016,5,6,1,0,-2,-2,0,-1
1470243550811016,-7,11,-6,-2,-1,0,3,3
1470243550832034,9,-2,-3,0,-1,-2,-3,0
1470243550832034,-6,-2,1,-3,-1,0,0,-4
1470243550833538,-7,-6,-12,0,-1,0,-1,-2
1470243550833538,1,-5,-2,-2,-2,-3,-1,-3
1470243550847048,1,2,-5,0,-2,2,1,-1
1470243550847048,2,1,5,-2,-2,-2,-4,-1
1470243550848551,0,-2,-1,-1,-1,0,-1,0
1470243550848551,1,-6,-10,-4,-1,0,-2,1
1470243550869569,-4,9,16,6,-1,-2,-1,-2
1470243550869569,0,-5,-11,-8,-1,-1,-1,-1
1470243550871070,-4,-1,1,-8,-4,-2,0,-3
1470243550871070,0,-2,-9,7,-1,-2,-2,-1
1470243550894591,-1,0,7,-8,2,1,1,0
1470243550894591,0,0,-1,9,-4,0,-2,-2
1470243550895093,1,-3,-11,-8,-2,-3,-1,1
1470243550895093,0,-2,10,-4,-5,-2,-3,-2
1470243550907101,-3,-3,-27,-21,0,0,0,-1
1470243550907101,-2,-2,2,4,-1,-1,0,-2
1470243550908604,1,4,3,-1,1,-1,-1,-1
1470243550908604,0,-3,-2,5,0,-2,1,-1
1470243550929650,-2,2,10,6,0,-1,-1,-1
1470243550929650,1,3,-4,-5,0,-2,0,-2
1470243550931124,-2,5,5,5,0,1,-1,-1
1470243550931124,-3,-12,0,-2,-1,0,0,-3
1470243550952144,1,-10,1,4,-1,-1,-2,0
1470243550952144,1,26,3,-4,-1,0,0,-1
1470243550953643,0,-6,5,3,-1,0,-2,0
1470243550953643,1,1,-1,-3,0,0,-2,-1
1470243550967156,-4,-1,-6,7,-2,-2,-2,-1
1470243550967156,1,-12,-10,-13,-2,1,-1,0
1470243550968657,0,2,13,1,-1,-2,0,-1
1470243550968657,-1,-4,-5,-3,0,-2,-2,-1
1470243550996696,-2,-2,-8,-9,-3,0,1,-1
1470243550996696,-2,-3,3,8,-2,-1,-1,-1
1470243550998684,0,4,6,7,-3,1,-1,-1
1470243550998684,2,-9,-10,-8,0,0,0,0
1470243551012196,0,11,-14,-2,0,-1,-1,-1
1470243551012196,-2,1,21,3,0,-1,-1,-2
1470243551013697,-4,-1,7,-4,-3,-2,-1,-1
1470243551013697,-2,5,2,5,-4,-3,-1,0
1470243551026210,0,0,-2,1,-3,-2,-2,-1
1470243551026210,-1,-8,-11,-1,-1,-2,-2,-1
1470243551033232,0,-1,-1,-15,0,0,0,0
1470243551033232,0,0,-3,-1,0,0,0,-1
1470243551049731,-2,-4,10,2,-2,-1,-1,-3
1470243551049731,0,-3,-1,1,1,-2,-3,-2
1470243551051232,-2,-3,-10,6,-1,0,-2,-1
1470243551051232,-6,-11,0,-8,-1,0,-2,0
1470243551071750,1,1,-11,-3,-1,-2,-1,0
1470243551071750,1,3,5,3,0,-2,-1,-1
1470243551073251,0,-7,-3,1,0,-3,-2,-2
1470243551073251,0,1,-5,-6,-1,-1,1,-1
1470243551086262,-4,1,14,4,-1,-1,-2,-1
1470243551086262,-3,-7,-5,-2,0,-2,0,-1
1470243551093269,0,0,-11,-4,-1,0,-1,0
1470243551093269,0,-2,-5,4,0,-1,0,0
1470243551109784,-2,1,-3,0,0,-1,1,1
1470243551109784,-2,-10,0,-1,-4,-1,-1,-1
1470243551111294,-1,2,0,0,0,0,-2,-2
1470243551111294,-1,2,-10,-1,-1,-1,-2,-3
1470243551131804,0,1,14,1,0,-2,1,-1
1470243551131804,0,0,-10,-7,-4,-1,0,-1
1470243551133805,-3,-2,-1,2,-2,-1,1,-3
1470243551133805,-1,-3,-3,-7,-3,1,-2,-3
1470243551146316,-2,-2,-7,0,0,1,-2,-1
1470243551146316,-3,-5,-11,-5,-2,-2,-3,-2
1470243551153323,-1,4,5,5,4,0,-1,0
1470243551153323,-1,1,-2,-5,-2,-2,-2,-1
1470243551169338,0,-1,-2,1,-1,-1,-1,-1
1470243551169338,-2,2,10,-1,-1,-1,-1,-2
1470243551170840,-1,-5,-8,0,-2,-2,-2,-1
1470243551170840,0,2,8,2,-1,-2,-1,-2
1470243551191859,1,-5,-10,-4,-1,-1,1,0
1470243551191859,0,4,4,0,0,-1,-1,-1
1470243551193358,-1,-5,2,-1,-2,-1,2,-2
1470243551193358,1,7,2,1,1,-2,1,0
1470243551206376,-1,-8,-8,-3,-3,-2,-2,-2
1470243551206376,1,2,-4,-5,0,-1,1,-1
1470243551213378,0,0,12,5,0,-2,-1,-1
1470243551213378,-1,4,-9,1,-1,0,-1,0
1470243551229393,-4,-9,-11,0,1,2,-2,0
1470243551229393,1,3,14,6,0,-2,2,-3
1470243551230893,-1,-1,-18,-4,0,0,-1,-1
1470243551230893,0,-1,4,-2,-2,-1,-1,0
1470243551251943,0,3,13,-2,-2,-1,-1,-2
1470243551251943,-2,-3,-11,-2,-1,0,-1,-1
1470243551253413,-2,0,-9,-6,-4,-2,-1,-1
1470243551253413,1,3,8,-1,0,-1,0,-1
1470243551266424,0,-3,-16,-4,-1,-1,-2,0
1470243551266424,-1,0,23,2,-4,-3,-2,-1
1470243551273430,-4,-6,-6,2,-1,0,0,-1
1470243551273430,2,2,-13,-3,1,-1,-1,-2
1470243551289445,-1,-6,13,1,-2,-2,-2,-1
1470243551289445,-5,-6,-19,-4,0,0,-1,0
1470243551291447,0,-1,0,-4,-1,-1,-1,-2
1470243551291447,2,2,10,6,-2,-1,-1,0
1470243551311965,-4,-8,1,-2,-3,-3,-6,-4
1470243551311965,1,10,-5,0,0,1,4,1
1470243551313483,0,-1,4,0,-1,2,0,1
1470243551313483,-1,-1,-8,-4,0,0,-1,-1
1470243551325506,4,5,8,3,0,-1,1,1
1470243551325506,-3,-1,-2,-1,-1,-2,-3,-2
1470243551334488,-1,1,0,-3,1,-3,-2,-3
1470243551334488,-3,-6,2,1,-1,-1,0,-2
1470243551349525,0,8,0,-2,-1,-1,-1,-1
1470243551349525,-6,-5,-21,-2,0,-2,0,-2
1470243551351002,1,-7,-17,-8,-3,-1,-2,0
1470243551351002,-3,3,17,6,-3,-3,-1,0
1470243551372023,-2,1,-4,1,-3,-2,0,-1
1470243551372023,5,2,-8,-2,0,-1,-2,0
1470243551373520,-2,-8,10,-1,-1,-1,-2,-1
1470243551373520,-2,-2,-11,-4,0,0,1,-1
1470243551385531,-2,6,-8,-1,0,-1,0,1
1470243551385531,1,-11,12,1,-2,-2,-3,-2
1470243551394541,-3,-5,1,2,-3,0,-4,-1
1470243551394541,0,-2,-1,-4,0,-1,-1,-1
1470243551409660,-2,-4,0,-2,0,-2,1,-3
1470243551409660,-2,2,-15,-5,-2,-2,-4,-2
1470243551411054,0,4,26,5,-1,0,0,-1
1470243551411054,-4,-1,-3,-3,-2,0,1,-2
1470243551432130,2,8,5,-3,-1,0,1,1
1470243551432130,-3,0,6,2,-3,0,-2,-2
1470243551433575,-8,-2,-10,-4,0,-2,-1,-2
1470243551433575,1,-8,-7,-1,-2,-1,-3,-1
1470243551445585,-3,1,-6,-4,-1,0,-1,-2
1470243551445585,4,3,12,1,0,2,1,-1
1470243551454593,2,1,3,1,0,0,3,4
1470243551454593,-5,-14,5,4,-1,-2,0,0
1470243551469643,-1,-3,-11,-1,1,-1,1,-1
1470243551469643,-3,-3,-2,-2,-2,-2,-2,-1
1470243551471127,0,2,-2,-3,-2,0,-2,-4
1470243551471127,0,1,-8,-1,0,0,-2,-1
1470243551492128,-2,-6,1,-2,0,-2,-3,0
1470243551492128,-1,-2,12,4,-2,-1,0,0
1470243551493631,0,3,-9,-3,0,-3,-1,-1
1470243551493631,2,1,9,-2,0,-1,-2,-2
1470243551505639,-1,-1,-6,0,-2,0,-1,-3
1470243551505639,-3,-3,5,-2,1,0,-1,0
1470243551515148,1,0,-4,0,-3,-1,0,-1
1470243551515148,-2,0,-2,-2,-1,-1,-2,-3
1470243551529661,-3,-2,11,2,-1,-1,0,-2
1470243551529661,2,0,-13,-4,-1,-1,-1,0
1470243551531163,0,-1,8,0,-2,0,0,1
1470243551531163,-6,0,-6,-2,-2,-3,-1,-2
1470243551552182,1,-1,-5,-3,0,-2,0,-1
1470243551552182,0,-2,1,0,-2,0,2,-1
1470243551553683,-1,3,-2,1,-1,-1,0,-2
1470243551553683,-1,0,-6,0,-1,0,-2,0
1470243551565723,1,-3,2,-1,-1,-2,-1,0
1470243551565723,-2,-1,-3,1,-2,-1,-1,-2
1470243551575203,1,-1,-2,-2,-2,-2,-3,-3
1470243551575203,1,2,1,1,0,-2,0,0
1470243551589715,-5,1,0,-5,-1,0,0,0
1470243551589715,-2,-1,-8,-3,-2,0,0,0
1470243551591217,0,-4,2,-1,-4,-2,-2,-1
1470243551591217,0,2,3,0,-1,-1,-3,-2
1470243551611752,1,0,-5,5,-3,-1,-2,0
1470243551611752,-2,-2,-5,-11,1,-1,-1,0
1470243551613235,-5,-2,3,4,-3,-2,-2,-2
1470243551613235,2,0,3,-3,0,0,-1,0
1470243551625748,-1,-2,8,2,-1,-1,0,-1
1470243551625748,-1,-2,-7,-8,-3,-1,-2,0
1470243551634761,2,-3,-7,-3,0,-1,-2,-2
1470243551634761,-2,-4,1,1,-1,0,-1,-2
1470243551649769,-1,3,-1,0,-2,0,-1,-1
1470243551649769,-1,1,-3,1,-1,0,-2,0
1470243551651299,-1,2,-4,-4,2,-1,-1,-1
1470243551651299,-1,-2,-6,-4,-1,-2,-1,-1
1470243551671848,-3,-3,2,-1,-1,-1,-2,-2
1470243551671848,1,1,7,1,-1,0,-2,-1
1470243551673791,-3,-1,0,-2,0,1,-1,-1
1470243551673791,0,-3,-9,3,0,0,0,0
1470243551685801,-1,-2,-9,-9,-2,-1,-2,-2
1470243551685801,-1,-1,4,5,1,0,-1,-1
1470243551694309,0,0,-5,-4,-2,-1,-1,-1
1470243551694309,-1,0,3,-3,-1,0,0,-1
1470243551709324,-1,4,1,5,-1,-2,0,-1
1470243551709324,-2,-9,-11,-10,-1,-1,0,-1
1470243551710823,1,1,-2,0,1,1,1,0
1470243551710823,-5,2,19,9,-3,-1,-2,-3
1470243551732394,-5,-20,-1,-6,-3,-2,-3,-3
1470243551732394,1,7,-11,1,-1,-1,0,-1
1470243551733844,0,-2,-2,2,-1,-2,0,1
1470243551733844,1,0,-3,-4,0,-1,-1,0
1470243551745855,0,2,1,-1,-1,-1,-1,2
1470243551745855,0,-3,-3,-1,0,-1,0,-1
1470243551754392,0,-2,-2,-2,-1,0,-2,0
1470243551754392,-1,0,5,1,-1,-2,0,-1
1470243551769877,-1,1,0,2,-1,-1,-1,0
1470243551769877,-1,2,0,-4,0,-1,-1,1
1470243551770877,-1,2,2,3,0,-1,-2,0
1470243551770877,-3,-4,-10,-3,-2,-2,-2,-1
1470243551791928,0,-1,-10,-3,0,0,1,-1
1470243551791928,-1,0,12,8,-1,-2,-2,-2
1470243551793398,-4,-4,1,-7,0,-2,-2,-2
1470243551793398,-2,-1,-2,-5,-1,-1,-1,0
1470243551814427,0,2,-1,3,-1,-2,1,0
1470243551814427,-1,-2,2,-1,0,-1,-1,1
1470243551815919,0,-1,-2,2,-1,0,0,-1
1470243551815919,-2,0,1,1,0,0,-2,0
1470243551829485,-1,-1,7,-1,1,1,-1,-1
1470243551829485,-3,-4,-18,-8,-2,0,-1,-2
1470243551830932,-4,-3,2,3,-2,-2,0,-3
1470243551830932,0,-2,-1,4,0,0,-2,-1
1470243551851992,1,-2,-8,-9,-2,0,-2,-2
1470243551851992,-1,-1,1,2,-1,-1,-2,-1
1470243551853491,-1,-2,3,-3,-1,-1,-1,0
1470243551853491,-1,5,-17,-5,-1,-2,1,0
1470243551874471,-3,3,14,5,-2,-3,-1,0
1470243551874471,-5,-9,1,1,-3,-3,-2,-3
1470243551875972,-1,0,-8,-3,-3,-3,-2,-1
1470243551875972,-1,-1,2,-1,-1,0,-2,-3
1470243551888508,-2,-5,-10,-6,0,1,-2,0
1470243551888508,1,1,1,0,-1,-1,1,-1
1470243551896991,0,-1,-1,3,-1,0,-1,-2
1470243551896991,1,-4,-5,-5,-2,-2,-1,-2
1470243551912006,-1,3,6,2,-2,-2,-2,-1
1470243551912006,-2,1,6,5,0,-1,-2,-2
1470243551913508,-1,-2,0,2,-1,-1,-2,0
1470243551913508,0,-6,-2,-2,-1,0,-1,-2
1470243551934538,-1,-1,-4,-6,0,-2,-1,0
1470243551934538,0,0,-3,2,-1,0,-2,-1
1470243551936026,-2,-1,-7,-1,0,-1,-1,0
1470243551936026,-1,0,13,0,0,-2,1,1
1470243551949039,-2,-1,1,0,-1,0,-1,-1
1470243551949039,-1,0,-4,-1,-2,-1,-1,1
1470243551955545,-2,-1,-1,-1,-3,0,-2,-1
1470243551955545,0,-2,-5,-1,-1,0,-1,0
1470243551972058,-1,-1,4,3,-1,-1,-1,-2
1470243551972058,0,-1,0,-2,-2,-2,0,0
1470243551973573,-3,-3,-7,-6,-2,-2,-1,-1
1470243551973573,-2,0,2,2,-3,-2,-1,-1
1470243551994618,0,-1,-2,2,0,-1,0,0
1470243551994618,-1,0,-1,-1,0,0,-1,-2
1470243551996080,0,-2,0,-1,-1,-2,1,-3
1470243551996080,-2,0,-9,-8,-2,-1,-2,0
1470243552009091,0,3,-7,-2,-1,0,-1,-3
1470243552009091,-2,-4,11,1,-1,-1,-1,0
1470243552015598,-1,1,5,5,0,1,0,-1
1470243552015598,-1,0,-4,-3,-2,-1,-1,-3
1470243552032113,-1,-3,-9,1,-1,-2,-1,2
1470243552032113,0,4,8,-3,-1,-1,0,-1
1470243552033613,-2,-12,0,1,-2,0,-1,-1
1470243552033613,-1,-2,2,2,0,0,-2,-1
1470243552054642,-1,-2,-4,-1,0,-1,-1,-2
1470243552054642,1,2,-5,-2,-1,1,-2,-2
1470243552056134,0,-1,1,1,-2,0,0,0
1470243552056134,-2,-3,-2,-1,-1,0,-1,-2
1470243552068671,-1,-3,-6,-16,-2,-2,-3,-1
1470243552068671,0,-3,-7,0,1,-3,0,-1
1470243552075653,1,2,0,-2,-1,0,0,0
1470243552075653,-2,-1,9,5,1,-1,-1,-2
1470243552092165,-2,-2,3,0,-1,-3,0,-1
1470243552092165,-3,-2,-19,-7,-3,-1,1,-1
1470243552093667,-1,-4,-6,-2,0,-3,-2,-1
1470243552093667,-1,1,-3,0,-3,0,0,0
1470243552114686,0,0,3,4,-1,-2,0,-1
1470243552114686,0,-3,-5,-3,-2,0,-2,-1
1470243552115687,-2,2,1,1,-2,-2,-1,0
1470243552115687,-1,-4,-8,-5,-2,-1,-2,-1
1470243552129199,-2,-1,3,2,0,1,-2,0
1470243552129199,0,0,0,0,0,-1,-1,-3
1470243552135831,0,3,-10,-5,-1,2,0,-2
1470243552135831,0,-2,19,2,-2,-2,-1,1
1470243552152220,0,4,-6,0,0,0,0,-2
1470243552152220,-4,-15,0,2,-2,-3,-2,-1
1470243552153722,-1,3,-8,-4,-1,-1,-1,-1
1470243552153722,0,4,3,0,0,-3,-1,-1
1470243552174740,-3,-13,1,3,-2,-2,-3,-2
1470243552174740,-2,4,1,-5,0,0,-1,-1
1470243552176241,0,-4,0,-4,-2,2,1,-1
1470243552176241,0,1,-10,2,3,-1,-1,1
1470243552188252,-2,4,0,-1,-3,-5,-1,0
1470243552188252,-2,-8,3,1,-1,-1,-4,-2
1470243552197260,0,2,1,-1,2,2,0,-3
1470243552197260,-1,-1,0,-3,-1,-1,0,0
1470243552212322,1,-3,0,3,-2,-3,1,0
1470243552212322,-2,1,-7,-1,-1,-5,-1,-2
1470243552213775,-1,1,3,-4,-3,-2,-2,-2
1470243552213775,0,0,-7,-2,-1,3,-1,0
1470243552234859,0,1,-2,-4,2,-2,0,0
1470243552234859,-2,-2,17,3,-2,-1,1,-1
1470243552236296,-2,-1,0,1,-1,-4,-2,0
1470243552236296,-4,-4,-19,-2,-2,-2,-1,-2
1470243552248807,-1,2,-4,-3,-1,1,2,0
1470243552248807,1,1,-1,1,-1,0,1,-1
1470243552255813,-2,4,0,-5,1,-3,-3,0
1470243552255813,-1,-2,3,-2,-2,-3,-1,-1
1470243552271870,0,-3,-1,2,0,0,-2,-2
1470243552271870,-1,7,0,2,-2,1,0,1
1470243552273868,-1,-4,-1,-2,-1,-1,-1,1
1470243552273868,-2,-9,-3,-3,-2,-3,-2,-3
1470243552294888,-1,6,1,-3,-1,3,0,1
1470243552294888,-1,0,1,-1,-1,-1,1,1
1470243552295883,-1,-2,-4,2,-1,-3,1,-2
1470243552295883,-2,0,1,-2,-2,1,-1,-2
1470243552308360,0,-4,-6,-4,0,0,-1,-1
1470243552308360,-1,-5,2,0,0,-2,-1,-3
1470243552317368,0,1,4,2,2,-1,-2,-1
1470243552317368,-2,-4,-3,4,-1,-1,-1,1
1470243552332381,-1,2,-1,-3,-2,-2,-1,1
1470243552332381,0,3,-12,-3,-3,1,-2,0
1470243552333884,-1,-4,3,0,-2,-2,-3,0
1470243552333884,0,3,8,3,1,-1,-1,-1
1470243552354444,0,-5,-5,1,-1,-3,-2,-2
1470243552354444,0,-1,-1,-1,-1,1,0,1
1470243552355903,-1,-12,-5,-3,-1,-1,-1,-2
1470243552355903,0,5,2,-3,-2,0,0,0
1470243552367916,-2,-6,-4,-1,-1,-1,2,-1
1470243552367916,-1,0,3,-2,-1,-1,0,-1
1470243552376922,0,1,2,0,-3,-1,-1,-2
1470243552376922,1,2,-8,-5,-1,-1,0,1
1470243552391948,-2,-12,9,0,-1,-2,-1,-2
1470243552391948,-1,2,-4,1,0,-1,0,-2
1470243552393438,-1,3,-7,-5,-2,0,0,-1
1470243552393438,-1,-4,-1,-3,-1,0,0,-1
1470243552414488,-2,1,-1,-1,-2,0,-2,-1
1470243552414488,2,-5,-4,-2,-1,-1,0,0
1470243552415972,-1,2,6,1,0,0,-2,-1
1470243552415972,-3,3,-1,-1,-1,-1,-1,-2
1470243552428482,-2,-10,10,0,-1,0,-1,-1
1470243552428482,-3,-1,0,-1,-2,-1,-3,-1
1470243552437020,-2,0,-3,-1,-1,0,-1,0
1470243552437020,-1,-4,-7,-1,0,-1,1,-1
1470243552451994,2,8,6,1,0,0,2,0
1470243552451994,-2,-6,-4,-3,-2,-2,2,-1
1470243552453580,0,-2,3,-1,-3,-1,5,-2
1470243552453580,1,-1,-3,-4,0,0,5,1
1470243552474510,-1,3,-12,-2,-2,0,9,-1
1470243552474510,-2,-2,9,1,-1,0,2,-1
1470243552476011,-3,2,-4,4,1,-1,-3,0
1470243552476011,1,0,4,-2,-1,-1,-8,-1
1470243552488048,-2,-1,-3,-3,-2,0,-14,-2
1470243552488048,-2,-1,-5,-1,1,0,-15,0
1470243552497031,0,-1,-1,-1,-1,-1,-12,-3
1470243552497031,-3,-3,-1,0,-1,-2,-13,-3
1470243552512070,-1,-1,6,1,-1,1,-12,1
1470243552512070,0,-1,5,-3,-1,-1,-10,0
1470243552513544,-2,-1,-10,-3,-1,-3,-9,0
1470243552513544,-2,-2,-13,-7,-3,0,-6,-1
1470243552534569,-3,2,5,-1,0,-1,-7,-2
1470243552534569,3,13,-2,2,-1,0,-4,-1
1470243552536115,-1,-5,9,2,-1,0,-4,-1
1470243552536115,-1,-1,-6,3,-2,0,-5,-1
1470243552548131,-1,-8,1,-4,-2,-1,-3,-2
1470243552548131,-3,-1,-10,-8,-2,-1,-3,-2
1470243552557086,-1,0,-4,-2,-1,-2,-1,1
1470243552557086,-1,1,5,3,2,0,-1,0
1470243552572183,1,-1,-9,-2,-1,-2,1,0
1470243552572183,-1,-4,11,2,0,-1,2,-2
1470243552573602,-2,-3,-4,-1,-2,-1,0,-2
1470243552573602,0,-5,0,-5,-3,-3,-2,-1
1470243552594617,-2,2,-6,-1,-1,0,0,-2
1470243552594617,-1,-4,3,-1,-2,-2,3,0
1470243552596118,-1,0,1,0,-1,-1,2,-1
1470243552596118,-1,1,6,0,0,0,1,-1
1470243552608630,-2,-2,-8,0,-1,-1,3,-2
1470243552608630,0,-2,-2,0,-2,-1,2,-2
1470243552617138,-1,-1,1,0,-2,0,4,0
1470243552617138,1,-1,-5,1,0,0,2,-1
1470243552632176,0,-1,-7,-9,-2,-2,2,-1
1470243552632176,-2,-2,7,3,-2,-2,4,-1
1470243552633652,-2,-1,-3,0,-2,0,5,-2
1470243552633652,-2,3,6,2,0,-1,4,-1
1470243552654671,0,-8,-6,0,0,-2,3,-1
1470243552654671,-1,1,-7,-2,0,0,3,1
1470243552656173,0,0,-2,-3,0,1,3,0
1470243552656173,-2,0,11,-2,-1,-4,5,-1
1470243552668210,-3,2,0,0,-2,-1,3,1
1470243552668210,-1,0,-4,1,1,-1,1,-1
1470243552677193,0,-1,3,0,-2,0,4,-1
1470243552677193,-1,-2,-13,-5,-1,0,3,-1
1470243552691204,1,-1,0,-2,-2,-1,3,-1
1470243552691204,-2,0,-4,1,-1,0,2,0
1470243552699714,-4,2,6,-2,-2,-2,1,-1
1470243552699714,-1,0,-4,2,-2,-1,3,-1
1470243552714724,-2,2,1,-5,0,-1,1,-1
1470243552714724,0,-3,-8,-5,0,0,0,-2
1470243552716227,0,-2,-3,0,0,-2,-1,-1
1470243552716227,-2,-4,-2,-3,-1,-1,-1,1
1470243552737246,-1,-1,-6,1,0,-1,0,-2
1470243552737246,-1,-2,1,0,-1,0,0,-1
1470243552738814,-1,0,-1,-2,-1,1,-2,0
1470243552738814,-2,1,16,2,-4,-3,-3,-4
1470243552751292,-1,4,-6,1,-1,-1,-1,0
1470243552751292,-1,-8,-2,-4,-1,-1,-1,-1
1470243552758264,-2,1,3,2,-2,-1,-1,0
1470243552758264,0,-4,-6,-1,-1,-1,-1,1
1470243552774303,-2,1,7,4,-1,-1,-1,-2
1470243552774303,-1,-2,-9,-6,-2,0,-1,-4
1470243552776280,-1,-3,-2,-7,-1,-1,-1,-1
1470243552776280,0,-2,3,2,0,0,-2,-1
1470243552796801,-2,1,0,0,-1,-3,-1,-1
1470243552796801,-2,-1,3,2,-1,-1,-1,1
1470243552798801,-2,-1,-4,0,0,0,0,-2
1470243552798801,-2,-1,-6,-5,0,1,1,-1
1470243552811331,0,-2,-1,2,-3,-3,-1,-1
1470243552811331,0,1,-3,-1,0,-2,0,0
1470243552818327,-1,0,-6,1,1,0,0,-2
1470243552818327,-3,-1,-11,-3,-2,-1,-1,-1
1470243552834891,-1,-1,14,0,1,2,-1,1
1470243552834891,-2,0,-1,1,-2,-2,-1,-1
1470243552835833,0,1,4,1,-2,-1,0,-2
1470243552835833,-1,-3,-3,3,0,-1,2,-3
1470243552857379,3,-2,-8,-5,-2,-2,0,0
1470243552857379,-1,2,6,2,-1,-1,0,-1
1470243552858855,-1,-3,-22,-6,-3,-2,-2,-1
1470243552858855,0,-6,-10,-3,-2,-1,-2,-1
1470243552871378,-2,-2,4,-1,-2,-1,-2,-3
1470243552871378,0,-2,2,-1,-1,0,-1,-4
1470243552878372,-1,0,2,0,-1,-1,-2,-1
1470243552878372,0,0,0,1,-1,1,-1,0
1470243552894387,0,-2,-3,-3,0,1,-1,-1
1470243552894387,-2,-4,-1,-1,-2,-2,-2,-2
1470243552895888,-1,0,-2,-4,-1,-1,-1,-1
1470243552895888,-1,1,2,-5,-2,0,-2,-1
1470243552916938,-1,-2,3,2,-1,-2,-1,-2
1470243552916938,-1,1,-2,0,-1,-1,2,1
1470243552918408,-1,-5,-9,-5,-1,-1,-2,-1
1470243552918408,0,0,6,1,1,-1,-1,-1
1470243552931439,-2,7,-1,0,-2,-3,-3,0
1470243552931439,-1,2,7,2,-1,1,-3,-3
1470243552938426,-5,-12,3,3,0,0,0,-2
1470243552938426,-1,-2,-4,0,-1,-1,-1,1
1470243552954455,0,-4,-4,-2,0,-2,0,-2
1470243552954455,0,-1,0,1,1,0,-2,1
1470243552955942,0,-2,-12,-6,-2,-2,-2,-1
1470243552955942,-1,0,6,-1,-1,-1,-1,-3
1470243552976962,-2,-3,2,0,0,0,-2,-1
1470243552976962,-2,-3,2,3,-2,-3,-2,1
1470243552978463,1,2,6,2,0,-1,1,0
1470243552978463,-3,-3,-2,-2,-2,-1,-1,0
1470243552991474,-2,-3,-7,-2,-1,0,0,-1
1470243552991474,-1,0,-10,-8,0,-1,1,-4
1470243552997980,1,-2,12,4,-1,0,-2,1
1470243552997980,-1,2,-1,3,-1,-1,-1,0
1470243553014496,-1,-5,1,-1,-2,-1,-2,-1
1470243553014496,-3,-2,-11,-2,-1,0,-2,1
1470243553015995,-1,-2,3,1,-1,-1,-1,1
1470243553015995,0,-1,2,-3,0,0,-3,0
1470243553037014,0,-1,-3,-1,0,-1,-1,-1
1470243553037014,2,-3,-12,-4,0,-1,-1,-2
1470243553038516,-1,2,16,2,0,-2,-1,-2
1470243553038516,-2,-2,4,-1,-3,-1,-2,-3
1470243553051527,0,1,2,0,-1,0,-1,1
1470243553051527,-3,-2,-2,0,-2,-2,0,-2
1470243553058034,0,4,-3,0,0,-1,0,-1
1470243553058034,0,-1,-2,0,1,0,0,0
1470243553074548,0,-2,-2,-1,-1,-1,-3,-2
1470243553074548,-1,1,4,1,-1,0,-2,-2
1470243553076049,-1,-3,-11,-2,-2,0,-2,1
1470243553076049,-2,-1,4,0,0,-3,-1,-1
1470243553097069,-2,-3,5,-2,-2,-2,-2,-3
1470243553097069,-2,0,-2,0,1,0,-1,-1
1470243553098570,-2,0,0,-1,-1,0,-3,-3
1470243553098570,0,-1,-8,-1,-2,-1,0,0
1470243553111083,0,-2,0,-1,0,0,0,0
1470243553111083,1,-2,1,0,-2,-3,-1,0
1470243553118089,-3,-2,-2,1,-2,-1,-3,0
1470243553118089,-1,-6,-9,-7,0,-1,-1,0
1470243553134602,-1,1,2,-1,0,0,1,-1
1470243553134602,-5,-1,27,8,-4,-2,-2,-1
1470243553136104,-1,-2,-30,-9,-2,0,1,2
1470243553136104,-1,-1,3,2,-1,0,-1,-2
1470243553157122,1,-3,-14,-2,-1,-1,-1,-2
1470243553157122,0,-3,-6,-3,-2,0,-1,1
1470243553158627,-2,3,10,2,0,-1,-1,-1
1470243553158627,-1,1,-5,-1,-1,1,-2,-2
1470243553171635,-3,-2,-2,-3,-2,0,-1,-1
1470243553171635,0,-2,-5,-3,-1,0,-2,-2
1470243553178141,0,-2,7,0,0,-1,-1,-1
1470243553178141,-1,-4,2,-2,0,0,-2,-2
1470243553194655,-4,-1,1,3,-3,-1,-3,0
1470243553194655,0,3,-4,-3,-2,-1,0,0
1470243553196158,-1,-6,-2,-1,-1,-2,-1,-2
1470243553196158,0,0,1,-2,0,-2,-1,-2
1470243553217176,-2,-1,-1,0,-1,-1,0,0
1470243553217176,-1,-3,-10,-4,-1,1,-1,0
1470243553218677,0,-1,3,-3,1,0,-2,-2
1470243553218677,-3,0,19,7,-3,-4,-1,1
1470243553230689,-1,-2,-11,-2,-2,-2,-2,-1
1470243553230689,-1,-2,-6,-3,-1,-2,-1,-2
1470243553239697,-1,0,-3,-2,-2,-2,-2,-2
1470243553239697,-1,-1,-6,-2,-1,-1,-1,1
1470243553254738,1,1,2,0,0,-1,1,0
1470243553254738,-1,-5,-5,-2,-2,-1,-1,-2
1470243553256211,-1,-2,3,0,-1,-1,-1,0
1470243553256211,0,3,-4,-3,-1,0,0,-2
1470243553277230,-3,-7,-2,-2,1,-1,-2,-1
1470243553277230,1,0,-1,-2,0,-2,0,0
1470243553278731,-1,0,1,-1,0,-1,-2,-3
1470243553278731,-1,-2,-3,1,-1,0,-2,0
1470243553291242,1,-1,-2,-1,-1,0,0,-1
1470243553291242,-1,-2,-1,-2,0,-1,0,-3
1470243553299758,-2,-2,-2,0,-1,0,-1,-2
1470243553299758,-1,0,1,2,-3,-3,-1,-1
1470243553314858,-1,1,3,1,-2,-1,-3,0
1470243553314858,0,0,10,-2,-1,0,-1,0
1470243553316265,-3,-1,-10,-2,-3,-3,-1,-1
1470243553316265,-1,-3,-6,-2,0,0,1,-1
1470243553337344,1,-1,-2,-2,1,0,1,0
1470243553337344,-2,-1,5,1,-1,-2,-2,-2
1470243553338785,0,0,0,-1,-2,0,2,0
1470243553338785,-1,-1,0,-1,-2,-2,-2,0
1470243553350797,-1,2,-4,1,-2,-1,-1,-1
1470243553350797,-1,-4,-14,-4,-2,-1,0,1
1470243553359305,-2,-1,10,3,-2,-2,-1,-1
1470243553359305,-3,-2,-12,-7,-2,-1,-1,-1
1470243553374345,-1,-1,10,0,0,0,-1,-1
1470243553374345,-1,1,-7,-2,-2,-1,-2,0
1470243553376319,-1,-1,1,1,0,0,0,-1
1470243553376319,-1,-1,2,1,-2,1,-1,0
1470243553397386,0,-1,-18,-8,0,1,-1,-1
1470243553397386,-3,-7,24,5,-1,-3,-1,-3
1470243553398358,-2,3,-8,-5,-1,-2,-2,-1
1470243553398358,0,-1,-3,-4,0,0,-1,1
1470243553410850,-1,-1,-2,0,-3,-2,0,0
1470243553410850,0,-1,-7,-2,1,1,-1,1
1470243553419359,0,-4,0,-2,-1,-2,0,0
1470243553419359,-2,-2,3,-1,0,-1,-1,-2
1470243553434415,-1,-1,5,4,-1,-1,-1,-1
1470243553434415,-3,-1,-1,-3,-1,0,-2,1
1470243553436380,-1,-2,-3,1,-2,0,-1,-1
1470243553436380,0,-2,-8,-3,0,0,-1,-1
1470243553456896,1,-1,4,0,0,-1,0,-1
1470243553456896,-1,-1,-2,0,-2,-2,-1,-1
1470243553458399,2,-1,-5,-3,-1,-1,-1,0
1470243553458399,2,-2,2,2,-1,0,0,0
1470243553470904,-3,0,-3,-2,-1,-1,-1,-2
1470243553470904,1,0,3,3,0,-2,-1,-2
1470243553479411,1,3,-7,-7,-4,-3,-2,-2
1470243553479411,-3,-9,4,2,1,-2,-1,-2
1470243553494439,-1,-1,0,-3,-3,-1,-2,-1
1470243553494439,-1,1,-6,-7,-2,-2,0,0
1470243553495927,-2,-1,9,6,1,-1,0,1
1470243553495927,-2,0,-7,0,0,-1,-2,-1
1470243553516947,-3,-2,3,0,-2,0,-1,0
1470243553516947,-1,-3,-3,-2,1,-2,0,-3
1470243553518446,0,-1,2,-2,-3,-1,-1,0
1470243553518446,-2,0,-3,0,-1,-1,-1,-2
1470243553530459,0,-3,-1,1,1,-3,-2,-1
1470243553530459,-2,0,-1,-1,-1,0,-2,-1
1470243553539473,-2,-2,-2,-1,0,0,-2,0
1470243553539473,-2,1,7,-2,-1,-1,-1,-1
1470243553554523,0,-2,-3,-1,-1,-1,-1,-1
1470243553554523,-2,0,-3,-4,0,0,0,-1
1470243553555980,-3,-4,-1,0,0,-2,-1,-2
1470243553555980,0,-3,10,3,0,-3,-2,0
1470243553577042,-3,-3,-12,-10,-3,-1,-1,-1
1470243553577042,0,-1,-2,1,-1,0,-2,0
1470243553578533,0,-1,-18,-4,0,0,-1,-3
1470243553578533,0,2,0,-3,0,0,-1,-1
1470243553590557,-2,-2,7,5,0,-3,0,-1
1470243553590557,0,-1,-11,-3,-1,-2,0,1
1470243553599562,0,-3,3,-3,0,0,0,-2
1470243553599562,-1,-1,-4,2,-2,-2,-1,-1
1470243553614565,-2,-2,2,-1,-1,1,0,-2
1470243553614565,1,-1,-3,2,-2,0,-2,-1
1470243553616034,1,0,7,-2,0,1,0,-2
1470243553616034,-2,-2,-7,-2,-1,-3,0,0
1470243553637109,1,1,-2,1,-1,-1,-2,0
1470243553637109,-2,0,-1,-1,-2,-1,-1,-3
1470243553638554,0,0,-3,-2,-1,-1,-1,0
1470243553638554,0,0,-8,-3,-2,0,0,0
1470243553650567,0,-1,13,1,-1,-1,-1,1
1470243553650567,-2,-1,-1,-1,-2,-2,-1,-1
1470243553659575,0,-3,0,1,-1,-2,-1,-1
1470243553659575,-1,-1,-4,-1,-2,-1,-2,-1
1470243553674587,-1,-1,-5,-2,-3,-1,-1,-1
1470243553674587,-2,-1,-1,-3,0,0,-1,-1
1470243553676088,-1,0,9,0,-2,-1,-2,-2
1470243553676088,-2,0,8,-1,-1,1,0,0
1470243553697144,-4,-3,-7,-2,-2,-2,0,0
1470243553697144,0,-1,2,-2,-1,-3,0,-3
1470243553698608,-1,-1,-4,1,-1,-3,0,-2
1470243553698608,0,1,-8,0,-1,0,-1,-4
1470243553719628,-2,0,17,4,-1,-1,0,-2
1470243553719628,0,-2,-7,-3,-1,1,-1,0
1470243553721129,-1,-3,-2,0,0,-2,-1,-1
1470243553721129,-2,-1,-4,-9,0,0,-1,-2
1470243553734641,0,-2,-6,-2,0,-1,-1,-2
1470243553734641,-3,-1,2,1,0,-3,0,0
1470243553736144,-2,-2,-4,-1,-1,-1,0,0
1470243553736144,-1,3,0,0,-1,-1,0,-1
1470243553757160,2,-3,1,1,1,-1,-1,0
1470243553757160,-2,1,15,2,-2,0,-2,-1
1470243553758663,-1,0,-24,-1,-1,1,0,1
1470243553758663,-1,-2,5,0,-1,-2,-2,0
1470243553779682,0,3,-2,-3,1,0,-2,-1
1470243553779682,-1,0,2,1,0,0,0,-1
1470243553781182,0,-4,4,-5,-3,-4,-2,-1
1470243553781182,-2,-2,5,2,1,-2,-1,0
1470243553794696,-3,-2,-6,-1,-1,0,1,-1
1470243553794696,0,-2,-16,-7,-1,-1,-1,-1
1470243553796197,-2,1,16,3,-1,-1,-1,-2
1470243553796197,0,-3,-27,-5,-2,-1,0,-2
1470243553817215,-1,-5,11,0,-2,-2,-2,-3
1470243553817215,0,1,-8,0,-1,-2,-1,-1
1470243553818717,-2,-2,2,1,-1,0,-1,-1
1470243553818717,0,0,12,1,-2,-1,-1,-2
1470243553839766,-1,-4,-10,-2,-3,-1,0,-3
1470243553839766,0,-2,-3,-2,-1,0,-2,0
1470243553841236,0,-1,0,0,-1,-3,0,1
1470243553841236,-2,1,-1,-1,0,-1,-2,-1
1470243553853247,-2,0,1,-3,-1,-1,-2,-1
1470243553853247,-3,-2,-5,-4,-2,-2,-3,0
1470243553861255,-2,2,3,-1,-3,-1,0,-2
1470243553861255,0,-1,-2,0,-1,0,1,1
1470243553876268,-2,1,0,0,0,-1,-2,-1
1470243553876268,-1,-1,-1,1,-3,-1,-1,-1
1470243553877269,-1,0,5,1,1,-1,-2,-1
1470243553877269,-1,-2,-4,-5,-4,-2,-1,-2
1470243553898788,1,-3,-6,-4,0,-1,0,1
1470243553898788,1,1,5,-1,1,0,0,-1
1470243553899788,-1,1,-2,0,-1,-1,-1,0
1470243553899788,-2,-2,0,0,-2,0,-2,-1
1470243553921810,-1,2,0,0,-3,-3,-2,-3
1470243553921810,0,-2,1,2,1,0,1,-1
1470243553922810,-1,-2,-6,-4,-2,-2,-2,1
1470243553922810,0,1,6,0,0,-1,-1,1
1470243553936322,1,-1,-6,-2,1,1,1,-1
1470243553936322,-1,3,2,0,0,-1,0,-2
1470243553937324,-2,-9,-3,2,0,1,0,-1
1470243553937324,1,-5,-3,-5,0,-1,-1,-2
1470243553958843,-1,9,3,0,-1,-1,-1,-1
1470243553958843,-2,-15,-8,-3,-2,0,-1,-2
1470243553959343,-2,6,3,-1,0,1,-3,-2
1470243553959343,0,-4,2,1,-1,-1,0,-1
1470243553973356,-2,-4,0,1,0,-1,-1,0
1470243553973356,-2,1,2,-3,-3,-2,-2,-1
1470243553981363,-1,-2,-1,3,-3,-1,1,-1
1470243553981363,-3,-3,-6,-4,-1,-2,-2,-1
1470243553996382,0,0,-3,-3,-1,-1,0,-1
1470243553996382,-2,1,13,2,0,0,-2,-1
1470243553996876,-1,-3,1,0,-1,0,0,0
1470243553996876,-2,7,-2,-6,-1,-1,-2,-1
1470243554018901,-2,-3,-3,-1,-1,-3,0,-1
1470243554018901,0,-1,-5,-4,-1,-3,-1,-1
1470243554019411,0,-2,-1,-4,0,-1,-2,-2
1470243554019411,-1,-3,1,6,-2,-2,-1,0
1470243554032908,0,0,2,-3,-2,1,-2,-2
1470243554032908,-1,-6,-18,-5,-2,-1,-1,-1
1470243554041416,-2,0,6,-3,0,0,0,0
1470243554041416,-1,-3,-3,3,0,-1,-1,-1
1470243554056430,-4,-4,1,2,-1,-1,-1,0
1470243554056430,-1,4,8,0,-2,0,0,-1
1470243554056930,0,6,-2,1,-2,0,0,0
1470243554056930,-2,-2,4,0,0,0,-1,-3
1470243554079035,-1,-3,-12,-5,-2,-2,0,-2
1470243554079035,-1,-1,0,1,1,-2,-1,-1
1470243554079469,-1,2,-10,-3,-2,-1,-1,-1
1470243554079469,-1,-2,8,-1,-1,0,-1,-1
1470243554092967,0,-2,-2,4,-1,-2,-1,-2
1470243554092967,0,2,3,-2,-2,-1,1,-2
1470243554101483,-1,-4,0,-3,-1,0,-2,-2
1470243554101483,-2,-2,-5,1,0,0,-2,-1
1470243554116484,-3,-6,-5,-4,-1,1,-1,0
1470243554116484,-2,2,8,5,-1,0,0,1
1470243554116985,-3,-1,-3,-4,-2,-3,-2,-2
1470243554116985,-3,-3,-12,-3,-2,0,-1,-1
1470243554139005,1,2,2,-3,-1,-2,-1,0
1470243554139005,-1,-4,-6,0,0,-2,-1,0
1470243554139511,-2,-8,-4,-3,-3,-1,-2,-2
1470243554139511,2,6,2,2,0,-3,-1,-2
1470243554153031,-1,-13,0,5,-1,-1,-2,-1
1470243554153031,-1,3,1,-5,0,-2,-2,0
1470243554161535,-2,-4,-18,-7,-1,-1,-1,-3
1470243554161535,-3,3,4,-2,-2,-2,0,-3
1470243554176538,-1,5,2,0,1,-1,-2,0
1470243554176538,-2,-4,2,-1,0,0,0,-1
1470243554177039,0,1,0,4,0,0,-1,-2
1470243554177039,-2,-5,0,-3,-2,0,0,-1
1470243554199058,-1,1,-6,0,0,-1,-1,-1
1470243554199058,1,-1,-3,0,-3,0,-2,0
1470243554199558,-1,-1,11,1,-1,-2,-1,-2
1470243554199558,1,1,-8,-6,-3,0,1,0
1470243554213070,-3,-6,0,-4,-3,-1,0,-2
1470243554213070,0,3,-7,0,-1,-1,0,-1
1470243554221577,0,-1,10,0,-1,0,-2,-1
1470243554221577,-2,-1,4,13,1,0,0,0
1470243554236591,0,1,-11,-9,-1,-1,-3,-1
1470243554236591,-3,-2,8,-3,1,-1,-1,0
1470243554237114,-1,1,3,-1,-3,-2,-1,-1
1470243554237114,-1,-3,-12,-5,0,-1,0,0
1470243554258643,-1,1,9,4,-2,0,-2,0
1470243554258643,-1,-3,-2,5,1,0,1,-3
1470243554259616,0,-2,-1,1,0,0,-1,-1
1470243554259616,0,-3,2,-2,-2,-1,-3,-2
1470243554274625,-3,2,4,2,-2,-2,-1,-1
1470243554274625,1,-3,-7,-3,-1,-2,-1,-2
1470243554281726,0,0,-4,-3,0,-3,0,-1
1470243554281726,0,3,-3,-2,-1,0,-2,-1
1470243554296170,-1,1,-3,-4,-2,-1,0,1
1470243554296170,0,-2,-5,1,-2,-1,-1,-2
1470243554297158,-2,-3,-4,-5,-1,0,-2,0
1470243554297158,-1,1,2,5,0,-1,-3,-2
1470243554327222,0,-1,-5,-6,-1,-2,-1,0
1470243554327222,-1,0,-4,-4,0,0,-1,0
1470243554327674,-1,0,0,3,-3,-1,1,1
1470243554327674,-2,-5,-1,-3,-1,-2,-1,0
1470243554333178,-2,2,10,4,1,0,0,-2
1470243554333178,-2,-5,-5,-6,-4,-1,-1,-2
1470243554342187,-2,-2,-4,1,1,-2,-1,-2
1470243554342187,0,-2,7,-1,-1,0,-2,-2
1470243554356200,-1,0,-7,2,0,0,-1,-1
1470243554356200,-1,5,6,-2,0,-2,-3,-1
1470243554357200,0,-3,0,3,-1,-1,-1,-1
1470243554357200,-1,-2,-5,-5,-1,-2,0,-1
1470243554378748,1,1,3,1,0,-2,-1,-2
1470243554378748,-1,2,-4,4,-1,-2,-3,-1
1470243554379722,1,3,-4,-9,-1,-2,-2,0
1470243554379722,0,-2,-1,8,-1,0,0,-1
1470243554393232,-1,1,-3,-15,-3,2,-2,-2
1470243554393232,-2,-2,0,4,0,-2,0,0
1470243554401755,0,1,2,2,-1,0,0,0
1470243554401755,-2,-4,6,3,0,-1,-2,-2
1470243554416257,-2,-2,-9,-5,0,-1,-3,-1
1470243554416257,2,1,2,2,-1,-1,0,0
1470243554417255,-4,-7,-10,-2,-2,0,-2,-3
1470243554417255,0,2,4,-12,-3,0,0,-1
1470243554438816,-1,2,2,6,0,-2,0,-3
1470243554438816,-1,-10,-9,-5,-4,-1,-1,0
1470243554439790,-3,2,-3,0,-2,-3,-3,-1
1470243554439790,2,0,-7,-1,1,0,-1,-1
1470243554453302,-2,-3,4,3,-2,-3,-2,-2
1470243554453302,0,0,-8,-4,0,-1,-1,-1
1470243554461796,1,-2,7,3,1,0,-2,-2
1470243554461796,-1,0,-3,-1,-2,0,-1,-1
1470243554476405,-1,0,-5,1,0,0,-1,-1
1470243554476405,-3,1,2,-4,0,0,-1,0
1470243554477307,1,-2,-1,0,-2,-2,0,0
1470243554477307,-2,0,2,1,-2,-2,-1,-2
1470243554498860,0,1,2,-1,-1,0,1,0
1470243554498860,-3,-4,3,-1,-1,-1,-1,-2
1470243554499327,-1,0,-8,-4,-1,-2,0,-1
1470243554499327,0,-2,-1,0,-2,-2,-2,1
1470243554513340,0,-3,-9,-8,-4,0,-2,0
1470243554513340,1,3,2,-1,0,-1,-1,0
1470243554521375,-2,-1,8,2,0,-2,0,-1
1470243554521375,-1,-1,-8,1,2,0,0,-1
1470243554536403,1,-3,-3,2,-2,-1,-1,1
1470243554536403,-1,-4,-17,-6,-3,0,-1,-2
1470243554536889,-3,0,19,3,-2,0,-2,0
1470243554536889,-1,-2,-2,0,1,-1,-1,-1
1470243554558880,-1,-2,0,-3,-1,-1,-1,0
1470243554558880,-2,-3,-3,2,-1,-1,-1,0
1470243554559382,2,-2,-9,-6,-1,-2,-1,-1
1470243554559382,-3,-2,-1,-4,-2,-1,-2,1
1470243554573394,0,0,-7,-4,-1,-2,1,-1
1470243554573394,0,0,20,10,0,-1,0,-3
1470243554581430,-2,1,-9,-4,0,0,0,-1
1470243554581430,0,2,5,-2,-2,-1,-2,-1
1470243554596414,-1,-11,-5,-8,0,0,-1,1
1470243554596414,-2,2,-5,0,-1,-2,-1,-2
1470243554596915,-1,0,-12,-9,0,-1,-2,0
1470243554596915,-2,-3,11,1,-3,-2,-1,-3
1470243554618935,0,4,5,11,-1,-1,-1,0
1470243554618935,-1,-2,-3,-13,-2,-1,-1,-1
1470243554619437,-1,-3,-1,3,-2,-1,-1,0
1470243554619437,-2,-1,-13,-3,-1,-1,-1,1
1470243554641986,0,-2,-2,1,-1,-2,0,-1
1470243554641986,1,0,5,3,-1,-2,0,-1
1470243554642957,-1,-3,-15,4,0,-1,-2,0
1470243554642957,-1,-6,0,-10,-3,-2,-2,-1
1470243554656526,-2,-2,3,-2,-1,-2,-1,0
1470243554656526,-1,-1,-1,-3,-2,-1,-1,-1
1470243554656971,-2,0,-4,1,0,-1,-2,-2
1470243554656971,-1,-3,4,3,-2,-1,-1,-1
1470243554679034,-1,2,0,-1,-2,-1,0,-2
1470243554679034,-1,-1,-10,-2,0,0,1,-1
1470243554679490,0,0,16,0,-2,1,-2,-1
1470243554679490,0,-1,-7,-1,-1,-2,1,1
1470243554702010,-1,2,-1,1,-2,-2,-1,0
1470243554702010,1,2,6,0,-1,-2,-1,-1
1470243554703010,-3,-11,3,-1,-1,-3,-2,0
1470243554703010,-2,0,-6,-2,-1,0,-1,-1
1470243554716579,-1,0,0,-2,-1,-1,0,-1
1470243554716579,0,-2,4,1,1,-1,-1,-1
1470243554717041,-2,-1,5,6,-1,-1,-1,-2
1470243554717041,0,-1,-3,-8,-1,-1,-1,0
1470243554739051,-2,-2,-9,-4,-3,-1,-1,0
1470243554739051,-3,-4,-5,-3,-3,-1,0,0
1470243554739543,1,3,-2,1,1,-1,0,-2
1470243554739543,-1,-1,7,0,-1,-1,-1,-3
1470243554762090,-1,-1,5,1,1,-3,0,-1
1470243554762090,-2,-2,-13,-6,-2,0,-1,1
1470243554763076,-1,0,14,4,-1,-1,0,-1
1470243554763076,-2,0,0,2,-1,-2,-3,0
1470243554776577,0,-2,0,-2,-1,1,-3,0
1470243554776577,-1,-2,-5,-2,-3,-2,-1,1
1470243554777078,-1,-2,-10,-5,-2,0,0,1
1470243554777078,0,0,-5,-3,-2,-4,-2,1
1470243554799098,-1,-1,4,2,-2,-2,0,-1
1470243554799098,0,-1,-5,0,1,2,-1,0
1470243554799600,-2,0,-3,-3,-1,-1,-1,0
1470243554799600,-1,-3,0,-2,-3,0,2,-2
1470243554822136,-1,-2,-3,0,0,0,-1,-2
1470243554822136,-1,-2,-13,-3,-3,-1,-4,-2
1470243554822627,-2,1,8,-3,-1,-1,-2,-2
1470243554822627,-1,-2,-3,15,-1,0,-1,0
1470243554836158,-1,-3,-6,-16,-2,-1,0,-1
1470243554836158,-2,0,16,5,-1,-1,1,0
1470243554837136,0,-2,-11,-6,0,-1,-2,-1
1470243554837136,-3,-2,-8,-5,1,0,-1,0
1470243554858650,-1,-1,8,8,-1,-1,-3,-3
1470243554858650,-2,-2,-3,0,0,-1,-1,1
1470243554859651,1,2,10,-2,-3,-1,-1,-1
1470243554859651,-2,-3,-11,2,-1,-1,-1,-2
1470243554882171,0,-3,-10,-3,-1,0,-1,-1
1470243554882171,-1,2,2,-4,-2,-2,-2,0
1470243554882673,-1,0,-5,7,-1,0,-1,1
1470243554882673,0,0,1,-8,-2,0,-1,-1
1470243554896743,-1,-1,-2,-2,-1,-1,0,-4
1470243554896743,0,-5,-6,1,-2,-2,-1,-3
1470243554897187,-2,-2,-7,-6,-1,-1,0,-2
1470243554897187,0,1,11,5,-1,-1,-1,-1
1470243554918759,-1,0,-4,1,-2,-1,0,2
1470243554918759,-1,0,0,-1,1,-1,0,-1
1470243554919705,0,-2,3,-5,0,1,-1,-2
1470243554919705,-2,-3,-7,-6,-1,-2,-2,-2
1470243554942224,0,1,10,2,-2,-2,-2,2
1470243554942224,-2,-1,0,4,-1,-2,-1,-1
1470243554942725,-3,-2,-1,0,-3,-2,-2,-1
1470243554942725,1,0,-3,-3,0,2,0,0
1470243554956739,-1,0,0,1,-1,-1,-1,-3
1470243554956739,0,1,2,1,-2,0,-2,-1
1470243554957238,2,-2,-12,-1,-2,-2,1,-1
1470243554957238,0,2,4,-3,0,-1,-1,-1
1470243554978759,-2,-3,-3,-6,-2,-1,-1,0
1470243554978759,-4,-2,-7,-2,-3,-2,-2,-3
1470243554979758,1,2,1,-3,-1,0,1,0
1470243554979758,-2,-2,-2,0,0,-2,-2,-3
1470243555002278,-1,0,0,2,1,-1,0,0
1470243555002278,1,0,5,-5,-1,0,-2,1
1470243555002780,-2,-1,-6,-2,-2,-1,-2,1
1470243555002780,-1,-1,-5,-1,0,0,-1,-1
1470243555016292,0,-3,-4,1,-2,-1,-3,-2
1470243555016292,-3,-1,0,-1,0,-1,0,-2
1470243555017292,-1,-1,-2,3,-2,-1,-2,-2
1470243555017292,-1,-1,-3,3,-2,-2,-1,-2
1470243555038812,0,0,-4,-5,-1,-1,-1,1
1470243555038812,0,0,14,5,0,0,0,-2
1470243555039813,-3,-2,-9,-3,-2,-2,0,0
1470243555039813,0,2,1,-1,-2,-1,-1,0
1470243555062337,-1,-1,-2,2,-2,-1,-2,-1
1470243555062337,-1,-3,1,-1,-1,-1,0,-2
1470243555062833,0,-2,-3,-8,-1,0,-2,-2
1470243555062833,-1,-2,2,0,-3,-1,-1,-2
1470243555076850,-2,-5,-8,-3,-1,1,0,0
1470243555076850,1,2,2,-1,1,0,0,1
1470243555076850,-2,-1,1,2,-1,-1,-1,-2
1470243555076850,-1,-4,-2,-4,-2,-2,-2,-1
1470243555098908,-1,2,3,2,-4,-3,-2,-2
1470243555098908,0,-5,-7,-3,-1,1,-1,-2
1470243555099414,-2,2,11,-2,-1,0,-1,1
1470243555099414,-1,-2,-4,2,-2,0,-2,-3
1470243555121900,-1,0,-1,-3,1,-2,-1,-1
1470243555121900,0,0,-7,-8,-2,-2,-1,-2
1470243555122890,-1,-2,-6,0,0,-1,1,-2
1470243555122890,-1,-1,9,2,-1,0,-1,0
1470243555136433,-3,-3,-2,-9,-3,0,-2,0
1470243555136433,-1,-1,-6,0,-1,-2,-1,-2
1470243555136899,-1,-1,-5,-1,2,-1,0,0
1470243555136899,-1,0,4,3,-3,0,-2,1
1470243555158919,-2,-5,-12,-3,-1,0,0,-1
1470243555158919,-1,2,9,0,0,-1,-1,1
1470243555159453,-1,-1,2,0,-1,-1,-2,-1
1470243555159453,0,0,-1,1,0,0,0,-1
1470243555181940,-2,-4,-7,-3,-3,0,-3,-1
1470243555181940,0,-1,0,-1,0,1,0,-1
1470243555182941,0,-1,-12,-4,-1,0,-1,-2
1470243555182941,0,1,19,11,0,-1,0,1
1470243555204472,-1,2,3,-11,1,-1,0,-2
1470243555204472,-3,-3,3,0,-1,-1,-2,-1
1470243555205461,-1,-3,-4,1,-1,0,0,-1
1470243555205461,-1,-2,-7,-8,0,-3,1,-2
1470243555218973,1,0,2,9,-1,-2,0,-2
1470243555218973,-3,-3,-4,-1,-2,-1,-1,2
1470243555219474,-2,-1,4,1,-1,-1,0,-1
1470243555219474,0,-5,-7,-7,0,-1,-2,-1
1470243555242494,1,0,5,3,-1,0,0,0
1470243555242494,-3,0,4,-1,-3,-1,-3,-1
1470243555242994,0,-2,-1,-2,-2,-3,-2,-1
1470243555242994,-1,-2,1,-4,-2,-2,-2,0
1470243555255507,-2,-1,-5,4,0,-1,-1,-2
1470243555255507,0,-1,-3,-3,-1,0,0,-2
1470243555264013,-1,0,0,1,-2,-2,-2,-1
1470243555264013,-3,1,-8,-9,0,0,-2,-2
1470243555279028,0,-1,7,9,-2,-3,-1,-1
1470243555279028,-1,-4,-3,-3,-1,-2,-2,0
1470243555279529,-2,-5,-3,-9,-3,-1,-1,-3
1470243555279529,2,5,-10,-5,-1,-2,0,0
1470243555302077,-3,-6,8,8,-2,-3,-2,-1
1470243555302077,-1,1,1,-1,0,-2,1,0
1470243555302569,0,-4,-3,-3,-1,0,-1,0
1470243555302569,-1,-5,-4,-3,-1,1,1,-1
1470243555315596,-2,-1,3,0,1,-2,-1,-2
1470243555315596,-1,-3,-14,-4,-1,0,0,0
1470243555324067,-1,1,3,1,-2,-2,-2,-1
1470243555324067,-1,-2,2,-1,-1,-1,-1,0
1470243555339081,-1,-1,3,-3,-3,-1,0,0
1470243555339081,-1,-3,-4,-2,-2,-4,0,0
1470243555339582,-2,0,-1,0,-1,0,-1,-1
1470243555339582,-1,0,0,2,-2,-1,-1,0
1470243555362111,-3,-2,-3,-2,-1,-2,0,-1
1470243555362111,-2,2,1,-9,-1,-1,-1,-1
1470243555362603,0,-10,-2,1,-1,-1,-1,-1
1470243555362603,-1,-1,4,2,0,-2,-1,-1
1470243555375616,-2,-4,-24,-2,-1,1,-2,-1
1470243555375616,2,2,-8,-1,0,-1,-2,-2
1470243555384141,1,3,17,2,-1,-1,0,-3
1470243555384141,-2,1,8,2,-2,-1,0,-3
1470243555399243,0,0,-2,-2,-2,0,-1,-1
1470243555399243,0,-3,-2,2,-2,-2,-1,-1
1470243555399636,-1,0,-11,-3,0,0,-1,1
1470243555399636,-2,-3,0,-4,-2,-3,-1,-1
1470243555422157,0,4,-1,-4,3,0,1,-1
1470243555422157,-2,-3,7,0,-2,0,-1,-1
1470243555422660,-1,0,-3,1,0,-1,-1,-1
1470243555422660,-1,0,-5,2,-1,-2,0,0
1470243555435669,0,-1,1,-11,-4,-1,-1,0
1470243555435669,-3,1,3,4,-1,-1,0,0
1470243555444176,-1,1,7,-3,-2,-2,0,-2
1470243555444176,1,-2,-8,0,-1,-1,-3,-1
1470243555459190,-2,-3,2,0,-1,-1,-1,-1
1470243555459190,-1,3,-2,2,-1,-1,0,-3
1470243555459690,-3,-7,1,1,0,-2,-1,0
1470243555459690,-3,-1,-5,-3,-1,-1,1,-1
1470243555482210,-1,1,13,3,1,-1,0,0
1470243555482210,-2,-2,4,-1,-3,-1,-1,-2
1470243555482711,-2,2,-6,6,-3,-1,0,-1
1470243555482711,-3,-3,-4,-10,0,0,-1,-1
1470243555495785,-1,-2,-9,-2,-3,-1,-1,0
1470243555495785,-1,-2,1,0,0,-2,-1,-2
1470243555503757,-1,-1,-3,-1,0,0,-2,-2
1470243555503757,-3,-1,0,1,-2,-1,-1,-1
1470243555518786,1,2,6,4,-1,0,1,-1
1470243555518786,-1,-2,-10,-4,-2,-1,0,0
1470243555519752,-2,-1,-6,-2,-1,0,-1,0
1470243555519752,0,-2,8,0,-1,0,1,-1
1470243555542264,-2,-2,0,2,-1,-1,-3,-1
1470243555542264,-2,-2,-7,-11,0,1,0,0
1470243555542764,-1,0,-3,-2,0,-1,-1,0
1470243555542764,-1,-1,9,0,1,-2,-1,-2
1470243555555775,-1,0,-9,1,-2,-2,-2,0
1470243555555775,-1,-7,-4,3,1,-1,-3,0
1470243555563816,1,2,4,-5,-1,-2,0,0
1470243555563816,-3,-1,-10,0,-1,0,-1,-1
1470243555578852,0,-4,1,-2,0,0,-1,0
1470243555578852,0,1,3,2,0,0,-1,-1
1470243555579798,-1,-1,1,0,-1,0,-1,-1
1470243555579798,-1,-1,-10,-2,-1,-2,-1,0
1470243555602364,-1,0,-3,-3,-3,-1,0,-1
1470243555602364,0,-1,4,1,0,-1,-1,-1
1470243555602822,-1,3,-6,1,1,-1,-2,-2
1470243555602822,0,-3,9,4,-2,-2,0,0
1470243555624838,-4,0,-1,-2,-1,-2,-1,-2
1470243555624838,1,0,-1,1,-1,0,0,2
1470243555625339,0,-3,-3,-5,-1,-2,-1,-2
1470243555625339,-1,-1,-2,-1,0,-1,-1,-1
1470243555638946,-3,-3,-4,-1,-2,-1,-1,1
1470243555638946,-1,0,4,7,0,-3,0,-3
1470243555639354,-1,-2,1,0,-1,0,-1,0
1470243555639354,0,-2,3,1,-1,-1,-3,-3
1470243555661872,0,1,6,0,0,0,-1,-4
1470243555661872,-3,-4,-2,-4,-3,0,-1,-1
1470243555662871,-1,-2,-9,-4,-1,0,0,0
1470243555662871,-1,-4,0,-2,0,-3,-1,2
1470243555684392,-1,0,-2,-3,-3,0,0,-2
1470243555684392,1,2,-7,-3,-1,-1,-1,0
1470243555685392,0,0,9,-1,-3,-1,0,-1
1470243555685392,1,3,-2,-1,0,0,-2,-2
1470243555698932,-4,-8,-5,0,1,-1,-1,0
1470243555698932,-2,-1,-4,-1,-1,-2,0,0
1470243555699406,-1,-1,-2,8,0,-1,-1,-1
1470243555699406,-2,0,2,-8,-2,-2,-2,-2
1470243555721951,-1,-1,-12,-1,-1,-1,0,-1
1470243555721951,-2,-2,-1,-3,-2,0,-1,-2
1470243555722427,-2,-2,8,1,-3,-2,0,0
1470243555722427,1,0,-10,1,-1,-1,1,0
1470243555744445,0,-1,0,-1,-2,-1,-3,0
1470243555744445,-1,0,-5,-1,-2,0,-1,-3
1470243555744946,0,1,7,1,0,0,0,-2
1470243555744946,-2,-6,0,-2,-2,-1,-1,-1
1470243555758962,-2,-2,-3,-4,-3,-2,-3,-1
1470243555758962,-2,-1,-1,1,-1,-1,-1,0
1470243555759463,0,-1,0,2,0,-2,-2,-1
1470243555759463,-2,-1,-1,-4,-2,1,1,-1
1470243555789517,-1,-1,-3,0,-1,-1,1,0
1470243555789517,-1,-1,8,4,0,-1,-1,-1
1470243555790486,-4,-5,-21,-8,0,-2,-2,-2
1470243555790486,-1,4,25,2,0,-1,-2,-1
1470243555804532,-1,3,-1,2,-2,-3,0,-1
1470243555804532,-2,-1,-5,1,0,-2,0,-1
1470243555805500,0,-1,-1,-11,-1,-1,0,0
1470243555805500,-2,-3,-13,-5,-2,0,0,-3
1470243555819011,0,1,7,-1,1,1,0,0
1470243555819011,1,-2,1,0,-2,0,-3,-1
1470243555819514,-2,2,-3,1,-2,-1,0,-1
1470243555819514,-1,-8,-5,-2,0,0,-1,-2
1470243555842083,-1,-1,-9,-1,-3,0,0,-2
1470243555842083,-3,-1,2,1,-1,-2,0,-2
1470243555843038,0,1,3,2,0,0,-1,-1
1470243555843038,-1,0,-4,1,-2,-1,-3,-1
1470243555864553,0,0,1,-2,-1,-1,-2,0
1470243555864553,2,-2,-3,-3,-2,0,0,0
1470243555865554,-1,-2,-1,1,-1,-2,-2,0
1470243555865554,0,-1,-2,3,2,0,-1,-1
1470243555879066,-1,1,-1,-1,0,-1,-1,-2
1470243555879066,-1,1,0,-6,-2,-3,-3,0
1470243555879569,-1,0,7,1,-1,1,-1,-2
1470243555879569,-2,-2,-9,2,-1,-1,0,2
1470243555902087,1,-1,0,-1,-1,-2,-2,-3
1470243555902087,-1,-1,-4,-3,0,-1,-1,-2
1470243555902589,-4,-1,0,-1,-1,-1,-2,-1
1470243555902589,-2,-2,-4,-9,-3,-2,-1,-2
1470243555924607,1,1,1,1,-2,-1,2,-1
1470243555924607,0,-1,-1,-2,-1,-1,-1,0
1470243555925608,1,-2,-1,3,-1,0,0,0
1470243555925608,-3,2,16,5,-1,-3,-2,-2
1470243555938654,-2,-2,-2,-3,1,-1,0,0
1470243555938654,0,-4,-2,1,-1,-2,-1,-2
1470243555939625,0,0,-6,-2,-2,-1,0,-1
1470243555939625,1,-1,-6,-3,0,1,0,-1
1470243555962155,-2,-2,-1,0,-1,0,-1,1
1470243555962155,-3,-1,10,4,-1,0,-1,0
1470243555962646,0,0,1,-7,-1,-1,-1,-1
1470243555962646,-2,-2,-11,-4,-4,-1,-1,-1
1470243555984664,0,-2,0,0,-2,-3,-3,-1
1470243555984664,-1,-3,-12,-4,-3,0,-2,-3
1470243555985163,-2,-3,6,5,-3,-1,0,-3
1470243555985163,0,-1,-1,4,-2,-1,-1,-1
1470243555999249,-1,-3,-1,-7,0,-1,-1,0
1470243555999249,-3,-1,-3,-2,0,0,-1,-2
1470243555999674,-1,0,-2,0,0,-2,-1,-1
1470243555999674,1,-1,-9,0,0,0,0,1
1470243556022195,-1,0,24,6,-1,-2,0,-1
1470243556022195,-1,-1,-14,-3,-3,-1,-3,-2
1470243556022696,-2,-3,-5,-3,0,-1,-2,1
1470243556022696,-1,0,-4,0,-2,-2,-1,1
1470243556044715,1,-2,-5,-1,-1,-2,-1,0
1470243556044715,0,-1,2,-2,-1,1,1,-1
1470243556045215,1,0,-3,-1,-1,-4,1,-3
1470243556045215,-1,0,2,0,0,-1,-1,-1
1470243556058729,-3,-1,-6,-1,-1,-2,-3,0
1470243556058729,-2,1,5,-1,0,0,2,1
1470243556059730,-2,-2,-5,-1,-1,0,-2,0
1470243556059730,-1,-2,2,-1,1,-1,0,-1
1470243556082249,-1,-2,1,-4,1,-1,-1,0
1470243556082249,0,0,-4,0,-1,-2,0,0
1470243556082749,-1,-1,-2,-1,-1,1,0,-1
1470243556082749,1,0,12,6,-1,0,-1,0
1470243556104270,-2,0,-5,-12,-2,-1,0,-2
1470243556104270,1,-2,-18,-2,1,-2,0,0
1470243556105270,-3,-1,16,-2,-2,-1,-1,0
1470243556105270,-1,-1,-7,-2,-2,1,1,-2
1470243556118781,0,0,-4,6,-2,0,-2,-2
1470243556118781,-1,-1,6,0,0,-1,-1,-2
1470243556119783,0,-3,-8,-1,-1,-2,-1,-1
1470243556119783,0,-1,0,-3,0,-2,-3,-2
1470243556142302,1,-1,0,-3,0,0,-2,-2
1470243556142302,0,0,2,-2,0,-1,-1,0
1470243556142805,-3,-2,1,2,-2,-2,-1,-2
1470243556142805,-1,0,-1,0,0,-1,-2,0
1470243556164831,-2,-2,-5,-4,-3,2,0,-2
1470243556164831,-1,-1,5,1,-3,-2,-1,1
1470243556165326,0,-2,-6,-2,1,1,0,-2
1470243556165326,-2,-1,0,-3,-1,-2,-2,-2
1470243556178400,1,-2,-4,2,-1,-3,0,-1
1470243556178400,-1,-1,2,1,-2,-1,-2,-3
1470243556186361,1,1,0,6,-1,-1,-1,0
1470243556186361,-2,-2,-7,-11,0,1,-1,-1
1470243556202376,-3,1,4,2,0,0,0,-2
1470243556202376,-3,-1,2,-2,-2,-3,-2,-1
1470243556202861,0,-3,-3,-2,-1,0,-1,-1
1470243556202861,1,0,-1,1,0,-3,1,-2
1470243556224410,1,0,-6,0,1,-1,-1,1
1470243556224410,0,-2,-1,-3,-1,-2,-2,0
1470243556225424,-2,-1,-3,1,-1,1,-3,-2
1470243556225424,0,-2,1,-4,-1,0,-1,1
1470243556238389,-2,-1,-13,-3,-1,-3,0,-1
1470243556238389,-2,3,7,2,-2,0,0,-2
1470243556246436,0,-1,-4,-4,-1,-2,1,-2
1470243556246436,-2,-5,-2,2,-2,-1,-2,-1
1470243556261943,-2,-2,0,-3,0,-1,-1,-1
1470243556261943,1,-3,-4,1,-1,1,-2,-2
1470243556262931,0,-1,1,-1,-1,0,-1,1
1470243556262931,-2,-1,-1,-2,-3,-1,-1,0
1470243556284430,-1,-1,3,4,-1,-2,-1,-3
1470243556284430,-2,-3,-12,-4,2,-1,-1,-1
1470243556285464,-1,1,7,-2,-2,-1,-2,0
1470243556285464,0,2,-4,-1,0,-2,0,-1
1470243556298443,-2,0,0,1,-2,1,0,0
1470243556298443,-2,-2,2,-2,-3,-2,1,0
1470243556306451,0,0,-5,-3,-1,-1,-1,0
1470243556306451,-1,-2,2,0,-1,0,1,-1
1470243556321964,-3,-2,2,1,0,0,-2,-2
1470243556321964,-1,-1,0,0,-1,-2,-1,0
1470243556322965,-2,-1,-4,5,-3,-2,0,0
1470243556322965,0,-1,-2,-7,-3,0,-2,-1
1470243556344528,0,-2,3,0,-2,1,-1,-1
1470243556344528,-2,0,0,-2,-2,2,-1,-1
1470243556345485,-2,-3,-11,-4,-1,-1,-2,-1
1470243556345485,1,-2,21,6,0,-2,-2,1
1470243556357998,-4,-2,-13,-1,-3,-3,1,0
1470243556357998,-1,-1,3,1,-2,-1,-1,0
1470243556367013,0,0,-4,0,-1,-2,1,0
1470243556367013,-1,-3,-5,0,-2,0,-1,-1
1470243556382138,0,-1,1,-4,0,-2,-3,-2
1470243556382138,0,-2,-2,0,-2,0,-3,-1
1470243556383519,-3,-2,0,-2,-1,-1,-1,-1
1470243556383519,-2,0,-5,2,1,0,-1,-1
1470243556404620,1,-2,2,-3,-1,-3,-1,0
1470243556404620,-2,-1,-2,-1,-1,1,-2,-1
1470243556406039,-1,3,2,-3,-1,-1,-3,0
1470243556406039,-2,-6,-3,0,-1,-3,0,-1
1470243556418550,0,-1,-1,0,0,1,0,-1
1470243556418550,1,2,-2,-2,-1,-2,-1,-1
1470243556427059,-1,0,4,7,-1,-2,-1,-1
1470243556427059,0,-1,-6,-8,-3,-2,1,-1
1470243556442086,0,-2,0,0,-1,-3,-1,-1
1470243556442086,-3,-3,-2,-1,-1,-1,-1,-3
1470243556443575,1,-1,-4,-3,-2,0,-2,-2
1470243556443575,0,2,-2,0,-1,-1,-2,-2
1470243556464643,-1,-2,-1,-1,0,1,1,-1
1470243556464643,-2,-1,0,-1,0,-2,0,1
1470243556466102,0,-2,-1,1,1,-1,-2,-1
1470243556466102,-2,-2,-10,-2,-2,-1,-1,-1
1470243556478607,-2,-2,5,-2,-1,-1,-2,0
1470243556478607,-1,-2,-4,-2,-1,-2,-1,-3
1470243556487112,-3,-1,-5,-3,-1,-1,-1,1
1470243556487112,-1,-1,-5,0,-4,0,-2,-1
1470243556502125,-1,1,6,1,-2,-1,-1,-1
1470243556502125,-1,0,10,5,-1,-1,0,-1
1470243556503627,-2,1,2,-2,-1,-1,0,-3
1470243556503627,1,0,-3,4,-1,-2,-1,0
1470243556524646,0,-1,-8,-10,0,-1,-2,0
1470243556524646,0,-2,0,-2,0,1,-1,-1
1470243556526147,-3,-2,-4,-6,-2,-1,-1,-2
1470243556526147,-1,0,5,2,0,-1,-1,-1
1470243556547165,-2,-3,-4,3,0,-1,0,0
1470243556547165,-1,-1,-2,-3,-1,-2,-2,1
1470243556548668,1,-1,1,1,-1,-1,0,0
1470243556548668,-2,0,-4,0,-1,-1,1,-1
1470243556562179,1,-1,2,0,-2,-1,0,-1
1470243556562179,1,0,5,2,0,0,-1,-1
1470243556563681,-2,-5,-8,-7,-2,-2,0,-3
1470243556563681,0,1,4,1,0,-1,0,-1
1470243556584700,-1,-2,0,0,-3,0,-2,0
1470243556584700,-1,-2,0,0,-1,0,-2,-1
1470243556586201,1,0,-1,1,-1,-3,-1,0
1470243556586201,-1,-3,-7,-6,-1,-1,-2,-1
1470243556607220,0,-1,-2,1,1,0,0,-1
1470243556607220,-2,0,-6,-1,-2,0,-1,0
1470243556608741,-3,-2,6,-1,0,-2,-2,0
1470243556608741,-2,1,1,-1,0,-2,-1,1
1470243556622234,-1,0,-4,-1,-2,-1,0,-2
1470243556622234,-2,0,-2,-3,-1,-2,0,-4
1470243556623736,-2,-1,-3,-3,-1,-1,-1,1
1470243556623736,0,-1,6,-2,-1,1,-2,-1
1470243556644764,-3,1,4,-1,-2,-2,-1,0
1470243556644764,-1,-2,-5,1,1,1,0,-1
1470243556646257,-1,-2,-4,-10,-2,2,0,-2
1470243556646257,-1,-2,1,-1,0,0,-1,-2
1470243556667278,-1,-2,-2,-3,0,-2,-2,-1
1470243556667278,-1,-2,0,1,-2,-2,-2,0
1470243556668775,1,-2,-5,4,0,-1,-1,-2
1470243556668775,-2,-2,3,1,-1,-1,-1,-2
1470243556681293,-2,-1,-2,-1,0,1,-1,-2
1470243556681293,-1,-2,-12,-3,-1,-1,1,0
1470243556688293,-1,0,22,2,-3,-3,-2,0
1470243556688293,-1,-1,-10,-2,0,-1,-1,-1
1470243556704360,0,-2,0,0,-1,-2,0,0
1470243556704360,-3,0,-4,-2,-1,0,-1,0
1470243556706353,-1,-2,-5,-2,0,0,-1,-1
1470243556706353,0,-1,1,1,1,-2,-2,-1
1470243556727330,-2,-2,-3,0,-1,-1,-1,-1
1470243556727330,-1,-1,1,-3,-1,-2,-1,-4
1470243556728415,0,-1,-3,-1,0,0,0,-1
1470243556728415,-1,1,0,-2,-3,-2,1,-2
1470243556741340,-3,0,-2,-2,0,-2,-1,-1
1470243556741340,-2,-2,1,-2,-1,-2,-1,0
1470243556748412,0,-2,-2,0,1,0,-2,-1
1470243556748412,-1,-2,3,0,-2,-1,-2,-3
1470243556764861,-1,0,0,-2,-1,-2,0,-1
1470243556764861,-1,-2,0,-3,-2,-2,-1,-3
1470243556766364,-1,-2,-6,-1,-1,-2,1,-1
1470243556766364,-2,-2,-1,-3,-2,-1,-2,0
1470243556786881,0,2,-1,0,-1,0,-1,-1
1470243556786881,1,-3,0,-1,-2,-2,0,-2
1470243556788382,-1,1,4,0,-1,-2,-1,-1
1470243556788382,-2,-4,-9,-6,-2,-2,-1,1
1470243556801422,-1,-1,-8,-2,-4,-1,0,0
1470243556801422,-1,-1,-5,-1,-1,-1,-3,0
1470243556808400,-1,-1,-6,-2,0,-3,0,0
1470243556808400,-1,2,2,1,0,-2,-2,-1
1470243556824449,0,-2,-2,7,0,-1,-3,1
1470243556824449,0,-3,-6,-7,-1,-1,0,-1
1470243556825916,-1,-2,2,-1,-3,-2,1,-2
1470243556825916,-2,2,-1,-1,0,0,-2,-2
1470243556846968,-1,-1,-2,0,-1,-2,-1,-2
1470243556846968,0,-1,-3,2,-1,0,0,-2
1470243556848436,-1,-1,1,6,0,-1,-2,-3
1470243556848436,-3,-2,-4,-6,-1,0,-2,1
1470243556861478,-2,-3,0,-3,-1,1,0,-2
1470243556861478,-1,0,1,2,0,-2,-3,0
1470243556868455,-2,-3,-6,-4,-1,-3,-1,0
1470243556868455,0,-1,1,5,0,-2,0,-1
1470243556884511,-1,-1,1,-3,-1,-2,0,-1
1470243556884511,0,0,-2,-5,-3,0,-2,-1
1470243556885970,-1,-1,0,2,-1,-1,-2,-2
1470243556885970,-3,-1,0,-3,-3,-2,-1,0
1470243556907034,1,1,-7,-2,0,-3,-2,-1
1470243556907034,-2,-3,-1,-3,1,-2,-1,1
1470243556908494,-1,0,10,1,1,0,-1,1
1470243556908494,2,-2,-4,0,-2,-1,1,-3
1470243556921509,-2,-2,-2,-3,1,-2,0,1
1470243556921509,-2,-1,-3,2,-2,-2,0,0
1470243556928031,0,0,-3,-3,-3,-1,-1,0
1470243556928031,-1,-1,-1,-1,1,-2,0,-1
1470243556944523,0,0,4,2,-1,-3,-3,0
1470243556944523,-1,1,1,-1,-1,0,0,1
1470243556946043,-2,2,-1,-2,-2,0,-2,-1
1470243556946043,-2,-1,0,-1,-1,0,0,0
1470243556967043,-2,-3,-2,1,-2,2,-1,-2
1470243556967043,-1,-2,0,-3,0,-2,-1,-2
1470243556968545,-3,-2,-6,-11,-3,0,-1,-1
1470243556968545,0,-1,-2,-1,0,-1,-2,1
1470243556981600,-2,-1,4,-1,0,-1,0,-2
1470243556981600,-2,-1,-4,2,-1,0,-2,0
1470243556988563,0,-1,1,-1,-1,0,0,-2
1470243556988563,-2,-2,5,-1,-2,0,-1,0
1470243557004611,0,-1,5,-2,-1,-1,-1,-2
1470243557004611,-1,-1,-2,1,0,-3,-1,-2
1470243557006081,-3,-2,-21,-3,0,-3,-1,-2
1470243557006081,-2,0,6,-2,-1,-4,-2,-2
1470243557027164,-1,-2,-4,0,-1,0,1,-1
1470243557027164,-2,-1,5,-1,-1,1,0,1
1470243557028604,-1,1,1,1,-1,-1,-1,0
1470243557028604,-1,0,-3,1,-1,-1,2,-2
1470243557041123,-2,-1,-1,-2,-2,0,-2,-1
1470243557041123,0,-1,0,2,-1,-1,-1,-1
1470243557049617,0,-1,1,0,0,-2,-1,0
1470243557049617,0,-1,-7,-8,-2,-3,-1,0
1470243557064630,0,-2,4,1,0,-1,0,-1
1470243557064630,-2,-2,-15,-3,-1,-3,0,0
1470243557066134,-2,-3,5,4,-2,-1,-1,0
1470243557066134,-1,-1,2,0,-2,-1,-1,-2
1470243557087192,0,1,-3,-2,-1,-2,-2,-2
1470243557087192,0,0,7,1,-2,-2,-2,0
1470243557088652,-1,-2,-12,-4,-1,-1,-1,-1
1470243557088652,-2,-4,-3,-3,0,1,-1,-2
1470243557100718,0,-3,-6,-2,0,-2,-2,-1
1470243557100718,-1,0,2,-2,-1,0,0,-2
1470243557109672,1,-2,5,0,0,-1,-1,-1
1470243557109672,2,-1,-6,-3,0,0,-1,-2
1470243557124699,-2,0,5,-1,-1,-2,-1,-1
1470243557124699,0,-2,-1,2,-1,0,1,-2
1470243557126187,-2,0,6,-1,-2,-3,-1,-2
1470243557126187,-1,0,-8,3,1,-3,-1,0
1470243557147301,-2,-1,-7,-6,0,-1,0,1
1470243557147301,-2,-2,4,-6,-1,-1,-2,-1
1470243557148717,1,-3,2,0,-3,-1,-1,0
1470243557148717,-1,-1,-1,0,-1,-1,0,0
1470243557160737,-1,-2,4,4,-3,-1,0,0
1470243557160737,1,1,-4,-2,-1,0,-1,0
1470243557169725,0,0,-5,-3,0,1,0,-2
1470243557169725,1,-1,1,-1,0,-1,-2,-2
1470243557184771,-1,0,-1,1,0,1,-2,-2
1470243557184771,-3,-1,2,1,-1,-3,-1,-2
1470243557186240,-1,-3,-1,-3,-1,-1,-2,0
1470243557186240,-1,-2,-8,-1,0,-3,-1,0
1470243557207259,-1,-2,0,-1,-3,1,0,0
1470243557207259,-1,0,2,1,-2,-2,-1,0
1470243557208760,-1,0,6,4,1,-1,-2,-2
1470243557208760,-1,1,-1,0,-2,-3,-1,-2
1470243557220826,-1,-3,-5,0,0,-2,-1,-1
1470243557220826,0,-2,-2,-9,-1,-3,-1,-2
1470243557229779,0,0,-6,-4,-1,0,2,-1
1470243557229779,-1,-2,5,-1,-2,1,-1,-1
1470243557244293,-1,0,1,2,-1,-2,0,-2
1470243557244293,-2,-2,-4,3,-1,-1,-1,0
1470243557246294,-1,-1,-1,-1,0,-2,-2,-2
1470243557246294,-1,-1,-1,-1,-2,0,0,1
1470243557267359,-3,-1,-2,-3,0,-2,-2,0
1470243557267359,0,-1,-1,-1,-1,-2,-2,-2
1470243557268313,-1,-1,0,-1,-3,-1,0,-1
1470243557268313,-1,0,-1,1,1,-1,-2,-1
1470243557280914,-1,-1,-2,-6,-2,-1,-1,-1
1470243557280914,-2,-2,-1,-1,0,-1,-1,-2
1470243557289833,-2,0,0,3,-1,-2,-3,-1
1470243557289833,0,1,-1,-3,0,-1,-1,-3
1470243557304846,0,-2,0,-1,-2,-2,-1,-1
1470243557304846,-1,-2,-2,0,-1,0,-2,0
1470243557306347,0,-2,4,3,-2,-1,-2,-1
1470243557306347,0,-3,-3,-1,-1,-2,-1,-1
1470243557326953,-2,-1,-5,-6,-1,-1,-2,-2
1470243557326953,-1,-1,-1,7,0,0,1,-1
1470243557328371,0,-1,-3,-11,0,-1,0,0
1470243557328371,0,1,-1,0,-1,0,-2,2
1470243557340914,-2,-1,-7,1,0,0,1,-1
1470243557340914,-3,0,0,-3,-2,-2,-3,0
1470243557349908,0,-1,-4,2,-1,1,0,-1
1470243557349908,0,-2,2,-2,-1,0,0,-2
1470243557364440,0,-1,-1,0,0,0,-1,1
1470243557364440,0,0,-3,-1,1,0,-1,-1
1470243557365903,-1,-2,-1,-1,-1,0,-1,-1
1470243557365903,-3,1,10,-2,-3,-2,-2,-1
1470243557386919,-1,-2,-22,2,-1,-2,-2,0
1470243557386919,-2,-4,6,-5,-1,0,1,-1
1470243557388922,0,0,-4,-2,0,-1,1,-3
1470243557388922,0,-1,2,3,-1,-2,0,0
1470243557400934,0,2,3,0,-1,-1,-1,-1
1470243557400934,-1,0,3,1,-2,-1,-2,-2
1470243557409941,0,-2,-6,0,0,1,-2,-2
1470243557409941,1,-1,-1,-1,-2,-1,0,-2
1470243557424470,-3,-2,-6,-2,-1,0,0,-1
1470243557424470,-1,1,13,0,-1,-2,-1,0
1470243557425956,-2,-1,3,0,0,0,0,0
1470243557425956,-1,0,2,0,0,-1,-1,-1
1470243557447017,-2,-4,-6,-6,-2,0,-1,0
1470243557447017,0,-2,-4,-2,-1,0,1,-1
1470243557448492,0,-1,-2,2,0,-2,-1,0
1470243557448492,0,-2,-6,-2,-1,0,-1,-2
1470243557461001,-1,-3,-1,-1,-2,-1,-2,-3
1470243557461001,-1,-2,-3,-1,0,0,-1,-2
1470243557469494,-1,-1,-1,0,-3,-1,-1,0
1470243557469494,-1,-2,-6,-3,-2,-1,-1,0
1470243557484537,0,0,5,0,-1,0,-1,1
1470243557484537,0,-1,-2,-2,-1,-3,-1,0
1470243557486011,-1,-1,-7,-4,-2,-2,-1,-2
1470243557486011,-2,-1,10,2,0,-1,0,-1
1470243557507030,0,2,3,-3,-2,-1,-2,-1
1470243557507030,-1,-2,-2,2,1,-1,-1,-1
1470243557508529,-3,-3,-9,-4,-2,-2,-1,-1
1470243557508529,-2,-1,-7,-3,-1,-1,-1,-1
1470243557529583,-1,-1,19,4,0,0,0,-1
1470243557529583,-4,-1,-7,-5,-3,-1,-2,-2
1470243557531049,-1,0,0,-1,0,-2,-1,-2
1470243557531049,-2,-4,-6,-8,-1,-1,-1,-2
1470243557544660,-1,-1,4,1,0,-2,-1,-1
1470243557544660,0,-3,-9,-9,-2,-1,-1,-4
1470243557546062,-1,0,8,7,1,1,-1,-1
1470243557546062,1,-1,-2,-3,-1,-1,-1,0
1470243557567134,-1,-1,2,-1,0,0,-1,-1
1470243557567134,1,-3,-11,-6,-2,-2,-2,0
1470243557568584,-2,0,13,-1,-2,-3,-2,-1
1470243557568584,1,-1,-4,3,0,-1,-1,0
1470243557589630,1,-1,-6,1,-1,0,0,-1
1470243557589630,2,1,1,1,0,-2,0,0
1470243557591103,-3,3,9,2,0,-2,-1,-1
1470243557591103,-8,-7,-8,-5,-2,-2,-2,-2
1470243557604615,-1,-2,3,2,0,0,1,-1
1470243557604615,0,0,2,4,-1,0,0,-1
1470243557606117,7,-2,-4,-17,-1,-1,-2,1
1470243557606117,-12,4,0,13,-1,-2,1,-4
1470243557627140,-12,-7,-4,-15,0,-1,-1,-2
1470243557627140,-10,-2,0,11,-2,0,-2,1
1470243557628638,14,8,1,-11,-5,-2,-2,1
1470243557628638,-8,-4,2,8,0,1,-4,-3
1470243557649656,-5,10,-16,-1,-1,-2,0,0
1470243557649656,8,-11,20,-3,-4,-2,-1,0
1470243557651187,0,-10,-17,2,2,-1,0,-2
1470243557651187,-8,-3,-2,-3,-3,0,6,-2
1470243557664192,2,9,7,6,-5,-1,-4,-2
1470243557664192,-5,-3,-3,-11,3,0,-1,-1
1470243557670674,8,1,-5,0,-6,-2,-2,0
1470243557670674,-8,-15,0,-4,0,0,-1,0
1470243557687224,7,-2,-12,-2,1,-1,0,1
1470243557687224,-1,0,6,6,-2,0,-1,-1
1470243557688693,-10,0,7,8,1,0,0,-2
1470243557688693,13,0,-8,-8,3,-2,-3,1
1470243557709710,3,-7,7,-3,-2,-4,-1,-3
1470243557709710,-22,-1,-12,-2,-4,-2,-3,-2
1470243557711245,-1,-2,-14,0,-2,2,-1,0
1470243557711245,3,15,6,12,-3,-2,-1,-1
1470243557723814,-4,-11,4,-6,0,0,0,1
1470243557723814,13,4,-23,-8,-2,-2,0,-2
1470243557730756,-8,13,1,-12,-6,-2,-1,-4
1470243557730756,2,-27,18,30,10,3,-3,0
1470243557747347,16,-10,-30,-41,-2,2,1,2
1470243557747347,-35,0,10,5,3,-2,-1,-5
1470243557748746,4,7,11,-3,-3,-1,1,0
1470243557748746,5,2,-13,8,-6,-4,-2,1
1470243557769786,9,4,7,-10,0,0,1,-2
1470243557769786,10,1,4,12,0,0,-1,-1
1470243557771265,-38,-9,-8,0,-2,-2,-2,-6
1470243557771265,11,6,4,-20,-4,-3,-1,-1
1470243557783776,-17,0,2,17,-1,-2,-2,-1
1470243557783776,16,-3,3,-9,-3,0,1,2
1470243557790782,-5,-11,-12,7,0,-1,-1,-1
1470243557790782,7,10,-12,-12,0,-1,-1,2
1470243557807314,-9,-11,17,6,-2,-1,-1,-4
1470243557807314,7,6,-20,-2,-1,-2,-2,-2
1470243557808801,4,-12,7,2,3,1,-1,0
1470243557808801,-7,3,0,-3,0,-1,-2,-1
1470243557829817,4,4,2,16,0,-2,0,1
1470243557829817,-2,-1,-5,-7,2,0,-1,-1
1470243557831321,8,-2,21,21,0,0,-3,1
1470243557831321,3,0,-29,-35,-3,0,-2,-2
1470243557843830,-16,2,24,9,0,-4,-2,-3
1470243557843830,3,1,-1,5,-1,0,-1,1
1470243557850839,6,3,14,7,-1,-2,-2,1
1470243557850839,5,-1,6,-4,-1,2,0,1
1470243557867355,1,-3,-29,2,-4,-2,-1,-3
1470243557867355,-1,0,5,-2,2,-1,0,0
1470243557868859,-9,-6,-21,-16,-3,-5,-2,-3
1470243557868859,-2,-1,17,13,2,0,-4,-1
1470243557889398,-1,4,3,9,-2,-1,-1,-1
1470243557889398,3,-3,-3,-9,0,-1,-1,-1
1470243557890872,-2,-4,5,4,-1,-2,0,0
1470243557890872,-3,1,-23,-7,-1,-2,0,-1
1470243557903994,-1,-1,2,-7,-1,0,-3,0
1470243557903994,2,1,0,3,-1,1,-1,-1
1470243557910892,2,-3,-5,-7,1,0,1,0
1470243557910892,-9,-2,2,0,-2,-2,-2,-2
1470243557927409,2,2,-7,0,-2,-2,0,-1
1470243557927409,-1,-2,20,9,-6,-1,-1,-1
1470243557928907,10,1,-11,-20,1,0,-1,0
1470243557928907,-10,0,9,0,-4,-1,1,-2
1470243557949458,6,-2,-6,0,-1,-2,-1,-1
1470243557949458,-20,-13,-2,-9,2,0,2,-2
1470243557951431,12,13,-7,19,0,0,1,1
1470243557951431,-16,-6,1,-8,0,-2,-1,-3
1470243557963437,-3,-8,10,2,-3,-1,-1,1
1470243557963437,7,6,4,6,0,-1,0,-1
1470243557972446,-6,-14,-15,-2,-3,-2,-1,1
1470243557972446,10,8,2,1,0,1,-1,0
1470243557986986,8,-2,-16,-4,2,-1,0,1
1470243557986986,-6,-3,-8,-9,-3,-1,1,-3
1470243557988460,-3,10,14,2,-1,0,-2,-1
1470243557988460,7,23,15,9,-2,-1,-2,1
1470243558009984,-1,2,-2,-2,-2,-2,-1,1
1470243558009984,6,-4,-10,-11,0,-2,0,1
1470243558011483,-4,-5,2,-10,0,2,-2,0
1470243558011483,1,-3,-6,1,0,-1,2,-1
1470243558023496,-2,4,21,3,5,2,1,-3
1470243558023496,1,2,-14,4,-8,-4,-2,-1
1470243558031999,-4,-7,-6,4,6,-1,0,0
1470243558031999,-3,-1,11,4,-4,0,-2,0
1470243558047040,18,9,-11,-10,-1,0,1,1
1470243558047040,-25,-13,2,10,-1,1,-4,-7
1470243558048529,3,10,4,-15,-3,-2,-3,-1
1470243558048529,8,-13,-6,-5,-2,-1,0,1
1470243558069546,-8,-3,-21,2,2,0,0,0
1470243558069546,10,7,23,-13,-2,-1,0,1
1470243558071034,-7,-22,-11,7,-4,-1,1,-4
1470243558071034,2,2,1,4,-1,-1,-3,-3
1470243558083550,-10,-5,-4,-6,-5,0,-3,-5
1470243558083550,6,1,-12,15,1,-2,-3,0
1470243558099560,-10,11,15,-13,1,-1,0,0
1470243558099560,-1,-15,-5,0,0,-1,-1,-1
1470243558107066,-9,-11,-2,5,-4,-2,-1,-4
1470243558107066,9,8,1,-10,4,2,-1,-1
1470243558109068,-7,-13,-2,8,-1,-3,-1,-3
1470243558109068,0,-4,-7,2,-1,1,0,0
1470243558129590,6,15,-1,3,-2,-2,-2,-1
1470243558129590,2,-7,-12,-20,-4,-2,1,3
1470243558131088,0,-10,12,16,6,-1,1,-1
1470243558131088,-5,10,-1,-9,-1,-1,-1,-1
1470243558143601,5,-9,-11,3,-1,0,-1,-1
1470243558143601,-4,-2,-8,6,-1,-1,-1,-3
1470243558152124,-13,4,-11,-9,0,-1,-3,1
1470243558152124,0,-10,0,-2,-5,-1,-1,-2
1470243558167150,3,7,11,5,1,-1,0,1
1470243558167150,1,-5,0,-8,-1,-1,-2,0
1470243558168738,-2,0,-8,-7,-4,1,-1,-2
1470243558168738,4,6,0,7,2,-2,1,0
1470243558189646,-11,-4,2,-11,-1,0,-2,-4
1470243558189646,-3,3,-8,-2,-3,-1,-1,1
1470243558191142,15,2,12,10,0,-1,-1,0
1470243558191142,1,-8,8,-10,-3,-3,-1,-3
1470243558203154,-9,6,-14,3,2,0,0,-1
1470243558203154,-2,-12,-1,0,-5,-4,-1,-2
1470243558212161,-4,3,0,0,-1,-1,-2,-1
1470243558212161,-1,-4,-4,-1,0,-2,0,-2
1470243558227201,-3,-1,16,-6,0,0,1,0
1470243558227201,-3,-3,-9,5,-1,-1,0,-1
1470243558228677,-2,1,-8,-5,-4,-2,-2,0
1470243558228677,0,0,-1,-4,-5,-1,-2,-1
1470243558249696,0,-7,2,-2,3,-1,-1,-1
1470243558249696,-5,6,-1,11,-4,0,-1,-1
1470243558251223,4,-1,7,-8,0,-1,-1,-1
1470243558251223,-4,1,-9,2,2,0,0,0
1470243558263209,0,-8,2,-12,-4,-2,-1,0
1470243558263209,-16,0,9,6,-2,-1,-3,-4
1470243558272216,5,-10,-17,-3,-3,0,-1,-2
1470243558272216,-8,-12,-2,4,-1,0,-1,0
1470243558286744,-3,-2,-6,-3,-1,-2,-2,0
1470243558286744,6,1,9,-4,1,1,1,0
1470243558288730,-2,3,-1,-1,2,1,0,-1
1470243558288730,-4,-3,-3,-5,0,1,-1,-2
1470243558309748,1,-3,2,7,-2,-2,0,-1
1470243558309748,3,3,1,-4,0,-1,-3,0
1470243558311251,-1,2,-7,-7,-3,-2,-1,-1
1470243558311251,2,1,0,-1,-2,-2,-1,-1
1470243558323286,-4,-2,3,0,-1,-2,-1,-1
1470243558323286,1,-2,-1,-1,2,-2,-1,-2
1470243558332269,0,5,-2,1,-3,-2,-2,-3
1470243558332269,-2,-2,-16,9,1,-3,-3,0
1470243558347286,-3,2,21,-11,1,0,-1,0
1470243558347286,3,-1,7,-7,-1,-1,-2,0
1470243558348788,-4,-3,0,3,-2,0,0,0
1470243558348788,0,2,-17,-2,-3,-1,-2,-3
1470243558369802,-1,0,-2,7,-1,-1,-1,-1
1470243558369802,1,-1,-3,-2,0,0,-1,0
1470243558371308,1,0,-4,-1,0,-1,-2,-1
1470243558371308,-2,4,11,2,0,-1,-1,-1
1470243558383317,1,-2,-3,1,-2,0,-1,-2
1470243558383317,3,-5,-7,-2,0,-2,1,0
1470243558392323,1,0,2,0,0,-1,-1,1
1470243558392323,2,5,4,5,3,-1,-1,-2
1470243558407340,-17,-4,0,-12,-4,0,-2,-7
1470243558407340,0,1,-4,2,-3,-1,0,-1
1470243558408837,-5,-5,-24,-3,7,2,-1,-2
1470243558408837,1,4,7,-4,-4,-3,-1,2
1470243558429358,2,-3,-3,3,1,-2,0,0
1470243558429358,0,5,2,9,0,-1,0,1
1470243558431357,2,5,-4,-14,-5,-3,-1,-1
1470243558431357,-3,-5,1,2,-2,0,0,-1
1470243558452481,0,-2,0,-4,-3,-1,-2,-2
1470243558452481,-4,-13,-3,-3,-3,-2,-2,-3
1470243558453913,2,-2,2,4,-3,-3,0,0
1470243558453913,2,-3,-4,-6,1,1,-1,-2
1470243558466923,-4,-3,6,3,-3,-3,-1,0
1470243558466923,5,0,-12,4,-1,-2,0,-1
1470243558468424,-6,1,8,-5,0,0,0,-1
1470243558468424,-5,-2,10,-7,-1,-1,-3,-2
1470243558489447,10,3,-14,1,-1,0,1,0
1470243558489447,-6,-2,-8,5,-1,0,-1,0
1470243558491444,3,-11,0,2,-1,1,0,-2
1470243558491444,-4,2,-12,-2,-3,-2,-2,0
1470243558511977,3,-2,-2,-2,0,-1,1,2
1470243558511977,-2,4,5,0,-1,-1,-1,-1
1470243558513464,-2,-5,-9,0,-5,-1,-1,1
1470243558513464,-3,-5,5,-3,1,0,-2,-2
1470243558526489,-2,1,-1,8,-2,0,0,1
1470243558526489,7,9,-4,-16,-3,-1,-1,0
1470243558533482,-5,-7,15,6,-1,-3,-3,-4
1470243558533482,-9,-4,-26,-12,-4,-2,-2,-2
1470243558549526,3,3,-4,-3,0,-1,-1,0
1470243558549526,-8,0,15,4,4,0,-1,1
1470243558550999,6,1,-8,10,-2,-2,-2,0
1470243558550999,-4,-10,7,-9,-2,0,-2,-3
1470243558572019,-2,-3,-10,-7,-4,-1,-2,0
1470243558572019,1,4,-2,-1,-1,-1,-1,1
1470243558574141,-12,-3,32,-3,-3,-1,0,-2
1470243558574141,4,5,-11,4,-2,-1,-1,-4
1470243558586581,0,-7,-22,2,-2,0,-3,-3
1470243558586581,-2,-8,-5,-12,0,-1,-1,-1
1470243558593536,6,7,-3,5,-3,-2,-1,3
1470243558593536,-4,2,22,-4,-1,0,0,-1
1470243558609551,-2,-11,-21,-6,0,-1,-2,0
1470243558609551,-2,1,-4,4,-3,-1,-2,-1
1470243558611052,3,1,-11,-5,1,-1,-1,-1
1470243558611052,-3,1,10,-7,-1,-2,0,1
1470243558632104,-8,2,4,-2,-3,0,0,-3
1470243558632104,-6,-13,9,-1,-3,-1,-1,-3
1470243558633576,11,2,4,10,-1,-1,-1,-1
1470243558633576,-12,-2,-13,-2,-3,-2,-2,-1
1470243558646623,1,0,-3,-5,-1,-3,-1,-1
1470243558646623,1,3,-2,-3,0,0,0,0
1470243558653590,-6,-4,6,0,-1,1,-1,0
1470243558653590,7,-1,-10,1,-1,-2,-1,2
1470243558669649,-5,-3,7,-11,-2,-2,-1,-3
1470243558669649,-4,-3,18,3,-1,-1,-2,-3
1470243558671106,0,-1,-15,0,1,-1,0,1
1470243558671106,2,-1,5,3,-2,0,-2,-1
1470243558692126,0,1,-5,1,0,0,0,0
1470243558692126,0,-3,0,2,-1,0,-2,-1
1470243558693626,-3,-1,10,-10,-4,-2,-1,-2
1470243558693626,4,3,-4,5,1,0,0,0
1470243558706639,-2,2,5,0,3,-1,0,-1
1470243558706639,0,-1,-6,-1,-1,-1,-1,-1
1470243558713144,2,2,-5,5,0,-1,-1,0
1470243558713144,0,-3,-12,-18,-5,1,1,-2
1470243558729693,-2,3,8,10,-1,-1,-1,0
1470243558729693,-2,0,-4,0,3,1,-1,-1
1470243558731163,-4,-3,-13,-2,0,0,-1,-2
1470243558731163,-8,0,34,-6,-2,-1,-2,-4
1470243558752179,8,-2,-4,7,1,0,-2,0
1470243558752179,2,2,-4,-2,-3,-2,-2,0
1470243558753680,-4,0,-13,2,-2,1,-1,-3
1470243558753680,-2,-3,0,5,3,-1,0,1
1470243558766192,0,-3,0,-3,1,-1,-1,2
1470243558766192,0,2,5,7,-3,-2,-2,-1
1470243558773199,-1,1,-10,-16,2,1,-2,-1
1470243558773199,5,4,5,1,0,-1,1,1
1470243558789714,-10,-13,-17,-8,-5,-2,-2,-3
1470243558789714,-6,-1,21,1,-1,1,1,1
1470243558791214,7,4,0,-3,3,-1,0,-2
1470243558791214,9,0,-16,7,0,0,-1,-1
1470243558812234,-19,-4,6,4,-1,-1,0,-5
1470243558812234,2,-1,-23,0,-2,-3,-1,-1
1470243558813734,5,2,9,-8,-3,-2,-1,-1
1470243558813734,-6,-8,-17,4,-2,-1,-2,-2
1470243558826749,6,7,13,-5,-2,-1,0,2
1470243558826749,-2,-2,5,-4,-1,0,0,-1
1470243558833254,-4,1,1,15,3,0,0,0
1470243558833254,6,10,12,-3,2,-1,0,3
1470243558849775,-1,-15,-10,0,0,0,-2,0
1470243558849775,0,4,-1,-5,-4,-1,-1,-3
1470243558851273,-2,2,1,13,1,0,-2,-1
1470243558851273,-11,-13,-6,-9,-2,-1,0,-3
1470243558872295,8,7,4,5,1,-2,-1,-2
1470243558872295,7,-5,3,6,0,0,0,-1
1470243558873807,-5,-2,-11,-14,-3,-1,0,-1
1470243558873807,7,-1,5,6,-4,0,0,1
1470243558885832,-4,4,1,-2,2,-2,-1,0
1470243558885832,1,-5,-17,1,0,-1,-2,-1
1470243558894807,-1,-4,-1,-8,-2,-4,-1,0
1470243558894807,-5,0,18,8,-1,-2,-1,-1
1470243558909821,2,4,-11,-5,-1,-1,0,0
1470243558909821,2,2,-17,-5,-1,1,-2,1
1470243558911321,-7,-13,-7,-2,-4,-1,-2,-5
1470243558911321,-4,-14,-15,-3,0,-1,0,-3
1470243558931842,12,9,17,4,1,-2,0,-1
1470243558931842,-13,-6,3,-2,2,0,0,-1
1470243558933842,2,1,-26,-5,-4,-1,-1,-2
1470243558933842,10,0,2,1,-2,1,-1,0
1470243558945853,-7,-1,6,-4,-4,-1,-2,-5
1470243558945853,5,2,-1,4,-1,-2,-2,0
1470243558954864,-2,0,11,-8,-1,0,0,0
1470243558954864,-10,5,2,3,2,-1,-2,-1
1470243558969879,9,-1,-4,4,-2,-2,1,0
1470243558969879,-5,0,-3,-12,1,-1,0,-1
1470243558971375,-3,0,16,5,-3,0,1,1
1470243558971375,0,-4,2,0,4,-1,-2,-3
1470243558992395,-1,0,2,-2,-2,-1,-2,-1
1470243558992395,-5,-11,-28,-4,-5,-3,-3,-6
1470243558993902,2,3,2,1,0,-2,0,-1
1470243558993902,1,0,-3,-7,-2,-2,-1,-1
1470243559005911,-8,-5,2,3,0,-1,-3,-1
1470243559005911,3,7,6,2,-1,-2,-1,-2
1470243559014414,-8,0,0,-10,-2,-1,-2,-2
1470243559014414,5,-1,-13,0,-1,-1,-1,-1
1470243559029990,0,8,6,-3,-2,-1,1,1
1470243559029990,-1,-10,-3,-4,-1,-2,-1,0
1470243559030929,-2,-4,-2,0,-1,-2,-1,-2
1470243559030929,0,9,14,4,-1,-2,1,1
1470243559051948,-1,-11,-3,-2,-4,0,-2,-5
1470243559051948,-1,4,11,2,1,1,0,-1
1470243559053449,-1,4,2,-3,-3,-2,-1,-2
1470243559053449,-3,-1,-7,1,-1,-1,-1,0
1470243559065961,3,-1,11,5,-2,-3,0,-2
1470243559065961,0,5,-12,-5,-1,-1,0,1
1470243559074483,0,-5,7,-1,1,0,-1,-1
1470243559074483,-5,6,-3,0,-2,-1,-2,0
1470243559089997,-3,-6,-6,-8,-1,0,-2,-3
1470243559089997,-1,-1,7,6,0,-1,0,-1
1470243559091484,1,-4,1,0,-1,-3,-1,-1
1470243559091484,1,6,1,2,0,0,-1,-1
1470243559112068,-5,1,-16,-7,-3,-2,1,0
1470243559112068,-5,-7,5,-4,-4,-1,-1,-1
1470243559113505,1,-4,0,5,0,-1,-2,0
1470243559113505,-2,-4,-9,-9,-2,-1,0,1
1470243559126015,-2,-2,9,4,0,-1,-2,-1
1470243559126015,2,-2,-17,-4,-1,-1,-1,-2
1470243559134523,-2,14,-6,1,0,1,0,0
1470243559134523,-3,-19,-6,1,-3,-3,-2,-3
1470243559157044,3,6,-4,-7,0,0,-1,0
1470243559157044,-5,-1,2,-2,-1,1,-1,0
1470243559158545,0,-4,5,6,-3,-3,-4,-1
1470243559158545,-3,-11,-21,-8,-1,0,-1,-2
1470243559172084,1,20,3,3,-1,-1,-1,-2
1470243559172084,1,-8,3,-2,-1,0,0,0
1470243559173557,-3,-1,4,-1,0,0,0,-1
1470243559173557,3,8,-6,1,-1,-1,0,0
1470243559185605,-2,-11,5,-1,-1,0,-2,1
1470243559185605,-2,-3,2,0,1,-2,0,-2
1470243559194595,2,2,-4,-3,-1,0,0,0
1470243559194595,-2,6,-1,0,-1,-1,-2,-3
1470243559209591,-6,-26,-5,-5,-2,0,-1,1
1470243559209591,0,16,13,3,-1,-1,-2,1
1470243559211091,1,4,-1,3,1,-2,0,-1
1470243559211091,-5,-26,-5,-5,-1,0,-2,-1
1470243559232146,-7,-10,-5,0,-3,-1,-1,-2
1470243559232146,2,3,1,-5,-2,-1,-1,0
1470243559233611,0,0,6,-4,-3,-1,-1,-1
1470243559233611,1,4,5,-4,3,0,0,2
1470243559245649,-3,0,-5,2,1,-1,0,0
1470243559245649,-1,-4,-5,-6,1,-2,-2,-2
1470243559254678,0,-5,-7,1,-2,-2,-2,-3
1470243559254678,-1,2,11,-1,-1,-1,-1,0
1470243559269643,1,0,-15,-2,-2,1,0,2
1470243559269643,-2,9,9,6,-1,-1,0,-1
1470243559271149,-4,-34,3,-1,-2,-1,-1,0
1470243559271149,1,17,-7,0,-3,-1,-2,-3
1470243559292197,1,6,4,-1,4,0,-1,-1
1470243559292197,2,1,1,-1,1,-1,1,0
1470243559293696,-4,-2,19,9,-1,-1,-3,-2
1470243559293696,-3,-1,-20,-4,-4,-2,-2,-2
1470243559305731,-2,0,20,4,-4,-2,-1,-2
1470243559305731,-1,-7,-13,1,-2,-2,0,0
1470243559314684,0,5,5,-9,2,1,0,-1
1470243559314684,0,0,9,3,0,-1,0,0
1470243559329714,-1,3,-15,-4,-2,-1,-3,0
1470243559329714,-3,-8,-8,-7,-2,-1,0,-2
1470243559331199,0,6,0,2,-1,0,-1,0
1470243559331199,-3,-2,6,3,0,-1,0,0
1470243559352275,0,4,-5,-1,-1,-2,1,-1
1470243559352275,-1,2,15,3,-1,0,-1,-1
1470243559353719,-2,-8,-28,-11,-4,-1,0,0
1470243559353719,-2,1,8,-1,-1,-1,-1,-2
1470243559374737,1,3,-9,-3,-1,-2,-1,-2
1470243559374737,0,3,9,-3,-2,-3,-2,0
1470243559376239,-1,3,-3,5,0,-1,-3,-2
1470243559376239,0,-18,9,-9,-2,-3,-1,-2
1470243559389768,-1,-3,1,-2,0,-1,-1,0
1470243559389768,-2,-4,-10,6,0,1,-2,0
1470243559391278,0,2,-13,-12,-4,-2,-3,-1
1470243559391278,-1,4,4,-3,-4,0,-1,-1
1470243559412278,-1,-3,5,8,3,-2,0,-1
1470243559412278,-3,-6,-28,-9,-3,-2,0,-1
1470243559413773,2,8,12,8,0,-1,1,0
1470243559413773,0,-7,-6,-2,0,-1,-1,1
1470243559434791,0,-5,0,-7,-1,0,0,-1
1470243559434791,-1,16,-4,5,-1,-1,0,-1
1470243559436293,0,-5,7,5,0,-1,-1,0
1470243559436293,-2,-4,-18,-14,-4,-1,-3,-3
1470243559449805,0,3,-4,6,1,2,-1,0
1470243559449805,-1,4,27,4,0,-3,-1,-1
1470243559451308,-2,0,-10,-7,-1,0,0,-2
1470243559451308,-1,-6,-13,11,1,0,-1,-1
1470243559472326,0,5,-9,-13,-3,-1,-3,-2
1470243559472326,-2,-6,-1,-4,-3,0,-2,-2
1470243559473869,-1,2,3,-2,0,-1,0,0
1470243559473869,2,4,-1,7,-1,0,0,0
1470243559494846,-3,-5,-2,-3,-3,-2,0,-2
1470243559494846,0,-2,2,0,-2,0,0,0
1470243559496347,-2,-19,-8,0,-4,-2,-2,0
1470243559496347,0,-5,2,-4,2,-1,-1,0
1470243559509859,0,16,16,3,-2,-1,-1,0
1470243559509859,-3,-16,-25,-3,1,-2,-3,-2
1470243559511360,1,5,1,0,2,0,0,0
1470243559511360,0,0,4,0,-2,-2,-1,0
1470243559532379,-2,-1,-4,-8,-2,-3,0,-2
1470243559532379,0,1,18,9,1,-1,-1,0
1470243559533882,-4,-2,-8,-3,-1,-2,0,-1
1470243559533882,-2,2,0,0,-1,-3,-1,-1
1470243559554401,1,0,-3,-3,-2,0,-2,-2
1470243559554401,0,2,-12,-5,2,1,-1,0
1470243559555900,-2,-4,0,1,0,-1,-2,-1
1470243559555900,-2,-4,4,-3,-3,-1,1,0
1470243559568914,-1,-9,-5,0,-2,0,0,-1
1470243559568914,-2,-3,3,14,2,-1,-1,-1
1470243559575918,0,8,-3,-17,-2,2,1,0
1470243559575918,-1,2,4,0,-1,0,-1,-1
1470243559591933,-1,-10,1,5,-1,-2,0,1
1470243559591933,1,11,11,-4,-6,0,2,-2
1470243559593935,-1,-2,-14,-8,-5,-3,-1,-2
1470243559593935,0,5,20,18,3,-1,-2,0
1470243559614954,-1,-9,-28,-8,-1,-3,-1,-2
1470243559614954,-2,-7,-8,-10,-1,0,-1,-1
1470243559615955,-2,-1,6,3,0,-3,-3,-2
1470243559615955,-3,1,0,-3,-4,-1,-2,-1
1470243559628982,-3,-2,8,4,-1,0,-1,0
1470243559628982,-3,-1,-13,-7,-1,-2,-3,-1
1470243559636109,1,0,4,3,1,1,2,1
1470243559636109,1,-1,-4,-2,-1,1,0,-2
1470243559652023,-1,-4,17,-3,-2,-2,-2,-1
1470243559652023,1,0,-10,-9,-2,-1,0,-1
1470243559653504,-3,-3,19,3,-1,-1,-2,0
1470243559653504,0,12,-7,2,2,0,-1,-1
1470243559675007,-2,-11,0,-6,-2,0,1,0
1470243559675007,-1,-5,-8,-4,-1,-1,-2,1
1470243559676012,0,0,-1,9,-1,-1,-2,-2
1470243559676012,-1,-3,-11,-20,-3,0,0,-3
1470243559689019,-1,6,1,15,1,0,-3,1
1470243559689019,-2,-4,0,-12,-2,-2,1,0
1470243559696106,-1,3,6,8,-3,0,0,-1
1470243559696106,-3,-7,0,-2,-2,-2,-2,-1
1470243559712076,0,-1,-6,-3,0,-1,0,0
1470243559712076,-3,-16,3,3,0,-1,-1,-2
1470243559713542,0,23,-22,-6,-1,0,-2,-2
1470243559713542,-2,-21,2,-2,-2,-1,0,-3
1470243559734567,-2,0,-4,0,-1,-2,0,-3
1470243559734567,-1,0,10,7,0,0,-2,0
1470243559736062,-1,-7,-11,-12,0,-2,1,-1
1470243559736062,-2,4,5,3,-1,-3,0,-2
1470243559749086,0,2,-4,2,-1,-3,-2,0
1470243559749086,-1,-2,3,3,-1,-1,0,-3
1470243559763091,-3,-4,2,-3,-1,-2,-1,0
1470243559763091,-3,3,-17,-9,-3,-3,-2,0
1470243559772094,-1,2,3,0,-1,-1,0,-1
1470243559772094,1,5,-2,9,0,-2,0,0
1470243559773596,-1,-9,-5,-9,-3,-2,-1,-1
1470243559773596,-1,5,-1,3,1,-1,-1,0
1470243559794617,-2,0,11,1,-3,-1,-1,-2
1470243559794617,0,1,-1,-5,-2,0,0,-1
1470243559796117,-1,-4,4,3,2,0,-1,0
1470243559796117,1,-4,-3,-2,-1,0,0,-1
1470243559809129,1,0,1,-5,1,-1,-2,0
1470243559809129,-4,4,17,3,-4,-2,-3,-2
1470243559815634,0,1,-5,6,-3,0,0,0
1470243559815634,-2,1,-2,-8,-1,-2,0,-1
1470243559832162,0,-3,-8,3,0,-1,-3,-1
1470243559832162,-1,3,-7,-6,1,-1,-1,-1
1470243559833651,-5,-10,12,-4,-4,-1,-3,-3
1470243559833651,-2,-7,1,5,-1,0,0,0
1470243559854701,0,-3,-9,-9,-2,0,0,-2
1470243559854701,-1,-1,-5,-4,-2,-2,-1,-1
1470243559856170,0,1,4,6,1,-1,-1,-1
1470243559856170,0,-9,-18,0,1,0,0,0
1470243559868216,-2,14,2,2,-1,-1,0,-1
1470243559868216,-1,-7,-2,-1,-1,0,-3,-1
1470243559877190,3,2,-1,-1,1,1,0,1
1470243559877190,1,4,12,-2,-3,0,-1,-1
1470243559892202,-2,-7,2,0,-2,0,-2,-1
1470243559892202,-1,1,-3,-3,-4,-1,0,-1
1470243559893704,-1,2,-1,1,-1,0,-1,-1
1470243559893704,-1,-2,-2,7,0,-1,-1,0
1470243559914757,-2,-2,-3,-12,0,-1,-1,-2
1470243559914757,-2,-2,-1,-6,0,0,0,-1
1470243559916281,-1,-9,-10,1,-2,-3,-3,0
1470243559916281,-1,7,16,-3,-3,-1,-1,-2
1470243559928282,-1,-3,2,8,0,-1,-2,-1
1470243559928282,-1,1,0,0,0,-2,-2,0
1470243559937259,-2,1,-5,-6,-1,-2,-2,1
1470243559937259,-2,3,-4,1,-1,-2,-2,0
1470243559952274,-2,2,-2,-3,-1,1,-1,-1
1470243559952274,-1,-2,1,0,-1,-1,1,-1
1470243559953774,-4,-3,-14,1,-4,-2,0,-2
1470243559953774,0,-1,0,-4,0,-1,0,0
1470243559974793,-1,-3,0,-2,-3,-2,0,-1
1470243559974793,1,6,-5,-1,-2,-1,-1,1
1470243559976294,-3,-1,17,0,1,-1,0,-2
1470243559976294,-2,-1,1,-3,-1,0,-1,-2
1470243559988307,-2,-4,-6,-2,-1,-2,1,0
1470243559988307,-1,-8,2,3,-1,-1,-1,0
1470243559997318,0,1,-2,-2,-3,-1,-1,-2
1470243559997318,0,-3,1,0,-2,-1,0,0
1470243560012326,-2,-5,-2,1,0,-2,1,0
1470243560012326,-2,-1,-1,-1,0,1,0,-2
1470243560013828,-1,4,1,-1,0,-1,0,-2
1470243560013828,1,5,-10,2,-2,-1,-1,-1
1470243560034390,0,1,6,0,0,-1,-2,-1
1470243560034390,-1,-6,-1,2,0,-4,-2,-1
1470243560040852,-1,4,-4,-5,-3,-2,-2,-1
1470243560040852,-1,-6,-2,-2,-2,-1,-1,-1
1470243560048359,0,-2,-2,-1,0,2,-1,-1
1470243560048359,1,2,3,-3,-1,-1,-2,0
1470243560057367,-2,-9,-4,-7,1,-1,0,-2
1470243560057367,1,8,6,4,-2,-2,0,-4
1470243560079387,-2,-6,-14,-5,0,-2,-2,-2
1470243560079387,0,-5,4,-2,-4,-1,1,-2
1470243560080889,-1,-2,0,2,-1,-1,0,1
1470243560080889,1,0,7,-2,0,0,-1,-1
