timestamp,emg1,emg2,emg3,emg4,emg5,emg6,emg7,emg8
1470330559186947,-12,6,-13,-7,-4,-3,-3,1
1470330559186947,2,-1,6,5,-2,-2,-4,0
1470330559187948,16,-9,4,-8,-1,1,0,-3
1470330559187948,-20,11,-2,5,0,-4,-1,4
1470330559188949,3,-4,-2,0,-2,-1,0,-3
1470330559188949,9,-9,-5,-7,-3,0,1,-4
1470330559189951,-19,9,9,12,0,-4,0,1
1470330559189951,7,-6,-4,-9,-1,0,-1,-1
1470330559199959,1,-4,-18,3,0,0,-2,-3
1470330559199959,-13,-2,1,-5,-1,-1,-3,-1
1470330559203462,-2,2,-1,3,0,-1,-3,-2
1470330559203462,7,-1,-1,-2,-4,-4,-1,-2
1470330559218475,8,-5,-2,-5,0,0,-1,-2
1470330559218475,-12,5,-5,0,1,-4,0,4
1470330559226983,-1,-3,-6,-5,-2,1,-1,1
1470330559226983,7,-6,6,3,-1,2,-4,-2
1470330559234990,-9,2,-3,-2,0,-1,-3,1
1470330559234990,2,1,-2,-1,-1,1,0,-2
1470330559257511,1,-1,8,2,-1,-2,0,-3
1470330559257511,-4,0,6,-1,-3,0,-1,-1
1470330559287037,9,-11,8,4,1,0,2,-2
1470330559287037,-22,11,5,0,-2,-3,-1,3
1470330559295044,3,-1,3,-3,-1,-1,-1,-2
1470330559295044,13,-12,-11,-3,-2,2,0,-3
1470330559296045,-19,6,-6,-5,-2,-2,-3,2
1470330559296045,6,-4,4,6,-2,-1,-1,-2
1470330559297546,4,-5,4,-1,-2,2,0,-3
1470330559297546,-7,2,7,-1,0,0,-1,0
1470330559308055,0,3,-9,-2,-3,-3,-1,0
1470330559308055,5,-10,3,-2,0,1,0,-1
1470330559317064,2,-1,4,1,1,-2,-1,-2
1470330559317064,-10,14,10,1,-2,-4,-2,0
1470330559323069,3,-5,-5,-5,-1,-1,-1,-4
1470330559323069,8,-7,0,12,-1,-1,0,-1
1470330559338083,-11,6,-7,-6,-1,-2,0,5
1470330559338083,-1,-5,6,-2,1,1,-1,1
1470330559345589,4,-4,-6,-2,-3,1,-1,-1
1470330559345589,-3,-1,-26,1,1,-1,-4,-4
1470330559360605,0,-2,11,0,-1,-3,-2,0
1470330559360605,1,2,4,5,0,-2,-1,2
1470330559368109,1,-1,-9,-6,-3,-2,-1,0
1470330559368109,-4,0,-2,-7,-1,-2,-1,-2
1470330559384123,0,-1,-5,2,-2,0,-1,-1
1470330559384123,2,-7,-12,-5,-2,-1,0,-2
1470330559384625,-6,1,15,5,-2,-3,-1,-1
1470330559384625,3,-6,-6,-6,-3,-1,-1,0
1470330559406644,1,-4,1,-3,1,0,-2,-4
1470330559406644,-3,-2,3,-6,-2,-3,-1,0
1470330559407145,2,2,-1,5,1,0,-2,-1
1470330559407145,3,-1,17,-1,-3,0,-2,-2
1470330559429164,-2,-7,-18,-1,-2,-2,1,-2
1470330559429164,-3,-4,-7,-3,0,-1,-1,-1
1470330559429665,-4,-1,-3,-5,0,1,-1,-3
1470330559429665,0,-2,9,-2,1,0,-1,1
1470330559443677,-1,-2,-2,0,-1,-3,-2,-1
1470330559443677,3,1,2,4,-1,-2,-1,-2
1470330559444678,4,1,-4,-5,0,0,0,0
1470330559444678,-5,1,-1,-2,0,0,-2,-1
1470330559466197,-1,-1,-2,1,-1,-2,0,1
1470330559466197,-2,-4,-9,-2,-1,-2,-2,-1
1470330559467199,-1,2,38,8,-2,-1,-2,-1
1470330559467199,0,2,-4,-3,-2,-3,-2,-2
1470330559489218,0,-8,2,-1,-2,0,-1,0
1470330559489218,0,-2,-10,-6,-1,3,1,-3
1470330559489719,-2,1,0,2,-1,-1,1,-1
1470330559489719,-1,0,-2,-2,-2,0,0,-3
1470330559503732,-1,-1,-9,-9,-2,0,-2,0
1470330559503732,-5,2,19,8,0,-4,-3,0
1470330559504732,2,-2,-7,-5,-1,0,0,-2
1470330559504732,-2,-1,-9,3,2,-1,-1,-1
1470330559526251,-5,-4,2,-3,-3,-2,0,-1
1470330559526251,2,-3,-36,-8,1,1,1,-3
1470330559527252,-1,2,-3,1,0,-1,-1,0
1470330559527252,0,4,2,-5,-4,0,0,0
1470330559548772,0,0,-3,0,-2,1,-1,0
1470330559548772,-1,-1,2,0,-1,-2,-1,-3
1470330559549772,0,-4,-2,-3,-2,-2,1,-2
1470330559549772,-4,1,-3,-4,-2,-5,-1,2
1470330559563786,1,0,4,7,2,0,-2,-1
1470330559563786,0,-7,2,-1,-3,-1,-1,0
1470330559564785,-3,2,-5,-4,1,0,-2,0
1470330559564785,1,-4,-4,-5,2,0,0,-2
1470330559586306,-1,2,21,6,0,-3,1,-1
1470330559586306,-2,0,-1,3,0,-1,0,-3
1470330559587306,-2,-3,-4,-5,-1,0,-2,0
1470330559587306,0,-5,-19,0,-2,0,-2,-2
1470330559608826,0,3,-4,-4,0,2,-1,-2
1470330559608826,-2,0,13,2,-3,-3,-2,-1
1470330559609826,1,-3,-5,4,-2,-2,-1,1
1470330559609826,-1,0,-7,-5,-1,-1,-1,1
1470330559623839,-4,-8,-8,-6,-1,-2,-3,-1
1470330559623839,2,8,9,2,-1,0,-1,0
1470330559624839,-1,-5,-5,-1,0,0,-2,-1
1470330559624839,0,-4,5,3,0,-2,-2,-2
1470330559646360,0,11,-2,-5,-4,-1,0,-3
1470330559646360,0,-4,5,-4,-1,-1,-2,1
1470330559647360,0,-1,-1,-2,-4,-1,-1,-3
1470330559647360,-1,2,10,3,-1,-1,2,-3
1470330559676887,0,-6,-16,-10,-1,-1,-2,-1
1470330559676887,0,-4,-5,1,0,-3,-1,-1
1470330559677888,-2,1,13,-2,-1,-1,-2,0
1470330559677888,2,-1,7,5,1,2,-3,-1
1470330559683893,1,-2,-5,-2,-2,-1,-1,-1
1470330559683893,-7,-1,-14,2,2,0,0,-2
1470330559684393,3,-3,-10,-2,-1,-3,0,0
1470330559684393,-1,-3,-4,-3,0,-1,1,-1
1470330559706414,2,-4,-1,0,-1,-1,-2,-1
1470330559706414,-2,1,15,0,1,-1,-3,-1
1470330559706914,0,-4,3,4,0,-1,2,-1
1470330559706914,0,2,-7,-10,-2,-1,0,0
1470330559728933,-4,-3,-5,4,0,-3,-1,0
1470330559728933,2,5,-2,-5,-3,1,-1,-1
1470330559729434,-1,-8,-4,-2,0,-3,-4,-2
1470330559729434,-2,-1,1,2,1,-1,0,1
1470330559743946,-2,-1,0,3,0,1,0,-2
1470330559743946,5,3,5,-1,-3,-1,-1,1
1470330559744447,3,-2,4,4,1,0,0,-1
1470330559744447,-2,-1,-11,-3,-1,-1,-1,0
1470330559766467,0,-1,2,3,-1,1,0,-3
1470330559766467,0,-6,4,-5,-3,-2,-1,-5
1470330559767468,-4,8,0,0,-1,0,-2,0
1470330559767468,3,-4,7,2,0,0,-1,-2
1470330559788988,0,-3,-6,-2,-3,-4,-1,0
1470330559788988,-2,-1,-22,-8,-3,-2,-4,-1
1470330559789487,1,-1,10,-2,-2,-3,-1,0
1470330559789487,-3,-3,0,2,-2,0,0,-1
1470330559804001,1,-1,-1,-1,0,0,0,-2
1470330559804001,0,-1,-5,1,-2,0,-3,0
1470330559804501,0,-4,-9,1,-2,-1,-2,0
1470330559804501,0,-2,-5,-7,-3,-2,-1,-4
1470330559826521,-2,5,4,0,-1,0,-1,-1
1470330559826521,0,1,-10,2,1,-2,-1,-3
1470330559827021,-3,-7,-12,-5,0,2,-1,-4
1470330559827021,1,-1,7,3,-4,-2,0,1
1470330559849040,-1,2,15,2,-1,-1,-1,-1
1470330559849040,1,-3,-4,3,1,2,2,0
1470330559849542,-1,-3,-9,-3,-2,-1,-2,0
1470330559849542,-6,2,-3,-3,0,-4,-3,-1
1470330559864054,0,-4,2,1,-1,-1,-2,-1
1470330559864054,-1,-3,4,-1,-1,1,0,0
1470330559864555,-3,1,-15,-4,1,-4,-1,2
1470330559864555,0,-2,-3,-4,-2,-2,-1,-2
1470330559886574,-2,2,0,1,-2,-1,-2,-2
1470330559886574,-6,-3,5,-2,0,-2,-1,-2
1470330559887077,2,1,0,6,-1,1,0,-3
1470330559887077,-3,-3,9,-4,0,0,-2,-2
1470330559909095,1,2,10,3,-1,-2,-3,-1
1470330559909095,-2,-3,-9,-6,0,-3,-2,0
1470330559909596,-1,-5,-6,-6,-2,1,-1,-1
1470330559909596,-1,1,12,7,-1,-1,-2,-2
1470330559924108,-4,-2,-7,-4,-2,-1,1,-3
1470330559924108,1,1,-5,3,2,0,0,-1
1470330559924609,-2,1,6,-2,-2,-1,-1,-1
1470330559924609,-2,-3,-5,-6,-2,-1,-1,1
1470330559946628,1,-2,-5,-3,0,-1,-1,0
1470330559946628,-1,-4,2,-3,-2,-2,-1,-2
1470330559947129,1,0,9,2,0,1,-3,-2
1470330559947129,1,4,-4,-3,-4,-3,-4,-1
1470330559969149,0,-1,-4,-2,2,0,1,-1
1470330559969149,3,-3,3,4,-1,0,-1,1
1470330559969649,-3,10,3,2,-3,-3,-2,-1
1470330559969649,1,-6,-3,0,0,0,0,-4
1470330559983162,1,2,4,0,1,0,-2,0
1470330559983162,-3,-2,-7,-2,-1,-3,-2,1
1470330559991169,1,-3,-2,-2,-1,0,0,-1
1470330559991169,1,1,-4,2,-2,0,-1,-1
1470330560006682,-3,-1,-6,-5,0,-1,-2,0
1470330560006682,3,-1,23,1,-2,0,-2,-4
1470330560007184,-4,-5,-10,-6,-3,-3,-1,-4
1470330560007184,2,1,-5,3,0,-1,0,-2
1470330560029204,-1,1,-10,-5,-3,-2,0,1
1470330560029204,0,-5,4,1,-3,1,-2,-2
1470330560029704,-3,-6,-2,-8,-1,-1,-1,-2
1470330560029704,-5,1,-5,-1,0,-1,-1,-1
1470330560043216,0,2,3,-3,-3,1,-1,-1
1470330560043216,-1,1,-17,-2,-1,0,0,0
1470330560051224,3,-6,17,3,0,-1,-1,-5
1470330560051224,0,-3,0,-2,-1,0,-1,0
1470330560066236,2,-1,4,6,0,-2,0,-2
1470330560066236,-3,-1,-10,0,-1,1,0,0
1470330560067237,-3,-1,0,-4,-1,0,0,0
1470330560067237,1,-3,3,0,0,-1,0,0
1470330560088756,0,0,3,9,1,-1,-2,1
1470330560088756,-3,-2,-5,-13,-3,-4,-1,0
1470330560089757,1,-1,-3,3,1,2,0,-2
1470330560089757,0,1,1,-4,0,0,-1,-2
1470330560103271,-2,-1,-2,3,-1,-2,-1,0
1470330560103271,-2,0,3,0,-1,-3,0,0
1470330560111276,1,-5,-8,-1,-1,-2,-1,0
1470330560111276,-1,-2,5,-2,0,1,-1,-1
1470330560126290,-3,-2,-29,-7,-1,-2,-1,0
1470330560126290,1,-2,20,2,-2,-1,-1,-1
1470330560127291,2,0,-5,-1,-1,-1,-4,1
1470330560127291,-6,-1,2,3,-1,-2,-2,1
1470330560148810,1,-5,-15,-10,0,-1,2,-4
1470330560148810,-1,1,-6,3,-2,-2,-1,-3
1470330560149812,-2,2,3,-2,-3,-1,0,-3
1470330560149812,2,0,-9,-11,0,-1,-1,1
1470330560163323,-3,3,11,5,-1,-1,-1,-1
1470330560163323,1,-2,-2,2,-1,-3,1,0
1470330560171331,-5,3,-3,3,0,-1,0,2
1470330560171331,2,-1,-1,1,-2,0,0,-1
1470330560186344,0,-2,8,-3,0,1,-2,-1
1470330560186344,-2,0,-16,-3,0,1,-2,-2
1470330560187344,3,3,15,4,-4,-2,-1,-3
1470330560187344,-1,-5,7,6,1,-2,-2,-1
1470330560208865,-4,5,15,-11,-5,-3,-2,0
1470330560208865,1,-2,7,6,0,0,0,-2
1470330560209865,-2,-8,-26,-11,0,-1,0,1
1470330560209865,0,-1,-6,0,-2,-1,-1,-1
1470330560223377,-3,-4,-1,-2,-3,-3,-2,1
1470330560223377,0,0,-5,-6,0,0,-1,-3
1470330560231385,1,0,19,-1,-2,-3,-1,-3
1470330560231385,-2,2,-8,2,1,-1,-3,-2
1470330560246397,1,-6,11,8,0,-2,0,-6
1470330560246397,0,-1,-10,-6,-1,-1,-2,-4
1470330560246899,0,6,-6,3,2,0,0,1
1470330560246899,-5,-3,7,3,-2,-3,0,0
1470330560268919,1,-4,-17,-1,0,-1,-3,2
1470330560268919,-1,0,2,-5,-4,-1,-1,0
1470330560269419,-4,2,3,0,-1,0,-3,-3
1470330560269419,1,7,3,-5,-5,-1,-2,1
1470330560291938,0,-4,-13,-1,-1,1,-2,-3
1470330560291938,-3,-3,-1,0,3,0,-1,3
1470330560293940,2,-5,-9,-5,-1,-2,-1,-2
1470330560293940,-2,2,-3,-5,0,1,0,-1
1470330560314459,-4,0,4,3,0,-2,0,-4
1470330560314459,-1,-8,9,8,-1,-1,-3,-1
1470330560315961,-1,-1,-15,-5,-4,0,-2,0
1470330560315961,0,-3,-10,-4,1,-2,0,-1
1470330560327970,-1,0,4,-1,-2,0,-1,-1
1470330560327970,0,-7,-16,-2,0,-1,1,-2
1470330560337481,-1,0,12,-1,-2,-1,-1,1
1470330560337481,-2,-2,-1,1,-2,0,0,-2
1470330560351994,0,-3,7,-5,0,0,1,0
1470330560351994,-1,4,-2,1,-1,-2,-2,0
1470330560353496,-2,6,-1,5,0,0,-1,-2
1470330560353496,-2,-3,-7,-12,-3,-2,2,-1
1470330560374513,-2,-4,-8,2,0,-1,-1,1
1470330560374513,1,-1,27,-4,-5,0,-1,-2
1470330560376016,-2,2,-4,1,-1,-2,1,-2
1470330560376016,-1,0,2,3,1,-1,-2,-4
1470330560388025,1,-1,-10,-1,2,0,0,2
1470330560388025,-3,-1,-10,-4,0,-1,-1,0
1470330560397035,3,-4,-8,0,-3,-2,-3,-3
1470330560397035,-2,-6,-4,-5,-2,-2,0,0
1470330560412047,-3,3,8,2,-2,-1,-2,-1
1470330560412047,0,-2,-2,0,-2,-1,1,-4
1470330560413549,1,-2,3,2,0,0,2,0
1470330560413549,1,-2,11,6,-1,-3,-1,-2
1470330560434569,-2,-1,0,0,0,0,0,-1
1470330560434569,0,2,-5,-12,-3,-3,-2,-2
1470330560436068,-3,-7,-5,0,1,-1,0,-1
1470330560436068,-4,2,-3,-3,-1,-2,-2,-4
1470330560448105,3,1,5,-1,0,-2,0,-3
1470330560448105,0,-2,-3,4,0,0,-1,-2
1470330560457087,-4,-3,-18,-14,-3,-1,-1,-1
1470330560457087,0,2,16,9,-2,0,-2,1
1470330560472101,0,-7,-19,-4,-2,0,2,0
1470330560472101,-2,2,-10,-7,2,0,-2,0
1470330560473601,0,-2,14,-3,-3,-1,-2,-1
1470330560473601,0,-7,-17,-2,-1,1,-1,1
1470330560494620,0,3,5,-4,-2,-3,-4,-1
1470330560494620,0,-1,18,7,-2,-3,-1,-1
1470330560496123,0,3,-5,5,1,-3,-1,0
1470330560496123,0,-3,-1,-1,-2,0,0,-2
1470330560508633,-2,-3,-19,-19,-5,3,-1,-2
1470330560508633,-1,4,4,5,2,0,0,3
1470330560517141,3,-5,-1,1,-1,-1,-2,1
1470330560517141,0,-1,3,3,-1,-2,-2,-1
1470330560532154,-2,-5,-5,2,-1,-2,-1,-1
1470330560532154,0,1,16,-3,-1,0,-1,-2
1470330560533657,-1,-1,-6,5,1,0,0,-1
1470330560533657,-3,-4,-9,-13,-3,-4,0,3
1470330560554674,4,6,16,10,0,1,0,2
1470330560554674,-3,-5,-2,3,0,-2,-2,-1
1470330560556176,-5,4,4,0,0,-2,-2,0
1470330560556176,-1,-11,-14,-11,-1,-1,-2,-1
1470330560568186,-2,-3,-2,-4,1,-4,-2,0
1470330560568186,-1,1,-6,-7,-3,0,-1,-3
1470330560577195,-3,-1,2,7,2,1,-2,-1
1470330560577195,1,-1,3,3,-1,-1,0,-2
1470330560592208,1,-8,-17,-5,-2,-3,0,-2
1470330560592208,0,4,-1,3,1,-2,-2,1
1470330560593710,1,-6,6,-2,-2,-1,1,-3
1470330560593710,-1,2,-2,0,-2,1,1,-2
1470330560614729,-3,1,1,0,-3,-1,-2,-3
1470330560614729,4,2,-4,2,-2,-1,0,0
1470330560616230,0,-5,-7,-9,0,-1,-1,-1
1470330560616230,-2,2,16,6,0,-1,-2,0
1470330560628242,1,2,-2,1,0,0,-1,-2
1470330560628242,0,-1,4,3,3,-1,0,0
1470330560637250,0,-7,-8,-18,-4,0,0,1
1470330560637250,-4,-1,-11,1,-1,-1,0,-1
1470330560651762,-1,-1,6,6,0,-2,0,0
1470330560651762,0,-8,-9,-8,-4,-1,0,-2
1470330560653765,-1,3,2,-1,-1,-1,0,0
1470330560653765,4,5,-4,4,2,-2,-1,-5
1470330560674783,-2,-5,10,-5,-4,-1,-1,-1
1470330560674783,0,1,-4,4,0,-3,-1,0
1470330560676285,0,3,-6,2,-1,-2,-1,-1
1470330560676285,-2,-4,5,-9,-3,-2,-1,0
1470330560688295,0,3,1,9,1,0,-1,-2
1470330560688295,-7,1,-16,-11,1,1,0,0
1470330560697303,-2,-8,-5,-1,-3,-5,-3,0
1470330560697303,-3,5,16,4,-2,-1,-1,-2
1470330560712317,-7,2,0,-2,-1,-4,-1,0
1470330560712317,-1,-6,0,3,-2,-2,-1,-1
1470330560713818,2,-2,-6,-4,2,0,1,-1
1470330560713818,1,1,-7,-3,-1,-1,-2,-1
1470330560734340,-3,3,-8,-2,0,0,0,2
1470330560734340,-4,-7,28,4,-3,-2,-2,-4
1470330560736338,0,4,4,5,-1,0,0,0
1470330560736338,-4,-1,-6,-1,-1,-1,-3,0
1470330560748349,0,-4,10,-10,-1,-1,-3,-4
1470330560748349,-1,-2,-13,-7,-2,0,-2,0
1470330560757358,-3,2,0,0,-2,-1,-1,-2
1470330560757358,-2,-7,-3,-3,-3,-2,1,-4
1470330560772371,-2,1,-2,4,-1,-1,-1,0
1470330560772371,1,3,-14,-8,-5,-1,-2,0
1470330560773872,2,0,10,4,3,1,-1,1
1470330560773872,-2,0,7,3,-1,-2,1,2
1470330560794395,-1,-6,-18,-2,-3,-2,0,-3
1470330560794395,-2,-1,6,1,-4,-3,-1,0
1470330560795892,0,-4,-3,-2,-1,-2,-1,-3
1470330560795892,1,-4,-9,-6,-1,-1,-2,-3
1470330560808440,-2,0,8,-2,-1,-1,-1,-1
1470330560808440,1,-6,-11,-2,-1,-1,-1,-1
1470330560816911,-1,6,31,8,-2,-2,-2,-5
1470330560816911,-4,-9,-13,-4,0,-1,-3,1
1470330560831950,-4,4,0,-1,-3,-2,-1,1
1470330560831950,0,1,-10,-3,0,-2,0,-2
1470330560833425,-2,-2,3,4,0,0,2,-1
1470330560833425,-1,1,-7,2,0,-1,-1,-1
1470330560854445,2,-4,-9,-8,0,-1,-2,-2
1470330560854445,-2,-5,2,0,-3,0,0,-1
1470330560855950,-2,2,-6,1,-1,-2,0,1
1470330560855950,3,2,0,-8,-2,0,-1,-2
1470330560868008,1,-8,-11,5,0,0,-1,-2
1470330560868008,-5,5,6,4,-1,-1,0,-1
1470330560877510,-1,-3,2,-8,-5,0,-3,-2
1470330560877510,2,2,-13,-1,-1,0,0,-3
1470330560892033,1,1,4,-7,1,2,-1,0
1470330560892033,-3,1,1,1,0,-1,0,-1
1470330560893479,-1,-6,-12,-8,-1,1,0,-3
1470330560893479,-2,1,6,1,1,-2,0,0
1470330560914504,-2,-2,14,8,-2,-1,0,-1
1470330560914504,0,4,1,-8,-1,-3,-1,-1
1470330560916003,2,-3,-11,0,-2,0,-3,-1
1470330560916003,-2,-5,-12,0,-1,-2,-1,0
1470330560937019,0,2,7,-2,-2,-2,-2,-2
1470330560937019,0,-4,-2,0,1,1,0,-2
1470330560938521,0,-3,-6,-6,-2,-1,-2,-2
1470330560938521,-5,3,3,3,-1,-2,-2,0
1470330560952037,1,2,7,3,-1,0,0,2
1470330560952037,1,-9,-5,-4,-3,0,-2,0
1470330560953534,-3,0,0,-1,0,-1,-2,-3
1470330560953534,4,-1,1,1,-3,0,0,0
1470330560974552,-2,-2,-7,-3,2,-4,-2,-5
1470330560974552,-3,-5,-8,0,1,0,-3,1
1470330560976554,0,4,-2,1,-2,-1,1,2
1470330560976554,0,-5,8,-7,0,-2,-1,-2
1470330560997087,1,-4,-20,-3,-2,1,-3,0
1470330560997087,0,2,7,2,-2,1,-1,-2
1470330560998602,-2,-5,0,-1,-1,1,1,-2
1470330560998602,0,6,2,-3,0,-1,-1,-1
1470330561012129,-1,1,-1,-1,-2,-1,-3,2
1470330561012129,2,-8,-9,-3,-3,0,0,-3
1470330561013591,-1,-2,16,2,-1,-2,-1,-1
1470330561013591,-2,-3,-6,-4,-3,-2,0,-1
1470330561034609,-3,2,2,2,1,0,-1,0
1470330561034609,-1,3,2,1,-2,-4,-2,-2
1470330561036110,0,-2,-7,-3,-1,-2,0,-2
1470330561036110,-3,-1,3,1,-1,0,-1,0
1470330561057217,-1,-2,-1,-3,-2,-1,-2,-4
1470330561057217,1,-4,-9,3,2,-1,0,1
1470330561058628,-4,4,15,-1,0,0,-3,-1
1470330561058628,0,-3,-3,-2,-1,1,-1,-1
1470330561071639,-1,1,10,4,-1,1,0,1
1470330561071639,-5,4,-14,-13,0,0,-1,1
1470330561078161,-1,-2,-18,-1,-1,-1,-3,0
1470330561078161,-1,-2,27,6,-1,-3,-2,0
1470330561094670,-3,3,-4,0,-2,-4,0,-2
1470330561094670,-4,-1,4,1,-4,-2,-1,-1
1470330561096161,0,-2,-9,-3,-2,-3,-2,-2
1470330561096161,2,-1,-5,10,4,2,1,1
1470330561117181,-5,1,0,-4,-2,1,0,-2
1470330561117181,0,-2,2,-3,0,0,1,-2
1470330561118685,-1,-4,-4,-5,-2,0,-2,0
1470330561118685,-5,3,-2,0,0,1,-2,-2
1470330561131695,4,-4,9,-2,-1,0,-2,-3
1470330561131695,-1,-2,-17,4,1,-2,-1,0
1470330561138217,1,-2,13,-7,-4,-2,0,-1
1470330561138217,-4,-1,-1,5,-1,-4,-2,0
1470330561154713,-3,3,-3,6,0,0,2,1
1470330561154713,0,-9,-2,-8,0,-2,-1,-4
1470330561156260,-7,8,-4,3,1,-2,-1,0
1470330561156260,2,-1,-6,-4,-2,-1,-1,-2
1470330561177234,-4,-8,8,-3,-2,-2,-1,-2
1470330561177234,-2,3,4,4,0,-1,-1,0
1470330561178736,1,-2,-4,0,0,0,0,-2
1470330561178736,-1,-1,-4,-4,-2,0,0,-1
1470330561191248,-3,-3,-5,5,1,-1,0,-3
1470330561191248,-3,1,1,-2,1,-1,-1,2
1470330561198253,0,0,-5,-6,1,-1,2,2
1470330561198253,2,0,-7,4,1,-2,-1,-1
1470330561214767,-1,1,-12,-13,-6,-2,-2,-1
1470330561214767,2,1,0,0,-2,1,-2,-4
1470330561216317,1,-3,5,3,-3,-2,-1,-1
1470330561216317,-4,-2,-2,1,3,-1,-1,-1
1470330561237288,4,-3,3,1,1,-2,-2,-1
1470330561237288,-2,1,6,4,-2,-1,-1,-2
1470330561238789,-1,-1,-11,-7,-1,0,-2,-1
1470330561238789,-2,0,5,-3,-2,1,0,-1
1470330561251344,0,-3,4,4,0,-1,-1,0
1470330561251344,1,2,2,1,-1,-3,0,-1
1470330561258324,-4,-1,0,4,-2,1,-1,-2
1470330561258324,2,0,-9,-7,-2,-2,-3,-1
1470330561274323,0,-9,1,-7,1,0,-1,1
1470330561274323,-3,7,-2,2,-2,-2,-2,-2
1470330561276341,2,-5,1,0,-2,0,-1,-2
1470330561276341,-3,-7,1,-11,-5,0,0,0
1470330561296843,1,1,-9,0,-2,-3,-3,-1
1470330561296843,1,-9,-7,1,-1,-1,-1,-2
1470330561298843,-2,-1,4,-3,0,0,-2,-2
1470330561298843,1,-2,-3,-5,-2,-3,0,-3
1470330561311387,0,-3,3,-5,-1,-2,1,-2
1470330561311387,-1,0,5,-2,1,0,-1,0
1470330561318414,-1,-1,-12,-1,0,0,0,-3
1470330561318414,-2,1,12,4,-2,-1,0,0
1470330561334430,-3,2,-10,-1,0,-1,1,0
1470330561334430,0,-4,0,-3,0,-1,-2,-1
1470330561336376,-1,-1,1,1,0,-1,0,1
1470330561336376,1,-1,-12,-1,-2,-2,-1,-1
1470330561356924,-3,0,6,1,0,-1,-2,-2
1470330561356924,0,6,22,4,-1,1,0,-2
1470330561358396,-3,-7,-22,-7,1,-3,-2,1
1470330561358396,-1,-1,2,-1,-1,-1,-3,-1
1470330561371408,0,-1,-3,4,-1,-2,-1,1
1470330561371408,-2,-1,-3,-8,-1,1,-1,-2
1470330561378428,5,-1,6,5,1,-4,-2,0
1470330561378428,-1,6,-5,3,-1,0,-2,-2
1470330561394429,-2,-3,5,-6,-3,0,-2,-4
1470330561394429,-3,-2,-5,-2,-1,1,-1,0
1470330561396431,-2,5,6,2,-3,-1,0,-1
1470330561396431,1,-4,6,-6,-1,-3,-1,-1
1470330561416977,-5,-2,-5,-4,-3,1,-2,-1
1470330561416977,-1,0,-7,-3,-3,-2,-1,-1
1470330561418450,-2,0,0,-1,-1,-1,-1,-2
1470330561418450,-4,1,2,0,-1,-1,-1,0
1470330561430961,0,-2,-5,0,-1,0,0,-5
1470330561430961,1,-4,-1,3,1,-1,-1,1
1470330561439470,-5,2,9,-2,-1,0,0,-2
1470330561439470,-4,-4,-13,8,0,-2,-3,-3
1470330561454483,0,3,-7,-20,-1,0,-2,1
1470330561454483,0,-5,-17,-4,-5,1,1,0
1470330561455987,-4,2,8,-1,-2,-2,-3,-3
1470330561455987,1,0,9,3,0,1,0,-2
1470330561477042,0,-1,-2,3,-1,1,-4,-1
1470330561477042,-3,2,2,2,0,-1,-1,-3
1470330561478541,6,-4,-6,-2,-1,-1,-2,-3
1470330561478541,-2,-3,-9,-1,0,-2,0,2
1470330561490545,-3,-2,1,-1,0,-1,-1,-2
1470330561490545,-2,7,7,-4,-2,-1,1,-1
1470330561499530,-2,-7,-15,-1,-4,-1,-1,-3
1470330561499530,2,7,17,0,-2,0,-1,-2
1470330561514543,1,-4,-4,0,-1,-3,-1,1
1470330561514543,1,-1,8,4,0,-2,-3,0
1470330561516104,-1,-5,-14,-3,-1,-1,0,-1
1470330561516104,-3,-3,0,-5,-1,1,-3,0
1470330561537109,2,-3,-13,-3,-2,-1,0,0
1470330561537109,-1,-3,7,1,0,-2,-3,-3
1470330561538558,-4,2,4,0,0,-1,0,-1
1470330561538558,-1,-1,-5,-2,-2,2,0,1
1470330561550610,-1,5,3,6,-1,-3,-3,-1
1470330561550610,2,-13,-2,-7,-5,0,0,0
1470330561559577,-1,9,2,2,1,-1,-1,1
1470330561559577,-2,-7,-16,0,-2,-2,-2,-3
1470330561574625,0,-3,-2,0,2,-1,0,0
1470330561574625,-5,1,-4,-2,-1,-1,-1,-2
1470330561576119,3,-1,0,-5,-2,0,1,0
1470330561576119,0,-2,6,6,0,-2,-3,-3
1470330561604617,-4,-4,-16,-11,-4,-1,0,-2
1470330561604617,2,-1,1,1,0,-2,-2,-2
1470330561606119,0,-5,-1,-1,1,-1,-1,1
1470330561606119,1,3,5,-2,0,-3,-1,-2
1470330561610625,-7,1,-1,-1,-1,-3,0,-1
1470330561610625,0,-4,-4,-1,-1,2,-1,-3
1470330561619632,-1,0,1,-3,-1,2,-3,-1
1470330561619632,-1,1,4,-2,-1,-2,-2,2
1470330561642189,5,-1,8,0,0,0,1,-3
1470330561642189,-2,-3,-4,1,0,-2,1,0
1470330561643652,-3,5,4,3,-1,-2,0,0
1470330561643652,1,-1,-7,-6,0,-2,1,1
1470330561657165,0,1,17,0,-2,0,0,0
1470330561657165,-3,-2,-9,1,-1,-3,-2,0
1470330561658666,-1,-2,7,-4,-3,-2,-1,-2
1470330561658666,-5,-2,-8,-4,1,-2,0,-3
1470330561670714,-1,2,-12,1,-1,1,0,0
1470330561670714,0,3,-1,-2,-3,-2,0,1
1470330561679687,2,-2,-4,2,1,-2,0,0
1470330561679687,-2,-4,-2,1,1,0,-1,-3
1470330561694700,-4,-1,1,0,-2,-1,-3,1
1470330561694700,0,6,15,0,-1,0,-1,-1
1470330561696200,-1,-2,-10,0,-4,-2,-1,-3
1470330561696200,1,-6,-2,-8,-1,-1,1,-1
1470330561717219,-3,0,-1,3,0,0,0,0
1470330561717219,0,-5,-20,-7,-1,-1,0,-1
1470330561718754,2,-1,17,3,-1,-1,-1,0
1470330561718754,-3,-2,5,7,1,0,-2,-3
1470330561730731,0,0,-7,-10,0,1,-1,-1
1470330561730731,-1,-3,-11,-2,-3,-1,-2,-1
1470330561739757,-5,-3,-4,-3,-2,-2,-1,0
1470330561739757,2,-1,-10,-5,-5,1,0,2
1470330561754752,0,-5,8,5,0,-2,-1,-2
1470330561754752,-2,-1,0,2,-1,-1,-2,0
1470330561756253,0,-2,-2,5,3,1,1,0
1470330561756253,-1,2,-7,-9,-3,0,-1,0
1470330561777288,-2,-2,-15,2,-1,0,-1,-1
1470330561777288,-6,2,13,0,3,0,-2,-4
1470330561778778,3,-8,-3,2,-3,0,-1,-4
1470330561778778,-3,1,-15,-6,0,0,-1,0
1470330561790814,-3,2,17,-3,-3,-3,-2,1
1470330561790814,-1,-2,-6,5,-2,0,-3,-1
1470330561799794,-1,0,-2,-11,-1,0,-3,0
1470330561799794,2,-5,3,0,-2,-2,-1,-1
1470330561814806,-1,1,-3,1,-1,0,-2,-2
1470330561814806,-2,-1,10,5,2,-1,0,-1
1470330561816308,0,-6,-8,-7,-1,-2,-1,-4
1470330561816308,-5,3,0,-1,1,0,0,2
1470330561837327,0,2,0,-1,-2,-2,0,-3
1470330561837327,-1,0,-14,-7,-1,0,-1,-1
1470330561838832,-3,-5,10,8,-2,0,-2,0
1470330561838832,3,4,-1,-4,-2,-2,-1,-3
1470330561859364,-1,-2,1,3,-2,-1,-1,0
1470330561859364,-1,-1,-5,-2,-1,-2,2,0
1470330561861349,-4,-7,0,-3,0,-4,-1,-3
1470330561861349,-2,-3,-1,-1,-1,-1,-1,-1
1470330561874362,1,-1,4,-1,0,2,0,-1
1470330561874362,-2,1,-8,-5,-2,0,0,-2
1470330561876361,2,1,-1,6,0,-2,-3,0
1470330561876361,-2,-3,6,1,-4,-2,-1,0
1470330561897380,0,0,-3,-6,0,-2,-2,0
1470330561897380,3,-5,11,-3,-2,-1,-2,1
1470330561898902,-2,0,-14,-2,0,0,-1,-1
1470330561898902,-3,-2,-1,-3,-3,-2,-2,-3
1470330561919917,2,-2,1,-1,-1,-1,-1,-3
1470330561919917,0,-2,6,-2,0,-1,1,0
1470330561920901,2,10,-4,-7,-3,-2,-1,0
1470330561920901,-1,1,3,5,-3,-1,-2,-1
1470330561934414,-3,-2,4,-5,0,3,-1,-1
1470330561934414,2,1,-16,-1,-1,-2,-2,2
1470330561935917,-4,0,6,-2,-3,-2,-3,-1
1470330561935917,1,-1,-1,2,0,0,0,-1
1470330561956979,1,-6,-8,-3,-3,-3,0,-2
1470330561956979,-2,1,-2,1,1,-2,0,-3
1470330561958958,1,3,-2,-2,2,2,-1,-2
1470330561958958,-1,-8,-4,-4,-4,0,1,-2
1470330561979479,-1,2,2,8,3,-1,0,1
1470330561979479,-3,6,-8,-4,-2,-3,-3,-2
1470330561980957,1,4,7,-4,0,-1,1,0
1470330561980957,-2,-3,7,3,-1,0,-2,-5
1470330562002012,-2,0,-10,-3,-1,0,-1,-1
1470330562002012,-2,-3,-2,0,1,0,1,-1
1470330562003975,-3,-4,5,3,1,0,2,1
1470330562003975,-2,0,0,-1,1,-1,-2,-2
1470330562017021,-3,3,7,0,-1,-2,-2,-1
1470330562017021,1,-4,13,0,2,0,-2,0
1470330562018550,2,-5,-9,1,-3,-1,-1,0
1470330562018550,-1,-1,-3,-2,0,0,-2,1
1470330562039507,0,-2,1,4,-4,-1,-2,1
1470330562039507,-2,-6,2,1,-1,0,0,-5
1470330562041011,-3,1,-4,-8,-2,-1,-1,1
1470330562041011,2,-9,-4,-5,0,-1,-1,1
1470330562054522,-4,1,-4,-2,-2,0,-1,0
1470330562054522,0,0,14,2,-7,-2,-1,2
1470330562061028,0,-5,-6,-4,-1,-2,-1,-1
1470330562061028,0,0,-2,2,-1,-2,0,0
1470330562077042,1,8,-7,-5,0,-2,-1,0
1470330562077042,-2,-2,4,3,-2,-3,-1,-1
1470330562078545,-1,-6,-19,-7,-1,-2,0,-5
1470330562078545,1,0,-2,5,1,-2,1,-3
1470330562099604,-2,-5,2,-5,-4,-2,-2,0
1470330562099604,3,-1,-10,-5,0,1,-4,1
1470330562101063,1,3,13,4,-1,1,-1,0
1470330562101063,-2,3,-13,-5,-2,-1,-1,0
1470330562114102,0,-4,0,4,-1,-2,-1,-2
1470330562114102,-2,-2,-3,-8,-3,1,0,-2
1470330562120610,2,-8,-9,-3,-1,0,-1,-3
1470330562120610,-5,3,-1,-1,-1,-2,-4,-1
1470330562137124,-1,-5,10,-3,0,-1,0,-1
1470330562137124,-1,0,3,6,-1,-1,-1,1
1470330562139146,-5,1,-1,5,0,-1,-1,1
1470330562139146,3,-1,7,-4,-4,-2,0,0
1470330562159639,-1,2,-15,-1,2,1,0,-3
1470330562159639,-3,-6,1,-4,-1,-1,0,1
1470330562161146,0,0,13,-1,-3,-3,-2,-2
1470330562161146,-1,4,1,3,2,2,1,-2
1470330562174129,1,-7,-6,1,1,0,-3,-3
1470330562174129,-3,5,-2,0,1,0,0,2
1470330562180693,0,2,-2,-1,-2,0,-1,0
1470330562180693,-3,-3,-4,-6,-2,-1,-3,-1
1470330562197180,-3,0,7,2,0,0,-1,0
1470330562197180,3,-1,-2,0,0,0,0,-1
1470330562198700,1,-3,-3,-1,-2,-2,-1,0
1470330562198700,-5,1,0,-1,1,-2,0,-1
1470330562219669,-1,-1,-13,-7,-4,-1,0,-2
1470330562219669,-2,-1,14,1,-1,-3,-3,-1
1470330562221175,1,-2,4,4,2,2,-2,-2
1470330562221175,0,-5,-2,0,-2,-1,1,-2
1470330562234183,0,-3,-4,-2,-1,-2,1,-2
1470330562234183,-1,-2,-8,-3,-1,-3,0,-3
1470330562240748,-7,1,6,0,-2,-2,0,1
1470330562240748,4,1,20,5,0,0,-1,1
1470330562257203,-3,-2,-20,-14,-5,1,0,1
1470330562257203,-2,1,3,1,0,-2,0,-3
1470330562258755,0,-2,-8,-5,-2,0,0,0
1470330562258755,1,2,3,-1,0,-1,0,-1
1470330562279723,-3,-1,0,6,0,-1,0,0
1470330562279723,-1,-3,-12,-8,-3,-1,0,-2
1470330562281224,-2,1,0,-2,-2,-1,-2,0
1470330562281224,0,1,3,1,-1,1,-1,0
1470330562293737,-1,6,9,4,1,-2,0,0
1470330562293737,1,-6,-6,1,0,1,-1,-3
1470330562300743,-2,-2,0,-1,-2,0,0,0
1470330562300743,-3,-2,-1,0,-1,0,-1,0
1470330562317257,-1,5,4,1,0,-1,-2,0
1470330562317257,-1,4,6,3,1,-1,-2,0
1470330562318759,-1,-2,2,6,-1,-1,1,1
1470330562318759,-5,-6,-19,-12,-4,-2,-1,-5
1470330562339777,-1,1,19,-1,-3,1,-4,-2
1470330562339777,2,-1,-3,-2,-1,0,-1,-1
1470330562341312,-3,1,-4,0,0,-2,-1,-1
1470330562341312,3,-1,-7,4,0,0,-4,0
1470330562353333,1,-4,-6,-1,0,-3,0,0
1470330562353333,-3,-1,4,-9,-1,-3,-3,0
1470330562362297,1,-1,-2,5,-1,-2,-1,-3
1470330562362297,-2,0,3,-6,-2,-2,0,-1
1470330562377331,-1,-2,-2,-1,-2,1,-1,-2
1470330562377331,0,0,-2,5,2,1,0,0
1470330562378849,1,-2,-16,-10,-1,0,0,-2
1470330562378849,1,-3,19,5,0,-2,1,-1
1470330562399890,-3,0,-8,4,1,-1,-2,-1
1470330562399890,1,-1,-4,-4,-3,-1,-1,-1
1470330562401378,-2,-2,3,-3,1,0,-2,0
1470330562401378,-4,4,-9,-5,-3,-2,-2,-1
1470330562413372,2,-2,2,-3,-1,-2,-1,-1
1470330562413372,-2,-2,0,4,-2,0,-1,-2
1470330562422352,-1,-3,-2,-3,-1,0,-1,-3
1470330562422352,-3,3,-1,3,2,1,-1,2
1470330562437365,-2,2,8,2,-2,0,-1,0
1470330562437365,-1,-2,-10,-1,-1,-1,0,0
1470330562438901,-3,1,1,-5,-1,-1,-1,0
1470330562438901,0,-6,-3,2,1,-3,2,-3
1470330562459905,1,-6,-2,-7,0,-2,-2,0
1470330562459905,-2,3,0,-2,-2,-2,-2,-1
1470330562461452,3,-5,-11,-1,-3,-3,0,-1
1470330562461452,-2,3,-6,-1,-2,0,0,-1
1470330562473397,-2,-3,22,5,-2,-2,-1,-4
1470330562473397,3,-6,-19,-3,-1,-2,-2,-1
1470330562482405,-1,3,13,4,1,-2,-1,1
1470330562482405,-1,-9,-30,-10,-3,-3,-1,0
1470330562496918,-1,0,1,-2,-2,-2,-2,-1
1470330562496918,-2,-3,7,2,0,0,0,0
1470330562498420,3,2,9,5,2,0,-1,1
1470330562498420,-3,2,-5,3,-2,-1,-1,-2
1470330562520024,-1,-5,-3,-4,-1,-1,1,1
1470330562520024,-1,-3,3,-8,-3,-2,0,1
1470330562521440,-4,-1,-1,3,-1,1,-2,-2
1470330562521440,-3,-1,9,4,-2,-4,-2,-1
1470330562532986,0,0,-9,-4,-2,-1,1,1
1470330562532986,-1,2,1,-1,-3,0,1,-3
1470330562542501,-4,0,-1,-6,-1,-1,-1,-1
1470330562542501,0,-1,10,-1,0,0,-2,-1
1470330562556974,-1,-5,-4,1,-1,-1,-1,-3
1470330562556974,-4,7,-10,2,0,-1,-2,-3
1470330562558480,2,-6,0,-1,-1,0,-2,-4
1470330562558480,0,0,-3,-8,-1,-1,0,-1
1470330562579582,-1,-2,-3,1,-1,-1,0,-1
1470330562579582,-1,3,3,0,-2,-1,-2,-1
1470330562581495,-2,-4,1,2,-4,-3,0,0
1470330562581495,1,0,-5,6,3,-1,0,0
1470330562593505,-4,3,-3,-3,0,-1,0,0
1470330562593505,-1,1,9,2,-1,-2,1,0
1470330562609553,-2,3,-13,-2,-2,-1,0,-2
1470330562609553,-5,-1,4,-6,-1,2,-1,-2
1470330562617041,7,-4,-5,1,0,2,-2,-1
1470330562617041,-1,-4,-9,-2,-3,-1,-1,1
1470330562618529,-2,1,4,-2,-1,-4,-2,-3
1470330562618529,-1,1,21,1,-3,0,-1,-2
1470330562639547,-3,-2,-20,2,-2,-4,-1,-1
1470330562639547,2,1,11,-6,-1,-1,-1,-1
1470330562641052,-5,3,-2,-1,-1,0,1,-1
1470330562641052,3,-2,8,-4,-3,-3,-1,-3
1470330562653559,-2,1,-6,-1,1,1,-2,0
1470330562653559,-7,0,1,-1,0,0,-2,1
1470330562662115,4,-1,2,6,0,1,-1,-2
1470330562662115,-2,-1,-5,-6,-1,-2,1,-1
1470330562677170,-5,1,-2,-4,0,-2,-2,-1
1470330562677170,2,-4,-13,-1,0,-1,-4,-2
1470330562679090,3,1,7,-4,-1,-1,-1,-2
1470330562679090,4,-2,-11,2,0,-1,0,0
1470330562699622,-5,3,1,1,-2,-3,-2,1
1470330562699622,-1,-8,0,-5,0,1,-1,-2
1470330562701102,1,2,2,0,-2,-2,0,-1
1470330562701102,-2,0,-5,-4,-2,-3,-2,-1
1470330562713113,2,-4,3,-1,1,0,3,-3
1470330562713113,1,-5,-28,-7,-2,0,0,-3
1470330562722122,-3,3,-2,-1,-1,0,0,-1
1470330562722122,0,2,9,2,0,-1,-1,-1
1470330562737180,-2,-3,7,1,-4,-1,-4,-3
1470330562737180,0,-1,5,-3,-2,-3,1,-1
1470330562738638,-1,-2,-6,-2,-2,-1,0,-2
1470330562738638,0,-2,-11,0,-3,-2,-2,-1
1470330562759674,-1,-2,7,0,2,-1,-1,2
1470330562759674,-3,-2,6,2,-1,0,-1,-3
1470330562761662,0,-5,-8,-7,-1,0,-1,1
1470330562761662,1,-11,14,5,0,0,0,0
1470330562773209,-2,7,-17,-2,-2,-2,-1,1
1470330562773209,-2,3,22,1,-1,-1,0,-1
1470330562782203,2,-3,-6,-1,1,-3,0,-2
1470330562782203,1,-3,-3,-2,-2,-1,-3,0
1470330562797189,-3,-1,-1,1,-1,0,-1,-4
1470330562797189,1,-3,-2,1,0,-2,0,0
1470330562798695,-2,0,-10,-4,-4,-1,-3,0
1470330562798695,-4,-1,-5,-6,0,-2,-2,1
1470330562819741,4,-4,0,-1,-3,-1,-1,-2
1470330562819741,0,2,-1,4,0,-1,-1,-3
1470330562821212,-2,-2,8,0,1,-2,-1,-4
1470330562821212,1,0,-11,-3,-6,-1,-1,-1
1470330562842229,0,2,5,-1,1,0,1,3
1470330562842229,0,-3,0,1,0,0,-2,-2
1470330562843745,-4,2,7,5,0,-1,-1,2
1470330562843745,-1,-6,4,-1,-1,1,0,0
1470330562857242,2,5,2,0,-2,-1,-1,-3
1470330562857242,-2,1,-9,1,-3,-3,-1,-1
1470330562858745,3,-3,-7,-3,-1,-1,-1,0
1470330562858745,-4,3,8,2,-2,0,-2,0
1470330562879762,-4,-3,-12,-5,-3,0,0,-3
1470330562879762,-3,-4,-16,-9,-3,0,-2,-3
1470330562881293,1,-3,12,-3,-2,-1,-2,0
1470330562881293,1,-2,-10,0,0,-1,0,-2
1470330562909791,-6,1,15,3,0,-2,-2,-2
1470330562909791,-1,-3,-6,-2,-2,0,-2,3
1470330562911291,-1,-2,6,-2,-2,-1,1,-2
1470330562911291,-5,1,-5,0,-3,-2,-2,1
1470330562915813,3,-7,-2,-6,-3,-2,-1,-2
1470330562915813,1,1,1,2,-1,-1,0,-1
1470330562924803,-4,-1,-2,2,2,0,-1,1
1470330562924803,1,1,-13,-8,-2,-2,-1,-1
1470330562939815,-4,-4,10,3,1,1,-1,-3
1470330562939815,-1,2,5,-6,-1,-2,2,-1
1470330562941320,-3,-1,-5,4,-3,-1,-3,-2
1470330562941320,0,0,-14,-5,-1,0,1,-2
1470330562962393,0,0,13,-5,-2,-2,-3,3
1470330562962393,-4,-2,-3,2,-1,-1,-2,-2
1470330562963838,0,-3,-3,1,-1,0,-1,-2
1470330562963838,-4,-2,-1,-7,-1,-1,-1,-3
1470330562976402,0,2,-3,1,-1,-2,1,0
1470330562976402,0,-1,-2,1,1,0,-1,0
1470330562983441,-1,2,9,-2,-1,-1,-1,3
1470330562983441,-2,2,-11,-1,0,-1,1,-1
1470330562999870,0,-4,6,-1,-3,-2,-1,-3
1470330562999870,-1,-2,-5,-1,-2,-1,-1,-2
1470330563001463,1,5,-11,-5,-2,1,-1,-2
1470330563001463,-4,-2,9,7,1,-1,-1,0
1470330563022418,-1,1,1,0,1,-2,-1,0
1470330563022418,-2,-4,-3,0,0,-1,1,-1
1470330563023944,-3,0,-10,-6,2,-1,-2,-1
1470330563023944,2,0,12,-3,-1,-2,1,-2
1470330563036447,-1,-5,-14,-3,1,-3,-1,2
1470330563036447,-3,-1,7,5,-1,0,-1,-3
1470330563043454,-1,-3,1,2,-2,-1,-1,-2
1470330563043454,-1,0,-5,1,1,-1,-2,-1
1470330563059476,0,0,-3,-6,0,0,0,-1
1470330563059476,-1,-1,4,0,-2,-2,-1,0
1470330563060925,1,-3,1,0,1,-1,1,1
1470330563060925,0,-3,-4,-2,-3,-2,-2,-4
1470330563082444,-3,0,-1,3,-1,-1,0,0
1470330563082444,1,1,-1,-3,-2,0,-1,-1
1470330563083946,-1,-4,-1,-2,-4,-1,-1,-2
1470330563083946,0,0,3,0,-2,0,-2,-1
1470330563096456,0,4,-13,-3,1,0,0,0
1470330563096456,0,1,10,-5,-2,-3,-3,-2
1470330563103463,-2,0,-9,7,7,-1,1,-1
1470330563103463,-5,2,1,-4,-3,-4,-1,0
1470330563119482,0,-7,3,1,0,-2,-2,-4
1470330563119482,1,-1,-13,0,0,-2,-1,1
1470330563121481,-4,-5,3,-1,-1,-2,-2,-3
1470330563121481,2,2,8,5,1,-1,0,0
1470330563141999,1,-4,0,0,-4,-1,-2,-2
1470330563141999,-1,-2,-2,-2,1,1,0,-1
1470330563144000,1,-4,-15,-12,-5,-2,-3,-1
1470330563144000,-2,1,5,6,1,1,0,-1
1470330563156511,0,0,1,0,0,0,0,0
1470330563156511,-5,-1,7,5,-2,-2,0,1
1470330563163517,1,0,-6,-4,-2,-1,0,-2
1470330563163517,-1,0,0,-5,0,-2,-1,0
1470330563179531,-5,-4,-3,-1,-1,-1,-4,-3
1470330563179531,1,2,6,-1,-2,-3,-1,-2
1470330563181568,0,-1,-1,3,1,1,-1,2
1470330563181568,-1,-2,-5,1,-2,-2,-2,-1
1470330563202079,-2,0,2,-2,0,-1,-1,-3
1470330563202079,1,1,-13,0,1,1,-2,0
1470330563203582,-2,0,12,0,-2,-1,-1,-4
1470330563203582,-2,-3,-5,-3,0,-1,-1,2
1470330563216608,0,-1,0,4,0,2,-1,-2
1470330563216608,1,-5,3,-6,-2,-3,0,-1
1470330563223071,-5,6,-15,-3,-1,-1,-1,-2
1470330563223071,6,-2,7,-7,0,0,-1,-2
1470330563239641,-2,-3,-4,-4,-1,-2,0,-1
1470330563239641,-3,3,8,2,0,1,-2,-1
1470330563241087,1,0,-12,0,-3,-1,-2,0
1470330563241087,0,2,-1,1,-1,0,0,0
1470330563269612,0,-1,-8,-6,-6,1,1,3
1470330563269612,-3,1,6,1,-3,-2,-2,0
1470330563271114,-2,-7,0,-19,-4,0,-3,-2
1470330563271114,-2,-3,-18,7,0,1,-1,-5
1470330563276618,-5,-2,8,0,-1,-1,-2,0
1470330563276618,1,1,-14,-2,-1,0,1,1
1470330563283124,0,-4,9,6,1,-2,0,-2
1470330563283124,-4,3,-4,-3,-4,-1,-3,3
1470330563299167,-2,-1,-3,-7,0,-1,-1,0
1470330563299167,-4,-8,-5,-5,-2,-3,-1,-1
1470330563307146,1,4,-2,-3,-2,-2,-1,1
1470330563307146,-3,-2,8,0,0,-2,-1,-1
1470330563322204,-3,-1,-8,1,0,-1,0,-2
1470330563322204,1,-6,-2,-4,-3,-2,-3,-3
1470330563323668,-5,-3,2,1,0,-1,0,-3
1470330563323668,2,-2,4,1,-2,-1,0,-1
1470330563335698,2,5,2,0,-3,-3,-2,-3
1470330563335698,-4,1,5,6,0,4,-1,-3
1470330563344681,2,-1,8,-2,-1,-1,1,0
1470330563344681,-2,0,-13,-2,0,-1,-2,0
1470330563359728,0,-5,-2,-2,1,-1,0,0
1470330563359728,-3,-1,-8,-2,-1,-2,0,-1
1470330563361195,0,0,11,4,0,1,0,-3
1470330563361195,-1,3,1,-5,-2,1,-1,0
1470330563382213,2,-3,3,-1,-3,-2,-2,0
1470330563382213,4,0,6,-3,2,-1,0,2
1470330563383715,-2,-2,4,1,-3,-2,-1,-1
1470330563383715,-2,-2,-6,-5,0,-3,0,-1
1470330563395757,-4,-1,2,0,0,0,-2,-1
1470330563395757,1,3,4,6,1,0,0,0
1470330563404768,0,-5,-19,-7,-2,-1,0,-1
1470330563404768,-2,-1,7,0,-2,-2,-1,-1
1470330563419816,-1,4,-5,1,1,-1,1,-2
1470330563419816,-1,-8,-7,-8,0,-4,-3,-1
1470330563421251,-3,1,-3,5,1,0,-1,0
1470330563421251,1,1,-12,-4,-3,-1,-1,-2
1470330563442285,0,-4,-12,-2,-1,-3,-1,-4
1470330563442285,-1,2,9,1,-3,-1,0,0
1470330563443783,3,-5,-1,1,-1,-2,-1,-1
1470330563443783,-2,-3,13,1,-1,0,-2,0
1470330563455786,0,-3,-2,-2,-1,-2,-1,-2
1470330563455786,-2,2,-7,2,-4,0,1,0
1470330563464787,0,-2,-2,-9,0,-1,-3,0
1470330563464787,-4,-3,9,4,0,-1,-2,0
1470330563479831,-5,2,3,-3,0,-2,-1,-1
1470330563479831,5,-4,-4,0,-2,-3,-1,0
1470330563481341,-1,0,-1,1,0,2,-1,-2
1470330563481341,-1,2,-7,-5,-3,0,0,0
1470330563502325,1,-4,0,1,0,0,-2,1
1470330563502325,-4,-3,5,-4,0,0,-2,-3
1470330563503856,1,1,-7,0,-3,-3,-2,0
1470330563503856,-2,-3,11,10,3,-3,-2,0
1470330563515839,-1,-3,-9,-7,-4,-1,0,-1
1470330563515839,-3,0,-2,6,1,-2,-1,1
1470330563524843,-4,-3,5,-7,-1,-2,0,0
1470330563524843,0,-7,-9,-2,-2,0,-2,-3
1470330563539413,2,4,12,3,-2,1,0,2
1470330563539413,-5,-3,-11,-6,0,-2,-1,1
1470330563541402,3,2,-4,1,0,-1,-1,1
1470330563541402,-2,1,-7,-5,0,-1,-1,0
1470330563562375,0,-1,19,10,5,0,1,0
1470330563562375,0,0,-14,-9,-5,0,-2,-4
1470330563563876,-2,-2,5,-2,-4,-2,-1,0
1470330563563876,2,-2,-7,-1,-3,-1,-1,-3
1470330563575887,-4,-1,-13,-6,-3,0,-2,1
1470330563575887,0,-2,8,6,2,-1,-1,0
1470330563584895,4,-3,3,3,0,-1,-1,-2
1470330563584895,-3,-5,5,-3,-2,-3,-2,0
1470330563599409,3,5,-4,-3,-1,-2,-1,-2
1470330563599409,-1,-6,-13,-6,-3,1,-2,-3
1470330563601410,-4,3,-1,1,-1,-2,0,-1
1470330563601410,0,-1,10,1,0,-2,0,-1
1470330563622429,-2,-4,-10,-1,0,-3,-2,-3
1470330563622429,3,2,1,-9,-2,-1,1,-2
1470330563623930,-6,-1,8,10,1,2,-1,2
1470330563623930,5,0,10,4,1,-1,-1,-1
1470330563635941,-2,0,0,-2,-1,-2,0,-2
1470330563635941,-2,-4,-14,-7,-2,-4,-3,-1
1470330563644460,1,1,-4,1,0,-1,0,-3
1470330563644460,-4,0,-2,-2,-2,-2,-1,0
1470330563659963,-3,-2,-8,-1,-1,-1,0,0
1470330563659963,0,0,10,2,0,-2,-2,-4
1470330563661507,-2,-2,1,-1,-1,-3,-1,-1
1470330563661507,-2,-2,-10,-11,-7,5,-1,-1
1470330563682032,-5,1,-1,5,4,-2,-3,1
1470330563682032,-2,-2,9,-5,0,0,0,-2
1470330563684000,-1,-7,-16,-3,-4,-3,-2,-1
1470330563684000,-4,5,-1,6,4,-3,-2,-1
1470330563695995,-1,-7,-3,-10,-10,-1,0,1
1470330563695995,-3,6,9,9,0,-1,-1,-2
1470330563704502,0,-9,-2,-6,-1,-1,1,-3
1470330563704502,-1,2,-7,-2,-4,-1,-1,-2
1470330563720016,1,-4,-24,-2,0,1,0,-4
1470330563720016,-1,-12,-5,-2,-1,-3,0,1
1470330563721518,-3,4,-7,-8,0,-2,-2,0
1470330563721518,-1,0,0,1,1,0,0,0
1470330563742079,-3,-3,6,-2,-1,0,-1,-3
1470330563742079,-4,2,-3,2,0,-1,-1,3
1470330563743586,3,-1,1,6,-2,-2,-1,-1
1470330563743586,-1,-5,-4,-9,0,-1,-1,-2
1470330563764585,-3,3,4,-2,-3,-2,-1,0
1470330563764585,-2,-6,-17,-7,-1,-1,2,-1
1470330563766058,-2,1,13,6,0,2,1,-3
1470330563766058,-2,-1,1,5,1,-1,-1,-2
1470330563779614,-1,-3,11,-5,-1,-4,-1,-2
1470330563779614,0,3,12,0,-4,0,-3,0
1470330563781072,0,-4,-20,0,1,-1,-1,0
1470330563781072,-3,-3,2,0,-3,-1,0,0
1470330563802091,2,-2,-6,3,-2,3,-2,-2
1470330563802091,1,3,-4,1,0,0,-1,-1
1470330563803594,-2,-1,8,-7,0,0,-1,0
1470330563803594,2,-1,2,4,-2,-4,-3,-1
1470330563824645,-2,0,5,-9,-3,-1,-1,-4
1470330563824645,1,-2,-5,-3,2,1,-2,-2
1470330563826696,0,3,7,4,-2,-2,-2,-2
1470330563826696,-2,-3,-15,-1,-2,-1,-1,-1
1470330563839654,1,-2,-4,0,-1,0,0,1
1470330563839654,-2,-2,-9,-5,0,1,-2,-1
1470330563841127,3,1,1,-6,-3,2,-1,1
1470330563841127,-1,-1,6,0,1,0,1,2
1470330563862179,-1,1,8,5,0,-3,-2,-4
1470330563862179,0,1,0,3,-3,-1,0,1
1470330563863646,0,-1,-5,1,2,-3,0,-1
1470330563863646,0,-5,-14,-8,1,0,-1,-1
1470330563884664,-2,2,3,0,-2,-1,-2,3
1470330563884664,1,-1,20,-1,-2,-1,0,0
1470330563886167,-5,-5,-9,4,-3,-3,-1,0
1470330563886167,-1,-4,-3,-8,-1,-1,-2,-1
1470330563899238,3,9,8,8,3,0,0,-3
1470330563899238,-2,-2,2,-5,0,0,-1,1
1470330563906186,-4,-1,6,0,-2,-1,-2,-3
1470330563906186,1,-4,-13,-2,-1,-2,-1,-4
1470330563922203,-2,-3,0,-7,-2,0,-3,2
1470330563922203,1,1,16,1,-3,-1,-2,-2
1470330563923702,-1,3,12,8,-1,0,0,0
1470330563923702,0,0,1,0,0,0,0,0
1470330563944817,1,-2,-3,-12,-4,1,1,-3
1470330563944817,-3,3,-10,7,1,-3,-2,-2
1470330563946266,0,-6,-23,-17,-6,-3,-2,-3
1470330563946266,0,7,45,14,-2,0,-2,0
1470330563959297,-2,-2,-6,9,3,-1,-2,2
1470330563959297,-1,-3,-11,-9,-3,-2,-1,-1
1470330563965762,1,0,-6,-7,-3,0,-1,0
1470330563965762,0,1,-6,0,0,-1,-1,-2
1470330563982328,-4,2,13,3,-2,-2,-2,-3
1470330563982328,0,-3,-7,-2,-1,-1,0,1
1470330563983769,-2,0,3,5,-1,-1,-2,-1
1470330563983769,-2,0,-14,-13,0,-3,0,0
1470330564004272,0,-8,3,7,1,-2,-1,0
1470330564004272,-1,-2,-6,-7,-1,-2,0,0
1470330564006274,-1,9,-10,0,1,2,-2,0
1470330564006274,0,-2,4,1,1,-1,-1,0
1470330564019285,0,-6,6,7,-2,0,-1,-1
1470330564019285,1,5,-10,-7,-5,-1,-1,-4
1470330564025791,-4,-3,16,-2,1,-4,-1,-1
1470330564025791,-2,-2,-2,2,-4,-2,-2,-1
1470330564042307,-2,0,-13,-11,-2,1,-1,-1
1470330564042307,-5,-4,-5,2,-1,0,-2,0
1470330564043826,0,-5,2,-1,-1,1,-1,1
1470330564043826,-2,1,-7,0,-1,-1,1,-3
1470330564064826,-4,-4,-3,-1,-1,-3,-1,-1
1470330564064826,1,0,2,0,-2,1,-1,-2
1470330564066327,0,1,6,-4,2,0,-2,-1
1470330564066327,-1,-8,-15,-5,-3,0,-2,-3
1470330564078895,-6,1,-3,-2,-1,-2,-1,0
1470330564078895,-1,-1,-3,3,0,-2,-1,-2
1470330564085876,0,1,6,4,-1,-2,0,0
1470330564085876,-2,5,2,-5,-2,0,1,0
1470330564109867,0,-2,-6,-2,0,-1,-2,-1
1470330564109867,-1,-2,2,4,1,0,0,0
1470330564111416,0,-2,-2,-5,-2,-1,-3,-2
1470330564111416,-2,2,6,8,4,1,0,0
1470330564124880,-1,-3,-18,-6,-1,-2,0,-3
1470330564124880,-1,3,3,5,-1,-2,0,0
1470330564126382,-2,-1,-26,-11,-3,-2,-1,0
1470330564126382,-5,0,16,-2,-1,-1,-2,-3
1470330564138894,2,-2,0,4,-1,1,1,0
1470330564138894,-3,-2,1,-1,-1,-1,-1,-2
1470330564145950,-1,0,5,8,1,0,1,-2
1470330564145950,2,-3,-25,-9,-2,-2,-1,2
1470330564162447,-2,-4,26,-4,-3,-1,-4,1
1470330564162447,-1,1,10,-1,-2,0,-3,-3
1470330564163916,-5,-6,-5,-2,1,1,-1,-1
1470330564163916,-1,-4,-5,2,0,0,-2,-2
1470330564184934,-2,1,-2,4,-1,0,1,0
1470330564184934,0,-2,2,-1,-2,-1,-2,1
1470330564186436,1,-1,1,-2,0,-3,-1,-4
1470330564186436,-6,0,5,0,-2,-1,-1,-2
1470330564198447,2,0,-17,-1,-3,-2,-1,-1
1470330564198447,-3,2,15,4,1,0,-1,-3
1470330564207455,0,-5,-9,-2,-2,1,-1,-1
1470330564207455,0,-1,1,0,-2,-2,-1,-2
1470330564222469,-1,0,-4,-2,-1,-1,-1,-1
1470330564222469,0,2,-1,-1,-1,0,-1,-2
1470330564223970,-1,0,5,8,-2,-1,0,-1
1470330564223970,2,-2,1,-5,1,-2,0,-3
1470330564244488,0,-2,-6,-2,-3,-1,1,-1
1470330564244488,-2,-1,-8,2,0,-2,-1,0
1470330564245989,-1,-1,12,-2,-1,-2,-1,1
1470330564245989,0,-2,-4,3,-1,1,-1,0
1470330564258500,-5,4,-6,-1,0,0,1,-3
1470330564258500,2,-4,5,-7,-3,-1,-2,-3
1470330564267009,-1,5,3,9,3,0,-2,0
1470330564267009,1,-6,-10,-4,-2,0,0,0
1470330564282021,-3,1,7,-3,0,-1,-3,-4
1470330564282021,-2,-6,-16,-2,0,-1,0,-1
1470330564283524,2,-1,9,0,-3,0,-2,0
1470330564283524,-3,0,-5,2,-1,-2,-1,-1
1470330564304542,2,-1,-3,-4,-1,-1,-3,0
1470330564304542,1,1,13,2,2,1,-2,0
1470330564306543,-2,-2,-4,-3,-2,-3,-2,-1
1470330564306543,1,2,4,2,0,-2,0,-3
1470330564318554,0,-2,-21,-8,-2,1,0,-4
1470330564318554,-4,0,1,-9,-4,-1,0,0
1470330564327062,2,1,13,9,1,-1,-4,-1
1470330564327062,-1,-1,0,-7,-2,-2,0,1
1470330564342113,2,-4,-3,3,0,-2,1,-1
1470330564342113,-5,-2,-9,3,3,-3,-1,0
1470330564344149,0,-4,-6,-2,-2,0,1,-2
1470330564344149,0,1,8,0,-2,-2,-2,-2
1470330564364610,-4,-3,-12,-9,0,-1,-2,-2
1470330564364610,0,-1,4,2,0,1,0,-1
1470330564366099,-4,-4,-8,-6,0,0,-1,-3
1470330564366099,0,-1,-5,0,-4,-1,0,-2
1470330564378641,-1,-1,3,0,-1,1,-2,0
1470330564378641,1,1,6,6,0,-1,-1,0
1470330564393661,-1,-3,2,-3,-3,-2,1,0
1470330564393661,-2,3,13,1,0,-3,-3,-1
1470330564402160,0,0,-9,-7,-1,-1,0,1
1470330564402160,-1,-2,-9,-6,-3,-2,-2,-2
1470330564403630,-4,1,-1,-1,0,-1,-1,0
1470330564403630,1,-4,-6,7,0,0,-2,-3
1470330564424649,-1,3,19,2,-5,-1,-1,0
1470330564424649,0,-1,-8,-2,1,0,-2,-1
1470330564426153,0,-6,-10,-12,-3,-2,0,-2
1470330564426153,-3,1,-4,-5,-2,-3,-2,-1
1470330564438163,-2,-4,5,2,1,-3,0,-2
1470330564438163,-3,-7,-9,-2,-3,-2,1,1
1470330564447170,-1,8,-12,-5,-3,0,-1,-5
1470330564447170,-2,-5,3,1,-3,-1,1,-1
1470330564462234,-4,4,2,-2,-2,-2,-3,1
1470330564462234,2,-8,-3,-1,-2,-1,-1,-2
1470330564463730,1,-1,8,2,1,-2,1,0
1470330564463730,-2,6,-11,-1,3,1,-2,-2
1470330564484738,-2,-1,-2,-1,-1,0,-2,2
1470330564484738,-1,-1,4,0,-2,-1,-1,-3
1470330564486205,1,-2,-3,-3,0,2,-2,-3
1470330564486205,-3,-1,3,-1,-1,0,0,1
1470330564498241,3,2,7,0,-1,-1,-1,-3
1470330564498241,-1,-2,-11,2,1,-1,-2,-2
1470330564507225,-1,-2,1,-5,-1,0,-1,1
1470330564507225,3,0,9,-9,-4,-2,0,-1
1470330564522237,2,-4,-9,1,-1,-1,0,-1
1470330564522237,-4,-1,-1,0,-2,-3,-2,0
1470330564523795,-1,3,-12,-9,-4,-2,-3,-2
1470330564523795,-2,-3,1,6,-1,-2,-1,0
1470330564544819,0,-2,-1,-5,2,2,0,0
1470330564544819,-2,10,8,1,-1,-3,-1,-3
1470330564546346,-2,-7,-2,4,-3,-2,-1,0
1470330564546346,-2,0,-6,-4,-3,-1,-1,-1
1470330564558313,-2,0,1,4,1,-1,0,-3
1470330564558313,1,-4,-1,-2,-1,1,0,-1
1470330564567277,-1,2,0,-4,-1,1,-1,-2
1470330564567277,-4,-4,2,4,-3,-2,-2,0
1470330564582323,0,2,11,-1,-1,-1,-1,-3
1470330564582323,1,0,-7,-4,-2,1,-1,0
1470330564583882,2,-6,5,5,-3,-1,0,2
1470330564583882,-2,-2,-23,-4,-2,-2,0,0
1470330564604811,-2,2,2,2,1,-1,0,-1
1470330564604811,-3,-3,1,-7,-3,-4,0,-2
1470330564606371,-5,1,-1,3,2,-6,-1,-2
1470330564606371,2,-2,4,-6,1,0,-1,0
1470330564618366,-1,-5,-10,-2,-1,-2,-1,-1
1470330564618366,-3,-2,-6,-9,0,0,-4,0
1470330564627331,1,0,-4,0,0,-1,-1,1
1470330564627331,-1,-2,-1,7,0,0,0,-1
1470330564642344,2,3,1,-2,-3,-3,-1,-1
1470330564642344,-1,0,-3,5,-2,-1,-1,-3
1470330564643881,0,-1,5,-2,-1,1,-3,-4
1470330564643881,1,1,7,-2,0,1,-1,0
1470330564664866,-4,-5,-8,3,-1,0,-1,-1
1470330564664866,1,-1,-3,-3,0,-2,-2,2
1470330564666367,-2,2,2,-1,-2,-3,0,1
1470330564666367,-4,-2,-4,-1,0,-2,-2,-1
1470330564678379,2,-1,-2,6,-1,-1,-1,-1
1470330564678379,-4,-6,-2,-5,-1,-2,-1,-2
1470330564687385,1,5,-3,-4,2,0,0,1
1470330564687385,-1,2,10,-1,-2,-1,-1,-2
1470330564702399,-1,8,11,10,2,-2,-2,1
1470330564702399,1,-2,-11,-6,-2,-4,-1,-2
1470330564703901,-4,-5,6,3,-1,0,1,0
1470330564703901,3,-5,-18,-2,-1,-1,-1,-1
1470330564724957,-1,-2,-7,-10,-2,-1,1,-2
1470330564724957,3,3,14,0,-2,1,0,-1
1470330564726422,1,1,5,11,0,0,-2,-2
1470330564726422,1,-6,-16,-6,-4,-1,-1,-2
1470330564747476,-3,-5,-5,-1,0,1,-2,0
1470330564747476,0,5,4,-2,-4,-2,-2,3
1470330564748941,-1,-3,-6,-2,-3,-1,-1,-4
1470330564748941,-2,-1,6,2,2,1,-1,-1
1470330564762505,-4,-7,0,-7,-3,-3,-1,0
1470330564762505,-3,2,-4,4,2,-3,0,-1
1470330564763954,0,-5,-8,-6,-1,2,-2,1
1470330564763954,-3,3,-2,-2,-2,-3,-1,0
1470330564784518,2,2,4,-4,-3,-1,-1,-3
1470330564784518,0,-4,-5,-1,-1,1,1,-1
1470330564785973,-2,-5,-2,2,1,-1,-1,1
1470330564785973,-1,0,0,-3,1,1,1,-1
1470330564814499,-2,-3,-7,-5,-3,0,-2,0
1470330564814499,0,5,6,6,-2,-2,-1,0
1470330564816508,-3,4,-11,-1,-2,-1,-1,2
1470330564816508,1,-5,8,-5,-5,-2,-1,0
1470330564821055,1,0,13,8,1,0,-2,0
1470330564821055,-3,3,-8,3,0,1,0,-3
1470330564829536,-1,-3,-6,-12,-5,-5,-2,-1
1470330564829536,0,5,-3,0,0,-3,-1,-1
1470330564845026,0,-8,-15,-5,-1,-1,-1,1
1470330564845026,-1,-3,1,1,-3,-1,-1,-2
1470330564846528,-2,-1,8,9,4,2,-2,-3
1470330564846528,-2,-3,1,-5,0,-2,-2,-1
1470330564867555,-5,3,-7,-7,-1,-2,-1,0
1470330564867555,1,-6,-4,-3,0,0,0,0
1470330564869155,0,2,14,-1,-5,-4,-2,-3
1470330564869155,-3,-6,-14,0,0,-1,-1,-2
1470330564881559,0,9,6,6,1,0,4,-3
1470330564881559,0,2,12,-7,-1,-2,0,1
1470330564888566,-2,-9,-7,-1,0,0,-2,-1
1470330564888566,0,15,2,1,-1,2,-1,0
1470330564904584,-1,-7,-8,5,-3,-4,-2,1
1470330564904584,3,0,23,2,-1,1,1,-3
1470330564906082,-4,-5,-16,-2,-4,-2,-2,-3
1470330564906082,2,0,3,1,0,-2,-2,0
1470330564927100,-3,-1,6,1,-1,-2,1,-2
1470330564927100,-3,-5,-8,-17,3,-1,-2,0
1470330564929106,4,-2,10,1,-6,-2,-1,0
1470330564929106,-5,-4,-2,10,3,-3,-1,2
1470330564941705,0,-2,1,-17,-7,-2,-4,-4
1470330564941705,-3,-6,-10,7,1,1,1,-1
1470330564948671,3,8,14,6,7,4,0,0
1470330564948671,-1,-16,-5,-7,-3,-1,-2,-5
1470330564964659,-4,-11,-50,-1,-6,-5,-5,1
1470330564964659,-1,1,-7,-8,-3,-2,-1,-2
1470330564966165,0,2,5,-9,-2,0,-1,-1
1470330564966165,-4,6,19,7,-3,-2,0,-1
1470330564987197,5,-11,-15,-5,4,1,-1,-1
1470330564987197,1,-1,10,3,-6,-1,-3,0
1470330564988656,-2,4,-5,5,2,0,1,-2
1470330564988656,0,0,1,-6,0,1,0,0
1470330565000695,-3,0,11,-5,-2,2,0,-3
1470330565000695,-1,3,-3,10,1,-4,-1,2
1470330565009674,-2,-1,-2,-6,-4,-2,0,-1
1470330565009674,1,0,-1,1,1,1,-1,0
1470330565024728,1,-4,1,-4,-1,-2,-3,1
1470330565024728,-4,6,5,0,-3,-3,-2,-6
1470330565026224,3,-7,-8,-5,0,1,0,-1
1470330565026224,-1,-4,-7,-3,-7,0,0,-1
1470330565047235,-3,2,8,3,3,0,0,0
1470330565047235,0,3,4,1,-4,-5,-2,2
1470330565048710,-1,-1,-10,0,10,4,0,-2
1470330565048710,1,-2,-4,2,-5,-2,1,0
1470330565060762,-1,5,12,1,-2,-4,-2,-3
1470330565060762,1,4,4,2,3,1,1,0
1470330565069741,1,0,1,-8,-6,-5,-2,0
1470330565069741,-2,-2,-2,1,2,-1,-1,-1
1470330565084793,2,-1,6,-3,2,3,2,-2
1470330565084793,-1,-5,-16,2,-3,2,-1,-2
1470330565086244,-4,-1,7,4,-4,-5,-2,-4
1470330565086244,0,0,-2,2,1,0,-2,-1
1470330565107263,0,-1,1,-6,-5,-4,0,0
1470330565107263,-1,-2,-2,-5,-1,1,-1,-2
1470330565108765,0,-1,-4,-7,-2,-1,0,-1
1470330565108765,-1,2,-4,-8,0,0,-2,0
1470330565120775,0,2,11,11,1,-1,-5,-2
1470330565120775,-3,-1,-6,5,7,-1,-1,-1
1470330565129784,1,-4,-11,-6,-7,0,-1,-1
1470330565129784,-1,-2,-4,-3,0,-4,-3,0
1470330565144796,-6,5,3,-1,-1,-1,-1,2
1470330565144796,1,-7,-5,-3,-2,-6,-2,0
1470330565146325,0,-3,4,-2,2,1,0,0
1470330565146325,-1,0,-2,1,-1,1,-2,-2
1470330565167316,1,0,-5,0,-2,-2,-1,0
1470330565167316,-3,-5,0,-6,-5,-1,-1,-2
1470330565168834,-3,-4,-25,-4,0,1,-1,0
1470330565168834,-2,-2,17,3,-1,0,-1,1
1470330565180857,3,-2,-3,-1,-4,-3,0,-1
1470330565180857,-3,-4,-12,0,1,0,0,-2
1470330565189836,-4,-2,8,-7,-7,-1,-4,2
1470330565189836,4,6,6,3,4,1,1,-1
1470330565204850,-3,-3,-5,-5,1,0,0,1
1470330565204850,1,1,3,-6,-3,-2,-2,-2
1470330565206378,0,-5,-2,3,-4,-1,-2,-1
1470330565206378,-3,-3,-5,-3,-1,-4,-3,0
1470330565227370,-4,-3,6,-1,-4,-3,-1,-3
1470330565227370,-2,1,-3,-3,2,1,-2,1
1470330565228955,2,1,2,-5,1,-1,1,-3
1470330565228955,-1,-3,-13,-6,-6,-2,-1,0
1470330565240961,-5,1,-3,2,-1,1,-1,-2
1470330565240961,4,-6,2,9,6,4,0,-1
1470330565249935,-3,1,7,4,-4,-1,-3,-1
1470330565249935,-4,2,-10,-4,-4,-2,0,-2
1470330565264904,2,-2,11,-6,-2,-1,-1,0
1470330565264904,-1,0,-5,-7,-7,1,1,-4
1470330565266406,-2,4,5,9,0,-2,-2,-2
1470330565266406,-2,-1,-3,-10,-1,-2,0,-3
1470330565287429,2,-3,-11,2,0,-4,-3,-2
1470330565287429,-2,1,6,1,-1,1,-1,-1
1470330565288925,-4,-2,-7,1,1,-2,-1,2
1470330565288925,7,-3,10,1,1,-1,-3,-4
1470330565300937,-2,-2,-1,2,0,2,1,1
1470330565300937,-5,8,-3,-9,0,-3,-3,1
1470330565309944,3,-6,-1,2,-2,-2,1,-6
1470330565309944,-1,-4,-16,0,1,4,-2,-1
1470330565324481,-3,0,1,-2,-1,-1,-1,2
1470330565324481,0,-3,-4,-1,0,-1,-2,-1
1470330565326459,-4,-1,-1,-5,-4,-1,-3,-2
1470330565326459,-2,2,3,1,0,0,0,1
1470330565347009,-5,2,5,-1,-1,-1,-3,-2
1470330565347009,7,-6,-5,-6,-6,0,2,-1
1470330565349002,0,0,6,9,2,-2,-2,-2
1470330565349002,-7,0,-10,-8,-4,-5,-1,1
1470330565369072,10,-7,-8,-1,-1,2,0,-3
1470330565369072,-2,-1,6,-1,-1,-3,-2,0
1470330565369545,-3,1,-5,-8,0,0,-2,0
1470330565369545,-1,3,9,8,-1,-2,0,1
1470330565384012,-2,-2,-1,-5,1,-1,1,-3
1470330565384012,-2,-3,2,4,2,0,0,-1
1470330565384512,-1,2,-5,-1,-1,-2,0,1
1470330565384512,6,-7,-2,-6,-5,-1,-2,-3
1470330565406611,-5,0,0,1,0,1,-1,-1
1470330565406611,-9,1,2,-1,-3,-4,-2,-1
1470330565407047,7,-5,-3,-3,-1,0,-1,0
1470330565407047,-4,-1,-1,1,-2,-2,-1,1
1470330565437108,-3,0,0,5,0,-2,0,0
1470330565437108,1,-4,-11,-6,-2,-3,-2,-6
1470330565438059,1,0,4,3,0,-1,1,1
1470330565438059,-3,0,-2,-1,-1,-2,0,-2
1470330565459605,-4,-1,5,-5,2,0,-2,2
1470330565459605,8,-5,-10,1,2,3,1,-1
1470330565460579,-5,-2,2,-11,-2,-5,0,0
1470330565460579,-8,0,-5,1,-2,-1,-2,-3
1470330565466585,8,-1,-4,1,-2,0,-1,-4
1470330565466585,1,4,8,16,13,3,1,0
1470330565467118,-6,-1,-6,-1,-2,0,-2,1
1470330565467118,5,-3,3,-4,-1,-2,0,-1
1470330565489176,-1,0,-6,-4,-3,-1,-3,-1
1470330565489176,-3,-2,8,7,-3,-2,-2,1
1470330565489672,-2,0,-14,0,1,0,0,-3
1470330565489672,3,-4,5,1,1,-1,0,1
1470330565504119,-3,2,-2,-9,-2,-3,0,0
1470330565504119,-10,1,1,-1,-4,-2,-1,0
1470330565504619,7,-4,4,1,-1,1,1,0
1470330565504619,-2,-1,-4,1,1,0,0,-1
1470330565534648,-3,-1,-7,-5,-2,-2,-1,0
1470330565534648,4,-4,-2,-3,-5,-1,-1,-1
1470330565535178,-2,1,-1,-6,-4,-1,-3,-3
1470330565535178,-3,-1,-4,2,2,1,-3,-1
1470330565549160,-1,3,7,6,2,0,-1,-2
1470330565549160,2,-5,1,-2,1,0,-2,-2
1470330565550160,-3,3,-2,2,-1,-2,0,-3
1470330565550160,-5,2,6,-5,0,-1,0,1
1470330565563673,8,-5,-2,8,-1,-1,0,-2
1470330565563673,-2,1,-1,-1,0,-3,-2,-2
1470330565564674,-3,1,-4,-3,1,3,-2,1
1470330565564674,4,-4,11,4,-1,-1,0,0
1470330565586692,-5,-2,0,-6,-2,-3,-2,-1
1470330565586692,-1,0,-7,-13,-2,0,-2,0
1470330565587212,-6,3,0,7,-3,-3,-2,-2
1470330565587212,-7,1,-3,6,3,0,-1,-3
1470330565608713,-11,-1,0,-1,-5,-2,-2,-1
1470330565608713,-13,4,1,0,-5,-1,-1,0
1470330565609713,1,-5,-3,-5,-1,-2,-1,0
1470330565609713,-6,0,1,-1,-4,-3,-4,-2
1470330565624226,-12,3,-7,-2,0,-1,0,-3
1470330565624226,3,0,-5,-5,-6,-3,-1,-3
1470330565624730,-11,2,-1,-5,-2,-1,-3,1
1470330565624730,-8,0,-1,1,-1,-2,-1,-3
1470330565646246,0,0,1,1,0,-1,-1,-1
1470330565646246,-9,-2,0,-6,-2,-1,0,0
1470330565647247,-11,2,-2,0,-1,-4,-2,-4
1470330565647247,-7,2,-6,-7,-1,-2,-3,-1
1470330565668795,-2,-3,1,1,1,0,2,-3
1470330565668795,-8,0,-3,-1,-1,0,-2,-1
1470330565669769,-8,3,1,8,1,0,-2,-1
1470330565669769,-1,0,-10,-9,-2,0,0,-2
1470330565683793,-6,1,2,-2,-2,-1,-2,-2
1470330565683793,-5,1,-2,1,-1,-1,-2,-2
1470330565684780,-4,-3,4,-2,-2,-3,1,-1
1470330565684780,-6,-1,-7,-1,-1,0,0,-1
1470330565706316,-3,1,4,-1,-1,-1,-2,-1
1470330565706316,-4,2,4,1,0,0,-1,-2
1470330565707316,4,-4,-2,-5,-2,0,-2,-1
1470330565707316,-4,-2,2,6,-1,0,-1,-2
1470330565728856,-6,2,-3,-4,0,1,1,0
1470330565728856,5,-2,-6,0,-1,-2,-1,-1
1470330565729831,-2,-1,4,3,2,0,0,-1
1470330565729831,-2,1,-1,-3,-4,-2,-3,0
1470330565752341,1,-4,-4,-3,-1,1,0,-3
1470330565752341,-5,-1,1,1,-2,-3,0,1
1470330565752842,-3,-1,-4,-1,3,0,-1,-1
1470330565752842,0,-5,-3,-5,-3,-3,-4,-1
1470330565766368,4,-3,1,6,0,1,-1,0
1470330565766368,-3,-3,-2,-3,-2,-2,-3,1
1470330565767355,-5,2,2,-1,-1,-3,-1,1
1470330565767355,5,-1,2,0,1,-1,3,-1
1470330565788874,-1,-1,-2,2,3,-2,0,0
1470330565788874,-2,1,-2,-2,0,-1,0,-4
1470330565789875,3,0,-2,0,-3,-2,-1,-3
1470330565789875,-7,-1,2,-4,-5,-3,-2,0
1470330565803888,0,1,-5,-3,-4,-3,-3,0
1470330565803888,-3,1,0,-4,1,1,-2,0
1470330565804888,1,-5,-4,1,-1,2,-1,-2
1470330565804888,-1,0,9,4,-1,0,0,-1
1470330565826426,-3,-2,-5,-5,-3,-2,-1,-2
1470330565826426,4,-8,-9,-10,-2,-1,-2,-2
1470330565827408,-2,0,-6,-4,-2,-2,0,-1
1470330565827408,-2,1,7,2,1,0,-2,0
1470330565848966,1,-2,2,7,0,-1,-1,-2
1470330565848966,-4,0,1,2,-1,-1,-1,-1
1470330565849929,-3,-2,1,0,-1,-1,-2,0
1470330565849929,-1,2,-1,-4,-1,0,-1,-2
1470330565863942,1,-2,-1,-3,-1,-2,-3,-1
1470330565863942,-1,-3,-2,1,0,-1,0,-2
1470330565864442,-3,0,0,0,0,-3,-2,-1
1470330565864442,6,-3,-3,2,0,-1,-1,1
1470330565886489,-2,1,-4,-5,-5,-2,-2,-1
1470330565886489,-2,2,5,3,0,2,1,0
1470330565886994,6,-3,-2,-2,0,-2,-2,-3
1470330565886994,-4,-4,-1,-1,2,0,0,-1
1470330565909045,-2,-1,-3,-3,-2,-1,-2,0
1470330565909045,-2,-1,-7,1,-4,-1,-3,1
1470330565909999,-3,-2,6,-1,-2,-2,-1,1
1470330565909999,-2,-1,-7,-4,-2,1,1,-3
1470330565925502,-6,1,0,3,1,-2,0,0
1470330565925502,4,-2,-3,-3,1,0,0,-4
1470330565926527,-1,4,5,-4,-2,0,0,-1
1470330565926527,-4,1,-1,-1,-2,-1,-2,2
1470330565946527,1,-3,-4,0,-2,0,0,-1
1470330565946527,-4,2,2,2,-3,-3,-2,2
1470330565947018,-1,0,-8,1,-1,-1,2,-2
1470330565947018,4,-1,-3,1,0,-3,-1,-2
1470330565969035,-2,-1,-5,-9,-1,2,0,0
1470330565969035,0,-1,-3,-1,0,-1,-3,-2
1470330565969538,-3,-1,0,2,-2,-1,-2,0
1470330565969538,2,0,2,-1,-2,0,0,-3
1470330565984050,-4,-1,0,5,-1,-2,0,-4
1470330565984050,-6,-1,3,-2,-1,-2,0,-2
1470330565984581,4,-5,-8,-3,-1,0,-1,-4
1470330565984581,-4,-1,1,-4,-1,-3,0,0
1470330566006570,-1,0,-5,0,0,-2,-1,0
1470330566006570,2,-1,0,1,0,0,2,-1
1470330566007075,-2,0,1,0,1,1,-3,3
1470330566007075,1,-3,-8,-5,-2,-1,-1,0
1470330566029144,0,4,3,1,-1,3,2,1
1470330566029144,2,-1,1,-1,0,-2,0,0
1470330566029592,-3,-1,-2,4,1,-1,0,-4
1470330566029592,-4,-1,-1,-2,-1,-2,-4,-2
1470330566044103,2,-4,0,-2,-1,-1,-2,-2
1470330566044103,-6,0,-1,-3,-3,-2,-1,-1
1470330566044607,0,1,-2,-4,-4,-1,0,-2
1470330566044607,3,-2,0,0,-3,-2,-1,-2
1470330566066636,-6,-1,0,4,0,-1,-2,-2
1470330566066636,2,-3,-5,-1,-2,-2,-3,0
1470330566067124,-2,-2,-5,-4,-1,-2,-1,-1
1470330566067124,-2,0,-6,-1,0,-1,0,1
1470330566088658,-3,0,9,-1,-1,-2,0,2
1470330566088658,-3,1,4,3,1,-1,0,-3
1470330566096650,2,-3,-3,-3,-1,0,-3,-2
1470330566096650,-4,2,0,-1,-1,2,0,0
1470330566104157,-1,-3,-10,0,-2,-1,-1,1
1470330566104157,1,-3,0,-3,-3,1,-2,-2
1470330566104658,-3,1,3,1,0,1,-2,0
1470330566104658,1,2,-7,-2,-2,-1,1,1
1470330566126678,-1,2,2,-4,-2,-2,0,-2
1470330566126678,-1,-3,0,1,3,0,0,-1
1470330566127178,-1,1,0,-3,-3,-3,1,-1
1470330566127178,-2,-5,0,-3,-2,-2,-2,-2
1470330566149199,2,-4,-6,-1,0,-2,-3,-1
1470330566149199,-1,2,2,0,-3,-2,1,3
1470330566149698,0,-1,0,-1,0,-3,-3,-2
1470330566149698,7,-2,1,3,-1,-2,-1,-2
1470330566164226,-4,-1,-3,1,-2,0,0,0
1470330566164226,2,-1,-3,-2,0,0,0,-1
1470330566164711,0,-2,-2,-8,-1,0,1,-2
1470330566164711,-3,-2,2,3,1,0,-1,-2
1470330566186232,-2,-1,-6,-4,-3,-3,-3,-2
1470330566186232,-2,-2,2,-1,-1,0,-1,0
1470330566187232,6,-3,3,7,0,0,0,-2
1470330566187232,-1,1,-3,-4,-3,-2,0,-1
1470330566208768,-2,1,0,-1,-1,-1,-2,-3
1470330566208768,3,-2,-6,-3,-2,0,-2,-3
1470330566209753,-5,0,6,-2,-2,-1,-3,2
1470330566209753,-1,-3,-1,-1,0,-2,0,-2
1470330566223274,2,-3,4,1,0,-1,0,1
1470330566223274,-1,-2,-6,-1,-1,-1,-2,-1
1470330566231771,-3,-3,-6,-2,-2,0,-1,0
1470330566231771,-5,1,0,-1,-2,2,-1,-3
1470330566246329,2,-4,0,-1,0,-1,0,-1
1470330566246329,-5,1,2,-1,-1,-1,-1,1
1470330566247286,-3,-1,-9,-4,-3,-2,-2,0
1470330566247286,3,-3,3,-2,0,-2,-1,-2
1470330566268807,-4,1,0,0,1,-2,-1,-1
1470330566268807,-1,1,-6,3,0,-2,-3,-3
1470330566269806,1,-1,-1,-2,-1,0,-1,-4
1470330566269806,-1,0,2,2,-2,0,-2,2
1470330566283351,2,0,2,-2,0,-1,-2,-2
1470330566283351,-5,0,-1,-1,-1,0,0,-1
1470330566291892,-1,-2,0,0,0,0,-1,3
1470330566291892,-1,-1,-10,-4,0,0,-2,-4
1470330566306344,-5,-2,0,0,-3,-1,-2,-3
1470330566306344,4,-4,2,-2,-2,-1,-3,-1
1470330566307339,-6,2,0,0,0,-3,0,1
1470330566307339,-4,1,3,1,0,-1,-1,3
1470330566328915,5,-3,-1,0,-1,-1,0,0
1470330566328915,-3,0,-2,-2,-1,-3,0,-3
1470330566329862,2,-2,-1,0,0,0,0,-2
1470330566329862,-6,0,0,-3,0,-1,-1,-1
1470330566343426,2,-2,-20,-6,0,-1,-1,-3
1470330566343426,0,3,2,-2,0,0,0,3
1470330566351424,0,0,3,3,-1,-3,-1,0
1470330566351424,2,-3,-2,1,-1,-1,-1,0
1470330566366427,-7,-2,2,-1,1,0,-2,-2
1470330566366427,-1,-2,2,-2,-3,-1,0,-1
1470330566367395,1,-4,-6,-1,0,-1,-2,-2
1470330566367395,0,0,-1,-1,-1,-1,0,-3
1470330566388915,-1,4,3,0,-2,0,0,2
1470330566388915,-6,-2,-3,0,0,-3,-2,-2
1470330566389914,4,-1,-7,-5,-2,1,-1,-1
1470330566389914,-4,-2,1,0,-1,0,-2,1
1470330566403426,1,0,2,2,-1,-2,-3,1
1470330566403426,4,-3,-2,-2,-1,2,0,-2
1470330566411459,-5,0,1,1,-2,1,-2,-3
1470330566411459,0,0,-4,1,-1,-4,0,0
1470330566426447,3,-3,-2,-4,0,-2,-2,-2
1470330566426447,-4,-2,0,-1,-4,-1,-2,2
1470330566427448,0,-3,4,1,0,0,-1,0
1470330566427448,-3,-2,-6,-3,-3,1,0,0
1470330566448967,-1,-3,5,-1,-4,-3,-1,-1
1470330566448967,1,-1,-1,-1,2,0,0,-2
1470330566449469,-3,0,-10,-3,-3,-1,-2,0
1470330566449469,4,-4,0,0,-1,0,0,-3
1470330566463509,-6,0,3,-3,-3,-1,0,-1
1470330566463509,1,-2,-1,-4,-2,-2,-4,-1
1470330566471512,1,0,-3,-4,-1,-1,-1,2
1470330566471512,-4,1,-2,1,0,-2,-3,-2
1470330566486540,0,-2,-2,0,-3,1,0,1
1470330566486540,-1,-3,0,-1,-1,-1,0,1
1470330566487001,2,-4,4,2,-1,-2,0,-2
1470330566487001,1,2,-3,-1,1,0,1,1
1470330566509020,2,1,-1,-2,0,0,-1,-3
1470330566509020,2,-3,-3,-1,-3,-1,-2,-1
1470330566510021,-6,-1,-2,0,-1,-3,-2,0
1470330566510021,0,0,2,-3,-2,-1,0,-2
1470330566532548,1,-2,-2,3,1,0,-1,-4
1470330566532548,-1,2,-4,-2,0,-1,-1,0
1470330566533055,-1,-2,0,-1,-1,0,0,-2
1470330566533055,0,-3,-3,-1,-2,-2,-2,-3
1470330566546585,-2,-3,6,-3,-2,0,-2,1
1470330566546585,-1,-1,-5,1,-1,-1,-2,-4
1470330566547055,-3,2,1,0,-4,1,0,1
1470330566547055,1,-3,0,-2,-1,-1,-2,0
1470330566569074,-4,1,-7,-1,0,0,0,2
1470330566569074,0,1,7,2,-1,1,-2,0
1470330566569575,3,-3,-4,-2,0,1,-1,-1
1470330566569575,-4,0,-4,-2,-1,-3,-1,-1
1470330566592151,-1,-1,-1,-1,-2,-2,-2,-4
1470330566592151,-1,-2,-1,-1,0,-3,0,-2
1470330566593127,-2,-2,-6,-2,0,0,-1,-5
1470330566593127,0,-1,7,0,0,0,0,-1
1470330566606613,-2,1,-3,-3,-2,-1,-3,4
1470330566606613,1,-3,2,-1,-1,-2,0,-2
1470330566607111,-5,0,0,0,0,0,-3,0
1470330566607111,-1,-2,-3,-7,-1,1,-2,-3
1470330566629128,3,-5,-2,1,-3,-2,0,-1
1470330566629128,-4,1,-1,1,0,1,-1,-1
1470330566629629,1,-2,0,1,-2,-4,-1,0
1470330566629629,0,0,-4,2,1,-2,-2,1
1470330566652150,-1,-4,-1,0,1,0,-1,-4
1470330566652150,-2,1,-4,-1,-2,-1,0,-1
1470330566652650,-2,1,4,-1,-1,-1,-2,0
1470330566652650,4,-2,0,3,-1,0,-2,-2
1470330566666696,-3,-1,-1,-2,-1,-2,-1,-1
1470330566666696,-1,1,1,-2,-3,-1,-2,0
1470330566667165,2,-2,-3,-6,0,-2,0,-3
1470330566667165,-6,2,3,2,-1,1,-2,3
1470330566689184,0,-3,-5,0,0,1,0,-2
1470330566689184,-3,0,-1,-1,-2,-2,-2,-3
1470330566689687,-3,0,6,1,0,0,-1,-1
1470330566689687,-4,-2,2,-1,-1,-2,-1,-1
1470330566719753,-1,1,6,-1,0,-2,1,-2
1470330566719753,3,-7,-13,-3,-1,-2,-2,1
1470330566720261,-2,2,1,0,-1,-1,-2,-1
1470330566720261,-1,-1,0,2,-2,0,2,1
1470330566726721,7,1,-2,-3,-1,0,1,-1
1470330566726721,-8,1,-1,-1,-2,-2,-2,1
1470330566727216,1,-2,-2,-2,-3,-2,-1,-3
1470330566727216,0,-2,-2,-1,-1,-1,-3,-4
1470330566749256,-3,-1,-1,2,-2,1,-1,0
1470330566749256,2,-2,-1,-2,1,-2,-1,0
1470330566749749,-3,-1,-2,1,0,-3,-2,-1
1470330566749749,3,-1,-2,-2,0,0,-3,-3
1470330566772257,-6,0,-3,-2,-2,-2,-1,1
1470330566772257,-2,-3,4,0,0,-1,0,-2
1470330566772758,3,-3,1,0,-1,0,-1,-2
1470330566772758,0,0,1,0,-2,-1,2,1
1470330566786812,1,0,-2,0,1,-4,-3,-4
1470330566786812,-1,-1,-1,-1,-2,-2,-2,-3
1470330566787275,-3,-3,-3,-1,-2,-1,1,-2
1470330566787275,0,-2,-5,-2,-1,-2,-3,0
1470330566809311,-3,0,1,-1,-2,0,-2,1
1470330566809311,2,-1,7,2,0,-1,0,-3
1470330566809791,-1,-2,-14,-8,-3,-4,-1,-1
1470330566809791,-3,-1,-1,0,0,1,-1,-2
1470330566839818,1,-3,8,0,1,1,0,0
1470330566839818,-5,5,1,-1,-3,0,-2,0
1470330566840318,0,0,3,2,0,-1,0,0
1470330566840318,1,-2,-4,-4,-2,2,0,-2
1470330566846333,-1,-2,-13,-6,-1,1,-1,-3
1470330566846333,-1,-2,1,2,-1,2,1,2
1470330566847325,-3,0,4,1,-1,-1,-2,1
1470330566847325,3,-2,1,1,-1,-1,-1,-1
1470330566868900,-3,0,-2,1,-2,-2,1,1
1470330566868900,0,0,-5,-4,-1,-3,-1,-2
1470330566869845,1,-3,-6,-1,-1,0,0,1
1470330566869845,-6,2,3,-2,-1,-2,-2,-1
1470330566892365,-2,0,1,2,-2,1,-1,1
1470330566892365,4,-4,-5,-2,1,-1,0,-1
1470330566892908,-1,-1,1,-1,-1,-1,-1,-1
1470330566892908,-1,-4,-3,-4,-2,-2,0,-2
1470330566906879,-3,0,0,0,0,-2,0,-3
1470330566906879,2,0,-1,2,-2,-3,0,0
1470330566907379,-1,-1,3,0,1,1,-1,-1
1470330566907379,-5,0,-12,-7,-2,0,-1,-1
1470330566928899,2,-1,0,3,-2,-2,-1,1
1470330566928899,-4,-1,-3,-2,-3,-1,0,-2
1470330566929904,0,0,4,1,-2,0,0,-2
1470330566929904,6,-1,0,1,0,0,0,1
1470330566952420,1,-3,4,-2,0,-4,-1,-1
1470330566952420,-2,-2,-5,0,1,-1,-1,-1
1470330566952920,-4,1,-1,-4,-3,-3,-1,-1
1470330566952920,-1,-2,1,1,0,0,2,-2
1470330566966490,0,-1,-2,-1,0,-2,-3,2
1470330566966490,-2,-3,-1,-3,-3,-4,-1,-1
1470330566967432,3,-6,-2,-1,-2,-1,-2,-1
1470330566967432,-7,4,-1,0,-2,-2,-3,0
1470330566989042,0,-2,-9,-2,-3,-1,-1,3
1470330566989042,2,-1,-1,-1,-1,0,0,-2
1470330566989953,-2,0,0,0,1,2,-2,0
1470330566989953,-1,-1,4,-1,0,-2,-1,-3
1470330567012029,-4,-1,-9,0,-2,0,-2,-2
1470330567012029,-1,-2,-3,-4,0,-2,-3,-3
1470330567012976,0,0,-1,-2,-1,-3,-1,-1
1470330567012976,-1,-1,2,2,-3,-3,-2,1
1470330567026074,6,-3,6,-2,2,-1,0,-1
1470330567026074,-6,0,-3,-4,-1,-1,1,1
1470330567034007,-2,-1,-3,-1,-2,-3,0,0
1470330567034007,2,-4,-4,-2,-1,-1,1,-3
1470330567049030,-3,2,4,0,-1,0,-2,-1
1470330567049030,-2,-3,-2,0,-1,-2,-2,1
1470330567049507,-1,-4,-3,-1,0,-2,-2,-1
1470330567049507,2,0,6,0,-3,-2,-1,-1
1470330567072028,-1,-2,-5,0,-1,-3,0,-4
1470330567072028,-2,-1,3,-4,-1,-1,1,-1
1470330567073028,2,0,6,0,-2,0,0,-1
1470330567073028,-6,-2,-5,-1,-2,-1,-2,0
1470330567086585,-3,0,1,0,-3,-1,-1,-4
1470330567086585,2,-2,6,1,-1,1,-1,-1
1470330567087086,-6,0,-8,0,-1,-2,-2,-1
1470330567087086,-2,0,-2,-6,-3,-1,-1,1
1470330567109061,-1,0,0,-3,-1,-2,-1,0
1470330567109061,1,-3,0,2,0,0,0,-1
1470330567109562,3,-1,1,-1,-1,0,0,-1
1470330567109562,-1,-1,-6,0,-2,1,-1,-1
1470330567132082,0,-5,-2,-2,-3,-3,-2,-3
1470330567132082,-4,0,-4,-5,-2,0,-4,1
1470330567133081,-1,0,-2,-5,1,0,-1,-4
1470330567133081,2,-3,-1,0,-1,-2,0,-1
1470330567154628,-4,0,3,0,-2,0,0,2
1470330567154628,1,0,-2,0,-2,-2,-2,-1
1470330567155133,-1,0,-1,0,-1,-1,0,-2
1470330567155133,1,-2,-2,-2,-1,0,-1,-1
1470330567169175,-1,-1,-2,-2,-2,-1,0,2
1470330567169175,-3,3,10,0,-3,1,1,-2
1470330567169633,2,-5,-6,-1,-2,-1,1,1
1470330567169633,-4,-3,-2,1,1,-2,-1,0
1470330567192179,3,-1,4,0,1,-1,1,-1
1470330567192179,2,-4,-8,0,1,-1,-2,0
1470330567193157,-4,1,-4,-5,-2,-1,-2,-1
1470330567193157,-1,2,7,0,-1,-2,-1,-2
1470330567205739,-2,0,2,-2,-1,0,-1,-1
1470330567205739,0,-5,-4,-3,-1,0,0,0
1470330567214157,1,-3,-2,0,-1,1,-2,-3
1470330567214157,-2,1,4,1,1,-1,-1,-1
1470330567229168,0,-3,-7,-2,-2,-1,-1,-2
1470330567229168,-3,0,-1,-1,-1,0,1,0
1470330567229671,-1,0,-1,-1,-2,-2,0,-2
1470330567229671,2,-3,-5,-1,-1,-1,-3,-1
1470330567252196,-2,2,3,1,-1,1,0,0
1470330567252196,0,-1,-2,1,-1,-2,-1,-1
1470330567253189,-3,-1,2,0,-1,-1,-1,-1
1470330567253189,-2,-2,-1,0,-2,-1,0,1
1470330567274712,-1,-2,-3,-3,-2,-2,-3,-2
1470330567274712,-3,0,-2,2,1,0,0,1
1470330567275211,4,-3,-5,-4,-2,0,-3,1
1470330567275211,-3,1,-3,0,-2,0,0,-2
1470330567289222,-1,-2,1,-1,-2,-3,-1,-2
1470330567289222,2,-2,5,-1,-2,-3,-2,-1
1470330567289722,-3,-2,-5,-3,-1,-2,1,-2
1470330567289722,0,-5,-6,-2,-1,1,0,1
1470330567312243,-1,1,-3,-2,-1,-1,-1,0
1470330567312243,-2,1,1,-3,-1,-1,0,-1
1470330567312749,-1,-2,-1,2,1,1,1,-2
1470330567312749,-2,0,-2,-1,-2,-1,-1,-2
1470330567326270,1,0,-2,-3,-2,2,-1,-1
1470330567326270,-2,0,-5,0,-1,-2,-1,-2
1470330567334261,1,-1,1,-1,1,-2,0,0
1470330567334261,2,-3,3,-1,0,-2,-3,-1
1470330567348822,-2,0,3,-1,-1,1,-1,0
1470330567348822,-1,0,1,-2,-4,-1,-1,1
1470330567349775,-1,0,-9,-2,-2,-3,-2,-2
1470330567349775,-1,-3,1,-1,1,-3,0,-1
1470330567372304,0,-1,-2,1,1,-4,-3,1
1470330567372304,-1,-2,-3,-2,0,0,-1,-1
1470330567372798,-1,-1,3,1,0,0,-2,-1
1470330567372798,-3,0,-7,-3,-2,-3,0,-1
1470330567385906,-4,-1,-1,-2,-3,0,-2,0
1470330567385906,2,-3,0,0,-1,-2,0,-2
1470330567394363,-4,0,2,1,-2,-3,-1,-2
1470330567394363,2,-2,-1,-1,0,-2,-2,-3
1470330567409329,-1,-1,-6,0,0,-2,-2,-3
1470330567409329,2,-2,-3,-1,-2,2,-2,-1
1470330567409830,0,0,0,-1,-3,-2,-1,2
1470330567409830,-6,0,2,-2,-1,-1,-1,-1
1470330567432350,2,-1,3,-1,0,-1,2,1
1470330567432350,-3,0,-2,-1,0,-1,-1,-4
1470330567432885,-2,1,1,-2,-1,-2,-3,-3
1470330567432885,4,-2,2,0,-1,-2,0,-2
1470330567445908,-4,-2,-9,-5,0,-3,-1,0
1470330567445908,-4,1,0,1,0,-1,0,-5
1470330567453913,1,0,4,0,-3,-2,-1,-1
1470330567453913,-1,-2,-3,-4,-1,2,0,-1
1470330567468910,2,0,4,2,0,0,-1,-4
1470330567468910,-1,0,0,-2,-2,-3,-1,1
1470330567469883,0,-5,0,-1,-2,0,-3,-1
1470330567469883,-2,2,4,3,0,3,-3,-1
1470330567492403,-2,0,-6,-3,-1,-2,1,1
1470330567492403,2,-4,-3,-2,-2,2,-2,-2
1470330567492908,-7,0,3,0,0,-1,0,1
1470330567492908,-2,-1,0,1,-1,1,1,1
1470330567505942,0,2,1,2,-3,-3,-2,0
1470330567505942,-2,0,1,-1,1,0,-2,-1
1470330567513953,0,3,-5,1,-1,-3,0,-1
1470330567513953,-3,0,-6,-2,-2,-2,-2,-1
1470330567528962,3,-5,-3,-1,-1,2,-1,-2
1470330567528962,0,-1,-4,-1,-1,1,1,-1
1470330567529937,-4,-2,0,-1,0,-1,-2,2
1470330567529937,3,-4,-2,-2,-1,1,1,-1
1470330567552457,-4,2,-1,0,-2,0,-2,0
1470330567552457,-1,-4,-2,-2,0,-1,0,3
1470330567552959,0,-4,2,1,0,-2,-2,-2
1470330567552959,-2,-2,-1,-2,1,-3,0,-2
1470330567574988,-3,-3,0,-1,-1,-1,0,-3
1470330567574988,-6,2,4,3,-2,-4,0,-1
1470330567575480,3,-2,-2,-1,-3,1,-1,-3
1470330567575480,-1,-2,-4,-4,-3,-1,-1,-2
1470330567589024,-2,0,1,-2,1,-2,-1,0
1470330567589024,1,-4,0,-1,-1,-1,-1,-1
1470330567589991,-3,1,-1,0,-2,0,-1,0
1470330567589991,-1,-2,-2,-3,1,0,0,-4
1470330567612529,2,-4,-12,-5,0,-1,-3,-1
1470330567612529,-3,0,-1,0,0,-2,-1,1
1470330567613033,-2,0,0,-1,-2,-2,-1,0
1470330567613033,-1,2,1,2,-3,0,-1,1
1470330567634558,2,-4,-5,-1,-1,0,-1,-5
1470330567634558,-4,-1,2,-3,-2,-2,-2,-1
1470330567635559,-2,-1,-5,-1,1,-3,0,-2
1470330567635559,3,-3,7,-2,-2,-2,-1,-3
1470330567649047,-5,-1,-7,-3,0,-2,1,-2
1470330567649047,3,-1,-3,-2,-2,1,-4,-3
1470330567649547,2,-4,0,-1,0,1,1,-1
1470330567649547,-4,-1,0,2,0,-2,0,-2
1470330567672065,2,0,5,0,0,-1,0,1
1470330567672065,-1,-1,-3,-3,-1,-1,0,-4
1470330567673114,-1,-1,-1,-2,0,-1,0,-1
1470330567673114,-1,2,-3,0,-1,-1,-2,0
1470330567694641,-2,-1,-1,-2,-2,0,-1,-1
1470330567694641,5,-3,-2,0,-1,-1,1,0
1470330567695635,-4,3,-4,-2,-1,0,-2,-2
1470330567695635,-1,0,2,-4,-2,-2,-2,0
1470330567709099,3,-2,4,2,-3,0,-1,2
1470330567709099,-2,-2,-3,-1,-1,-2,0,-1
1470330567709599,1,-2,-5,2,-1,-1,-1,0
1470330567709599,-1,-1,1,-1,-2,-2,-1,-2
1470330567732119,-1,-1,2,-1,-2,0,0,-1
1470330567732119,0,0,-3,-4,-1,0,-2,-2
1470330567733120,-2,-2,3,0,0,0,-1,-1
1470330567733120,4,-2,-6,0,1,1,0,-1
1470330567754639,-4,2,4,0,-1,-2,1,-2
1470330567754639,0,0,6,2,0,0,0,0
1470330567755639,1,-3,-15,-8,-4,-2,-2,-1
1470330567755639,-5,1,13,1,-2,-2,-1,-2
1470330567769183,-1,-2,-5,1,1,0,-1,-1
1470330567769183,-4,-2,3,-2,-2,0,-4,0
1470330567769656,1,-1,10,3,-1,0,-1,-1
1470330567769656,0,-1,-13,-2,1,-2,2,-1
1470330567792204,-3,1,-1,-2,1,0,-1,2
1470330567792204,0,-4,-2,0,-1,-2,-1,-2
1470330567793173,-4,-2,-5,-3,-2,-2,-1,0
1470330567793173,-2,0,3,0,-1,-2,-1,2
1470330567814735,2,-3,-5,-1,-2,-1,-2,-1
1470330567814735,-5,2,-6,-2,-1,-1,-1,0
1470330567815694,0,-1,2,-1,1,-1,-1,0
1470330567815694,2,1,1,2,1,0,-2,-1
1470330567828281,-3,-3,4,-2,-1,0,-1,-1
1470330567828281,0,-1,-7,-3,0,-3,0,-2
1470330567837213,-5,0,1,0,0,-2,-3,-2
1470330567837213,2,-3,-4,0,-2,-2,-2,-1
1470330567852283,0,2,1,2,-3,-1,0,0
1470330567852283,-1,-1,-9,-2,-3,-3,-1,-2
1470330567853728,2,-3,5,-1,0,2,1,-1
1470330567853728,-5,-3,-6,-4,-1,-2,-2,-2
1470330567873751,1,-3,-3,-1,-1,1,-1,-4
1470330567873751,-2,2,2,1,-1,-1,1,1
1470330567882254,0,2,0,0,-2,0,1,-3
1470330567882254,-1,0,-3,-4,-2,-2,-3,-2
1470330567888304,-4,0,-1,-4,0,-4,-3,-1
1470330567888304,4,-3,2,1,-1,1,-3,2
1470330567897289,-3,0,-4,-1,-1,-2,-1,0
1470330567897289,0,2,7,3,-2,1,-1,-1
1470330567912285,1,-3,-6,-2,-1,0,-1,0
1470330567912285,-3,0,1,-1,0,-1,-1,-1
1470330567913830,0,1,6,-2,0,-1,-1,1
1470330567913830,-3,-1,-1,-3,-1,-1,-1,0
1470330567934801,-1,0,-1,-1,-1,-3,-2,-1
1470330567934801,1,-1,-2,1,1,1,0,-2
1470330567936326,-1,-1,3,1,0,1,-2,1
1470330567936326,2,-6,-8,-3,-3,0,2,-2
1470330567948314,-4,1,2,0,1,-1,-2,0
1470330567948314,-3,-1,2,0,-1,-2,-2,0
1470330567957321,3,-5,-11,-7,-1,-3,-2,-4
1470330567957321,-4,3,-1,-3,0,2,-1,3
1470330567972334,-1,-4,0,0,-1,-1,-1,-2
1470330567972334,0,0,3,1,-2,-1,-1,0
1470330567973837,-1,-1,5,0,0,1,0,0
1470330567973837,-2,-2,-4,-2,0,-1,-2,-2
1470330567994950,-3,2,0,2,-2,1,0,-2
1470330567994950,2,-3,-4,-2,-1,0,-1,1
1470330567996377,-1,0,3,0,-3,-3,-3,1
1470330567996377,-3,-1,0,1,-1,-2,-1,-1
1470330568008427,2,-3,-5,-3,1,0,-3,-1
1470330568008427,-6,1,4,1,0,-3,0,-3
1470330568017386,0,-1,-5,-1,-2,-1,-1,-3
1470330568017386,2,-2,0,0,-1,-2,-1,-2
1470330568032449,1,-3,-1,-1,-2,-3,-1,-2
1470330568032449,-1,-4,-3,-4,1,-3,-3,0
1470330568033918,-5,0,0,-1,-3,0,3,0
1470330568033918,3,-4,-5,1,-2,-2,0,-1
1470330568054409,-2,2,1,-1,-4,-3,-2,-1
1470330568054409,-2,0,-2,-2,-3,0,0,1
1470330568056410,1,-4,-10,-1,-2,0,0,-1
1470330568056410,-3,2,0,-1,2,-1,-1,0
1470330568068448,-2,-2,1,1,-3,-1,0,0
1470330568068448,2,-3,1,0,-3,-1,-1,-4
1470330568077434,1,-3,-7,-2,-1,-2,-1,-2
1470330568077434,-2,1,2,-1,0,0,-2,-3
1470330568092449,-1,0,0,-4,-1,1,0,2
1470330568092449,3,-2,-2,-2,-1,1,0,1
1470330568093944,-3,-3,1,0,0,1,0,-1
1470330568093944,-1,0,-2,-1,-1,-1,-1,0
1470330568114496,2,-2,-1,-3,1,-3,-1,-3
1470330568114496,-5,1,2,-2,-3,-2,-1,0
1470330568116478,-2,0,-1,-1,-1,-2,0,0
1470330568116478,3,-1,-1,1,-4,-1,-1,0
1470330568128541,-4,-1,-2,0,0,2,-1,-2
1470330568128541,-1,-1,-1,-2,-1,-3,0,-2
1470330568137485,-2,3,1,1,-2,1,-3,-5
1470330568137485,-1,-6,0,0,0,-2,-2,-1
1470330568151997,-1,0,-2,-2,-2,0,0,2
1470330568151997,-3,-1,-8,-3,0,-1,-1,-2
1470330568153997,0,-1,2,-2,0,0,-1,2
1470330568153997,-4,0,-3,-1,-2,-2,0,0
1470330568174516,-1,-2,0,0,-2,-3,0,0
1470330568174516,5,0,1,3,0,1,-1,-4
1470330568176518,-4,-1,-4,-4,-1,-4,-2,1
1470330568176518,-1,1,-4,-5,0,0,-2,0
1470330568188528,-4,0,2,0,-1,-3,-2,-1
1470330568188528,1,0,-4,1,-1,1,1,-1
1470330568197536,-2,0,1,0,-1,-1,-1,-2
1470330568197536,-2,-2,-2,-1,-2,-1,-3,-2
1470330568212053,0,-2,0,-1,-1,1,-2,-3
1470330568212053,-9,2,5,1,-2,-2,-2,1
1470330568213551,0,-2,-9,-3,1,0,0,-2
1470330568213551,1,1,4,0,-1,-2,-2,0
1470330568234577,-5,0,-2,0,-1,-1,-2,1
1470330568234577,1,-2,-4,-1,0,0,-2,-2
1470330568236073,-5,0,4,0,0,-1,-2,1
1470330568236073,3,-5,-1,0,0,-1,-1,-1
1470330568248594,1,1,0,-2,-1,-1,0,-1
1470330568248594,-2,-2,-1,-2,-1,-3,1,-1
1470330568257092,2,-3,1,-2,-1,-1,0,-2
1470330568257092,-4,2,1,0,-1,-1,0,-4
1470330568272104,-2,-1,1,0,-1,-3,-1,-1
1470330568272104,2,-1,-1,-1,0,-1,0,-1
1470330568273605,0,0,4,0,-1,-2,-1,-1
1470330568273605,-3,-1,-1,0,-2,0,-3,0
1470330568302174,-5,1,-11,-6,-2,-2,-2,-2
1470330568302174,4,-1,0,0,-1,-1,-3,0
1470330568303684,-1,-3,-3,0,-1,0,-1,0
1470330568303684,1,-1,2,-2,0,0,1,2
1470330568317173,3,-3,0,0,0,1,-2,-3
1470330568317173,-5,0,-5,-3,0,-2,-1,1
1470330568318666,-3,-4,-7,0,-2,-2,1,-1
1470330568318666,0,-2,-3,-1,-1,-2,1,-1
1470330568332158,-2,0,-2,-2,0,-1,-2,0
1470330568332158,-2,0,0,-2,-2,0,-2,0
1470330568333660,0,0,1,1,0,0,-2,-1
1470330568333660,0,-2,-5,-2,-1,-1,0,-1
1470330568354711,-2,0,0,-2,-2,0,-2,-4
1470330568354711,-2,1,1,-2,-1,0,-1,-1
1470330568356179,3,-1,3,0,-1,-1,-1,-2
1470330568356179,-3,-1,-8,-3,-1,-1,0,1
1470330568368203,-2,-2,6,0,-3,0,0,0
1470330568368203,-1,-3,-3,-1,1,-1,-1,-2
1470330568377198,-4,-1,0,-1,0,-2,-2,-2
1470330568377198,-1,-1,-8,-4,-1,0,-1,-2
1470330568392212,-3,1,-3,2,-1,-1,0,-1
1470330568392212,3,-4,2,-1,-1,-2,-1,0
1470330568393713,1,0,3,-1,-1,-1,-2,-2
1470330568393713,-6,0,1,1,-1,-1,-2,1
1470330568414818,1,-6,-1,-1,-1,-1,0,-4
1470330568414818,-4,1,0,-4,-4,-3,-2,-1
1470330568416238,1,0,-3,-2,-4,-2,-1,-1
1470330568416238,4,-2,3,8,10,4,0,-1
1470330568428262,0,0,-1,-2,-5,0,-2,-3
1470330568428262,0,-1,-1,-4,0,0,-2,-1
1470330568437252,-6,1,-3,-5,-5,-1,-2,3
1470330568437252,2,-3,0,10,8,1,1,-3
1470330568451770,1,0,-1,1,2,-4,1,0
1470330568451770,-4,1,0,-5,-4,-1,-1,-2
1470330568458321,5,-2,6,1,-2,0,0,-2
1470330568458321,-4,-1,-6,-1,-4,-3,-2,1
1470330568474838,-2,-2,-2,-3,2,-2,-1,3
1470330568474838,2,-2,1,1,-2,0,0,2
1470330568476289,-5,-2,-3,-1,-1,-1,1,1
1470330568476289,-2,-3,1,-5,-5,1,0,0
1470330568504813,-3,-1,0,-1,-1,-2,0,1
1470330568504813,1,0,-5,-3,-4,-1,-2,-2
1470330568506315,-2,-1,2,2,2,0,-1,-2
1470330568506315,-5,5,4,-4,-2,-2,-2,-2
1470330568511323,5,-3,-4,-2,-3,-2,-3,-3
1470330568511323,-2,0,-1,0,1,0,1,-2
1470330568518358,-5,-3,-1,-2,1,-1,-1,0
1470330568518358,1,-2,-1,-5,-4,-1,-2,-1
1470330568534840,-5,-2,1,0,-1,0,-1,0
1470330568534840,0,-3,-6,-3,-1,-3,-2,-3
1470330568536342,-1,2,-2,0,-3,-3,-2,-2
1470330568536342,1,-4,-4,-4,-3,-2,0,-2
1470330568557360,-2,1,3,-1,-1,-2,-3,1
1470330568557360,-7,2,-3,0,0,-4,-2,0
1470330568558862,6,-5,-7,-3,-1,2,0,-2
1470330568558862,-5,0,3,5,0,-3,-1,1
1470330568579897,-1,0,4,-3,-2,1,0,0
1470330568579897,3,-2,-1,4,-2,1,-2,-1
1470330568581382,-4,3,-10,-3,2,0,-1,-1
1470330568581382,2,-1,5,-5,0,0,-1,1
1470330568594896,-7,2,-2,6,-1,-3,-1,0
1470330568594896,3,-7,5,3,-2,-1,1,-1
1470330568596396,-2,-1,-8,-3,-4,-2,-2,-1
1470330568596396,-7,3,1,-1,-5,-2,-1,-3
1470330568617414,3,-5,-4,3,3,1,0,-5
1470330568617414,-5,2,-1,-3,-1,-1,-1,1
1470330568618917,-2,2,6,3,-2,-2,-2,-3
1470330568618917,6,-3,-6,-7,-3,-1,-1,-1
1470330568631429,-4,2,-3,0,-1,0,-2,-1
1470330568631429,-3,-1,7,3,-1,1,1,-1
1470330568638434,-2,-3,-12,-3,-1,-1,-1,-2
1470330568638434,2,-3,3,-2,-2,-3,-1,-3
1470330568654447,-1,-4,0,-6,-1,-2,0,-3
1470330568654447,-5,2,-2,-3,-1,1,1,-3
1470330568656470,7,-5,5,3,0,-1,0,1
1470330568656470,-4,-1,0,-2,-3,-9,-2,-3
1470330568676967,0,2,-7,-3,-3,7,-1,-3
1470330568676967,4,-3,-7,1,-2,-3,0,0
1470330568678969,-3,-1,3,-4,0,-2,-2,-2
1470330568678969,-1,0,-6,0,-2,-1,-1,1
1470330568691500,0,-1,2,-1,-2,-6,0,0
1470330568691500,4,-7,0,1,-1,0,-1,-1
1470330568698624,1,-1,2,-5,-1,0,0,1
1470330568698624,-5,1,-7,-2,-2,0,-1,0
1470330568715021,4,-6,2,2,-1,-2,1,-1
1470330568715021,0,-2,-4,-9,-2,-2,-1,-2
1470330568716002,-4,-1,7,3,2,-2,0,-2
1470330568716002,4,-2,-1,-5,-1,-1,-2,-3
1470330568737076,-3,0,2,1,3,0,0,-3
1470330568737076,-3,-1,-4,3,1,-3,-2,-1
1470330568739023,0,-1,-4,-6,-4,0,-1,-4
1470330568739023,3,-6,4,8,-2,1,-1,-3
1470330568751037,-2,-3,-9,-16,-1,1,-3,0
1470330568751037,-7,5,-1,2,0,-5,-1,1
1470330568759541,4,-5,-2,5,3,2,-1,-2
1470330568759541,-3,-1,4,-8,-4,-1,-1,-1
1470330568782105,-1,3,-2,0,-3,-4,-2,-2
1470330568782105,3,-4,-5,-3,-2,-2,-1,-3
1470330568784101,-7,2,7,-2,0,-1,-1,0
1470330568784101,-2,-5,-13,1,-1,-3,-1,-1
1470330568797113,2,-1,5,1,0,1,-1,-2
1470330568797113,2,0,2,-5,0,0,-1,1
1470330568799111,2,-1,-1,3,1,-2,0,-2
1470330568799111,-9,4,3,-3,1,0,-2,0
1470330568811087,6,-5,-4,1,-1,-1,-2,-4
1470330568811087,-3,-1,-3,1,-1,1,-1,-2
1470330568819611,-4,0,1,-2,-3,-2,0,1
1470330568819611,5,-3,0,0,0,-2,1,-1
1470330568834611,-5,0,-6,-2,-2,-1,-1,1
1470330568834611,1,0,3,-1,0,-2,-1,0
1470330568836110,3,-2,-3,-2,-3,-2,0,-2
1470330568836110,0,-2,-10,-3,-1,1,-1,-3
1470330568857158,-2,-1,7,0,0,-3,0,0
1470330568857158,-4,-1,-4,0,-1,1,-1,-2
1470330568859273,7,-7,1,-2,-5,-2,-1,-4
1470330568859273,-1,2,-3,-5,0,1,0,1
1470330568871266,-2,-1,-5,-2,-2,-2,-2,1
1470330568871266,4,-1,2,-1,-2,-1,-2,-4
1470330568879649,-6,-2,-8,3,-3,-1,-2,0
1470330568879649,1,-2,1,0,-4,-3,-2,0
1470330568894665,2,-1,1,-3,-1,-2,-3,0
1470330568894665,-2,-1,-2,-1,1,-1,1,1
1470330568896166,-2,4,-1,-2,-1,-3,-2,1
1470330568896166,-8,1,-2,-1,-3,-3,-2,-2
1470330568917261,4,-6,-3,-7,-2,2,0,-3
1470330568917261,-1,-4,-7,-1,-3,-1,-1,-1
1470330568918686,-2,2,5,13,3,-2,-1,-3
1470330568918686,6,-5,-3,-7,0,0,1,-1
1470330568931196,-6,0,4,8,1,-1,0,-3
1470330568931196,1,0,-5,-14,-3,-3,-1,-2
1470330568939703,-3,-2,-3,-7,-3,-1,-1,-1
1470330568939703,-2,0,4,3,-1,1,-3,-1
1470330568954731,-3,-1,0,6,2,-3,1,-1
1470330568954731,-5,1,-2,-12,-5,-3,-2,0
1470330568956233,8,-6,-10,-3,-2,0,-2,1
1470330568956233,1,-1,3,-3,1,1,0,-2
1470330568977237,-7,0,-2,0,-3,-1,-5,-2
1470330568977237,5,-7,4,9,0,0,1,-2
1470330568978740,-7,3,3,-6,0,-3,-1,0
1470330568978740,-2,-3,-3,0,0,0,1,-1
1470330568991266,2,-1,-4,-1,-4,-1,-2,0
1470330568991266,-4,1,6,10,1,0,0,0
1470330568999791,-3,-3,-7,-8,-2,1,-1,-2
1470330568999791,-4,2,-1,0,-2,-2,-2,-1
1470330569015271,3,-4,2,3,3,-1,-1,0
1470330569015271,-1,0,2,-1,-2,-3,0,0
1470330569016775,-8,1,2,-3,-2,1,-1,0
1470330569016775,7,-4,-1,4,-2,0,-1,-2
1470330569037291,-5,0,-6,-11,-3,-1,-1,2
1470330569037291,0,-3,-1,5,-1,-2,-2,-1
1470330569038793,4,-4,2,1,1,1,-1,-3
1470330569038793,-3,0,1,-3,-2,0,0,-1
1470330569050864,-1,0,3,-4,-4,-6,-1,-1
1470330569050864,-4,0,-7,-4,-2,2,-2,-1
1470330569059812,4,-4,-3,-7,-4,-3,-2,-1
1470330569059812,-4,-3,5,0,-2,0,-2,-1
1470330569074825,-5,2,-3,-4,-2,1,1,-2
1470330569074825,8,-4,0,5,-3,1,-3,-2
1470330569076337,-3,3,3,-3,2,2,1,-1
1470330569076337,-5,-1,-3,4,-4,-2,-3,0
1470330569097434,-2,-3,1,0,4,-1,0,-4
1470330569097434,-1,-3,-2,-1,0,-1,0,-2
1470330569098861,3,0,-9,0,-2,-2,-1,-3
1470330569098861,-5,4,2,5,-1,-4,-1,2
1470330569110885,5,-3,-3,2,0,0,0,-3
1470330569110885,3,4,-1,-3,-1,-2,0,-2
1470330569119873,-7,1,-3,-3,-3,2,-1,2
1470330569119873,6,-8,0,3,-1,-1,-1,-3
1470330569134926,-3,-2,-2,-3,-4,0,-1,6
1470330569134926,7,0,-11,-7,2,0,-2,1
1470330569136381,-7,-4,0,3,-1,-1,0,-2
1470330569136381,-5,-8,-5,-5,0,1,-1,2
1470330569157399,-7,-2,1,3,3,1,-1,-3
1470330569157399,-3,2,0,1,-2,-1,-3,0
1470330569158916,9,-2,0,5,1,-2,1,-4
1470330569158916,-2,0,-8,2,0,-2,1,-1
1470330569170940,-1,6,3,-10,-3,-2,3,1
1470330569170940,-6,-7,4,8,2,1,-3,-3
1470330569179919,-2,-1,-4,-2,0,-3,2,1
1470330569179919,-4,-1,-6,-7,-1,-3,-3,-3
1470330569194932,8,-4,-1,-5,-2,-1,-1,-5
1470330569194932,1,2,-3,-4,-2,-2,-1,-1
1470330569196467,-2,-2,7,-2,-1,-2,-2,-1
1470330569196467,-17,-1,-5,0,0,-2,-3,-4
1470330569217008,7,-3,-5,-2,-2,0,1,4
1470330569217008,-9,0,2,-2,-2,2,-1,0
1470330569218971,8,3,-7,1,0,-3,-2,-4
1470330569218971,7,0,10,-1,0,0,1,-1
1470330569231469,4,0,-1,3,-3,-2,-1,0
1470330569231469,-10,-1,6,2,1,-2,-3,-1
1470330569239974,7,-5,-3,0,0,0,-1,-1
1470330569239974,0,4,-1,-5,-1,-2,8,-2
1470330569254486,-11,-7,0,2,-3,1,-4,-4
1470330569254486,-3,-2,-3,3,-1,0,0,-2
1470330569256487,2,-4,3,-9,-1,1,-2,-3
1470330569256487,11,8,3,0,-1,-2,-4,-2
1470330569277506,-11,7,-2,-4,0,-1,1,2
1470330569277506,11,-8,1,-2,-3,-4,1,-2
1470330569279008,-16,-3,-4,2,-3,-1,-1,-1
1470330569279008,0,-4,1,-2,1,1,0,4
1470330569291019,16,1,-1,4,-3,-4,-3,3
1470330569291019,-18,-4,-2,9,5,2,-2,-2
1470330569300026,4,-2,-2,-5,0,0,2,0
1470330569300026,-3,3,3,0,-2,2,-2,1
1470330569314572,1,-9,0,-1,0,1,-2,-7
1470330569314572,2,5,-3,-9,-1,0,-3,0
1470330569316041,-10,7,-1,1,-4,-5,-7,11
1470330569316041,-10,-12,1,1,-2,-3,11,5
1470330569337561,-3,0,-3,0,-1,-2,-4,14
1470330569337561,-7,1,3,-1,-2,0,-1,21
1470330569339061,10,2,-11,-4,-2,-2,-2,37
1470330569339061,0,0,4,1,-1,0,0,24
1470330569351072,-3,0,4,-1,-1,-2,-5,8
1470330569351072,7,-4,-8,-9,-3,-2,7,-5
1470330569360080,-2,-9,9,5,2,4,-3,-37
1470330569360080,-6,-2,-8,-8,-2,-4,-7,-13
1470330569374095,-4,6,-5,1,-1,-3,-7,6
1470330569374095,0,-2,-1,-5,-3,-2,1,-26
1470330569381099,-6,-2,1,-1,-1,-3,-3,-17
1470330569381099,0,0,1,2,-2,-3,5,-11
1470330569397156,5,-4,1,-2,-2,0,0,-28
1470330569397156,0,5,-1,6,1,-3,-1,-19
1470330569398617,-8,-3,-3,-9,-4,-1,-2,-14
1470330569398617,10,-2,-8,3,0,1,-5,-7
1470330569411127,-11,-2,5,-9,0,-3,1,-30
1470330569411127,-2,-3,-10,5,-1,0,-6,-3
1470330569419634,-10,3,5,5,-1,0,2,16
1470330569419634,14,-3,1,-7,3,-1,-7,-24
1470330569434152,-11,-2,-4,-6,-1,-1,0,5
1470330569434152,-5,-5,2,-4,-4,-3,0,8
1470330569448764,12,-2,-1,5,0,0,0,-6
1470330569448764,-8,6,1,2,-4,-3,2,2
1470330569457171,-15,-1,-2,0,0,1,4,9
1470330569457171,7,-2,0,-5,-1,-4,-1,16
1470330569458674,-6,-2,0,2,1,-1,1,-8
1470330569458674,4,1,-2,-2,-1,-2,-5,11
1470330569479744,3,5,-2,1,1,0,3,15
1470330569479744,7,-4,2,-3,1,3,-2,-27
1470330569481232,-1,0,-2,-3,-1,-1,-2,-13
1470330569481232,-5,-3,1,-1,-1,-1,-2,-3
1470330569494201,5,-10,0,5,-1,1,-1,-9
1470330569494201,-12,2,-7,-7,-2,-3,-1,7
1470330569500723,5,2,1,1,1,-1,2,11
1470330569500723,4,-4,-2,3,2,1,-5,9
1470330569517221,-6,1,-2,-2,0,-3,-2,2
1470330569517221,8,-2,3,2,1,4,-2,10
1470330569518723,-1,-1,-3,1,-4,-3,1,9
1470330569518723,0,-5,-2,-1,-1,3,0,-3
1470330569539784,-2,4,0,7,1,-2,10,-1
1470330569539784,-3,4,2,-1,-4,-3,-8,2
1470330569541770,5,-5,-4,-4,-2,-1,-1,-2
1470330569541770,-8,-3,-2,-1,-1,-3,1,3
1470330569554759,9,-2,-1,0,-3,0,-6,2
1470330569554759,-9,-4,1,-3,-1,-1,14,-2
1470330569556256,0,0,0,-1,-2,-2,-8,6
1470330569556256,-2,2,-2,-3,6,3,8,-6
1470330569577290,5,0,-2,-2,-5,-1,-6,-8
1470330569577290,3,-2,0,1,0,0,-1,3
1470330569578795,-4,-4,-1,0,-2,-2,-3,0
1470330569578795,0,3,-1,-4,-2,-3,-3,-2
1470330569599796,7,-6,-3,-2,-1,-1,1,-3
1470330569599796,0,4,0,-1,-1,-3,-6,2
1470330569601298,-12,-2,-1,-1,-1,1,4,-6
1470330569601298,3,-5,-2,-2,-2,0,-8,-6
1470330569614322,-4,2,-3,0,-2,-3,-10,8
1470330569614322,6,0,0,-2,1,2,5,1
1470330569620870,-7,-5,0,-3,-2,-2,-1,-6
1470330569620870,2,0,-1,1,-2,-3,1,5
1470330569637359,-4,1,0,0,-3,-2,-8,-6
1470330569637359,-7,-1,-2,-5,1,0,-1,2
1470330569638831,13,-2,-3,-1,1,2,-2,1
1470330569638831,-4,0,0,-1,-2,0,3,3
1470330569659953,-6,2,-5,-7,-1,-2,2,1
1470330569659953,12,-6,-1,3,-1,-2,0,-4
1470330569661397,-13,2,0,-3,0,-1,3,9
1470330569661397,0,-1,-4,-4,-3,-4,-3,0
1470330569673864,8,-1,-1,7,3,1,2,-8
1470330569673864,-7,-1,-2,-4,-3,-2,-1,1
1470330569680881,12,4,0,0,-3,-1,-4,1
1470330569680881,-14,2,-1,-5,-2,-1,-2,4
1470330569697503,6,-8,-1,-6,-1,1,6,-1
1470330569697503,-6,-3,-4,1,-1,-2,-6,-1
1470330569698979,4,2,1,0,1,-5,-12,-5
1470330569698979,2,-6,-3,0,-3,5,28,-8
1470330569719903,-10,0,0,0,1,0,-3,5
1470330569719903,-3,-3,-2,2,-1,-3,-18,-6
1470330569721405,-2,-1,-4,-1,-2,1,17,-5
1470330569721405,8,4,1,0,-1,-2,-8,5
1470330569733416,-10,-5,-1,-1,-1,-1,7,-2
1470330569733416,-2,2,2,-1,-1,-3,-2,-6
1470330569742424,5,-7,-1,-2,0,-4,-5,-1
1470330569742424,-4,3,-2,-1,-2,-4,-7,-2
1470330569757438,1,-1,-2,-1,-2,0,3,-1
1470330569757438,2,-1,0,-2,-1,2,-4,-4
1470330569758938,-9,1,0,-1,-1,-2,1,7
1470330569758938,3,-1,-2,0,-2,-2,-6,-6
1470330569779459,-2,-2,-1,-2,0,0,-4,-4
1470330569779459,1,-2,0,-1,-2,1,6,5
1470330569781459,-5,0,-3,-1,-1,2,3,2
1470330569781459,-5,-1,1,-2,-4,-2,-4,-2
1470330569794004,10,-5,-1,-4,1,-1,-4,-1
1470330569794004,-4,4,-3,0,-1,1,0,2
1470330569801040,-2,-1,0,-2,-1,-1,1,-3
1470330569801040,5,-5,-1,-1,1,-1,-7,-3
1470330569817542,-6,3,-3,-1,-2,-3,0,8
1470330569817542,-3,-1,0,-1,-1,-5,0,0
1470330569818999,5,-1,-3,-1,-1,0,-7,-7
1470330569818999,-8,-3,-1,0,-2,0,0,4
1470330569839516,-4,3,-3,-2,-3,-5,-7,-5
1470330569839516,0,0,-2,-2,0,5,-1,-4
1470330569841555,5,-5,2,-1,0,1,-2,-1
1470330569841555,-8,-3,-1,-1,-3,-2,-4,-3
1470330569854077,-1,0,-2,-2,-1,-1,1,-2
1470330569854077,7,0,-3,-2,-1,-2,0,-7
1470330569861048,-7,1,-1,0,0,0,0,5
1470330569861048,3,-1,1,3,0,-1,-1,-6
1470330569877080,4,-4,2,-3,-3,-2,-2,-5
1470330569877080,-2,-4,-1,-1,0,-1,2,5
1470330569879047,4,0,-3,-1,-2,0,-2,-3
1470330569879047,-7,1,-2,-2,0,-2,-2,1
1470330569899569,12,-3,-1,-4,-1,0,1,1
1470330569899569,-4,2,-1,0,-3,-1,-2,-1
1470330569901568,-14,-2,-1,0,-2,0,1,0
1470330569901568,13,-3,2,-3,0,-1,-3,-2
1470330569914103,-6,8,1,0,0,-2,-1,1
1470330569914103,-6,-2,-1,-2,-1,-3,-2,2
1470330569921084,3,-9,-5,-3,-1,-3,-1,-9
1470330569921084,7,2,-2,-1,-1,0,-2,7
1470330569937099,-7,0,-2,-2,-2,1,0,0
1470330569937099,-3,-2,0,1,-3,-1,-1,-2
1470330569939101,-3,-5,0,-2,-2,0,2,1
1470330569939101,3,2,-2,0,-2,-2,-2,3
1470330569960120,-7,-2,-1,-1,0,0,-1,0
1470330569960120,7,-9,-1,-1,0,-1,-2,0
1470330569961621,-11,6,-3,-2,-2,-2,-2,4
1470330569961621,4,0,-2,-1,-2,0,-2,-4
1470330569973635,14,1,-2,0,0,0,1,-7
1470330569973635,-5,-2,1,-2,-1,0,0,4
1470330569982144,6,-1,2,-1,-1,1,-2,-4
1470330569982144,-10,1,-2,0,-1,-3,-2,-8
1470330569997178,-2,-6,-2,-1,-2,-1,-2,-2
1470330569997178,0,1,-2,-3,-1,0,-1,-2
1470330569998655,1,5,0,0,0,-2,-1,-2
1470330569998655,1,-6,-2,-4,-1,0,0,-5
1470330570019721,-9,2,0,0,1,-1,-3,1
1470330570019721,2,-1,-3,-4,-3,0,0,-2
1470330570021676,11,-3,-1,-1,0,-1,0,-1
1470330570021676,-14,0,-1,1,-1,-2,-2,7
1470330570033186,0,0,-1,1,0,-1,-1,-1
1470330570033186,0,3,0,-1,-2,0,-1,-2
1470330570042195,4,-4,0,-1,-1,-1,-2,2
1470330570042195,0,-1,-3,-2,-1,-1,1,-3
1470330570057206,-5,0,1,-2,-2,-1,-1,1
1470330570057206,1,-5,0,1,-1,-2,0,-6
1470330570058710,-9,5,-2,1,-1,0,-1,7
1470330570058710,-3,-2,-1,1,-1,0,-4,-3
1470330570079758,5,-2,-2,0,-1,-1,-1,-2
1470330570079758,-6,0,0,-1,-3,0,-1,6
1470330570081228,-7,-3,-2,-4,-1,0,-3,-4
1470330570081228,-3,1,0,-2,-2,-3,-1,-5
1470330570093238,3,-5,-2,-1,0,0,-1,4
1470330570093238,-1,3,-2,-2,-1,-1,1,0
1470330570102247,-7,-3,-1,-1,0,1,0,-8
1470330570102247,9,-2,-2,-2,1,0,-1,-1
1470330570117260,-21,-3,-2,-2,-2,-1,1,-2
1470330570117260,8,0,-2,-4,0,-2,1,-3
1470330570118762,4,0,1,1,0,-3,-1,-3
1470330570118762,-4,2,1,-3,-2,-1,-2,4
1470330570140282,-1,0,0,-3,-2,-3,-3,-3
1470330570140282,0,0,-1,1,-3,-1,-1,-6
1470330570141282,3,-6,-1,-4,0,-1,-1,4
1470330570141282,-7,-4,1,1,0,1,-1,0
1470330570153323,2,4,0,1,-3,-2,-1,-3
1470330570153323,3,-7,1,-2,1,-2,0,0
1470330570162301,-4,3,0,0,-4,-3,-3,1
1470330570162301,-2,0,-1,-2,-2,0,0,0
1470330570177314,4,-7,-2,-1,-1,1,-1,-2
1470330570177314,-2,1,-1,1,-2,-1,2,3
1470330570178835,-12,-2,0,1,-1,-2,0,0
1470330570178835,1,-1,-1,-1,-1,-2,-1,-4
1470330570207341,3,-5,0,0,1,0,0,2
1470330570207341,2,2,-1,-2,1,-4,-1,-3
1470330570208876,-4,0,-2,-4,-1,-1,-1,-2
1470330570208876,5,-6,0,-1,-2,1,-2,-1
1470330570213347,-5,5,-3,0,0,-3,-1,-1
1470330570213347,-5,-1,0,1,-2,0,-3,-1
1470330570222355,5,-3,-4,-2,-1,-1,-1,-8
1470330570222355,-4,2,-2,-2,0,-2,-1,-2
1470330570244376,3,-2,1,1,-3,-1,-1,-1
1470330570244376,-7,-1,-2,1,1,-1,-1,-2
1470330570246376,9,-3,2,-3,-2,1,1,2
1470330570246376,-6,-3,-4,-1,-2,-1,-3,2
1470330570259889,3,2,0,-3,-2,-1,-3,-1
1470330570259889,-5,-5,2,0,0,-2,-1,-2
1470330570261426,-2,4,-2,-2,-1,0,-1,1
1470330570261426,3,-1,-2,-2,-1,-2,0,-1
1470330570273401,5,-5,0,-3,-1,-1,-2,0
1470330570273401,-7,1,-2,-2,0,0,0,2
1470330570282409,0,0,-1,2,-1,-2,-4,-2
1470330570282409,0,0,0,-2,-1,-2,1,-6
1470330570297422,5,-3,-2,-2,-2,-2,0,4
1470330570297422,-2,-1,-1,0,-2,-2,-1,-4
1470330570298924,-4,2,-1,2,-2,-2,0,-1
1470330570298924,4,-5,-2,-1,1,0,0,1
1470330570319497,-1,3,-3,1,0,-3,0,0
1470330570319497,-8,-1,0,0,-1,0,-1,-6
1470330570321444,5,-5,0,-1,0,-1,0,-2
1470330570321444,-3,4,0,0,0,0,-3,3
1470330570333454,-8,-1,-2,-1,0,-1,0,-2
1470330570333454,1,1,-4,-3,-2,1,-1,2
1470330570342462,2,-4,-2,-1,-2,-1,-2,1
1470330570342462,-2,-1,0,-3,0,-2,-1,-2
1470330570357476,-5,4,1,-3,0,0,0,-6
1470330570357476,9,-6,-2,-2,1,-1,-1,2
1470330570358978,-7,0,1,-1,-2,-1,-1,-1
1470330570358978,-5,-1,0,2,-1,-2,-2,2
1470330570380006,4,-7,-2,1,-1,0,0,-2
1470330570380006,-2,2,1,-2,0,0,-3,-2
1470330570381505,-1,-3,-4,0,-2,0,-1,-2
1470330570381505,-3,1,-1,1,-1,-2,0,-5
1470330570402516,-3,-2,-1,-2,1,-1,-2,-1
1470330570402516,0,-2,-2,-3,-3,-3,0,0
1470330570404079,-4,0,-3,-2,-1,-4,1,-3
1470330570404079,9,-3,1,-1,-1,-2,0,0
1470330570417530,-6,1,-1,0,-1,-1,0,-1
1470330570417530,-3,1,-2,-2,-1,-2,-3,0
1470330570419031,2,-6,2,-1,-1,0,2,3
1470330570419031,-6,3,-1,-4,-1,-1,-1,-4
1470330570439553,0,-2,0,0,0,-1,-2,-4
1470330570439553,1,-1,-1,0,-1,-1,-3,2
1470330570441051,0,-4,-1,-2,0,0,-1,-3
1470330570441051,0,-1,-1,1,0,0,-1,-3
1470330570462570,-2,3,-3,0,-3,0,-2,0
1470330570462570,-1,-6,0,2,2,0,2,-2
1470330570464075,-6,3,-2,-1,-2,-2,-4,-2
1470330570464075,1,-1,-2,-3,-1,0,-2,0
1470330570477586,4,-7,-2,-3,2,0,1,1
1470330570477586,-9,2,0,-1,-1,-2,-3,-1
1470330570479124,-1,1,1,-1,-1,-1,-1,-1
1470330570479124,-3,-1,-2,-2,-2,-1,-1,-3
1470330570499652,0,-2,1,3,-1,-2,0,4
1470330570499652,6,0,-1,-2,-1,-2,-1,-3
1470330570501105,-7,2,0,0,-2,1,-1,-4
1470330570501105,-3,-6,-1,0,-1,-1,-1,0
1470330570522124,-5,2,-2,-1,-3,0,1,3
1470330570522124,0,-2,-1,0,-2,-1,-2,-2
1470330570524128,5,-4,-2,-1,-2,0,-2,-1
1470330570524128,-3,3,0,-1,3,-2,-3,-1
1470330570536662,-3,-4,-1,-2,-1,-1,-1,-4
1470330570536662,3,-4,-1,0,-1,-1,-1,-1
1470330570543643,6,-1,2,-1,-1,-1,-2,0
1470330570543643,-3,-1,-3,-1,-3,-2,1,-1
1470330570559685,-6,4,-2,-2,-2,-1,-2,-3
1470330570559685,9,-3,-1,-2,-1,2,0,1
1470330570561159,-7,-3,-1,-2,0,-2,-3,-5
1470330570561159,-1,-1,-1,0,-1,-1,0,1
1470330570582192,2,-4,-1,0,0,-2,-2,-3
1470330570582192,-11,1,-2,-3,0,-2,1,-2
1470330570583679,7,1,-2,-2,-1,-1,-3,3
1470330570583679,-2,-5,-2,-2,-1,0,-1,-2
1470330570596691,3,-3,-2,-2,0,0,-3,-4
1470330570596691,-7,-6,0,-2,-1,-2,-3,0
1470330570603733,-1,4,-1,0,1,0,0,1
1470330570603733,4,-5,1,-3,-2,-1,0,1
1470330570619712,-1,2,-2,-3,-1,-3,-1,-1
1470330570619712,-1,-1,-1,1,-4,0,-1,0
1470330570621217,0,-5,-1,-1,1,-1,-1,-1
1470330570621217,-8,3,-3,-1,-3,-1,-1,-5
1470330570642235,-1,-2,-1,0,-3,-2,0,0
1470330570642235,10,-1,0,-1,0,0,-1,-3
1470330570643746,-9,0,-1,-3,-1,0,-2,1
1470330570643746,1,-1,-3,2,-2,-1,-1,-3
1470330570656747,-9,2,-1,-1,-1,-2,-2,0
1470330570656747,10,-4,0,-1,0,-2,-2,-1
1470330570663253,-2,-2,0,1,-1,-2,0,1
1470330570663253,-8,-1,-2,0,0,-1,0,-2
1470330570679789,7,-2,-2,-3,-1,1,-2,1
1470330570679789,-5,6,-2,-2,-2,-1,0,-3
1470330570681332,-3,0,-2,-1,0,-2,1,-5
1470330570681332,3,-4,2,0,-1,-1,0,0
1470330570702389,-8,-2,-2,0,-2,0,-1,-3
1470330570702389,-3,-3,-1,1,-2,-2,-3,0
1470330570703816,7,3,0,-2,-4,0,-2,0
1470330570703816,8,-3,-2,-2,1,0,-2,-1
1470330570716799,-11,-2,1,-1,0,-1,-1,-4
1470330570716799,-1,2,-2,-1,-1,-2,0,-2
1470330570723304,2,-8,-1,-1,-1,0,-2,-1
1470330570723304,-2,2,-2,-2,-2,-2,-3,1
1470330570739821,2,-2,0,-1,-2,-1,-2,2
1470330570739821,3,-4,-3,2,1,1,0,-3
1470330570741336,-7,2,-1,-2,0,-2,0,0
1470330570741336,-3,-1,-1,-1,-2,-2,-1,2
1470330570762355,3,2,-1,-1,0,-2,0,-4
1470330570762355,-2,-3,0,-2,-2,3,2,1
1470330570763842,6,-2,-1,0,-3,-3,-1,-3
1470330570763842,-6,-2,-2,1,-3,-1,-2,1
1470330570776354,6,-6,-1,-1,-1,-2,-1,-2
1470330570776354,-5,3,-1,-2,-1,-2,-1,0
1470330570783379,-5,1,-3,-1,-2,1,1,-2
1470330570783379,6,-5,-3,-3,0,-2,-3,-1
1470330570799873,-12,-1,-2,1,-1,-1,1,-6
1470330570799873,-2,-3,0,-1,0,-3,-1,-1
1470330570801463,-2,0,-2,0,1,1,0,-3
1470330570801463,3,-4,2,-1,0,1,0,-3
1470330570822394,8,1,-2,-2,-1,0,-2,0
1470330570822394,-9,2,0,-1,0,0,0,-2
1470330570823896,3,-6,1,1,-2,-1,0,0
1470330570823896,-6,3,-2,-1,-1,-3,-1,-2
1470330570836460,2,1,-1,-1,0,-1,0,-1
1470330570836460,3,-5,-3,-2,-2,0,-1,-1
1470330570843442,1,2,-2,-1,-2,-1,-2,0
1470330570843442,-5,1,-1,0,1,1,-2,-4
1470330570859927,0,1,0,2,0,0,-2,0
1470330570859927,-1,-3,0,-2,-1,-2,3,2
1470330570861616,-3,-1,1,-1,0,-3,-1,2
1470330570861616,-4,4,0,-1,-1,-2,-2,-1
1470330570882447,2,-8,-1,0,-1,0,-3,-1
1470330570882447,-5,3,0,0,-2,-3,-1,0
1470330570883970,-2,-1,-1,1,-1,-1,-1,-2
1470330570883970,4,-6,-1,-1,-2,-1,1,2
1470330570896050,-1,0,-2,-4,-1,-1,-1,-2
1470330570896050,-2,-1,-1,-1,-1,-3,-3,-2
1470330570904970,-2,-3,-2,-2,-2,-3,-2,-3
1470330570904970,1,1,-2,-2,1,-1,-1,-1
1470330570919991,-2,2,-2,-1,-1,-1,-1,0
1470330570919991,-2,2,-2,-1,-2,-1,-1,-3
1470330570921495,1,-5,0,-1,-1,2,0,0
1470330570921495,-6,-1,-1,1,0,0,0,-1
1470330570942021,-3,0,0,-1,-2,-3,-1,-2
1470330570942021,3,-3,-1,0,-3,-1,-1,-1
1470330570944015,-4,4,-2,0,-1,-1,-2,0
1470330570944015,1,-3,0,-1,-3,-2,-1,-1
1470330570956026,-3,2,-1,-3,0,-3,0,-4
1470330570956026,4,0,0,0,-2,0,-2,1
1470330570965033,-3,0,1,-1,-1,-1,0,-3
1470330570965033,0,2,-2,-3,-1,-1,-2,-3
1470330570980135,3,-8,-4,0,-1,2,0,2
1470330570980135,-6,2,0,-1,0,0,0,-1
1470330570981549,0,-1,-2,-1,-1,0,-2,0
1470330570981549,5,-5,0,1,-1,0,-1,-3
1470330571002069,-7,2,0,0,-2,-3,-2,-1
1470330571002069,3,0,-3,-2,-1,0,-2,-2
1470330571004068,-9,-4,-2,-1,0,-2,-2,-1
1470330571004068,-1,-3,0,-2,-3,-2,-1,0
1470330571016080,-3,-3,0,-2,-2,0,-2,-2
1470330571016080,-5,0,-4,1,0,-2,-1,-3
1470330571025092,8,-2,-2,-2,-1,-1,0,0
1470330571025092,-3,4,-3,-2,-1,-1,1,-1
1470330571040101,-1,2,-2,0,0,-1,1,0
1470330571040101,2,-4,0,-2,2,0,-1,-2
1470330571041612,0,2,-1,-1,-1,-2,0,-2
1470330571041612,-2,-3,0,1,-1,-1,-1,0
1470330571062126,3,-2,-1,-2,-3,0,1,0
1470330571062126,3,-5,0,-1,-2,0,0,-1
1470330571064139,-4,-2,0,-3,0,-2,-2,-4
1470330571064139,-3,2,-1,0,0,-1,1,-2
1470330571076169,3,-2,3,-1,-1,-1,0,1
1470330571076169,-4,-1,-2,-2,-2,-2,-1,-2
1470330571084642,-3,2,-2,-2,-1,0,0,2
1470330571084642,3,-6,-3,-1,1,-1,-2,-2
1470330571099656,-3,3,0,-1,1,-2,-3,0
1470330571099656,0,-1,-1,-1,-1,0,-1,1
1470330571101156,4,-3,-2,-1,0,-3,-1,-2
1470330571101156,4,0,0,-3,-2,3,-1,3
1470330571122188,-8,-4,-2,1,-3,-2,-3,-1
1470330571122188,-6,-1,-2,-2,0,-1,-1,-4
1470330571123734,6,-4,0,-1,2,0,-1,1
1470330571123734,-6,0,-1,-1,-2,-2,-1,-4
1470330571135743,1,3,-1,0,-2,-3,-4,0
1470330571135743,6,-3,-1,-2,-2,-1,0,2
1470330571144697,-16,1,-1,0,-3,0,2,-6
1470330571144697,2,-2,-2,-2,-2,0,-3,3
1470330571159741,1,-6,-4,-2,-2,-1,2,-2
1470330571159741,1,-3,-1,1,1,-1,-2,2
1470330571161209,3,0,0,1,-2,-3,-3,1
1470330571161209,-11,4,-2,-1,-2,-1,-2,-2
1470330571182229,6,-3,1,-2,-2,0,0,0
1470330571182229,-6,1,0,-1,-3,-2,-3,-3
1470330571183730,-3,-2,-2,-2,-3,-1,0,-1
1470330571183730,3,-6,0,-1,2,-1,-1,-3
1470330571196242,-11,6,-2,-1,0,-3,-2,0
1470330571196242,2,2,-2,-3,1,-1,-1,0
1470330571210754,2,-2,-1,0,-3,-1,-1,0
1470330571210754,-5,0,-1,-3,-3,-2,-2,0
1470330571219762,1,-2,-3,0,1,-3,-1,1
1470330571219762,-13,3,-3,0,0,1,0,-4
1470330571221264,7,-4,-1,0,-1,0,-2,2
1470330571221264,3,2,-3,2,-2,-1,0,0
1470330571242329,-8,-2,0,-1,-1,-1,2,-3
1470330571242329,6,-4,0,-1,-2,1,-1,0
1470330571243818,-4,2,-3,-2,-2,-2,-1,-1
1470330571243818,-2,0,-3,-2,-2,-2,2,-4
1470330571255795,5,-3,1,1,0,2,-3,-2
1470330571255795,-3,-2,0,-2,-1,-2,-1,1
1470330571264803,-7,-1,0,-2,-3,0,1,-2
1470330571264803,-5,2,0,0,0,-3,-2,-2
1470330571279858,3,-5,-2,-3,-3,1,-2,-2
1470330571279858,-3,0,0,-1,-2,-2,-2,-3
1470330571281317,0,0,0,-1,1,-3,-2,0
1470330571281317,5,-6,0,-2,-2,-1,-1,2
1470330571302423,-5,3,-3,-1,-1,-2,0,-3
1470330571302423,-3,-2,-1,0,1,1,-1,0
1470330571303892,4,-6,-2,-3,-1,-1,-2,1
1470330571303892,-7,3,2,-2,-1,0,-2,-2
1470330571324920,1,0,-2,-2,-2,-3,-1,-2
1470330571324920,1,4,-3,0,-2,-1,-1,-2
1470330571326362,3,-6,-1,0,1,0,-1,-2
1470330571326362,-1,-1,-3,0,-1,0,-1,2
1470330571339870,-2,2,3,0,0,0,-1,-4
1470330571339870,0,-7,0,1,-2,0,2,-1
1470330571341398,-7,3,-3,-1,-2,0,-2,-3
1470330571341398,0,-3,0,-1,-1,-1,-2,-2
1470330571362392,2,-7,-2,-1,0,-3,0,0
1470330571362392,-1,2,0,-2,1,0,-2,0
1470330571363892,1,2,1,-2,-2,-1,-1,-1
1470330571363892,-5,-2,0,-1,-2,-2,0,-4
1470330571384911,3,0,-2,1,-1,0,1,3
1470330571384911,-3,1,-2,-1,-1,-1,-2,-1
1470330571386416,-5,1,-3,-1,0,-2,0,0
1470330571386416,3,-5,-1,-1,-1,0,-1,0
1470330571399925,-1,2,0,0,-2,0,-1,-2
1470330571399925,1,-2,1,-1,-1,-3,-2,0
1470330571401430,3,-3,-2,-2,0,-3,0,0
1470330571401430,-3,2,-1,-1,0,-2,1,3
1470330571422445,-5,-2,0,-3,0,1,-1,-1
1470330571422445,0,-2,-1,-2,-3,-1,-3,0
1470330571423947,6,-4,-2,-2,-1,2,0,-2
1470330571423947,0,-2,-3,-2,-1,-1,-1,-3
1470330571444966,-5,1,-2,0,0,-2,-2,-3
1470330571444966,5,-7,-1,-1,-1,0,-1,-3
1470330571446530,-2,5,0,0,-1,-1,0,1
1470330571446530,-3,1,-2,-2,-1,-2,1,1
1470330571459978,7,-6,-3,-1,-2,0,-1,-3
1470330571459978,-4,4,-2,0,1,-2,-3,-4
1470330571461542,-3,-2,-3,0,-1,0,0,1
1470330571461542,3,1,0,0,-2,-1,0,-2
1470330571481497,-2,-1,1,-2,-1,-1,-2,-2
1470330571481497,-2,0,0,0,-1,0,0,0
1470330571490005,-2,0,-1,0,-2,-2,-1,-3
1470330571490005,6,-7,0,0,-1,0,-4,-1
1470330571505019,-12,2,-3,-1,-1,-3,0,0
1470330571505019,0,-2,0,-2,-1,-2,1,1
1470330571506520,4,-4,0,0,-3,1,-1,-1
1470330571506520,-6,-1,-1,0,-1,-1,-2,-3
1470330571519074,5,0,-1,-1,-1,-4,-3,0
1470330571519074,-3,1,-1,-3,-2,-1,-1,0
1470330571526037,-8,-5,0,0,-2,0,-2,-4
1470330571526037,-2,1,-2,-1,0,-2,-1,-1
1470330571542588,-6,1,-4,0,-1,-2,-1,0
1470330571542588,7,-6,0,-1,-1,0,-2,-1
1470330571544100,-6,2,-1,-3,-1,1,-2,-4
1470330571544100,-1,-1,0,-3,0,-2,0,0
1470330571564615,3,-5,-2,-2,-2,-1,2,3
1470330571564615,-5,1,-2,-1,-1,0,-2,-3
1470330571566573,-2,-2,-2,-3,0,-1,-1,1
1470330571566573,-2,-1,-2,-2,-2,0,-2,-2
1470330571579140,5,-1,1,-2,0,0,0,-1
1470330571579140,-3,0,-1,1,-2,-3,0,1
1470330571586092,-7,2,-1,0,-1,-1,1,-3
1470330571586092,4,-3,-2,-1,0,-1,-1,-2
1470330571602148,-4,2,-1,1,-1,-1,0,-2
1470330571602148,-2,-1,0,-1,-2,0,-1,-3
1470330571603607,7,-4,0,-2,0,-2,1,1
1470330571603607,-4,2,-2,-1,-2,-3,1,0
1470330571624657,-13,-4,-1,-2,-2,0,-2,-6
1470330571624657,-9,0,-4,-1,-2,-2,-1,-1
1470330571626706,3,-2,0,-1,1,-2,-4,1
1470330571626706,0,-2,-2,-1,0,0,0,0
1470330571639139,1,3,-1,0,-2,-3,-2,-3
1470330571639139,6,-5,-1,-3,2,1,1,0
1470330571645663,-7,0,0,-2,-3,-2,0,-2
1470330571645663,-2,-1,-2,0,0,-2,1,0
1470330571662189,4,-3,1,-2,-1,3,-4,2
1470330571662189,-5,1,-3,0,-1,-1,1,-2
1470330571664201,2,0,0,0,-1,-1,-2,1
1470330571664201,0,-1,0,-1,-3,-1,-2,-2
1470330571684716,-2,-3,-2,-2,1,0,-2,-1
1470330571684716,5,-2,-2,-4,-3,0,-2,-5
1470330571686182,0,4,-1,-2,-1,-1,1,1
1470330571686182,-4,-6,-1,-2,-2,-2,-2,0
1470330571699247,0,3,-1,-1,0,0,4,0
1470330571699247,-10,0,-2,2,-2,-1,-3,-3
1470330571705701,14,-4,-2,1,0,0,-1,-2
1470330571705701,-5,2,-1,-1,-3,-1,-1,-3
1470330571722214,1,-2,-1,-2,0,-5,-1,1
1470330571722214,3,-2,1,0,-1,-3,1,2
1470330571723718,-6,-4,-2,-2,-1,3,-4,0
1470330571723718,3,-2,-1,-2,-2,0,0,-5
1470330571744751,-9,0,-3,1,0,-1,-3,0
1470330571744751,6,-3,-2,-1,0,-1,-1,1
1470330571746263,-4,3,-3,0,-2,-4,-1,0
1470330571746263,-5,0,0,0,0,0,-2,-1
1470330571759297,4,-7,-3,-6,-1,-2,0,1
1470330571759297,-3,3,1,2,-2,-2,-2,-4
1470330571765780,0,-2,-2,-1,0,-1,-1,-1
1470330571765780,0,-3,-4,1,-2,0,-2,0
1470330571782316,-1,-2,-1,-8,-1,0,0,1
1470330571782316,-3,0,-2,1,-1,-2,-1,1
1470330571783771,-4,2,2,0,1,-3,-1,-3
1470330571783771,9,-6,0,0,-1,1,-1,1
1470330571804842,-6,2,1,-1,-3,-1,-2,-4
1470330571804842,-6,-1,-2,-3,0,2,1,-5
1470330571806289,6,-5,-2,-1,-3,-3,-2,1
1470330571806289,-11,5,1,0,0,-3,-2,-2
1470330571818352,4,0,-1,2,-1,-2,0,-1
1470330571818352,2,-4,0,-3,-2,1,-3,3
1470330571827314,-5,-2,-4,-2,1,0,-1,-5
1470330571827314,-1,1,-2,-3,0,-1,0,1
1470330571842322,-7,3,-2,1,-2,-1,-4,-2
1470330571842322,4,-8,-2,-1,-3,-3,1,-2
1470330571843823,-5,-2,-1,5,0,-1,0,-3
1470330571843823,1,1,-1,-1,-1,-2,-2,-2
1470330571864842,5,-6,1,-3,0,-1,0,1
1470330571864842,-7,4,-5,-1,-1,-2,0,-1
1470330571866343,0,0,-1,-4,-2,-1,0,-3
1470330571866343,4,-4,-4,-2,-2,0,-1,-1
1470330571878401,-5,-1,0,1,1,-1,-1,-2
1470330571878401,-4,0,0,-2,-2,-1,-1,-1
1470330571887404,0,1,-2,-3,-1,-4,-2,-2
1470330571887404,0,-4,-2,0,0,2,0,-1
1470330571902375,-2,-3,-3,0,-4,-1,-1,2
1470330571902375,0,-1,-1,-2,-3,-3,0,-1
1470330571903879,3,-2,1,-4,0,1,1,3
1470330571903879,-6,3,-1,0,-2,-2,-1,0
1470330571924937,-2,-2,-2,0,2,-3,-2,-5
1470330571924937,-1,-2,-2,-3,0,-1,-1,0
1470330571926446,3,0,-3,1,-1,-2,-1,0
1470330571926446,-5,0,-1,-4,-1,-2,-2,-1
1470330571938409,-1,1,0,0,-3,0,-1,-3
1470330571938409,2,-5,1,-1,-1,0,0,-1
1470330571947429,-2,0,0,-2,-2,-2,0,-1
1470330571947429,0,3,0,2,-1,-2,-1,-3
1470330571962430,5,-5,1,-1,-2,2,0,0
1470330571962430,-3,6,0,-2,-1,-2,-2,-1
1470330571963960,-3,0,2,4,-2,-1,-2,1
1470330571963960,-1,-4,-3,0,0,-1,1,-4
1470330571984949,-3,-1,0,1,-3,1,-2,-2
1470330571984949,-1,-3,-2,0,-3,-2,-3,1
1470330571986450,1,-2,-1,-4,-2,-1,-2,-3
1470330571986450,1,-3,2,-2,1,0,-1,5
1470330571998552,0,-3,-4,-3,0,-2,-2,0
1470330571998552,-2,1,0,-2,1,0,-1,0
1470330572007471,5,-6,-2,0,-1,-1,-1,-1
1470330572007471,-3,4,-3,-1,-1,-2,1,-2
1470330572022483,-4,-1,0,-2,0,-1,-1,-1
1470330572022483,8,-2,1,-1,-3,-1,-2,2
1470330572024011,-12,-2,1,0,0,0,-1,1
1470330572024011,0,-4,-1,1,0,-3,-2,-1
1470330572045028,6,2,-1,-1,1,-2,1,-1
1470330572045028,-1,-6,-2,-1,-1,1,0,-2
1470330572046520,1,2,-1,0,-2,0,1,1
1470330572046520,-10,4,-1,0,-2,0,-3,-2
1470330572058516,9,-4,-2,-2,-2,0,0,1
1470330572058516,-5,3,0,0,0,-2,-1,-3
1470330572067524,-1,0,1,-1,-1,0,-3,-1
1470330572067524,3,-4,-1,-1,-3,0,1,1
1470330572082538,-5,0,-2,0,2,-2,-3,-1
1470330572082538,1,0,-1,0,0,0,0,-2
1470330572084039,-3,-2,-3,-2,-2,-1,-2,-1
1470330572084039,4,-5,-1,-1,-2,0,-1,-2
1470330572105058,-4,1,-2,-1,-2,0,-2,-3
1470330572105058,-4,1,-2,1,-1,-1,-2,-1
1470330572106559,4,-5,-1,-1,0,0,-1,0
1470330572106559,-5,2,0,-3,0,-1,0,-4
1470330572118569,-4,0,-1,-2,-1,-2,1,-1
1470330572118569,3,-3,-3,-1,-1,-1,-1,1
1470330572127078,-5,0,0,-4,-2,-2,0,-4
1470330572127078,4,0,-1,-1,-1,-1,-2,0
1470330572142143,-8,-1,1,2,-1,-2,0,0
1470330572142143,-4,-2,-2,-3,-1,-1,1,-6
1470330572143598,0,1,-1,-2,0,-1,-3,-2
1470330572143598,-4,-1,0,3,-2,-1,-1,-4
1470330572165114,13,-5,-2,-2,-3,1,-2,0
1470330572165114,-11,2,-3,-1,-2,-2,-1,-1
1470330572166166,-1,2,-2,0,-1,1,0,2
1470330572166166,6,-6,-1,-5,-1,-2,-3,0
1470330572178625,-6,2,1,3,-1,0,-2,-2
1470330572178625,3,1,2,1,0,-1,-2,0
1470330572187131,-3,0,-1,-3,-2,-1,1,2
1470330572187131,4,-2,-1,-3,-1,-1,-1,0
1470330572202186,-2,0,0,-1,-2,-1,1,-1
1470330572202186,0,-1,-1,-9,-3,-4,-2,-3
1470330572203690,3,-5,0,5,1,2,0,2
1470330572203690,-8,3,-2,-2,-3,-1,-1,-3
1470330572224669,0,-1,-2,-1,-1,-3,0,-4
1470330572224669,5,-5,-2,-2,1,0,-3,0
1470330572226167,-6,0,-2,-2,-1,-2,-2,-5
1470330572226167,-2,-3,-1,2,-1,0,1,2
1470330572238224,-4,1,-2,-2,-1,-1,-2,-1
1470330572238224,2,-3,-1,2,-4,-2,1,-2
1470330572247202,-1,-1,-3,-4,-2,-2,0,0
1470330572247202,0,2,0,-1,-1,-1,-2,-2
1470330572262199,6,-4,0,-5,-1,2,-4,-1
1470330572262199,-14,-1,-4,0,-2,-3,-2,-1
1470330572263700,-2,-3,0,0,0,-2,-2,-1
1470330572263700,7,-5,-2,-2,0,-1,1,0
1470330572284723,-6,2,-1,-1,-1,-3,-1,-1
1470330572284723,2,1,-2,-1,-1,-1,-2,0
1470330572286220,0,0,0,3,0,-2,2,-2
1470330572286220,-2,-4,-2,-2,0,0,-2,0
1470330572307242,-3,-3,-3,0,-1,-3,1,-1
1470330572307242,-4,2,2,3,0,2,-1,-1
1470330572308741,2,-5,0,-2,-2,1,-1,-3
1470330572308741,-5,2,-1,-5,-2,-3,-3,-4
1470330572322277,-4,1,-3,0,-3,-2,0,0
1470330572322277,7,-5,-2,-5,0,0,-2,1
1470330572323754,-6,5,-2,-3,-1,0,0,-2
1470330572323754,1,2,1,0,-1,-3,-2,1
1470330572344804,-2,-4,-1,-1,0,-1,-1,0
1470330572344804,1,-2,1,-4,-2,-1,-1,2
1470330572346273,4,1,-1,1,-2,-1,-1,0
1470330572346273,-7,1,-2,-6,-2,-1,0,-4
1470330572367325,1,-4,-3,0,-1,1,0,0
1470330572367325,-1,2,-1,3,1,-2,0,-4
1470330572368794,-6,1,0,-5,-1,-3,-3,-2
1470330572368794,6,-3,1,-1,-2,-2,0,-3
1470330572382309,-7,4,0,-7,-2,-1,-2,-2
1470330572382309,0,1,-3,2,-1,1,1,-1
1470330572383856,5,-8,-1,1,0,-1,-1,1
1470330572383856,-3,-5,-1,-2,-3,0,0,2
1470330572404853,-1,-1,-2,0,1,-2,-2,0
1470330572404853,-6,2,-2,-6,-1,-2,-1,0
1470330572406329,1,0,-1,9,-1,-2,1,0
1470330572406329,-2,0,-3,1,5,2,0,-1
1470330572427357,-2,0,-1,3,-4,-2,-3,-4
1470330572427357,6,-5,-3,-2,0,2,1,1
1470330572428848,-6,4,2,-2,1,-1,0,-3
1470330572428848,-2,-3,-4,-7,-3,-2,-1,-2
1470330572441515,3,3,2,5,-3,-1,1,1
1470330572441515,-1,0,0,-5,1,0,-4,-2
1470330572448520,-3,-2,-1,-3,-3,-1,-1,-2
1470330572448520,-8,7,-4,6,-3,-3,-2,-3
1470330572465035,7,-6,-1,-10,-2,-1,-1,-1
1470330572465035,-3,-2,0,5,-2,-2,0,1
1470330572466539,-5,0,-2,-1,-2,-1,-2,-2
1470330572466539,3,-4,1,-1,2,0,-1,1
1470330572487088,-5,1,-3,8,-2,-2,-2,-2
1470330572487088,1,-1,0,-3,2,0,0,0
1470330572489071,1,-2,-5,-4,-3,0,-3,-1
1470330572489071,6,-3,2,7,4,-2,1,-1
1470330572501569,-5,-5,-5,-10,-3,-4,0,-3
1470330572501569,-9,4,0,-1,-6,-3,-1,0
1470330572508574,6,-3,1,-1,-2,-1,-2,3
1470330572508574,-4,-1,-5,-4,-1,0,-1,-1
1470330572524591,-2,3,-2,-3,2,1,0,-1
1470330572524591,4,-4,0,-3,0,-1,1,2
1470330572526090,-4,-1,-2,-2,-3,-1,-1,-1
1470330572526090,-2,-1,0,5,-1,0,-1,0
1470330572547112,-4,-1,0,-5,-2,-1,1,1
1470330572547112,1,0,0,6,0,-2,0,0
1470330572548610,1,-2,1,-2,-1,0,-1,-1
1470330572548610,-9,3,-5,-7,-3,-2,-1,-4
1470330572561122,7,-6,-1,-1,2,0,-2,-4
1470330572561122,-6,0,0,-3,-3,-3,-3,-4
1470330572569630,-10,-2,0,4,0,-4,-3,-2
1470330572569630,2,-3,0,-11,1,-2,-3,-1
1470330572584712,0,2,3,4,-2,-2,-3,-1
1470330572584712,2,-4,-7,-7,-1,-1,-1,0
1470330572586764,6,0,-1,2,2,0,0,4
1470330572586764,12,-3,-2,1,-1,1,2,5
1470330572607201,4,0,2,-3,0,0,0,2
1470330572607201,-3,-2,1,5,0,0,1,-2
1470330572608668,6,-5,-3,-8,-1,5,1,1
1470330572608668,-6,1,1,10,-2,-4,-4,1
1470330572621258,-7,1,-3,1,0,0,2,-3
1470330572621258,6,-6,-1,1,-1,-1,-1,-2
1470330572629685,-9,3,-2,-7,10,2,-2,-1
1470330572629685,-4,-1,0,3,-8,-3,-1,0
1470330572644698,7,-9,-3,0,-3,-4,-3,0
1470330572644698,-9,5,-1,-6,-3,-1,-3,-2
1470330572646198,-2,-1,-3,1,-2,-1,-4,-4
1470330572646198,0,-3,1,-8,-5,0,0,-5
1470330572667268,-4,1,0,4,3,-1,-1,2
1470330572667268,-2,-2,-3,-3,0,-1,0,0
1470330572669264,-3,-1,-2,0,-6,-5,-1,-2
1470330572669264,6,-3,1,2,5,3,2,-1
1470330572680729,-9,6,-3,-12,-6,-2,-2,-4
1470330572680729,0,-1,3,4,1,0,-1,-1
1470330572689737,11,-7,0,-2,-3,-2,0,1
1470330572689737,-14,8,-4,-12,-4,-4,-2,-2
1470330572704802,-1,-1,-1,7,2,2,-2,-2
1470330572704802,8,-4,-2,1,-2,-2,-3,0
1470330572706281,-8,3,0,5,-2,-4,-2,-3
1470330572706281,-1,0,-2,1,0,-1,0,-3
1470330572727315,-2,-3,0,-3,2,-1,1,-2
1470330572727315,5,-6,-2,-2,-3,0,-3,-1
1470330572728774,-8,5,1,0,-5,-4,-1,-2
1470330572728774,0,-2,-2,1,1,0,-1,0
1470330572740783,11,-8,1,1,0,4,-3,0
1470330572740783,-17,16,2,-2,-5,-5,-1,-5
1470330572749791,3,-4,-8,-6,-2,-1,-1,-2
1470330572749791,7,-4,5,-10,-8,-4,-2,0
1470330572764832,-8,4,-1,7,2,-1,0,-2
1470330572764832,1,-4,-9,-2,3,-1,2,1
1470330572766322,1,-4,3,-3,-5,1,-2,-1
1470330572766322,-1,-7,7,12,9,1,0,-1
1470330572787414,-6,-4,-17,-6,-6,-5,-2,-3
1470330572787414,3,6,10,0,-5,-2,-1,0
1470330572788867,8,-12,-12,1,7,2,-1,0
1470330572788867,-15,14,6,-4,-9,-5,-3,-5
1470330572800839,2,-1,1,3,11,6,0,3
1470330572800839,11,-13,0,-2,0,-4,-2,3
1470330572809877,-13,-1,-9,-3,-10,-6,-1,-5
1470330572809877,2,-1,1,5,-3,1,0,-2
1470330572824908,1,1,0,-5,-4,-2,-2,0
1470330572824908,-1,4,2,-1,-2,0,-1,-1
1470330572826405,-2,-2,-8,1,1,2,-2,-1
1470330572826405,-1,-11,-3,-3,2,0,0,-1
1470330572847412,8,-3,5,5,-2,1,1,-1
1470330572847412,-21,4,-12,-9,-3,-4,-2,-4
1470330572848911,2,10,3,-9,-3,-1,0,2
1470330572848911,12,-23,-1,4,0,0,-2,3
1470330572860935,-16,-3,-11,-2,-2,-5,-4,-4
1470330572860935,6,9,-12,3,1,2,-1,-3
1470330572869900,1,-10,7,-2,1,-2,-1,-2
1470330572869900,-6,22,-14,-9,-4,-4,0,-3
1470330572884912,-5,-6,5,2,-3,-2,0,2
1470330572884912,2,11,3,3,3,0,-1,0
1470330572886423,4,-21,17,-4,0,2,-2,1
1470330572886423,-13,21,2,6,2,-3,-1,-2
1470330572907433,5,0,-5,-1,-4,-2,-1,-1
1470330572907433,12,-33,-53,-11,-3,0,0,4
1470330572908946,-13,27,37,8,2,-2,0,-3
1470330572908946,1,0,-3,3,-4,0,-4,0
1470330572928956,10,2,8,-11,0,-1,0,2
1470330572928956,-9,-6,10,0,0,2,1,-3
1470330572929953,6,0,-9,4,0,-3,2,-2
1470330572929953,0,-4,4,4,0,0,1,0
1470330572943966,5,-16,-68,-16,-18,-4,1,-1
1470330572943966,-17,-3,11,2,23,5,-4,-5
1470330572944967,4,0,12,-6,-9,-2,1,0
1470330572944967,12,-19,50,12,-2,4,-1,2
1470330572966530,-17,2,-2,4,1,-3,-1,-1
1470330572966530,4,2,-26,1,-7,-3,1,2
1470330572967497,2,-14,13,-1,3,0,-4,-1
1470330572967497,-5,-11,-22,-16,-5,-2,0,-5
1470330572989013,0,25,31,15,2,-1,-2,-1
1470330572989013,2,2,34,4,1,-1,-1,0
1470330572990006,-2,-2,-18,-9,-2,-1,-1,-2
1470330572990006,-8,1,-22,-2,-5,-2,-2,-3
1470330573004050,1,-8,23,-9,3,2,2,-1
1470330573004050,10,-13,14,8,-3,-1,-2,-2
1470330573005019,-17,25,-12,-4,-1,-3,-1,-4
1470330573005019,0,-22,-21,-12,-4,-2,-4,-1
1470330573026583,10,-2,11,7,-11,-8,0,2
1470330573026583,-13,-15,-42,-5,16,16,0,0
1470330573027555,4,4,9,3,-19,-9,-1,0
1470330573027555,1,3,0,-6,-5,-6,-4,0
1470330573049115,-2,2,-3,2,22,-9,-2,-1
1470330573049115,-11,-24,-24,-16,-41,22,-5,-5
1470330573049562,5,-3,-21,14,48,0,1,5
1470330573049562,6,9,0,4,-16,-10,-2,-8
1470330573064100,-13,3,10,3,11,3,0,-4
1470330573064100,2,4,-44,-13,5,-5,1,2
1470330573065086,6,8,30,2,-11,-17,5,4
1470330573065086,-9,17,8,2,10,14,0,-4
1470330573086593,-3,-10,0,-11,-3,3,-3,1
1470330573086593,1,11,34,6,-15,-17,-3,-8
1470330573087098,-4,-20,-33,-11,-2,5,-4,1
1470330573087098,0,1,17,-4,2,-16,-3,2
1470330573109145,1,3,17,4,-12,6,0,1
1470330573109145,3,9,-4,-13,-2,2,-2,-3
1470330573109663,-7,-1,-11,-2,-9,1,1,-2
1470330573109663,-5,-10,-7,0,2,4,0,2
1470330573124173,6,3,-18,-3,-1,10,-2,-5
1470330573124173,-6,3,49,17,1,-10,-1,1
1470330573124628,-3,1,-7,3,1,1,-1,-4
1470330573124628,0,-4,-14,-3,6,10,0,-1
1470330573146647,-3,-4,-5,-5,-6,-2,0,0
1470330573146647,1,6,7,6,6,-11,2,1
1470330573147149,-1,-1,1,9,-7,1,-3,-3
1470330573147149,2,-5,-18,-4,4,3,1,-1
1470330573169178,0,3,30,-6,3,-3,1,1
1470330573169178,-1,2,13,2,0,-7,-2,0
1470330573169687,3,-10,-19,-19,-3,6,-2,-3
1470330573169687,-6,5,2,6,-6,-6,0,0
1470330573184182,0,-2,-13,3,-1,-7,-3,-3
1470330573184182,2,-2,9,0,6,2,2,2
1470330573184683,-2,0,0,-2,-6,2,-2,0
1470330573184683,1,0,-4,4,0,-4,-1,-1
1470330573206701,-4,0,-5,-18,-5,-1,0,0
1470330573206701,-1,1,9,12,8,3,1,0
1470330573207201,-7,-4,-13,-5,-2,-1,-1,-1
1470330573207201,4,-5,-6,-11,0,-1,0,2
1470330573229282,0,3,19,10,-3,-1,-2,-3
1470330573229282,1,-1,-12,-21,-2,-3,-2,-1
1470330573229741,2,3,5,-2,-3,-5,-1,-4
1470330573229741,-1,-5,-6,13,6,2,0,1
1470330573244312,1,0,-9,-9,2,-2,-2,0
1470330573244312,4,1,9,-8,-4,-6,-2,-3
1470330573244736,-3,-8,-10,-1,-1,-2,-2,-2
1470330573244736,2,-3,0,-9,-5,1,1,1
1470330573266757,1,-3,-11,8,2,-1,0,1
1470330573266757,1,2,12,3,-3,-4,-1,-3
1470330573267256,4,-5,-11,-10,-2,0,-1,-1
1470330573267256,-13,1,-2,0,-4,-3,-2,-3
1470330573297324,-1,-9,-8,4,-3,-2,-2,0
1470330573297324,2,-4,1,-7,-2,-3,-1,-1
1470330573298283,3,6,0,2,-2,-1,-1,0
1470330573298283,4,0,13,1,2,0,-3,-2
1470330573303788,0,0,-4,-9,-2,0,-2,-1
1470330573303788,-10,-4,0,10,-3,0,-2,-2
1470330573304791,-10,1,1,-1,1,-2,-3,-4
1470330573304791,8,7,4,3,2,1,1,2
1470330573326345,5,-8,-5,3,2,3,-2,-1
1470330573326345,0,4,-2,2,-3,0,-2,0
1470330573327309,-1,-6,-2,5,1,-1,-1,-1
1470330573327309,1,-2,1,-3,-1,-1,-1,-2
1470330573348884,-5,-2,-12,-1,-1,-4,-2,-5
1470330573348884,-3,-1,-5,0,0,0,-2,-1
1470330573349829,6,3,13,6,1,-2,-1,1
1470330573349829,-4,8,-11,-8,-2,-3,-7,0
1470330573363842,4,2,3,5,-2,1,9,1
1470330573363842,-4,0,-25,-14,-1,-3,-2,0
1470330573364847,4,6,14,6,1,-2,-1,-3
1470330573364847,-5,-6,5,5,-1,0,-2,-2
1470330573386375,-7,4,-3,-2,-1,-2,-2,0
1470330573386375,7,0,10,-1,-1,-1,0,0
1470330573387363,5,-2,6,2,0,0,-1,-1
1470330573387363,-12,-2,-3,-5,-1,-3,1,-1
1470330573409385,2,-7,-3,-4,-2,-1,-3,-1
1470330573409385,-9,0,2,-8,-2,2,1,-3
1470330573409883,-2,6,11,5,-1,1,-1,3
1470330573409883,4,-4,6,0,-2,-3,-1,-4
1470330573432421,-2,-3,-7,-7,-2,-3,-4,0
1470330573432421,0,0,-3,-4,-3,-1,0,-2
1470330573432952,-2,-6,-18,-2,5,1,0,-2
1470330573432952,1,-6,-5,-5,-1,-1,2,-2
1470330573446437,-4,2,6,2,-3,-1,-2,-3
1470330573446437,0,-1,3,2,-3,-2,0,-1
1470330573447417,-2,-6,-7,-5,-3,1,-3,-1
1470330573447417,-1,3,-3,0,-1,-1,0,-1
1470330573468967,-3,1,-4,4,0,-3,-3,-4
1470330573468967,0,-3,-4,4,-1,-2,-3,0
1470330573469937,-1,-1,-1,-11,-3,-1,-1,-1
1470330573469937,-1,2,-3,-3,0,-1,0,0
1470330573483980,0,-2,4,-1,0,0,0,1
1470330573483980,1,-4,0,3,-1,-2,-2,-1
1470330573484984,-5,-1,-18,7,-3,-1,-2,2
1470330573484984,1,-2,10,-5,2,0,-1,-2
1470330573506474,-1,-2,4,1,-3,-3,0,1
1470330573506474,-4,1,-4,-1,3,2,-3,-2
1470330573507481,0,-2,7,-1,-5,-3,-2,-1
1470330573507481,-2,-4,-6,-5,-1,1,-1,-3
1470330573537532,-1,11,-2,1,-1,-1,-2,-2
1470330573537532,-2,-11,1,2,-2,-4,0,-3
1470330573537999,-1,5,-4,-5,1,-3,2,-3
1470330573537999,0,1,7,3,-1,-1,0,1
1470330573544031,-7,0,10,3,-2,0,-2,-2
1470330573544031,4,-4,-1,0,-1,1,-1,-1
1470330573545005,2,-2,1,-4,-1,1,1,-2
1470330573545005,-6,-5,-8,0,-2,-3,-1,-1
1470330573566525,5,-8,-3,-2,0,0,-1,-2
1470330573566525,-2,6,0,-2,-2,-1,-2,1
1470330573567526,-1,6,15,5,0,1,-1,-2
1470330573567526,0,4,0,2,-1,-1,-2,-1
1470330573589045,-3,-7,-7,-3,0,-1,-1,1
1470330573589045,4,-3,-3,-1,0,-2,0,-2
1470330573590046,-5,1,-8,-2,-3,-2,-1,-1
1470330573590046,1,-8,-5,-1,-3,1,-4,0
1470330573604090,2,2,0,-2,-1,0,-1,-3
1470330573604090,-9,4,0,0,-4,-3,2,1
1470330573604558,-1,-5,1,-1,-1,-1,-3,-1
1470330573604558,3,-1,-2,0,-1,1,1,-1
1470330573626597,-6,-4,-5,1,-2,-2,-2,-1
1470330573626597,5,3,-2,1,1,1,1,1
1470330573627078,-9,-9,-1,0,-2,-1,-2,-3
1470330573627078,9,0,2,-1,-1,-1,-3,4
1470330573649127,-1,4,-8,-2,-1,-2,-2,-9
1470330573649127,1,6,4,-2,0,1,-1,-3
1470330573649601,0,-10,-8,-4,-1,0,-4,-3
1470330573649601,-3,0,-18,-3,0,0,5,2
1470330573664146,1,1,6,-1,0,-1,-2,4
1470330573664146,0,-6,4,0,0,-5,-2,-2
1470330573664656,0,2,-9,-12,-2,-1,-1,-2
1470330573664656,-5,-1,10,7,-1,-2,0,-2
1470330573686655,2,-1,4,9,-2,0,-2,-3
1470330573686655,0,-5,-3,-9,-1,0,-1,2
1470330573687134,-2,-1,-7,1,2,-1,0,1
1470330573687134,-2,1,-8,-10,-6,-3,-3,-2
1470330573709181,1,-5,12,0,3,-2,1,1
1470330573709181,-1,-8,-34,-11,-5,-3,-1,-2
1470330573709654,4,-4,5,2,-1,2,1,2
1470330573709654,2,0,-8,4,-2,-3,-3,-2
1470330573724165,-5,9,3,-8,-1,2,1,0
1470330573724165,-3,-1,4,5,-4,-1,-2,1
1470330573724666,1,-5,-6,-7,-1,0,-2,0
1470330573724666,0,4,6,7,-1,-2,0,-1
1470330573746692,-4,-9,-24,-2,-3,-2,0,1
1470330573746692,-1,-3,10,-1,-1,0,-2,-1
1470330573747201,0,3,2,5,1,1,-2,0
1470330573747201,-3,-3,2,0,2,0,-2,-3
1470330573768761,3,-3,0,0,0,-1,0,1
1470330573768761,-5,-3,2,2,0,-1,-2,1
1470330573776743,-2,2,8,1,-1,-2,-1,1
1470330573776743,0,-1,-5,-10,-2,-2,-2,-2
1470330573784219,-4,-5,-9,-4,-1,-1,-2,0
1470330573784219,1,4,18,-4,-4,-2,0,-4
1470330573784720,-2,3,-2,9,6,0,-1,-2
1470330573784720,2,-10,-16,-7,2,0,2,2
1470330573814774,0,18,10,-2,-3,-1,-2,-3
1470330573814774,-8,-2,-11,-9,-3,-1,-1,-2
1470330573815748,2,-4,4,-2,-1,-1,0,0
1470330573815748,-4,3,6,6,-3,-3,-3,-1
1470330573828786,0,-6,-3,-1,-2,4,0,1
1470330573828786,6,1,-24,4,2,-2,-1,-1
1470330573829761,-8,6,13,-5,-2,-3,0,0
1470330573829761,-1,-8,4,7,3,0,-1,-2
1470330573843307,-2,-3,-2,1,-3,-2,0,-2
1470330573843307,1,2,1,-13,-3,-5,0,0
1470330573851780,-1,-7,-10,-1,0,-2,-2,-1
1470330573851780,-4,1,1,-8,0,-1,0,-3
1470330573866805,-2,-7,0,5,1,0,-1,-1
1470330573866805,4,2,-7,3,-2,2,1,-1
1470330573867294,-7,-2,7,5,-6,-2,-1,-1
1470330573867294,1,-2,2,-8,-2,-1,0,-2
1470330573888846,-1,0,2,0,2,-2,0,0
1470330573888846,4,0,5,12,0,0,-1,-1
1470330573889814,1,1,-3,-4,-2,1,1,-1
1470330573889814,2,1,0,-10,1,-1,-1,0
1470330573903366,-4,-10,-3,-6,-4,-3,-1,-1
1470330573903366,-4,2,-1,7,1,0,-3,0
1470330573911842,4,0,8,0,-1,-2,0,-1
1470330573911842,-6,0,-5,2,-4,-1,-2,-1
1470330573926393,2,-1,0,-2,2,-2,-2,-2
1470330573926393,-3,-3,9,3,-4,-3,-2,0
1470330573927348,2,-3,-17,-8,-1,1,-2,-3
1470330573927348,-7,-4,-4,3,0,0,0,-2
1470330573949406,2,4,4,-5,-2,-2,-1,-1
1470330573949406,-2,-4,11,4,1,1,0,3
1470330573949870,4,-2,-9,3,-4,-1,0,-1
1470330573949870,-2,8,-3,-1,-1,-1,0,-1
1470330573963406,-1,-6,-3,6,1,0,-1,-3
1470330573963406,-1,-2,-4,-1,2,0,-1,-1
1470330573971888,-3,-1,5,-4,0,-3,-1,-1
1470330573971888,1,-6,-7,2,-1,-3,0,2
1470330573986902,1,2,-1,-6,-3,1,-1,-3
1470330573986902,2,2,-1,-7,1,0,1,-2
1470330573987402,-3,1,0,-1,-3,0,0,0
1470330573987402,3,-1,16,2,0,-2,-4,-2
1470330574008921,2,-3,-13,-12,-3,-4,-1,2
1470330574008921,-4,5,-7,1,4,2,-3,0
1470330574009922,0,-7,-15,-14,-4,-2,0,-3
1470330574009922,2,0,2,0,-4,0,0,-2
1470330574023533,-2,-4,-2,5,-2,-1,0,3
1470330574023533,1,-3,1,3,1,-1,-2,2
1470330574031457,-2,0,-1,-2,0,-1,-1,-2
1470330574031457,-2,-2,-1,-5,-1,-1,-1,-2
1470330574046455,-3,-3,6,6,-1,-2,0,-2
1470330574046455,-4,-3,2,-11,-4,0,-1,-2
1470330574047456,4,-4,0,5,-1,-2,-2,-3
1470330574047456,-3,2,1,-4,1,0,-2,0
1470330574068976,2,-2,-6,3,1,0,-1,-3
1470330574068976,-1,0,-2,4,-1,-3,0,0
1470330574069976,-3,-1,1,1,-2,-1,-1,1
1470330574069976,2,-4,-5,-2,0,1,0,-1
1470330574083491,0,1,1,-9,-4,-1,-3,-2
1470330574083491,-1,-7,-1,4,1,-2,0,-3
1470330574091497,1,3,4,2,3,1,2,-2
1470330574091497,0,-4,-20,0,-2,-2,0,0
1470330574106510,-1,-2,2,6,0,0,-1,2
1470330574106510,-2,1,0,-4,-3,-1,-1,-1
1470330574107513,-3,-2,2,-1,0,-3,-2,-2
1470330574107513,-2,-2,-1,-4,-2,-4,-2,-2
1470330574129057,-3,1,-3,-3,-1,0,-1,-2
1470330574129057,2,-4,3,3,0,-1,-1,0
1470330574129534,-2,0,2,-4,-2,-1,-1,0
1470330574129534,-1,1,1,-3,0,-2,-1,-1
1470330574143542,0,0,-4,-6,-2,0,-1,-1
1470330574143542,-3,-2,-3,-3,-3,-1,-1,-2
1470330574151577,-1,-3,-15,4,2,1,-2,-1
1470330574151577,-4,3,16,1,-4,-3,-1,-1
1470330574166578,0,-1,-8,5,0,-1,-1,0
1470330574166578,-2,-1,-1,-15,-2,-1,0,-3
1470330574167568,-3,-1,6,-18,-5,-3,-2,0
1470330574167568,1,-4,-12,8,4,2,0,2
1470330574189104,-3,1,4,1,-2,-1,-1,0
1470330574189104,0,0,-5,9,-2,0,0,0
1470330574189585,-3,3,-3,-3,-2,-3,1,0
1470330574189585,0,-3,6,0,-2,0,-3,0
1470330574212119,1,-2,-9,-7,3,-1,-1,-1
1470330574212119,-5,-2,-3,-1,-1,-3,-4,-2
1470330574213106,2,-3,4,2,-3,0,-1,1
1470330574213106,-1,1,3,-4,0,0,0,-3
1470330574226617,-1,-1,1,14,-1,-2,-2,-2
1470330574226617,-3,-1,-1,-7,-1,-1,1,0
1470330574227117,-1,0,-5,10,2,0,-1,-1
1470330574227117,-2,-1,-2,-10,-1,1,-1,0
1470330574249153,-3,0,1,0,-1,-3,1,1
1470330574249153,-1,-4,-6,-5,-3,-1,2,-1
1470330574249652,0,0,9,7,4,2,0,1
1470330574249652,-2,-2,-11,3,0,-1,-1,-2
1470330574272158,1,0,13,-4,-2,-1,-1,-2
1470330574272158,-1,-1,0,2,-2,-3,-2,2
1470330574273159,-2,0,-13,-4,-3,-4,0,-3
1470330574273159,3,-3,4,-1,0,-1,-1,-1
1470330574286670,0,2,-1,-3,0,3,-1,-1
1470330574286670,0,-1,-5,5,1,0,0,-3
1470330574287171,2,-1,13,-1,0,-2,-2,0
1470330574287171,-3,-3,-4,4,0,-1,-3,-1
1470330574309209,0,-4,-10,-18,-5,-2,-1,-1
1470330574309209,-2,1,6,4,-3,0,0,-1
1470330574309691,1,0,-10,-8,-4,-3,-2,-2
1470330574309691,0,-1,6,7,0,0,0,-4
1470330574332229,-3,1,2,0,1,-3,-1,0
1470330574332229,4,-3,-9,-8,-2,-2,0,0
1470330574333213,0,-4,1,3,-3,-2,-2,0
1470330574333213,-5,3,1,-3,-4,-3,-1,-1
1470330574346728,5,-2,7,3,0,-1,-1,-2
1470330574346728,-1,2,-7,-3,2,0,-3,-3
1470330574347227,-6,-3,-9,-6,-3,0,-1,-2
1470330574347227,-3,-3,5,5,0,-1,0,-1
1470330574369293,3,-4,-6,-3,-3,-3,0,-1
1470330574369293,3,4,16,9,0,0,-2,2
1470330574369745,1,0,-11,-10,0,1,-1,-1
1470330574369745,-2,-2,-4,-3,-1,0,1,0
1470330574392292,-2,-5,-4,-2,-1,-2,-1,-3
1470330574392292,4,-3,-3,-2,-1,-1,-1,1
1470330574393266,0,-1,6,3,1,-2,0,-3
1470330574393266,-2,-6,-8,-4,-2,-2,1,-1
1470330574406788,-9,-5,-13,-5,-1,0,-2,-1
1470330574406788,-6,-3,31,8,-1,-1,-1,-4
1470330574407309,10,8,2,3,0,1,1,4
1470330574407309,-7,-3,-4,-4,-3,-2,-3,-2
1470330574429298,-8,-5,-1,-2,1,1,-3,-1
1470330574429298,4,-4,-15,-4,0,-2,0,1
1470330574429801,0,-1,2,0,-1,3,-2,0
1470330574429801,4,-2,15,3,-1,-2,-3,-1
1470330574452319,1,6,-10,-1,-1,-2,0,-7
1470330574452319,-5,-5,-8,-6,-2,-1,1,-3
1470330574453320,0,-4,10,5,0,-4,-2,0
1470330574453320,4,6,-5,-3,-2,-2,-2,-5
1470330574466378,-1,-3,-10,-3,0,0,5,3
1470330574466378,6,-4,-7,-5,-1,0,-6,1
1470330574467333,-11,3,12,7,2,-3,4,-1
1470330574467333,-9,-7,0,-3,-5,1,-6,-3
1470330574488852,5,1,5,-1,-2,-1,-1,-3
1470330574488852,-2,-2,-24,-8,0,0,4,7
1470330574489853,3,-2,25,7,0,-2,0,-3
1470330574489853,1,4,-4,2,0,0,-1,1
1470330574512407,-1,4,3,1,1,-1,-1,3
1470330574512407,-6,-5,-14,-3,-3,-2,0,-5
1470330574512874,2,-6,-4,-4,-2,-3,-2,1
1470330574512874,3,-2,2,-3,-1,-4,3,3
1470330574526428,-5,-2,-5,4,-2,-1,-4,-7
1470330574526428,3,8,24,5,0,1,0,-2
1470330574527389,-4,-2,-19,-3,1,-1,-3,-1
1470330574527389,1,-3,-7,-4,-2,-2,-1,-3
1470330574549407,-13,3,-13,-5,-1,-2,0,1
1470330574549407,0,1,23,5,-2,-3,-3,-1
1470330574549908,-3,-5,-9,-2,0,-2,-2,-4
1470330574549908,6,4,-14,-9,-3,0,-1,2
1470330574572427,0,-4,5,-5,0,-1,-1,1
1470330574572427,-5,-2,14,7,-3,0,1,-3
1470330574572928,1,1,-13,-4,-3,0,-4,-1
1470330574572928,0,1,-1,4,2,0,1,2
1470330574586440,1,2,0,0,-4,1,-1,1
1470330574586440,-2,4,-5,-4,0,-1,-1,-4
1470330574587445,-2,-7,2,0,-6,-2,-2,0
1470330574587445,-6,1,-1,9,7,1,-1,-3
1470330574608961,2,-5,-13,-10,-9,-6,-3,-2
1470330574608961,0,-2,7,5,6,0,-2,-2
1470330574609961,0,-3,-9,-6,-2,1,1,-1
1470330574609961,2,-2,12,12,-4,0,1,1
1470330574632481,0,1,11,2,0,1,-2,-2
1470330574632481,-1,-4,-22,-12,-4,-3,-3,-1
1470330574632982,-3,1,-3,-6,-4,-3,-1,-3
1470330574632982,-5,0,7,-3,2,-1,0,-2
1470330574646995,4,-3,-4,2,2,2,0,-1
1470330574646995,-3,-3,-8,-2,-3,-3,-1,-1
1470330574647495,-3,1,-4,-1,2,-1,-1,-1
1470330574647495,-3,-2,1,-3,-6,-3,-2,-1
1470330574669014,2,-3,-4,-8,0,0,0,0
1470330574669014,0,0,-2,3,0,0,0,-1
1470330574670017,0,-1,3,1,0,-1,-2,0
1470330574670017,0,-4,-8,-6,-2,-2,-1,-2
1470330574692618,-2,-3,7,3,-2,-2,-1,1
1470330574692618,-5,4,-3,-1,-5,-2,0,-1
1470330574693036,0,-1,1,4,-2,-2,-1,0
1470330574693036,0,-5,-5,0,2,2,2,-2
1470330574706548,-2,-1,9,8,1,-2,-2,-1
1470330574706548,-1,-3,-5,-13,-3,-5,-1,-2
1470330574707098,-1,-2,2,2,-1,1,-2,-1
1470330574707098,-2,5,-8,-7,-4,-3,-3,-2
1470330574729103,-3,-2,-3,-5,0,-4,-1,-1
1470330574729103,3,0,12,9,-2,0,-2,2
1470330574729578,0,-6,-9,-4,-2,0,-1,-2
1470330574729578,-6,2,4,-9,-3,0,-1,-3
1470330574752090,3,-3,7,2,-1,2,-2,-2
1470330574752090,-2,-1,-5,-1,0,0,-1,2
1470330574753126,2,-3,-9,-11,-3,-1,-1,-1
1470330574753126,1,-2,-3,-1,0,-4,-2,0
1470330574766684,0,1,18,14,2,-1,-1,1
1470330574766684,1,-1,-10,-2,1,-1,-1,1
1470330574767107,-2,-1,-4,-1,1,0,-1,-2
1470330574767107,0,-4,-7,-3,-4,-3,-1,0
1470330574789148,-2,2,0,10,0,-2,-1,0
1470330574789148,-5,-4,-3,-17,0,2,0,-1
1470330574789650,2,3,5,9,-2,-2,-2,-2
1470330574789650,0,-6,-12,-12,-2,-1,-2,1
1470330574812183,-2,1,4,-1,0,-1,0,-1
1470330574812183,0,4,2,9,0,0,0,1
1470330574812681,-2,-4,-8,-7,0,0,-1,-2
1470330574812681,2,3,6,-1,-1,-1,0,-2
1470330574826230,0,1,-15,-3,-1,-1,-2,0
1470330574826230,1,-4,2,-2,-3,1,-1,-4
1470330574834188,-1,2,9,1,1,-1,-1,-3
1470330574834188,-11,1,13,9,1,-2,1,1
1470330574849204,5,-4,-13,-12,-2,0,-2,-2
1470330574849204,1,2,1,0,0,-3,-1,-2
1470330574849676,-1,-1,-5,-3,1,0,-1,-1
1470330574849676,2,-2,0,-1,-2,-1,-4,-1
1470330574872199,-4,1,-1,-2,-3,1,0,-1
1470330574872199,2,-5,3,1,-2,-2,-1,3
1470330574873229,-2,-2,1,-1,-3,-2,-2,-2
1470330574873229,4,-1,-4,-4,1,-1,0,-1
1470330574885708,-1,-4,-1,1,-1,-1,-1,-1
1470330574885708,-2,2,1,-3,-2,-4,-3,-2
1470330574894216,0,1,6,5,0,1,-1,1
1470330574894216,0,-2,0,6,-2,-1,0,-3
1470330574909229,0,-2,-4,-11,-4,0,1,-1
1470330574909229,4,-5,-15,2,-2,1,-1,-2
1470330574909730,-8,-2,8,-2,-1,-4,-2,1
1470330574909730,-2,-2,-3,-1,-2,-2,-3,-1
1470330574939766,1,3,2,-2,-3,-3,1,3
1470330574939766,-3,-3,-8,-4,0,1,-1,-3
1470330574940758,4,1,2,-2,-1,1,4,4
1470330574940758,3,1,0,2,0,-2,0,-2
1470330574945796,-5,1,-5,-4,1,2,-3,-3
1470330574945796,-4,-6,-4,-4,-3,-1,-1,2
1470330574954269,-2,2,7,5,1,0,-1,-2
1470330574954269,1,3,-9,-9,0,-3,-1,-1
1470330574969309,5,1,8,3,-4,-3,-1,1
1470330574969309,-10,1,12,9,2,-1,-2,-4
1470330574969784,-1,-1,-17,-7,-1,-2,-3,0
