timestamp,emg1,emg2,emg3,emg4,emg5,emg6,emg7,emg8
1472092257794347,-2,2,6,-2,0,-1,-2,-2
1472092257794347,0,-7,-6,1,-1,-2,-1,-1
1472092257798350,-1,0,26,-1,0,0,-1,-1
1472092257798350,-2,1,-3,-2,-2,-3,0,-2
1472092257799351,0,-1,2,1,-2,-1,1,0
1472092257799351,1,2,-8,1,-1,-1,1,-1
1472092257799853,-2,-5,-1,-2,-1,-2,0,-3
1472092257799853,-1,2,2,-1,0,-1,-1,-1
1472092257805857,-1,-4,-10,-2,-1,0,-1,0
1472092257805857,0,4,3,-1,0,-1,0,-1
1472092257812864,-3,-2,4,0,-2,-3,-1,-1
1472092257812864,0,-4,-20,-1,0,-1,-1,-1
1472092257826877,-1,-1,-15,0,0,-2,0,-1
1472092257826877,0,1,13,-2,0,-2,-1,1
1472092257833883,0,2,-2,1,0,2,0,0
1472092257833883,-2,-2,5,-1,-2,-1,-2,-1
1472092257845394,-2,0,-8,0,-1,-1,-1,-1
1472092257845394,-3,-6,-1,-3,-2,-1,-1,-2
1472092257865411,0,4,-2,0,-2,-1,0,-1
1472092257865411,-2,-2,2,0,-1,0,-1,0
1472092257866913,0,-3,3,0,-2,0,0,0
1472092257866913,-1,-2,-3,-1,-1,-1,-1,-2
1472092257912453,-5,-13,-34,-9,-4,-2,-2,-2
1472092257912453,-3,-4,-13,-3,-1,-2,-2,-1
1472092257912954,-1,0,-2,0,0,0,0,-1
1472092257912954,-1,1,3,-1,-1,-1,-2,-3
1472092257913955,2,5,19,4,1,0,0,2
1472092257913955,-2,-10,-21,-1,-1,-1,2,-3
1472092257916457,-2,-4,-6,-3,-1,-1,-2,-2
1472092257916457,1,3,12,2,-1,0,1,1
1472092257925465,-3,-8,-1,-2,1,0,0,-2
1472092257925465,0,6,20,1,-1,-3,-2,-1
1472092257931471,-1,-2,6,0,-1,-1,-1,-1
1472092257931471,-2,-2,-12,-2,-2,1,-3,0
1472092257947985,1,1,7,0,1,-2,-1,1
1472092257947985,0,4,3,1,-1,1,-1,1
1472092257953991,-1,-7,-1,-5,-4,-1,-1,-3
1472092257953991,1,1,26,0,0,-2,0,-1
1472092257963000,-4,1,-24,-4,-3,-3,0,0
1472092257963000,-2,-1,-1,1,-2,0,1,0
1472092257985528,-1,5,13,3,1,1,1,0
1472092257985528,-2,-6,-7,-1,-2,-1,-1,-2
1472092257987029,-1,2,4,-1,0,-2,-4,-1
1472092257987029,-1,-4,-11,0,1,-2,-2,0
1472092257999040,-3,-4,-4,-2,-2,-2,0,0
1472092257999040,-1,-7,9,-1,2,-2,-1,-2
1472092258008061,2,7,-4,2,-1,-1,0,-1
1472092258008061,-2,-1,-13,-3,-3,-2,0,0
1472092258022591,-2,-5,5,-1,-3,-3,-2,-1
1472092258022591,-2,-1,-10,-6,-2,0,-1,-2
1472092258024592,-1,-1,11,-1,-1,0,0,-2
1472092258024592,-2,-1,6,-2,1,0,-3,-1
1472092258045137,0,-2,-8,1,-1,-1,-1,1
1472092258045137,0,-1,-10,1,-1,-1,0,-2
1472092258046638,-1,-3,-9,1,0,1,0,-2
1472092258046638,-1,-9,0,-2,-1,0,0,-2
1472092258059162,-1,4,19,-1,0,-2,1,-2
1472092258059162,1,1,-5,-1,-1,-1,-1,1
1472092258067670,-2,-4,-11,-3,-2,-2,-1,-1
1472092258067670,-1,-2,5,2,-1,-2,-1,1
1472092258082695,-1,0,-5,-2,1,-1,-2,-1
1472092258082695,-1,-1,0,0,-2,-3,0,-1
1472092258084196,1,4,10,2,0,2,-1,-1
1472092258084196,-1,-3,-24,-4,-1,-1,-1,-1
1472092258105228,-1,-2,4,-1,0,-1,-1,1
1472092258105228,-4,-4,-9,-2,-2,-3,0,-2
1472092258106727,-1,-8,-31,-3,-2,-1,-1,-3
1472092258106727,-2,3,25,-2,-1,-1,-1,-1
1472092258118753,0,0,-10,-1,0,-1,-1,-1
1472092258118753,-2,1,-4,0,0,-1,1,0
1472092258127783,1,0,2,1,-1,-1,-1,2
1472092258127783,1,6,3,0,-1,1,0,-3
1472092258142804,-4,-10,0,-2,-2,-1,-2,-2
1472092258142804,-1,-2,0,-3,-2,0,-2,-1
1472092258144305,-1,0,6,-2,-1,-1,-1,-2
1472092258144305,2,4,2,-1,1,-1,0,1
1472092258165336,-1,1,0,0,-1,-1,-2,-1
1472092258165336,-2,-3,-6,0,-1,-2,-3,-1
1472092258166838,-3,-1,7,-2,-1,0,0,-2
1472092258166838,0,1,0,2,0,-3,1,-2
1472092258178849,-1,2,8,2,0,-1,0,0
1472092258178849,-2,-10,-24,-6,-1,-2,-2,-1
1472092258187857,-1,2,18,-1,-3,-1,-1,-1
1472092258187857,0,-3,0,-1,0,0,-2,-1
1472092258202870,-1,1,-20,-3,-1,0,-3,-2
1472092258202870,1,6,10,2,1,1,-2,0
1472092258204372,-1,-2,10,-1,0,-1,-1,0
1472092258204372,-1,0,-10,1,0,-1,-1,0
1472092258225390,-1,0,0,2,1,1,1,-1
1472092258225390,-2,-4,14,-3,-1,-3,-1,-1
1472092258226892,0,1,-30,-2,0,-2,-2,-3
1472092258226892,-3,1,18,-1,-1,-2,-1,-1
1472092258238903,1,0,-18,-1,-1,-1,0,0
1472092258238903,-1,2,-7,3,0,-1,-1,-1
1472092258247911,1,-2,6,1,0,-3,0,-1
1472092258247911,-1,-1,-4,2,-2,-2,-2,-1
1472092258262924,-2,1,1,-4,-3,-3,-2,-1
1472092258262924,-2,-2,-2,-2,-2,-2,1,-1
1472092258264426,-2,-1,12,1,-1,0,1,0
1472092258264426,-1,-3,-7,0,-1,-1,-2,-2
1472092258285444,-2,-1,-12,-1,1,0,-1,1
1472092258285444,-1,-3,4,-1,-2,1,-1,-1
1472092258286946,-3,1,9,-1,-1,-1,-3,-1
1472092258286946,1,-5,8,-2,-1,-2,-2,0
1472092258298957,-2,-10,-19,-6,-3,-3,-1,-2
1472092258298957,-2,2,-7,1,-2,-2,-1,-1
1472092258307965,-1,1,12,1,1,-1,-1,-1
1472092258307965,-2,-3,1,-4,-3,-1,0,-2
1472092258322978,2,0,13,1,1,-1,-1,-1
1472092258322978,2,2,-6,-2,0,0,0,0
1472092258324480,0,1,-2,0,-1,-1,1,-1
1472092258324480,-1,-3,16,1,0,0,-3,-2
1472092258345499,-2,1,-4,-1,-1,-2,-1,-2
1472092258345499,-1,-5,-38,-2,-1,0,-3,-2
1472092258347001,1,2,4,-2,-3,-1,-2,-1
1472092258347001,1,1,1,0,1,1,-1,1
1472092258359011,-1,2,15,3,1,-1,-1,0
1472092258359011,-1,1,18,2,1,-1,0,-1
1472092258368019,-1,-3,-10,-4,0,0,-1,-1
1472092258368019,-1,-1,-13,-5,-2,0,1,0
1472092258383033,0,1,2,-1,-2,-1,0,-1
1472092258383033,0,4,9,0,-1,-1,-3,-2
1472092258384534,-1,-11,-29,-1,-1,-1,-1,0
1472092258384534,0,2,9,2,-2,0,0,-1
1472092258405052,-1,-4,-16,-2,-1,-2,-1,-2
1472092258405052,-2,-2,-3,1,-1,0,0,0
1472092258407055,-2,-1,22,-1,0,-1,0,-2
1472092258407055,-3,-1,6,-3,-3,-2,-3,-2
1472092258419065,-1,-2,-7,-2,-1,1,-2,0
1472092258419065,-1,2,19,1,1,-2,-1,-1
1472092258428073,1,3,-7,3,0,0,-1,2
1472092258428073,-2,-6,-14,-1,0,0,-1,-1
1472092258443087,0,2,6,-3,-1,-3,0,0
1472092258443087,-1,-1,14,-2,0,0,-1,0
1472092258444588,0,-1,-1,0,-1,0,-2,-2
1472092258444588,0,0,-43,-4,-1,-1,-1,-1
1472092258465107,0,-3,1,-1,-2,-1,-1,-1
1472092258465107,-2,-7,-5,-2,-3,-1,0,-2
1472092258467109,-2,-1,13,-1,-2,-2,-2,0
1472092258467109,0,1,4,0,-1,-1,-1,-1
1472092258479119,0,-4,-19,0,-1,-1,0,-2
1472092258479119,-1,0,3,-1,-1,-1,0,-1
1472092258488128,-3,-6,7,-3,-2,-1,-2,-4
1472092258488128,-2,-4,-3,-2,0,0,-2,0
1472092258502641,1,7,4,1,0,0,-1,1
1472092258502641,0,-1,-5,-1,0,-1,0,-2
1472092258504642,-2,-10,-9,-2,-2,1,1,-1
1472092258504642,-4,-1,2,0,0,-3,-2,-1
1472092258525161,-2,1,20,0,-1,-3,-1,-1
1472092258525161,2,2,-1,1,0,0,-1,1
1472092258526663,1,4,10,0,0,0,-1,1
1472092258526663,1,0,-4,1,0,2,0,-2
1472092258539174,-2,-4,10,-4,0,-3,-2,-2
1472092258539174,-4,-7,-6,-4,-3,-2,-2,-1
1472092258547682,-1,1,-4,-1,0,-3,-2,0
1472092258547682,0,-2,2,-2,-1,-2,0,-1
1472092258562695,0,0,-5,0,-2,0,-2,-1
1472092258562695,1,0,4,0,-1,0,-1,-2
1472092258564196,-1,0,-10,-3,-2,-3,-1,-1
1472092258564196,-1,-1,19,0,-2,0,0,-2
1472092258585215,0,-5,-54,-4,0,0,-2,-1
1472092258585215,-1,6,14,-2,-1,-2,-2,1
1472092258586717,-1,-8,-4,1,1,1,0,0
1472092258586717,-3,-8,-17,-4,-2,-3,-1,-2
1472092258598728,0,3,27,1,-1,1,0,2
1472092258598728,-3,-5,-16,-1,0,-1,-1,-2
1472092258607735,-2,3,16,-3,-3,-1,-2,-1
1472092258607735,2,6,3,0,0,-2,0,0
1472092258622749,-2,-6,0,2,-2,1,-2,-1
1472092258622749,1,-2,-13,-2,0,-3,-1,0
1472092258624251,-3,1,-4,0,-1,-2,-1,-1
1472092258624251,-1,-4,0,0,0,-2,-2,0
1472092258645281,0,1,21,0,0,0,0,0
1472092258645281,-1,-4,-1,-2,-1,-1,-1,-1
1472092258646782,0,-4,-20,-3,-1,-1,-2,-1
1472092258646782,1,1,9,-2,-1,-1,-1,0
1472092258658803,-1,2,8,1,1,0,0,-3
1472092258658803,-1,1,15,0,0,-1,-1,-2
1472092258667825,-1,1,-9,2,1,1,1,-2
1472092258667825,0,3,8,0,-2,-1,-1,-2
1472092258683351,1,4,6,-1,-2,-1,-1,0
1472092258683351,-1,-7,-16,-3,-2,0,-1,-1
1472092258684852,-2,-1,-4,-1,-2,-1,-1,-1
1472092258684852,2,0,-12,1,0,-1,0,0
1472092258705398,-5,-4,-1,-2,-3,-2,-1,-3
1472092258705398,1,5,16,1,0,0,0,0
1472092258706900,-2,-1,-4,-2,-1,0,-1,-1
1472092258706900,1,-3,-14,-2,-2,-2,-1,0
1472092258727918,-2,-4,-13,-3,-2,-3,-2,-2
1472092258727918,-2,1,-3,0,-1,-2,-3,0
1472092258729420,2,5,17,2,-1,-3,-1,0
1472092258729420,-2,-2,-2,0,-2,-1,-1,-1
1472092258742959,-3,5,17,-2,-3,-3,-2,0
1472092258742959,-1,-5,-29,-1,-3,1,2,-2
1472092258744461,-1,-2,10,1,1,0,-2,-1
1472092258744461,-1,-4,-47,-2,-1,1,-1,0
1472092258765488,-1,-3,-4,-2,-1,-1,0,2
1472092258765488,-1,2,10,0,0,-1,-1,-1
1472092258766991,-1,-11,-22,-6,-4,-2,-2,-1
1472092258766991,0,4,25,0,-2,1,-1,-2
1472092258787770,0,-4,-2,0,-1,-1,-1,-2
1472092258787770,-2,-7,-11,-2,0,0,-1,1
1472092258789273,1,-1,-16,-1,-1,-1,-2,-1
1472092258789273,-1,0,17,-1,-1,-2,-2,-2
1472092258802766,3,0,9,0,0,0,-1,0
1472092258802766,-1,2,-2,-1,-2,-1,-2,-2
1472092258804269,-1,1,-1,0,-1,0,0,0
1472092258804269,-2,-2,-2,-1,1,-2,0,-3
1472092258825305,-1,4,38,3,-1,1,0,0
1472092258825305,-1,-4,-41,-2,0,-1,-1,0
1472092258826806,0,2,11,1,0,1,1,0
1472092258826806,-1,6,19,0,-1,-1,-2,0
1472092258848063,-5,-20,-29,-4,-4,-2,-3,-3
1472092258848063,-1,4,23,-1,-1,-1,-1,-1
1472092258849564,0,-1,-7,-1,-1,-1,0,-1
1472092258849564,-1,-2,1,0,-1,-1,-1,0
1472092258862075,1,4,-12,-3,1,0,0,0
1472092258862075,2,6,13,2,-1,-1,1,0
1472092258869095,-1,-10,-8,-1,1,0,-2,0
1472092258869095,-4,-12,-20,-8,-3,-2,-3,-3
1472092258884128,1,4,1,1,0,0,-1,0
1472092258884128,0,0,-3,-1,-1,-1,-1,-1
1472092258900482,2,7,11,3,-2,0,-1,-2
1472092258900482,-2,-9,-18,-2,0,0,-1,-1
1472092258907999,-2,-1,-12,-2,-1,-1,0,-2
1472092258907999,0,2,13,-1,-2,-2,0,-1
1472092258909503,0,3,5,-2,-2,-3,0,0
1472092258909503,-3,3,5,-2,0,-1,0,-1
1472092258930530,-2,-5,-7,0,0,-2,-1,-2
1472092258930530,0,5,24,0,0,-2,-1,-1
1472092258932032,-2,-9,-45,-6,-2,-2,-1,-1
1472092258932032,0,2,-1,-2,-2,-1,-2,0
1472092258944053,2,1,-5,-1,1,-1,0,1
1472092258944053,0,-4,14,0,-1,1,-1,-1
1472092258960591,-3,0,12,0,-1,-1,-1,0
1472092258960591,-3,-6,-1,-1,0,-1,-1,-1
1472092258968114,-1,-3,-6,0,0,0,-2,-1
1472092258968114,-1,7,-15,-3,0,-2,0,0
1472092258969615,0,-3,10,-4,-2,-2,0,-3
1472092258969615,0,0,12,1,0,-1,0,0
1472092258990147,0,5,2,0,-1,1,-1,-2
1472092258990147,-2,-7,-53,-4,-2,-1,-3,-1
1472092258992150,-2,1,24,-1,-1,0,-1,-1
1472092258992150,0,-1,-10,-1,-1,-1,-1,-1
1472092259004172,-1,-2,-5,0,-2,-2,-1,1
1472092259004172,-2,-3,16,1,0,1,-1,-1
1472092259012691,-2,-2,-4,1,0,-1,0,-2
1472092259012691,-2,-6,-3,-1,-4,-3,-2,-2
1472092259027704,1,3,10,-1,1,-1,0,1
1472092259027704,-1,-5,-8,-3,0,0,-2,-2
1472092259029206,-1,1,-8,2,-2,-2,-2,0
1472092259029206,0,-4,21,-2,-1,0,-2,-1
1472092259050241,-1,1,1,-1,-1,-2,-1,-1
1472092259050241,-4,-17,-6,-2,0,0,-2,-2
1472092259051742,0,7,-18,-5,-1,0,-1,0
1472092259051742,1,9,-2,2,1,0,0,0
1472092259063753,-2,-10,3,-2,-4,-2,-2,-1
1472092259063753,1,1,18,-1,-1,-2,-2,0
1472092259072777,-2,-3,-7,-2,-1,-3,-1,-1
1472092259072777,0,13,-2,0,1,0,1,1
1472092259087812,-4,-19,7,-5,0,-1,1,-2
1472092259087812,-2,1,2,-2,-4,0,-1,-2
1472092259089313,0,-1,17,2,0,0,-2,1
1472092259089313,-1,1,-40,0,-1,-2,-1,-1
1472092259110348,-3,-2,-15,-3,-1,1,-1,-2
1472092259110348,-1,-1,8,-1,-1,-2,0,0
1472092259111849,-1,-4,-20,-2,1,0,0,-1
1472092259111849,1,3,33,2,-1,0,-2,-1
1472092259123859,-2,-3,-13,1,-2,-1,-2,-2
1472092259123859,-1,-2,-6,-4,-1,-2,-2,0
1472092259132868,-1,4,11,-1,-2,-1,0,0
1472092259132868,0,-3,0,0,-1,-2,1,-1
1472092259147895,2,3,-6,-1,0,1,0,-1
1472092259147895,1,0,0,1,-1,0,0,-2
1472092259149400,-1,-8,-9,-3,0,-1,-2,-1
1472092259149400,-1,-1,10,1,0,0,-2,0
1472092259170429,3,9,2,-2,-2,0,-2,1
1472092259170429,-2,1,-39,-2,-2,0,1,-1
1472092259171930,-2,-1,0,-1,-1,1,-1,0
1472092259171930,-2,-1,19,1,0,-1,-1,-1
1472092259192973,-1,3,7,0,-1,-1,-1,-1
1472092259192973,-2,-8,-12,-4,-1,-2,-1,-1
1472092259194476,0,1,8,0,0,0,-1,-2
1472092259194476,0,-2,-18,-5,-2,-1,0,-1
1472092259206987,1,2,10,2,-1,0,0,0
1472092259206987,-1,3,6,0,0,0,-1,0
1472092259214007,-4,-13,-24,-6,-5,-1,-1,-2
1472092259214007,0,0,20,2,0,1,-2,-1
1472092259230522,-1,0,-16,0,0,-2,-1,-2
1472092259230522,0,3,-30,-1,-1,-2,-1,-2
1472092259232024,0,-1,17,0,-2,-1,-2,-1
1472092259232024,-1,0,2,-2,-1,-1,-1,-2
1472092259253051,-2,-11,-25,-2,-3,2,-1,0
1472092259253051,0,1,38,-1,-2,-2,0,0
1472092259254552,0,1,-17,2,0,1,-1,-2
1472092259254552,-3,-4,-10,-2,-1,-2,-1,-2
1472092259267573,-1,1,-3,-2,1,0,-2,0
1472092259267573,-1,-1,1,-1,1,0,-2,-1
1472092259269575,0,-5,0,1,-1,0,-1,-1
1472092259269575,-3,1,9,-2,-2,-2,-1,-1
1472092259290106,-1,-3,13,-3,0,-1,-1,-2
1472092259290106,1,6,3,-2,0,0,-1,0
1472092259292114,1,2,6,-2,1,-2,1,-1
1472092259292114,-3,-5,-13,-2,-1,-1,-2,0
1472092259312829,-1,-3,6,0,0,-3,-2,-1
1472092259312829,-3,-4,6,-1,-2,-1,0,0
1472092259314333,-2,4,-1,2,1,-2,-2,-2
1472092259314333,1,-4,0,-2,0,0,-2,-1
1472092259327843,-1,7,26,0,-1,-4,-1,-2
1472092259327843,1,-3,-15,1,-1,-1,-1,0
1472092259329346,-2,1,6,-2,-1,-2,-2,-2
1472092259329346,-1,-4,-8,-1,-2,0,-1,-1
1472092259350387,-1,1,-2,1,-1,-1,-2,0
1472092259350387,-1,-6,-9,-1,-1,-2,-2,-1
1472092259351917,0,3,8,1,-1,0,2,-1
1472092259351917,-1,-3,2,-3,-2,0,-2,-2
1472092259372743,-2,-7,-21,-5,-1,-1,0,1
1472092259372743,-2,0,6,-2,-1,-2,-1,-3
1472092259374733,-4,-5,-19,-3,-3,-2,-1,-1
1472092259374733,-2,0,22,-1,-1,-1,-2,-2
1472092259387325,0,-3,-23,0,-2,-1,-1,0
1472092259387325,0,4,17,0,1,-1,-1,-1
1472092259394131,-3,-5,10,-3,-1,-3,-1,-2
1472092259394131,-1,2,-13,3,1,0,0,-2
1472092259410226,-3,1,-16,-1,0,-1,-1,0
1472092259410226,-1,-4,-9,1,0,-1,-1,0
1472092259411190,-2,-5,-9,-2,-1,-1,0,0
1472092259411190,2,1,7,0,0,-2,-1,-1
1472092259432787,2,2,13,0,-2,1,-1,-1
1472092259432787,-1,-1,-32,-4,-2,-1,-4,-1
1472092259434234,0,3,9,1,-1,-2,-1,1
1472092259434234,-2,-4,-6,-2,-2,0,-2,0
1472092259447258,-2,-1,1,1,0,0,0,0
1472092259447258,-2,-1,7,-1,-1,-1,0,0
1472092259454309,1,2,14,1,0,0,0,1
1472092259454309,-1,-3,-12,0,1,-1,0,-1
1472092259470278,0,0,-26,1,1,0,0,-2
1472092259470278,-4,-6,18,-4,-4,-1,-1,-1
1472092259472279,-1,0,38,-1,-1,-1,0,0
1472092259472279,-2,-3,-33,-5,-2,-2,-1,-1
1472092259492410,-1,7,11,0,0,0,-1,0
1472092259492410,1,-2,-3,3,1,-1,-1,0
1472092259494417,0,0,-4,0,-1,-1,-2,-1
1472092259494417,1,-6,2,-2,-1,-2,2,-1
1472092259506973,-3,3,13,-1,0,-1,-2,-3
1472092259506973,-2,-9,-26,-1,-2,-3,-1,-2
1472092259514015,1,7,-2,0,-3,1,-2,-1
1472092259514015,-2,-13,-7,-4,-1,-1,-2,-1
1472092259530499,-2,0,-10,-2,-1,0,0,-1
1472092259530499,-2,3,36,2,-2,1,-1,-3
1472092259532037,-1,0,-24,-3,-1,-2,0,-1
1472092259532037,-2,3,-3,-1,-1,-2,-1,-1
1472092259552725,-2,-6,2,1,0,-1,-1,1
1472092259552725,-3,-5,1,0,-1,0,1,0
1472092259554231,-1,-1,-18,-1,-1,0,-1,-3
1472092259554231,2,3,-7,-2,-2,-1,-1,0
1472092259567362,1,-1,6,-2,-1,-2,-2,0
1472092259567362,2,2,4,0,1,-1,0,-2
1472092259573872,-1,-5,1,-3,-1,-1,-3,0
1472092259573872,0,-1,1,0,-1,-1,-1,-3
1472092259590447,-2,2,9,0,-4,-1,-1,-2
1472092259590447,1,-1,1,1,1,0,0,0
1472092259591950,-1,-8,-21,-4,-2,0,0,-1
1472092259591950,-3,0,-3,-3,-2,-2,-1,-1
1472092259612819,-4,2,8,-1,0,-2,-2,-3
1472092259612819,-3,-12,-21,-6,-1,-2,-1,-1
1472092259613764,3,5,26,4,0,0,0,0
1472092259613764,2,2,-8,3,1,-1,-1,2
1472092259627162,0,-9,-15,-4,-1,-2,-1,-1
1472092259627162,0,8,24,4,0,1,-1,-1
1472092259634138,-3,-4,-5,-1,-2,-2,-1,-2
1472092259634138,1,2,16,0,0,-1,-1,-1
1472092259650111,-1,-4,-58,-5,0,0,0,-3
1472092259650111,-2,-4,4,-1,0,0,-1,-1
1472092259652081,0,1,19,0,-1,-1,0,0
1472092259652081,-2,4,5,0,-1,1,0,0
1472092259672648,0,7,10,3,-2,-3,0,-1
1472092259672648,0,-2,-24,-2,-1,0,-2,-1
1472092259674616,-2,-1,16,-1,0,-1,-1,-3
1472092259674616,-4,-1,-7,-1,-2,-2,-1,-4
1472092259686668,0,-1,5,-2,-2,-1,-2,-1
1472092259686668,-3,-3,5,-2,-2,-2,-1,0
1472092259695177,2,-1,6,0,0,-1,-1,-1
1472092259695177,0,-5,-7,0,-2,-1,2,0
1472092259710236,-2,6,27,2,-1,1,0,0
1472092259710236,0,0,-23,2,0,0,1,1
1472092259711707,-5,-18,-12,-3,-2,-1,-2,-1
1472092259711707,2,6,35,4,-1,-1,-1,1
1472092259732806,2,7,-15,0,-3,-2,0,0
1472092259732806,-6,-8,3,-3,1,-3,-3,-1
1472092259734308,0,-3,-2,-7,-4,-1,-2,-1
1472092259734308,1,-10,-26,-1,-1,-6,-2,1
1472092259746312,-2,-15,42,13,7,5,3,0
1472092259746312,-7,-8,-43,-6,-7,-6,-3,-5
1472092259755332,1,23,-8,3,2,4,1,1
1472092259755332,-2,-3,0,-3,-2,-3,-1,-3
1472092259770417,1,-6,-10,-5,-5,-2,-3,-1
1472092259770417,3,8,20,-2,-3,-1,0,2
1472092259771902,-5,-16,4,-3,-2,-4,-6,-5
1472092259771902,2,10,2,0,1,1,3,1
1472092259792990,-1,3,-9,-3,1,2,0,-2
1472092259792990,-1,-4,1,-1,-1,-1,-1,-1
1472092259794494,3,10,3,1,-3,-2,0,0
1472092259794494,-1,-3,0,3,1,1,1,1
1472092259806594,-3,-4,-13,-5,-1,-4,-3,-1
1472092259806594,0,3,27,3,-6,-3,-2,1
1472092259815620,0,-22,-44,-4,-1,-1,0,-2
1472092259815620,-3,30,25,-4,-2,1,-3,-4
1472092259830654,-1,-38,-27,-6,0,-1,2,1
1472092259830654,0,15,16,4,0,-1,-1,-4
1472092259832124,-3,27,11,10,0,-7,1,1
1472092259832124,-2,-38,-24,-4,4,4,2,-1
1472092259852707,6,52,14,-4,-1,-3,0,0
1472092259852707,-1,-23,-5,2,-1,-1,0,0
1472092259854208,-1,-12,3,0,-4,4,0,-1
1472092259854208,3,-1,9,2,-6,-5,-4,1
1472092259866790,-4,16,16,6,-2,-3,-5,-3
1472092259866790,0,-11,-18,-14,-5,2,1,0
1472092259875357,5,17,-22,0,4,-2,2,3
1472092259875357,-15,-32,4,-15,-6,-5,-6,-8
1472092259890464,0,-3,-6,-5,-3,2,1,0
1472092259890464,2,13,-4,1,8,1,0,0
1472092259891968,-1,-22,17,-1,-2,1,-1,-1
1472092259891968,8,34,-8,1,-2,-5,0,1
1472092259913061,-3,-20,18,7,2,0,-2,0
1472092259913061,0,2,5,-3,20,-6,1,-2
1472092259914563,1,3,-17,-7,-18,6,1,-1
1472092259914563,4,-5,9,9,5,5,2,2
1472092259926573,-8,25,19,0,-3,-3,-1,-3
1472092259926573,-4,-8,-2,6,3,-4,-3,-1
1472092259935581,-2,3,-15,-5,2,-5,-2,-1
1472092259935581,-2,0,2,-3,-1,-6,-2,0
1472092259949725,3,-11,0,-4,-3,-1,-1,0
1472092259949725,-2,15,9,-3,-9,0,1,-1
1472092259956233,0,-19,-11,1,3,1,0,-1
1472092259956233,-6,8,-19,-2,-3,-1,-3,-3
1472092259973013,3,-2,-1,1,1,-4,-2,1
1472092259973013,1,1,-15,-3,-9,2,0,-1
1472092259974427,0,0,16,-3,1,-4,-3,-1
1472092259974427,1,4,0,3,2,4,5,-1
1472092259986582,-2,-18,-25,2,3,0,-1,0
1472092259986582,2,-15,18,0,-3,-4,-2,-2
1472092259995681,-7,14,-5,-2,2,1,-3,-2
1472092259995681,1,-12,5,-5,-5,-2,-1,-1
1472092260009673,-2,6,-3,1,-6,-8,0,-1
1472092260009673,0,-16,7,-1,-1,6,4,2
1472092260016179,-1,10,7,-5,3,0,1,-2
1472092260016179,-1,-6,-6,0,-1,3,-2,-1
1472092260032694,0,-7,-1,-8,-3,-6,-3,0
1472092260032694,-1,3,-2,4,-2,0,1,0
1472092260034196,3,2,-3,5,20,1,1,1
1472092260034196,-2,2,-12,1,-19,2,1,-1
1472092260046560,-2,-14,3,-2,0,-3,1,-1
1472092260046560,1,2,-2,-2,-5,-2,-1,-3
1472092260055559,-1,5,2,-4,0,-3,-4,0
1472092260055559,-1,-10,7,-3,20,0,-2,1
1472092260069614,1,-6,-7,2,-7,7,0,1
1472092260069614,6,20,5,6,3,0,1,2
1472092260076605,-6,-8,7,4,-8,-2,-1,-1
1472092260076605,-2,3,7,-1,5,-2,1,-1
1472092260092631,-2,4,11,-5,-5,-2,-5,-2
1472092260092631,-4,-17,-13,-5,2,0,0,0
1472092260094673,0,7,0,0,-5,-2,-1,-2
1472092260094673,1,5,-6,-2,-4,-2,-3,0
1472092260106188,1,-9,11,2,5,4,2,-1
1472092260106188,-3,4,-6,1,-6,-3,-2,-4
1472092260115195,-3,-10,-1,-7,-3,-1,-1,-2
1472092260115195,-1,-6,-17,-8,-8,-8,-3,-2
1472092260129723,0,18,3,2,0,6,0,0
1472092260129723,-2,11,9,1,6,2,-2,-1
1472092260136215,-2,-25,-36,-4,-2,-1,1,1
1472092260136215,-1,10,13,0,-1,-2,-1,-1
1472092260153583,-1,1,-7,0,0,0,1,2
1472092260153583,-1,-1,-6,-7,-6,-5,-3,-1
1472092260155092,2,-5,10,0,9,2,-2,-2
1472092260155092,-2,3,-5,7,-23,1,3,2
1472092260175375,-1,2,-6,-4,0,0,-2,-3
1472092260175375,-2,8,-3,-1,-4,-2,-1,-1
1472092260176876,0,-5,11,-2,-7,-3,-1,0
1472092260176876,-2,-15,9,8,9,-1,-1,-2
1472092260189895,-3,2,-5,-7,1,2,0,-3
1472092260189895,-1,0,1,-1,-3,0,0,0
1472092260196322,1,7,8,3,-5,-4,0,-3
1472092260196322,1,-3,0,5,6,4,0,3
1472092260212843,-2,-7,-7,-2,-9,-5,-1,0
1472092260212843,-3,-5,1,-4,7,-1,-2,-3
1472092260214701,0,1,-3,4,-2,-1,-3,0
1472092260214701,-1,-1,-1,-6,-6,-3,0,-1
1472092260235231,0,10,4,-4,8,3,0,-3
1472092260235231,-2,-5,-43,-2,-1,1,0,0
1472092260236733,0,3,18,2,10,-1,-1,0
1472092260236733,-2,-17,-20,-7,-11,-1,-2,-3
1472092260249750,0,23,0,-7,-2,-8,-3,-1
1472092260249750,-1,-5,16,-3,-7,1,-2,-3
1472092260256315,0,-4,-5,13,2,1,0,0
1472092260256315,1,8,5,-4,10,2,-2,0
1472092260272926,-2,-14,9,12,-1,0,1,-2
1472092260272926,1,6,4,-8,1,-3,1,0
1472092260274400,-3,-8,-10,-3,-5,1,0,-1
1472092260274400,-2,3,-10,-2,3,-3,-1,-1
1472092260295049,-1,-15,1,-8,-5,-5,-2,-2
1472092260295049,-2,4,-3,5,19,0,-1,-1
1472092260297144,-2,2,0,-15,-22,-1,-3,-1
1472092260297144,1,2,-1,8,3,-2,-1,0
1472092260309257,1,-8,-9,3,3,0,1,-1
1472092260309257,1,-3,1,0,-1,0,1,1
1472092260317808,1,8,13,-1,0,-3,-2,-3
1472092260317808,3,12,2,10,8,5,1,0
1472092260332809,-4,-25,3,-4,1,-2,-2,0
1472092260332809,0,9,15,-3,-12,-2,-2,-2
1472092260334311,-2,3,-9,-8,-2,2,1,-1
1472092260334311,-2,-2,5,-3,-3,-1,0,-2
1472092260355420,1,2,6,4,3,-2,2,-1
1472092260355420,-1,-6,-6,-3,-4,-1,-1,0
1472092260356928,-3,-3,-10,-6,-1,-2,-2,-2
1472092260356928,0,0,6,-2,3,-1,-4,-2
1472092260369025,1,0,-12,-1,-2,3,-1,2
1472092260369025,1,-1,2,6,-3,-1,-2,-1
1472092260378066,-2,-7,-22,-9,1,-3,0,0
1472092260378066,-3,-1,-10,-6,2,-4,-1,0
1472092260392885,-2,1,10,-1,-30,-4,-5,-2
1472092260392885,0,1,0,-2,-2,-1,-2,-1
1472092260394360,0,-2,10,9,2,3,0,-2
1472092260394360,-2,1,17,-8,0,-1,1,-2
1472092260415502,-1,-3,-16,5,12,1,1,0
1472092260415502,-1,-5,2,1,-3,-3,0,-1
1472092260417097,-2,-7,1,1,-8,0,-1,0
1472092260417097,-1,-3,-4,-2,-2,-4,-1,-1
1472092260438201,0,3,0,0,4,1,1,-2
1472092260438201,-2,-4,-2,-4,-6,-2,-3,-2
1472092260439705,-1,10,0,-1,-3,-2,-2,-1
1472092260439705,-1,-8,11,-2,1,-3,-1,-2
1472092260452806,0,4,-19,5,10,7,-2,1
1472092260452806,-2,-12,-43,-9,-5,-3,-1,1
1472092260454307,1,3,20,-1,-3,-7,-2,0
1472092260454307,0,8,15,7,-5,-3,-3,-2
1472092260475466,-1,-10,-18,-11,17,0,-5,-1
1472092260475466,-4,2,9,-8,-8,1,0,-2
1472092260477028,0,-5,-18,0,2,0,-1,0
1472092260477028,-2,-1,7,-1,-9,-2,-3,0
1472092260489106,0,6,5,-1,1,-3,-1,0
1472092260489106,1,4,24,19,9,4,0,0
1472092260497634,-1,-5,-26,-8,4,-2,2,0
1472092260497634,-2,-3,-6,-6,0,-1,-1,-2
1472092260513003,-3,-12,0,-6,-12,-6,-1,-3
1472092260513003,-3,4,2,1,1,2,0,-4
1472092260514414,1,2,20,9,-2,1,-1,-2
1472092260514414,0,-5,-17,-1,2,3,0,2
1472092260535497,-2,-2,3,-3,-3,-4,-1,-2
1472092260535497,-2,-1,8,-2,-5,-2,-1,-1
1472092260536985,-3,-6,-12,-7,-11,0,-2,-3
1472092260536985,-3,-5,-25,-2,-5,-5,-1,-2
1472092260548663,2,8,-1,-2,0,3,0,0
1472092260548663,3,-4,8,4,-4,-1,0,1
1472092260557724,-3,-6,-33,0,6,-3,-2,-1
1472092260557724,0,2,18,-5,-1,0,0,-1
1472092260572751,-4,-8,3,-5,-15,-4,-2,-1
1472092260572751,0,11,-6,-5,16,1,-2,0
1472092260574252,0,-1,14,6,1,0,1,0
1472092260574252,-2,-1,-12,5,-3,1,-2,-2
1472092260595605,1,-1,15,-4,0,-3,0,0
1472092260595605,-1,-7,-15,-3,-4,-1,0,-1
1472092260597105,2,-3,8,-1,4,2,2,-1
1472092260597105,-4,-8,-13,-3,0,-1,-2,-2
1472092260609156,0,10,-2,5,20,1,1,-1
1472092260609156,-5,-26,10,-3,-27,-4,-2,-2
1472092260617707,-3,8,1,-5,-2,-5,-2,-1
1472092260617707,1,-1,2,1,6,2,2,-1
1472092260632746,-2,-4,-12,-5,-1,-1,0,1
1472092260632746,3,12,2,3,5,-1,-1,-1
1472092260639226,2,-5,5,14,3,0,-1,0
1472092260639226,-1,-3,3,-4,-4,-2,-2,-2
1472092260655605,-2,-4,0,2,-10,-1,-1,0
1472092260655605,1,-2,-11,1,9,0,-2,1
1472092260657078,-2,-12,4,-10,-9,-6,-1,-3
1472092260657078,1,13,15,2,-2,-2,0,-1
1472092260669119,-1,2,-30,1,1,4,-1,0
1472092260669119,-1,5,12,2,26,-1,-1,-2
1472092260677778,-2,-4,-3,-2,-17,0,-1,0
1472092260677778,-3,9,21,1,-4,-3,-2,-1
1472092260692878,1,-7,-11,-2,-4,-2,-4,-2
1472092260692878,-4,-10,-30,1,-2,-2,-2,0
1472092260694381,-1,20,16,-6,11,2,0,0
1472092260694381,1,-12,-12,3,-5,-1,-2,0
1472092260715586,-3,1,8,1,-11,-4,-1,0
1472092260715586,0,-5,0,5,-3,0,0,0
1472092260717091,-1,16,-5,0,13,4,-1,-3
1472092260717091,0,-5,-18,-5,-7,0,0,0
1472092260729114,-1,4,13,7,0,-5,-2,-3
1472092260729114,1,6,7,-10,-8,-2,0,-2
1472092260738106,-2,-10,0,3,14,-1,0,-1
1472092260738106,-1,4,18,-5,-25,-3,-1,0
1472092260752198,0,6,19,5,0,6,1,-1
1472092260752198,1,-12,-31,-9,-1,-1,-1,0
1472092260758708,-1,1,14,-3,-5,-3,0,-1
1472092260758708,-1,-9,-8,5,13,-1,-1,-2
1472092260775270,-1,11,-15,-4,-11,-7,0,1
1472092260775270,1,0,-2,-12,-8,2,-1,0
1472092260776771,0,-2,9,6,8,3,-1,0
1472092260776771,-1,1,-4,2,5,-1,-2,-2
1472092260788814,0,-5,4,-4,-4,-3,0,-2
1472092260788814,-3,3,-5,-3,0,-1,1,-1
1472092260797939,-5,-16,-14,0,-8,-4,-1,-3
1472092260797939,-3,-11,-46,-12,18,0,-3,-2
1472092260812995,0,7,10,-3,-8,3,-1,-2
1472092260812995,-1,-16,-2,0,2,-5,0,-1
1472092260814534,1,0,11,1,-14,0,0,0
1472092260814534,-3,9,2,7,10,1,-1,-1
1472092260835522,-2,-8,-10,-2,0,0,0,-1
1472092260835522,-3,-4,-1,-4,0,-2,0,-1
1472092260837026,1,1,6,8,-5,-2,-2,0
1472092260837026,0,-1,1,-13,-3,-1,-1,0
1472092260849172,0,-10,-12,-13,2,-3,-1,0
1472092260849172,-1,7,9,12,-10,0,-2,-1
1472092260857669,-1,-1,-17,-4,4,1,1,0
1472092260857669,0,3,11,7,-4,1,1,0
1472092260872796,0,1,18,5,24,-1,-2,-3
1472092260872796,-1,1,-1,-6,-28,-4,1,0
1472092260873742,0,7,-6,-1,13,-2,-5,-1
1472092260873742,1,-15,-2,1,6,1,-3,-1
1472092260895394,0,-5,-3,-1,1,0,-1,-1
1472092260895394,-2,4,2,1,3,-3,-2,1
1472092260896898,-1,-7,-11,-5,-11,-5,-1,-1
1472092260896898,-1,11,4,-4,-2,-2,2,-1
1472092260909129,0,-12,-10,-3,-2,0,-1,-2
1472092260909129,1,14,3,0,3,-1,-2,-1
1472092260918141,-1,-12,0,-6,-3,-4,1,-2
1472092260918141,0,8,-4,0,1,-1,-2,1
1472092260932210,-2,-6,-2,2,-6,0,2,-1
1472092260932210,0,9,10,0,1,0,0,0
1472092260939161,-3,-9,-12,-4,3,2,1,1
1472092260939161,-2,-4,0,0,-5,0,0,-8
1472092260954757,-2,0,1,1,-8,-1,-1,-2
1472092260954757,-3,1,4,-2,5,-2,-2,0
1472092260957088,-1,4,1,0,-4,0,7,5
1472092260957088,-1,-8,-3,-4,-7,-3,-5,2
1472092260969297,2,2,1,1,-2,3,-1,2
1472092260969297,1,-5,-5,0,4,-1,1,1
1472092260977758,-1,7,5,7,-5,1,-9,-5
1472092260977758,-1,7,-12,-12,-7,2,-3,0
1472092260992321,-3,-7,-2,0,4,-10,7,-6
1472092260992321,0,-1,-1,-2,-1,-5,-4,-6
1472092260998881,0,0,-1,-3,-3,6,5,4
1472092260998881,-1,-1,5,2,-3,-1,2,-3
1472092261015445,-2,4,1,0,-3,-1,2,1
1472092261015445,-2,-8,-8,-1,2,-8,-4,-3
1472092261015915,1,4,-1,-2,-2,1,-3,-4
1472092261015915,-2,-7,-1,2,-2,2,-3,-1
1472092261028879,-1,-5,-5,-5,-1,-7,-1,0
1472092261028879,1,2,3,2,5,4,-8,1
1472092261037857,-2,-2,-1,-2,-21,-10,-4,-3
1472092261037857,-2,-6,-5,-5,-1,15,25,-4
1472092261052391,2,0,5,12,-1,-3,-13,4
1472092261052391,-1,0,6,-5,-1,-4,-1,-2
1472092261059131,-2,-3,-10,-7,8,8,-15,0
1472092261059131,1,-3,4,2,-1,-12,20,-2
1472092261075259,4,0,-6,1,-2,11,-10,-1
1472092261075259,-12,-3,0,-2,3,-20,-24,-6
1472092261076676,1,0,1,-1,-6,4,13,4
1472092261076676,0,1,4,4,2,-6,-32,1
1472092261096884,-1,0,7,-1,12,17,5,-1
1472092261096884,2,-2,-15,-1,-4,1,8,-1
1472092261099281,0,-5,0,-2,7,-4,2,0
1472092261099281,-1,0,-1,-1,-5,-8,-3,-3
1472092261112378,1,5,0,-5,-9,-8,-1,-4
1472092261112378,-2,-3,2,6,3,16,2,-5
1472092261118973,-3,5,-10,-17,-3,-7,-16,-9
1472092261118973,12,7,-2,3,-17,5,7,5
1472092261135544,-10,-12,13,4,2,-2,-10,-4
1472092261135544,-5,5,1,7,2,8,8,-13
1472092261137076,6,1,-8,-3,1,-4,6,14
1472092261137076,-13,-20,5,-2,8,-1,0,0
1472092261157649,9,16,-12,-1,-3,-2,-6,5
1472092261157649,-4,-3,14,1,-8,3,-2,2
1472092261159408,0,5,16,10,10,-3,1,-5
1472092261159408,-1,-20,-26,-12,-3,-4,-10,-1
1472092261172021,-2,9,-23,-13,-5,-5,4,2
1472092261172021,3,-17,9,12,0,0,8,5
1472092261178521,-4,3,-12,-4,8,2,-3,-6
1472092261178521,2,9,17,7,2,-1,3,5
1472092261195577,-9,-21,-32,5,18,-2,0,-6
1472092261195577,1,15,27,-9,-18,-2,-1,2
1472092261197078,-5,-62,-34,-2,3,0,5,-2
1472092261197078,3,56,-10,3,-4,-1,-7,-1
1472092261217770,-5,0,29,-3,4,-4,2,-1
1472092261217770,7,15,12,-2,-5,-2,-1,4
1472092261219227,2,6,4,15,2,1,-2,0
1472092261219227,-4,-2,12,-22,1,-6,-4,-3
1472092261231285,-4,-11,-3,-1,-4,0,0,-2
1472092261231285,-4,10,-3,-2,-1,-5,3,1
1472092261240793,-3,-23,-16,-8,-8,1,2,-1
1472092261240793,-2,-5,-9,8,6,1,-3,-1
1472092261255227,3,7,34,3,-8,-3,5,1
1472092261255227,1,-3,-17,2,28,-3,-2,1
1472092261256729,-1,21,-10,7,-17,1,-2,-4
1472092261256729,-8,-21,48,-8,-3,-6,-3,-3
1472092261277891,0,13,-18,-12,-8,1,1,-1
1472092261277891,-3,-24,-33,5,7,1,0,-2
1472092261279354,-2,-2,20,-15,-3,-6,-5,-3
1472092261279354,-3,10,-31,-2,-1,0,-1,0
1472092261291357,-2,-6,-9,-1,-3,-4,3,1
1472092261291357,5,0,6,-5,-4,3,0,1
1472092261300407,1,20,9,5,7,-4,1,0
1472092261300407,-2,-21,-16,5,-7,-2,-2,1
1472092261315262,-4,-10,3,-9,-7,-3,-3,-2
1472092261315262,1,6,-18,2,-5,2,0,2
1472092261316726,-1,8,5,-2,1,-2,0,-2
1472092261316726,-2,-20,26,0,32,-1,3,-1
1472092261337964,3,0,-7,8,-17,0,0,1
1472092261337964,-5,-1,12,-12,-2,1,-6,-4
1472092261339437,3,7,5,4,-4,0,1,-2
1472092261339437,0,-4,13,2,6,1,-1,-1
1472092261351601,-1,9,-23,-11,1,0,-1,-2
1472092261351601,-2,-10,-5,-2,-9,-5,-2,-1
1472092261360152,-2,-8,6,0,0,-2,-2,0
1472092261360152,3,22,13,-2,-6,1,-4,0
1472092261375669,-2,-14,9,3,-1,-2,-2,-2
1472092261375669,-1,3,-18,-6,-2,-1,1,-1
1472092261377163,-2,0,19,3,1,-3,-3,-2
1472092261377163,0,3,-13,1,-5,1,5,-3
1472092261397868,-1,-2,-12,1,3,0,-5,-2
1472092261397868,1,-1,8,-3,4,-2,0,-1
1472092261399350,1,8,2,2,-2,0,-3,0
1472092261399350,-2,-11,-9,-2,-5,-2,-7,0
1472092261411818,-2,-3,-7,-2,-3,-1,1,0
1472092261411818,2,8,10,7,5,0,-2,2
1472092261420736,-4,-9,-18,-6,-6,-2,-3,-1
1472092261420736,2,6,5,8,0,1,1,2
1472092261435249,0,-2,10,-4,-17,-1,-15,-2
1472092261435249,-3,-4,-9,-3,-6,-6,2,-1
1472092261436751,0,-1,-1,-4,-1,-2,0,1
1472092261436751,1,6,18,14,-3,0,-4,-2
1472092261458511,2,-2,-41,-3,20,4,2,1
1472092261458511,-7,-17,8,-6,-8,-4,0,-4
1472092261460010,-2,1,-8,-15,-8,-4,-2,-3
1472092261460010,0,6,4,5,0,-1,0,0
1472092261471558,-3,-29,24,0,2,-3,2,-2
1472092261471558,1,3,-32,-1,-1,2,-1,-1
1472092261480607,6,17,8,9,4,1,3,2
1472092261480607,-6,-20,-44,-9,-7,-3,-3,-4
1472092261495311,-1,-1,26,3,0,-3,4,-1
1472092261495311,0,0,0,-7,-4,-1,1,0
1472092261496780,-1,-4,4,3,5,2,0,0
1472092261496780,3,3,-4,1,2,1,3,0
1472092261517974,0,1,-10,0,-2,0,0,0
1472092261517974,-2,-7,3,3,16,-2,-2,-2
1472092261519450,2,3,8,-7,-14,-1,-1,-1
1472092261519450,-5,-6,-7,-6,-1,-3,-2,-3
1472092261531513,-1,5,-5,4,1,0,0,1
1472092261531513,0,8,1,1,1,-2,0,1
1472092261540477,-2,-5,6,-2,0,2,-1,-2
1472092261540477,3,11,3,1,2,0,-2,-2
1472092261555490,-3,-14,-7,-15,2,-4,-1,-4
1472092261555490,-1,0,-31,-6,-4,4,2,2
1472092261557011,-6,-5,12,1,-1,-5,-2,-1
1472092261557011,0,3,6,1,-6,-3,0,1
1472092261577926,1,7,8,8,-1,-2,-1,0
1472092261577926,-1,-3,8,-3,-9,-2,-2,-2
1472092261579441,-2,2,10,0,-2,1,-1,-2
1472092261579441,-5,-12,-23,-2,0,-2,-1,-2
1472092261591438,1,7,5,1,1,0,1,0
1472092261591438,-3,-15,21,-6,-10,-3,-2,-2
1472092261601630,0,0,-20,1,10,2,-2,-2
1472092261601630,2,6,2,-3,-2,1,1,0
1472092261615155,0,6,8,1,-4,-2,0,0
1472092261615155,-4,-10,-22,-5,3,-3,-2,-2
1472092261616932,2,5,-12,6,5,0,1,0
1472092261616932,-1,-8,30,-6,-5,0,-1,-1
1472092261637951,-2,-6,-16,-5,1,4,0,0
1472092261637951,1,-1,12,8,0,-1,-1,1
1472092261639451,-8,1,21,-10,-6,-2,-2,-3
1472092261639451,1,4,-15,6,10,3,1,-1
1472092261651522,-2,4,-1,-1,-34,-4,-2,-2
1472092261651522,4,13,10,4,11,-2,-2,1
1472092261660557,2,-6,-9,-5,0,0,-1,0
1472092261660557,2,7,64,26,-5,-2,1,-1
1472092261675708,-1,12,-41,-16,12,-4,-4,-2
1472092261675708,-5,-17,-9,10,-5,3,5,0
1472092261676117,1,-39,-18,-5,-8,-1,-1,1
1472092261676117,-8,4,-12,-23,-2,-2,-4,-4
1472092261697712,-5,12,42,-2,-7,-6,-5,-5
1472092261697712,3,8,-23,-6,12,3,0,0
1472092261699217,-2,-2,-2,0,3,0,1,1
1472092261699217,2,-1,-7,-11,-3,-2,-2,1
1472092261711255,4,-6,16,27,-4,1,0,4
1472092261711255,-8,-2,-52,-19,-4,-4,-6,-8
1472092261720407,3,23,42,3,0,0,0,2
1472092261720407,-8,-44,-31,-9,7,4,0,0
1472092261735497,-7,8,1,-10,-2,-3,-2,-5
1472092261735497,4,5,45,14,-5,4,14,7
1472092261736951,7,25,-65,12,4,-3,-7,-1
1472092261736951,6,-13,10,3,-6,-4,-1,-1
1472092261757468,-16,16,15,1,5,0,1,-2
1472092261757468,9,0,13,5,1,0,0,2
1472092261759648,-9,-39,-13,-2,4,1,1,-3
1472092261759648,1,1,-6,-16,-9,-4,-2,-1
1472092261771714,-9,4,-9,-1,3,0,-2,-6
1472092261771714,4,12,10,9,-5,0,4,2
1472092261780307,-1,6,5,-16,3,0,-4,0
1472092261780307,-3,-17,-22,-5,-4,-3,-2,-4
1472092261795474,13,5,5,5,5,1,3,2
1472092261795474,-9,8,43,-2,-4,-3,-14,-7
1472092261796952,1,-16,-70,-15,-7,-1,0,-4
1472092261796952,-18,-15,5,-9,-4,-1,1,-2
1472092261817648,8,-13,4,1,5,1,4,3
1472092261817648,4,11,25,11,-12,-5,-8,-2
1472092261819622,-10,14,23,-1,18,6,6,2
1472092261819622,9,-10,-32,2,-2,-1,-11,2
1472092261831660,-5,2,-15,-13,-1,-3,-8,-6
1472092261831660,1,-16,-8,12,-5,-3,4,-2
1472092261840613,-3,-3,13,-7,-4,-3,-8,-2
1472092261840613,1,13,-43,-7,-1,2,-3,-2
1472092261854639,8,-26,13,-2,2,3,6,6
1472092261854639,-4,31,-15,-18,-3,1,-44,-10
1472092261861350,0,-21,16,10,-7,-3,43,13
1472092261861350,1,52,21,7,3,-5,8,-12
1472092261877901,-13,-30,-53,-5,-6,3,-2,-8
1472092261877901,2,-9,2,-15,12,-3,3,-4
1472092261879401,-5,3,30,17,-5,2,-9,-5
1472092261879401,4,27,-8,-26,6,-1,-5,1
1472092261891402,-1,7,5,13,0,-2,-5,7
1472092261891402,-14,-27,-10,-15,-5,-6,11,-1
1472092261899916,8,9,-1,-5,-3,1,10,-4
1472092261899916,0,0,16,14,-2,-3,15,4
1472092261914529,0,0,16,1,-1,-6,-35,-2
1472092261914529,-4,-25,-33,-8,-1,5,25,16
1472092261921579,6,16,5,5,-3,-2,-42,-19
1472092261921579,-1,-25,3,9,-3,7,15,-4
1472092261938084,-1,-3,15,-10,1,-3,13,13
1472092261938084,3,9,-5,3,-5,-1,-3,-3
1472092261939566,-5,31,21,-2,3,-6,-79,0
1472092261939566,-4,-12,-21,1,-1,-7,-14,-12
1472092261950814,3,-9,-5,-1,2,13,26,23
1472092261950814,-1,1,9,2,0,-6,2,-9
1472092261960325,4,-9,4,-2,-2,-4,-23,3
1472092261960325,-4,3,5,3,-2,8,59,-2
1472092261975898,1,12,6,5,2,-12,-56,-10
1472092261975898,-6,-21,0,-4,-2,2,3,1
1472092261981400,0,-2,-12,-3,-3,3,26,7
1472092261981400,-6,-26,5,6,3,-7,-9,8
1472092261997922,16,38,-1,0,-3,2,9,-7
1472092261997922,-39,-11,-3,-2,-1,-1,3,-9
1472092261999423,-10,-5,-6,0,-2,-3,7,-7
1472092261999423,-15,2,4,-2,-1,3,-17,-3
1472092262011440,6,20,16,2,0,-2,27,-3
1472092262011440,28,24,-7,3,-5,-4,-16,-1
1472092262027844,-20,-16,-10,-13,-2,0,34,4
1472092262027844,5,2,9,3,-9,-7,-15,6
1472092262033863,-3,9,-15,-10,-1,-4,-9,-8
1472092262033863,-7,8,20,3,-1,-1,9,2
1472092262042391,14,15,-10,2,-5,-1,14,3
1472092262042391,-2,2,-2,-2,-4,-8,-3,-1
1472092262057741,-12,-10,6,-3,-3,-4,-5,-12
1472092262057741,25,11,8,5,1,-18,-35,-3
1472092262059240,-35,-5,-2,-1,-2,7,7,9
1472092262059240,0,-35,-5,-3,0,14,-13,-1
1472092262080272,11,-11,-1,1,-1,-10,3,12
1472092262080272,26,13,-5,-2,2,4,34,7
1472092262081773,25,-24,5,1,-2,-12,-53,-9
1472092262081773,-4,20,-4,1,0,4,82,2
1472092262094800,-12,-8,-8,-2,-2,1,-6,-15
1472092262094800,-4,-15,-3,-2,1,8,19,5
1472092262101807,1,17,0,0,-3,-5,-14,1
1472092262101807,-1,-3,1,1,-1,1,-2,-1
1472092262117980,0,-40,1,-1,0,-1,-12,-3
1472092262117980,-19,-7,-22,-2,-2,-1,-13,-4
1472092262119481,4,13,17,0,-3,0,23,-9
1472092262119481,7,25,9,2,1,-5,-35,1
1472092262142008,-7,-3,-20,-3,-1,1,15,-1
1472092262142008,-3,-8,5,-5,-1,1,-19,-3
1472092262143510,0,-7,13,2,-3,1,15,2
1472092262143510,1,-1,-13,-3,-1,-6,-19,-2
1472092262154052,-4,-6,-10,-1,-4,-1,-7,17
1472092262154052,-3,1,15,0,-1,4,27,-10
1472092262163066,1,-8,-20,-1,-1,-2,-29,-4
1472092262163066,-3,1,3,-5,0,-3,27,1
1472092262177688,-3,0,-5,3,-1,0,7,-6
1472092262177688,-8,0,-12,-12,-5,-1,-22,-5
1472092262179657,5,-2,10,2,3,4,10,1
1472092262179657,0,-2,-1,4,3,3,-14,0
1472092262200394,-4,2,1,-2,-1,-2,-6,-10
1472092262200394,-5,-10,-20,-6,-4,-4,-32,-14
1472092262201879,5,-5,-14,-1,-6,-7,6,4
1472092262201879,-3,-5,-1,1,-1,-2,-16,4
1472092262222915,-2,14,8,-1,-14,5,14,-6
1472092262222915,-3,-1,-1,-18,-33,-9,-33,1
1472092262224382,-2,0,-3,-7,31,19,46,-10
1472092262224382,0,-2,-14,8,-1,-11,-15,-9
1472092262237930,1,0,9,7,23,9,28,3
1472092262237930,-4,-8,-5,-21,-41,-5,-34,3
1472092262239396,-4,9,-6,-27,2,0,29,-4
1472092262239396,0,3,15,25,88,7,-24,11
1472092262260540,-1,-6,-7,17,-60,-22,-20,-13
1472092262260540,2,6,29,46,-23,-14,-52,9
1472092262262041,-1,1,14,-28,48,43,101,15
1472092262262041,5,2,-38,50,-32,28,15,2
1472092262290636,4,-13,6,-54,7,-27,-28,-2
1472092262290636,-11,25,-19,27,15,7,7,4
1472092262292637,0,-35,-24,-45,-106,-75,-61,-14
1472092262292637,-5,23,9,-81,-15,61,1,-5
1472092262298185,-3,-21,5,79,29,54,12,-3
1472092262298185,3,-9,-24,29,32,-2,45,1
1472092262299688,-5,-10,59,4,-18,-28,-26,-1
1472092262299688,-13,26,-32,6,60,-2,20,-13
1472092262320181,16,22,-8,-95,-125,32,-22,5
1472092262320181,8,-15,50,58,127,31,-1,-3
1472092262322189,-29,7,-64,39,10,15,-5,0
1472092262322189,14,-2,40,-14,28,19,-25,3
1472092262334191,-24,-15,15,-8,-31,-8,4,-10
1472092262334191,14,34,60,2,-15,-4,10,13
1472092262343199,-4,-89,-94,-68,-21,-32,-7,5
1472092262343199,6,43,48,0,-30,-72,-25,-7
1472092262357293,-17,-31,-92,-37,21,-40,16,1
1472092262357293,10,43,97,13,-5,-20,14,-8
1472092262359360,1,-49,71,9,-36,5,-16,-3
1472092262359360,-23,-13,-109,12,5,-19,-12,-6
1472092262380413,11,26,96,10,37,0,-1,2
1472092262380413,-14,-10,27,-27,-68,-3,13,-1
1472092262381887,6,15,-52,38,32,13,-12,-4
1472092262381887,2,14,41,-4,-24,5,0,1
1472092262394012,-1,-31,-49,2,2,-6,2,3
1472092262394012,-12,1,-91,-55,24,7,13,-6
1472092262403225,5,47,44,22,-11,18,-7,-5
1472092262403225,5,-8,-15,-19,21,3,-2,3
1472092262417765,3,-2,-6,63,40,13,10,5
1472092262417765,-4,-4,-2,-53,-12,-6,-8,4
1472092262419132,-4,-2,-35,8,-42,1,-22,-8
1472092262419132,8,-15,35,51,4,11,8,3
1472092262440166,-1,24,15,8,52,0,0,5
1472092262440166,-3,-34,23,-6,-16,4,22,-2
1472092262441661,3,30,21,-20,12,-3,3,1
1472092262441661,-7,-27,1,-28,-36,-25,-17,-4
1472092262453841,4,16,-7,3,-16,-8,-11,-5
1472092262453841,0,-3,-46,-14,4,5,7,1
1472092262462875,0,6,9,8,29,1,5,0
1472092262462875,4,-14,7,0,-28,-1,7,-2
1472092262477902,3,7,3,16,37,13,1,5
1472092262477902,2,-27,-28,3,-2,-1,1,1
1472092262478902,-3,17,13,9,8,-3,-23,-5
1472092262478902,2,-20,-10,-13,-32,-6,14,4
1472092262500438,-2,10,12,-16,-7,-7,-11,-11
1472092262500438,-6,-11,-33,-4,-8,-5,-11,-8
1472092262501944,1,21,-1,10,6,2,5,-1
1472092262501944,-2,-8,6,-14,4,-5,-20,-3
1472092262513965,1,6,12,9,8,-3,6,0
1472092262513965,-1,-5,-1,14,1,1,-10,-4
1472092262523044,-1,0,29,1,-4,-9,0,0
1472092262523044,-1,13,-15,-18,-5,2,-3,-1
1472092262538028,-1,2,27,1,6,1,5,1
1472092262538028,-1,0,-32,4,0,2,6,-1
1472092262539542,4,6,26,15,23,4,4,2
1472092262539542,-1,-5,17,15,-4,-5,5,2
1472092262560083,0,-12,-4,-1,-9,-4,-6,-1
1472092262560083,-1,1,-2,-13,-6,-1,3,-2
1472092262561693,-7,1,-17,-8,-10,-4,-2,-4
1472092262561693,0,-4,33,-3,1,-6,-1,-2
1472092262582820,1,-5,-2,-10,2,-2,4,1
1472092262582820,-6,-4,-19,-8,-7,-3,3,3
1472092262584295,1,-3,-9,8,13,4,2,2
1472092262584295,-2,-5,-11,0,-10,-4,-3,-2
1472092262597896,-2,0,13,-3,-6,-2,-3,-1
1472092262597896,3,2,19,5,4,1,2,-1
1472092262599367,4,0,-1,0,-9,-1,-3,0
1472092262599367,0,6,-13,-6,-4,-1,4,-1
1472092262620426,-2,-12,-3,2,0,-3,4,1
1472092262620426,1,7,-8,6,-6,-2,-10,-6
1472092262620929,-3,-4,0,-4,5,0,2,-1
1472092262620929,3,8,8,-2,-5,-3,0,2
1472092262634352,-1,-20,-2,2,-6,0,-1,-3
1472092262634352,-1,0,8,0,7,-2,0,-1
1472092262642901,2,2,-13,-8,10,2,-3,1
1472092262642901,2,-4,6,12,2,3,2,0
1472092262657943,-1,8,-7,1,-3,-4,-2,0
1472092262657943,0,0,0,7,-1,-2,0,2
1472092262659481,0,2,4,-5,-4,-3,-4,-2
1472092262659481,-2,-4,-2,0,-4,-3,-3,-2
1472092262680472,-1,4,-15,-1,26,-1,0,-2
1472092262680472,-2,-7,-30,-9,-22,-2,1,-2
1472092262681942,-1,10,16,10,2,3,-1,2
1472092262681942,-4,-9,-11,-1,3,0,3,1
1472092262693891,0,2,-14,-7,2,-3,-6,1
1472092262693891,2,-1,18,-3,-1,-1,0,-1
1472092262702386,1,-3,-36,-1,-1,2,7,1
1472092262702386,0,6,33,-3,3,0,5,-3
1472092262717916,-4,-24,-25,-4,-14,-5,-8,0
1472092262717916,-1,27,-11,0,10,6,2,-1
1472092262719415,0,-4,8,-3,-12,-4,1,-1
1472092262719415,2,4,1,2,5,2,-2,0
1472092262740245,0,2,-16,0,7,-1,6,-1
1472092262740245,0,-2,31,-9,-28,-5,0,-1
1472092262742301,-2,0,-7,11,21,1,-3,-2
1472092262742301,0,-7,3,-8,-20,-5,-3,-1
1472092262754172,-2,7,-14,-8,-2,-3,-4,-4
1472092262754172,1,-6,-1,13,12,-1,-2,1
1472092262763184,-2,1,5,-17,0,-3,-1,-3
1472092262763184,-1,-4,-9,12,-1,-2,-5,-1
1472092262777484,1,6,1,2,0,0,2,-1
1472092262777484,-4,-13,7,-4,4,2,2,0
1472092262784020,-2,-3,12,-5,-10,0,-3,0
1472092262784020,-1,-4,-37,-4,1,-2,-3,-1
1472092262800238,-2,1,17,-3,-9,0,3,0
1472092262800238,5,8,-9,4,9,-2,-1,-2
1472092262802195,-7,12,20,7,-2,0,0,-1
1472092262802195,1,4,-12,-4,-2,-2,-2,3
1472092262813884,0,-17,-21,-4,-2,1,4,-1
1472092262813884,4,15,45,4,-1,0,-1,-1
1472092262822786,-3,-19,-11,-6,-3,-3,-2,-3
1472092262822786,-1,42,6,-6,-2,-2,-1,-3
1472092262837387,-4,8,8,-7,-9,-1,-2,2
1472092262837387,15,-30,9,9,4,2,1,2
1472092262844472,-11,-60,-47,-11,-3,0,6,0
1472092262844472,0,9,26,2,5,3,0,2
1472092262860418,-13,13,-58,-14,-3,0,-1,-4
1472092262860418,-2,12,-22,-2,-5,-4,-1,-2
1472092262861956,12,-30,29,13,-2,-5,0,2
1472092262861956,-12,-94,-26,-11,-4,-3,-2,-3
1472092262874106,18,88,37,19,-2,-1,-3,1
1472092262874106,-1,-16,6,-4,9,3,4,1
1472092262883130,-2,19,-39,13,-7,-4,-9,-3
1472092262883130,-4,-4,-56,-6,2,1,1,-5
1472092262897384,-8,-5,20,0,-4,-2,3,3
1472092262897384,-10,-25,-2,-6,5,1,3,-4
1472092262904340,5,49,22,1,0,1,-7,3
1472092262904340,10,-1,24,7,-3,-2,8,5
1472092262920466,-2,25,-4,-4,-4,-4,-6,-9
1472092262920466,5,3,-12,6,0,-1,1,-1
1472092262921973,0,8,2,-1,-4,-3,-5,-3
1472092262921973,-4,-20,-15,-3,5,3,-1,-2
1472092262934089,10,15,14,2,-2,0,1,1
1472092262934089,-28,-23,-2,-1,2,0,-8,-5
1472092262943096,5,51,6,-7,4,5,9,-2
1472092262943096,4,5,5,-1,-7,-10,-17,4
1472092262957404,5,14,9,-4,-1,0,-2,-3
1472092262957404,-3,-2,15,17,-3,-3,-6,-5
1472092262963970,-11,-44,-37,-28,1,1,-2,2
1472092262963970,-9,41,3,2,-3,-1,5,-3
1472092262980186,3,-33,8,-1,3,1,-48,2
1472092262980186,4,9,-16,-10,-5,-2,55,6
1472092262982191,6,4,21,13,3,-2,-2,-5
1472092262982191,0,-14,9,1,-6,0,19,-2
1472092263002945,-18,-10,-11,-8,-4,-10,-8,-12
1472092263002945,14,-14,-4,-3,-1,-1,-24,2
1472092263004447,-1,24,17,3,0,-2,-8,2
1472092263004447,-1,4,-9,-14,-5,-8,-19,-4
1472092263016999,-12,-26,8,-1,-6,1,17,-1
1472092263016999,4,-1,-25,-4,0,-7,1,4
1472092263024037,-1,7,16,-5,-16,-2,7,-6
1472092263024037,-7,7,22,18,0,8,1,-1
1472092263040529,6,-38,-32,-26,3,-14,-11,6
1472092263040529,-12,15,16,-7,4,3,-20,-11
1472092263042069,6,-19,-19,0,10,12,4,3
1472092263042069,4,8,14,9,-5,1,16,-1
1472092263063210,-3,-21,1,9,-5,-1,24,-5
1472092263063210,-5,4,7,-16,4,-44,-45,-11
1472092263064712,11,5,-13,13,20,31,17,12
1472092263064712,2,-2,4,11,17,7,-12,-7
1472092263077363,-19,0,7,11,-10,-10,15,1
1472092263077363,-5,-14,-26,-10,-26,9,9,1
1472092263083971,-4,0,25,-6,11,10,-13,-8
1472092263083971,-4,-2,1,-11,-3,-16,-1,-1
1472092263100549,14,-6,-10,4,-17,11,-12,-6
1472092263100549,-4,12,-4,1,-1,19,12,6
1472092263102084,3,-14,4,-23,-23,-51,-13,-6
1472092263102084,-1,10,-4,-14,8,-8,7,1
1472092263122820,13,18,1,36,42,12,37,13
1472092263122820,-6,-19,1,10,-2,-13,3,-3
1472092263124296,-1,-8,12,31,24,48,-32,0
1472092263124296,0,14,-14,-7,-13,18,17,3
1472092263137810,-12,-14,1,-11,-15,-13,-4,-30
1472092263137810,8,10,-9,-29,-37,-36,-19,23
1472092263145315,-8,4,-8,-21,-12,-32,1,-3
1472092263145315,-1,-20,-9,-9,-2,0,-45,5
1472092263160585,8,-20,11,-12,5,12,37,5
1472092263160585,-5,40,-13,1,23,19,12,-3
1472092263162125,-9,-10,-8,17,-20,-15,26,2
1472092263162125,5,5,5,13,4,11,-33,2
1472092263182838,-7,15,19,-16,-10,-10,-23,3
1472092263182838,6,-19,8,24,43,20,5,-4
1472092263184283,-4,4,1,7,-3,-1,20,15
1472092263184283,3,2,-4,-3,-11,-17,9,-3
1472092263196605,7,-20,-35,-28,0,-8,-22,-7
1472092263196605,-19,3,20,-13,-16,-18,1,-8
1472092263205627,-6,5,-2,7,20,19,1,-1
1472092263205627,10,5,-10,48,-14,-29,-6,-12
1472092263227990,-4,-24,2,-24,13,-1,-2,1
1472092263227990,-11,62,9,-34,-78,13,-5,-3
1472092263229533,2,-59,10,21,17,39,-22,-13
1472092263229533,15,10,59,45,63,12,13,13
1472092263243005,-12,24,-17,13,-57,-3,4,5
1472092263243005,1,-22,-8,-14,18,9,-30,-12
1472092263244506,-10,25,-8,-30,-23,-20,29,1
1472092263244506,-4,-11,31,-32,-14,-4,18,-1
1472092263256545,11,9,27,61,-23,10,-4,-5
1472092263256545,5,0,-18,-18,49,-5,-8,6
1472092263265634,-1,2,-4,-19,-30,-35,2,2
1472092263265634,-4,-17,-33,-99,-78,14,-5,-15
1472092263280504,-9,1,-20,39,69,10,10,8
1472092263280504,5,-26,-5,34,-3,-9,8,-1
1472092263281508,5,10,5,10,7,15,8,7
1472092263281508,-2,7,-6,42,65,-12,0,-5
1472092263303145,0,17,19,-27,-91,0,-7,9
1472092263303145,-10,-21,0,6,-30,9,4,2
1472092263304696,0,-13,-54,-9,16,-12,-23,-4
1472092263304696,-13,12,-12,-24,-35,-9,18,-3
1472092263316834,13,18,1,-12,2,-11,-16,-2
1472092263316834,12,21,9,23,44,7,0,-3
1472092263325407,14,24,-21,0,-9,-4,-3,0
1472092263325407,-18,-2,66,7,14,1,-3,-1
1472092263342921,-5,-32,-41,-29,27,2,-1,1
1472092263342921,-8,35,67,37,-2,0,-8,-13
1472092263343421,20,7,-31,-14,59,-1,-2,8
1472092263343421,8,12,-1,16,-54,3,-6,-3
1472092263362938,-24,-20,3,23,37,0,8,-9
1472092263362938,8,-11,-21,-38,-19,1,0,9
1472092263364448,-12,2,20,3,-7,0,15,-8
1472092263364448,9,7,-12,15,25,5,-20,2
1472092263376473,11,-23,-16,-19,-3,-9,15,11
1472092263376473,2,-19,-8,-14,-11,2,1,6
1472092263385516,-5,43,33,26,-24,-5,-13,-9
1472092263385516,-24,-50,-28,-6,-1,-1,7,5
1472092263400693,9,40,4,0,-10,3,-3,-2
1472092263400693,8,-12,8,-26,13,-13,2,1
1472092263402194,-18,26,-55,-21,-24,-3,-3,-8
1472092263402194,0,-10,-19,-9,-16,9,1,-2
1472092263422749,2,2,56,22,44,5,-10,-2
1472092263422749,10,6,-24,17,11,-2,9,5
1472092263424654,1,10,40,4,-15,-10,-24,-14
1472092263424654,0,-21,-31,-12,2,-8,3,12
1472092263436668,-15,13,-7,-16,5,2,3,-9
1472092263436668,6,-2,-2,12,3,2,-1,-12
1472092263445688,-24,-40,20,3,-10,-2,-9,-1
1472092263445688,13,42,-8,-1,10,0,11,3
1472092263460721,11,-46,18,-9,-5,-1,-11,-1
1472092263460721,-3,-26,-1,7,-8,0,28,-4
1472092263462222,-9,-23,-17,-9,10,-1,-9,3
1472092263462222,-4,-13,30,-5,6,-2,23,-5
1472092263482774,-5,0,-3,-8,-10,-2,-14,0
1472092263482774,0,-10,-34,4,4,3,16,-5
1472092263484276,9,-29,39,6,0,1,1,3
1472092263484276,5,0,-9,-10,0,0,-5,1
1472092263496752,1,16,8,-1,2,1,-4,-8
1472092263496752,-25,0,1,16,-1,0,-5,1
1472092263505760,25,17,-59,-12,-2,2,15,14
1472092263505760,-16,-24,2,-8,-2,-1,-8,-5
1472092263520586,-15,5,-21,3,-1,-4,0,4
1472092263520586,3,-2,15,3,-12,0,-9,1
1472092263522112,4,-4,13,-2,5,-2,4,3
1472092263522112,0,8,6,0,0,-4,-24,-12
1472092263544192,-8,-22,-36,-9,-8,-2,-6,-18
1472092263544192,-3,12,7,-6,2,4,-37,21
1472092263545182,3,-7,10,5,-3,2,20,-5
1472092263545182,13,9,-16,16,8,1,-10,5
1472092263556074,10,4,8,-23,0,2,2,14
1472092263556074,-8,6,-12,0,12,1,-31,-18
1472092263565586,-9,-12,1,-7,-18,-7,25,-13
1472092263565586,-19,-4,-7,-3,-6,-9,-53,25
1472092263579593,2,7,7,8,-4,-6,74,-5
1472092263579593,13,-1,-7,-4,5,22,10,15
1472092263586045,7,-8,-5,6,14,-5,-81,0
1472092263586045,1,-7,-5,-7,7,12,43,-10
1472092263602916,-16,6,11,6,-6,-3,-8,7
1472092263602916,-5,-20,-17,-8,-6,-5,12,-10
1472092263604419,-8,2,14,-1,-7,-2,23,-7
1472092263604419,15,-3,-22,-8,-2,-6,-21,4
1472092263616467,12,4,8,1,-6,-13,-33,3
1472092263616467,5,3,12,7,9,19,-29,-9
1472092263625477,-22,1,-1,-2,0,-18,-21,15
1472092263625477,16,4,7,-5,27,-8,44,-5
1472092263641068,-17,-10,-20,-1,-14,12,1,-19
1472092263641068,-1,0,-1,-7,-12,-24,-22,14
1472092263646601,-5,-4,4,7,1,-2,40,-15
1472092263646601,-5,6,-6,-2,-2,-12,-22,-3
1472092263664097,5,-7,5,1,-1,21,39,-4
1472092263664097,2,3,-4,-5,-14,-40,20,-7
1472092263665601,13,2,-4,-6,-3,-26,-55,13
1472092263665601,-27,-5,0,7,7,50,9,-16
1472092263676677,9,0,9,3,4,8,-83,11
1472092263676677,-11,5,-5,-4,-3,-15,54,-35
1472092263685727,-12,-7,-1,-3,-7,17,-8,-17
1472092263685727,9,4,5,3,-16,-28,-18,18
1472092263700291,-5,-9,1,-7,3,-5,-17,0
1472092263700291,12,6,-15,6,2,0,-6,15
1472092263701793,22,8,40,4,14,10,7,17
1472092263701793,-13,-8,-5,1,-12,-10,1,-20
1472092263722876,-8,5,0,-23,3,10,4,1
1472092263722876,9,-11,4,26,-3,-7,-14,0
1472092263724364,-24,4,-1,24,-6,10,17,-5
1472092263724364,9,-10,-49,-30,1,8,8,3
1472092263745385,12,0,38,25,-10,-28,-11,-6
1472092263745385,-11,9,-22,-24,6,25,39,7
1472092263746937,-13,-21,27,2,-2,4,-34,4
1472092263746937,10,30,-18,-3,-1,1,1,-2
1472092263759897,2,16,-14,13,3,-7,-17,-2
1472092263759897,15,-18,21,-10,-3,10,25,13
1472092263766442,18,-12,-21,22,13,15,32,13
1472092263766442,-6,18,28,19,-5,-12,15,-9
1472092263782820,-4,20,-65,-26,8,0,-2,1
1472092263782820,-52,-11,31,5,-1,3,-14,-11
1472092263784818,22,73,11,-28,-5,-4,18,4
1472092263784818,-29,-56,-12,3,-2,-3,1,-11
1472092263796480,33,5,31,2,4,5,8,14
1472092263796480,1,20,-88,-19,-4,-5,-10,-17
1472092263805429,-10,-70,27,-3,3,-1,-9,-4
1472092263805429,11,4,33,24,0,-2,-17,2
1472092263819700,-10,20,8,-5,-2,-1,45,1
1472092263819700,-8,-16,29,5,2,-7,-10,-4
1472092263826816,5,3,-64,-12,-4,2,-5,1
1472092263826816,-2,10,5,8,-2,0,-4,-14
1472092263842842,-9,-36,20,-7,5,-1,3,24
1472092263842842,23,-17,38,6,-5,-3,-13,-3
1472092263844834,-14,79,-38,-10,-1,7,38,1
1472092263844834,11,-16,8,7,3,1,-19,5
1472092263856363,17,31,5,-3,4,-2,-9,1
1472092263856363,-23,-11,-6,1,3,3,6,1
1472092263865390,-4,-40,17,9,-2,-4,-7,-21
1472092263865390,4,26,-14,-33,-3,-3,2,21
1472092263879925,-3,11,32,14,0,-1,-44,-3
1472092263879925,11,40,-31,-12,-6,2,49,6
1472092263886593,-2,-18,-15,-1,-6,-7,-7,-35
1472092263886593,-8,32,35,-7,-6,-4,-18,-1
1472092263902864,0,-58,-37,8,0,2,-7,-16
1472092263902864,-18,6,19,1,-2,-3,-26,11
1472092263904812,6,-18,-13,-18,-3,-2,-6,6
1472092263904812,20,16,-23,7,3,5,10,6
1472092263916415,2,-1,25,-1,-3,-4,23,-6
1472092263916415,-13,-13,2,6,0,4,-4,-5
1472092263925438,-2,17,5,1,-4,-1,-3,-1
1472092263925438,-5,-31,-5,-2,3,3,-4,-10
1472092263939951,-6,7,-16,5,-7,-2,35,9
1472092263939951,10,-6,-12,0,10,3,-12,6
1472092263946964,5,3,15,1,-2,-2,1,4
1472092263946964,1,4,-41,-7,15,-4,-8,0
1472092263961981,-5,-18,4,2,-30,-1,1,-5
1472092263961981,3,6,-8,-3,-2,-1,1,-13
1472092263964183,-15,-11,5,-2,3,-2,-44,10
1472092263964183,-2,14,17,1,-3,-3,29,-1
1472092263985342,-9,5,-28,0,16,1,2,-7
1472092263985342,6,-5,-1,8,-12,-5,-30,-2
1472092263986789,17,9,1,-15,2,-3,15,1
1472092263986789,-14,-31,10,-2,-2,-2,18,7
1472092263999864,-14,-17,-8,-1,7,-1,-8,-19
1472092263999864,0,16,4,-5,-4,-1,5,-23
1472092264006767,3,-4,-17,11,-5,-5,-13,18
1472092264006767,-4,-6,5,2,-2,-3,-26,-7
1472092264022747,2,-16,-5,-1,25,3,16,0
1472092264022747,15,13,5,0,-11,0,2,10
1472092264024764,-16,-12,3,-8,-18,-10,4,-3
1472092264024764,-4,-3,4,8,15,19,-2,-8
1472092264045282,-13,-2,-2,2,8,1,-31,1
1472092264045282,4,-4,9,-2,-1,-10,-52,18
1472092264047284,11,-2,-16,-3,-3,-8,39,0
1472092264047284,-13,-4,9,4,-10,-10,-22,-12
1472092264059845,2,-3,-17,-12,-6,-1,28,9
1472092264059845,8,-4,5,5,4,10,9,-8
1472092264066528,-8,-6,-2,-17,-10,-25,-8,-16
1472092264066528,10,4,3,1,-3,4,35,26
1472092264083149,6,3,0,4,3,6,-23,-13
1472092264083149,-2,-4,1,-2,1,6,4,5
1472092264083649,-24,-4,0,3,5,-12,3,-6
1472092264083649,15,4,6,6,-2,16,7,-16
1472092264105229,-25,1,3,0,-16,-22,-7,4
1472092264105229,17,-7,-13,-11,1,18,13,9
1472092264106728,5,5,9,7,9,0,-23,-5
1472092264106728,-6,-3,-4,-5,-4,12,1,0
1472092264119250,24,6,6,4,-2,3,-15,9
1472092264119250,-16,-3,9,-5,7,0,-13,-9
1472092264127827,5,3,-3,-5,4,9,-11,-9
1472092264127827,-15,-12,-12,-2,-12,-4,-13,-10
1472092264143357,8,9,2,3,1,-4,-4,0
1472092264143357,-2,-2,11,-5,1,-4,13,0
1472092264144844,-1,-7,-9,15,2,9,-4,-4
1472092264144844,6,1,-7,-18,0,-11,3,8
1472092264165183,-11,7,26,10,0,3,6,1
1472092264165183,5,-7,5,-3,-4,-7,9,-5
1472092264166981,3,-4,-15,-5,-3,11,1,18
1472092264166981,-9,4,3,1,5,-3,-2,-7
1472092264179092,-6,-4,-3,-11,-10,-4,7,1
1472092264179092,3,11,8,11,10,-2,-2,5
1472092264187689,4,-1,10,-10,-1,4,4,-2
1472092264187689,-6,-13,-34,11,-6,-7,-8,-9
1472092264202730,8,11,8,-19,0,-1,-8,-10
1472092264202730,-9,-17,-2,4,-6,-3,3,10
1472092264204226,15,45,-9,12,5,4,15,-3
1472092264204226,-5,-29,-39,-6,-8,-10,-8,4
1472092264225358,-6,4,2,-1,3,-1,2,-3
1472092264225358,7,-13,4,-21,-4,-3,7,-1
1472092264226327,-7,-2,8,18,24,6,6,-3
1472092264226327,-19,6,20,-12,-29,-1,0,1
1472092264238849,10,8,-30,4,0,1,-1,3
1472092264238849,-6,-66,-15,-4,1,-3,-5,-6
1472092264247857,-8,11,20,12,3,2,1,-2
1472092264247857,15,28,19,-2,7,-5,-4,3
1472092264262773,-8,-11,-34,8,-2,-4,-2,-1
1472092264262773,1,10,4,-3,-5,-5,7,-5
1472092264264218,-4,-30,13,-9,-9,-3,-3,3
1472092264264218,5,0,18,-1,5,-2,1,-3
1472092264285629,2,3,13,-2,-5,-3,24,0
1472092264285629,-2,16,4,8,-2,1,-19,-3
1472092264287115,-7,-9,18,-6,-4,7,-10,0
1472092264287115,5,2,14,7,-2,-1,18,6
1472092264299009,-1,-19,-55,-5,-12,-3,-3,-2
1472092264299009,-6,12,1,-2,-2,-5,-2,-2
1472092264307516,-3,0,-1,-2,1,0,-3,-2
1472092264307516,4,2,2,-4,-1,0,-10,-1
1472092264322847,-2,-11,-3,1,4,0,-4,-1
1472092264322847,-6,8,-8,7,1,1,4,0
1472092264324940,0,4,-4,-14,-7,1,1,0
1472092264324940,5,-11,-31,2,6,-3,0,-4
1472092264345406,-11,-6,17,0,-3,0,-3,-1
1472092264345406,14,17,-8,-5,-1,-4,2,2
1472092264351478,-13,-5,-2,9,-3,-1,1,2
1472092264351478,-11,-12,-7,-6,2,0,-15,-9
1472092264359326,3,8,37,3,-2,1,-9,4
1472092264359326,-4,-2,-15,0,-2,2,6,-4
1472092264375565,4,-4,-27,-6,0,-4,-7,2
1472092264375565,2,-3,-14,-2,0,-3,4,5
1472092264383027,-12,7,32,4,1,3,-1,-6
1472092264383027,2,-1,-28,2,3,-1,3,9
1472092264384479,3,0,28,-3,-4,1,10,-9
1472092264384479,3,11,37,3,1,-1,6,8
1472092264405279,6,-4,-2,-2,1,-1,11,-5
1472092264405279,-6,-2,-25,-4,2,-2,-6,0
1472092264407237,0,-6,21,5,-7,-1,18,0
1472092264407237,-2,-9,-35,-12,-18,-2,-3,-5
1472092264419132,5,4,-18,0,10,4,-6,0
1472092264419132,-8,-5,45,3,-2,-2,-4,-3
1472092264428165,0,0,-38,-4,7,-4,-5,-1
1472092264428165,1,2,46,6,5,3,0,-3
1472092264442749,-1,5,14,3,-8,-2,2,3
1472092264442749,-7,-16,-69,-7,-18,-3,-2,-11
1472092264444235,5,-2,1,2,-3,-1,-7,6
1472092264444235,0,-2,-3,-1,15,0,4,2
1472092264465333,-4,1,-27,-5,-1,0,-7,-2
1472092264465333,0,10,13,1,4,-2,0,0
1472092264466830,3,-5,-10,4,-3,1,-4,-1
1472092264466830,1,-2,0,-4,-13,-2,0,-2
1472092264479124,-5,-3,6,0,8,-4,3,0
1472092264479124,-5,6,-5,2,2,2,-6,1
1472092264488145,-4,-5,-7,-4,-5,0,2,-2
1472092264488145,5,5,3,1,11,4,-1,-1
1472092264502820,2,-2,6,3,0,0,-4,-2
1472092264502820,0,6,17,1,-8,-13,9,0
1472092264504822,-5,-8,-5,-9,-4,5,-6,-1
1472092264504822,-2,-1,-27,1,1,2,1,-1
1472092264525396,4,-4,1,-1,-9,-1,-3,-1
1472092264525396,0,1,-19,-3,5,-2,0,2
1472092264526880,-1,0,8,2,5,-1,-12,-4
1472092264526880,-1,-3,27,-5,-4,-1,4,0
1472092264539477,0,3,9,-8,-33,-18,-18,3
1472092264539477,-5,-6,20,6,5,17,17,-6
1472092264547980,-4,-3,-41,-7,-12,-6,-6,-6
1472092264547980,-4,-4,-14,-2,6,-12,-5,-1
1472092264563124,-1,1,5,0,10,7,1,-1
1472092264563124,2,0,22,-2,0,2,-4,0
1472092264564663,3,-1,-10,-3,-6,-1,1,6
1472092264564663,-2,3,-4,5,1,-5,-9,-2
1472092264585483,0,2,13,0,-5,-1,-4,-3
1472092264585483,0,-9,-30,-6,10,-3,-11,-3
1472092264586949,1,5,0,4,5,0,3,-2
1472092264586949,-1,4,22,7,-11,-4,-4,-1
1472092264599162,-3,-8,-27,-12,10,3,1,-3
1472092264599162,0,0,-24,2,7,3,-5,1
1472092264608163,0,4,22,-7,-29,-8,7,2
1472092264608163,-1,2,16,10,-3,1,-4,-2
1472092264622777,0,0,-20,17,8,6,9,1
1472092264622777,-2,-2,9,-20,5,-5,-2,-2
1472092264624784,-3,-8,-12,5,15,0,-2,-4
1472092264624784,-3,1,-7,-11,-9,4,-4,-2
1472092264645364,-1,-3,7,-1,1,0,3,-1
1472092264645364,0,6,5,9,8,-5,-4,1
1472092264647320,0,-2,-28,-4,-3,-1,-4,-2
1472092264647320,-4,-1,43,-3,0,5,3,-3
1472092264659461,-1,-2,1,-2,1,-5,1,1
1472092264659461,2,4,37,12,-2,1,-2,2
1472092264667937,-6,-11,-58,-13,-6,-2,0,-2
1472092264667937,2,-2,-13,0,-12,-1,0,2
1472092264682990,-1,0,22,-11,-3,0,-3,-3
1472092264682990,1,6,-8,-1,-26,-4,-1,-2
1472092264684430,1,7,32,10,13,1,-2,0
1472092264684430,-2,-7,-31,-11,9,0,-1,-1
1472092264705524,-2,-6,-6,10,3,-2,1,-1
1472092264705524,0,1,-26,-6,-11,1,3,1
1472092264706988,-3,5,17,-1,10,-1,-1,-3
1472092264706988,-2,-8,-8,-14,-5,-8,-4,-2
1472092264719176,-1,-2,20,-4,-8,1,1,0
1472092264719176,2,7,8,7,3,-5,-1,2
1472092264728253,-5,3,16,1,3,1,-1,-1
1472092264728253,4,-1,-27,-2,-2,1,1,-3
1472092264742267,-1,-4,-17,1,-1,2,-2,-2
1472092264742267,0,-1,15,-7,-7,-6,-4,-2
1472092264749271,5,7,41,10,-3,-2,3,2
1472092264749271,-7,-4,-39,0,0,-1,0,-2
1472092264764866,2,-2,-2,10,7,-3,-1,-1
1472092264764866,1,1,-54,-8,19,12,1,0
1472092264766997,-5,0,76,-6,-11,-5,-1,-2
1472092264766997,1,1,-1,7,11,0,3,3
1472092264779059,-1,2,-7,-1,-7,-3,2,-1
1472092264779059,-3,-1,-5,-1,-5,-10,-2,-3
1472092264788131,0,-11,0,-5,-8,-10,-4,-2
1472092264788131,-1,1,-8,2,33,3,0,-1
1472092264802229,0,3,4,-6,-26,1,-6,0
1472092264802229,0,-1,13,7,-6,2,5,0
1472092264809243,2,4,31,1,1,-5,-4,0
1472092264809243,-2,-6,-10,9,-5,-3,-1,-2
1472092264825312,-4,-4,-28,-8,8,3,-2,0
1472092264825312,-2,-4,40,-9,1,1,-1,-5
1472092264827136,-1,3,0,1,-2,3,-2,-4
1472092264827136,1,-1,23,6,-5,-1,1,1
1472092264839201,-1,0,-35,-8,-2,-1,5,-1
1472092264839201,-1,-1,11,2,-6,-4,-2,-2
1472092264848157,0,-1,-23,-4,7,2,-1,-1
1472092264848157,0,2,-7,1,-10,1,-1,0
1472092264861738,-1,-8,67,-5,0,-7,2,-3
1472092264861738,-2,1,-25,-3,0,0,-2,0
1472092264870856,2,-2,-37,1,3,4,-1,1
1472092264870856,-2,-9,7,-6,-7,-2,1,-2
1472092264885459,3,5,2,3,3,-1,-1,-1
1472092264885459,-6,-1,2,-2,-2,-1,-8,-3
1472092264886460,-2,-1,-4,1,1,0,1,0
1472092264886460,1,3,-3,-5,-14,2,2,-1
1472092264908064,0,-1,-24,0,43,-2,-3,0
1472092264908064,-2,-4,36,2,-17,2,-1,1
1472092264909571,1,-3,0,-2,2,-1,-1,0
1472092264909571,-1,2,-11,-8,-10,-7,1,2
1472092264922616,-3,-4,-3,6,-4,6,-1,-4
1472092264922616,0,-6,-10,-3,6,-3,-1,-1
1472092264929263,-4,-1,7,0,3,1,-5,-3
1472092264929263,-1,4,34,-1,1,0,5,1
1472092264945686,3,-1,-32,-6,-13,-7,-1,0
1472092264945686,-4,0,-4,0,0,-5,1,0
1472092264947266,-1,-5,-14,-5,-9,5,-2,0
1472092264947266,2,4,12,3,4,0,-1,1
1472092264967810,-1,-1,13,1,0,-1,-3,-1
1472092264967810,-2,-4,-3,2,-6,2,3,-2
1472092264969354,0,-1,-8,-3,5,-12,-6,-2
1472092264969354,-2,0,-4,1,-2,4,-2,-2
1472092264982493,0,1,6,-3,-9,1,6,2
1472092264982493,0,-2,-3,1,2,-16,-16,0
1472092264996534,-4,-1,-7,3,17,11,6,-1
1472092264996534,-4,-5,-6,0,-2,1,-3,-6
1472092265005552,0,-1,-6,-7,-4,-5,-1,2
1472092265005552,2,0,1,6,2,6,3,-2
1472092265007055,1,-4,-5,-1,-1,-4,2,2
1472092265007055,2,2,22,2,2,-2,-3,-1
1472092265027613,-7,-8,-37,-9,-4,0,-5,-5
1472092265027613,-1,2,18,0,4,0,1,-1
1472092265028613,0,-3,-3,0,-8,-1,-1,-1
1472092265028613,-3,-1,-6,-1,-1,-1,-1,-1
1472092265041818,-1,3,16,2,-3,6,1,0
1472092265041818,0,0,-7,0,2,-1,1,1
1472092265050349,-2,-2,-11,-4,-6,-1,-1,-3
1472092265050349,0,-4,-5,-4,-4,-6,-6,0
1472092265065383,-2,0,16,2,-1,-4,1,0
1472092265065383,2,1,-8,-2,0,3,0,-1
1472092265066878,-1,-1,-11,0,-4,-5,1,-1
1472092265066878,-3,-4,-20,-3,0,0,-2,-1
1472092265087961,-1,0,-28,-1,1,1,-2,-1
1472092265087961,-2,3,12,2,-3,-1,2,-3
1472092265089471,-3,-5,-5,-9,-7,-5,-5,-1
1472092265089471,0,-2,-11,-6,-3,-1,-4,0
1472092265101327,-1,-4,-10,0,0,2,1,-3
1472092265101327,2,6,7,4,12,3,4,1
1472092265110338,2,1,-24,4,-8,-9,0,2
1472092265110338,-4,-2,30,0,9,12,0,-2
1472092265126008,-3,1,20,-5,-5,-4,-6,0
1472092265126008,-1,-12,-9,-3,5,0,10,1
1472092265127508,0,5,12,-2,-30,-7,-11,-2
1472092265127508,3,0,-3,-2,-1,-4,0,-1
1472092265155643,-1,-4,0,0,-1,-1,-5,-2
1472092265155643,-3,0,1,0,-3,0,0,0
1472092265157140,0,-1,1,-1,8,2,1,-1
1472092265157140,1,-6,-9,-1,-4,-3,-1,-1
1472092265161754,-8,0,2,-4,-2,1,-2,-3
1472092265161754,0,-5,-18,-3,-2,-3,-4,-2
1472092265170763,-2,1,8,2,5,7,1,-2
1472092265170763,-1,3,6,-1,-4,-3,0,-2
1472092265185751,2,-3,-2,3,3,-3,-2,2
1472092265185751,-3,-1,11,-3,-11,-4,1,-3
1472092265186752,2,3,16,3,7,3,-1,-2
1472092265186752,-4,-5,-30,-5,-17,-7,-1,0
1472092265208017,4,-2,8,-2,12,4,0,1
1472092265208017,-1,0,-5,0,-1,3,-3,0
1472092265209460,-1,-1,8,0,-2,8,2,1
1472092265209460,-1,6,19,-1,-16,-13,1,-2
1472092265221611,0,-3,-6,-1,-7,6,1,-3
1472092265221611,2,1,-11,-2,-3,-4,-3,-1
1472092265230505,-1,-2,4,0,11,2,1,-1
1472092265230505,0,3,17,2,3,1,1,-1
1472092265245599,-3,0,6,0,-6,-7,-2,-2
1472092265245599,-2,-1,14,0,5,1,-1,-1
1472092265247068,-3,-1,-37,0,-2,0,0,-3
1472092265247068,-2,-3,15,0,7,0,-1,0
1472092265267908,0,5,8,-5,-6,-4,-2,-3
1472092265267908,-2,-4,4,-3,-4,-1,1,-2
1472092265269366,-2,-5,5,-1,2,-1,0,1
1472092265269366,-3,2,-29,-3,-10,-1,-6,0
1472092265282443,3,-2,-8,0,15,5,2,2
1472092265282443,-7,-2,-12,-2,-5,-4,-2,-4
1472092265289282,2,1,14,-1,-1,-5,-3,1
1472092265289282,-1,-4,3,3,26,3,0,-4
1472092265305412,0,-1,12,0,-35,0,-1,1
1472092265305412,1,-3,-4,-5,-9,-7,-4,-1
1472092265306871,0,-1,11,-4,9,-1,1,0
1472092265306871,-1,-3,-28,1,4,-1,-3,-2
1472092265327940,0,-2,-13,1,8,-2,0,1
1472092265327940,-2,-4,0,1,-1,1,-2,-1
1472092265329968,0,1,-3,-1,-12,-4,0,-2
1472092265329968,2,2,-4,0,0,-2,1,0
1472092265342718,-4,-2,-9,-2,0,3,-2,-8
1472092265342718,0,2,4,-3,0,0,-3,0
1472092265349222,-4,-7,-22,-1,3,1,-1,0
1472092265349222,1,1,20,1,-7,-3,1,0
1472092265365337,-1,0,-3,-2,2,-4,-1,0
1472092265365337,-1,1,-10,-1,3,-1,-3,-2
1472092265366881,-4,-6,-2,-3,-3,0,-1,-3
1472092265366881,-2,1,36,-1,28,-3,-3,0
1472092265388119,0,-7,-3,-5,-22,1,1,1
1472092265388119,2,4,4,5,0,5,0,1
1472092265389620,2,5,-6,5,7,0,0,0
1472092265389620,-4,-8,-3,0,-7,4,0,-2
1472092265401761,1,5,22,-2,6,-7,-2,-1
1472092265401761,-1,-3,1,-4,-1,-3,-2,0
1472092265410340,-4,-2,-5,-4,-6,0,-2,-5
1472092265410340,0,3,-12,0,-5,2,-1,-1
1472092265425032,-1,-3,-3,2,1,-4,-1,-1
1472092265425032,0,4,-2,3,-1,0,-1,1
1472092265427070,2,1,13,1,0,0,2,2
1472092265427070,-3,-1,-2,-4,-5,0,-1,0
1472092265448125,0,0,-2,2,2,-2,-1,0
1472092265448125,-1,-1,2,-3,3,1,-1,1
1472092265449575,-1,-3,-4,-4,-4,-8,-1,-2
1472092265449575,0,2,-3,1,-4,2,0,-2
1472092265461617,-2,-3,-3,-3,6,1,0,0
1472092265461617,-3,-1,6,4,3,-2,1,-1
1472092265470792,-1,1,8,0,-4,-3,-2,-3
1472092265470792,-3,-6,-1,-5,2,-2,2,0
1472092265485490,-3,-1,-9,-3,-45,-6,-1,-2
1472092265485490,3,-3,-14,-5,16,4,-3,0
1472092265486990,-1,4,26,3,-2,1,0,2
1472092265486990,-3,-1,14,0,-3,-4,-2,-1
1472092265508013,-3,-1,-20,2,12,-3,0,-1
1472092265508013,-2,-8,-35,-3,-6,-6,-1,0
1472092265509525,0,4,11,-1,-7,2,1,0
1472092265509525,0,1,-6,-2,-3,-2,-2,0
1472092265521614,1,1,11,0,5,-3,-2,-1
1472092265521614,-2,0,1,3,-5,-2,-2,-3
1472092265530729,-2,-11,-21,-4,7,-2,0,-1
1472092265530729,1,0,-25,-3,-6,2,-1,-1
1472092265545741,1,2,13,-1,6,0,-1,0
1472092265545741,-1,5,29,-1,-7,-4,0,0
1472092265547242,-1,-1,-23,-3,-2,-2,-1,-3
1472092265547242,-2,-1,8,0,16,2,0,-1
1472092265567310,-1,0,-2,2,-11,0,-1,0
1472092265567310,-2,-4,-2,-3,5,-1,-2,-3
1472092265569316,1,3,1,1,-11,0,0,1
1472092265569316,1,-3,-20,-4,4,-1,-2,2
1472092265581435,-2,-3,-21,0,13,3,0,-3
1472092265581435,-1,1,10,-1,-10,-4,-1,-1
1472092265590540,-2,-3,-21,-5,2,-4,-1,-1
1472092265590540,-1,-4,-10,-2,-8,-3,-2,-1
1472092265605624,1,-1,5,1,6,4,0,-1
1472092265605624,-1,3,21,-4,-1,0,-1,-2
1472092265607124,-2,-3,-15,-5,2,-1,0,-2
1472092265607124,0,2,18,2,-14,-1,-2,0
1472092265627832,-1,-5,-8,0,4,0,0,0
1472092265627832,1,-1,0,0,-2,-2,-1,0
1472092265629817,2,2,13,4,29,4,-1,-2
1472092265629817,-2,1,-4,-3,-20,-1,1,-2
1472092265641857,-4,-2,7,6,2,-3,-3,-2
1472092265641857,-1,-3,-32,-8,-2,1,1,-1
1472092265650377,-2,-3,20,-5,-1,-2,-1,0
1472092265650377,0,1,-18,-2,0,-3,-4,-2
1472092265665623,0,0,22,1,1,0,1,-1
1472092265665623,-1,0,5,2,-2,-2,-1,0
1472092265667143,-4,-2,-1,1,-5,0,0,-1
1472092265667143,-1,-2,-10,0,3,0,1,1
1472092265688198,-2,-3,13,-4,-8,-3,-1,-1
1472092265688198,-3,2,-9,-3,0,-3,-1,0
1472092265689199,4,-1,0,0,-9,3,-2,0
1472092265689199,-6,-2,-1,5,0,-1,1,-3
1472092265701434,-3,-1,-11,0,34,-3,-1,0
1472092265701434,5,-5,2,-9,-27,-1,-2,0
1472092265710384,-3,0,2,1,-7,-7,-1,-2
1472092265710384,3,2,10,-1,2,2,-1,-3
1472092265725494,-2,-3,-30,-4,-5,-1,-1,0
1472092265725494,-5,-3,-6,-1,12,2,2,-2
1472092265726954,-1,-3,-1,7,-6,-2,-2,2
1472092265726954,2,6,14,-2,-5,-2,-1,-1
1472092265748041,0,-3,-7,-7,-2,0,1,-1
1472092265748041,1,2,6,3,1,-1,-1,0
1472092265749538,0,-5,-16,-5,-6,-1,-2,0
1472092265749538,-4,-4,-11,6,-1,-2,-2,-1
1472092265761509,-3,0,7,-9,-13,-2,-3,-10
1472092265761509,-5,-6,12,-8,-4,-4,-2,-2
1472092265770015,2,4,5,5,2,4,0,1
1472092265770015,-4,-1,9,0,1,-1,-1,1
1472092265785469,1,-1,-16,-2,-4,-5,-2,4
1472092265785469,7,2,6,5,7,2,2,0
1472092265786915,-11,-1,-1,-2,1,0,-2,-9
1472092265786915,0,-4,-19,0,-5,2,0,0
1472092265808046,-2,3,9,-1,-3,0,-3,-2
1472092265808046,-5,-4,-9,-1,-1,-4,-1,0
1472092265809502,4,0,9,0,0,1,0,5
1472092265809502,1,-3,-11,-15,-3,-2,-2,-2
1472092265821562,2,3,4,5,0,-2,5,1
1472092265821562,-3,1,-5,-2,-4,0,1,0
1472092265830576,-5,-6,-5,2,1,1,0,-2
1472092265830576,4,-3,-10,-2,1,-2,-2,-1
1472092265845475,1,2,9,6,-3,1,-2,1
1472092265845475,-5,-3,0,-3,31,-2,-4,-3
1472092265846977,-4,0,-12,-9,-22,-3,-2,-2
1472092265846977,-4,-4,7,2,-2,-2,3,1
1472092265868133,2,1,-4,-2,2,-1,-1,-5
1472092265868133,2,-1,-14,7,3,0,0,2
1472092265869638,-4,-1,7,-2,0,-1,0,-1
1472092265869638,4,1,-2,-1,-5,-2,0,2
1472092265898031,2,2,8,-2,1,0,-4,3
1472092265898031,-6,0,10,4,-7,3,-1,-3
1472092265899552,4,-1,-32,-3,4,-2,-3,2
1472092265899552,-9,-3,0,0,-7,-2,-1,-5
1472092265905042,-2,-4,-7,-8,-2,-3,-1,-1
1472092265905042,-2,1,6,-8,-13,-9,-2,-1
1472092265911605,-1,-1,12,1,5,8,0,3
1472092265911605,5,0,-10,3,7,1,-1,1
1472092265927684,-10,1,-9,3,-9,-7,-1,0
1472092265927684,9,-5,-9,-3,8,6,1,-4
1472092265929688,-13,1,9,-11,-31,-1,-3,-6
1472092265929688,0,-6,-2,1,5,-19,-7,-1
1472092265950365,0,1,7,4,1,14,2,1
1472092265950365,2,-2,2,3,-4,1,1,1
1472092265951824,4,0,-6,-6,12,-7,0,-2
1472092265951824,3,-1,4,1,-1,6,-1,1
1472092265964979,-2,-2,0,-9,-11,-1,4,0
1472092265964979,-4,0,-5,2,-3,4,-2,-2
1472092265971458,0,-3,8,-1,2,-4,-3,-2
1472092265971458,-4,2,1,-3,3,-2,-2,-1
1472092265988150,-9,-1,6,14,12,1,4,-1
1472092265988150,5,3,-2,-2,-3,-6,0,4
1472092265989653,5,1,-4,-7,-11,-3,-3,-4
1472092265989653,-10,-1,4,-1,-2,-2,1,-2
1472092266010644,13,5,5,-2,4,-4,-2,5
1472092266010644,-16,-5,-13,1,-4,6,-4,-5
1472092266011645,10,-2,-6,-1,2,-6,0,3
1472092266011645,4,-5,0,-10,3,-3,-5,-1
1472092266024199,-6,-7,6,10,1,7,2,-1
1472092266024199,5,6,-4,-17,-12,-8,-1,-5
1472092266033242,-16,-3,1,9,12,12,5,1
1472092266033242,7,3,-3,-4,1,7,3,2
1472092266047793,-4,-4,2,0,0,-8,2,-7
1472092266047793,3,0,2,5,-8,-3,-3,2
1472092266049793,2,-3,-4,-7,20,-2,-4,-3
1472092266049793,0,5,8,5,-12,3,-1,-1
1472092266070552,-1,-4,-14,7,6,-8,-7,3
1472092266070552,-3,-3,-1,-5,-4,8,2,-5
1472092266072053,2,5,14,1,3,1,2,1
1472092266072053,-5,0,-2,-6,-1,-7,-6,0
1472092266084171,4,2,-10,-7,-9,3,3,-2
1472092266084171,-6,-12,-4,-11,1,-7,-2,-2
1472092266093202,3,5,5,10,-2,14,2,2
1472092266093202,-2,-7,9,-1,0,0,2,-2
1472092266107950,-6,2,-4,-6,-7,-5,-8,-7
1472092266107950,0,-6,-2,7,7,-1,3,3
1472092266109407,2,0,-3,-6,-7,-4,-3,1
1472092266109407,-8,-1,-4,4,2,2,1,-2
1472092266130641,0,-8,1,-5,-3,-7,-6,1
1472092266130641,7,2,-9,-4,-3,0,-4,-1
1472092266132092,-12,-2,8,3,2,3,0,-7
1472092266132092,6,-1,3,2,-8,2,2,-2
1472092266144227,-1,-3,-8,-8,-1,-5,2,0
1472092266144227,0,1,-1,4,-2,1,-2,-2
1472092266153229,0,-2,1,3,-10,-7,-1,-1
1472092266153229,-6,1,0,-7,0,-7,-5,-4
1472092266167897,1,-3,-5,-8,-9,1,-1,2
1472092266167897,4,6,9,12,8,-1,0,2
1472092266169459,-3,-7,-17,-12,-3,-5,-1,-1
1472092266169459,2,4,-5,6,4,6,3,0
1472092266190653,1,-2,4,-11,-12,-7,-5,-1
1472092266190653,-1,4,-10,-5,-1,-5,0,-2
1472092266192155,-1,-1,7,6,2,6,0,-2
1472092266192155,0,-1,6,7,3,-1,2,0
1472092266204023,-4,-2,-9,-2,2,9,3,0
1472092266204023,-3,-2,-18,-8,2,0,5,0
1472092266213051,4,-1,-5,1,-3,-10,-6,-1
1472092266213051,2,-1,-4,-12,-10,-15,-5,-2
1472092266235671,-4,2,14,14,8,15,1,-4
1472092266235671,-4,-4,10,13,6,2,0,1
1472092266236672,1,0,5,1,-3,-5,-2,0
1472092266236672,-3,-3,-7,-18,-8,-6,-7,-5
1472092266250741,-2,-1,3,-3,-3,-7,-2,3
1472092266250741,1,-5,-3,9,-1,2,4,-1
1472092266252269,-1,0,-8,-2,-1,-4,-8,0
1472092266252269,-1,3,-11,12,11,9,7,0
1472092266264289,4,-5,-1,-2,-8,-5,-2,-1
1472092266264289,-9,0,27,-4,-1,-7,-7,-5
1472092266272929,-4,-9,-14,-23,-8,-2,2,-3
1472092266272929,1,4,3,10,6,6,4,2
1472092266288157,3,2,-3,23,17,0,2,2
1472092266288157,-3,0,-14,-7,-15,1,-3,1
1472092266289602,3,6,4,3,-2,-14,-4,-2
1472092266289602,-3,3,2,-7,-5,-3,1,-3
1472092266310781,-6,-12,-9,-17,-9,7,-4,-7
1472092266310781,1,1,12,2,4,-3,1,2
1472092266312262,-4,3,-9,12,11,0,3,-1
1472092266312262,6,0,0,6,7,4,1,4
1472092266324290,-3,-2,-3,-13,-7,-6,-2,-3
1472092266324290,2,0,-5,-12,-15,-1,-8,-2
1472092266332857,2,8,26,9,8,4,3,2
1472092266332857,-6,-3,-15,-2,-5,-6,-4,-1
1472092266348357,0,5,16,4,4,4,2,5
1472092266348357,15,2,3,-1,2,-2,-4,1
1472092266349343,-9,2,14,-2,-2,-6,7,-3
1472092266349343,-2,-3,-24,0,2,8,-1,-2
1472092266370836,4,2,12,-3,-2,-3,0,1
1472092266370836,1,2,-14,-10,-11,-25,-13,-6
1472092266372270,-4,-2,3,-4,-5,26,14,1
1472092266372270,4,-5,18,5,-3,-10,2,2
1472092266384259,-2,5,2,-3,2,-3,-4,-1
1472092266384259,-11,1,-5,6,9,1,1,-1
1472092266392908,-3,-22,-23,-26,-24,-19,-14,-4
1472092266392908,3,0,28,8,4,4,2,-1
1472092266407963,-5,2,-9,13,9,0,3,-2
1472092266407963,-6,-10,0,-7,-8,-1,1,-2
1472092266409971,8,6,2,5,4,5,-3,3
1472092266409971,-4,-5,-4,-9,-11,-1,-3,-3
1472092266430524,1,6,21,14,5,5,3,-1
1472092266430524,-4,-3,-24,-4,-9,-5,-6,-3
1472092266432216,-5,0,7,-11,-5,-6,-5,-2
1472092266432216,2,1,-5,-10,-1,-10,0,2
1472092266444238,-4,-2,-8,-7,-3,2,1,-5
1472092266444238,6,2,12,6,11,10,6,3
1472092266453235,6,-15,5,6,-1,0,-2,2
1472092266453235,-1,-17,-12,-6,-5,-19,-14,-3
1472092266468291,-7,1,1,2,8,18,3,-1
1472092266468291,-10,6,14,2,-1,6,7,1
1472092266469294,0,10,-5,3,3,-5,-15,-3
1472092266469294,-4,3,3,-7,-12,4,-4,-1
1472092266490457,10,-6,-3,-8,0,-9,2,0
1472092266490457,1,-2,0,1,9,5,-3,-1
1472092266491403,3,2,-21,19,11,7,9,5
1472092266491403,-2,5,5,3,0,-5,-2,-3
1472092266503866,6,-1,-13,-18,-17,-9,-7,2
1472092266503866,-5,-5,3,-11,-9,-1,-2,-2
1472092266512890,-7,1,5,3,-9,-8,-4,-3
1472092266512890,6,6,2,14,13,20,22,5
1472092266528085,3,1,-3,5,7,-7,2,1
1472092266528085,-9,-1,7,7,9,5,-4,-1
1472092266529616,0,-8,-11,-15,-12,-8,-5,-2
1472092266529616,8,-10,-10,-11,-2,9,15,-1
1472092266550617,4,10,12,4,-5,-6,-13,3
1472092266550617,-7,0,-2,11,8,20,17,0
1472092266552165,-2,0,-3,-3,6,3,-6,0
1472092266552165,-5,1,-1,-6,-5,-14,-24,-4
1472092266564200,1,-3,2,-4,-1,-10,2,0
1472092266564200,1,-6,-9,0,-4,12,7,-4
1472092266572707,-4,-3,-7,0,-1,-6,-2,-3
1472092266572707,5,3,3,-4,-3,8,-1,3
1472092266595691,1,-4,0,-2,1,-7,-9,-2
1472092266595691,-4,-10,-18,-6,-7,-4,-3,-2
1472092266597212,-6,-2,1,-4,-5,-3,2,-5
1472092266597212,-7,-2,-6,-10,-4,-8,-8,-3
1472092266610740,-3,-9,-8,4,7,4,3,-1
1472092266610740,12,6,14,14,6,-7,-6,1
1472092266612239,-5,-8,3,3,8,11,-3,-1
1472092266612239,-1,-7,-7,-3,-7,-5,2,2
1472092266623293,-7,1,-4,-9,-9,-5,-14,-3
1472092266623293,8,4,1,12,0,-8,3,2
1472092266633652,4,-8,-11,-6,-5,1,4,-1
1472092266633652,-6,9,-8,4,3,-11,-2,-5
1472092266647473,-5,-2,-11,-11,-11,24,-1,1
1472092266647473,3,13,23,-2,0,-9,-17,2
1472092266653941,4,-4,-15,5,6,4,12,0
1472092266653941,4,-5,14,7,4,-6,7,3
1472092266670519,-5,1,-5,-8,-6,-1,-20,-7
1472092266670519,5,-1,-26,-5,-12,4,7,3
1472092266672019,-7,7,-3,-8,-2,-3,-7,-3
1472092266672019,0,5,6,9,16,3,-1,1
1472092266684120,2,3,1,8,2,4,3,0
1472092266684120,-2,-5,2,-3,-5,-4,0,-4
1472092266693188,1,-6,4,-1,-4,-5,-4,-3
1472092266693188,-4,-6,-2,3,0,-5,-5,-3
1472092266707181,-1,-6,-11,-3,-5,-11,0,-4
1472092266707181,-2,-2,3,-13,-7,-4,-1,-2
1472092266714171,7,5,3,-4,-6,14,2,2
1472092266714171,-21,-4,4,-1,1,6,-2,-4
1472092266730535,1,-1,4,5,4,-5,3,-3
1472092266730535,-7,-3,0,-1,-3,-9,-10,-1
1472092266732029,7,-7,1,-4,-1,-16,7,1
1472092266732029,0,-1,-15,-5,1,19,-3,2
1472092266744061,-7,-4,3,-3,-5,-26,-4,-1
1472092266744061,-7,-3,-13,-10,-11,14,-3,-4
1472092266753068,-4,-1,8,6,2,4,8,0
1472092266753068,-2,3,4,10,11,18,3,1
1472092266767967,1,-2,-8,-6,-3,7,3,0
1472092266767967,1,-2,1,-4,-1,-17,-7,-2
1472092266769481,5,6,0,-6,-3,-7,-13,1
1472092266769481,2,-1,4,-3,-6,1,0,-2
1472092266790641,-1,-2,1,10,-2,-2,9,-2
1472092266790641,-1,-3,-2,-2,2,-2,7,2
1472092266792058,8,1,-1,8,9,-2,0,0
1472092266792058,-22,-3,-9,-7,-11,-6,-4,-7
1472092266820621,1,0,7,3,6,3,0,1
1472092266820621,6,-1,5,1,-5,-1,-4,0
1472092266822185,-8,7,-4,3,1,-12,2,-1
1472092266822185,7,-13,21,-11,-8,-1,-3,0
1472092266828162,-7,-1,-5,-9,-2,-8,-7,-3
1472092266828162,0,-4,-1,4,4,1,-4,-1
1472092266829647,-4,1,-10,-8,0,7,7,1
1472092266829647,6,3,8,11,3,-18,7,0
1472092266850684,-5,0,0,-2,1,19,1,0
1472092266850684,2,1,-5,-2,3,-22,-14,-1
1472092266852182,-4,-2,7,5,-1,29,-3,-4
1472092266852182,3,1,-7,-1,0,-13,2,2
1472092266873069,11,3,-6,-3,-7,-4,0,2
1472092266873069,-3,-3,6,-7,-3,8,-2,-7
1472092266874571,-1,-5,-18,5,1,0,5,-1
1472092266874571,-1,-2,-1,-6,0,-2,-11,-6
1472092266888106,-1,0,11,7,2,-2,-3,2
1472092266888106,4,-6,-7,-6,-1,4,5,-2
1472092266889608,-11,4,4,-6,-6,0,-3,1
1472092266889608,7,2,-4,-7,-6,-9,-9,-6
1472092266910562,1,-2,-2,3,4,-13,3,1
1472092266910562,-7,-1,-1,5,8,13,6,1
1472092266912081,5,0,2,-1,0,-11,-5,-1
1472092266912081,0,-4,1,2,-3,-2,6,0
1472092266933203,1,0,-13,-12,-7,5,1,-3
1472092266933203,-3,3,-5,0,-2,3,-5,-1
1472092266934714,8,-1,26,-3,-4,-9,11,-2
1472092266934714,-13,0,-1,-5,3,12,-17,-2
1472092266947362,-2,-2,-5,7,6,2,7,-1
1472092266947362,-1,-1,1,0,0,1,5,-1
1472092266954406,-7,-10,-3,-10,-10,-11,-9,-4
1472092266954406,5,3,-7,0,-3,-24,-8,1
1472092266970485,1,6,1,5,6,10,15,-2
1472092266970485,-8,-3,-5,-4,1,18,-7,-3
1472092266971968,2,-2,-4,-2,-5,8,6,-1
1472092266971968,-5,-1,-4,-5,-2,1,23,1
1472092266993319,-5,-8,2,1,1,-17,-19,-2
1472092266993319,7,1,-15,-12,-12,-31,-17,0
1472092266994709,4,4,0,-1,1,12,6,1
1472092266994709,4,3,-5,6,7,8,2,0
1472092267007418,5,0,5,7,4,6,-3,-1
1472092267007418,-9,-2,11,2,-7,-6,16,0
1472092267014134,-19,0,-2,1,2,-11,-6,-2
1472092267014134,7,-5,-9,-7,-7,10,-1,-1
1472092267030380,2,0,1,-4,-3,-3,2,-1
1472092267030380,1,1,-1,1,6,-1,-9,-1
1472092267031922,8,2,-6,3,3,1,-3,2
1472092267031922,4,7,6,1,0,-7,-4,2
1472092267053177,-16,-8,-9,-9,-9,10,4,-6
1472092267053177,-1,-2,-3,-2,-3,-2,10,-1
1472092267054708,1,0,6,8,7,-1,-4,-2
1472092267054708,6,-2,-3,-2,-2,-12,-7,2
1472092267067371,-4,-2,-7,-3,-9,-13,-14,-2
1472092267067371,-5,-1,10,-6,-6,-10,-8,-4
1472092267073844,0,-1,-3,8,4,9,9,2
1472092267073844,-2,-3,-2,3,-3,-8,-5,-3
1472092267090370,8,2,7,-4,-4,13,-2,0
1472092267090370,-19,-8,-11,-6,-2,-18,15,-4
1472092267091871,2,1,5,-1,-2,-1,-12,3
1472092267091871,-4,-3,-6,-5,-3,22,8,-3
1472092267113074,1,2,3,-1,-4,-12,-14,0
1472092267113074,3,0,-1,2,3,-8,15,-1
1472092267114576,-4,-3,-9,-8,-5,3,-13,-2
1472092267114576,-17,-1,-1,-2,-2,2,-1,-4
1472092267127492,6,0,0,0,-3,-16,-2,3
1472092267127492,7,4,1,7,4,28,-9,1
1472092267134067,-7,-8,-8,-5,-1,-10,3,-5
1472092267134067,7,1,7,5,8,2,9,3
1472092267150642,-2,-4,-4,-3,-1,3,-2,-3
1472092267150642,1,0,-2,-2,0,15,7,2
1472092267152058,-1,-3,3,3,-4,-2,-10,-2
1472092267152058,0,0,3,0,10,6,2,1
1472092267173185,1,3,-8,5,1,0,8,0
1472092267173185,1,-1,4,2,6,13,0,1
1472092267174728,1,1,-2,-2,1,-3,-4,-1
1472092267174728,-10,0,-2,-5,-11,-11,-13,-2
1472092267188111,4,-3,-1,-2,1,17,17,1
1472092267188111,-4,0,-1,-1,-4,-5,-9,-2
1472092267194195,0,2,3,-1,0,-3,3,-1
1472092267194195,5,-1,-4,-2,-3,1,-3,-2
1472092267210326,-10,0,4,2,1,-10,5,1
1472092267210326,6,-2,-8,-7,-2,16,4,-1
1472092267212280,-9,0,-1,-5,-4,-11,-10,-4
1472092267212280,-1,-2,-1,11,9,4,-1,-1
1472092267232967,-2,5,0,5,7,-2,8,2
1472092267232967,0,1,5,4,-2,-24,-8,0
1472092267234880,8,0,-14,-6,-4,8,3,1
1472092267234880,-9,-7,-7,-13,-11,3,4,-4
1472092267247436,3,-1,10,-5,-4,-15,-13,0
1472092267247436,-3,-1,-6,4,5,10,15,1
1472092267253918,5,2,2,5,7,25,7,2
1472092267253918,-3,1,-3,0,-4,-17,-1,1
1472092267270634,-6,-5,-7,-10,-5,16,-2,-6
1472092267270634,-5,-2,3,1,-3,-7,-10,-6
1472092267272112,-2,-6,-4,-5,-5,-16,-8,0
1472092267272112,8,5,3,8,6,20,10,-1
1472092267292768,-2,-4,-5,1,1,-32,-11,-1
1472092267292768,-3,1,-2,-4,-4,29,-12,-2
1472092267294269,-4,-1,-10,-11,-14,-8,0,-5
1472092267294269,7,3,6,-2,-3,-16,-8,-1
1472092267306826,-17,-4,-3,0,2,-6,1,-3
1472092267306826,4,2,4,6,8,14,-7,2
1472092267315914,-5,-2,0,5,2,4,4,1
1472092267315914,2,5,1,-3,-5,-4,1,3
1472092267330530,5,2,5,-1,-5,8,-1,-6
1472092267330530,2,-1,0,-5,-1,-12,3,2
1472092267331976,0,1,-3,9,7,-12,2,-2
1472092267331976,-4,-4,-5,-6,-1,-8,0,-3
1472092267353070,4,2,1,4,-2,-4,-3,3
1472092267353070,4,-2,-2,0,-1,18,10,1
1472092267354572,-11,-1,1,-2,-9,-19,-10,-3
1472092267354572,2,-4,-4,-1,-1,3,-2,-2
1472092267366631,-1,-4,-10,-9,-7,-5,-13,-3
1472092267366631,-1,-2,1,-7,-6,-15,-9,-4
1472092267375210,3,4,6,8,4,-33,9,3
1472092267375210,-1,-2,3,5,5,-1,0,-1
1472092267390406,-7,-14,-11,-12,-6,10,4,-3
1472092267390406,-7,-5,-10,-9,-2,0,-9,-4
1472092267391880,7,6,7,15,7,20,-1,6
1472092267391880,-2,-6,-6,-8,-6,-21,-7,-4
1472092267413345,-3,4,9,4,-2,-5,-5,2
1472092267413345,0,-4,-6,-5,-7,0,4,-6
1472092267414754,0,-5,1,-9,-4,-22,5,-3
1472092267414754,-1,-3,0,-1,-3,14,-6,0
1472092267426650,1,2,2,-1,0,2,4,1
1472092267426650,-13,-1,-2,2,-2,-7,-1,-1
1472092267435681,10,0,1,0,-1,-8,1,-2
1472092267435681,1,-1,1,7,5,12,-10,-1
1472092267450315,1,-1,-5,-6,-3,15,-7,-3
1472092267450315,-9,-4,10,3,-2,-35,2,0
1472092267452274,-2,2,-9,4,10,7,-16,-2
1472092267452274,-2,-3,2,-1,-3,7,0,1
1472092267472905,-7,0,-4,-2,-2,-7,1,1
1472092267472905,3,-1,-3,-3,4,22,13,-1
1472092267474379,-3,-5,1,-6,-9,-13,-11,-4
1472092267474379,-6,-2,-12,-10,-10,19,-1,-4
1472092267486444,4,1,6,8,5,-1,-2,0
1472092267486444,2,-4,-12,7,10,5,-2,-1
1472092267503114,-4,-2,-1,-4,-4,-2,-5,-2
1472092267503114,1,6,5,1,-3,-10,19,4
1472092267510631,2,-1,3,-5,4,15,3,1
1472092267510631,2,3,-6,0,-1,-24,-9,-1
1472092267512133,-7,2,0,-5,-5,8,8,-2
1472092267512133,-5,-5,-2,-1,-2,-16,-6,-2
1472092267533251,3,1,4,6,4,-8,2,1
1472092267533251,1,1,5,3,-4,16,0,0
1472092267534802,4,-5,-5,-4,0,1,-9,0
1472092267534802,-2,-1,1,-4,-6,-11,-4,-2
1472092267546692,-6,-2,-4,-3,0,24,8,-2
1472092267546692,4,-1,0,3,2,-32,-11,1
1472092267555710,-8,0,0,1,-3,3,-15,-3
1472092267555710,2,2,1,0,3,6,-5,0
1472092267570325,-1,0,-8,-7,-17,-18,-5,-6
1472092267570325,-3,-2,3,-6,-7,-14,-3,-2
1472092267572350,0,-2,-3,-3,1,-2,-4,2
1472092267572350,-4,0,1,5,5,12,5,3
1472092267593065,-4,-1,-2,0,-1,6,2,1
1472092267593065,8,9,6,-2,-8,-15,3,2
1472092267594607,-3,2,2,3,6,54,-6,-2
1472092267594607,3,-1,-3,1,3,-33,-2,1
1472092267606684,6,1,-4,-6,-3,2,-9,0
1472092267606684,-1,5,7,10,10,3,16,4
1472092267615817,-7,-7,3,6,8,15,14,0
1472092267615817,-1,-2,-3,-4,-3,3,0,-4
1472092267630490,4,1,-2,-1,3,-40,-1,2
1472092267630490,-6,-3,-6,-7,-8,2,-7,-2
1472092267631997,7,0,2,2,5,-3,-4,3
1472092267631997,-6,-3,0,-1,-4,27,3,-3
1472092267653086,-2,-5,-4,1,9,-8,9,0
1472092267653086,3,3,4,4,1,-19,-21,-2
1472092267654636,-9,-4,-11,-7,-3,-19,18,-3
1472092267654636,6,-1,1,3,2,2,-5,0
1472092267666747,-3,-4,-2,-6,-5,15,-4,-3
1472092267666747,-8,-4,-6,-1,1,17,0,0
1472092267675657,3,-2,4,-3,-3,15,16,-3
1472092267675657,-6,-6,-6,-4,-4,-26,-20,-2
1472092267690323,1,-1,0,2,-3,-16,-13,0
1472092267690323,0,-4,-8,-2,-2,24,14,-1
1472092267692229,3,-3,-8,-8,-8,-60,-10,-2
1472092267692229,-2,-3,3,-6,-5,49,5,-4
1472092267712941,-22,-3,5,12,9,18,8,-3
1472092267712941,-6,-4,3,0,-1,-15,-16,-5
1472092267714443,5,-1,-10,-7,-8,7,1,2
1472092267714443,2,0,2,0,-5,-32,2,-1
1472092267735579,5,0,-4,-2,-4,18,5,-2
1472092267735579,2,-6,-6,8,10,-3,8,-1
1472092267737014,-10,-5,15,-2,-6,13,-3,-2
1472092267737014,-1,-3,-5,-4,-4,-23,13,1
1472092267750601,3,0,3,0,7,19,-5,0
1472092267750601,-4,0,2,3,4,-15,6,-2
1472092267752103,6,-3,-4,-4,-9,10,-9,-1
1472092267752103,-12,-1,-8,-1,4,0,2,-4
1472092267772904,1,2,-3,-2,-9,17,9,-2
1472092267772904,0,-2,-4,-18,-12,-14,0,-2
1472092267774462,4,4,2,4,10,-6,-4,1
1472092267774462,-7,-3,2,10,5,0,-2,-2
1472092267795330,-1,-4,6,9,8,-15,-4,-2
1472092267795330,0,-3,-14,-6,-9,16,4,-2
1472092267797276,2,4,4,-4,-4,-1,-5,-3
1472092267797276,-2,1,-7,-9,-5,-1,-7,-1
1472092267810396,5,2,0,-4,-1,-4,1,0
1472092267810396,5,4,11,4,5,-2,-15,2
1472092267811799,1,2,2,2,0,5,12,1
1472092267811799,1,-5,0,-3,0,8,5,-1
1472092267832912,-7,-4,-2,2,2,1,-7,-2
1472092267832912,-2,-2,-2,-3,-4,-11,-14,-1
1472092267834418,-7,-1,-1,-4,-1,28,12,-1
1472092267834418,5,-4,-7,-3,2,-7,-8,0
1472092267855458,-4,0,-3,-3,-2,-9,5,0
1472092267855458,7,0,-1,4,-3,-7,1,1
1472092267856942,-2,1,-1,0,3,19,0,-2
1472092267856942,5,-1,0,-4,-3,-11,-2,-2
1472092267870481,0,0,0,-5,-4,6,-4,-1
1472092267870481,-10,-2,-7,-4,2,18,8,0
1472092267871981,5,-2,2,3,-3,-20,-7,-4
1472092267871981,3,3,1,9,6,3,-6,3
1472092267893031,3,2,0,3,3,2,2,3
1472092267893031,-4,3,9,5,6,2,-3,-2
1472092267894487,-2,-3,-14,-8,-7,-5,-1,0
1472092267894487,2,1,3,-4,-5,-2,0,-1
1472092267915723,-5,-4,-5,-4,-8,-9,-2,-1
1472092267915723,-1,1,5,-3,-2,0,-14,-2
1472092267917224,-5,-5,-9,-1,1,-1,3,-3
1472092267917224,2,2,0,3,-1,-7,-3,-1
1472092267929823,0,-3,-1,-2,-2,-4,-15,-2
1472092267929823,1,3,2,-2,-2,10,24,0
1472092267936824,-4,-2,2,-3,1,-22,-34,-2
1472092267936824,-6,-4,-2,-7,0,32,37,4
1472092267952841,6,-1,-1,9,0,-9,-23,0
1472092267952841,0,-7,-11,0,1,-13,1,-2
1472092267954341,0,2,4,-3,-5,-23,-1,-3
1472092267954341,1,3,0,-2,-7,7,-9,-1
1472092267974963,2,-1,0,-11,-3,-14,-7,-1
1472092267974963,-2,-3,-7,-1,2,36,-9,-5
1472092267976971,3,4,11,23,19,-8,21,6
1472092267976971,-4,-2,-7,-2,-5,-5,-9,-2
1472092267990019,3,4,2,-5,0,-2,18,2
1472092267990019,-1,-1,-3,-9,-12,-5,-14,-4
1472092267996337,-4,-2,-5,-10,-10,3,0,0
1472092267996337,-4,2,5,5,-1,-9,-2,-1
1472092268012995,-7,-2,-2,0,-3,4,1,-1
1472092268012995,-7,-3,-4,-3,-1,-12,6,0
1472092268014453,8,0,4,3,5,22,-2,-2
1472092268014453,5,-1,3,5,7,-18,-6,2
1472092268035579,-13,-7,-14,-9,-9,13,7,-5
1472092268035579,8,-1,7,3,-1,-8,2,-1
1472092268036821,-10,-9,-4,-2,-2,27,17,-6
1472092268036821,-1,-1,-3,-6,2,-21,-1,-1
1472092268049880,8,3,6,7,6,16,-6,0
1472092268049880,-17,-3,-6,-7,-14,-34,-2,-1
1472092268056344,11,2,-1,0,-3,-10,0,-1
1472092268056344,1,-1,1,7,11,-4,-10,0
1472092268073050,0,-5,0,-4,-4,3,-3,-5
1472092268073050,1,-1,-1,-1,-2,42,4,-1
1472092268074509,-3,3,-5,-9,-12,-48,-6,0
1472092268074509,-2,-12,2,-4,-1,25,3,-4
1472092268095722,0,0,-2,1,3,-11,-10,1
1472092268095722,6,5,1,0,-2,-15,-11,-1
1472092268096724,-4,-16,-5,-5,1,5,-3,1
1472092268096724,-6,2,-2,-1,-1,9,-1,-2
1472092268109985,3,-1,-1,1,-4,-13,3,-2
1472092268109985,-3,-2,5,-1,-3,-27,-9,0
1472092268116500,-14,3,2,3,0,31,7,-1
1472092268116500,11,3,-2,-3,-2,14,-1,-5
1472092268133218,-12,-5,-1,-9,-10,-17,-11,-1
1472092268133218,-1,2,5,7,7,-18,-1,3
1472092268134719,3,-3,-7,1,13,8,-9,-2
1472092268134719,-2,-1,-1,-1,-7,7,2,2
1472092268155553,2,1,3,0,4,-32,4,-4
1472092268155553,5,-5,1,7,3,25,-14,-4
1472092268156951,-10,-1,-7,-7,-9,7,11,2
1472092268156951,0,-3,-4,-8,-8,-7,-7,-4
1472092268169984,0,2,1,3,4,-17,-18,1
1472092268169984,0,-3,0,2,4,-11,4,3
1472092268176513,9,2,4,9,2,35,11,2
1472092268176513,-5,-1,-4,-5,-6,-14,-10,-1
1472092268193131,-4,-1,-1,-3,-7,9,8,-1
1472092268193131,-3,-4,-7,-7,-5,13,-16,-6
1472092268194684,8,2,-2,-2,-3,-19,-5,3
1472092268194684,-3,-2,-1,-3,-6,-14,-1,-4
1472092268215360,7,1,4,8,11,-3,13,2
1472092268215360,-3,-1,1,4,6,1,6,-1
1472092268216812,-4,0,-2,-2,-5,6,-12,-3
1472092268216812,-5,2,-2,-7,-6,7,-3,-4
1472092268228857,7,0,-1,1,4,8,16,2
1472092268228857,-8,0,-4,-1,0,-8,-2,-1
1472092268237872,5,0,2,-2,-12,-31,-23,-3
1472092268237872,-10,-2,0,2,-3,32,5,-5
1472092268253037,0,-3,-6,2,5,5,0,-2
1472092268253037,8,-1,1,-4,1,-7,-2,3
1472092268254535,-4,-2,-1,-6,-4,16,0,0
1472092268254535,-2,1,4,-1,5,-2,-1,-2
1472092268275261,3,-2,2,11,0,-21,3,2
1472092268275261,-6,1,-1,-1,-3,81,22,0
1472092268277248,4,0,1,1,-3,-38,-6,0
1472092268277248,4,-2,-5,-5,-3,-13,7,0
1472092268289306,-1,4,2,1,7,49,18,1
1472092268289306,1,-1,-3,-3,4,-16,0,-1
1472092268297969,-7,-1,1,-1,0,-6,9,-1
1472092268297969,6,-1,0,3,4,-12,1,5
1472092268313150,-9,1,-3,-5,-8,-8,-5,-1
1472092268313150,8,3,1,4,3,2,11,2
1472092268314703,-1,0,-3,1,6,-20,-31,-2
1472092268314703,-3,-1,-1,3,3,2,4,0
1472092268335379,1,3,2,-6,-3,6,-5,2
1472092268335379,-1,-4,-8,-10,-8,-8,2,-6
1472092268337497,-11,1,5,13,22,21,20,4
1472092268337497,8,4,2,17,3,-34,-13,4
1472092268349435,-18,-4,-9,-12,-18,2,-21,-11
1472092268349435,7,1,-1,-6,-6,-1,14,1
1472092268357932,3,0,-1,-4,-5,-23,2,-3
1472092268357932,2,4,2,0,5,-6,-15,1
1472092268373110,1,-7,-5,-7,-15,37,5,-6
1472092268373110,-11,-2,1,-2,3,-47,-17,-1
1472092268374614,7,-6,-9,-7,-8,6,-7,-4
1472092268374614,-8,2,4,5,2,-3,-31,-4
1472092268395982,1,-2,0,-1,-1,-30,4,-2
1472092268395982,-12,-3,-5,-6,-10,-2,-8,-6
1472092268397438,5,4,3,-2,0,25,-8,2
1472092268397438,3,-5,-6,-1,7,14,30,4
1472092268409208,-14,-1,-3,-3,1,-27,-16,-1
1472092268409208,10,2,3,4,1,-8,-1,1
1472092268418231,-3,0,1,3,-2,20,-5,-1
1472092268418231,-5,-3,-3,-6,-6,-9,-7,-4
1472092268433066,3,-1,0,-4,-3,-17,-3,2
1472092268433066,0,-2,-2,-6,3,23,-7,0
1472092268434597,-3,-3,0,2,0,6,17,-1
1472092268434597,-3,0,0,4,1,1,12,0
1472092268455665,4,-2,-1,2,7,-19,0,3
1472092268455665,5,0,-2,2,-5,-7,-1,1
1472092268457160,-19,-4,-2,-9,-9,-32,1,-5
1472092268457160,3,0,1,-1,5,33,21,0
1472092268469347,7,-1,4,4,3,-13,-4,-2
1472092268469347,-2,-1,-3,-1,-3,-10,3,-3
1472092268478017,-7,-1,0,-1,-2,-11,-4,-2
1472092268478017,-6,-3,1,-3,-3,12,8,-5
1472092268492630,-2,0,-1,-2,2,29,-1,-2
1472092268492630,10,-1,-2,2,2,-18,-6,0
1472092268494840,3,0,-1,-3,-7,-9,-2,0
1472092268494840,-3,0,-1,0,-13,-1,-14,-1
1472092268515850,7,0,-2,-2,1,-18,-10,-1
1472092268515850,-16,1,3,2,0,29,14,2
1472092268517319,7,1,-3,5,9,4,11,3
1472092268517319,2,1,5,2,-4,-33,-11,-4
1472092268529367,-4,-2,-3,-2,-4,9,29,2
1472092268529367,2,-1,-6,-4,0,7,-8,0
1472092268538411,2,0,1,2,1,21,-4,-2
1472092268538411,1,-2,-3,-4,-4,-23,4,2
1472092268553036,-6,-5,-5,-7,-5,14,2,-1
1472092268553036,3,-2,-3,-7,-3,6,-2,0
1472092268554538,-10,-1,2,2,2,-13,-7,-1
1472092268554538,2,0,-3,8,8,38,13,1
1472092268575215,4,2,0,2,-1,-24,-23,-1
1472092268575215,4,1,2,0,-3,9,8,1
1472092268577221,-11,-6,-4,-7,0,19,18,-2
1472092268577221,-2,-6,-4,-9,-3,-16,-15,-4
1472092268589231,-3,2,1,0,3,-8,4,3
1472092268589231,0,-2,-1,-2,-11,-6,-15,-2
1472092268598280,8,2,2,1,-2,-15,-3,-2
1472092268598280,-13,-5,-3,-3,5,13,-18,-5
1472092268612837,-2,-8,-7,-3,-6,-4,4,-2
1472092268612837,0,1,1,6,9,-3,3,-3
1472092268614306,7,-3,-3,-5,-19,-21,-2,2
1472092268614306,-2,2,0,-6,2,18,0,-4
1472092268635095,-3,-1,6,6,4,16,-1,-1
1472092268635095,-3,1,6,11,12,5,6,3
1472092268637102,0,-2,-5,-6,-3,-16,4,-2
1472092268637102,1,2,-1,-8,-8,-15,-13,-1
1472092268649114,-1,0,-1,-5,-6,5,8,-2
1472092268649114,0,1,3,4,-1,5,4,0
1472092268658133,5,-3,-3,2,3,-18,-11,-2
1472092268658133,0,0,1,5,7,15,10,0
1472092268673184,-8,-5,-5,-5,-6,4,-4,-6
1472092268673184,-9,-3,-1,-5,-4,20,-3,-1
1472092268674725,6,2,-2,3,0,6,12,3
1472092268674725,2,-2,3,1,-2,-2,-10,-1
1472092268695381,1,2,2,5,6,-5,9,5
1472092268695381,9,-3,-5,-3,-3,-1,-2,-1
1472092268697186,-9,-2,-5,-7,0,-2,-3,-3
1472092268697186,-3,0,0,6,5,-7,4,2
1472092268717949,-1,1,0,2,-1,24,7,0
1472092268717949,-2,-3,-4,-4,-6,-23,-17,-3
1472092268719397,-3,-3,2,-9,-5,3,-5,-4
1472092268719397,3,1,0,2,1,-8,2,1
1472092268733047,-1,-1,2,5,3,-3,-8,-3
1472092268733047,-1,-1,0,0,-1,-7,3,-1
1472092268734504,2,-1,-3,-4,-6,15,-1,1
1472092268734504,-6,-5,-5,-11,-11,-17,-16,-2
1472092268755741,-2,1,-4,0,-2,23,8,-1
1472092268755741,-8,-1,-1,-3,0,-8,9,-2
1472092268757227,-1,-2,-4,2,-1,-19,-12,-1
1472092268757227,1,1,5,5,8,13,15,4
1472092268778347,3,0,2,3,-1,-4,-16,-3
1472092268778347,-6,-1,0,2,-4,-3,7,-1
1472092268779951,4,1,-2,-5,-2,10,5,-2
1472092268779951,-3,-3,-6,-7,-12,-14,-3,-4
1472092268792837,-1,-3,-5,-11,-9,-2,1,-1
1472092268792837,3,1,3,-3,0,0,2,2
1472092268794337,5,0,2,5,9,3,-9,-3
1472092268794337,-19,-1,1,8,-4,8,13,0
1472092268815267,2,1,3,4,12,-22,-18,1
1472092268815267,-5,-4,-3,2,1,10,16,0
1472092268817267,2,-4,-1,-6,-11,-14,-10,-1
1472092268817267,5,0,-5,-11,-3,14,7,-1
1472092268837876,2,1,-5,1,-2,10,9,0
1472092268837876,-9,-7,1,-2,-5,-33,1,-4
1472092268839370,3,6,5,8,9,21,4,3
1472092268839370,2,-4,-5,-6,-6,-8,-1,-3
1472092268852464,3,2,-1,-10,-12,6,-1,-1
1472092268852464,8,0,-3,0,9,-5,-4,-3
1472092268858893,-7,1,-1,8,7,8,9,-2
1472092268858893,1,0,3,3,-1,-13,1,0
1472092268875493,2,-5,-4,-2,-1,-10,-13,-1
1472092268875493,1,3,-1,-8,-12,0,-12,0
1472092268877013,-5,-3,-2,-4,-1,-13,-1,-2
1472092268877013,2,-3,-3,3,4,9,0,1
1472092268898125,5,4,3,-1,-3,1,11,1
1472092268898125,-5,1,1,2,-3,10,-23,-4
1472092268899610,-3,-1,-3,-9,-6,-9,3,0
1472092268899610,8,0,-4,2,4,-4,2,4
1472092268912705,-4,-2,2,2,-1,-9,3,-3
1472092268912705,-2,-2,-1,-3,1,2,1,0
1472092268919229,2,1,1,10,6,21,2,0
1472092268919229,-4,-1,-4,-5,-6,3,-18,-2
1472092268935668,-8,-3,0,-6,-2,-24,-9,-5
1472092268935668,5,-2,-4,-5,-1,5,8,1
1472092268937171,4,-2,-5,-10,-10,-1,-5,-1
1472092268937171,0,0,7,0,0,-1,1,0
1472092268958243,2,3,4,6,9,-4,2,2
1472092268958243,-2,0,-2,11,8,17,-11,-5
1472092268959725,0,-2,-4,-5,-2,-6,-8,0
1472092268959725,-3,-1,-2,-5,-7,-3,-4,-5
1472092268972331,-7,-4,-4,-3,-5,2,2,-2
1472092268972331,-1,-4,0,-1,-2,-18,4,0
1472092268979261,-3,2,3,4,3,21,-11,-1
1472092268979261,-3,-4,-2,-2,-2,-1,7,-2
1472092268995563,4,1,-2,-2,2,0,-4,1
1472092268995563,-3,5,4,0,-2,0,-4,-1
1472092268997592,-16,-12,-6,-8,-9,11,10,0
1472092268997592,2,2,-3,-7,-3,-2,-9,-3
1472092269018157,2,-1,2,7,8,20,3,1
1472092269018157,5,-3,-4,3,2,-13,-5,-1
1472092269019692,1,2,4,4,3,-13,0,-2
1472092269019692,0,2,0,-7,-7,10,-2,-3
1472092269033733,1,-2,-1,-2,-4,-5,0,-1
1472092269033733,-2,1,-1,2,4,-6,0,1
1472092269039237,-3,-3,-3,-5,-1,10,10,-1
1472092269039237,5,4,2,13,11,0,7,3
1472092269055752,-6,-5,-4,-5,-7,2,-8,-2
1472092269055752,-5,-4,-6,-12,-6,-5,-3,-3
1472092269057256,-7,2,3,7,-1,3,3,0
1472092269057256,2,-2,-3,3,1,-17,-3,-1
1472092269078030,-4,-2,4,1,3,9,10,-3
1472092269078030,0,-3,-5,-2,-4,-5,-1,1
1472092269079490,14,3,-1,-5,-7,-11,-7,-2
1472092269079490,-18,-6,-5,-7,-8,-15,-5,-1
1472092269092135,-8,-1,-2,-3,1,8,-12,-4
1472092269092135,0,0,0,1,1,8,17,2
1472092269099004,9,1,4,-1,0,-28,-6,-3
1472092269099004,3,-1,0,7,4,2,-9,-1
1472092269115590,-7,-3,2,1,-2,0,-6,-1
1472092269115590,0,-5,-13,-15,-12,-8,-3,-1
1472092269117093,-6,0,1,5,7,1,-1,-3
1472092269117093,7,2,-3,-4,-3,-1,2,0
1472092269137825,1,2,1,2,1,-4,0,0
1472092269137825,-7,-1,2,5,5,20,3,-1
1472092269139907,-4,-4,-3,-2,-1,-12,-14,-2
1472092269139907,6,-2,-3,-3,-4,3,5,0
1472092269152420,-8,-2,-2,-1,-3,-13,-7,0
1472092269152420,-7,1,4,-3,-5,1,-6,-1
1472092269159410,11,1,-3,-4,-7,-2,9,1
1472092269159410,-4,0,5,0,2,-3,2,-1
1472092269175632,-4,0,-2,3,-1,-11,4,-1
1472092269175632,2,-2,-2,-1,3,13,-10,2
1472092269177182,-7,-2,-2,-2,-3,-2,10,1
1472092269177182,-2,-3,3,3,1,3,-17,-3
1472092269198244,7,1,-5,-6,-3,-2,3,3
1472092269198244,4,0,2,5,0,-7,-2,-4
1472092269199746,-7,-1,1,3,6,2,-7,-1
1472092269199746,2,-2,-12,-9,-7,-4,11,0
1472092269211587,-4,-2,3,-2,-2,4,-2,-5
1472092269211587,0,1,3,2,5,-3,0,3
1472092269220612,5,0,-3,1,-5,-1,-4,1
1472092269220612,-1,-4,-1,7,5,-3,2,-2
1472092269243050,-12,1,-4,-2,-1,14,-6,-5
1472092269243050,5,-1,1,-4,-3,-8,5,1
1472092269244534,1,-5,-6,-6,-4,-2,-5,-2
1472092269244534,-7,0,1,-8,0,-5,-4,0
1472092269257888,-2,-1,1,-3,-3,-5,2,-1
1472092269257888,-1,-3,2,0,-7,-1,-7,-2
1472092269259338,6,2,0,4,4,1,-2,-2
1472092269259338,-7,0,0,1,1,6,2,-1
1472092269271951,3,-1,-2,2,4,-7,-3,2
1472092269271951,-7,-4,-6,-5,-7,-9,0,-4
1472092269280525,-4,0,0,-5,-10,-1,4,-4
1472092269280525,-1,-1,-1,0,7,10,3,1
1472092269295608,5,1,5,9,9,11,15,2
1472092269295608,6,0,1,4,1,-19,-10,0
1472092269297074,-15,-9,-7,-9,-4,4,-1,-3
1472092269297074,0,-1,-1,-5,-5,-7,1,-2
1472092269318209,7,3,0,-7,-2,-2,-8,-1
1472092269318209,1,0,-1,-2,-6,2,5,-1
1472092269319712,-5,1,3,3,2,-7,-4,-1
1472092269319712,-2,1,1,9,6,2,1,1
1472092269331989,6,-7,-6,-3,-4,-1,-3,-2
1472092269331989,-11,-4,-1,2,4,4,3,-2
1472092269340439,1,2,3,-4,-2,-7,-1,0
1472092269340439,4,-3,-4,-5,-2,10,9,0
1472092269355535,-2,-4,1,2,-5,-10,-10,0
1472092269355535,1,-2,-1,1,-2,0,9,-1
1472092269356994,-3,-1,-2,0,0,-4,-9,-3
1472092269356994,-6,-8,-5,-5,-6,7,-1,-6
1472092269378350,9,1,2,3,3,-5,11,2
1472092269378350,-5,2,2,-2,-2,-14,0,-1
1472092269379345,-1,0,-3,2,0,12,0,1
1472092269379345,-4,-2,0,-3,-7,-17,-9,-4
1472092269391561,-4,0,-2,-1,-3,-7,-7,-3
1472092269391561,-2,-1,-1,-3,-4,22,-10,-9
1472092269400542,4,-2,0,4,6,-8,4,5
1472092269400542,4,3,-2,-3,-5,-8,-2,3
1472092269415638,-6,-3,-5,-2,1,29,11,1
1472092269415638,3,-1,0,-1,2,-29,-14,-3
1472092269417051,-7,-5,-4,-2,-2,-3,-5,-3
1472092269417051,4,0,6,1,0,13,2,2
1472092269437993,-8,2,-6,-2,-4,-9,-6,-1
1472092269437993,-3,-5,-5,-6,-5,-7,3,0
1472092269439496,0,2,0,2,5,4,-7,-1
1472092269439496,3,0,1,1,2,5,-1,3
1472092269451522,-3,-2,-3,0,-5,-14,-5,-3
1472092269451522,0,-3,-1,2,10,6,4,1
1472092269460532,7,1,1,-5,-9,-13,9,-1
1472092269460532,-7,3,2,-3,-5,0,-1,-4
1472092269475629,-3,-5,-6,-5,2,9,8,2
1472092269475629,-2,1,2,6,2,-13,0,1
1472092269477129,-3,1,1,2,0,20,-4,0
1472092269477129,5,0,-6,-3,1,20,15,2
1472092269497845,6,0,-2,-4,-7,13,-6,-2
1472092269497845,9,1,-3,-4,-7,-3,11,-1
1472092269499671,-16,-6,0,-4,0,-22,-2,-2
1472092269499671,-1,-3,-2,-1,-8,-32,-3,0
1472092269511739,1,2,0,-2,1,9,-9,-1
1472092269511739,-1,1,1,1,7,13,-7,3
1472092269520442,9,0,-1,1,-6,-4,3,-1
1472092269520442,-9,-3,-3,-1,-3,6,-3,-4
1472092269535471,3,1,0,-1,0,-15,-4,0
1472092269535471,6,-3,-3,-3,-2,11,6,-1
1472092269536957,-7,-3,0,2,0,-6,-14,-5
1472092269536957,1,-5,-1,-6,-3,9,2,0
1472092269558034,0,-4,0,-3,0,-7,1,0
1472092269558034,-16,0,0,3,3,6,-16,0
1472092269559505,3,1,-2,0,-2,2,20,2
1472092269559505,1,0,-1,2,5,7,-16,0
1472092269571869,3,0,-2,-1,0,2,-5,-3
1472092269571869,-2,6,6,5,8,-47,14,5
1472092269579877,13,4,1,1,-3,35,-2,5
1472092269579877,-15,0,1,-3,-2,13,8,-3
1472092269595453,-3,-2,-4,-4,-4,-24,-11,0
1472092269595453,0,0,-1,-1,-6,25,-5,-3
1472092269596934,0,-3,-3,-4,-2,-6,-2,-3
1472092269596934,5,3,2,3,1,-25,-4,0
1472092269618128,-13,-4,-2,-1,-4,-9,-1,-2
1472092269618128,1,-2,-3,-4,-3,-2,-5,-5
1472092269619643,-10,1,-2,-1,-3,6,-2,-3
1472092269619643,2,-2,-4,-5,-4,-8,-14,-5
1472092269640762,-5,-5,-4,-8,-6,-12,2,-2
1472092269640762,5,6,8,10,4,-5,7,3
1472092269642263,0,-3,0,4,11,6,5,2
1472092269642263,-1,0,6,1,0,2,5,2
1472092269655275,8,-1,0,2,6,-2,2,1
1472092269655275,6,1,0,-4,-7,13,3,-1
1472092269657277,-15,-5,-3,2,-4,14,-9,-6
1472092269657277,5,-1,-4,0,3,-6,-7,-1
1472092269678254,7,0,4,0,1,11,1,1
1472092269678254,-9,-12,-15,-12,-14,-2,-10,-2
1472092269679755,7,4,-1,0,6,-14,4,4
1472092269679755,-21,-4,-1,-3,-6,2,16,-1
1472092269700771,4,4,-1,-1,0,28,-2,-2
1472092269700771,1,1,2,1,-1,-11,-8,-3
1472092269701715,4,0,-5,-2,-4,-2,-13,0
1472092269701715,2,-3,-1,-4,-4,-14,-5,-2
1472092269715408,4,-3,-5,-2,-2,-12,12,2
1472092269715408,-9,-5,-5,-4,-2,10,-24,-6
1472092269717399,-2,-2,2,-1,-2,-13,11,0
1472092269717399,-5,-2,7,5,4,18,4,0
1472092269745797,-5,1,1,4,1,-12,1,0
1472092269745797,7,-3,2,-7,-2,-8,4,-2
1472092269747316,-2,2,-2,-2,-3,2,-6,-3
1472092269747316,7,4,-2,2,3,-2,3,3
1472092269760854,-10,-3,1,-5,-9,2,-5,-4
1472092269760854,-8,-3,-3,-6,-5,14,12,-2
1472092269762403,-1,-6,-5,1,0,-4,-16,-2
1472092269762403,5,1,-1,1,3,-14,0,0
1472092269775423,3,-3,1,-4,-5,16,-10,-2
1472092269775423,-8,-2,-3,-1,4,-20,4,-1
1472092269777463,0,2,3,2,-3,-5,-2,-1
1472092269777463,2,-1,-2,0,-1,7,15,0
1472092269798067,-4,-8,-6,-5,-5,11,3,-4
1472092269798067,4,1,-2,1,2,-2,-4,0
1472092269799561,4,4,4,1,2,-6,12,1
1472092269799561,-14,-3,-4,-3,-3,24,-14,-4
1472092269820472,6,2,0,1,0,-23,-1,0
1472092269820472,-7,1,-2,-2,-3,6,1,-2
1472092269821976,-4,-3,1,-2,-1,-5,-7,-1
1472092269821976,4,1,0,7,4,-17,-10,0
1472092269835105,-2,-2,2,1,0,9,12,-2
1472092269835105,5,3,3,3,-1,0,-1,2
1472092269849146,1,-5,-5,-7,-3,6,-4,-3
1472092269849146,1,-1,1,-3,-2,-26,-9,-2
1472092269858154,-2,2,0,4,3,17,4,3
1472092269858154,3,-1,-6,0,-3,-14,-17,-5
1472092269859658,-2,1,6,-1,5,-2,10,2
1472092269859658,5,-4,-8,-6,-7,-13,-3,-2
1472092269880761,-8,4,6,0,2,-1,-3,-2
1472092269880761,3,-1,-2,1,-3,-22,-9,-1
1472092269882309,-4,3,-4,0,6,37,5,1
1472092269882309,9,1,-1,-3,-5,-6,8,2
1472092269894896,-22,-6,-5,-6,-5,-15,-7,-2
1472092269894896,-7,1,5,0,5,8,1,1
1472092269901915,5,-5,-14,3,-3,-26,-14,0
1472092269901915,4,4,0,-1,-1,21,5,-2
1472092269918093,9,6,8,5,3,-26,-2,2
1472092269918093,-2,-5,1,-8,-5,34,13,-1
1472092269919610,-3,-2,-2,-6,-7,-19,-2,-1
1472092269919610,3,3,6,4,-2,-38,-13,-1
1472092269940745,-5,-6,-20,-7,-6,52,-5,-9
1472092269940745,3,-3,8,1,5,-14,6,2
1472092269942245,-2,0,0,-2,-6,3,0,-3
1472092269942245,-5,-3,-10,-4,-3,-30,-11,1
1472092269954804,19,4,5,1,3,20,20,5
1472092269954804,-19,-2,-1,5,0,-7,-6,-1
1472092269961896,-2,1,0,-2,-5,13,6,-2
1472092269961896,-1,-10,-8,-8,-6,-37,-6,-3
1472092269978230,-2,6,4,10,8,37,2,1
1472092269978230,11,4,-3,1,3,20,-1,-1
1472092269979730,-1,-1,3,1,-1,-15,3,1
1472092269979730,-4,-6,4,0,-1,13,3,-1
1472092270000850,-5,2,5,-3,-6,-28,-4,-3
1472092270000850,0,-2,-8,-3,-3,-6,-3,0
1472092270001879,-5,1,6,-2,-1,4,1,-3
1472092270001879,3,1,2,-2,2,20,-6,-2
1472092270015029,-1,-5,-1,-2,0,-15,-1,1
1472092270015029,0,-1,-2,5,1,-21,-11,-1
1472092270021467,0,-2,-1,0,-2,14,2,-5
1472092270021467,2,3,1,-2,0,-12,-1,-1
1472092270038018,-3,-1,-5,-3,-2,15,-5,0
1472092270038018,2,1,-1,-2,5,12,13,0
1472092270039525,0,-5,-6,-1,-8,-25,-1,-1
1472092270039525,-2,4,-2,-1,2,24,-2,2
1472092270060603,5,-1,1,-2,-4,-24,1,0
1472092270060603,-9,-2,2,5,0,3,1,-3
1472092270062106,3,3,-1,-3,-5,-21,-2,-3
1472092270062106,2,2,8,4,13,23,-4,5
1472092270074996,-2,-4,-10,3,-2,-26,4,-3
1472092270074996,0,-2,-5,-2,-1,6,6,1
1472092270081503,-1,-1,1,0,4,-10,3,1
1472092270081503,4,0,-1,-4,-7,36,1,-3
1472092270098064,0,1,5,1,7,-15,-13,-1
1472092270098064,-4,-2,-2,1,0,-15,-8,0
1472092270099645,1,3,4,2,0,5,-4,1
1472092270099645,-6,-3,-5,-2,-3,11,5,-3
1472092270120719,-6,-7,-12,-6,-4,-15,4,-2
1472092270120719,5,2,-1,-6,2,24,9,1
1472092270122257,3,1,4,0,2,29,2,-1
1472092270122257,-8,0,0,6,-1,6,0,0
1472092270134251,0,-5,-5,-7,-8,-30,-13,-1
1472092270134251,9,3,3,3,3,18,-6,4
1472092270143313,3,-6,-3,-2,-4,5,5,-4
1472092270143313,-12,-1,-8,-1,3,2,3,-1
1472092270157870,1,1,2,5,-4,4,-1,-1
1472092270157870,6,3,-4,-6,-6,-9,5,-2
1472092270159853,-3,0,3,-1,0,-22,-5,-2
1472092270159853,3,-3,-5,-6,-9,14,2,-5
1472092270180550,-11,-5,3,-2,0,-26,-7,1
1472092270180550,7,-1,-4,-4,-6,-33,-8,-1
1472092270182009,-8,-2,0,-4,1,39,-10,-1
1472092270182009,-4,-5,-7,-3,-4,-13,-7,-2
1472092270194160,1,3,4,-3,-6,-13,-6,-1
1472092270194160,4,3,4,2,0,31,14,1
1472092270203309,1,3,-1,9,8,-4,-1,4
1472092270203309,-6,-6,0,-1,-1,-47,1,-1
1472092270217973,3,4,3,-2,-3,34,6,0
1472092270217973,-6,-8,-13,-10,-14,-50,-30,-4
1472092270219418,-5,0,-3,-11,-2,36,14,-2
1472092270219418,12,-1,6,6,3,5,8,1
1472092270240012,-9,1,2,2,2,-1,6,-4
1472092270240012,-6,-1,3,0,6,-9,-4,-1
1472092270242249,2,-5,-7,-5,-6,-13,2,-1
1472092270242249,-3,-4,-4,-4,0,-13,-13,0
1472092270254244,8,4,3,2,3,15,-2,-1
1472092270254244,-6,-5,-6,-6,-7,8,-4,-3
1472092270263253,2,2,1,0,5,20,-8,1
1472092270263253,1,-4,4,-3,-2,-7,10,-1
1472092270278276,-1,0,-11,0,0,1,-9,-1
1472092270278276,-1,-1,-2,4,5,47,6,-1
1472092270279778,-4,-8,-3,-2,-5,-46,4,-2
1472092270279778,0,-1,-10,-5,-4,14,1,0
1472092270300478,0,-2,0,0,2,-4,4,1
1472092270300478,-2,-2,2,-2,-8,-22,1,0
1472092270302270,5,3,3,8,5,8,4,-1
1472092270302270,-15,-9,-7,-3,-3,-13,-9,-6
1472092270314308,-9,-4,1,2,5,5,-2,-1
1472092270314308,-3,-7,-12,-5,-7,-1,-9,-5
1472092270323335,9,4,2,-3,-7,-14,-8,2
1472092270323335,8,5,4,5,5,14,19,3
1472092270338141,-7,-5,-6,-5,-7,-10,-18,-3
1472092270338141,2,-3,5,-1,2,-14,-8,-1
1472092270339686,-5,-2,-13,-3,-4,-6,-6,-1
1472092270339686,5,5,4,2,-1,11,-1,1
1472092270360717,1,-3,0,-3,-6,-24,-7,-1
1472092270360717,2,3,5,6,1,31,22,3
1472092270362235,-6,-2,4,2,6,-18,-9,-3
1472092270362235,-6,-6,-4,-1,0,1,-16,-7
1472092270374349,4,3,1,0,0,7,8,-2
1472092270374349,0,1,3,-2,-3,4,13,2
1472092270382334,-1,0,2,0,-3,15,-3,-1
1472092270382334,-7,1,-3,-3,-5,-28,-1,-2
1472092270398358,0,0,-1,-3,0,9,-2,-2
1472092270398358,5,-10,-11,-3,0,-21,-4,-3
1472092270399797,-7,-4,10,0,1,-3,-6,-1
1472092270399797,-5,2,-10,-4,-1,16,-9,-3
1472092270420479,1,-1,4,-1,-5,11,1,-1
1472092270420479,1,6,4,2,7,-6,4,4
1472092270422592,7,0,-4,-2,-3,-7,-8,0
1472092270422592,-1,3,-1,-7,-5,-8,1,-2
1472092270433558,-3,0,1,1,2,10,9,1
1472092270433558,-3,-2,-4,-3,-5,1,-10,-5
1472092270443096,-2,-2,-2,-1,2,-12,3,1
1472092270443096,1,-5,-5,-4,-5,3,-9,-4
1472092270458135,5,-1,-5,3,-1,-8,-9,-1
1472092270458135,2,7,10,8,7,-20,4,2
1472092270459619,-8,-3,-4,0,-3,17,9,2
1472092270459619,2,2,6,5,6,4,6,3
1472092270480283,-2,-7,-7,-6,-1,1,-20,-4
1472092270480283,0,1,2,-4,-5,-22,-3,-1
1472092270481784,1,-4,-4,-2,3,13,18,1
1472092270481784,3,0,1,-1,1,-4,-16,0
1472092270494304,6,0,3,-6,-4,-19,2,0
1472092270494304,-13,-8,-6,7,0,-2,0,-6
1472092270503323,-4,0,-2,-3,-4,4,-1,-5
1472092270503323,-4,0,0,1,0,1,9,2
1472092270517998,4,-1,3,0,0,1,5,1
1472092270517998,3,0,-10,-9,-7,23,-2,-1
1472092270519503,4,0,1,-6,1,-34,0,0
1472092270519503,2,3,2,5,5,20,18,-1
1472092270540747,0,-1,2,7,5,6,1,1
1472092270540747,-8,-4,-5,-7,-6,-12,1,-1
1472092270542247,-8,2,-2,-3,-3,10,-4,-4
1472092270542247,-8,-3,0,0,-1,-7,-2,3
1472092270554358,6,3,0,-2,-2,-20,15,1
1472092270554358,-4,2,5,7,5,17,0,1
1472092270563337,2,0,6,0,-1,6,-10,0
1472092270563337,1,0,0,0,-5,-29,-11,-2
1472092270578033,1,2,-9,-6,-5,-5,-4,0
1472092270578033,-1,2,2,-3,0,5,0,1
1472092270579520,-3,-5,-3,-2,2,-11,-12,0
1472092270579520,-1,0,-5,-7,-3,20,12,1
1472092270600635,4,1,6,3,0,2,0,4
1472092270600635,0,-1,-10,-2,9,17,4,0
1472092270602172,-3,-1,2,12,5,-19,12,0
1472092270602172,6,2,3,-1,-5,12,16,1
1472092270622970,-11,-8,-12,-9,-10,-31,-24,-9
1472092270622970,3,2,9,-1,2,45,6,4
1472092270624416,4,-2,-2,1,-4,-22,-10,-1
1472092270624416,-8,-2,3,8,6,0,1,-2
1472092270638370,-1,1,-3,-5,-6,26,-8,-4
1472092270638370,-1,0,4,-2,-9,-13,-6,1
1472092270639876,3,2,-3,-5,5,31,9,2
1472092270639876,5,-2,0,-7,-7,-28,-10,1
1472092270660415,-2,0,0,8,5,3,19,0
1472092270660415,-4,-9,-2,-2,3,-33,-14,-7
1472092270661927,-1,-1,-16,-3,-6,60,6,-4
1472092270661927,-12,0,1,-3,-3,-37,-9,-3
1472092270683118,0,-3,-6,-5,-4,10,6,-1
1472092270683118,6,6,6,6,5,-31,-4,1
1472092270684617,-5,-14,3,-9,-11,-12,-5,-6
1472092270684617,-8,-4,-4,-1,3,5,-9,-4
1472092270697160,2,1,-4,0,0,8,-12,2
1472092270697160,2,2,-2,-6,-7,36,14,0
1472092270699483,7,-4,-2,6,0,-36,4,-3
1472092270699483,-12,1,0,0,3,7,-7,-4
1472092270720564,-3,-2,10,4,1,-1,16,0
1472092270720564,-6,-10,-16,-4,-2,24,-23,-3
1472092270722066,1,0,2,-7,-6,-69,-13,0
1472092270722066,6,3,-1,-4,-11,39,7,-1
1472092270742951,-2,-1,-1,2,8,25,-1,2
1472092270742951,2,0,1,-3,-5,-19,6,-3
1472092270744933,-1,4,7,0,-4,-10,-5,1
1472092270744933,3,-2,-1,4,7,13,1,1
1472092270757524,-12,1,-4,-1,-5,-36,-17,-4
1472092270757524,4,4,6,5,3,17,30,1
1472092270764551,-12,-6,-9,-1,1,13,-7,-2
1472092270764551,8,-3,0,-4,-8,-22,4,1
1472092270781242,5,-1,-3,-6,-1,3,5,-1
1472092270781242,-3,-2,-1,-4,-8,-31,-11,-5
1472092270782743,4,4,11,4,-2,-14,-2,-1
1472092270782743,-13,-2,-1,1,4,38,10,-3
1472092270802893,3,1,-3,1,3,-9,-5,2
1472092270802893,-2,-3,-7,-6,-4,9,-11,-1
1472092270804341,0,1,-6,-9,-5,-9,6,1
1472092270804341,-1,-1,1,0,-3,-17,-9,1
1472092270817422,6,6,0,0,-3,36,19,1
1472092270817422,-11,-2,0,0,0,-16,2,-4
1472092270824544,1,-1,-6,-4,-3,-19,17,-2
1472092270824544,10,5,1,2,6,24,-7,2
1472092270840661,-10,-15,-13,-5,0,-31,-6,-3
1472092270840661,2,1,1,1,-1,-3,-5,-1
1472092270842248,0,1,-3,1,0,23,-1,0
1472092270842248,1,4,6,1,-5,-40,-19,-2
1472092270862913,-3,0,5,-2,4,43,19,2
1472092270862913,-1,-3,-3,-1,-2,-31,-5,-3
1472092270864889,-3,3,3,0,2,31,-4,0
1472092270864889,2,-8,-9,-5,-6,-29,0,0
1472092270877411,2,0,0,-7,-2,31,-2,-4
1472092270877411,-2,-1,0,2,1,-19,-5,0
1472092270891924,3,-2,3,8,3,-1,3,0
1472092270891924,-4,1,-1,1,-2,-2,-9,-1
1472092270900442,1,-2,-10,-8,-10,-14,-2,-1
1472092270900442,2,0,-1,-4,0,-6,-8,-1
1472092270901960,2,-1,4,3,-1,-4,2,0
1472092270901960,-7,-3,-4,-2,-6,7,-3,-6
1472092270923003,2,-2,2,5,9,-10,4,2
1472092270923003,-4,3,4,0,-1,7,-5,0
1472092270924502,-5,-6,-10,-6,-5,3,-15,-3
1472092270924502,3,-1,-1,-4,-7,1,6,-2
1472092270937509,-2,1,3,0,1,-5,-2,0
1472092270937509,3,-3,-4,-2,-3,23,9,1
1472092270944061,-11,1,-4,-5,-3,-22,-4,-1
1472092270944061,1,-3,-2,-4,0,-7,0,-3
1472092270960573,4,9,16,7,7,-8,0,5
1472092270960573,-3,-2,-9,1,0,20,-1,0
1472092270962094,1,1,3,-2,0,-11,1,-2
1472092270962094,8,-1,-7,5,4,14,2,4
1472092270983371,-4,-2,6,-2,-8,12,13,-3
1472092270983371,-10,-6,1,-3,6,-38,-8,-3
1472092270984875,-1,-1,7,2,6,24,-4,2
1472092270984875,-3,-2,-12,-1,-3,-2,-11,-7
1472092270997448,3,5,1,4,6,25,8,4
1472092270997448,3,-2,5,0,-5,-12,0,-1
1472092271004306,4,-5,-13,-8,-6,-5,-4,-3
1472092271004306,2,2,7,2,0,21,1,0
1472092271020424,-20,-7,-11,-9,-14,-67,-27,-7
1472092271020424,6,2,0,0,1,66,33,0
1472092271022346,-1,5,5,7,13,-14,-10,2
1472092271022346,0,2,7,6,6,6,3,1
1472092271042981,4,-2,-5,2,2,-2,2,0
1472092271042981,-1,1,-3,-4,-5,-13,4,-2
1472092271045034,0,-1,3,-4,-9,0,-1,-5
1472092271045034,-2,-2,1,-7,-3,-21,-3,0
1472092271057505,0,-2,-16,-5,-3,27,-5,-4
1472092271057505,-1,3,3,5,-1,-13,2,2
1472092271064048,-1,-2,-11,2,2,34,10,-1
1472092271064048,-9,-6,-4,-8,-8,-48,-11,-1
1472092271080580,-2,1,5,-2,0,3,2,-3
1472092271080580,9,4,2,3,3,30,7,3
1472092271082590,0,-6,0,-2,-4,-15,-22,-4
1472092271082590,0,3,3,1,-1,-18,-2,1
1472092271103305,4,-2,-6,-4,-9,0,0,-2
1472092271103305,-8,-6,-5,-2,-1,-8,-3,-4
1472092271104813,2,6,7,2,3,34,3,3
1472092271104813,5,2,-1,-2,3,2,12,0
1472092271116917,-13,-6,9,8,-4,-23,-8,-3
1472092271116917,-1,-1,-12,-7,-7,-21,-8,-3
1472092271125411,-4,-2,-4,-3,-3,24,9,-2
1472092271125411,0,0,2,-1,3,13,3,1
1472092271140438,5,-2,-5,-5,-2,-24,2,1
1472092271140438,-10,1,14,3,4,23,-2,-1
1472092271142426,-6,-2,-6,-3,-9,-8,6,-1
1472092271142426,-1,-5,-1,-4,-2,-7,-1,-1
1472092271170497,4,4,-1,3,7,-13,-13,-1
1472092271170497,2,-2,0,-2,-3,2,-11,1
1472092271172627,2,1,-2,-4,-3,3,10,0
1472092271172627,-1,0,6,5,7,6,1,0
1472092271176776,-8,3,3,4,8,37,-4,0
1472092271176776,7,-1,-3,10,-1,-74,-22,2
1472092271184782,-9,-4,-5,-7,-11,64,-3,-6
1472092271184782,5,-4,-9,-4,-8,-15,-1,-1
1472092271200577,-2,-1,3,-11,-15,-44,-14,-3
1472092271200577,-1,-1,4,3,18,37,12,5
1472092271202064,2,2,3,1,0,-19,-6,1
1472092271202064,3,0,-7,5,1,17,3,-2
1472092271223181,1,-4,-7,0,2,-12,5,0
1472092271223181,-2,-4,-2,-12,-16,11,-4,-6
1472092271224654,0,-3,-3,-5,-1,-36,11,1
1472092271224654,1,2,2,0,8,38,-1,-1
1472092271236844,-7,-3,3,8,10,-5,-13,-3
1472092271236844,-6,-1,3,0,-3,-2,4,-6
1472092271245868,3,-2,-4,0,3,2,-5,1
1472092271245868,-4,-1,-5,-10,-5,-16,-3,-1
1472092271260413,4,3,1,1,-2,23,21,3
1472092271260413,5,3,0,-3,-4,-32,-11,-2
1472092271262383,-5,-5,0,-4,-7,-9,-20,-4
1472092271262383,-5,-6,-2,-2,0,1,-10,-7
1472092271282936,7,2,-4,-3,-3,-48,-7,0
1472092271282936,-9,-2,6,-3,-4,67,16,-4
1472092271284437,-3,-4,-12,-1,2,23,8,0
1472092271284437,1,1,0,2,-2,10,-1,0
1472092271296562,1,-1,-3,3,5,1,14,2
1472092271296562,3,0,0,-2,0,-26,-5,2
1472092271305870,-1,1,3,-2,-1,-10,1,-4
1472092271305870,-2,-1,-1,-1,-4,3,11,1
1472092271320542,-1,-1,-1,-4,-6,-19,-12,-6
1472092271320542,7,1,-6,-4,0,1,2,1
1472092271322496,-6,4,6,9,8,-4,6,3
1472092271322496,-6,-2,1,-3,0,-31,-8,0
1472092271343122,2,-3,-8,2,5,76,18,2
1472092271343122,-2,-1,1,-2,-3,-40,-10,-2
1472092271344633,2,2,0,-2,1,-6,3,0
1472092271344633,2,5,9,8,3,-31,7,3
1472092271356639,-6,1,-4,-3,-1,22,-32,-7
1472092271356639,3,-4,-1,-3,-5,9,4,0
1472092271365648,-8,-2,-1,0,-2,-22,-11,-3
1472092271365648,-5,-2,0,-5,-6,-3,12,-5
1472092271380771,0,-2,3,-3,-2,17,3,3
1472092271380771,3,-2,-6,0,1,-7,-3,-1
1472092271382303,2,-2,4,-3,-3,-18,-15,-2
1472092271382303,-4,0,-4,2,0,24,-10,1
1472092271403297,3,4,3,1,-4,-1,8,0
1472092271403297,-2,-2,-8,-4,-2,17,-3,-3
1472092271404765,1,-4,-4,-4,0,-17,4,1
1472092271404765,-7,1,10,2,1,2,0,-2
1472092271416891,0,-4,-7,-7,-2,-3,-3,-1
1472092271416891,-3,-2,-5,2,-2,4,1,0
1472092271425401,2,-2,-2,1,0,-9,-8,-2
1472092271425401,-5,-2,-1,-5,-7,-33,-13,-2
1472092271440708,0,-1,-2,-3,1,24,16,3
1472092271440708,0,-1,-1,-1,1,-13,-3,-2
1472092271442229,-1,1,1,1,0,7,7,1
1472092271442229,3,-7,-9,-1,-1,-1,-6,-2
1472092271463205,-1,-4,1,-1,-4,-17,-12,-2
1472092271463205,-3,1,-5,-2,3,4,9,2
1472092271464764,-6,-4,-2,-4,-7,5,-1,-1
1472092271464764,7,0,-5,-4,5,19,-4,1
1472092271476823,-12,3,4,3,1,-2,8,-1
1472092271476823,-4,-4,4,2,2,6,-18,-3
1472092271485865,7,0,3,4,2,-53,-4,-1
1472092271485865,5,1,-4,-3,-6,19,-3,-1
1472092271499532,-3,0,6,1,-1,-1,-2,1
1472092271499532,-3,-7,-16,-8,-10,-27,-10,-5
1472092271502335,-3,1,4,-6,-5,30,7,-2
1472092271502335,3,1,-2,1,3,1,8,0
1472092271523440,-5,-3,-1,-4,-3,4,-9,-7
1472092271523440,-5,1,8,5,1,-15,-3,-1
1472092271524837,-1,-4,-7,8,8,17,-5,-1
1472092271524837,3,3,-1,-2,-8,-15,2,-3
1472092271545453,3,-2,0,-4,-1,-5,-5,-2
1472092271545453,-14,0,-2,-2,1,30,1,-1
1472092271546956,4,0,-5,-3,0,-13,1,0
1472092271546956,-9,-7,2,-4,0,-5,-12,-1
1472092271560719,0,-12,-17,-8,-12,-44,-2,-1
1472092271560719,5,-1,1,0,3,51,-9,-2
1472092271562237,0,-1,-2,2,1,-23,5,-1
1472092271562237,2,1,-4,0,1,2,4,1
1472092271583260,-4,-3,7,-2,0,13,-6,-3
1472092271583260,3,-2,-4,-3,0,-14,-8,1
1472092271584764,-6,2,5,-4,-8,5,11,-1
1472092271584764,-5,1,0,12,18,7,-9,1
1472092271613159,-7,-7,-1,-4,-11,-23,-15,-4
1472092271613159,4,3,7,-2,1,17,9,3
1472092271614678,6,-1,0,2,0,-1,-10,0
1472092271614678,-1,-5,-7,-5,-10,-14,13,-2
1472092271620702,-1,3,3,4,6,33,5,1
1472092271620702,5,-1,-6,2,0,-34,-7,-1
1472092271621665,-1,-1,-3,-5,-4,12,4,0
1472092271621665,-5,-2,6,-3,-8,-25,-5,-2
1472092271643284,-2,4,-7,1,7,43,8,1
1472092271643284,-1,-2,2,1,-2,-15,-5,1
1472092271644834,2,3,-2,2,0,-6,-20,-5
1472092271644834,-8,-3,0,-10,-8,-16,0,-1
1472092271665846,9,7,5,5,2,-22,-15,3
1472092271665846,-6,-2,-2,0,5,4,16,-4
1472092271667348,1,-5,-4,-8,-8,8,1,-1
1472092271667348,-3,-3,-1,7,5,48,9,-2
1472092271680885,2,-1,-5,-3,-2,-24,1,0
1472092271680885,-1,2,-2,-1,-8,-10,0,-2
1472092271682387,-7,-6,-2,-5,-3,-9,-4,0
1472092271682387,10,0,-2,-1,-2,6,-5,-4
1472092271702966,-9,2,-5,4,4,25,6,-1
1472092271702966,-4,-7,0,-3,1,-21,-10,-1
1472092271704655,-1,-3,-5,-5,-6,-29,-2,-1
1472092271704655,0,2,5,4,12,64,12,2
1472092271725968,2,-4,2,4,2,-9,5,0
1472092271725968,0,-1,-2,1,1,-8,1,0
1472092271727454,-18,-4,1,1,-2,10,2,-2
1472092271727454,2,1,-2,-8,-5,-13,-5,0
1472092271739724,6,-1,-8,-7,-2,-14,5,0
1472092271739724,-3,2,7,6,6,12,10,2
1472092271746856,5,0,-5,2,-1,14,-5,-2
1472092271746856,-2,0,-10,-2,-11,-29,-3,-2
1472092271763375,-1,-2,17,2,9,2,-5,0
1472092271763375,-1,-3,-5,-4,-6,-5,0,-4
1472092271764858,2,-1,-6,-3,2,4,-2,-1
1472092271764858,1,-2,0,1,5,22,-2,2
1472092271785385,1,-2,-9,-10,-13,-13,-1,-7
1472092271785385,1,-1,9,2,7,20,8,5
1472092271786942,-2,2,4,3,1,15,2,-1
1472092271786942,-12,-5,-5,-4,-3,-36,4,1
1472092271799966,1,5,-1,2,-1,42,12,-1
1472092271799966,1,1,2,-1,4,-3,2,2
1472092271806719,3,2,0,-6,-2,20,8,-1
1472092271806719,11,0,5,9,9,-22,5,4
1472092271823256,-11,-3,-1,-4,-9,12,-9,-5
1472092271823256,0,2,-3,-4,-12,-53,-6,-3
1472092271824814,2,1,1,6,7,60,2,0
1472092271824814,2,-1,-3,-1,7,-5,-3,-2
1472092271845274,-1,-7,1,-3,-12,-32,-7,-2
1472092271845274,-5,2,4,-4,2,9,3,-1
1472092271847287,-5,-5,-16,-7,-7,-30,0,-4
1472092271847287,7,-1,-1,-4,-9,-29,7,-2
1472092271859797,-9,0,-3,4,17,30,-1,-3
1472092271859797,2,1,4,4,-2,2,-2,-2
1472092271866897,4,-1,7,-2,-1,-16,-5,-1
1472092271866897,-16,-5,-8,-7,-5,-7,2,-1
1472092271882971,10,3,-4,2,1,-20,8,5
1472092271882971,-8,-5,-8,-3,-7,-1,-13,-1
1472092271884462,-2,-3,-2,-5,-2,-42,-2,1
1472092271884462,1,-3,-3,-5,-7,18,4,-11
1472092271905754,-2,2,4,2,-4,-13,-25,-2
1472092271905754,1,0,-4,1,7,12,0,1
1472092271907423,4,1,1,3,2,3,0,2
1472092271907423,-1,-1,-4,-1,-8,5,-11,-1
1472092271920073,2,-3,-7,-10,-1,-22,-6,1
1472092271920073,3,-1,-4,-1,-2,3,3,0
1472092271926614,-6,-2,0,-2,-4,0,-9,-3
1472092271926614,-5,-3,-2,-2,0,-2,-6,0
1472092271943308,-4,-1,4,4,3,3,-3,-1
1472092271943308,3,3,7,2,0,6,13,1
1472092271944879,-12,-8,-11,-3,2,-14,-15,-2
1472092271944879,3,2,2,1,0,-4,-1,1
1472092271965940,3,0,1,-1,2,-2,12,1
1472092271965940,2,2,2,-3,-5,-1,0,0
1472092271967409,6,2,10,7,0,17,10,0
1472092271967409,-11,-2,-1,2,7,12,0,0
1472092271979993,1,-6,0,-1,-1,-33,-9,-4
1472092271979993,-4,-2,4,-1,-1,13,-4,-4
1472092271993974,7,3,-5,-1,-5,2,5,2
1472092271993974,4,4,0,2,8,15,1,2
1472092272003042,-5,0,-2,-2,-2,10,-2,-1
1472092272003042,-2,-2,-2,-4,0,4,-3,-2
1472092272004510,-2,1,-1,1,3,-18,-4,0
1472092272004510,5,0,6,-4,-8,-1,8,2
1472092272025603,2,-3,-5,1,-2,4,-1,-1
1472092272025603,0,0,1,-1,-3,-20,-4,-2
1472092272027613,-8,-6,-3,-6,-5,5,-5,-5
1472092272027613,0,-1,-2,-1,0,3,-4,0
1472092272039407,1,1,1,5,1,-2,9,3
1472092272039407,-3,-2,5,-6,-4,-3,-4,-1
1472092272047924,3,1,-6,-1,0,-3,2,1
1472092272047924,-1,0,-2,-1,-1,9,-1,-1
1472092272062993,1,-2,7,-1,-5,-25,-2,2
1472092272062993,-9,-3,-6,-2,3,25,1,-4
1472092272064951,-2,-2,8,1,-2,-23,-10,-1
1472092272064951,2,-4,-4,6,1,68,-4,0
1472092272085503,6,3,-4,-1,3,-13,8,4
1472092272085503,-8,0,-5,-1,-7,10,15,-1
1472092272087537,-7,0,7,-3,2,0,-5,-3
1472092272087537,-3,0,-8,-5,-7,-27,-13,-2
1472092272099108,7,-3,-1,-5,-4,6,4,-1
1472092272099108,-1,-6,3,0,3,6,-4,-3
1472092272108323,-4,2,-9,4,-1,-6,3,1
1472092272108323,2,0,4,-1,-1,-12,-1,0
1472092272123171,-7,-2,-2,-3,-2,14,-3,-1
1472092272123171,4,-2,-10,-5,-7,-19,2,-2
1472092272124648,3,2,8,-1,-2,-16,-1,1
1472092272124648,-6,-2,1,0,0,0,0,-5
1472092272145747,-6,-5,-4,-5,-2,2,-1,-4
1472092272145747,1,-2,-6,-6,-8,-9,-6,2
1472092272147249,7,3,6,10,7,10,7,2
1472092272147249,9,2,5,6,0,-1,5,3
1472092272159316,-23,-3,-5,-4,-4,2,-2,-8
1472092272159316,5,1,-9,-3,-3,-17,-7,1
1472092272168341,-1,-2,-4,-2,5,27,5,2
1472092272168341,0,0,4,-3,-5,-20,-6,0
1472092272182960,4,0,-2,-1,-5,5,2,-1
1472092272182960,-2,-1,-4,-1,-1,-3,-4,-1
1472092272185044,-1,0,2,-4,-4,-4,-7,-2
1472092272185044,-1,-1,2,-2,2,11,5,-3
1472092272205523,11,5,-4,-1,-1,-14,2,2
1472092272205523,-9,-5,-3,-2,0,-2,-11,-4
1472092272207022,1,-1,0,4,3,1,5,-1
1472092272207022,-2,-3,-3,1,-7,-29,-7,-4
1472092272219578,-1,2,4,-5,-6,20,-5,-2
1472092272219578,3,-1,-2,3,-1,0,-10,1
1472092272228004,7,1,1,2,3,1,12,3
1472092272228004,-11,1,2,1,5,-8,-3,-1
1472092272243196,-9,-4,-1,2,-2,-48,-15,-2
1472092272243196,-1,-3,-3,-2,-8,43,13,-2
1472092272244758,0,1,-2,-2,-1,9,-1,3
1472092272244758,7,0,-13,-4,0,-10,9,0
1472092272265394,-5,0,4,0,2,-20,6,2
1472092272265394,8,2,-2,1,3,15,10,2
1472092272267356,-7,-2,3,-2,-4,-11,-4,-2
1472092272267356,1,0,-3,-5,-2,9,-2,0
1472092272279401,1,0,-5,0,0,0,1,0
1472092272279401,2,2,4,0,0,-10,-4,-1
1472092272287971,-1,-2,-4,-3,0,6,1,-1
1472092272287971,-4,-4,-1,1,0,-1,-4,-2
1472092272302603,0,-3,-2,7,5,21,1,1
1472092272302603,0,0,14,1,-3,-17,-2,-1
1472092272304679,-3,-2,-10,-3,-3,-2,-3,-5
1472092272304679,-4,0,-8,-8,-7,-6,-5,-2
1472092272325909,0,-1,-4,-3,-2,4,-2,-1
1472092272325909,-1,-2,6,-1,-1,-8,-5,0
1472092272327369,0,0,5,-4,-2,-6,-4,-3
1472092272327369,-9,-4,-3,8,1,4,2,0
1472092272339372,2,-3,-3,5,5,12,4,0
1472092272339372,1,-2,-5,3,-2,-12,-5,1
1472092272347915,-2,-1,-3,-5,-11,-3,-7,-4
1472092272347915,2,0,8,-8,-3,-4,-3,-2
1472092272362990,0,-1,-1,1,5,10,5,0
1472092272362990,1,1,-4,4,5,-3,-3,0
1472092272364979,-2,-2,0,5,3,-5,1,1
1472092272364979,2,1,2,0,-4,-3,-4,0
1472092272385636,0,2,1,-6,-8,2,2,-1
1472092272385636,0,-5,-8,-8,0,-10,-4,-2
1472092272387603,0,0,-7,0,-2,8,-3,0
1472092272387603,-3,-3,8,2,-2,-4,-5,-2
1472092272399261,2,4,1,-2,0,2,-2,2
1472092272399261,-1,3,5,8,9,11,18,3
1472092272408682,0,-3,-1,0,-2,-9,-6,-3
1472092272408682,-1,-4,-6,-3,-3,-2,-2,-2
1472092272423274,1,-1,-2,-3,-2,-3,-5,-1
1472092272423274,-3,-2,-6,-4,-2,1,-3,-3
1472092272424296,-3,-1,2,0,-2,-4,1,-1
1472092272424296,1,0,11,3,4,8,2,2
1472092272445908,-2,0,0,-3,-3,0,2,-1
1472092272445908,-3,-2,-6,2,-3,-6,-6,-2
1472092272447412,1,0,-3,-12,-7,-1,-2,0
1472092272447412,6,-1,-6,3,5,-1,-1,-2
1472092272459399,-2,0,2,7,5,-1,-1,-2
1472092272459399,3,-4,-7,2,3,-1,-4,0
1472092272468386,-6,1,10,2,-3,-2,0,1
1472092272468386,9,-1,-12,-6,-8,1,1,2
1472092272483042,-7,-6,-9,-7,-6,-6,0,-4
1472092272483042,4,2,-6,-4,-4,-5,-5,0
1472092272484544,-2,0,8,2,8,3,3,1
1472092272484544,-4,-4,-7,-6,-7,-5,-6,-3
1472092272505420,6,2,-1,-6,-9,-2,-1,-1
1472092272505420,-2,-1,-2,0,-7,-9,-7,0
1472092272507193,0,-2,-7,-4,2,0,9,-3
1472092272507193,-3,0,5,4,4,1,0,-3
1472092272528332,5,-5,1,2,0,1,-1,2
1472092272528332,3,2,1,-6,-1,2,-5,-4
1472092272529894,-9,-7,-1,4,1,-9,-2,-3
1472092272529894,-11,-2,3,2,4,9,3,-2
1472092272542874,-3,-4,-8,1,-5,-9,-2,0
1472092272542874,1,2,5,-2,-1,3,-7,-3
1472092272544882,4,-1,1,7,4,3,4,2
1472092272544882,-4,-5,-6,0,-4,1,3,-1
1472092272565462,-5,-2,1,-4,-1,1,-1,-1
1472092272565462,-4,-4,1,-4,-3,-4,3,0
1472092272567440,3,-2,-5,-4,-8,-6,-5,0
1472092272567440,-4,1,1,-4,5,1,0,-2
1472092272588102,-2,1,-5,0,1,3,-2,0
1472092272588102,-6,-5,0,-4,-3,-5,0,-2
1472092272589693,3,3,-5,0,-4,4,-3,1
1472092272589693,3,2,5,-2,7,-1,2,1
1472092272602633,1,-3,1,-1,1,7,4,-1
1472092272602633,-7,-3,-5,1,0,-10,-2,1
1472092272609635,-18,-5,2,-4,-2,1,-6,-4
1472092272609635,-5,-2,0,-2,-8,-2,-2,-2
1472092272625519,3,1,-2,-3,0,-3,-1,0
1472092272625519,-1,1,-1,5,-1,4,2,-2
1472092272627063,1,1,1,0,5,3,-1,2
1472092272627063,-3,-1,-1,2,2,-5,-2,1
1472092272647671,-11,-1,0,2,-3,-2,-5,-2
1472092272647671,2,-2,-3,-8,-7,-4,-4,-3
1472092272649862,3,3,0,-3,-5,-8,3,-2
1472092272649862,3,-1,-4,-2,3,4,-9,-4
1472092272662405,3,0,4,4,-1,7,10,0
1472092272662405,2,2,-8,2,5,-9,-2,2
1472092272669379,-1,-4,-4,-1,0,18,4,-1
1472092272669379,-4,-4,-2,-11,-9,-13,2,-3
1472092272685619,-13,-4,-1,-7,-9,-14,-9,-1
1472092272685619,-1,2,9,6,10,19,2,0
1472092272687076,11,2,-1,4,-2,-19,-5,-1
1472092272687076,1,2,-3,0,-2,13,-3,-1
1472092272708252,3,-5,-3,-3,0,1,3,-3
1472092272708252,-1,3,-2,-4,-9,9,-3,0
1472092272709768,-15,-7,-3,-9,-2,-16,-7,-4
1472092272709768,3,-2,1,4,3,6,8,2
1472092272721867,2,2,2,5,3,-4,-6,-1
1472092272721867,0,0,4,0,-1,-4,-1,0
1472092272730375,9,0,-1,-5,-5,2,-2,-1
1472092272730375,2,-4,-6,-8,-9,-5,-3,-2
1472092272745442,-11,0,1,0,3,-3,-2,-5
1472092272745442,6,-4,-1,7,0,2,6,-1
1472092272747453,-10,-2,-3,-1,-4,-4,1,1
1472092272747453,6,2,0,0,5,5,4,3
1472092272768115,2,1,-3,-8,-7,-3,0,-3
1472092272768115,-9,-2,2,-1,-2,8,-9,-3
1472092272769598,0,1,3,1,1,-9,-3,-1
1472092272769598,1,-3,-7,0,-1,-8,8,0
1472092272782672,7,-2,-6,2,1,-3,-20,0
1472092272782672,-8,-1,9,-3,3,4,1,-3
1472092272789204,7,1,-6,1,-2,2,6,1
1472092272789204,-5,0,1,-2,-6,-8,-6,-3
1472092272805814,-17,-4,2,-2,-1,2,4,-1
1472092272805814,0,-4,-9,-5,-10,-16,3,-1
1472092272807398,1,0,1,-4,0,8,-17,-4
1472092272807398,7,1,0,-4,-1,-10,-4,-1
1472092272827956,-6,-4,-8,-4,-4,0,-4,0
1472092272827956,1,-1,3,-5,-2,-5,15,-3
1472092272829954,-1,0,3,8,6,8,-4,-1
1472092272829954,-7,-4,-3,-2,-5,-10,2,-2
1472092272842667,2,1,1,4,4,17,-6,-2
1472092272842667,1,1,-4,2,-3,-10,-7,0
1472092272849166,1,-3,-5,-2,2,-4,-2,-1
1472092272849166,-1,1,3,-7,-13,-6,0,-3
1472092272865631,1,0,-7,-10,1,-10,-1,-2
1472092272865631,-4,-2,-9,-2,2,6,0,-1
1472092272867089,6,1,4,-1,-1,-1,2,0
1472092272867089,-9,-2,-2,3,1,0,-6,1
1472092272888250,8,0,4,4,2,-9,8,0
1472092272888250,-10,-7,-3,-4,-7,-9,-9,-6
1472092272889785,-3,-4,-5,-8,-6,15,17,-3
1472092272889785,3,0,-4,0,3,3,-10,2
1472092272901808,3,2,5,-2,-2,-7,5,0
1472092272901808,3,3,5,7,7,-9,-9,3
1472092272909376,-1,-1,-5,-2,-8,-14,-13,-2
1472092272909376,1,-4,-11,-12,-12,-7,-9,-6
1472092272925688,-12,-2,5,0,2,19,6,-5
1472092272925688,7,1,-1,11,9,18,29,4
1472092272927189,-15,-4,1,3,7,1,-18,-5
1472092272927189,1,5,4,2,3,3,7,4
1472092272948300,6,-3,-2,1,0,-17,1,0
1472092272948300,-1,-2,-6,-8,-7,-11,-1,0
1472092272949775,9,1,-9,-6,-4,16,5,4
1472092272949775,-12,-3,3,3,7,11,6,-3
1472092272962632,-1,0,-3,4,0,-3,-3,2
1472092272962632,-3,0,2,0,3,-8,-16,-4
1472092272969194,4,0,3,0,6,5,10,3
1472092272969194,3,-1,-4,1,-4,-8,3,3
1472092272985768,-3,1,5,4,6,40,9,-2
1472092272985768,1,0,1,9,9,-10,-19,2
1472092272987259,0,3,-1,-4,-11,-33,-6,0
1472092272987259,1,1,3,0,-3,0,15,2
1472092273008253,0,-4,-5,-5,-5,36,-10,1
1472092273008253,-3,0,1,-11,0,7,4,-4
1472092273009791,-2,-1,3,3,-4,-20,-17,-2
1472092273009791,-5,0,2,7,8,26,12,-2
1472092273030602,2,2,1,1,-7,-20,-23,1
1472092273030602,-4,-7,-8,-6,-5,1,-4,0
1472092273032048,3,1,-3,-3,1,-11,6,-2
1472092273032048,6,5,5,-2,-4,4,-4,1
1472092273045435,-12,-6,-1,-7,-9,-26,4,-8
1472092273045435,3,1,-5,0,1,16,-1,2
1472092273047406,-4,-3,3,-1,0,-6,13,-3
1472092273047406,2,3,1,13,14,-7,-4,0
1472092273068034,5,1,-3,-4,-4,17,-5,1
1472092273068034,1,-3,-8,-6,-6,-22,4,-1
1472092273069538,0,1,7,-7,-7,10,3,2
1472092273069538,-3,-2,-12,-4,-8,-18,-19,-8
1472092273081552,3,-1,2,2,6,25,12,1
1472092273081552,-3,-3,1,7,1,-20,-3,3
1472092273090572,4,-2,-2,2,4,31,-3,2
1472092273090572,-4,-3,-3,-8,-5,-45,15,0
1472092273105123,7,3,2,1,1,20,1,-1
1472092273105123,-7,-1,3,-4,-2,25,10,-1
1472092273107158,3,2,-1,2,1,28,11,1
1472092273107158,-12,-5,0,1,-1,-19,-29,1
1472092273127984,5,1,-1,0,-4,-17,16,4
1472092273127984,-1,1,0,-6,-10,-3,-2,-4
1472092273129444,1,-2,-3,-5,-8,-28,8,-7
1472092273129444,-10,-5,-2,-3,1,27,-15,-2
1472092273141595,-2,1,-1,2,3,-28,3,1
1472092273141595,-3,0,-2,0,-2,22,7,-1
1472092273150579,-5,-6,-6,-3,-1,-30,-15,-5
1472092273150579,6,3,4,4,5,3,3,0
1472092273165753,-2,0,-3,-3,-5,29,6,2
1472092273165753,0,-4,0,-1,3,3,9,-3
1472092273167265,0,-1,-9,-4,-5,4,-3,-1
1472092273167265,2,-4,3,2,0,7,-2,-1
1472092273188040,-10,-6,1,-2,-3,-48,-6,-5
1472092273188040,4,-1,-1,2,-4,20,-8,-1
1472092273189525,-7,-3,-3,-3,3,5,-5,-2
1472092273189525,-1,-1,-5,-4,-4,7,-10,-3
1472092273201839,0,-6,-4,-7,-9,-28,-13,-3
1472092273201839,-3,0,1,-7,-5,-19,-13,-2
1472092273210872,4,1,0,7,4,9,11,2
1472092273210872,2,-1,-3,-1,-1,2,15,0
1472092273225571,3,1,1,-1,4,10,-7,3
1472092273225571,-2,-2,-7,-3,-1,-21,-15,-3
1472092273227060,-1,1,4,6,6,19,14,3
1472092273227060,4,-1,-6,-6,-6,-10,2,0
1472092273248110,-21,-6,-3,-9,-12,2,-19,-10
1472092273248110,2,5,5,6,10,-1,4,4
1472092273249615,-4,-6,-5,4,1,3,6,0
1472092273249615,0,0,4,3,-8,-25,-8,-6
1472092273261670,0,-1,-4,-1,-1,21,13,-1
1472092273261670,-1,-4,-5,-9,-9,-27,-20,-6
1472092273270631,-2,-1,0,-2,-5,4,-9,-2
1472092273270631,4,1,-5,-8,-9,-46,-6,2
1472092273285759,5,6,6,9,18,28,18,1
1472092273285759,-5,-2,0,4,1,33,-4,-2
1472092273287261,-5,-1,-2,1,-1,-5,0,1
1472092273287261,4,-3,-3,0,-5,-3,4,3
1472092273308321,1,-5,-3,-1,-3,-8,-6,0
1472092273308321,0,0,0,-5,-3,7,12,3
1472092273309833,-4,-1,2,-6,-2,-6,-5,-4
1472092273309833,-3,-1,3,1,2,21,-1,0
1472092273321858,7,3,-3,5,-1,-14,18,3
1472092273321858,-5,2,3,-1,1,14,5,-3
1472092273330873,-3,-6,-10,-13,-12,-29,-12,0
1472092273330873,-7,-2,4,1,9,18,-5,-5
1472092273345476,-1,1,4,8,9,-1,9,2
1472092273345476,11,3,2,9,3,-24,-11,2
