timestamp,emg1,emg2,emg3,emg4,emg5,emg6,emg7,emg8
1470243624583144,-3,-3,8,0,0,-1,-1,0
1470243624583144,0,13,4,2,0,-1,0,-2
1470243624588649,0,-4,-4,-2,-1,-1,0,-1
1470243624588649,-4,-2,-5,-3,-3,-1,0,0
1470243624589650,3,1,-5,2,0,-1,-2,-2
1470243624589650,-1,-5,1,-2,-3,-1,-1,1
1470243624591152,1,9,3,7,2,-1,0,0
1470243624591152,-1,-3,-4,-7,1,-1,-1,-2
1470243624602161,0,2,2,3,-2,-1,1,1
1470243624602161,-1,-8,-4,-3,-1,-2,0,-2
1470243624613171,-2,0,-5,0,-2,-1,-1,-3
1470243624613171,2,1,18,4,-1,-1,0,-1
1470243624616674,-2,0,-13,-6,-2,-1,-2,-2
1470243624616674,-4,-17,4,1,-2,-1,-2,-1
1470243624633189,-1,3,2,-4,-1,-1,-1,-1
1470243624633189,0,-1,7,3,0,-2,-3,-2
1470243624648703,-2,-5,2,-1,-2,-2,-1,0
1470243624648703,1,3,-1,0,1,0,0,-1
1470243624654209,-1,0,5,-1,-1,-1,-2,-2
1470243624654209,-1,0,-7,-1,-1,0,0,0
1470243624662716,0,2,2,-3,-1,-1,-1,-2
1470243624662716,1,-3,-23,-4,0,-2,-1,0
1470243624677729,-1,-3,8,-2,-1,-2,-1,-1
1470243624677729,-1,-1,-2,-1,-1,0,-1,-2
1470243624717765,0,-2,-7,0,0,0,0,0
1470243624717765,-4,-6,4,-3,-2,-3,-2,-2
1470243624718266,3,6,21,6,1,-2,-1,-1
1470243624718266,-1,0,-45,-8,-3,-1,-3,-1
1470243624719267,-2,0,7,2,-1,-1,-1,0
1470243624719267,3,-3,-11,-9,-1,0,-2,-2
1470243624721768,1,0,4,0,0,-2,0,1
1470243624721768,-3,-2,18,4,1,0,-1,-2
1470243624737283,0,-1,0,-1,-1,-2,-2,-2
1470243624737283,0,5,-4,3,0,0,-1,1
1470243624738284,-2,-4,-11,-1,-1,-1,-1,0
1470243624738284,-1,-3,5,-2,-1,-1,-1,1
1470243624759803,-1,-1,-9,-3,-1,-2,0,-1
1470243624759803,-3,-1,4,-2,-1,-3,-1,-2
1470243624768311,-1,-1,2,2,-2,-1,-1,-1
1470243624768311,1,1,4,1,-1,-2,-1,0
1470243624769812,-2,-2,0,-4,-1,-1,0,0
1470243624769812,-2,3,6,0,0,0,-1,0
1470243624790330,-3,-8,-8,-7,-2,-1,-2,-2
1470243624790330,1,1,6,2,0,-2,0,-2
1470243624792332,-2,-6,-4,-3,-2,-3,-1,0
1470243624792332,-3,3,-18,-3,-2,-2,-1,-2
1470243624804343,-1,0,8,2,-3,-2,-1,-2
1470243624804343,-2,0,0,0,0,-1,0,-1
1470243624813351,-1,-8,2,-3,0,0,-3,0
1470243624813351,1,4,-10,2,0,-3,-1,-2
1470243624827865,-2,-2,2,-7,0,0,-1,-1
1470243624827865,-3,-4,4,2,-1,-1,-1,-2
1470243624829865,0,2,-6,-1,-3,-1,0,-1
1470243624829865,-1,-6,7,-2,-2,-2,-1,-1
1470243624850384,1,4,-18,-3,-2,-2,-2,0
1470243624850384,-2,-6,24,1,-1,-1,-1,1
1470243624852386,0,4,-4,4,2,0,0,-2
1470243624852386,-1,-4,1,-2,-2,1,-1,-1
1470243624864396,0,2,12,2,-1,0,-1,0
1470243624864396,-1,-3,-40,-12,-2,-1,-1,-2
1470243624873405,0,4,7,1,0,-1,0,0
1470243624873405,-3,-7,20,0,-2,-3,-1,-1
1470243624887919,-2,-2,-15,-2,0,-1,0,-3
1470243624887919,1,0,6,-8,-1,-1,-1,-1
1470243624889420,-2,-2,-3,2,-1,0,-1,-2
1470243624889420,1,0,-7,1,0,1,-1,1
1470243624910439,-3,-6,-1,-5,-4,-1,-1,-1
1470243624910439,-2,-1,-1,5,-2,-1,-1,-2
1470243624912440,-2,-1,-8,-7,-3,-2,-1,-2
1470243624912440,-1,-2,0,1,-2,-1,0,-1
1470243624924451,1,1,3,1,0,-1,-1,-2
1470243624924451,0,-4,0,0,-1,-3,-2,-1
1470243624933459,-1,0,2,2,-2,0,-1,-2
1470243624933459,-1,-2,13,-2,0,-2,-1,-1
1470243624947971,-3,0,-27,-3,0,-3,1,2
1470243624947971,-2,5,16,3,-3,0,-1,-1
1470243624949474,-2,-10,9,0,-1,-1,-1,0
1470243624949474,2,1,-7,-1,-2,0,-1,0
1470243624969492,-1,5,7,1,-2,0,0,-1
1470243624969492,-1,-16,-7,-3,-1,-1,0,1
1470243624978499,0,4,-1,-2,0,-2,-2,1
1470243624978499,1,1,-6,-1,0,-1,-1,-1
1470243624984005,-2,-8,-1,-5,0,1,0,-1
1470243624984005,-3,8,7,1,-3,-3,-3,-3
1470243624993013,0,0,9,-3,0,0,-1,-1
1470243624993013,-4,-7,-22,-4,-1,-1,-1,-2
1470243625008025,-1,2,7,0,-1,1,-1,-1
1470243625008025,-1,-4,-17,-1,-1,-1,-2,-2
1470243625009527,-2,-4,4,-7,-2,0,-3,-2
1470243625009527,0,1,-9,5,-2,-1,-1,-1
1470243625030547,-2,-8,-18,-6,-3,0,-1,-1
1470243625030547,-2,3,0,-2,-1,-4,-1,1
1470243625032548,1,-1,-3,0,-1,1,-1,-1
1470243625032548,-1,4,9,3,-3,-2,0,0
1470243625044559,-2,-1,9,3,-1,-2,-2,-1
1470243625044559,1,-3,5,0,-1,0,0,-2
1470243625053066,-2,-3,-10,-2,0,0,0,-1
1470243625053066,0,-3,5,1,0,0,-1,0
1470243625068080,-1,1,2,-1,0,-3,-2,-2
1470243625068080,0,-9,2,0,-2,-1,0,0
1470243625069583,0,0,1,-5,-3,-1,-1,-1
1470243625069583,-1,-2,-3,1,-3,0,-1,-1
1470243625090600,-2,1,2,0,0,0,-3,0
1470243625090600,2,7,10,3,1,0,1,1
1470243625092101,-2,-1,-36,1,-1,-3,0,0
1470243625092101,-1,-9,-1,-9,-2,0,-1,-1
1470243625104112,-3,-14,16,3,-3,-2,-1,-2
1470243625104112,-2,3,-6,-3,0,1,0,0
1470243625113121,-2,-1,7,1,-2,0,-1,-2
1470243625113121,0,4,-3,0,2,-4,0,0
1470243625128133,0,0,-7,-3,-1,-1,0,0
1470243625128133,0,2,1,1,-1,0,1,-2
1470243625129637,-3,-8,1,-5,-1,-2,-2,-2
1470243625129637,-2,3,-6,-1,-1,0,-2,1
1470243625150656,-1,0,4,0,-1,-2,0,-1
1470243625150656,0,1,-5,0,-1,0,-2,-2
1470243625152155,-2,-1,3,-1,-1,-1,0,-1
1470243625152155,0,-5,-1,-1,0,-2,-1,-2
1470243625164166,0,0,2,2,-1,1,-1,-1
1470243625164166,-1,4,0,-2,0,-1,-3,-3
1470243625173174,-2,1,-5,-1,-1,-3,-2,0
1470243625173174,2,3,20,7,1,0,0,0
1470243625188188,-2,4,0,2,1,0,1,1
1470243625188188,-2,-3,-16,-6,-3,-4,-2,0
1470243625189689,-1,-2,7,4,-1,-2,0,-1
1470243625189689,1,-1,-3,-4,0,0,0,-2
1470243625210708,-1,1,6,1,-1,-2,-1,-4
1470243625210708,-2,-5,-15,-4,-3,-2,-1,0
1470243625212211,0,8,-1,-2,-1,-1,-1,-3
1470243625212211,-1,11,2,0,-2,0,-3,0
1470243625224219,-3,-26,-11,-6,0,0,-1,-1
1470243625224219,-3,0,17,0,-3,-1,-3,-2
1470243625233229,0,0,0,5,0,0,-1,0
1470243625233229,0,1,-1,-2,-1,-2,1,-1
1470243625248242,-1,5,-10,-7,-3,-2,-2,-2
1470243625248242,0,-3,-4,0,0,-1,-1,-1
1470243625249742,-1,-2,-2,-1,-1,0,-1,-1
1470243625249742,-2,-4,-4,-1,0,-1,0,0
1470243625270262,1,-1,0,-3,-1,1,-2,0
1470243625270262,-2,7,5,1,-2,-2,-1,-1
1470243625272263,-1,1,10,3,-3,-2,-1,-2
1470243625272263,-5,-18,0,-2,-2,-1,-3,-2
1470243625284274,0,2,-10,-1,0,-1,-1,0
1470243625284274,0,-1,-1,-5,1,1,1,-2
1470243625293282,-2,-3,1,-4,-1,1,-1,-2
1470243625293282,-2,1,-6,-4,-1,0,-2,-1
1470243625308295,1,4,14,2,0,-1,-2,0
1470243625308295,0,-10,-25,-4,-3,-1,-2,1
1470243625309798,-1,0,0,-7,-1,-3,0,0
1470243625309798,-3,-3,-11,-3,-3,-2,-1,0
1470243625330816,-2,3,6,3,-2,1,-2,-2
1470243625330816,0,3,4,-5,0,0,0,0
1470243625332317,0,3,3,1,-1,1,-1,-1
1470243625332317,-1,-2,-7,-4,-4,-3,-2,-1
1470243625344328,-1,0,-14,-1,-1,-1,-1,-1
1470243625344328,-3,0,27,4,-1,0,-1,-2
1470243625353336,0,-1,-4,-1,-2,-1,-1,-1
1470243625353336,0,0,16,0,2,0,1,-1
1470243625375857,-2,-1,-14,-2,-1,-3,0,-1
1470243625375857,0,-6,-10,-5,0,-2,-1,-2
1470243625377358,-2,-2,12,5,0,-1,-1,-1
1470243625377358,-1,0,-3,0,-2,0,-1,1
1470243625390369,-1,0,8,2,-2,-2,-2,-2
1470243625390369,1,1,1,-2,0,-1,-1,-2
1470243625392372,-1,-10,-5,0,0,-1,-1,-1
1470243625392372,-1,1,-8,-6,-2,-2,-2,-2
1470243625404381,-1,6,-12,14,-1,-1,0,-2
1470243625404381,-1,-2,11,-8,1,1,-1,1
1470243625413389,-1,-18,-14,-2,0,0,-1,-1
1470243625413389,-1,0,2,4,0,0,-1,-2
1470243625427903,0,3,5,-3,-1,0,1,-2
1470243625427903,-2,0,-12,0,-2,0,-2,-2
1470243625429405,1,7,19,7,-1,-1,-1,1
1470243625429405,0,-5,-8,-5,0,1,0,-1
1470243625450923,1,-2,-1,-6,-1,-1,-1,0
1470243625450923,-1,-2,-1,6,0,-1,-1,-1
1470243625452424,-1,0,-5,-4,-2,-1,-1,-1
1470243625452424,-3,-4,3,-6,-3,-1,0,-2
1470243625480951,-1,1,-2,-1,0,-2,-2,-2
1470243625480951,-1,2,27,5,0,-2,0,0
1470243625481951,-5,-14,-42,-11,-3,0,-4,-3
1470243625481951,-1,-3,12,6,-1,-2,0,-1
1470243625487957,-2,5,-3,2,-1,-1,-2,0
1470243625487957,-2,-3,3,-5,0,-1,0,0
1470243625489458,-1,4,8,-1,-2,-1,-1,-1
1470243625489458,-1,0,-4,0,0,0,-2,-2
1470243625510477,-2,-9,0,-6,-3,-2,0,0
1470243625510477,0,-3,-5,5,-3,-1,-1,-3
1470243625511978,1,2,-13,-5,2,0,-1,-1
1470243625511978,-2,1,16,7,-2,-2,-1,-2
1470243625532998,-2,-2,9,-3,0,0,0,1
1470243625532998,-2,3,-15,5,-1,-1,-1,-1
1470243625534499,-1,0,-11,-17,-5,-1,0,-1
1470243625534499,0,0,8,3,1,-1,-1,-1
1470243625547009,-1,-4,-16,-3,-4,0,-1,-2
1470243625547009,0,-2,-1,-6,0,0,-2,-2
1470243625563025,-2,3,11,5,0,-2,-1,0
1470243625563025,1,0,-2,-2,0,-2,0,0
1470243625570532,-3,-5,-13,-5,-2,-2,0,-1
1470243625570532,0,-1,0,-3,-4,-2,-1,-1
1470243625572032,1,2,3,4,0,-1,1,-2
1470243625572032,-2,4,4,-1,-3,-1,-3,-2
1470243625593052,0,-2,6,0,1,0,-1,2
1470243625593052,-2,-1,-9,-3,-2,-3,-1,-1
1470243625594552,-2,-4,3,3,0,-2,0,0
1470243625594552,-1,-4,-8,-8,-1,0,-1,-1
1470243625607563,-1,1,9,2,-1,-1,0,-1
1470243625607563,0,-2,-14,-9,-1,-1,-2,-2
1470243625614071,-2,4,7,3,-2,-1,0,-3
1470243625614071,-3,-2,-12,0,0,-1,-1,-1
1470243625630586,-1,-1,1,-1,0,1,-1,-2
1470243625630586,0,-3,5,2,-2,-2,0,-1
1470243625632087,0,1,8,1,1,-2,-1,-1
1470243625632087,-2,-6,-12,-3,-2,-2,-1,-1
1470243625653105,-2,2,0,-5,0,-1,-2,-1
1470243625653105,-1,2,11,6,-1,-1,0,-1
1470243625654607,-1,5,14,10,0,-1,0,1
1470243625654607,-1,-1,-3,5,-2,1,-1,-3
1470243625667618,-2,-15,6,-7,1,-1,-1,-1
1470243625667618,-1,-2,-8,0,0,1,0,0
1470243625674127,-2,6,8,-2,-1,-1,-1,0
1470243625674127,0,-1,-13,3,-2,-2,0,-1
1470243625689138,0,2,-6,-3,-2,-2,0,1
1470243625689138,-1,0,-6,2,-1,-1,-1,-1
1470243625698145,-1,-11,7,1,-1,-2,-1,-1
1470243625698145,-3,-3,2,-5,0,-1,1,-1
1470243625720667,0,7,-7,3,-3,-1,-2,-2
1470243625720667,-2,-4,-6,-4,0,-2,0,2
1470243625722167,0,-7,-5,-7,-1,-1,-2,-1
1470243625722167,0,2,4,-3,-1,-1,-1,-1
1470243625735679,-1,-3,0,0,-1,1,0,-1
1470243625735679,-3,-2,-15,-4,0,0,-1,-1
1470243625737180,0,2,-8,-4,-1,-1,-2,-1
1470243625737180,1,-2,24,3,-1,-1,-1,1
1470243625749192,-1,-1,4,-3,-1,-1,-2,0
1470243625749192,0,2,4,-1,0,-1,0,-1
1470243625758199,-2,-5,-4,6,-2,0,-2,-2
1470243625758199,-3,0,-10,-11,-3,-2,-3,-1
1470243625773212,1,0,4,1,0,-2,-2,-1
1470243625773212,-1,-5,-4,-2,-2,-2,-2,0
1470243625774714,-1,4,-2,-3,-1,-1,-1,-1
1470243625774714,-1,4,-2,6,0,0,0,-1
1470243625795733,-1,-3,10,-2,0,-1,-1,-2
1470243625795733,-2,-3,3,-1,-1,1,-2,0
1470243625797235,-2,-4,-12,-3,-1,-3,-2,-1
1470243625797235,1,12,3,9,1,-1,-2,-1
1470243625817752,0,-7,-10,-7,1,-1,-1,-1
1470243625817752,-1,-2,5,5,-1,-1,-1,-2
1470243625819755,-1,2,0,4,0,0,-1,-1
1470243625819755,0,-1,2,-7,-2,-1,-3,2
1470243625833269,-3,1,-1,-1,-3,-3,-1,-2
1470243625833269,-1,-7,1,-2,-2,0,-1,-2
1470243625834770,-1,0,10,6,-1,-1,0,-1
1470243625834770,-1,-6,-10,-6,-2,-1,-1,0
1470243625855788,-2,-3,-1,-5,-2,-1,-2,-1
1470243625855788,0,2,-6,-2,0,-1,-2,-3
1470243625857289,-3,-4,-15,-5,-3,-2,-1,-1
1470243625857289,0,-2,7,0,0,-1,-2,-2
1470243625869300,1,3,-5,5,-2,-1,-1,-1
1470243625869300,-2,-2,11,1,-2,-2,0,-1
1470243625878307,-1,0,-6,-7,-1,0,-1,-2
1470243625878307,-2,-3,-4,-3,-1,-2,-1,-2
1470243625893320,1,11,1,2,-2,-1,1,1
1470243625893320,-2,-14,7,1,1,-2,-1,1
1470243625894822,1,-2,-13,-5,-1,-1,-1,0
1470243625894822,-1,-5,-6,-4,-2,-2,0,-2
1470243625915841,-1,1,-9,-1,0,-1,-1,-3
1470243625915841,-3,6,22,9,-3,-3,-1,-1
1470243625917343,0,3,-14,-12,-3,-3,-2,-2
1470243625917343,0,-6,5,2,1,0,1,-1
1470243625937861,-3,-6,-4,5,-2,-1,-2,-3
1470243625937861,1,1,2,-3,1,-1,1,-1
1470243625939862,-1,-1,-17,-1,1,-1,-1,-1
1470243625939862,-4,-1,15,-3,-2,-1,-2,-2
1470243625952875,-2,-4,-1,-1,0,0,-1,-1
1470243625952875,-2,-1,-18,-3,-1,-1,-2,-1
1470243625959380,-1,3,27,3,0,-1,-1,-1
1470243625959380,-3,-20,-29,-6,-1,-1,-2,-1
1470243625975394,-1,7,6,-3,-1,-2,-1,1
1470243625975394,-3,3,-1,2,-3,1,0,0
1470243625977396,1,3,2,0,0,-1,1,-1
1470243625977396,-2,-12,-10,-3,-2,-1,0,-2
1470243625998418,-2,-2,-12,-4,1,-1,-2,0
1470243625998418,-2,1,5,2,-1,-2,0,0
1470243625999417,-1,-2,-3,-6,-3,-2,-1,0
1470243625999417,1,3,1,6,0,0,-1,1
1470243626012929,-3,0,2,-8,-5,-2,-3,-2
1470243626012929,0,-2,-18,-3,-1,-1,0,-3
1470243626020935,-2,0,9,-2,-1,0,-1,1
1470243626020935,0,3,-12,-3,-2,-1,0,-1
1470243626035448,1,-9,15,8,-2,-1,-1,1
1470243626035448,-3,-4,-24,-11,-4,0,-4,-2
1470243626036950,-2,-8,-27,0,-1,-1,-3,0
1470243626036950,1,9,13,-1,-2,-1,0,-1
1470243626057969,-2,-1,5,0,1,-1,1,0
1470243626057969,1,1,1,2,-1,-1,-1,-2
1470243626059469,-3,-7,10,4,1,0,0,-2
1470243626059469,-1,2,-1,3,-1,-2,-2,-1
1470243626071982,-3,-5,-15,3,-2,-2,-2,0
1470243626071982,0,5,5,-6,1,-1,-2,-1
1470243626080489,-1,-4,11,0,1,1,0,3
1470243626080489,0,5,-5,-2,-2,-3,-2,-2
1470243626095502,-1,-5,-9,-5,-2,-2,-2,-1
1470243626095502,2,1,2,-3,0,0,0,0
1470243626097504,-2,-10,3,4,-3,0,0,-3
1470243626097504,-1,-2,7,-3,-1,-2,-1,-2
1470243626117551,0,-5,-9,5,-3,-1,-1,0
1470243626117551,-1,5,5,-8,1,-2,-2,-1
1470243626125529,1,8,0,-9,-4,-2,0,-3
1470243626125529,-3,-12,16,3,0,2,0,-1
1470243626132538,-2,-2,-18,-5,0,2,1,-2
1470243626132538,0,-6,11,-4,0,-2,0,0
1470243626139041,0,15,5,6,-1,-2,0,-2
1470243626139041,2,13,3,0,-1,0,-1,-1
1470243626155558,-3,-7,-20,-9,-3,0,-2,-2
1470243626155558,1,-1,23,17,2,0,1,1
1470243626157057,-1,-2,-24,-10,-4,-2,-2,1
1470243626157057,-3,-3,10,-4,-1,-2,-3,-2
1470243626178091,0,1,20,10,-1,0,-1,-1
1470243626178091,-1,-5,-14,3,-3,-2,-2,-1
1470243626179578,1,3,0,-4,2,0,-1,-1
1470243626179578,0,0,-11,-2,-2,1,-1,1
1470243626192591,-2,-6,13,-1,2,-2,-1,-2
1470243626192591,-2,0,-30,-22,-4,-1,-2,1
1470243626199612,-3,-1,33,14,-3,-2,-1,0
1470243626199612,-1,4,-18,-10,-2,1,0,-2
1470243626215617,-1,-1,13,3,1,-1,0,-1
1470243626215617,-4,-1,-2,1,-3,-4,-1,-4
1470243626217111,-1,-3,-15,4,0,0,0,-1
1470243626217111,-2,1,14,2,0,-2,-2,1
1470243626238130,1,-4,20,3,1,-1,-1,-1
1470243626238130,0,4,-49,-15,0,0,-1,-3
1470243626239632,-1,-16,17,3,-3,0,-2,-2
1470243626239632,-1,8,-20,-5,0,-1,-1,0
1470243626252648,3,2,-4,-8,0,1,0,1
1470243626252648,0,2,25,9,0,2,-1,1
1470243626259168,-5,-31,-49,-9,-3,-2,-3,-5
1470243626259168,1,20,35,-5,0,-1,0,-1
1470243626275665,-1,12,-10,-7,-3,-2,-2,-3
1470243626275665,-2,-8,-5,4,0,0,-1,0
1470243626277165,2,15,12,4,1,0,-1,1
1470243626277165,3,-36,-6,6,1,1,1,1
1470243626298184,-4,54,23,-4,-3,-3,-4,-4
1470243626298184,-3,-16,-31,-7,-2,-1,-2,-1
1470243626299686,-1,5,6,14,-1,-1,1,0
1470243626299686,-4,-2,-8,-11,-5,-2,-1,-1
1470243626320707,0,-14,-6,-8,0,-1,1,1
1470243626320707,-1,6,12,5,0,-2,-2,0
1470243626322205,-1,-19,-6,-2,-2,-3,-2,0
1470243626322205,-2,8,-18,8,1,0,-2,-1
1470243626335219,-4,-28,-4,0,-2,-1,0,-3
1470243626335219,0,38,1,-5,-4,-2,-2,-2
1470243626341752,1,-18,3,-6,3,0,-1,-1
1470243626341752,-4,-9,-12,1,-5,-2,-3,-4
1470243626358239,-2,-13,-16,6,1,-3,-3,-1
1470243626358239,-3,-15,-3,-6,1,0,-1,0
1470243626359739,-3,-3,30,7,0,1,1,0
1470243626359739,1,11,-17,0,-4,-2,0,-1
1470243626371750,2,12,-7,-5,2,1,1,-1
1470243626371750,1,-10,20,9,1,0,-1,1
1470243626380758,0,0,12,1,0,-1,-1,0
1470243626380758,-3,36,23,5,-2,-3,-2,-3
1470243626395772,-2,-48,-25,-3,-2,-1,0,1
1470243626395772,-7,6,8,-4,-3,-1,0,-4
1470243626397274,-5,-28,-15,-4,-4,-1,-1,-1
1470243626397274,3,25,4,-9,1,2,0,1
1470243626418293,2,11,6,4,0,0,0,0
1470243626418293,1,19,-11,-6,0,-1,-2,1
1470243626419793,-2,12,12,-4,0,-2,-1,0
1470243626419793,-6,-15,22,3,-1,-3,-2,-2
1470243626431805,-4,-25,-21,10,-3,-2,-2,-1
1470243626431805,2,-10,-20,-13,-3,-2,-2,-1
1470243626440812,-1,13,1,-8,-1,0,1,-1
1470243626440812,4,-6,14,5,1,-1,-2,-1
1470243626454826,-8,-15,-1,-6,-3,-1,-1,-1
1470243626454826,4,8,42,23,0,0,-1,0
1470243626463332,-3,-6,-49,-19,-4,-3,-1,-2
1470243626463332,0,-23,1,3,1,1,0,2
1470243626477847,-1,7,-21,-10,-3,-3,-2,-3
1470243626477847,-6,-21,21,11,-1,-2,-1,-2
1470243626479347,2,29,0,-7,-4,-2,-3,-3
1470243626479347,-3,-37,7,7,3,0,0,-3
1470243626491857,4,42,32,-1,1,1,0,2
1470243626491857,-7,-10,-34,-12,-8,-3,-1,-1
1470243626500865,4,7,-8,1,-4,-2,0,-1
1470243626500865,-7,3,-17,-11,-3,-2,-2,-2
1470243626515879,0,5,29,5,-1,-1,0,0
1470243626515879,0,-22,-27,-2,1,0,-1,0
1470243626517406,-2,7,14,8,0,0,-1,0
1470243626517406,7,10,3,0,-3,-2,0,-1
1470243626538497,-1,13,-11,-14,-2,0,-2,0
1470243626538497,-4,-8,3,2,2,-2,-2,-1
1470243626539938,0,-22,-20,-5,-2,0,-2,-1
1470243626539938,0,-11,-5,0,-1,-1,-2,-1
1470243626551911,-3,-27,-7,6,-1,0,-1,-2
1470243626551911,-8,2,23,4,-6,-3,1,-2
1470243626560419,3,8,24,0,4,2,0,2
1470243626560419,-2,-9,-11,10,2,1,0,-1
1470243626574933,4,16,-16,-1,0,0,0,0
1470243626574933,3,-4,11,-17,1,-1,-2,-1
1470243626581939,0,-9,3,9,0,-1,1,0
1470243626581939,-10,13,-31,-15,0,-2,-1,-3
1470243626598453,-2,-33,33,11,0,-1,-2,0
1470243626598453,-3,-14,-41,1,-2,0,0,-2
1470243626599456,-2,13,12,5,1,0,-1,0
1470243626599456,1,11,1,-7,-3,-3,-2,-4
1470243626611966,-2,-3,1,7,-1,-1,-1,-1
1470243626611966,-6,8,-4,-16,0,0,-1,-3
1470243626620473,1,22,-19,-4,0,-2,-2,-4
1470243626620473,1,4,25,20,-1,-1,1,0
1470243626635487,-4,16,-49,-28,-4,-2,-1,-1
1470243626635487,5,11,6,1,1,0,0,1
1470243626636988,-6,10,11,9,-3,-3,-2,-2
1470243626636988,-1,10,-17,-3,-4,0,1,1
1470243626658006,-1,-6,1,-5,-2,0,-1,-2
1470243626658006,-1,24,36,16,-4,-4,-3,-3
1470243626659508,1,-15,-25,-19,0,-1,-1,-1
1470243626659508,0,-16,-27,8,4,-1,0,0
1470243626671519,6,45,40,0,3,0,2,-1
1470243626671519,0,10,-29,13,0,-1,0,0
1470243626680528,2,-1,16,-9,-3,-1,0,0
1470243626680528,-12,-72,-4,-15,1,0,-3,-2
1470243626695040,-3,7,-14,-5,-2,-1,-3,-2
1470243626695040,13,44,16,13,6,0,0,2
1470243626701546,-12,-29,11,-1,-6,-4,-2,-5
1470243626701546,8,17,-14,-10,-1,0,1,3
1470243626718060,-5,-41,-13,-3,3,1,0,0
1470243626718060,7,69,34,15,-5,-1,-3,-2
1470243626719562,0,-33,-1,-18,3,3,0,-1
1470243626719562,-12,-11,0,-22,-6,-4,-4,-6
1470243626731574,8,49,0,12,2,-2,0,3
1470243626731574,-4,6,29,-14,-6,-4,-5,-5
1470243626740581,2,10,10,16,-1,0,1,1
1470243626740581,-4,-27,3,-6,-2,-1,-2,-3
1470243626754594,2,-23,-42,-2,0,0,-1,0
1470243626754594,-5,-61,-13,-8,0,-2,0,0
1470243626761600,-1,14,33,10,-1,-2,-1,-1
1470243626761600,-14,-55,-27,2,-2,0,1,-3
1470243626778114,0,38,28,11,-1,-2,-3,-2
1470243626778114,-2,-46,-33,-22,-2,0,1,-2
1470243626779617,-4,-35,8,2,-3,-2,-2,-1
1470243626779617,11,20,36,33,6,0,2,3
1470243626791627,-6,-45,-28,-24,-5,-1,1,-1
1470243626791627,-3,-5,18,3,0,0,-2,-3
1470243626800635,-2,7,41,9,-6,-1,-3,0
1470243626800635,-1,33,5,-3,-5,-3,-2,0
1470243626815148,-6,29,34,-2,1,-1,-2,-5
1470243626815148,2,31,-32,9,0,-1,1,1
1470243626821654,-7,-33,-17,-17,0,-1,0,-2
1470243626821654,-4,-7,31,-12,-7,-2,-2,-2
1470243626838169,2,30,1,10,-1,-1,0,0
1470243626838169,-14,-32,12,-31,-2,-2,-3,-3
1470243626839670,-1,7,-22,29,2,0,-1,-1
1470243626839670,-2,34,-49,-36,-2,-2,-1,-1
1470243626860189,2,-33,17,9,-3,-2,-1,0
1470243626860189,4,16,19,17,-7,-2,-2,-2
1470243626875703,-1,28,-45,-14,-2,-4,-2,-1
1470243626875703,6,40,0,-4,-1,0,-1,0
1470243626876214,5,6,-3,0,0,0,0,2
1470243626876214,-10,-51,-43,9,2,1,0,-1
1470243626881724,-1,-8,23,4,-4,-2,-3,-1
1470243626881724,6,24,-23,-6,2,1,-1,1
1470243626897750,-13,-58,-30,6,-2,-3,-1,-5
1470243626897750,10,5,-2,-5,1,1,4,5
1470243626904254,6,-25,-22,-17,1,0,0,0
1470243626904254,-2,0,21,12,2,1,1,-1
1470243626920771,-1,-4,45,2,-2,1,-2,-1
1470243626920771,-3,-3,-87,-14,-3,-2,-3,-2
1470243626922246,4,23,4,10,-1,-1,-1,0
1470243626922246,-2,-31,1,-2,-2,-2,-3,-3
1470243626935763,2,-1,2,0,1,-2,-1,0
1470243626935763,1,-19,10,-5,2,1,1,1
1470243626943264,9,65,-7,-10,2,-1,2,2
1470243626943264,-5,35,15,24,-8,-2,-2,-4
1470243626958280,0,-9,-24,-11,-3,-3,-3,-3
1470243626958280,-1,-2,36,25,8,4,1,0
1470243626959779,1,-9,-17,-11,-4,-4,-1,-1
1470243626959779,-1,24,27,1,-2,-3,-2,-2
1470243626980799,-5,0,15,-32,-2,-1,0,-3
1470243626980799,0,30,16,0,-10,-2,0,1
1470243626982298,-5,-13,-2,-1,2,0,-2,-2
1470243626982298,4,2,-31,10,-3,-2,0,0
1470243626994809,-6,-7,8,-1,-1,0,-1,-2
1470243626994809,6,18,6,-13,-3,-5,-2,1
1470243627001826,0,44,-8,-1,3,2,0,-2
1470243627001826,-1,-27,-8,-7,-3,0,-1,0
1470243627018353,3,29,13,8,-4,-3,-3,0
1470243627018353,4,-14,-6,-4,4,-1,1,0
1470243627019834,6,25,-8,14,2,2,2,3
1470243627019834,-3,-12,32,2,5,-1,-1,-2
1470243627040851,-1,24,7,2,-2,0,1,-2
1470243627040851,1,5,22,5,-3,0,-1,-2
1470243627042352,-7,-25,-21,-3,-2,-1,-2,-3
1470243627042352,-3,-34,-33,-30,1,0,1,-1
1470243627054379,1,6,-11,9,3,2,-1,1
1470243627054379,-16,-68,11,-8,-2,-4,-4,-5
1470243627063370,2,18,33,5,-1,-4,0,-1
1470243627063370,0,10,-15,-7,-1,1,-1,-1
1470243627078384,-5,-35,-49,1,1,-1,-2,1
1470243627078384,2,35,37,-5,0,0,-1,0
1470243627079886,-8,-37,25,16,0,-2,-3,-1
1470243627079886,1,-19,-15,-7,1,-2,-1,-2
1470243627100907,-2,9,10,3,-3,-4,-2,-3
1470243627100907,0,6,-21,-6,0,1,1,-1
1470243627102408,1,5,3,-3,1,1,0,-1
1470243627102408,-1,23,11,9,-2,-2,-2,-2
1470243627114919,0,18,19,4,-2,0,-1,-2
1470243627114919,-4,-28,7,1,1,1,1,1
1470243627121923,-6,5,-19,-10,-5,-2,-3,-3
1470243627121923,1,-9,-36,5,1,-2,1,2
1470243627138489,0,-28,-5,-5,-2,-2,1,1
1470243627138489,3,21,-18,14,3,0,-3,-2
1470243627139454,-3,-7,27,-16,-6,0,-2,-1
1470243627139454,1,15,13,14,5,3,1,1
1470243627161006,1,1,19,3,-1,-2,1,-1
1470243627161006,-2,18,6,-5,-4,-2,-2,-3
1470243627162461,-3,-1,-10,-2,-3,-3,-2,-3
1470243627162461,3,1,5,25,-1,-1,-2,-1
1470243627175016,-2,8,19,-24,0,-2,-4,-2
1470243627175016,4,6,-15,0,-1,-2,2,1
1470243627181980,2,13,10,-2,5,0,0,-1
1470243627181980,-11,-39,19,-6,-9,-2,-2,-3
1470243627198037,0,-8,0,18,2,-2,-1,1
1470243627198037,0,10,0,-14,-3,-1,-1,-1
1470243627199493,-1,3,7,-2,-3,-1,-1,-2
1470243627199493,6,20,10,11,3,-1,1,3
1470243627220512,-4,-7,-35,-18,0,1,-1,-1
1470243627220512,0,-3,23,6,-4,-5,-1,-2
1470243627222014,1,16,20,1,0,-1,-1,0
1470243627222014,-4,-24,-52,-22,-5,-2,-1,-2
1470243627235027,-4,8,-2,3,-2,0,-1,-4
1470243627235027,-6,-20,-18,1,-3,-3,-1,-3
1470243627241531,-5,-53,-10,-2,2,-1,-1,-1
1470243627241531,6,47,-2,10,0,2,1,3
1470243627258078,0,-15,27,6,1,-2,-3,-2
1470243627258078,-3,-8,7,2,0,-2,-3,-2
1470243627259549,-3,-15,-69,0,-5,0,-3,-2
1470243627259549,0,-14,19,-21,1,-1,0,-1
1470243627288108,-4,4,-17,17,1,-2,-2,-2
1470243627288108,-2,7,23,-6,4,2,0,-2
1470243627289576,1,14,-13,-5,-3,-2,0,0
1470243627289576,-1,-12,12,-2,-3,-5,-5,-3
1470243627295121,2,19,0,-1,-1,1,2,2
1470243627295121,-4,12,4,4,-2,-4,-3,-3
1470243627301613,-4,-32,-37,-4,-1,-3,-2,-2
1470243627301613,2,21,-3,3,-1,-3,-2,0
1470243627317545,-4,-17,-2,-19,0,0,0,0
1470243627317545,-3,9,19,12,-5,-2,-3,-4
1470243627325546,1,12,7,-8,0,-1,0,1
1470243627325546,-6,-21,7,2,-2,-1,0,-1
1470243627340589,2,4,1,-2,-7,-3,-2,-2
1470243627340589,1,-18,-25,-6,2,1,1,1
1470243627342060,-4,-2,30,11,0,-2,-2,-1
1470243627342060,1,8,11,4,-1,-1,0,0
1470243627355125,0,0,-10,-6,-1,-2,0,-1
1470243627355125,3,-23,5,1,1,-1,0,2
1470243627361613,-2,-3,-1,-19,-3,-2,-1,-3
1470243627361613,3,16,19,6,3,0,-1,0
1470243627378127,-9,-50,-5,14,-4,1,-2,-2
1470243627378127,6,20,-4,-2,5,2,1,2
1470243627379594,-3,18,-8,-10,1,0,-2,-3
1470243627379594,-1,0,40,0,-3,0,1,1
1470243627400689,5,26,19,10,-4,-2,-1,1
1470243627400689,-7,-30,-23,3,-2,0,-4,-3
1470243627402114,2,-5,-18,-7,0,-1,-2,-3
1470243627402114,-3,-25,0,-8,-2,-2,-1,-2
1470243627414225,1,25,10,5,1,-1,-1,1
1470243627414225,-2,-2,-21,8,2,-2,-1,-2
1470243627423181,2,21,3,-26,-3,0,1,1
1470243627423181,-1,20,-1,0,-1,-2,-3,-2
1470243627438219,3,-8,-16,-1,0,0,0,2
1470243627438219,-1,-10,-22,10,-3,-2,-1,-1
1470243627439654,0,4,25,4,2,-2,-1,0
1470243627439654,-1,-13,-15,-8,-2,-3,-1,-2
1470243627460735,-6,-19,1,-8,-4,-2,-1,-5
1470243627460735,-9,-38,26,-2,0,-1,0,0
1470243627462169,-6,-39,-41,10,-1,0,-1,0
1470243627462169,0,-6,-7,1,0,0,0,-1
1470243627474214,0,12,-11,-2,-1,-1,0,-1
1470243627474214,2,3,-21,-16,-3,-1,-1,-2
1470243627483187,0,-1,22,3,-1,-2,0,-1
1470243627483187,-3,0,-23,-9,-2,0,0,-2
1470243627498265,-5,-29,-19,-1,-1,0,-1,-2
1470243627498265,1,25,44,3,-3,0,0,0
1470243627499702,-1,15,-8,11,-1,-2,0,-1
1470243627499702,-1,10,11,-26,1,0,-1,-2
1470243627520725,0,15,3,10,1,-1,0,-1
1470243627520725,-3,-41,0,-6,2,1,0,1
1470243627522223,-2,-8,8,20,1,0,0,0
1470243627522223,1,13,32,4,-1,-3,-2,-1
1470243627534235,-2,-1,-31,-10,-2,-2,0,-1
1470243627534235,-1,5,2,-12,-1,-2,0,-1
1470243627543265,-2,5,2,4,0,-1,-1,1
1470243627543265,-3,-5,-24,-5,-5,-2,-3,-1
1470243627558255,1,-12,-4,-3,0,0,-1,0
1470243627558255,0,16,13,4,1,-2,-2,-2
1470243627559788,-3,-14,-4,-7,-4,0,0,-3
1470243627559788,0,4,-4,2,1,-1,-1,-2
1470243627580795,-3,8,12,3,0,-2,-3,0
1470243627580795,-4,-18,-9,-3,-5,-3,0,0
1470243627582280,-1,-10,-6,-10,-2,-1,-2,-2
1470243627582280,-5,-14,-26,-3,-1,-2,-3,-3
1470243627594291,3,12,-1,2,0,-1,0,0
1470243627594291,-2,17,-24,-12,-5,0,-1,-2
1470243627603295,1,1,-6,14,1,-1,-3,-2
1470243627603295,3,2,20,7,-1,0,1,1
1470243627617864,-4,-12,-28,-10,7,2,-1,-2
1470243627617864,3,35,0,0,-1,-1,-1,-1
1470243627624315,3,15,8,-14,-5,-1,-2,0
1470243627624315,2,8,38,30,2,0,-1,2
1470243627640829,-2,9,-1,-16,-6,-3,0,-2
1470243627640829,-1,8,22,-10,-5,-4,-2,-1
1470243627642369,0,16,-9,0,0,-1,0,0
1470243627642369,1,-5,-3,1,2,0,0,1
1470243627654359,0,9,21,8,-2,1,-1,-2
1470243627654359,-4,6,-48,6,-1,-2,-2,-2
1470243627663350,2,10,55,-7,1,0,0,0
1470243627663350,1,45,-4,5,1,0,0,0
1470243627678362,0,-5,-4,-17,-3,1,0,0
1470243627678362,2,1,10,10,-3,-1,0,1
1470243627680365,0,21,-2,2,3,-1,-3,0
1470243627680365,-5,-23,-2,-9,-3,-1,-2,-3
1470243627700963,1,-4,-15,22,1,-1,-2,0
1470243627700963,2,17,-2,-8,1,0,-1,-1
1470243627702389,2,-23,-39,-1,-1,-1,0,0
1470243627702389,-8,-8,-22,-9,-1,-3,-1,-3
1470243627714398,3,8,13,8,0,-1,0,1
1470243627714398,-6,-18,-13,-7,-4,-2,-2,-3
1470243627730910,-2,3,-33,-8,1,-1,-2,-2
1470243627730910,0,3,-13,1,-2,0,-1,-1
1470243627738416,0,24,9,-4,0,-2,1,0
1470243627738416,0,13,8,3,0,-1,-2,-1
1470243627739918,-1,-25,22,19,-3,-1,0,0
1470243627739918,-5,-27,-55,-41,-6,-3,-2,-4
1470243627760953,-1,0,-5,0,1,0,-1,-1
1470243627760953,-3,-6,-14,4,1,-2,0,0
1470243627761938,-3,23,9,14,-2,-2,0,-2
1470243627761938,2,5,-8,-3,-1,-1,-2,-3
1470243627774451,2,-17,44,9,1,2,0,0
1470243627774451,-1,7,-8,-14,-7,-1,-4,-2
1470243627782957,-3,-21,9,0,2,0,-1,0
1470243627782957,-5,1,-20,4,-3,-2,-1,-1
1470243627797972,-5,-1,-11,-7,-5,-5,-3,-3
1470243627797972,2,-11,0,-4,-1,0,2,-1
1470243627799473,-3,-10,-14,1,1,-2,-1,-1
1470243627799473,-2,4,-7,-4,1,2,0,-3
1470243627821004,-3,-27,-14,-2,-3,-1,-1,-2
1470243627821004,0,-27,21,7,0,1,1,2
1470243627821991,-1,-13,-7,-17,-9,-5,-2,-4
1470243627821991,0,7,12,10,10,1,-1,1
1470243627843518,2,4,70,5,-2,-1,-1,-1
1470243627843518,-1,-23,-52,-8,-2,-1,-2,0
1470243627844547,3,19,36,-5,-1,1,1,1
1470243627844547,-1,-17,5,3,0,0,-2,0
1470243627857528,4,19,16,2,-1,-3,-1,0
1470243627857528,-1,-3,2,13,1,-1,-1,-2
1470243627864529,-1,1,-10,-7,2,0,0,-1
1470243627864529,-2,-3,12,-13,-8,-2,-4,-2
1470243627880544,0,8,-1,11,2,-1,-1,0
1470243627880544,-5,9,-32,-22,-12,-8,-9,-6
1470243627882046,-1,4,1,-8,-1,2,-1,-1
1470243627882046,2,2,31,21,3,-2,0,1
1470243627903064,2,33,46,-9,0,1,-1,0
1470243627903064,1,10,-48,-11,-1,-2,-1,-1
1470243627905067,-6,-15,-21,3,-11,-5,-5,-5
1470243627905067,4,8,34,13,15,5,1,0
1470243627918078,-4,-6,-38,-19,-8,-7,0,-1
1470243627918078,1,7,27,24,7,5,0,0
1470243627919580,-1,2,-24,-17,2,-6,2,0
1470243627919580,0,-8,12,8,-16,-1,-1,1
1470243627941099,-6,-18,-61,-18,4,-1,-3,-1
1470243627941099,-1,-3,22,2,4,1,3,2
1470243627942632,-2,4,2,7,5,0,-3,-3
1470243627942632,-4,-6,0,5,-5,-5,-1,-3
1470243627963118,4,2,23,-17,-2,2,2,-1
1470243627963118,-5,-14,-3,10,-3,-2,1,0
1470243627965120,0,10,9,9,3,2,-1,1
1470243627965120,0,1,-14,-18,0,-2,-1,-2
1470243627978136,-2,-3,-14,-3,-7,0,-3,-1
1470243627978136,-1,-3,38,3,0,-4,0,-1
1470243627985645,-4,-10,-5,-7,0,0,-1,-1
1470243627985645,0,3,8,-3,-7,-2,-1,1
1470243628000652,-3,-13,-33,7,7,-4,-2,-3
1470243628000652,3,-3,10,-2,-5,1,2,1
1470243628002200,-1,-2,8,-3,2,-2,0,1
1470243628002200,0,-5,0,0,-2,0,0,1
1470243628023172,-4,-7,-11,-1,-7,-3,0,-2
1470243628023172,-1,-3,-31,-9,-12,-5,-5,-4
1470243628024673,3,3,-1,4,15,1,2,0
1470243628024673,0,-7,-9,6,-2,-4,-1,0
1470243628036708,-2,0,-1,-2,1,3,-1,0
1470243628036708,-1,3,1,-7,-3,-9,-2,1
1470243628045693,-2,-6,-1,14,-7,0,0,2
1470243628045693,-6,-30,-2,-5,-1,-2,-3,-1
1470243628068223,-3,-2,-3,11,11,5,1,0
1470243628068223,1,6,15,9,2,0,0,-2
1470243628069714,2,0,1,-14,-10,-4,-3,0
1470243628069714,-2,2,-10,-6,5,0,2,-3
1470243628091261,-2,-8,-17,3,-8,-5,0,-1
1470243628091261,-1,3,14,-10,6,3,0,-1
1470243628092734,-1,1,8,3,13,4,-1,-2
1470243628092734,-4,-4,-19,5,-6,-2,-1,-3
1470243628096741,-4,-6,-11,-17,-5,-2,-2,0
1470243628096741,-1,2,1,9,0,1,-3,-1
1470243628105746,-1,-4,-8,-20,-10,-3,-5,-2
1470243628105746,-1,8,11,-15,2,-2,0,-1
1470243628120763,1,0,3,8,6,4,0,-1
1470243628120763,0,0,7,-4,-4,-3,-1,0
1470243628122261,-5,-8,3,5,0,-2,2,-1
1470243628122261,1,10,11,-3,-3,1,-3,-1
1470243628143284,-1,-7,-15,9,-12,-9,-3,-3
1470243628143284,1,0,13,-9,10,6,3,0
1470243628144782,-1,-3,5,21,1,0,-3,-1
1470243628144782,-2,0,-18,-1,3,-2,3,0
1470243628156806,1,-2,-3,-4,12,6,0,-1
1470243628156806,-2,-4,-5,0,-4,-3,-1,1
1470243628165802,-2,-1,0,-7,-5,-3,-3,-1
1470243628165802,1,-6,-7,1,-4,-3,-5,-2
1470243628180818,-2,0,6,5,-10,-4,-2,-1
1470243628180818,-1,1,-15,-3,-4,-8,0,0
1470243628182315,0,-4,-18,-12,10,12,4,-2
1470243628182315,-2,1,-1,3,-4,0,2,-1
1470243628202358,-3,-10,13,2,3,-1,-1,-1
1470243628202358,0,8,13,10,4,3,1,0
1470243628218872,1,7,-13,3,-16,-12,-2,-2
1470243628218872,2,3,14,8,7,3,0,1
1470243628219874,-2,8,-11,-7,0,3,2,-1
1470243628219874,1,-1,6,7,1,-1,0,1
1470243628226356,-1,4,11,6,-4,-2,-2,1
1470243628226356,-2,-8,-18,-14,2,2,-1,1
1470243628240867,3,-3,9,-2,-9,-6,-2,0
1470243628240867,-3,9,-2,2,9,2,-3,-1
1470243628242376,-1,-1,3,-5,0,1,1,-1
1470243628242376,1,0,-22,-1,-5,0,0,-1
1470243628263387,-4,-5,6,9,-1,-2,-3,-1
1470243628263387,-1,-7,0,-9,-5,0,-1,-2
1470243628264889,-3,-14,8,6,-2,-1,-2,-3
1470243628264889,-3,-4,-26,2,0,2,-2,-1
1470243628276902,1,0,-4,-13,-3,-1,-2,1
1470243628276902,-1,-3,-3,-5,-3,0,0,0
1470243628285911,-1,5,20,9,0,1,0,-2
1470243628285911,-2,-6,-19,-15,-10,-6,-2,0
1470243628300435,1,2,-1,9,-1,-3,-2,-1
1470243628300435,0,-7,-23,-1,12,6,-1,-2
1470243628301955,-2,-4,0,-14,-7,-3,-3,0
1470243628301955,-5,0,23,3,-9,-6,0,-1
1470243628322941,-2,-10,-11,-8,13,1,0,1
1470243628322941,-1,2,-5,-13,-15,-7,-3,-1
1470243628324443,-4,-5,13,5,9,-1,-1,-1
1470243628324443,-5,-8,-72,-4,0,8,-1,-2
1470243628336954,1,4,22,9,4,-3,1,1
1470243628336954,-2,-1,11,5,-2,2,0,0
1470243628345964,-3,-4,-11,4,-6,-3,-1,-1
1470243628345964,1,2,13,-11,-2,-2,-3,-1
1470243628360476,-4,-6,4,-6,-5,-4,-2,-5
1470243628360476,-3,-1,-7,1,5,0,2,-2
1470243628362477,3,6,-12,-4,-4,-3,0,0
1470243628362477,-1,-3,17,10,0,-4,-1,-2
1470243628382996,-2,5,-11,-12,-7,-1,-1,1
1470243628382996,-2,1,17,0,-3,-1,0,-1
1470243628384501,0,-4,-20,6,8,3,-1,2
1470243628384501,-3,-2,16,-9,-3,-4,0,-1
1470243628397008,-1,3,-5,4,5,1,-3,-1
1470243628397008,0,-9,-3,-11,-12,-5,-2,-2
1470243628405516,-1,-7,-19,-11,-2,3,-1,-1
1470243628405516,-2,1,15,16,11,2,0,-1
1470243628420529,-1,-9,4,-7,-10,-5,-3,1
1470243628420529,-1,11,-6,16,-2,-3,-3,-2
1470243628422030,-1,5,-20,-11,-3,-4,-1,-1
1470243628422030,0,-6,32,-16,4,1,0,-1
1470243628443082,-3,-1,-20,-1,-6,4,0,0
1470243628443082,-1,-1,16,-4,-7,-4,-2,-1
1470243628444550,-1,-2,-2,5,1,-3,-2,-2
1470243628444550,1,5,-8,3,-4,-6,-3,-4
1470243628457119,1,10,-3,3,-2,0,-1,-3
1470243628457119,-3,-7,-10,-20,-6,0,-3,-1
1470243628465571,-2,-1,-3,4,3,1,0,-3
1470243628465571,-2,-10,-6,1,0,-3,0,-1
1470243628480616,0,-8,-4,-5,13,6,0,1
1470243628480616,1,1,0,2,-1,-3,-2,-3
1470243628482101,-2,6,1,1,-3,-2,0,0
1470243628482101,-3,5,9,5,-4,-2,-1,0
1470243628503146,3,-3,-9,-9,-5,-3,-1,0
1470243628503146,-16,-3,5,12,10,-1,-2,-2
1470243628504626,-1,-3,2,-13,2,0,3,0
1470243628504626,1,1,16,0,-4,4,0,1
1470243628517118,3,4,-2,3,-3,-5,-2,-1
1470243628517118,-2,-21,-13,0,-4,-2,0,-3
1470243628531654,1,10,13,-1,-7,-3,-2,-3
1470243628531654,1,14,-8,-2,0,-1,0,-1
1470243628540636,0,-1,0,2,-2,-2,-1,-3
1470243628540636,0,-18,-5,2,9,2,1,1
1470243628542139,-3,0,5,-4,-8,-4,-3,-3
1470243628542139,0,-3,-27,-2,-3,-3,-3,-3
1470243628563160,-4,2,11,-6,2,1,0,-3
1470243628563160,2,-2,-26,-14,-2,2,1,2
1470243628564658,3,-3,32,25,-14,-8,-1,1
1470243628564658,-6,-6,-10,-18,-9,2,-1,0
1470243628576702,-2,-3,1,10,20,7,3,1
1470243628576702,4,5,1,-5,-7,-8,-1,1
1470243628585681,-16,-9,-13,-9,-4,4,0,-2
1470243628585681,1,2,8,1,-10,-11,-3,-1
1470243628599189,-2,2,-9,2,-8,0,-2,-2
1470243628599189,5,5,3,9,15,8,2,-3
1470243628607697,2,-1,-5,-12,4,2,0,1
1470243628607697,-3,-3,18,5,1,-3,-1,0
1470243628622710,-3,-8,-18,-10,-9,-6,0,-2
1470243628622710,-2,5,6,8,-1,-3,-1,-1
1470243628623214,2,-4,0,0,-1,-3,-1,-2
1470243628623214,-2,0,0,7,1,7,-2,-3
1470243628645268,1,0,3,-8,5,-1,-1,0
1470243628645268,-3,3,8,-5,0,-1,-1,-2
1470243628645732,0,-6,-15,-4,0,-2,-4,-2
1470243628645732,4,3,-2,-6,0,3,1,0
1470243628659273,-1,0,4,11,-9,-4,0,1
1470243628659273,-1,1,-2,-15,4,3,-1,1
1470243628667751,0,-10,3,2,0,-2,-2,-1
1470243628667751,2,4,22,18,8,-1,0,0
1470243628682859,-5,-9,-31,-13,-13,-8,-3,-1
1470243628682859,-1,-5,0,18,8,8,-1,-2
1470243628683265,0,1,-7,4,2,0,0,0
1470243628683265,0,1,3,2,-8,-6,0,-1
1470243628705285,0,1,13,-1,5,-1,0,-1
1470243628705285,1,-1,-11,-10,-9,-6,-2,-1
1470243628705795,0,4,5,-4,0,-3,-1,-2
1470243628705795,-2,-8,-12,3,5,2,0,-2
1470243628719328,1,6,-1,-9,-1,0,0,-1
1470243628719328,-1,-13,-1,-7,-5,-2,0,-2
1470243628727311,0,8,1,6,5,1,-3,-1
1470243628727311,-1,-4,-7,-2,3,0,1,0
1470243628742334,-4,-9,10,8,-1,-1,0,-3
1470243628742334,-2,8,-3,-8,-34,-12,-2,-1
1470243628743318,3,1,32,-10,25,12,2,0
1470243628743318,-8,-24,-16,-1,-12,-7,-3,-5
1470243628764839,-2,4,21,-8,-9,-4,-2,-1
1470243628764839,-1,3,-7,7,0,-3,-4,-3
1470243628765839,2,3,4,1,1,0,0,2
1470243628765839,3,14,-2,-13,-1,2,-3,-1
1470243628779351,-1,-14,-1,22,11,-2,1,0
1470243628779351,-3,-5,1,-7,-10,-5,-1,-2
1470243628787358,1,-1,-8,-4,-5,3,0,-1
1470243628787358,0,-3,-3,-7,4,-3,-2,0
1470243628802371,-4,1,-11,-15,-7,-2,-2,-1
1470243628802371,3,3,5,0,8,1,0,0
1470243628803386,-5,-4,-15,-4,-12,-5,-2,-3
1470243628803386,0,2,4,1,4,1,2,0
1470243628824921,3,2,3,4,4,-1,-1,-1
1470243628824921,0,0,2,2,5,1,1,0
1470243628825893,2,-3,-3,0,-20,-6,0,1
1470243628825893,-1,0,-5,4,21,1,-1,-2
1470243628839405,-2,4,1,-2,-2,1,-2,-1
1470243628839405,0,-3,-3,-1,4,11,0,-1
1470243628847447,0,0,-9,5,-4,-7,0,1
1470243628847447,-2,-1,5,0,-9,-5,-2,0
1470243628862427,2,4,-1,-2,-4,-2,0,-2
1470243628862427,-3,-8,11,2,7,5,-1,-1
1470243628862926,-1,6,2,-4,1,-2,0,-1
1470243628862926,-4,-2,-32,-6,-4,-1,-2,2
1470243628884961,-1,-2,10,4,2,-1,0,-3
1470243628884961,-3,1,5,3,-9,-7,-1,-2
1470243628885448,0,-3,-4,1,-4,-2,-2,-2
1470243628885448,3,6,12,-4,8,4,1,-1
1470243628899541,-3,-3,-18,2,-3,2,-1,0
1470243628899541,-2,0,-8,-4,3,-2,-2,0
1470243628907494,-2,-1,0,0,-7,-3,-2,0
1470243628907494,0,-3,2,4,0,-1,-1,2
1470243628922502,0,-2,0,2,-8,-2,-2,0
1470243628922502,-2,-2,-4,-7,3,-3,-1,0
1470243628922982,-1,-4,-15,-9,0,-2,-1,-2
1470243628922982,0,0,19,8,-10,4,-2,-1
1470243628945001,-3,5,-13,-10,9,2,1,-1
1470243628945001,-1,2,-6,6,0,-2,-2,0
1470243628945501,1,-9,16,-3,2,0,-2,-2
1470243628945501,-5,-1,-13,-2,-10,-9,-4,-3
1470243628959552,3,2,6,0,0,5,-2,-1
1470243628959552,0,4,-4,-2,5,3,0,1
1470243628967521,-3,-4,-10,3,-8,-2,-2,-1
1470243628967521,1,0,-4,-3,7,-1,1,0
1470243628982534,-3,1,19,1,3,0,-3,-2
1470243628982534,-1,-5,-16,-13,-15,-6,0,-3
1470243628983034,-3,-1,2,13,1,2,0,-2
1470243628983034,-1,-5,-1,4,1,0,-3,-3
1470243629005054,-1,-1,-8,0,0,-2,0,-1
1470243629005054,0,-1,2,2,-1,0,-1,-2
1470243629005554,-3,-1,-3,-4,-3,-1,1,-1
1470243629005554,-2,1,0,-9,-6,-4,-3,-1
1470243629019088,-2,-5,-9,5,-5,2,-2,-2
1470243629019088,3,1,7,0,5,-1,1,-1
1470243629027639,-1,4,-2,-3,3,1,-2,-1
1470243629027639,-2,-2,-2,1,0,-2,1,0
1470243629042588,0,-3,1,2,-8,-6,-2,-2
1470243629042588,-1,-1,-3,-4,1,-2,-3,0
1470243629043096,-1,8,-9,-14,6,5,0,-1
1470243629043096,-2,3,7,26,16,3,2,0
1470243629065174,-4,-5,-15,-42,-15,-6,-4,-3
1470243629065174,2,2,-2,3,-7,-9,-3,-2
1470243629065608,3,4,11,14,26,13,8,3
1470243629065608,-1,-6,-3,-9,-15,-3,-2,-1
1470243629088175,-1,-2,-8,10,9,2,-2,0
1470243629088175,-1,-2,-3,-19,-17,-7,-3,-1
1470243629088656,-1,-3,21,15,-12,-11,-5,-2
1470243629088656,0,1,-5,-14,7,9,5,-1
1470243629102643,-3,-4,-5,16,7,2,1,0
1470243629102643,-3,-2,-17,-9,2,0,-1,-2
1470243629103142,0,-4,-4,-11,-9,-5,-5,-1
1470243629103142,0,1,-2,23,-9,-10,-1,-4
1470243629124663,4,3,3,-33,19,6,1,0
1470243629124663,3,-1,4,38,26,15,6,2
1470243629125664,-10,-7,-10,-10,-1,-3,0,-1
1470243629125664,-4,1,4,3,-10,-5,-5,-2
1470243629139187,-1,-4,-3,-15,-13,-8,-3,-3
1470243629139187,-1,-1,0,13,-2,-2,-1,0
1470243629147682,3,3,2,-10,0,0,-1,-3
1470243629147682,1,-8,0,-8,-5,-1,-2,-2
1470243629162695,-1,8,-19,11,-5,0,-1,-1
1470243629162695,-2,-22,30,-6,-4,-5,-5,-1
1470243629163197,-3,-2,-6,-1,-2,0,-3,1
1470243629163197,-1,4,0,-9,-2,0,0,-2
1470243629184776,-1,-6,-6,5,-2,-2,0,0
1470243629184776,-2,10,3,-2,0,0,-1,-2
1470243629185716,-1,-1,-8,-5,-5,-1,0,-1
1470243629185716,0,-5,1,-9,-8,-3,-1,0
1470243629199228,2,-3,11,15,11,5,4,0
1470243629199228,-2,1,-4,5,8,6,1,-1
1470243629207736,-2,-5,8,15,4,-3,0,-2
1470243629207736,0,2,-5,-13,-8,0,-3,0
1470243629222265,-3,-7,-1,1,-8,-6,-3,-2
1470243629222265,0,7,-6,-13,-9,-2,-2,-2
1470243629223252,1,2,-1,-9,-19,-4,-3,-1
1470243629223252,6,2,6,19,17,7,-1,-1
1470243629244802,1,1,8,-11,-24,-10,-2,-1
1470243629244802,3,4,-4,-8,11,9,4,0
1470243629245770,-4,-3,1,15,19,1,1,-1
1470243629245770,-5,-3,-15,5,1,-2,-1,-1
1470243629259328,0,1,29,-2,-15,-8,-4,-3
1470243629259328,7,-1,16,-4,-17,-4,-2,0
1470243629267813,9,3,-20,-5,3,2,0,2
1470243629267813,-5,-8,-4,4,1,0,0,-1
1470243629282348,-14,4,9,4,18,9,4,1
1470243629282348,11,0,-7,3,-9,-11,-4,0
1470243629283343,-19,-14,4,-8,-5,0,-4,-9
1470243629283343,7,4,11,-3,2,0,2,0
1470243629304854,2,0,-2,-3,-5,-1,-2,-2
1470243629304854,-3,4,6,-3,-6,-5,-1,-1
1470243629305834,5,8,2,7,1,1,0,2
1470243629305834,-18,-9,-14,-14,-13,-5,-2,-3
1470243629319884,5,-3,5,5,32,8,-1,-2
1470243629319884,-5,-5,-18,-3,-3,-3,0,-1
1470243629320837,-1,2,11,7,-2,-3,0,1
1470243629320837,2,4,1,-3,0,0,0,2
1470243629342394,0,-2,-20,3,-2,1,1,2
1470243629342394,-6,-6,8,1,3,-2,-3,-2
1470243629343357,-2,2,3,-5,-2,-4,-2,-2
1470243629343357,3,2,-26,-6,-9,-1,0,-1
1470243629364906,-8,-2,-6,8,7,2,1,1
1470243629364906,2,-15,-28,-11,-2,3,-1,-4
1470243629365877,-7,0,-4,-12,-10,-5,-3,-1
1470243629365877,-1,-2,4,-8,-2,-2,-3,-4
1470243629379390,1,-2,8,5,-10,-8,-3,-2
1470243629379390,-2,2,-4,9,6,5,2,-1
1470243629387396,4,1,-6,-5,-4,-2,0,-1
1470243629387396,-1,-4,0,-2,3,0,3,-1
1470243629402454,-3,-5,-16,-1,-5,-3,-7,-3
1470243629402454,-5,2,14,-5,-3,-5,7,-2
1470243629402915,3,-2,-4,-4,-26,-8,-1,-2
1470243629402915,-2,0,-14,-2,26,7,-2,1
1470243629424953,1,-2,10,4,-2,3,13,-2
1470243629424953,-1,2,4,1,-3,2,-13,1
1470243629425432,0,-1,12,7,5,-5,-6,-3
1470243629425432,2,0,24,1,-9,-5,2,2
1470243629439444,-1,-5,-17,-20,-9,-7,-10,-5
1470243629439444,-5,-2,3,-2,-11,-8,1,-2
1470243629447452,3,0,2,8,27,14,5,3
1470243629447452,-1,-5,-11,-3,-13,-8,-8,-4
1470243629462467,3,1,11,6,11,1,-3,0
1470243629462467,0,2,3,-1,-6,0,-3,-1
1470243629462967,0,-7,-7,-12,-8,-4,-3,-4
1470243629462967,-1,3,4,-5,-3,-1,-1,-3
1470243629485028,-3,-1,0,9,-4,1,0,0
1470243629485028,-2,-1,-8,-3,5,-6,-4,-1
1470243629485487,6,1,-2,-1,1,9,16,1
1470243629485487,-3,-2,6,2,2,-8,-48,-3
1470243629499539,-2,-1,-10,-3,-11,15,0,-3
1470243629499539,-1,-1,6,0,6,-12,5,-1
1470243629507573,0,-2,-19,-5,6,16,9,2
1470243629507573,-2,-2,8,-4,-7,0,2,2
1470243629522551,-3,1,6,-2,-5,-24,2,-3
1470243629522551,-4,-2,-2,7,6,4,-5,-2
1470243629523020,-4,-2,-9,-6,-7,-5,11,-7
1470243629523020,1,-1,-13,2,6,13,40,3
1470243629545082,2,1,5,-3,-2,-10,-26,-2
1470243629545082,-5,-6,-4,-1,3,5,6,-1
1470243629545539,-5,-2,0,0,-9,-27,7,-6
1470243629545539,4,4,6,-1,4,11,37,5
1470243629569560,-6,-3,-4,-4,-6,-12,-55,-10
1470243629569560,-2,1,2,3,4,17,18,5
1470243629570562,0,1,-2,-2,-2,-9,-34,2
1470243629570562,1,0,-1,1,-2,-1,6,-1
1470243629582572,0,0,3,1,-4,3,3,-1
1470243629582572,0,0,-6,-9,-4,4,9,-2
1470243629583573,0,-1,2,1,-1,3,-28,-1
1470243629583573,-3,-1,0,-7,-1,-2,8,-4
1470243629605107,1,-3,-3,1,-1,1,6,2
1470243629605107,0,0,-3,0,-3,-2,-20,-4
1470243629605593,0,0,-2,0,0,-4,3,2
1470243629605593,-2,-1,0,-4,-2,1,-16,-3
1470243629619106,-1,-1,-3,-3,-2,12,24,4
1470243629619106,-1,0,7,4,-5,-14,-1,-1
1470243629627612,-2,-1,-8,-3,3,3,4,1
1470243629627612,-2,-3,-7,-17,-2,-3,-19,-2
1470243629642626,0,1,14,5,-2,1,7,-2
1470243629642626,0,2,0,1,-6,-3,0,-3
1470243629643127,-1,-3,-9,-1,-2,0,-18,-2
1470243629643127,-2,0,10,4,-2,-4,13,-2
1470243629665148,1,-2,-25,-4,-3,-2,2,4
1470243629665148,1,-2,5,-4,-1,2,-11,-2
1470243629665664,-1,2,11,9,1,3,6,-3
1470243629665664,-1,-2,-10,-2,0,-9,-21,-1
1470243629688237,0,0,9,4,2,3,38,-1
1470243629688237,0,-1,-25,-5,8,7,-8,0
1470243629689190,-1,-2,0,-7,1,-1,-34,2
1470243629689190,-2,-1,7,5,-6,0,7,0
1470243629702735,0,2,4,-2,-1,-3,-1,-1
1470243629702735,-1,-2,-7,-3,0,-8,3,-2
1470243629703180,0,-3,0,-3,-7,-1,5,-2
1470243629703180,0,0,10,4,2,5,50,1
1470243629725200,-1,-1,-5,-2,1,5,-82,-2
1470243629725200,5,1,3,2,2,5,11,1
1470243629725701,-15,-3,-4,-3,-4,-14,20,-3
1470243629725701,3,0,1,1,-2,7,-51,-4
1470243629748221,-3,-4,-2,-2,0,-10,40,0
1470243629748221,6,0,2,-5,-3,4,7,1
1470243629748721,0,0,3,5,3,-4,-6,-7
1470243629748721,-1,-4,-13,-8,-2,-8,2,3
1470243629762734,0,1,4,1,1,-3,-2,1
1470243629762734,-6,0,0,4,-1,2,-17,-2
1470243629763236,3,0,2,1,-1,6,30,3
1470243629763236,-3,-1,-13,1,1,-6,-25,-3
1470243629785349,-1,0,10,-1,-3,9,26,-3
1470243629785349,-4,1,20,9,1,-5,19,0
1470243629785755,-1,-3,-20,-9,-2,7,-13,-2
1470243629785755,0,-1,-8,-3,-3,-10,-8,-2
1470243629808330,-2,-5,-7,-7,0,-5,-1,-1
1470243629808330,-5,0,6,0,-1,-2,-3,-3
1470243629808808,-1,0,13,3,-2,-5,-8,-2
1470243629808808,-1,-2,-11,0,0,4,13,0
1470243629822321,1,1,-7,-3,1,2,3,1
1470243629822321,-2,0,-5,-4,-1,-4,-5,-3
1470243629823289,2,-2,-2,-1,1,-2,-15,-1
1470243629823289,0,-2,4,1,0,1,10,-1
1470243629844808,-2,1,-1,1,1,-3,-6,-1
1470243629844808,1,-2,-10,-5,-2,-1,-14,1
1470243629845810,-2,-1,-4,-3,-4,-1,0,-1
1470243629845810,-4,-2,5,2,1,2,5,-5
1470243629868329,1,-1,-1,-1,-1,1,-16,-6
1470243629868329,-1,0,-2,-2,0,-3,9,2
1470243629868829,1,-1,-1,-2,-2,0,-17,2
1470243629868829,-2,-1,2,2,-1,-16,4,-3
1470243629882869,1,0,0,0,0,6,-7,5
1470243629882869,0,-2,-1,-2,-3,-2,3,-5
1470243629883843,1,-1,-2,-1,-1,5,-3,1
1470243629883843,-2,0,2,0,3,4,-5,1
1470243629904890,-1,-1,-4,-1,-5,-5,7,-4
1470243629904890,-1,-1,2,0,0,-6,-14,-1
1470243629905862,-3,-1,-2,-2,-3,-5,1,-2
1470243629905862,-2,-1,-3,-3,-3,6,-5,-4
1470243629928382,0,-2,6,2,1,-2,21,3
1470243629928382,-2,-2,-6,-4,-1,-1,0,-1
1470243629928883,0,0,2,-1,1,0,1,-2
1470243629928883,-2,-1,3,-1,-4,-4,-34,-2
1470243629942422,-3,-2,-2,-3,-4,1,-8,-4
1470243629942422,-2,-4,0,-1,-2,-7,0,0
1470243629943409,0,-4,-6,0,3,12,0,1
1470243629943409,1,1,1,1,0,-5,-1,2
1470243629964920,-1,-1,-1,-2,-1,2,6,2
1470243629964920,-1,-2,-1,-2,-3,0,1,0
1470243629965916,0,-1,0,-2,-3,-2,10,-1
1470243629965916,0,-2,1,0,-2,0,-2,-2
1470243629987992,-1,-1,-2,0,0,-1,2,-2
1470243629987992,-3,-2,-7,-2,-2,1,8,-1
1470243629988939,-1,1,3,3,0,6,-19,0
1470243629988939,1,2,-1,1,1,0,24,2
1470243630002462,-1,-4,-2,-2,-3,-10,-9,-4
1470243630002462,-2,-2,-1,-1,-2,-16,-13,0
1470243630002949,0,-2,-3,-1,-3,11,-4,-3
1470243630002949,2,0,-1,0,1,10,40,6
1470243630024982,-2,-2,3,0,0,-4,-33,-2
1470243630024982,-3,-1,-2,-1,-1,0,-13,-1
1470243630025470,-1,0,-1,-2,-4,-11,11,-1
1470243630025470,-1,-4,-2,-2,-4,-2,-17,-2
1470243630047989,0,0,-2,-2,0,4,16,-1
1470243630047989,2,-1,1,2,0,1,1,0
1470243630048991,-2,0,-3,-3,-2,-6,12,-2
1470243630048991,-2,-1,5,0,-1,-5,-15,-2
1470243630062505,-2,-1,-4,0,-1,2,19,1
1470243630062505,-2,-1,-5,-2,-2,2,-6,-4
1470243630063004,0,1,2,4,2,-5,15,-1
1470243630063004,-2,-2,-3,-4,-2,-1,-7,0
1470243630085023,0,-1,-1,-2,-1,1,-7,0
1470243630085023,0,0,0,0,-2,-2,12,-2
1470243630085524,-1,0,1,-1,-1,-4,5,-1
1470243630085524,-3,-2,-1,1,0,2,8,0
1470243630108059,-2,0,0,-1,-1,1,-24,0
1470243630108059,-1,0,-2,-2,0,1,0,0
1470243630109045,0,0,1,-2,-2,-3,0,0
1470243630109045,-1,-1,-6,-3,-3,-8,-15,-3
1470243630122557,1,1,3,2,-3,-2,16,0
1470243630122557,-1,-1,0,0,1,8,7,0
1470243630123058,-2,-3,-3,-3,0,-7,-10,0
1470243630123058,1,-1,-3,-4,-2,-2,9,-5
1470243630145077,-1,-1,-3,-1,-2,0,1,1
1470243630145077,-2,-1,4,3,-1,2,-29,-2
1470243630145578,-2,1,1,1,0,-1,9,1
1470243630145578,0,0,-3,0,1,-1,-6,0
1470243630168114,1,-2,-3,-2,-1,-4,12,-1
1470243630168114,-2,-1,1,-3,-1,2,-2,-2
1470243630168598,-2,-3,1,-2,-3,-6,-12,-2
1470243630168598,-2,-1,-1,0,-1,4,7,1
1470243630182611,0,0,1,0,-1,4,-12,-2
1470243630182611,2,0,-2,0,0,-4,29,4
1470243630183112,-1,-4,-2,-4,0,-7,-31,-1
1470243630183112,-1,-1,1,-1,-1,4,-1,0
1470243630205131,-2,-2,-6,-3,0,5,3,-1
1470243630205131,-1,-2,0,1,1,-3,-2,-4
1470243630205631,0,-2,-1,-3,-2,-2,3,0
1470243630205631,0,0,1,2,0,1,0,-2
1470243630228165,-3,-2,-4,-3,-2,-5,4,2
1470243630228165,0,1,-1,-2,-3,2,-9,1
1470243630229153,0,-2,2,-1,-1,2,5,4
1470243630229153,-6,-3,0,-2,-3,-4,-13,-9
1470243630242665,1,-1,2,0,0,-3,6,0
1470243630242665,-1,-1,-2,-1,-1,-5,1,-2
1470243630243167,-1,0,0,2,-1,-1,6,-2
1470243630243167,-1,-2,-2,-1,0,2,4,1
1470243630265184,-2,-1,-1,0,0,-4,-5,-1
1470243630265184,-1,-2,-1,-3,-1,-6,-1,-1
1470243630265686,0,0,-3,0,0,6,20,0
1470243630265686,1,-2,-2,-2,-1,-1,-36,1
1470243630288206,-1,-1,2,0,0,-4,4,1
1470243630288206,-1,-2,2,-2,-3,-2,-21,-1
1470243630288706,-1,0,-7,-1,0,6,18,-2
1470243630288706,0,-2,-2,-1,-1,-4,9,1
1470243630302233,-1,-1,-3,-3,-2,-1,-26,-3
1470243630302233,-1,-2,-3,-3,-1,2,12,-2
1470243630303221,0,0,1,-1,-3,0,-2,0
1470243630303221,0,1,2,0,-1,0,-1,0
1470243630325240,-2,-2,-11,-1,-2,-9,-7,-3
1470243630325240,0,1,3,1,1,13,9,2
1470243630325740,-1,-1,-2,-1,-1,-7,-16,-2
1470243630325740,-3,-1,-2,-3,-2,-2,19,0
1470243630349264,-3,-1,0,0,2,2,0,-1
1470243630349264,-1,-1,0,-1,0,0,12,0
1470243630349264,-1,-1,-2,0,-2,0,-4,-2
1470243630349264,1,-2,-3,0,0,0,-3,2
1470243630361779,0,1,4,1,-1,6,19,-2
1470243630361779,-1,-3,-3,0,0,-8,-31,-2
1470243630369781,0,0,-3,-4,1,3,-7,-1
1470243630369781,-3,-2,2,-2,-4,-3,4,-2
1470243630384793,-2,-1,-1,-2,-2,2,4,-1
1470243630384793,0,-1,-3,-2,-3,-4,2,0
1470243630392299,-2,-2,-3,-2,0,7,16,-2
1470243630392299,0,0,-3,0,0,-6,-8,0
1470243630408314,-1,-1,3,0,-2,2,-3,0
1470243630408314,-5,-4,-4,0,-1,-2,-1,-4
1470243630408815,-2,-1,-2,-3,-2,-3,-4,0
1470243630408815,-1,1,2,0,1,4,8,-1
1470243630421826,1,-2,-1,-1,2,-4,-3,0
1470243630421826,1,-2,-4,0,0,0,22,-1
1470243630429833,0,-1,0,-2,-1,3,-11,1
1470243630429833,-1,-2,3,-2,-2,-7,-3,-4
1470243630444849,-3,0,0,-1,-3,-2,4,-2
1470243630444849,0,2,1,-1,-1,0,-8,0
1470243630445847,-3,-2,-3,-3,-2,-4,5,-2
1470243630445847,1,-1,-1,-2,-1,-2,-6,0
1470243630468369,-3,-2,3,0,-1,4,-4,-1
1470243630468369,-3,-3,-4,-1,-1,-4,5,1
1470243630468868,-1,-1,1,-2,-3,-1,9,-3
1470243630468868,-3,-1,-1,-2,0,-1,-15,-2
1470243630481879,1,-1,-4,-1,-1,-1,4,-2
1470243630481879,0,-2,0,0,-1,-2,-8,-4
1470243630489913,2,0,-2,0,-1,-7,-2,0
1470243630489913,2,-2,-2,0,1,19,23,2
1470243630504917,-3,-2,-2,-1,-1,-4,-26,-1
1470243630504917,-1,0,2,0,-1,-2,-3,0
1470243630505901,0,-3,-1,1,-1,-2,-5,-1
1470243630505901,1,0,0,-1,-3,-2,-4,-1
1470243630528468,-3,0,-5,-1,-4,-1,9,-4
1470243630528468,-2,-2,0,-2,-1,0,-7,-1
1470243630528923,-1,-11,-3,-1,-1,1,-14,-2
1470243630528923,0,17,1,1,2,0,5,-1
1470243630541934,0,0,-1,-2,0,-1,6,0
1470243630541934,-1,-3,-1,-2,-2,0,-13,0
1470243630549941,-2,-2,0,-3,-1,0,-9,-4
1470243630549941,-3,-4,-1,1,-2,-6,0,0
1470243630564958,0,0,-1,0,3,2,-1,0
1470243630564958,-1,1,-2,-3,-2,2,2,0
1470243630565456,1,2,1,-2,-3,-14,-3,-1
1470243630565456,-1,-4,-1,1,1,6,-18,1
1470243630588531,-1,-3,-1,-2,-1,-4,0,0
1470243630588531,1,0,0,0,-1,2,8,-2
1470243630588992,-2,2,-1,0,1,-2,-5,0
1470243630588992,-3,-7,-4,-2,-2,-5,-1,0
1470243630602031,1,0,1,1,-1,-3,11,-2
1470243630602031,-3,-4,-1,-2,1,7,-14,0
1470243630609994,-1,3,0,-1,-2,-1,5,-1
1470243630609994,-1,-3,-2,-2,-1,-7,-8,-1
1470243630625011,-1,1,2,1,-3,9,9,0
1470243630625011,-2,-1,-1,-1,-3,-7,-5,-2
1470243630625562,-1,0,-6,2,5,9,-10,3
1470243630625562,-2,-2,-2,-3,-2,-5,-7,-1
1470243630648063,-1,-2,-4,-3,-2,1,6,-2
1470243630648063,1,1,2,-1,-3,-12,2,-1
1470243630649031,-1,0,-2,0,-1,10,14,0
1470243630649031,0,-1,-1,-1,-4,-5,-5,-3
1470243630670605,-3,-4,0,-1,-1,-3,-13,0
1470243630670605,-2,-1,-1,0,0,0,3,-1
1470243630671552,0,-1,0,1,1,0,7,0
1470243630671552,-1,-2,-2,-2,-1,0,11,-2
1470243630685152,-1,0,-2,-4,-2,-1,-30,-5
1470243630685152,1,2,2,1,-2,-2,6,-1
1470243630685562,-3,-5,2,-1,-1,-4,5,1
1470243630685562,0,-2,-2,-1,2,2,-7,-2
1470243630708130,-1,-2,-2,-2,-1,-5,9,0
1470243630708130,-4,0,-4,-3,-1,-4,-11,-4
1470243630709112,-2,-2,-1,-3,-3,-3,5,-2
1470243630709112,1,-2,-3,-1,-2,-2,-30,0
1470243630730603,-2,-5,0,-2,0,-2,1,2
1470243630730603,1,-1,-2,0,2,8,1,0
1470243630731604,-3,2,2,0,-3,-10,3,-1
1470243630731604,-3,-3,-6,-3,-1,-1,19,-3
1470243630745115,0,0,-2,0,-3,-2,9,-4
1470243630745115,-1,0,0,0,-2,-2,-15,1
1470243630745617,-1,-2,-8,-3,0,-6,-13,-4
1470243630745617,1,-1,0,-1,-1,6,11,0
1470243630768136,1,-3,-1,1,1,0,6,3
1470243630768136,-2,0,-1,-1,-4,-1,7,-2
1470243630769139,3,1,2,0,-3,1,-2,-1
1470243630769139,-3,-2,-2,1,-2,-6,-6,-3
1470243630790673,-2,-1,-2,-2,-3,-4,15,-3
1470243630790673,-2,1,1,1,1,3,-2,-3
1470243630791157,0,-3,-5,-2,-1,-3,-3,-2
1470243630791157,-1,-1,2,-1,-2,1,4,-3
1470243630805170,-1,-3,2,0,-3,-13,-2,-2
1470243630805170,0,-4,-2,-4,-1,5,7,1
1470243630805672,-3,1,0,0,0,3,13,-1
1470243630805672,0,-3,-2,-2,-2,0,0,-1
1470243630828224,-2,0,-2,-2,0,-5,-15,0
1470243630828224,0,-2,0,-1,0,-6,7,2
1470243630829193,-2,0,-1,1,1,0,6,-3
1470243630829193,-2,-3,0,1,-1,-3,-9,-1
1470243630850771,-2,-1,-2,-3,-2,-2,-10,-1
1470243630850771,-2,-3,-1,-1,-1,3,2,-1
1470243630851216,-2,-2,0,-2,-3,2,4,-1
1470243630851216,1,4,-1,-1,-1,-4,-5,2
1470243630865224,1,4,0,0,-1,-1,0,1
1470243630865224,0,-3,-4,0,-3,-6,-12,-3
1470243630865726,-2,1,-2,0,-3,-1,-1,-1
1470243630865726,-2,-10,-1,-2,-1,0,3,-3
1470243630888253,1,3,-3,0,0,6,6,-1
1470243630888253,-3,-1,-2,0,2,-5,-8,-1
1470243630888745,-2,0,0,-1,0,1,-9,0
1470243630888745,-1,-3,-1,-2,-4,-7,-5,1
1470243630910765,-2,-6,1,1,3,15,4,0
1470243630910765,-1,1,0,-1,-2,-6,5,-1
1470243630911265,1,-2,-1,-3,0,0,-10,0
1470243630911265,-3,0,-2,-2,-1,-2,3,-3
1470243630924810,2,3,-1,-1,-3,-5,-7,0
1470243630924810,-2,-1,0,-2,0,4,5,-3
1470243630925789,0,-3,0,-1,-2,-3,-7,1
1470243630925789,1,1,-2,-2,-3,3,23,-1
1470243630947299,-3,-2,1,-1,-1,-7,-32,-4
1470243630947299,-1,2,-2,-2,-1,2,0,0
1470243630955805,-2,-1,-1,-1,-3,-1,-4,0
1470243630955805,1,0,-1,1,1,0,1,0
1470243630970818,-4,0,-3,-1,-1,-11,1,-5
1470243630970818,-1,-4,-2,0,-2,-2,-4,0
1470243630971320,-1,-1,1,0,-1,-3,-4,1
1470243630971320,-1,0,1,-1,0,10,-3,0
1470243630984833,0,-4,0,-1,-1,-6,10,0
1470243630984833,0,-2,-2,-1,-1,2,4,-1
1470243630985832,-1,-1,-1,-1,0,0,1,-1
1470243630985832,1,-2,-1,0,-2,-5,-10,0
1470243631008353,-2,1,0,0,-1,3,2,-2
1470243631008353,-3,-1,-3,-1,0,-2,16,-1
1470243631008853,1,0,-1,-1,-3,1,-9,0
1470243631008853,-4,1,1,-2,1,-2,-17,-2
1470243631030873,0,-2,-2,-3,-1,0,2,0
1470243631030873,-1,-1,-1,-1,0,1,0,1
1470243631031373,-1,1,0,1,1,1,11,1
1470243631031373,-2,0,-1,0,0,-3,10,-2
1470243631044913,1,3,1,2,1,0,-6,-1
1470243631044913,-2,-7,-1,-1,-1,2,-19,-2
1470243631045887,-1,-1,-1,-1,1,-5,-4,-2
1470243631045887,2,-1,-1,-3,-3,3,10,-2
1470243631068479,-2,-1,-1,-2,-2,-3,-11,-1
1470243631068479,2,0,1,-1,-2,0,2,-2
1470243631068930,-3,-1,-2,0,0,1,3,-2
1470243631068930,-3,-2,-3,-1,0,-5,-9,-2
1470243631090965,-2,-3,0,0,-2,7,11,0
1470243631090965,0,0,0,0,2,-2,1,-2
1470243631092431,-2,-1,1,-1,-1,-4,-2,0
1470243631092431,-3,1,-1,0,0,2,-2,-1
1470243631113473,-3,-3,-6,-4,-3,4,-1,-2
1470243631113473,-2,1,0,0,-3,-14,-22,-2
1470243631114448,3,0,-2,-1,-2,1,3,-2
1470243631114448,-2,-2,0,1,0,-1,15,1
1470243631127960,0,-2,1,-1,-2,-1,-6,2
1470243631127960,0,-2,-4,-4,-1,0,3,0
1470243631129466,-2,-1,-3,-2,0,-6,-2,-1
1470243631129466,-1,-2,0,-3,-3,0,-16,-2
1470243631150523,-1,-1,0,0,1,3,16,1
1470243631150523,-2,-3,0,-1,-2,2,-4,1
1470243631151983,0,5,0,0,-3,-2,8,-2
1470243631151983,-1,1,-2,-2,0,-1,-1,0
1470243631164495,1,-1,-2,1,-1,2,2,0
1470243631164495,1,1,-1,-1,-2,-3,10,-1
1470243631173500,-3,-4,1,-3,-2,-1,-21,-2
1470243631173500,2,-2,-2,2,2,0,8,0
1470243631188029,-3,0,-3,-3,-3,-7,-20,-3
1470243631188029,1,0,-2,0,-1,4,11,1
1470243631189516,-1,-5,-2,-2,-1,-7,-14,0
1470243631189516,0,-2,-1,-2,-1,-1,3,-1
1470243631210569,0,-3,0,0,-1,-1,-4,2
1470243631210569,0,1,-3,-3,-1,-1,13,1
1470243631212037,0,-4,0,-2,-1,3,-19,-1
1470243631212037,-3,-4,-1,0,-2,-5,-10,-2
1470243631224589,2,2,0,3,-1,-1,0,-1
1470243631224589,0,1,1,0,-1,3,8,0
1470243631233059,0,-1,-1,-1,-1,-1,11,-1
1470243631233059,-3,-3,-1,1,-2,-3,4,-3
1470243631248068,2,3,-1,-3,-1,0,-14,-2
1470243631248068,0,-1,-2,-1,-3,-2,-3,-4
1470243631249569,0,-2,-2,-2,-1,1,15,0
1470243631249569,-2,-3,-2,-3,-1,0,-19,-1
1470243631270615,-2,0,1,-2,-3,-6,-3,0
1470243631270615,-2,-2,-3,-2,-2,-11,-8,-1
1470243631272089,-1,-1,-1,-2,0,8,12,-2
1470243631272089,-2,1,0,-1,-2,-4,2,-3
1470243631284601,-2,-1,0,0,-2,-2,15,-3
1470243631284601,-1,-3,2,1,-1,-1,-17,-2
1470243631293108,-1,6,-1,-2,-2,-5,1,-3
1470243631293108,0,-2,-1,1,0,1,6,-2
1470243631308149,-2,-3,-1,-2,-2,0,6,-2
1470243631308149,1,-3,2,-1,-2,-3,-10,-3
1470243631309625,-1,-5,-1,1,0,0,1,0
1470243631309625,-1,2,-3,-3,-1,7,2,1
1470243631330698,-1,0,-2,-1,-1,-8,12,1
1470243631330698,-1,-2,-1,1,2,10,-8,2
1470243631332145,0,-1,2,0,0,-1,-1,-1
1470243631332145,1,-2,-8,-2,0,-5,-2,1
1470243631344655,-5,-4,0,-1,-2,-6,-6,-1
1470243631344655,-1,3,1,-1,1,8,4,0
1470243631353162,-2,-2,-1,0,-1,0,0,-3
1470243631353162,-3,-2,1,0,0,-1,1,0
1470243631368192,2,1,0,2,0,2,2,0
1470243631368192,-2,0,-1,-1,-3,-9,-2,-2
1470243631369677,-2,1,-1,-1,-2,4,-4,0
1470243631369677,-1,1,2,-4,-3,-6,6,0
1470243631390695,1,1,-2,-3,0,2,-8,-1
1470243631390695,-5,-1,-2,-2,-1,1,-8,-2
1470243631392198,0,-2,-1,-1,0,-3,8,0
1470243631392198,-1,0,1,0,-2,-3,-3,-1
1470243631404208,0,-1,-1,1,0,-1,-1,-1
1470243631404208,-1,-6,-2,-2,-4,-2,3,-1
1470243631413218,0,-3,-1,-1,-2,2,4,0
1470243631413218,-2,-2,-1,-1,-2,-3,-8,-3
1470243631428254,-5,-6,-4,-1,0,-5,-24,-4
1470243631428254,1,-2,-1,-1,-2,1,9,1
1470243631429731,-1,0,0,1,1,1,-4,1
1470243631429731,1,0,0,1,-2,0,1,1
1470243631450752,-4,-3,-5,-2,-2,4,3,0
1470243631450752,-1,1,1,-1,-2,-7,-4,-4
1470243631452253,-1,-2,-1,-1,1,-1,-5,-1
1470243631452253,0,-1,-1,-1,0,6,7,1
1470243631464287,-1,-5,1,-1,-1,-3,-5,-3
1470243631464287,-2,0,-3,0,1,-1,22,4
1470243631473314,-2,-1,0,0,-1,-3,-17,-4
1470243631473314,0,0,1,-1,-1,4,2,0
1470243631488316,1,-3,-3,0,-2,1,2,-2
1470243631488316,-2,1,2,-1,0,-7,-17,-1
1470243631489786,-1,-3,-3,-1,-2,5,18,-2
1470243631489786,-3,-2,-2,-3,0,-5,-27,0
1470243631510803,-1,-1,0,-3,-2,-4,7,-3
1470243631510803,-2,-4,-1,1,0,1,1,-2
1470243631512305,0,2,-1,-1,-2,-9,-5,-1
1470243631512305,0,-1,-2,-3,-3,-1,-3,0
1470243631524317,-2,0,1,-3,-1,2,9,-2
1470243631524317,0,0,-3,-2,-2,-2,-4,-1
1470243631533342,-1,-2,-1,-1,-3,-4,-3,-3
1470243631533342,-1,0,-1,0,-2,2,3,-1
1470243631548337,2,5,-1,-1,-2,-1,18,1
1470243631548337,1,-4,-1,-2,1,-1,-11,1
1470243631549838,-6,1,1,0,-1,-3,-3,-2
1470243631549838,-3,0,-1,-2,-3,0,9,-4
1470243631570858,0,-2,-2,0,2,-2,5,-1
1470243631570858,-2,-5,-3,-1,-3,3,-3,-3
1470243631572359,2,2,-2,-3,-1,-3,4,1
1470243631572359,-1,-4,-3,0,0,-10,-2,-4
1470243631584375,-3,-3,0,-3,-1,7,1,2
1470243631584375,2,1,-1,0,-2,-2,4,-1
1470243631593380,1,-1,-1,-1,0,-1,-13,-1
1470243631593380,0,0,0,0,0,3,13,-1
1470243631608391,-1,-4,-3,-2,-1,-4,-21,-2
1470243631608391,0,0,-3,-1,-1,1,-8,0
1470243631609893,-3,-2,0,0,0,3,16,1
1470243631609893,2,3,0,-1,-1,-4,7,2
1470243631630968,0,-1,-1,-1,-3,-1,-22,-1
1470243631630968,-3,3,2,0,0,-4,-1,-1
1470243631631912,0,-4,-13,-3,-2,-5,-2,-1
1470243631631912,0,-2,2,0,0,7,25,1
1470243631653432,-4,-2,-1,0,-3,-7,-21,-5
1470243631653432,-3,-2,1,0,-1,-2,-3,-3
1470243631654936,-1,-6,0,-2,0,-3,-5,-1
1470243631654936,-1,1,-2,-1,-1,5,5,1
1470243631668445,1,0,-2,-2,-2,-7,7,0
1470243631668445,-4,3,0,1,0,-2,0,-2
1470243631669982,-2,-1,1,-1,0,2,1,0
1470243631669982,-1,-5,-1,-3,-1,-3,-12,-4
1470243631690509,1,0,-2,0,-1,-6,14,-2
1470243631690509,0,-3,-1,-2,0,5,-4,0
1470243631691995,-1,-1,0,-2,-1,-4,5,1
1470243631691995,-4,0,-1,-2,-3,-6,-32,-1
1470243631713499,0,-1,0,-1,2,7,13,0
1470243631713499,1,0,-4,-2,-3,-5,20,0
1470243631714986,-1,6,5,0,0,4,-9,0
1470243631714986,-1,-4,-6,0,-1,-2,11,0
1470243631728510,0,-3,0,2,-1,-1,-24,3
1470243631728510,-1,-2,0,1,0,0,5,-2
1470243631730001,1,-4,-1,-3,-1,2,-3,1
1470243631730001,-1,-1,-1,0,0,-2,-5,-2
1470243631750574,-1,0,1,1,-1,2,4,0
1470243631750574,-1,1,-2,0,-1,-6,-5,-1
1470243631752060,-2,-8,-3,0,-2,1,5,-2
1470243631752060,1,3,0,-1,1,4,-9,1
1470243631773041,-3,-3,0,-1,-1,2,13,-1
1470243631773041,0,-1,-1,-2,-2,-5,4,-2
1470243631774543,-1,-1,0,1,-1,0,8,-2
1470243631774543,-1,0,-2,1,1,6,0,-1
1470243631787647,-4,-1,-2,-2,-2,-8,-6,-2
1470243631787647,-1,-4,-4,-3,-1,-1,-6,-1
1470243631794562,0,1,2,-1,-1,0,13,0
1470243631794562,-2,-3,-1,-2,-3,-5,-3,-2
1470243631810618,-5,5,1,-2,1,2,5,0
1470243631810618,0,0,-1,-2,-1,-1,-9,1
1470243631812075,0,-2,-4,-1,-2,-3,-2,-1
1470243631812075,-1,0,0,-2,-2,-1,-3,0
1470243631833093,-1,-5,-5,-2,-1,-1,-13,-2
1470243631833093,-1,0,-2,-3,-1,0,5,1
1470243631835095,-1,1,-1,0,-1,-3,-2,-2
1470243631835095,0,-2,1,1,0,-4,-21,-3
1470243631847607,0,0,-3,-2,-2,-4,6,-1
1470243631847607,-2,-4,-2,-1,-2,9,-13,-2
1470243631854612,0,-2,1,-1,-2,-6,4,-1
1470243631854612,-2,5,0,0,0,-4,-16,0
1470243631870626,-1,-2,-2,-1,-1,0,-12,-3
1470243631870626,-1,-1,0,-2,-2,-7,-5,-3
1470243631872128,-2,-2,-1,-1,-1,-2,8,-1
1470243631872128,-2,-1,-2,-1,-2,3,3,-1
1470243631893174,0,3,-1,-1,0,-3,4,2
1470243631893174,-1,-2,-2,0,-1,0,2,-1
1470243631894665,0,-1,-3,-3,-1,2,-7,0
1470243631894665,-1,-1,1,0,-3,0,0,-2
1470243631907660,0,-2,0,-1,-1,-5,5,-2
1470243631907660,0,-2,0,0,2,5,13,2
1470243631914165,-1,2,-3,-2,-1,-5,-31,-1
1470243631914165,2,-6,-3,-3,-1,-1,7,1
1470243631930717,0,-3,0,1,-2,5,7,-2
1470243631930717,-1,-3,-3,0,-2,-6,6,0
1470243631932182,-2,1,-1,-2,1,0,-16,0
1470243631932182,-2,0,0,-2,-1,-6,5,-2
1470243631953784,-1,-1,-3,-2,-1,5,-8,0
1470243631953784,-2,-2,0,-1,-2,-6,19,-3
1470243631955268,-4,-1,-1,0,-2,5,-7,-2
1470243631955268,-1,-4,0,-2,-1,-5,-6,-2
1470243631967223,0,-1,2,0,-1,2,-1,0
1470243631967223,-1,-2,-2,0,0,2,-4,-2
1470243631975731,-1,-1,-1,-1,-1,-1,1,-1
1470243631975731,-2,-2,-1,0,1,0,2,-1
1470243631990764,0,-2,-1,-1,-1,-4,-2,1
1470243631990764,-2,-1,-2,-1,-2,1,-7,-1
1470243631992237,-1,-2,-1,0,0,0,9,-2
1470243631992237,-1,-1,-3,-1,0,1,-2,1
1470243632013287,-1,-1,-1,-1,-2,0,8,-1
1470243632013287,-1,1,-1,-1,1,-1,10,0
1470243632014758,-1,7,-2,-2,-1,0,-18,0
1470243632014758,0,-2,-1,-2,-3,-6,-6,-1
1470243632027786,-1,-2,-1,-3,-1,-4,1,-2
1470243632027786,-2,-1,0,-1,0,-4,-11,1
1470243632034275,0,-4,-2,-2,-2,-1,10,-1
1470243632034275,-2,-3,-2,1,0,3,1,-1
1470243632050790,-2,-7,-2,0,-2,-8,-3,0
1470243632050790,0,3,-1,-1,-4,1,-5,-1
1470243632052290,2,-2,1,2,1,0,-2,0
1470243632052290,-3,2,-1,-1,0,-2,8,-2
1470243632073330,-2,-2,0,0,0,3,2,-2
1470243632073330,-1,-3,-1,-2,-1,-2,-3,0
1470243632074811,2,-4,-3,-3,-2,-5,7,-1
1470243632074811,-1,-2,-1,-2,-1,2,-3,-2
1470243632087849,-2,1,1,0,0,-1,5,0
1470243632087849,-1,-2,-1,1,-1,-1,0,0
1470243632094349,-2,-2,0,0,-2,-3,-7,-1
1470243632094349,-2,-2,-1,-2,-2,-4,-22,-3
1470243632110850,1,0,-3,-3,0,2,5,-1
1470243632110850,0,0,1,-2,0,-4,-7,-2
1470243632112344,-3,-3,-2,-2,0,5,9,-1
1470243632112344,0,-1,1,4,1,-10,1,-2
1470243632133382,0,1,-2,-4,-3,8,-5,-1
1470243632133382,-1,-3,-6,-4,-3,-1,-7,-2
1470243632134865,-1,-1,-1,1,-1,-6,-3,0
1470243632134865,0,-2,-1,1,-2,1,4,2
1470243632146891,-1,1,1,-3,-1,1,-2,0
1470243632146891,-3,-3,-2,-3,-4,-5,-3,-2
1470243632156386,-2,0,-1,0,-4,-3,4,-2
1470243632156386,2,0,-1,6,1,5,9,1
1470243632170896,0,0,-10,-2,7,5,-5,-1
1470243632170896,-4,-1,3,2,1,2,6,-2
1470243632172399,-2,1,14,-1,-1,-3,-16,-2
1470243632172399,-2,-3,-6,-5,-5,-5,4,-2
1470243632193416,-1,-1,4,3,-2,-2,-2,0
1470243632193416,1,-4,-18,-14,2,2,1,0
1470243632194931,-1,1,3,1,-1,-1,-2,-1
1470243632194931,0,0,1,-3,-1,-1,8,0
1470243632206929,-2,-4,-21,-3,-6,-4,-6,-3
1470243632206929,-1,0,5,0,-6,-4,-9,-1
1470243632215936,-4,-2,1,-1,-1,1,4,-1
1470243632215936,-2,1,8,1,-6,-7,-3,-3
1470243632229983,0,1,9,20,0,-2,-2,-1
1470243632229983,-1,0,-2,-13,-4,1,-2,-2
1470243632237010,1,2,-2,9,11,5,1,1
1470243632237010,-1,-5,-5,-14,-5,0,1,-1
1470243632253014,-3,-5,-6,-6,0,0,-3,-1
1470243632253014,0,2,13,16,-1,-5,-2,-1
1470243632254974,-2,-4,-10,-10,-4,-2,-2,-2
1470243632254974,-1,2,19,6,-13,-5,0,2
1470243632266483,-1,2,2,1,14,4,-3,-1
1470243632266483,-1,0,-4,-12,-2,-1,-5,1
1470243632275990,-1,-3,-10,-8,-1,-7,4,-1
1470243632275990,-2,-5,-8,4,-1,9,0,1
1470243632290504,0,1,-1,-4,-8,-7,-1,0
1470243632290504,0,4,12,-1,2,4,12,-2
1470243632292005,1,-1,3,21,10,3,-13,-2
1470243632292005,-3,-5,-22,-12,-1,-7,0,-3
1470243632313524,2,2,8,10,2,0,0,0
1470243632313524,-1,-3,-8,-16,-6,1,4,-1
1470243632315025,-2,-4,4,-3,-12,-4,3,-1
1470243632315025,-1,4,-2,6,11,6,0,-2
1470243632327037,-2,-7,5,-5,-10,-3,-2,-2
1470243632327037,1,0,0,-4,3,-1,-5,0
1470243632335544,-3,-4,-6,-10,-6,-1,2,-1
1470243632335544,1,2,11,9,5,2,-2,0
1470243632350147,-2,-2,-26,-14,11,4,2,0
1470243632350147,1,1,12,10,-2,6,-3,-2
1470243632357064,2,0,4,9,8,0,1,1
1470243632357064,-1,6,-7,2,6,2,1,0
1470243632373121,-4,-5,4,-6,-11,-15,-7,-3
1470243632373121,0,-4,0,0,-4,6,5,2
1470243632374614,1,2,-9,-7,1,2,-3,-2
1470243632374614,0,2,3,-1,-8,-4,-4,-4
1470243632387091,1,0,5,0,-2,2,8,2
1470243632387091,-2,-5,3,11,10,-4,2,-2
1470243632395601,-1,-3,-7,-6,-6,-2,1,-2
1470243632395601,-3,3,0,-7,3,0,2,-4
1470243632410130,-3,-19,-7,-3,-8,-5,-3,0
1470243632410130,1,5,-9,5,-5,-6,-1,-1
1470243632417151,1,-1,-2,-3,-3,3,0,1
1470243632417151,-1,-2,-7,-19,-9,-4,2,-1
1470243632433187,0,6,7,4,6,3,0,-2
1470243632433187,-2,-3,-9,3,5,1,-7,2
1470243632434633,0,-2,3,1,-7,-6,-1,0
1470243632434633,-3,-7,9,-5,-3,-2,-7,-3
1470243632447144,-1,0,-3,-9,-3,3,3,0
1470243632447144,-1,-1,-7,-6,-10,-7,-7,0
1470243632455653,-1,2,8,5,2,-2,-4,-3
1470243632455653,2,-7,-9,7,4,5,23,2
1470243632469722,-2,3,2,2,-4,3,-14,0
1470243632469722,-1,1,-2,0,-17,-9,0,-2
1470243632478172,3,-7,3,-8,27,14,-4,-1
1470243632478172,-8,-5,-14,3,-4,-6,3,-1
1470243632493217,0,3,6,2,-3,-3,6,-3
1470243632493217,0,-4,-6,-7,-1,-1,-8,-1
1470243632494745,0,1,5,7,-10,-7,-4,3
1470243632494745,1,1,3,-3,2,-1,-4,1
1470243632507200,-2,-1,-12,6,-3,1,3,-1
1470243632507200,-3,-2,-6,-9,3,-4,-8,-1
1470243632515706,-3,-3,-1,-2,-3,1,14,2
1470243632515706,4,2,1,-1,4,6,-4,2
1470243632530219,-2,1,9,2,-1,-2,-5,-1
1470243632530219,-1,1,-2,-2,7,2,8,0
1470243632537230,-4,-7,-4,-1,-8,-8,4,-4
1470243632537230,0,-1,5,5,-2,2,-24,-2
1470243632553281,-1,2,0,-3,-4,-4,-6,1
1470243632553281,-1,-7,2,2,1,-1,1,-2
1470243632554743,-3,3,-6,-21,-9,2,3,-1
1470243632554743,0,-1,-1,-3,1,-3,-9,1
1470243632583309,-1,0,0,1,-2,-3,1,-1
1470243632583309,1,1,13,2,2,0,-4,-3
1470243632584768,-1,0,-25,1,-8,-2,-4,0
1470243632584768,-1,-5,-2,-3,0,-1,2,-1
1470243632590341,-1,1,0,-5,1,1,2,3
1470243632590341,1,2,1,6,-5,-2,1,-6
1470243632596781,-4,-6,3,-19,-4,-2,0,-3
1470243632596781,-1,-2,-11,4,3,-1,4,0
1470243632613326,1,4,13,-8,1,1,1,-2
1470243632613326,-2,-7,-5,9,2,3,-1,0
1470243632614842,0,3,-1,-4,-7,0,12,-1
1470243632614842,0,1,-1,10,17,7,-27,-3
1470243632635887,-2,-5,-14,-3,-2,-9,-5,-2
1470243632635887,-4,0,0,-7,-2,-2,5,-1
1470243632637315,0,0,10,7,8,2,4,3
1470243632637315,0,-2,4,-1,-13,-7,7,-2
1470243632649872,-2,-1,-9,-2,-5,2,-1,-1
1470243632649872,-2,1,-1,0,6,-2,-5,0
1470243632664412,3,-3,-4,1,0,-2,-15,-1
1470243632664412,0,1,5,0,-11,-2,7,-3
1470243632673347,-2,-3,-1,8,6,-2,-4,0
1470243632673347,0,-4,-2,-4,-2,1,3,2
1470243632674848,1,4,1,1,4,0,-6,-4
1470243632674848,-2,-1,8,-2,-3,-2,0,-1
1470243632703374,-1,0,12,2,-3,-5,-2,-3
1470243632703374,-1,-3,-15,0,-2,4,-1,1
1470243632704875,0,5,7,7,-2,-1,-5,-3
1470243632704875,1,-5,-13,-9,2,-4,14,-1
1470243632709395,0,-3,17,-2,-3,-3,6,-1
1470243632709395,-3,3,-11,4,6,1,-15,-3
1470243632718388,-2,-4,-9,-5,-5,2,4,0
1470243632718388,-1,1,4,0,-4,-7,6,-3
1470243632733401,0,2,6,-4,-3,3,0,1
1470243632733401,0,-6,-11,0,0,0,-4,-1
1470243632734902,-3,0,7,1,-1,-1,0,-2
1470243632734902,0,0,2,-3,6,-3,-4,1
1470243632755926,3,1,-10,-3,-8,-1,6,3
1470243632755926,-2,-2,5,3,-3,-2,9,3
1470243632757423,-1,-4,-3,-7,-3,-2,-2,-2
1470243632757423,0,3,-1,-5,-5,0,-4,0
1470243632769433,-4,-2,-5,13,7,0,-5,0
1470243632769433,1,1,3,-23,-5,-1,4,0
1470243632778469,-4,-4,-4,12,5,-1,2,-2
1470243632778469,-3,0,2,-2,-4,-1,-5,-1
1470243632793455,-2,-5,-9,-3,0,1,-1,-2
1470243632793455,0,0,-1,6,-5,-3,0,-4
1470243632794968,0,4,-6,-8,-2,-4,-6,1
1470243632794968,-1,4,6,2,0,3,-7,1
1470243632815500,-3,1,-9,0,0,1,2,-3
1470243632815500,-1,-5,8,-1,0,-1,8,1
1470243632817477,-2,-3,-15,-2,-2,-2,-21,-11
1470243632817477,-3,-6,-6,-2,-5,-4,4,-1
1470243632829488,2,2,-1,-8,5,-1,-6,-2
1470243632829488,-3,-2,14,7,-2,0,4,-1
1470243632838495,-2,-2,-20,-2,-3,-5,0,1
1470243632838495,1,-1,-4,-6,-29,-3,2,0
1470243632853586,-1,-3,-6,-2,22,5,0,-4
1470243632853586,-1,0,5,9,-4,-4,-9,-3
1470243632854510,1,-1,8,-11,-2,0,11,2
1470243632854510,-2,-2,-5,0,2,1,-9,0
1470243632875829,-3,-4,4,-17,-12,-3,-2,1
1470243632875829,0,0,-16,7,21,3,-4,-1
1470243632877275,-1,2,9,2,-8,-1,-1,-2
1470243632877275,-5,-8,15,3,5,0,2,-1
1470243632889330,-1,3,-19,-2,-2,4,-3,-2
1470243632889330,0,2,8,7,-10,-6,1,4
1470243632898312,-2,-8,7,-6,4,-2,-1,-2
1470243632898312,0,3,-6,-2,5,1,-1,-1
1470243632913307,1,0,8,14,-4,-6,7,-1
1470243632913307,-1,-3,-8,-18,-17,2,0,0
1470243632914809,-1,0,-2,3,14,4,-8,2
1470243632914809,1,-3,-3,1,5,2,-1,-3
1470243632935887,-1,0,2,-4,-3,-4,-14,-2
1470243632935887,0,-5,-13,-3,-47,-16,6,0
1470243632937329,1,0,17,5,50,2,2,-2
1470243632937329,-2,-2,-17,-9,-8,8,-6,0
1470243632949340,-4,-3,2,-4,0,-3,4,2
1470243632949340,-2,0,6,-3,6,1,-10,-4
1470243632958348,-1,-1,-7,-4,-27,-8,10,4
1470243632958348,-1,0,-7,-1,3,-4,-8,-2
1470243632972366,-3,-3,-2,-3,5,4,-2,-2
1470243632972366,1,-2,11,11,2,-5,-4,-1
1470243632980884,-1,1,1,5,-5,2,2,2
1470243632980884,-2,0,-7,-8,3,-2,6,0
1470243632995882,3,-5,-4,3,-13,-1,-3,-1
1470243632995882,-2,3,-8,-14,15,3,-4,-2
1470243632997383,-2,-2,-7,-2,-12,-4,-4,-3
1470243632997383,1,-1,7,1,-9,-3,-1,-1
1470243633009394,-1,4,3,16,4,-3,-4,-1
1470243633009394,-3,-1,-5,-10,5,1,3,-1
1470243633025909,-1,-3,-5,-2,-14,-6,-11,-2
1470243633025909,1,1,-4,-2,10,1,6,0
1470243633033416,1,-1,5,-7,-8,1,-4,6
1470243633033416,-1,-1,-2,3,8,-1,-1,-3
1470243633034971,-3,-1,-2,-2,-12,2,-2,0
1470243633034971,-2,-3,4,4,-2,-6,8,-1
1470243633063444,-1,1,-1,1,8,1,3,-2
1470243633063444,-2,0,7,-6,1,0,-4,-2
1470243633064982,1,-2,-1,8,-8,-4,-2,-1
1470243633064982,-2,-3,-2,3,7,1,0,-2
1470243633069448,-4,-1,-6,-11,-3,-3,3,-4
1470243633069448,0,0,8,3,1,-1,-5,1
1470243633078455,-1,-3,-17,-7,-1,-2,3,-4
1470243633078455,-2,1,25,13,0,-1,-3,-1
1470243633093469,-2,-2,0,0,-6,-3,-2,0
1470243633093469,-2,-3,-14,-6,6,0,-4,-2
1470243633094988,-2,0,3,0,-1,0,0,3
1470243633094988,1,0,-4,-8,-1,-2,-3,-4
1470243633115992,-3,-6,0,4,-1,-2,-2,0
1470243633115992,0,2,3,-3,-3,1,3,0
1470243633117490,-2,-2,1,1,1,-1,0,-1
1470243633117490,-2,-4,-9,3,-4,-2,-6,-1
1470243633129503,1,-2,0,-12,-3,-1,2,-3
1470243633129503,-5,-6,-6,2,3,0,2,-2
1470243633138521,3,5,6,3,2,0,-3,0
1470243633138521,1,-1,-3,0,-1,-2,-2,-1
1470243633153023,0,5,-1,0,-2,-1,-2,-1
1470243633153023,0,-1,0,6,-1,-2,0,-1
1470243633155024,-2,-3,0,-2,0,0,-1,-2
1470243633155024,-4,3,-6,-3,-3,0,1,1
1470243633176050,0,-5,0,0,-1,0,2,0
1470243633176050,-3,-11,5,-7,-2,0,-2,-2
1470243633177602,3,8,4,4,1,2,0,-1
1470243633177602,2,8,-16,-12,-1,0,-2,-2
1470243633189555,-2,-5,1,-1,-3,-3,-2,-1
1470243633189555,-1,-5,-7,0,1,2,-3,-3
1470243633198064,0,-5,6,-1,0,1,0,0
1470243633198064,2,2,15,11,1,0,-1,-2
1470243633213577,-4,-5,-21,-5,1,0,-3,-1
1470243633213577,-2,-2,4,-1,-1,0,-1,-1
1470243633215079,-1,0,-10,-11,1,0,1,-2
1470243633215079,10,0,5,0,-2,-4,-2,1
1470243633235625,-9,7,2,-3,-2,-2,1,-1
1470243633235625,-6,-10,-3,11,1,-2,-2,-3
1470243633237098,0,4,5,-3,-1,0,1,-2
1470243633237098,-8,-8,-3,0,0,0,-2,-1
1470243633249712,1,2,3,-1,-6,-2,-2,0
1470243633249712,3,6,-5,-2,0,-2,-1,-1
1470243633258119,-3,1,4,5,-1,-2,-1,-1
1470243633258119,-1,-10,8,-3,-3,-1,0,0
1470243633272631,4,6,-14,-6,-2,0,0,0
1470243633272631,-2,12,10,-9,-4,0,-1,1
1470243633279637,-3,-16,-2,-2,-1,-3,0,-1
1470243633279637,-1,13,-7,-7,-4,-3,-1,-1
1470243633303213,0,-5,10,11,2,-1,-1,-4
1470243633303213,2,3,-5,-8,-1,1,-1,0
1470243633304659,-2,1,6,-2,-1,-1,-1,-1
1470243633304659,-12,0,-5,-3,-3,-2,-2,-3
1470243633309218,-2,7,0,-4,-2,-1,3,0
1470243633309218,-6,-4,-2,4,-1,-2,-2,-1
1470243633318223,-8,-4,5,2,1,0,0,-1
1470243633318223,1,-5,-9,-3,-2,0,-2,-2
1470243633332684,1,-13,-10,-4,-2,-2,-3,-1
1470243633332684,6,-27,4,-1,0,0,1,3
1470243633339190,-6,28,-10,-2,-1,-1,0,-1
1470243633339190,2,7,9,4,2,1,0,0
1470243633363212,1,-14,7,-4,-1,-2,-1,-1
1470243633363212,0,-7,-2,3,1,-2,0,-1
1470243633364714,5,28,-5,4,-5,-2,-1,-3
1470243633364714,-2,-9,-4,-8,-1,0,0,0
1470243633378228,1,2,0,10,-1,-1,-4,-2
1470243633378228,0,0,-5,-5,1,-1,-4,-3
1470243633379727,-8,-31,-4,-4,-3,-3,-2,0
1470243633379727,-10,-15,-1,6,2,0,1,-1
1470243633392273,-7,-16,-2,-2,-1,-1,1,-2
1470243633392273,-4,-15,0,7,-2,-3,-1,-4
1470243633399246,-8,45,5,-4,0,-2,-2,-2
1470243633399246,0,21,-11,-4,0,-2,0,-1
1470243633415793,-28,-59,0,-4,-5,-3,-3,-4
1470243633415793,17,50,8,4,-1,-1,-1,2
1470243633417259,-7,-46,-9,-5,0,-2,-2,-4
1470243633417259,10,32,4,1,-1,-1,-2,-1
1470243633429272,1,8,-6,2,0,-1,-1,0
1470243633429272,-6,4,-3,-5,-2,0,0,-1
1470243633438278,-8,-28,-3,2,-1,1,0,-4
1470243633438278,0,-10,8,3,-1,0,2,0
1470243633452326,10,57,-7,-3,-2,0,-12,0
1470243633452326,-5,2,-4,-7,-2,0,0,-2
1470243633459333,9,-5,2,-1,0,0,1,3
1470243633459333,-3,-20,-3,10,0,-2,0,-2
1470243633475898,4,6,18,-7,-1,-1,4,0
1470243633475898,-6,-21,-5,-2,0,1,-2,1
1470243633477316,0,1,-21,-6,-2,-1,-2,-1
1470243633477316,-7,-3,-1,-2,-2,-1,-1,-2
1470243633489370,5,17,5,0,0,0,0,0
1470243633489370,5,20,0,1,-4,-1,-1,0
1470243633498349,2,-6,1,1,-2,-2,-1,0
1470243633498349,10,7,2,-1,1,-1,-3,-2
1470243633511845,1,5,-4,-5,-3,-2,-2,-2
1470243633511845,-6,5,-2,-2,2,1,0,-1
1470243633520855,2,4,9,4,1,-1,-2,-4
1470243633520855,-6,3,-4,-3,-2,0,1,5
1470243633535883,-4,-3,-1,2,-1,0,0,-1
1470243633535883,-4,-6,-4,0,-3,-3,1,-1
1470243633537388,4,12,0,-2,-4,1,9,2
1470243633537388,-1,-13,-4,-4,-2,-2,-20,-1
1470243633558388,-7,-16,-8,-1,1,0,10,-2
1470243633558388,-1,1,-2,1,-1,-1,0,-1
1470243633559888,-4,-15,5,2,-2,-1,-4,-5
1470243633559888,1,-2,-6,-5,-1,0,4,-1
1470243633572399,3,0,0,1,1,0,-2,-1
1470243633572399,-2,-8,-1,-2,-1,-1,-2,-3
1470243633579406,-4,-6,-4,-1,-2,-1,-2,1
1470243633579406,-5,-15,-2,-3,-2,-3,2,0
1470243633595921,4,8,-1,0,-2,-3,-5,1
1470243633595921,-1,-5,-3,1,-2,-1,2,0
1470243633597422,1,-10,-3,-2,-1,-1,-4,2
1470243633597422,-1,-2,4,5,1,0,0,-3
1470243633618441,-7,-15,1,-2,1,-1,0,0
1470243633618441,7,11,-3,-4,0,-2,-2,-2
1470243633619946,-1,0,2,2,-1,0,-1,1
1470243633619946,0,-7,-5,-1,-3,-3,-1,-3
1470243633631953,0,-4,-3,-13,-1,1,0,-2
1470243633631953,-6,-2,0,2,-1,-3,-2,-2
1470243633640960,4,9,0,-3,-1,-2,-4,1
1470243633640960,-1,-8,-1,0,-2,-1,3,-1
1470243633656090,0,0,2,4,0,-2,0,0
1470243633656090,-1,1,-3,-8,0,0,-4,-1
1470243633657476,0,-8,-3,4,-1,-2,1,-1
1470243633657476,-1,1,-2,-3,1,1,-1,-1
1470243633678495,0,5,-2,1,-1,0,-2,0
1470243633678495,-2,-4,2,1,0,0,-1,-1
1470243633679996,-1,0,-1,-4,-1,0,-3,-2
1470243633679996,-2,-5,-3,-5,-3,-2,-2,-1
1470243633692009,-1,0,-1,-3,-2,-2,-2,-2
1470243633692009,-2,-3,2,4,1,0,0,-2
1470243633701033,-7,-3,1,0,1,-1,-1,-4
1470243633701033,0,-1,-9,-11,-3,1,1,1
1470243633723091,0,-3,-2,2,-3,-1,0,-2
1470243633723091,0,0,7,-1,-1,-1,-1,-1
1470243633725037,-2,-5,-23,-3,0,-2,-3,0
1470243633725037,-1,-1,7,3,3,0,-2,-3
1470243633738104,-2,2,-2,-5,-3,-1,0,1
1470243633738104,-3,-4,-2,-4,-5,-1,-2,0
1470243633740057,1,-9,1,-2,-1,-1,-1,-2
1470243633740057,-1,0,2,2,-3,-2,-1,0
1470243633752061,2,6,7,-1,2,1,-2,0
1470243633752061,2,1,-3,9,-1,-1,1,-2
1470243633760600,-1,2,-33,-14,-3,0,-1,1
1470243633760600,-2,-8,-6,3,-1,-2,0,-1
1470243633776083,2,-1,17,9,1,-1,-2,-2
1470243633776083,-3,-4,-27,-13,-2,1,-1,0
1470243633777083,1,7,15,-2,-6,-2,0,-1
1470243633777083,0,-1,-4,-7,-4,-2,-2,-2
1470243633798101,-2,-3,-2,5,1,-2,-1,-3
1470243633798101,0,4,7,6,4,2,0,-1
1470243633799603,-4,-2,-1,8,-1,0,0,0
1470243633799603,4,7,23,-15,-1,-1,-2,0
1470243633812162,-3,-20,-71,-9,-3,0,-3,-2
1470243633812162,-1,4,5,9,-3,-2,-1,-2
1470243633820632,0,1,11,-14,0,-1,-1,1
1470243633820632,-1,5,10,9,1,0,1,-1
1470243633835662,-1,0,9,1,-4,-2,-2,0
1470243633835662,-3,-5,-11,-6,0,-2,0,0
1470243633837137,1,-12,-2,8,1,1,-2,-1
1470243633837137,-2,-14,0,-3,3,-2,-1,-1
1470243633858155,2,14,7,2,-4,-1,2,0
1470243633858155,-4,-20,-14,-9,-4,-1,-2,-1
1470243633859657,1,8,18,0,4,-5,-2,-2
1470243633859657,-2,-7,-17,-9,-1,2,-1,-3
1470243633871724,0,-2,11,19,4,-2,0,-1
1470243633871724,0,1,-7,-10,3,-1,-2,-1
1470243633880676,-1,0,3,5,-1,5,3,1
1470243633880676,-3,2,0,2,7,1,0,-1
1470243633896192,-1,1,16,11,-3,-2,-1,-1
1470243633896192,0,-2,3,0,1,0,-2,-2
1470243633897695,0,-1,6,-8,-1,-3,-1,-1
1470243633897695,-2,4,7,8,-7,-2,-2,-2
1470243633918211,-7,-3,0,-29,-4,-1,1,-1
1470243633918211,-1,-9,4,5,-11,-8,-2,-3
1470243633919711,-1,4,2,-1,-2,1,-2,-2
1470243633919711,-2,-9,-21,13,0,2,1,1
1470243633931750,2,2,0,-8,13,-7,-4,-2
1470243633931750,-2,2,0,-1,7,4,0,2
1470243633940731,-2,-2,-18,4,-11,-3,-1,0
1470243633940731,-1,9,9,-19,-3,-5,-1,-2
1470243633955770,1,-12,-1,8,12,3,0,1
1470243633955770,-1,11,9,-8,3,-1,0,0
1470243633957279,1,-8,2,27,-1,-2,-3,-2
1470243633957279,-1,6,0,-18,12,-1,1,0
1470243633978303,-2,-2,4,-6,-11,1,-1,-1
1470243633978303,1,2,12,5,5,-3,1,-2
1470243633979765,1,3,6,7,-9,0,-2,0
1470243633979765,2,-3,-11,-3,-4,-4,1,-1
1470243633991808,-2,0,-13,-2,-4,-3,-2,-2
1470243633991808,-1,-7,-5,-10,7,1,-1,1
1470243634000784,0,8,-1,-7,-2,0,0,0
1470243634000784,0,-2,-3,6,-11,-3,-6,-3
1470243634015797,-1,3,-2,-5,-1,6,5,0
1470243634015797,-2,-8,-5,-11,3,-6,-2,-2
1470243634017301,-1,3,4,-6,16,3,4,-1
1470243634017301,-4,-11,-6,0,-25,-8,-6,-2
1470243634038321,1,1,0,11,24,7,4,-3
1470243634038321,0,4,2,0,-19,-6,-7,-2
1470243634039830,0,6,3,-7,-15,-2,10,-2
1470243634039830,-1,-8,-4,12,20,4,-4,-2
1470243634051857,0,9,3,-4,-14,-3,9,5
1470243634051857,2,-7,-5,10,2,-4,-15,0
1470243634060837,-2,6,-4,-11,5,2,-4,-1
1470243634060837,-2,-32,3,-2,-16,-10,0,-2
1470243634075852,3,3,-33,-2,-14,-6,-4,1
1470243634075852,4,7,28,7,20,18,7,2
1470243634077353,-6,-9,-16,7,-3,-8,-5,-3
1470243634077353,-1,6,4,-6,10,7,1,0
1470243634098375,-2,-3,9,-9,3,4,-4,-2
1470243634098375,-3,-5,-9,9,-11,-9,1,-2
1470243634099875,-1,-2,-6,-20,-10,-3,-5,0
1470243634099875,-2,5,-5,-4,-10,0,4,-2
1470243634111886,0,-2,8,-1,0,-5,-5,-2
1470243634111886,-2,4,-1,-1,-14,1,2,-2
1470243634120920,-1,-3,7,11,13,3,-3,2
1470243634120920,-4,5,-8,0,5,-4,1,-11
1470243634135905,0,-1,1,10,-3,0,1,9
1470243634135905,1,-6,1,-7,-2,-1,1,-4
1470243634137407,-2,-2,-7,-6,-3,-5,-7,-4
1470243634137407,-3,-2,-1,0,-1,3,5,5
1470243634158453,1,-8,-1,3,-6,-6,-3,-7
1470243634158453,-5,12,-5,-8,-7,4,0,-4
1470243634159926,3,4,4,-1,1,0,11,-2
1470243634159926,-3,-4,3,5,-4,2,-19,-5
1470243634172006,0,-9,-18,-7,-2,-4,-2,-6
1470243634172006,-2,9,0,-1,-1,-4,0,2
1470243634180945,0,3,-2,-3,-1,-2,-3,-5
1470243634180945,2,7,-1,7,-1,-2,1,2
1470243634195959,0,-5,6,-4,-1,0,-3,-2
1470243634195959,0,-8,-6,-6,-2,-2,-1,-2
1470243634197460,-2,1,2,1,1,1,-4,5
1470243634197460,4,9,-2,-4,2,7,11,-7
1470243634218570,-1,-3,6,-1,-2,-8,-6,2
1470243634218570,-2,-4,-4,9,-2,0,2,-1
1470243634219984,-1,0,-2,-6,-1,-1,-1,4
1470243634219984,0,1,2,2,0,-3,-8,4
1470243634231991,-4,-5,-1,-5,-4,-1,-5,-4
1470243634231991,0,-6,-3,-3,-1,-1,3,1
1470243634240999,0,-1,-3,3,-1,-1,-1,-2
1470243634240999,-2,-20,0,1,2,-5,-2,-2
1470243634255013,-5,27,3,7,-2,9,5,0
1470243634255013,-3,-18,-6,-9,-2,-4,0,-1
1470243634262018,-1,-7,-5,-2,-2,-2,-5,-3
1470243634262018,-1,-24,-2,-3,2,-4,2,3
1470243634278533,-13,-18,0,-4,-2,-3,-2,-2
1470243634278533,-2,6,-1,0,-2,0,-1,-4
1470243634279535,1,-1,12,6,0,0,0,-7
1470243634279535,-8,-9,-20,-15,-2,-1,1,0
1470243634292045,5,0,4,3,-1,-1,-2,1
1470243634292045,1,1,3,0,0,-1,0,-4
1470243634301059,-4,-1,-1,11,-1,-3,-1,2
1470243634301059,10,16,-2,-10,0,-1,0,2
1470243634315125,-4,-5,-1,-2,0,0,-3,-5
1470243634315125,4,17,6,-1,-1,-2,0,2
1470243634322073,-6,4,2,0,1,1,-1,-2
1470243634322073,-5,-14,0,4,0,-1,-3,-2
1470243634338129,2,-1,5,-3,-1,-3,2,4
1470243634338129,-1,3,-17,0,-2,0,-4,-1
1470243634339621,-1,-11,5,-7,-2,-1,0,0
1470243634339621,-3,11,0,6,-1,-2,0,0
1470243634360651,0,-8,2,5,-1,0,-2,-3
1470243634360651,0,-11,-11,-15,6,0,-2,1
1470243634362108,1,4,-7,-6,-3,-1,-1,-1
1470243634362108,-7,-6,1,5,-5,-1,-2,-2
1470243634375161,3,3,1,-2,1,-2,-1,1
1470243634375161,0,5,9,11,-1,0,-2,-1
1470243634382127,-8,-16,-13,-4,0,-3,-3,0
1470243634382127,7,27,8,-5,-1,3,1,2
1470243634398190,-3,-14,5,1,-4,-1,-1,-3
1470243634398190,-4,-1,-7,-1,-2,-3,-1,-1
1470243634399642,0,-1,2,-5,0,0,0,-6
1470243634399642,1,-4,1,7,3,-3,-3,-2
1470243634411708,-2,29,-1,-11,-1,1,3,1
1470243634411708,-2,-14,-5,2,-3,-1,-4,-4
1470243634420663,1,4,5,-1,0,0,0,0
1470243634420663,0,10,1,2,-1,0,-2,-1
1470243634435174,-2,-9,-2,-8,-3,-1,-1,0
1470243634435174,-3,-6,-1,-1,-3,-1,0,0
1470243634441681,2,-5,-2,27,2,1,0,0
1470243634441681,-1,16,16,-25,0,0,0,-1
1470243634458372,-2,-5,-17,-14,-6,-3,-3,-2
1470243634458372,2,6,-1,2,-2,-1,1,1
1470243634459860,-6,-22,-9,-5,-6,-4,-2,-4
1470243634459860,3,8,11,7,0,0,1,1
1470243634480842,2,-6,11,5,2,-1,-3,-1
1470243634480842,-4,-9,-18,-4,-4,-3,-4,-2
1470243634482328,3,18,28,-6,-2,-2,0,0
1470243634482328,-2,-16,-36,2,-2,-1,0,-2
1470243634494881,2,11,5,-4,2,-1,0,-1
1470243634494881,-4,-5,6,-2,-1,-2,0,-1
1470243634501850,1,-6,-1,0,6,0,0,-1
1470243634501850,-2,-3,8,-15,-2,1,-1,-2
1470243634518395,1,-2,-30,6,-2,-2,-2,-1
1470243634518395,0,-11,10,15,-3,-1,0,0
1470243634519895,0,13,-7,-25,-6,-4,-3,1
1470243634519895,-3,-2,-1,4,-2,0,0,0
1470243634541379,-1,5,19,14,0,-1,-1,0
1470243634541379,-1,0,-2,-10,1,-2,0,-1
1470243634543414,0,-2,-6,1,-5,0,-2,-1
1470243634543414,-1,-9,-4,3,-2,-3,-4,-1
1470243634554891,-3,-7,9,0,2,0,-1,-2
1470243634554891,2,6,-12,6,-4,-1,1,-1
1470243634561899,-2,-6,6,-5,-3,2,0,0
1470243634561899,-1,1,-7,2,27,4,0,-1
1470243634578412,-2,-7,-16,-7,-3,-1,-1,-4
1470243634578412,-2,-9,10,3,-3,-6,-3,-1
1470243634579913,-2,15,-10,3,-1,1,2,1
1470243634579913,0,2,-8,2,-13,-7,2,-2
1470243634601433,0,4,0,-12,3,3,0,1
1470243634601433,0,-13,3,3,7,4,-2,-2
1470243634602957,0,-2,-3,3,-2,-2,-2,-1
1470243634602957,-1,15,5,8,-5,-6,-3,-2
1470243634614525,-2,3,0,1,-3,-1,2,2
1470243634614525,1,3,2,-8,-2,0,-1,1
1470243634623460,0,-9,-8,-2,3,-1,0,0
1470243634623460,-5,-7,-16,-4,-7,0,-2,-2
1470243634637508,-3,-8,1,11,-5,-6,-5,-5
1470243634637508,-2,4,2,-21,-1,1,3,1
1470243634645972,0,-8,6,8,1,0,-2,-1
1470243634645972,-1,-8,-15,-9,-4,-1,0,-1
1470243634661000,2,2,-7,-3,-2,-4,-2,-3
1470243634661000,1,2,5,7,1,3,4,2
1470243634663489,-4,2,-6,-5,-2,-3,-3,-3
1470243634663489,0,-4,7,-1,-4,1,-3,0
1470243634674499,-1,-2,5,9,0,-7,0,-1
1470243634674499,-2,5,-10,-14,2,9,1,-2
1470243634683506,-3,-9,-4,7,1,0,3,0
1470243634683506,1,15,6,-11,-3,0,-3,-1
1470243634698520,-3,-8,-5,-4,0,2,3,1
1470243634698520,-4,-12,-30,-1,-5,-5,-4,-3
1470243634700021,1,0,6,4,-6,-1,3,0
1470243634700021,-4,-11,-10,9,4,0,-2,-6
1470243634720555,0,2,-13,-8,-1,0,-1,2
1470243634720555,0,7,7,-7,-2,-2,-2,-1
1470243634722065,-2,-9,0,-4,0,1,1,0
1470243634722065,1,-12,6,6,-4,-7,1,-3
1470243634734552,0,6,-3,-2,-1,4,0,0
1470243634734552,1,-5,-4,8,1,-2,-2,-3
1470243634743573,-5,20,-12,-6,-2,-1,-6,-2
1470243634743573,0,-4,20,-8,-4,0,-2,2
1470243634758115,-1,-9,-30,-5,1,2,2,0
1470243634758115,1,12,8,4,-1,-1,-1,0
1470243634759607,0,-12,-2,-5,-1,-1,9,-2
1470243634759607,-2,-4,11,9,-2,-3,-7,-1
1470243634780597,-2,3,-9,-16,-3,0,0,-4
1470243634780597,-5,4,3,1,-3,-3,-5,-2
1470243634782097,4,-8,-1,-6,-1,-2,2,2
1470243634782097,-1,7,2,4,2,-1,2,-3
1470243634794699,0,-6,5,-3,-2,-2,-4,1
1470243634794699,4,9,3,1,-1,-5,-3,-1
1470243634803131,-1,-14,11,7,-1,2,-1,-1
1470243634803131,1,-7,-29,-6,0,2,-1,1
1470243634818172,-3,9,8,-1,-1,-1,0,-1
1470243634818172,-3,-1,5,2,-3,-2,1,-1
1470243634819628,0,-3,3,3,-2,-3,-5,-1
1470243634819628,1,21,6,7,2,-3,-1,1
1470243634840670,-5,-21,11,-6,-1,1,-1,-2
1470243634840670,3,3,-42,-4,-3,1,-1,-2
1470243634842164,-6,3,13,1,1,1,-2,-1
1470243634842164,-2,-6,-3,0,-2,-2,1,0
1470243634854215,-2,-8,7,1,0,-4,-1,-2
1470243634854215,-3,-11,11,4,0,-2,-3,-1
1470243634863168,3,21,-12,-2,0,0,-5,1
1470243634863168,-3,2,3,-8,-4,-3,9,-2
1470243634878183,0,-6,-9,-5,-3,-3,-19,-3
1470243634878183,-6,-19,1,-1,0,-1,0,-1
1470243634879684,0,2,-10,-4,-2,0,0,-3
1470243634879684,2,-5,-1,-14,-2,-1,-2,0
1470243634900701,-12,15,6,6,-1,1,3,-2
1470243634900701,1,1,4,-4,-4,-1,-3,3
1470243634902203,-2,-12,-3,6,0,-4,-2,-5
1470243634902203,-1,-8,4,-2,0,2,-2,-1
1470243634914227,3,6,-8,3,-3,-3,1,-3
1470243634914227,-2,-14,-1,-2,0,3,-1,-2
1470243634923222,0,13,3,-1,0,-8,-4,1
1470243634923222,3,-24,0,-2,-3,1,-2,-4
1470243634938296,-2,10,7,2,0,0,3,4
1470243634938296,1,12,-7,2,1,-1,0,-2
1470243634939736,1,7,4,-9,-4,-1,-6,-4
1470243634939736,-2,-7,-10,-2,0,4,7,1
1470243634960784,5,4,19,8,0,-1,-11,-1
1470243634960784,0,-12,-13,-4,-2,-3,-2,0
1470243634962298,3,-10,1,-2,1,-1,1,3
1470243634962298,-4,0,-5,0,-2,-5,-7,-8
1470243634974302,5,9,-6,0,-1,0,5,7
1470243634974302,1,3,10,-3,-2,-1,2,0
1470243634983275,-3,-7,-8,3,-2,0,-3,-4
1470243634983275,2,17,4,-3,1,-1,0,2
1470243634998293,0,-21,3,3,-2,0,0,-3
1470243634998293,-4,-1,-16,-8,0,-5,-3,-2
1470243634999792,1,0,11,5,1,4,4,2
1470243634999792,-6,3,-9,-1,-1,-2,-6,-5
1470243635020889,1,-17,-2,-5,-3,-1,3,1
1470243635020889,-9,30,14,4,-1,-1,-5,0
1470243635022310,-4,4,-5,3,-1,-1,-1,-3
1470243635022310,-7,-16,3,1,2,2,17,7
1470243635034382,3,22,-2,-2,-2,-6,-36,-6
1470243635034382,-1,-15,-4,-2,-2,-1,6,-3
1470243635043381,3,-6,-5,-7,-3,2,0,-5
1470243635043381,-1,12,-1,3,1,0,-2,3
1470243635058402,-1,5,-9,0,1,0,8,2
1470243635058402,-2,-2,14,3,-1,-4,-6,-5
1470243635059872,-9,-1,-3,-3,-2,0,-7,-5
1470243635059872,3,11,3,17,0,0,0,1
1470243635080866,1,7,-1,-28,0,0,2,-2
1470243635080866,-3,-1,23,12,0,7,4,-1
1470243635082365,-3,-26,-47,-10,-3,-10,3,0
1470243635082365,0,27,11,2,0,2,-3,-2
1470243635103383,-5,-20,0,7,-5,-2,4,-1
1470243635103383,1,-2,1,-2,-1,-1,-3,-1
1470243635104885,3,6,9,-3,-1,0,3,2
1470243635104885,-1,-3,-4,2,-3,-4,2,-1
1470243635118397,-1,-3,9,5,0,0,0,-2
1470243635118397,1,-4,-19,-9,-2,4,5,2
1470243635119898,-5,-6,11,-4,-1,-1,-7,-1
1470243635119898,2,-3,-7,-13,-3,-1,-3,-2
1470243635140917,-3,0,9,3,0,-2,6,3
1470243635140917,-5,-7,8,7,0,-3,-2,-8
1470243635142419,3,15,-19,-2,0,-1,2,0
1470243635142419,-4,-15,2,-6,2,1,-7,-1
1470243635154440,1,6,3,2,-2,-1,5,-1
1470243635154440,3,-11,4,9,0,5,2,2
1470243635163438,-5,10,-35,-16,-24,-11,0,1
1470243635163438,-2,-18,0,1,6,0,-17,-4
1470243635177478,-6,-3,-4,6,5,-3,3,-4
1470243635177478,0,-2,13,-4,-5,6,0,2
1470243635184456,-1,12,17,9,9,-1,2,-1
1470243635184456,0,-18,-23,1,-16,-7,3,3
1470243635200973,-1,-3,-8,-20,-2,5,-11,-11
1470243635200973,0,2,1,16,2,-5,3,2
1470243635202473,-1,-12,-10,-18,10,5,-2,-1
1470243635202473,-3,5,7,-4,-6,-2,0,0
1470243635214483,-2,-18,-3,13,3,-2,1,-2
1470243635214483,6,20,5,-12,-8,-6,-2,0
1470243635223491,2,5,-5,3,5,5,-6,-1
1470243635223491,-4,5,15,5,5,-2,-2,-2
1470243635237532,-1,-19,6,-3,-9,-2,4,-1
1470243635237532,-2,18,0,-5,2,-2,-3,-2
1470243635244510,-2,-29,-1,9,-2,-5,-2,0
1470243635244510,-3,13,-5,-11,-3,0,-3,-4
1470243635260525,3,9,13,-7,0,5,6,1
1470243635260525,-3,-19,-32,2,1,-2,-4,-1
1470243635262526,0,2,26,10,4,1,8,-1
1470243635262526,-1,-6,-10,-9,-4,0,-5,0
1470243635274537,-4,-4,-2,5,-34,-12,1,1
1470243635274537,0,6,-2,-12,35,7,-5,-3
1470243635283545,0,4,-35,-8,-6,8,2,1
1470243635283545,0,-5,21,-5,4,-5,0,0
1470243635297601,-7,3,-1,8,-15,-3,0,-1
1470243635297601,0,1,5,-3,-43,-11,-2,2
1470243635304564,2,5,9,12,20,0,-5,-1
1470243635304564,1,5,-12,-6,-2,5,2,-1
1470243635320578,3,-5,-3,-4,26,2,-5,-1
1470243635320578,-4,-11,9,7,-18,-3,-4,-1
1470243635322080,-3,-6,6,-13,7,-3,-2,-2
1470243635322080,-2,3,3,-4,-10,-3,-2,-2
1470243635334091,-2,-1,-12,2,-5,1,-1,-1
1470243635334091,0,-12,5,-1,15,-3,1,-2
1470243635343098,2,21,12,8,-13,1,-11,-5
1470243635343098,3,-6,-6,0,5,1,4,2
1470243635357611,-1,19,-3,-4,4,-2,6,0
1470243635357611,-4,-8,-3,-8,-2,-3,-12,-6
1470243635364120,-1,6,4,2,-6,-5,0,0
1470243635364120,-11,-26,-9,-2,1,1,-1,-3
1470243635380632,-1,1,-4,0,1,-3,-1,-3
1470243635380632,-1,1,-4,0,3,-3,6,3
1470243635382133,2,3,17,1,1,-1,1,1
1470243635382133,3,0,23,30,4,3,-1,-2
1470243635394708,2,20,-56,-48,-3,0,-2,-2
1470243635394708,-21,-9,-1,1,3,-1,1,-1
1470243635403152,0,-5,6,3,-3,0,0,2
1470243635403152,-10,-22,-3,5,-4,-1,5,-2
1470243635417763,3,7,10,14,5,-1,-6,1
1470243635417763,2,4,-17,-10,-1,1,-1,1
1470243635424712,-7,-29,4,-5,-4,-1,-2,-4
1470243635424712,4,38,4,2,0,-1,-8,-9
1470243635440719,-6,-21,-5,7,3,0,-2,-1
1470243635440719,5,12,-19,-12,-3,-3,2,-1
1470243635442234,1,-24,4,2,-4,-1,0,-2
1470243635442234,3,19,-6,-17,-3,-3,-3,1
1470243635463243,1,-3,11,7,3,-2,-6,-1
1470243635463243,1,18,17,4,-3,-1,-6,-2
1470243635464742,2,22,-15,-5,-2,-2,5,3
1470243635464742,-2,0,-7,-1,1,-1,-3,-2
1470243635477719,-1,-8,0,0,-3,0,0,-1
1470243635477719,4,-11,7,-3,0,-1,2,0
1470243635484226,1,3,-4,-5,-3,-2,-2,1
1470243635484226,-3,4,-3,-3,1,2,7,0
1470243635500740,1,9,8,8,0,-1,0,3
1470243635500740,2,-35,-7,-2,2,0,2,1
1470243635502243,4,1,4,-6,-2,0,-10,2
1470243635502243,5,15,-13,-4,-1,1,4,1
1470243635523305,5,-11,9,2,0,-1,-1,0
1470243635523305,1,42,-5,0,1,2,-17,-5
1470243635524802,-6,-1,9,2,-2,-1,0,0
1470243635524802,-4,-11,10,5,0,0,-2,-1
1470243635536772,-7,-19,-16,-5,-2,1,2,2
1470243635536772,-4,-9,8,11,2,-1,-5,-6
1470243635545794,-9,-23,-14,-19,-3,-2,4,-4
1470243635545794,0,5,10,1,-1,-3,-6,0
1470243635560795,-3,-3,10,7,4,0,1,-2
1470243635560795,-4,-6,-7,-9,-4,-1,2,0
1470243635562297,-3,4,4,5,-1,-3,-3,0
1470243635562297,1,-17,-8,-9,-2,-1,1,1
1470243635583395,0,-6,2,4,-2,-1,-1,-2
1470243635583395,0,-6,7,-1,-1,-2,4,2
1470243635584821,-1,7,-16,0,-1,-1,-1,-2
1470243635584821,1,7,1,-3,-2,0,1,2
1470243635596860,-6,2,-2,0,0,-1,1,2
1470243635596860,-6,-6,-4,0,0,2,1,3
1470243635605834,-6,-3,2,-4,-4,-2,1,-5
1470243635605834,0,-8,-8,2,0,-2,-7,-2
1470243635620871,-3,7,-6,-3,-1,-2,2,-3
1470243635620871,6,1,-3,-3,-1,1,-3,2
1470243635622349,4,-17,-5,-1,1,-3,8,0
1470243635622349,-4,-10,-3,-3,-2,-5,-6,-2
1470243635643386,0,5,9,0,0,3,4,3
1470243635643386,-5,-29,-12,-5,-4,-4,-3,-6
1470243635644869,5,21,7,2,0,2,9,6
1470243635644869,2,3,3,-2,-1,-1,-7,1
1470243635656922,2,-5,-8,-5,-1,0,-5,-5
1470243635656922,0,6,1,1,0,-3,6,-1
1470243635665889,0,-4,0,0,0,-2,-13,0
1470243635665889,3,31,-2,-3,-3,-3,0,0
1470243635680902,-9,-10,-2,0,2,0,2,-1
1470243635680902,-1,7,1,-3,-3,2,7,0
1470243635682405,-4,-9,9,4,-1,0,-4,-2
1470243635682405,-2,-15,-37,-6,-1,0,-1,0
1470243635703422,-4,-5,0,2,-2,-1,-6,-3
1470243635703422,-2,6,0,0,0,0,0,-1
1470243635704930,4,-9,4,-1,-2,0,-3,-2
1470243635704930,0,-5,5,3,-1,-2,1,-1
1470243635716997,-3,4,-2,3,-1,-1,0,-1
1470243635716997,-1,-3,-4,-4,0,-2,-1,-1
1470243635725942,-4,8,-5,4,-1,0,-2,0
1470243635725942,-3,-12,3,-4,0,-1,3,2
1470243635740956,-3,-4,-8,7,-3,-3,-12,-11
1470243635740956,-2,-1,3,-6,-2,-3,-4,-2
1470243635742457,-4,-11,-8,-5,-4,0,1,-2
1470243635742457,-3,-1,5,0,-2,1,1,0
1470243635762976,0,4,6,0,0,0,-2,2
1470243635762976,0,-6,9,2,0,-3,-2,-2
1470243635764977,-2,12,-24,-3,-1,-3,-2,-4
1470243635764977,-4,-13,-3,3,-1,0,2,-1
1470243635777491,6,9,-3,-7,-2,-1,-1,3
1470243635777491,-3,9,4,2,0,-2,-1,-1
1470243635784495,-2,8,5,-3,0,-1,2,0
1470243635784495,-1,-9,-2,2,-1,2,0,-1
1470243635801087,-6,0,-1,-3,1,1,-1,-2
1470243635801087,1,6,-3,-3,-2,3,3,0
1470243635802511,-2,-7,3,3,0,-1,6,3
1470243635802511,1,9,2,-2,-1,1,10,0
1470243635823586,0,-2,-4,-2,-1,-5,-14,0
1470243635823586,-3,0,-5,2,1,-2,-2,-4
1470243635825073,-2,-18,2,-1,2,1,-2,0
1470243635825073,0,4,2,-2,-1,-2,-3,-3
1470243635837042,-1,-7,-3,-4,-2,1,7,1
1470243635837042,-1,-2,-3,2,-2,-1,-2,2
1470243635846065,1,14,6,-1,-2,-1,-3,-5
1470243635846065,-1,-9,-2,-1,-2,-2,-1,1
1470243635860590,2,4,0,1,0,-1,1,-2
1470243635860590,6,8,8,0,-2,-3,-2,3
1470243635862565,-6,-11,-21,-5,-1,0,-1,-1
1470243635862565,-3,-1,6,5,0,0,-3,-2
1470243635883113,1,0,-1,-6,-2,0,2,1
1470243635883113,-1,-14,0,-2,-1,0,0,0
1470243635885086,0,3,5,1,-2,-1,-2,-1
1470243635885086,0,-2,-5,-1,0,-2,-3,-2
1470243635897096,1,-1,1,-1,-1,-1,1,0
1470243635897096,0,-4,-3,-7,-1,1,5,3
1470243635905604,0,-2,4,-2,-1,-1,-3,-2
1470243635905604,-1,4,0,6,-1,0,-2,-1
1470243635920658,-1,1,2,-7,-1,-1,-1,-2
1470243635920658,-1,0,-6,1,-1,0,2,-1
1470243635922119,-2,-15,6,0,0,-2,-3,-2
1470243635922119,0,1,1,-3,-2,-2,-2,-1
1470243635943137,3,1,-3,0,-1,-3,1,2
1470243635943137,-3,-12,-8,-1,-2,0,1,-3
1470243635944641,0,-3,2,4,0,-1,-4,0
1470243635944641,-3,-4,1,-5,-2,-1,0,-3
1470243635957169,-5,0,-2,-1,-2,-3,-14,-3
1470243635957169,2,14,-7,-2,-3,-2,-4,-2
1470243635965657,1,1,3,-1,-3,0,1,-1
1470243635965657,-2,-2,-1,0,1,-1,-2,0
1470243635980671,0,5,0,-7,-2,-2,5,0
1470243635980671,-5,-13,-2,-4,-2,-2,-1,1
1470243635982174,-3,4,2,4,0,-1,-13,-8
1470243635982174,2,-4,-2,-3,-2,0,3,-2
1470243636003222,-1,-1,-3,3,-2,-3,2,-1
1470243636003222,-2,-3,-1,1,-1,-2,-5,-4
1470243636004746,0,1,-3,-5,-1,-2,1,0
1470243636004746,-2,-7,-2,-1,-2,1,-1,0
1470243636025740,-2,-8,-3,-1,-2,-1,1,-1
1470243636025740,-1,-1,0,-1,0,-1,-5,-2
1470243636027213,1,5,-2,1,-1,-1,3,1
1470243636027213,-1,3,-2,-5,-2,-2,-2,-3
1470243636040769,0,-5,0,-1,0,-1,3,-1
1470243636040769,0,2,-3,-2,-1,-1,0,-2
1470243636042226,-3,-2,3,-1,0,0,0,0
1470243636042226,-2,1,-1,-2,-1,-1,-2,0
1470243636063246,0,-2,-4,0,1,-3,0,-3
1470243636063246,-1,4,-2,-4,-1,0,-3,-1
1470243636064748,-1,-12,3,-7,-2,0,5,3
1470243636064748,-1,-5,-10,-2,-2,-1,-3,1
1470243636076821,-2,9,0,-5,-2,1,0,-1
1470243636076821,-1,-28,-5,3,0,-1,-1,-3
1470243636085765,1,34,-2,-4,-2,-2,-1,0
1470243636085765,1,-8,5,4,1,-1,-1,-3
1470243636100839,-3,-2,-2,-2,-3,-1,-2,-1
1470243636100839,-1,-1,2,3,1,0,1,0
1470243636102282,-1,-10,0,0,-2,-1,0,-1
1470243636102282,-2,-5,0,0,-3,-1,-2,-2
1470243636123373,2,7,1,8,-2,0,-3,-2
1470243636123373,0,7,-4,-15,-2,-1,-2,-2
1470243636124801,-3,-6,-2,7,-1,-1,-2,-1
1470243636124801,-2,8,-3,-16,0,-2,-2,0
1470243636136859,1,-11,0,0,1,-1,1,-1
1470243636136859,-3,10,5,5,0,0,-2,2
1470243636145822,0,-10,1,0,0,-1,0,-1
1470243636145822,-3,15,4,3,-3,-2,-1,-4
1470243636160833,3,-4,0,-2,0,-2,1,0
1470243636160833,-2,-11,-2,-2,-3,-1,-1,-1
1470243636162334,-7,0,-2,1,-2,-2,-1,-1
1470243636162334,2,5,2,2,2,-1,-5,0
1470243636183352,-2,-6,-4,-5,-1,-1,0,0
1470243636183352,2,-10,10,-2,1,0,0,0
1470243636184855,0,20,-17,-9,-5,-5,-1,-2
1470243636184855,-2,-14,-3,3,-2,-1,1,0
1470243636196865,-1,3,3,-3,-4,-2,-1,0
1470243636196865,-2,-3,-2,6,-4,-3,0,-1
1470243636205874,4,2,2,4,4,0,-1,-2
1470243636205874,-5,-15,-2,-12,0,0,0,-1
1470243636220887,-3,-8,-3,3,1,1,-1,1
1470243636220887,-1,11,-2,-4,-1,-1,-6,-5
1470243636222392,-3,-16,-1,1,-4,0,1,0
1470243636222392,-6,11,-3,4,-3,-2,0,-2
1470243636243407,6,6,8,3,1,1,-2,-2
1470243636243407,-11,3,-2,-4,4,0,2,0
1470243636244908,-6,-9,-7,-5,1,0,1,-3
1470243636244908,3,-3,-1,-6,-6,-4,-12,-1
1470243636256999,-11,-7,-5,-3,-3,-3,0,1
1470243636256999,8,1,-1,1,-4,-2,2,2
1470243636265927,2,4,2,-5,-1,-2,-11,-6
1470243636265927,2,13,-4,1,-1,1,4,1
1470243636279939,1,7,4,8,2,1,0,1
1470243636279939,4,-4,-5,-1,1,-2,-2,-2
1470243636286958,-12,-13,1,-5,-2,1,3,-3
1470243636286958,3,7,8,12,-1,-3,-1,-3
1470243636303511,-1,-9,-10,-10,-1,-1,-4,-3
1470243636303511,-2,-17,1,-2,-1,1,2,0
1470243636304963,3,-2,-15,0,0,-1,0,1
1470243636304963,-3,2,-3,-3,-2,0,0,-1
1470243636316980,7,2,3,1,-3,-2,-1,1
1470243636316980,-3,5,0,3,-1,-1,-1,0
1470243636325981,4,3,1,-1,3,0,8,2
1470243636325981,-6,-12,-1,0,0,-1,-7,1
1470243636340049,0,3,-5,4,-2,-1,1,-3
1470243636340049,-3,-8,-2,-10,-5,-2,-2,0
1470243636346999,2,7,2,-1,-2,1,2,2
1470243636346999,0,-4,1,0,0,-1,7,1
1470243636363017,-9,-35,-5,-2,-2,-2,1,-3
1470243636363017,3,20,1,2,-3,-1,-8,-3
1470243636365016,-2,9,4,2,-1,-2,9,0
1470243636365016,-1,-13,-2,-4,1,-2,-12,-1
1470243636393042,1,-3,1,-4,-2,0,5,5
1470243636393042,5,-1,-1,0,-1,-2,2,2
1470243636394042,3,12,4,0,-1,2,-6,1
1470243636394042,-9,-6,-4,-5,-2,-2,1,-4
1470243636408055,-7,11,0,-2,-1,-1,-3,-2
1470243636408055,-1,2,-2,0,-2,-2,-3,0
1470243636409056,5,3,0,4,-4,-4,-6,-2
1470243636409056,1,-2,3,-3,1,1,3,0
1470243636422567,-1,8,-3,3,8,3,-5,1
1470243636422567,-3,-15,-3,2,-2,-2,2,-4
1470243636423070,0,-6,-1,-5,0,-3,-6,-1
1470243636423070,3,0,-7,-5,-3,-1,1,0
1470243636445089,-1,-3,-1,-6,-5,-1,-2,-4
1470243636445089,0,15,0,-2,-2,-2,-2,-1
1470243636446089,-2,-10,8,10,2,-1,4,5
1470243636446089,3,-17,-4,0,-1,-2,-2,-2
1470243636468144,-4,-1,4,3,-2,-5,-2,-4
1470243636468144,-5,-3,-6,-3,-2,-2,-4,-1
1470243636469109,-2,-6,1,-4,-5,-2,2,-1
1470243636469109,1,8,-5,0,0,-1,-7,1
1470243636482657,-1,-3,2,-4,3,0,-1,-3
1470243636482657,-2,-1,2,6,1,-1,-1,-1
1470243636483122,1,1,-4,-5,1,0,-4,-2
1470243636483122,-6,1,-7,-6,-2,0,1,-2
1470243636505176,2,8,2,-2,-4,-2,-2,0
1470243636505176,5,0,-4,9,-4,-3,-1,0
1470243636505644,-10,-7,-8,-6,2,1,2,-6
1470243636505644,1,-2,6,3,0,0,-7,0
1470243636528219,-5,1,-6,-3,1,-1,1,1
1470243636528219,-4,-8,0,-8,1,-1,-1,-1
1470243636528682,2,1,1,6,-5,-1,-2,0
1470243636528682,-1,-13,-5,-4,0,-1,3,-2
1470243636542824,1,12,4,9,1,0,0,1
1470243636542824,-1,0,-5,-13,-1,2,2,-1
1470243636543176,7,0,3,4,1,-1,-7,0
1470243636543176,-4,1,0,-3,-3,0,11,-1
1470243636565201,5,3,-4,1,-7,-2,-22,-3
1470243636565201,-3,-2,-1,-1,2,1,9,1
1470243636565697,-7,-13,-1,7,-5,-3,-4,-1
1470243636565697,8,8,1,-10,11,-5,5,2
1470243636579236,-4,-5,2,-9,-4,-1,-18,-7
1470243636579236,-1,6,0,1,1,8,22,-1
1470243636587747,2,-5,2,2,-1,-4,-27,0
1470243636587747,5,3,0,2,-11,-6,-3,-4
1470243636602824,-4,-3,-1,14,3,-5,9,-1
1470243636602824,-4,-12,-3,-6,-48,-13,-10,-3
1470243636603230,2,28,3,-3,43,7,2,-4
1470243636603230,0,-16,-6,-1,-5,7,4,3
1470243636624749,1,4,-4,-10,-10,-10,-2,-3
1470243636624749,5,2,2,11,10,4,-3,3
1470243636625751,-18,-3,-4,-14,-9,0,2,-3
1470243636625751,11,0,2,4,7,2,10,3
1470243636639263,2,-4,0,3,10,15,0,0
1470243636639263,0,-1,-2,9,-13,-12,5,0
1470243636647770,3,4,-3,-21,-14,-4,-16,1
1470243636647770,-5,3,2,2,7,2,-4,-8
1470243636662783,-18,-6,2,12,-8,-3,2,-2
1470243636662783,5,9,-5,-20,17,-1,-3,1
1470243636663284,-2,-6,0,-1,-2,1,9,2
1470243636663284,4,8,1,15,25,14,-1,5
1470243636685319,17,11,0,-4,14,-1,2,0
1470243636685319,-27,-21,-6,0,-7,-3,-10,-2
1470243636685804,20,2,-1,0,8,2,18,2
1470243636685804,-26,-4,2,19,-29,-8,-24,-13
1470243636699344,16,3,-8,-18,15,-4,4,3
1470243636699344,-34,-32,3,9,3,3,-1,-3
1470243636707824,13,10,0,-11,-13,0,-2,2
1470243636707824,3,4,-1,0,-9,-1,1,1
1470243636722839,-3,-2,2,-12,10,-3,4,2
1470243636722839,7,-4,-4,-12,-26,-5,-11,-8
1470243636723348,-11,14,3,31,39,4,-3,-1
1470243636723348,4,2,-7,-22,-17,-2,0,-3
1470243636745369,11,10,2,-2,20,0,-11,-3
1470243636745369,-25,-35,-1,11,-1,10,0,-11
1470243636745863,-6,22,-2,-14,-28,-6,10,4
1470243636745863,7,-14,-2,-7,3,4,-14,-11
1470243636759390,-8,-4,-4,0,-58,-23,-10,2
1470243636759390,7,15,-6,-20,54,7,-4,-1
1470243636767378,-8,-13,0,6,-12,-2,-7,-9
1470243636767378,6,-1,-2,-18,28,-3,-4,9
1470243636782417,-18,10,5,11,-51,-6,3,-4
1470243636782417,11,5,-5,-4,6,-7,-10,0
1470243636783393,-2,-29,-2,5,-49,3,10,0
1470243636783393,-10,9,3,-8,50,-3,5,4
1470243636804914,10,-4,4,22,-18,17,6,-1
1470243636804914,-8,19,5,-4,28,1,-4,0
1470243636805912,3,-16,-13,-24,-68,-31,-7,1
1470243636805912,6,-16,3,-5,-15,0,3,-2
1470243636819445,2,-1,1,10,-27,9,8,4
1470243636819445,11,9,2,5,53,12,13,9
1470243636827431,-2,-7,-2,-3,-26,1,-2,-4
1470243636827431,-1,20,2,-4,-27,-31,-5,0
1470243636842455,-10,-11,-13,-13,49,5,-3,-6
1470243636842455,12,7,7,4,-80,-7,-3,5
1470243636843445,-6,-20,-9,-23,77,19,2,-4
1470243636843445,-20,1,-3,4,-28,-2,-4,-6
1470243636864965,7,5,4,-10,2,-8,0,-1
1470243636864965,-1,-27,0,0,51,-6,-7,-7
1470243636865967,-22,34,11,20,-8,10,-5,-7
1470243636865967,10,-5,-8,4,57,17,8,-2
1470243636879478,0,-7,-2,3,-8,4,4,5
1470243636879478,9,3,-1,-1,-17,18,-4,-1
1470243636887512,3,-6,-1,-2,-22,-22,0,-2
1470243636887512,-12,10,-2,-1,-22,-8,7,2
1470243636910561,2,2,2,-18,-29,-13,-5,-4
1470243636910561,-1,8,2,22,49,22,-6,0
1470243636911508,7,-5,-5,-12,32,8,0,2
1470243636911508,6,-25,0,10,-26,2,0,4
1470243636925062,5,-20,-15,-7,4,-10,-26,-13
1470243636925062,-3,35,14,1,-49,-22,0,-3
1470243636926041,-27,-17,-9,0,11,0,-7,-8
1470243636926041,4,-2,0,-10,5,1,-2,1
1470243636939532,-6,3,-14,4,0,-3,7,4
1470243636939532,-2,-4,-1,-10,-1,-2,-8,-3
1470243636947557,11,-1,11,11,29,5,-2,-5
1470243636947557,5,5,-5,6,-5,-6,2,-2
1470243636962605,-18,-36,-1,0,16,9,5,5
1470243636962605,16,32,2,-15,-25,-9,-3,-2
1470243636963054,-10,-10,-3,12,-19,-8,-26,-4
1470243636963054,-13,30,4,-8,7,1,-5,-7
1470243636985112,-3,-6,-2,-15,-13,-4,3,1
1470243636985112,5,-6,2,24,1,10,14,4
1470243636985581,16,-4,-4,-4,18,8,-2,3
1470243636985581,-18,-8,0,1,9,-6,6,0
1470243637009637,1,16,8,-2,-22,-8,-7,0
1470243637009637,1,-12,-10,-9,16,-1,4,0
1470243637010596,-3,-5,2,28,10,6,11,1
1470243637010596,1,6,-12,-8,-28,-4,6,1
1470243637022633,2,-7,7,-4,26,2,9,2
1470243637022633,1,3,-2,-2,-31,-7,-4,0
1470243637023125,10,3,-1,-25,11,2,5,5
1470243637023125,7,-7,-7,15,-22,-9,-5,-1
1470243637045127,-7,-19,4,-11,27,4,-3,-10
1470243637045127,1,2,2,20,24,12,0,4
1470243637045627,-9,-10,-6,-11,-23,-11,-9,-8
1470243637045627,14,1,2,-11,-6,-2,-7,5
1470243637059709,-20,0,-1,18,17,10,5,4
1470243637059709,-11,-14,-1,15,-7,-11,-7,-3
1470243637067647,3,10,-11,-33,-68,-23,4,-1
1470243637067647,-17,-12,10,6,49,30,7,-9
1470243637082660,12,13,-5,11,5,-6,-29,1
1470243637082660,16,-1,0,-13,11,-2,18,5
1470243637083161,-11,2,3,28,-8,-1,-20,-1
1470243637083161,0,-2,2,-14,-21,-9,11,2
1470243637105185,-10,-2,-8,-22,-34,-7,9,-2
1470243637105185,4,2,-8,-9,-5,-7,-1,1
1470243637105683,6,7,2,-7,21,3,-7,1
1470243637105683,-3,-2,5,13,1,9,1,3
1470243637119704,4,15,8,6,32,7,6,0
1470243637119704,-6,-28,-17,-14,-55,-14,-8,0
1470243637127750,-6,13,4,-8,80,7,10,-2
1470243637127750,14,-2,8,4,-50,7,1,4
1470243637142714,-15,11,-2,14,44,-1,6,-2
1470243637142714,-6,-6,4,6,7,-1,-2,-2
1470243637143219,10,-7,-7,-17,-54,-12,4,8
1470243637143219,-9,12,-8,16,34,9,-11,-9
1470243637165236,1,-3,5,8,-30,-7,4,1
1470243637165236,-5,-15,-5,0,8,-4,-4,3
1470243637165735,2,-9,-3,-2,30,15,10,3
1470243637165735,5,7,3,13,-7,-17,-5,2
1470243637188311,1,2,-3,-14,-16,6,2,2
1470243637188311,-17,-5,-3,-3,4,1,4,-10
1470243637189256,14,-12,4,-7,-30,-11,8,4
1470243637189256,-34,15,0,-2,18,3,-12,-8
1470243637202269,10,-5,-5,15,17,3,0,-1
1470243637202269,1,6,6,-11,-17,-5,-2,-5
1470243637203303,14,0,-4,3,1,0,-3,-1
1470243637203303,-2,-12,-2,-3,1,-2,-3,-5
1470243637225289,-4,-7,1,-5,8,2,4,-1
1470243637225289,4,11,-4,-11,-8,-3,-4,1
1470243637225789,0,-1,-5,19,3,1,2,-4
1470243637225789,12,26,0,-10,-8,-6,1,4
1470243637239303,-19,-38,-7,-13,-14,-4,-18,-14
1470243637239303,11,3,0,7,3,0,0,0
1470243637247809,-18,19,7,-6,9,2,-3,-5
1470243637247809,5,-17,-7,-6,-8,-7,0,4
1470243637262823,-4,14,2,-2,-2,0,5,2
1470243637262823,13,0,3,-3,4,2,-2,0
1470243637263323,-9,-4,-2,-4,-7,-3,0,0
1470243637263323,22,-11,-1,18,1,-3,-3,-1
1470243637285342,-21,-1,-4,-20,-5,1,4,-5
1470243637285342,-9,-5,-1,-1,1,-2,-21,0
1470243637285843,2,9,-2,10,0,-2,5,0
1470243637285843,1,-15,-1,-6,-7,-1,-10,-5
1470243637308377,8,9,-3,3,3,0,1,1
1470243637308377,-7,-10,-3,0,1,-6,4,-1
1470243637308863,-1,-7,2,0,14,7,-11,-3
1470243637308863,-5,1,-1,-13,-41,-9,11,2
1470243637322942,7,1,0,6,15,-2,0,1
1470243637322942,2,18,2,-9,27,13,5,1
1470243637323379,4,-5,3,10,4,0,4,0
1470243637323379,-24,-14,-1,-1,-5,-4,-7,-7
1470243637344923,11,7,-2,-6,-14,-2,-1,4
1470243637344923,-4,5,-3,-8,-27,-10,-4,-4
1470243637345897,-12,-20,1,5,7,1,-1,-3
1470243637345897,4,-3,-7,1,13,5,-3,0
1470243637368417,9,-1,-3,-4,-12,-4,-1,-3
1470243637368417,0,20,4,-3,7,2,-2,-3
1470243637368918,-15,5,1,11,-11,1,1,-2
1470243637368918,2,-23,-9,-23,6,0,5,1
1470243637382462,6,-19,2,21,4,3,1,1
1470243637382462,7,2,-3,-5,0,3,4,2
1470243637383433,-13,-2,-1,4,-4,-3,-2,-4
1470243637383433,7,12,7,-4,-5,-3,0,-1
1470243637404976,-3,-1,-5,4,9,2,2,2
1470243637404976,-4,-4,1,-9,-35,-7,-1,-1
1470243637405961,14,14,2,6,52,6,5,7
1470243637405961,-2,2,-2,3,-4,9,-3,-2
1470243637428486,1,8,-2,-1,9,-6,1,-4
1470243637428486,5,7,-1,1,2,-6,-7,-6
1470243637429001,-3,-14,-5,-6,-11,-1,-1,-4
1470243637429001,-9,-1,0,-5,-5,-1,2,3
1470243637442539,4,4,4,-2,6,-3,1,-6
1470243637442539,-19,-10,-3,3,-23,-5,-4,-2
1470243637442987,3,2,-10,-27,-7,-4,5,-1
1470243637442987,1,2,-1,10,-1,-1,-2,0
1470243637465029,-4,-3,0,-15,-8,0,-7,-3
1470243637465029,1,-5,1,3,10,2,-4,-2
1470243637466005,1,-7,3,-3,-27,-5,-4,-3
1470243637466005,1,13,8,7,15,-5,-1,-5
1470243637488024,1,-20,-21,-10,-4,3,0,-3
1470243637488024,3,-5,1,14,30,17,1,-1
1470243637489026,5,8,13,4,12,5,1,1
1470243637489026,-31,-7,-18,-12,-27,-19,-13,-11
1470243637502572,0,2,3,-1,-16,-4,-7,3
1470243637502572,-1,1,-6,-1,-16,-6,13,-1
1470243637503042,12,7,3,-6,13,-10,-16,-2
1470243637503042,8,-14,-2,-11,-4,12,19,6
1470243637525096,-16,3,3,18,17,12,-25,-4
1470243637525096,3,-2,2,22,-92,-8,-5,3
1470243637525576,2,2,-4,-8,61,0,11,0
1470243637525576,-4,-9,1,-6,-21,-21,-4,-2
1470243637548154,5,14,-7,-15,-47,-32,-1,-3
1470243637548154,6,9,7,8,49,17,0,5
1470243637549079,5,7,-3,26,-26,80,-2,-3
1470243637549079,4,-6,0,26,126,-7,-23,2
1470243637562634,-10,-1,4,-40,-103,-33,26,2
1470243637562634,-10,-17,-6,2,-1,-51,-17,-7
1470243637563593,-10,5,-15,-27,9,4,7,-9
1470243637563593,1,4,3,3,30,5,-9,-1
1470243637585152,5,-24,-11,15,6,2,10,3
1470243637585152,0,26,8,-13,-27,-10,6,6
1470243637585612,-1,-32,-16,20,-10,-9,-6,-2
1470243637585612,1,51,0,-27,-16,27,0,-2
1470243637608167,6,-6,-3,2,11,-10,-1,-1
1470243637608167,9,8,-5,-11,55,12,13,-7
1470243637609135,-23,-2,5,-6,-34,-16,6,13
1470243637609135,2,-1,8,8,-53,-12,-8,-11
1470243637622678,-2,3,6,10,-8,5,-9,11
1470243637622678,0,-14,-12,-25,96,22,8,1
1470243637623148,4,10,9,11,-62,-38,4,2
1470243637623148,6,-17,-14,-10,95,47,-7,-1
1470243637645166,1,17,15,22,11,17,15,0
1470243637645166,0,-16,3,31,-67,-11,-8,1
1470243637645718,-5,-10,-7,10,68,2,-9,-11
1470243637645718,6,-6,5,-5,-43,-7,2,6
1470243637668229,-13,-6,-5,-27,-66,-22,-27,-9
1470243637668229,-6,-2,-5,-29,25,-36,-2,-3
1470243637669214,11,-2,-5,3,-11,-1,-16,-6
1470243637669214,11,22,0,51,90,37,1,1
1470243637690209,-4,-24,-2,3,12,36,36,6
1470243637690209,-29,-10,4,-4,-47,-27,-45,-15
1470243637697713,-4,1,-6,-39,-82,-40,47,12
1470243637697713,0,-3,-5,-12,-84,-18,-49,-9
1470243637705237,4,-4,5,12,76,14,13,4
1470243637705237,10,4,1,36,63,35,21,16
1470243637705730,7,17,9,-10,22,7,-28,1
1470243637705730,-8,-13,2,-4,-101,-29,12,-3
1470243637728240,0,-2,-11,-13,3,-24,-17,-7
1470243637728240,1,16,5,0,68,22,7,0
1470243637729242,-5,5,8,17,-50,22,-8,-7
1470243637729242,3,-6,-9,-35,-49,-62,-6,6
1470243637742753,14,22,0,15,81,48,-6,-3
1470243637742753,8,11,-11,-20,-49,-8,15,-2
1470243637743253,-17,-40,2,35,26,-14,-21,-2
1470243637743253,-9,2,2,-35,-43,8,3,-4
1470243637765273,10,14,10,6,4,16,1,4
1470243637765273,10,-4,4,15,-105,-34,12,5
1470243637765773,3,4,-23,-41,74,9,-16,0
1470243637765773,-22,-20,-5,21,-67,20,12,-2
1470243637788347,-7,4,-2,-45,-23,-27,19,-3
1470243637788347,9,-12,-3,3,74,-1,-18,-5
1470243637788795,3,2,-5,-28,-94,-30,-28,-9
1470243637788795,3,-8,9,50,8,78,31,12
1470243637802807,0,8,-2,-16,-15,-18,-35,-3
1470243637802807,-11,-2,-2,-11,-128,-20,15,4
1470243637803314,15,6,4,15,14,22,18,2
1470243637803314,-27,-23,-2,27,87,42,-14,-8
1470243637825360,3,20,11,27,-27,-11,25,3
1470243637825360,3,-11,-21,-62,-70,-52,-46,2
1470243637825828,-14,9,1,-38,26,-45,28,-8
1470243637825828,18,9,0,2,28,72,82,12
1470243637848348,-14,-15,-4,38,-18,-26,-38,-19
1470243637848348,-15,-15,-5,-29,-66,-6,-10,1
1470243637848849,16,0,-3,19,33,-13,-10,-10
1470243637848849,-9,7,0,15,115,31,13,5
1470243637861878,0,-4,12,29,-66,54,1,-6
1470243637861878,8,0,-2,-30,-38,-53,28,11
1470243637870368,-11,-27,-2,24,20,36,-5,-2
1470243637870368,4,2,-3,-45,-83,-111,-45,-8
1470243637884881,-1,0,-8,-1,91,17,2,0
1470243637884881,16,12,3,41,71,75,-11,-4
1470243637885884,-31,-40,-9,-18,-33,-19,5,-1
1470243637885884,6,11,-3,3,17,-43,-23,-6
1470243637908406,0,-1,-8,-70,-80,-95,1,2
1470243637908406,-3,5,0,47,107,111,3,-8
1470243637908906,11,8,12,50,57,-20,25,13
1470243637908906,7,11,-4,-33,-27,-27,11,-1
1470243637921914,8,-16,-4,32,-34,-28,-19,2
1470243637921914,-32,-9,-7,-53,-82,-71,-2,-12
1470243637930422,15,11,3,13,98,73,-24,5
1470243637930422,-12,-6,7,25,-19,13,4,-4
1470243637944935,12,12,-4,8,42,45,13,7
1470243637944935,-9,1,6,-1,0,-13,-2,-7
1470243637945936,-4,-11,-26,-25,-85,-36,2,2
1470243637945936,6,-1,-13,-60,-88,-91,-28,-7
1470243637968456,-9,6,15,43,96,112,0,-1
1470243637968456,3,3,29,33,-2,-8,23,12
1470243637968956,-8,0,-19,2,-19,-15,-17,-6
1470243637968956,12,22,6,-35,-10,-10,2,4
1470243637981967,-20,-33,-14,13,6,-29,-4,-9
1470243637981967,15,21,10,-15,18,89,5,7
1470243637989975,-5,-22,15,22,-41,-58,0,-1
1470243637989975,-6,-25,-9,-1,40,6,-7,-5
1470243638004989,6,-3,4,-16,3,34,8,7
1470243638004989,-9,-24,-14,4,-19,-57,-10,-9
1470243638005489,5,21,4,-69,-17,16,-4,-2
1470243638005489,-1,-3,4,74,51,32,5,2
1470243638028009,-3,2,-5,-21,10,-21,-11,-7
1470243638028009,-15,-15,-7,7,22,1,-24,-17
1470243638029010,5,34,12,-12,-36,24,11,7
1470243638029010,-10,-16,-14,-9,-35,-24,-10,-9
1470243638042021,2,26,5,-1,-12,-39,6,3
1470243638042021,1,-2,5,-14,18,8,-9,-2
1470243638050028,6,-12,12,43,-4,26,0,-2
1470243638050028,1,20,-7,-17,18,-12,1,0
1470243638065042,-8,-13,-20,-12,32,31,-6,0
1470243638065042,4,2,-18,13,-41,-27,6,-1
1470243638065543,-4,3,24,5,42,7,0,-2
1470243638065543,6,-15,-1,5,-25,11,10,7
1470243638088063,6,-3,-10,-22,-46,-24,-6,-4
1470243638088063,-6,-4,-4,9,94,26,-3,0
1470243638089065,0,2,-2,-3,-66,-17,14,1
1470243638089065,-3,1,3,-3,-21,-10,-11,-2
1470243638102076,6,19,0,-1,75,4,-3,-4
1470243638102076,-14,-16,3,28,-11,8,5,1
1470243638110083,-4,13,-3,-7,-40,-34,-8,-10
1470243638110083,8,-9,-4,-5,114,62,0,-2
1470243638125096,-14,-17,8,-8,-128,-19,-4,-4
1470243638125096,5,12,-2,-9,13,-2,6,0
1470243638125597,3,10,-3,8,5,12,13,2
1470243638125597,-4,-7,1,1,-49,-30,2,5
1470243638148117,1,-7,-9,-16,-15,-13,-5,-6
1470243638148117,5,11,6,16,62,27,0,1
1470243638149118,-6,-22,-9,-2,-38,-11,-4,-1
1470243638149118,3,-4,2,-1,12,-2,-1,-2
1470243638161630,4,14,8,11,12,2,5,3
1470243638161630,1,-6,-3,-21,-37,-16,1,-2
1470243638170137,0,2,-2,1,26,8,-1,2
1470243638170137,-5,-5,-4,2,1,4,-2,-1
1470243638185150,-4,-8,-3,5,-4,-8,-3,-2
1470243638185150,3,-16,4,-15,-13,-9,0,0
1470243638185651,-1,13,-9,8,30,15,-3,1
1470243638185651,0,-12,4,3,-15,2,4,-1
1470243638208170,-4,-2,-2,-14,-1,-15,0,0
1470243638208170,6,-6,-5,19,14,9,-2,-1
1470243638209171,0,7,1,-16,-11,-2,-5,0
1470243638209171,1,1,7,-15,-23,-12,0,-2
1470243638221683,-12,-8,-7,3,-9,-5,0,0
1470243638221683,5,10,1,-7,-6,-5,-4,-1
1470243638230191,-1,-10,0,9,24,11,0,0
1470243638230191,-4,5,-5,-10,-18,-2,-2,-3
1470243638245205,8,-1,5,3,-5,-7,0,2
1470243638245205,-4,3,-2,3,-7,4,4,-1
1470243638245705,-2,-4,-3,-4,7,4,-2,-4
1470243638245705,0,5,-1,7,-18,-7,1,-1
1470243638268227,0,6,2,-3,25,2,-9,-2
1470243638268227,-1,-1,-2,1,-39,-17,-4,-1
1470243638269225,-1,0,-4,-7,4,9,-5,-1
1470243638269225,-3,-5,1,9,7,2,-11,-7
1470243638290745,1,16,-3,0,-3,-5,2,2
1470243638290745,-11,-14,1,-16,-14,-4,3,-1
1470243638291747,4,25,-5,-3,-1,-9,-11,0
1470243638291747,-6,-20,1,-4,2,2,3,-1
1470243638305262,0,-9,0,16,-7,0,-1,0
1470243638305262,1,-2,-10,-4,14,0,-1,0
1470243638305758,-2,-18,-1,-6,-14,0,0,-4
1470243638305758,2,28,5,15,3,-2,5,3
1470243638335864,-3,-15,-4,-19,-10,-3,-5,-3
1470243638335864,2,2,-1,6,10,2,-8,-2
1470243638336293,-17,-8,-2,-17,-28,-11,8,-2
1470243638336293,6,3,-2,15,31,3,-3,8
1470243638350803,6,-5,3,3,-19,3,4,3
1470243638350803,-8,5,-5,-3,-3,0,-3,-3
1470243638351302,-3,4,1,4,33,3,1,-3
1470243638351302,3,-11,-5,-8,2,-3,3,-1
1470243638365312,-2,5,-2,0,-28,-10,-4,-1
1470243638365312,0,-3,1,-1,14,3,7,2
1470243638366313,-14,-16,-2,-3,-10,-11,-15,-5
1470243638366313,1,-2,-1,-6,-10,-3,2,1
1470243638388349,-2,-15,4,14,17,2,-5,-2
1470243638388349,-2,10,-13,-15,-5,3,10,2
1470243638388835,5,8,-2,10,-5,-4,1,1
1470243638388835,-1,4,-3,-16,-2,-5,-3,-4
1470243638410880,-6,-11,-1,11,-2,0,4,1
1470243638410880,9,-11,-9,-5,3,1,-8,-1
1470243638411353,0,4,6,0,-5,1,-1,-3
1470243638411353,-8,5,2,7,1,0,-9,-5
1470243638425371,4,11,-7,-16,-3,-2,6,2
1470243638425371,-2,2,2,3,-2,1,0,-1
1470243638425871,6,-18,-2,4,-7,-1,2,3
1470243638425871,-1,6,3,-8,-46,-12,-3,5
1470243638448887,5,-5,-2,-8,97,7,23,4
1470243638448887,-5,-12,2,9,-6,19,-13,-7
1470243638449387,-6,13,3,1,-6,-5,-16,4
1470243638449387,-1,-7,1,9,4,3,14,-3
1470243638470907,0,11,2,-10,-32,-23,-12,-2
1470243638470907,-3,-5,0,4,11,3,-42,-5
1470243638471409,6,-9,1,-5,3,13,50,7
1470243638471409,1,7,1,8,-4,-1,-17,-5
1470243638485009,1,-2,-7,-11,-11,3,-2,-1
1470243638485009,-4,2,1,-1,1,-9,-7,-4
1470243638485920,2,0,-2,0,-4,-4,-13,-5
1470243638485920,-3,-1,-2,5,2,2,5,1
1470243638508441,-4,-5,4,13,-2,4,2,2
1470243638508441,3,-2,-3,-2,4,-5,13,1
1470243638508947,5,8,3,-2,-9,-4,-7,-3
1470243638508947,-10,-12,-3,-5,0,4,18,3
1470243638530961,5,18,5,-2,18,0,-12,-3
1470243638530961,-5,-27,-3,-8,-7,-1,11,4
1470243638531461,0,-2,-5,-7,-33,-11,-2,-4
1470243638531461,4,-3,0,0,35,-2,-7,0
1470243638545474,1,8,0,-4,-27,13,-2,0
1470243638545474,-2,38,8,9,12,-4,14,1
1470243638545974,-1,-8,-1,5,14,7,-12,-1
1470243638545974,-1,-12,-4,-7,-17,-7,-13,-3
1470243638567994,-6,-4,-5,-4,12,-4,4,-2
1470243638567994,2,0,2,5,-4,1,2,-7
1470243638568995,1,5,-2,5,1,-2,-1,1
1470243638568995,-3,0,-4,-9,0,-2,-1,-5
1470243638590530,1,-5,0,-9,-34,-13,-5,-2
1470243638590530,1,-3,-4,-1,-7,-8,-9,-3
1470243638591516,-4,0,-5,-3,9,6,5,-3
1470243638591516,2,1,3,11,5,13,-14,-1
1470243638613535,-6,-5,-7,-12,17,2,35,1
1470243638613535,-3,-1,6,1,-21,-10,-6,3
1470243638614036,-3,-6,-4,-1,0,0,-4,0
1470243638614036,1,4,-2,-7,-4,-11,10,2
1470243638628548,-9,-5,-2,-4,-58,-13,-15,-4
1470243638628548,0,1,-3,0,63,15,-2,-8
1470243638629051,3,-1,5,10,28,2,0,4
1470243638629051,-2,5,-1,-4,-31,-2,6,-1
1470243638650613,-3,-20,1,-4,18,0,-23,-5
1470243638650613,4,-14,-5,-7,-36,-1,18,1
1470243638652571,-26,13,-2,-11,-6,-6,-12,-8
1470243638652571,6,0,0,3,18,4,1,0
1470243638665081,0,8,3,25,-7,6,-15,1
1470243638665081,-4,-5,-5,-15,10,-1,3,9
1470243638665582,6,-7,-3,-5,-16,8,4,-4
1470243638665582,-6,5,1,-1,12,-11,3,1
1470243638688131,0,-6,-7,-12,-34,-10,0,0
1470243638688131,8,7,7,20,24,13,12,3
1470243638689103,4,0,-2,-4,40,11,1,2
1470243638689103,-6,0,0,6,-22,-1,-35,-2
1470243638710678,5,-3,3,6,-8,-8,38,7
1470243638710678,-5,2,-9,-4,4,-16,-5,-4
1470243638711623,9,-4,0,-8,-45,-7,-7,-4
1470243638711623,5,3,-2,3,15,15,5,2
1470243638725177,0,0,2,1,19,13,-13,-10
1470243638725177,-12,-8,-11,-8,4,0,-10,-3
1470243638725636,2,0,-2,17,20,-15,-8,-1
1470243638725636,3,-8,-3,3,34,-14,23,-5
1470243638748162,-2,5,-4,-47,-30,-9,-2,-2
1470243638748162,-7,3,3,12,-83,5,-7,-7
1470243638749157,8,0,0,-3,11,1,-5,1
1470243638749157,10,3,0,41,60,-1,5,7
1470243638770753,-1,5,3,-16,5,-11,-2,4
1470243638770753,2,-23,-6,-12,-50,-11,4,0
1470243638771716,-3,31,9,14,42,34,0,-5
1470243638771716,5,22,6,16,53,23,-5,-1
1470243638785189,-13,-48,-10,27,127,16,8,-3
1470243638785189,5,20,8,-24,-37,-18,-8,7
1470243638785689,-7,-35,-12,3,-109,-38,1,-2
1470243638785689,-11,-13,-10,-42,-49,-45,-15,-8
1470243638808213,2,22,-7,1,-98,-31,-8,3
1470243638808213,4,-15,1,-22,98,4,-19,-8
1470243638809211,2,10,1,14,78,30,8,1
1470243638809211,8,11,4,-8,-15,28,15,5
1470243638830763,7,-12,-1,19,-6,4,-9,-2
1470243638830763,-10,-3,11,15,-11,12,0,5
1470243638831730,-1,5,-7,-13,-20,-22,-3,-8
1470243638831730,-14,1,1,-18,-26,-15,-12,-6
1470243638845248,1,-8,-8,-21,-55,-22,-5,-2
1470243638845248,8,4,0,16,-11,-2,2,-6
1470243638845745,-1,-26,-2,1,48,29,4,2
1470243638845745,-1,12,4,4,-71,-13,4,-2
1470243638868303,-6,-28,-4,-83,-35,-32,-37,-10
1470243638868303,15,22,-7,63,106,63,55,6
1470243638869264,-16,-10,9,45,-67,27,-2,4
1470243638869264,3,-9,11,3,-15,-31,1,3
1470243638890806,-7,32,-6,-39,-98,-23,-15,-10
1470243638890806,-12,-27,14,-46,6,-71,-23,-8
1470243638892318,10,36,-21,-13,24,74,6,-3
1470243638892318,-11,-46,-1,60,56,-17,9,3
1470243638904296,22,43,6,19,74,69,15,5
1470243638904296,-33,-3,20,-12,-31,-24,-2,-4
1470243638913304,-4,-49,-22,-45,-72,-61,-11,-5
1470243638913304,5,43,2,-25,65,19,-10,-2
1470243638926817,-16,-87,-30,41,-7,-1,0,-4
1470243638926817,5,30,2,21,9,5,-2,-1
1470243638935824,-4,1,-7,-37,-121,-48,-3,2
1470243638935824,2,-3,-19,-10,4,1,-6,-6
1470243638950866,16,15,10,16,127,51,10,3
1470243638950866,-12,-13,-14,-25,-106,-5,3,3
1470243638952356,3,-4,-4,18,41,13,0,0
1470243638952356,-5,-30,1,8,-9,11,2,2
1470243638964352,-7,20,34,19,7,-2,5,0
1470243638964352,3,-6,-12,4,23,1,-10,-8
1470243638973358,3,22,-3,-44,-71,-61,-9,0
1470243638973358,-4,1,-12,8,32,16,-2,-3
1470243638995879,1,13,-2,27,86,69,8,5
1470243638995879,5,32,29,-15,-59,-40,-4,1
1470243638997379,-13,-37,-10,-22,-1,9,-1,-3
1470243638997379,2,15,13,23,0,-5,1,-1
1470243639010892,-8,-18,-10,-19,-52,-24,-12,-4
1470243639010892,14,6,-10,29,83,5,0,10
1470243639012393,5,-8,17,36,41,27,4,-5
1470243639012393,-5,4,4,-13,-27,28,0,0
1470243639024404,-16,12,-5,-17,-77,-56,-2,-8
1470243639024404,-1,-8,-6,-10,7,2,-9,-2
1470243639033414,8,11,11,-1,50,27,6,5
1470243639033414,-1,-7,-14,6,5,14,3,0
1470243639046949,-6,-2,3,-2,-27,-24,-1,-1
1470243639046949,2,-9,-5,9,6,-7,1,-3
1470243639055935,-3,11,6,-2,-23,-23,-3,-1
1470243639055935,3,-10,10,-14,7,28,2,1
1470243639070946,1,11,-9,26,-24,-5,7,3
1470243639070946,1,-7,-11,0,56,17,-9,-2
1470243639072447,-2,5,0,1,-8,-15,3,2
1470243639072447,-4,-8,8,-51,-43,-27,-8,-4
1470243639084536,0,4,-7,32,23,13,0,3
1470243639084536,4,-3,4,7,-16,-2,13,2
1470243639093468,-3,-2,-7,-6,10,10,3,2
1470243639093468,2,4,-4,-16,-15,10,-10,0
1470243639107478,2,-5,-1,-4,10,-11,5,0
1470243639107478,1,6,5,-3,-62,2,3,-2
1470243639114485,4,-4,2,3,61,-5,-10,-3
1470243639114485,-23,15,-2,4,-49,-37,-9,-6
1470243639130999,3,-7,0,-20,39,26,1,-6
1470243639130999,-2,1,-8,15,-19,9,-16,-2
1470243639132501,1,1,12,9,19,-19,4,-1
1470243639132501,2,-8,-7,-10,-67,-10,-11,0
1470243639144543,-3,-1,0,-17,-3,-15,-13,-5
1470243639144543,6,-5,-5,8,65,22,3,-3
1470243639153522,-17,-7,2,13,30,24,6,0
1470243639153522,12,-5,-1,14,-12,-11,6,1
1470243639167532,-8,6,5,-12,-3,2,2,-2
1470243639167532,-4,-12,-13,-22,-56,-28,-5,-3
1470243639174551,4,1,-2,1,4,5,-5,0
1470243639174551,4,8,2,5,25,6,7,0
1470243639190552,-3,1,5,-1,-36,-18,-2,1
1470243639190552,0,1,-5,-6,3,9,-5,-4
1470243639192554,-3,-2,-2,-3,-28,-9,-2,-2
1470243639192554,-6,-11,-4,-6,51,8,1,-3
1470243639204618,8,14,4,23,4,-1,8,6
1470243639204618,-9,-1,1,-10,-21,3,1,-1
1470243639213574,7,9,2,7,23,-1,-1,0
1470243639213574,4,-3,-6,-7,-9,-8,-1,-4
1470243639227615,2,-2,1,-1,-17,-3,3,4
1470243639227615,1,-4,-7,-6,-10,-3,-5,2
1470243639234092,-3,-1,0,-9,-15,-9,-1,0
1470243639234092,-1,0,-2,0,-1,4,1,0
1470243639250607,5,-4,-2,2,-5,-5,-2,-2
1470243639250607,-4,4,-2,-12,15,6,4,-3
1470243639252108,2,-5,-2,11,10,14,1,0
1470243639252108,-3,-11,0,10,15,-3,0,1
1470243639273142,-1,7,-4,9,-19,-12,-3,0
1470243639273142,-1,-5,-1,-10,-22,-7,0,1
1470243639275129,-1,5,2,-8,23,2,-4,-3
1470243639275129,2,0,-3,-5,-11,3,7,-3
1470243639287640,1,-5,3,2,-11,-2,-7,-2
1470243639287640,-6,-2,-9,-13,-21,-8,-5,-3
1470243639294646,-1,-12,3,0,43,5,-2,-4
1470243639294646,-3,6,2,13,-25,-2,2,-1
1470243639310674,-4,2,0,0,21,8,-1,-1
1470243639310674,1,0,0,5,-13,-5,16,2
1470243639312164,6,2,-5,-15,-63,-35,0,1
1470243639312164,1,-7,-3,-13,45,21,-7,-2
1470243639333183,-5,-6,4,17,20,20,5,-3
1470243639333183,-3,7,4,13,4,-6,2,2
1470243639334725,7,1,-3,-12,-9,-2,-1,3
1470243639334725,-12,-1,-2,-6,-22,-13,-2,-3
1470243639347194,-12,-3,-11,-8,13,5,-1,-2
1470243639347194,1,-6,3,-5,-27,4,-4,-1
1470243639355701,4,-5,-3,4,23,-5,-1,-3
1470243639355701,-6,7,3,14,-11,3,1,-3
1470243639370728,-1,-7,-4,0,-8,-4,-5,-1
1470243639370728,6,-12,-1,-4,23,6,-14,-10
1470243639372216,-8,8,2,7,-12,3,13,-2
1470243639372216,-3,-11,-8,-18,-3,-4,-2,1
1470243639393237,-2,-1,1,-5,3,-7,-3,-2
1470243639393237,-2,17,-1,1,-50,-13,-2,-1
1470243639394738,0,-11,1,15,52,25,-1,-1
1470243639394738,-3,-2,0,-1,-9,-7,4,-2
1470243639406750,5,3,4,-4,-4,-5,0,1
1470243639406750,0,0,-2,-14,-5,0,-14,0
1470243639415755,-6,3,-3,7,-24,-9,-3,-3
1470243639415755,-1,-5,-5,-6,-40,-10,-2,0
1470243639430769,-1,0,-1,1,55,15,-1,-1
1470243639430769,-1,-3,2,10,19,6,6,1
1470243639432270,-7,0,-1,-4,-30,-8,-4,1
1470243639432270,4,-1,-4,-8,12,-1,-8,-2
1470243639453289,-2,2,1,6,-26,-9,4,-2
1470243639453289,0,-5,-1,-12,2,3,-6,0
1470243639454792,-1,1,3,-4,3,-19,1,-2
1470243639454792,5,0,-3,1,13,25,0,1
1470243639467302,-1,-20,0,7,2,-1,2,0
1470243639467302,2,34,-1,7,23,8,2,1
1470243639475809,0,-8,-1,-3,-37,-18,-5,0
1470243639475809,2,3,5,-5,2,-4,-1,0
1470243639490838,-4,-4,-7,-4,-37,0,-6,-4
1470243639490838,-1,-15,1,-5,39,1,2,-1
1470243639492329,-1,0,-12,0,-19,5,-2,0
1470243639492329,2,2,6,3,5,-9,0,1
1470243639513342,0,1,-3,-1,10,6,-2,-1
1470243639513342,-2,-4,-1,-3,-19,-15,1,1
1470243639514844,-4,4,4,-8,-1,5,-4,0
1470243639514844,3,-11,-1,3,2,-3,-2,0
1470243639526868,-1,24,6,-3,-9,-2,-8,-5
1470243639526868,-5,-19,-3,4,17,3,3,-1
1470243639535864,-1,-12,-3,-16,0,-3,2,2
1470243639535864,-4,-7,-2,0,-37,-6,-3,-4
1470243639550876,14,10,-5,-6,26,-4,-3,3
1470243639550876,-5,5,1,3,-21,-8,1,0
1470243639552378,6,-1,3,8,14,21,-1,2
1470243639552378,-5,1,-5,-12,-12,-16,-2,-1
1470243639573398,-2,-13,2,4,-29,-16,-5,-3
1470243639573398,-4,-13,-16,25,60,23,-2,0
1470243639574899,2,9,9,-4,-9,4,1,1
1470243639574899,4,8,6,-8,-10,-7,0,-3
1470243639586922,-32,-18,-8,-11,20,4,1,-3
1470243639586922,6,-3,-4,1,-29,-13,3,2
1470243639595917,2,22,-6,-2,-29,-17,-7,-6
1470243639595917,1,0,-9,1,58,19,1,3
1470243639610930,-4,5,11,-11,-43,-5,-10,-6
1470243639610930,4,3,-7,-1,19,-2,2,1
1470243639612432,-8,-19,-14,-7,8,2,-9,-2
1470243639612432,2,10,-5,-21,-61,-15,-1,-1
1470243639633450,7,4,-16,8,59,4,0,1
1470243639633450,-3,6,17,30,22,28,-3,2
1470243639634952,-1,-10,-8,3,10,-9,2,-3
1470243639634952,-25,-18,9,-15,-29,-11,-2,-5
1470243639646964,4,2,-9,1,-32,-11,-3,1
1470243639646964,19,12,3,-15,13,0,0,-3
1470243639655971,8,1,1,15,7,5,-1,-1
1470243639655971,4,-22,-1,20,27,7,1,0
1470243639670484,-9,-6,3,0,-6,8,3,0
1470243639670484,0,-9,-3,-16,-19,-8,7,1
1470243639676993,-5,4,6,-17,-6,-7,0,-1
1470243639676993,5,4,-8,28,-12,-7,-6,-1
1470243639693505,8,0,-3,-28,10,11,2,1
1470243639693505,-7,-4,6,14,1,-9,-6,-1
1470243639694506,-7,-6,3,-16,7,1,7,-2
1470243639694506,-1,-6,-7,-2,-7,0,3,3
1470243639707017,2,8,8,15,30,3,1,0
1470243639707017,-11,-16,-1,-17,-44,-8,1,3
1470243639716026,-6,7,6,33,1,-7,-12,-5
1470243639716026,1,3,-10,-22,28,18,6,2
1470243639730539,5,-8,4,-5,-24,-1,5,1
1470243639730539,0,1,-6,-6,25,0,0,0
1470243639732539,-4,-10,-2,-37,-20,-10,-3,-4
1470243639732539,-1,-2,-6,19,-56,-13,5,1
1470243639753058,6,-6,-5,-2,64,22,0,1
1470243639753058,-8,2,4,8,21,1,-3,-4
1470243639755059,0,6,9,-3,3,5,3,4
1470243639755059,-1,11,2,0,-8,-9,-4,-5
1470243639767071,4,-17,-5,5,-63,-22,13,1
1470243639767071,-3,0,4,3,55,15,-5,0
1470243639776080,-1,-1,-3,5,9,20,-1,0
1470243639776080,4,5,7,-10,-35,-16,0,2
1470243639790593,-5,-3,-1,7,24,1,-3,-2
1470243639790593,3,0,2,-2,-32,-10,-3,-6
1470243639792593,9,9,-8,12,-3,-10,6,3
1470243639792593,-9,-5,1,1,48,16,3,1
1470243639813612,-9,-6,3,0,-25,-6,-10,-4
1470243639813612,2,-1,-4,-6,-22,-7,3,0
1470243639814613,-1,0,-3,-4,16,2,0,-3
1470243639814613,2,3,-1,-9,-5,-1,-5,-5
1470243639827124,-1,4,0,2,9,-4,-5,-2
1470243639827124,-2,0,-6,-6,-6,5,-3,-2
1470243639835632,-4,-7,-2,2,-11,-9,3,0
1470243639835632,2,9,0,9,15,4,-10,-3
1470243639850658,1,10,3,4,5,3,-2,0
1470243639850658,-9,-14,3,-8,-21,-2,-2,-1
1470243639852147,0,1,-8,-9,-9,-8,-3,-1
1470243639852147,0,1,-3,7,11,2,-1,-3
1470243639873165,-3,-6,-3,-4,0,1,-2,-4
1470243639873165,2,7,4,3,-20,-6,5,1
1470243639874667,-2,-2,1,3,3,-2,-6,-3
1470243639874667,-2,-3,-5,-13,3,-8,-3,-3
1470243639887178,1,2,2,9,3,9,3,2
1470243639887178,1,1,2,13,15,3,-2,-3
1470243639896187,-3,1,-7,-21,-6,-1,1,-1
1470243639896187,-5,-9,-3,1,6,0,-2,-3
1470243639910701,-2,-4,-5,-23,-49,-12,-2,-4
1470243639910701,2,0,-8,13,26,-4,-2,-1
1470243639912201,1,-2,0,-1,3,4,3,-1
1470243639912201,-16,-5,2,-10,-10,0,2,-3
1470243639933236,0,-5,-1,-2,-7,0,-31,-4
1470243639933236,2,-3,-2,-14,-20,3,26,3
1470243639934731,-3,0,3,4,1,-4,3,0
1470243639934731,2,-6,-3,1,1,-3,12,1
1470243639947233,-1,6,-2,3,18,-2,-3,-3
1470243639947233,-2,-1,-5,-9,-29,-11,-8,-3
1470243639955740,-8,-6,-2,0,4,2,-33,-4
1470243639955740,-1,-6,1,4,26,9,-3,3
1470243639970265,3,5,3,7,10,-2,41,4
1470243639970265,3,-5,3,2,-22,-5,-10,-2
1470243639976774,-2,-3,-11,-10,-11,-8,2,-3
1470243639976774,-2,-2,-2,-2,19,3,-12,-4
1470243639993273,-7,-2,-1,-12,-83,-10,-7,0
1470243639993273,7,4,0,3,40,-6,-3,0
1470243639994775,1,1,4,14,18,15,6,0
1470243639994775,-2,0,1,-11,-8,5,-3,-2
1470243640006787,2,2,3,15,-33,-12,1,1
1470243640006787,-9,-8,-12,-22,0,-4,3,-2
1470243640015796,-2,1,0,-11,-7,4,4,-1
1470243640015796,2,2,2,13,21,1,3,4
1470243640030307,0,2,-3,1,27,2,-3,-3
1470243640030307,-4,3,4,-7,-23,-3,5,1
1470243640036827,-1,-3,0,8,2,-5,-4,-1
1470243640036827,7,0,-2,-2,-7,0,-4,-3
1470243640053327,-9,0,-1,-9,13,2,0,-3
1470243640053327,-8,-9,-2,6,8,2,-9,-1
1470243640054846,4,5,9,19,-12,-5,3,0
1470243640054846,-2,2,-8,-20,-16,-6,-1,0
1470243640066871,-2,-2,-1,-2,14,-2,-12,0
1470243640066871,2,3,-3,-1,14,5,10,4
1470243640075850,0,0,-1,5,-3,-1,1,0
1470243640075850,1,-2,1,6,-13,-5,-2,-1
1470243640090362,-3,-3,-5,-9,-52,-6,1,0
1470243640090362,3,0,4,4,-17,1,-6,-4
1470243640096867,-1,-8,-8,-14,12,-7,-2,-1
1470243640096867,0,4,4,12,53,10,2,1
1470243640113382,0,-2,-2,-2,-25,6,7,-1
1470243640113382,-5,8,6,5,-16,-9,-7,1
1470243640114884,1,-5,-3,-14,-31,-7,0,1
1470243640114884,0,-5,-4,-7,-11,-4,-5,-6
