timestamp,roll,pitch,yaw
1470243624429507,-0.556998,0.0443253,-2.33698
1470243624452026,-0.557426,0.0435325,-2.33697
1470243624467040,-0.557639,0.0430267,-2.33715
1470243624490561,-0.557081,0.0430022,-2.33736
1470243624512081,-0.556166,0.0429016,-2.33731
1470243624527094,-0.555293,0.0427675,-2.33696
1470243624550616,-0.554788,0.0423821,-2.33658
1470243624581143,-0.554711,0.0416695,-2.33606
1470243624590651,-0.555264,0.0404519,-2.33589
1470243624611169,-0.555792,0.0392454,-2.3356
1470243624632689,-0.556231,0.0385914,-2.33516
1470243624650706,-0.556502,0.0383894,-2.33486
1470243624669723,-0.555899,0.0388833,-2.33464
1470243624706755,-0.554977,0.0394137,-2.33477
1470243624716764,-0.554456,0.0399877,-2.33487
1470243624729776,-0.554514,0.040743,-2.3352
1470243624752295,-0.55495,0.0412791,-2.3354
1470243624768811,-0.555793,0.041784,-2.33585
1470243624791331,-0.556474,0.0420019,-2.3366
1470243624812350,-0.557402,0.0422266,-2.33716
1470243624828865,-0.558125,0.0423038,-2.33796
1470243624851385,-0.558449,0.0423378,-2.3388
1470243624872405,-0.558382,0.0423611,-2.33958
1470243624888919,-0.558071,0.0425965,-2.34018
1470243624911439,-0.557533,0.0431079,-2.34043
1470243624932458,-0.557088,0.0438377,-2.3406
1470243624948973,-0.556742,0.0446247,-2.34068
1470243624977498,-0.555955,0.0455094,-2.34073
1470243624992511,-0.555561,0.0461315,-2.34088
1470243625008526,-0.555434,0.0467175,-2.34103
1470243625031547,-0.555398,0.0470558,-2.34121
1470243625052565,-0.555398,0.0470558,-2.34121
1470243625068580,-0.555524,0.0471023,-2.34125
1470243625091103,-0.555524,0.0471023,-2.34125
1470243625112619,-0.555524,0.0471023,-2.34125
1470243625129135,-0.555691,0.047009,-2.34134
1470243625151155,-0.555691,0.047009,-2.34134
1470243625172173,-0.555691,0.047009,-2.34134
1470243625188688,-0.555691,0.047009,-2.34134
1470243625211209,-0.555691,0.047009,-2.34134
1470243625232227,-0.555691,0.047009,-2.34134
1470243625248742,-0.555691,0.047009,-2.34134
1470243625271263,-0.555691,0.047009,-2.34134
1470243625292782,-0.555816,0.0470555,-2.34138
1470243625308798,-0.555816,0.0470555,-2.34138
1470243625331317,-0.555816,0.0470555,-2.34138
1470243625352337,-0.555867,0.0469476,-2.34135
1470243625376357,-0.555867,0.0469476,-2.34135
1470243625391371,-0.555816,0.0470555,-2.34138
1470243625412390,-0.556156,0.0471735,-2.34144
1470243625428903,-0.556156,0.0471735,-2.34144
1470243625451424,-0.556156,0.0471735,-2.34144
1470243625481451,-0.556156,0.0471735,-2.34144
1470243625488958,-0.556156,0.0471735,-2.34144
1470243625511477,-0.556156,0.0471735,-2.34144
1470243625533998,-0.556156,0.0471735,-2.34144
1470243625562523,-0.556156,0.0471735,-2.34144
1470243625571531,-0.556105,0.0472814,-2.34147
1470243625594052,-0.556105,0.0472814,-2.34147
1470243625608065,-0.556105,0.0472814,-2.34147
1470243625631086,-0.556231,0.0473278,-2.3415
1470243625653605,-0.556231,0.0473278,-2.3415
1470243625668118,-0.556231,0.0473278,-2.3415
1470243625697645,-0.556231,0.0473278,-2.3415
1470243625721166,-0.556231,0.0473278,-2.3415
1470243625736180,-0.556231,0.0473278,-2.3415
1470243625757199,-0.556231,0.0473278,-2.3415
1470243625773713,-0.556231,0.0473278,-2.3415
1470243625796234,-0.556231,0.0473278,-2.3415
1470243625818755,-0.556231,0.0473278,-2.3415
1470243625833768,-0.556231,0.0473278,-2.3415
1470243625856287,-0.556231,0.0473278,-2.3415
1470243625877307,-0.556231,0.0473278,-2.3415
1470243625893822,-0.556356,0.0473743,-2.34154
1470243625916342,-0.556306,0.0474822,-2.34157
1470243625938862,-0.556356,0.0473743,-2.34154
1470243625953876,-0.556306,0.0474822,-2.34157
1470243625976396,-0.556482,0.0474208,-2.34158
1470243625998917,-0.556431,0.0475287,-2.3416
1470243626019934,-0.556431,0.0475287,-2.3416
1470243626036448,-0.556431,0.0475287,-2.3416
1470243626058971,-0.55644,0.0475607,-2.34153
1470243626079988,-0.556413,0.0475712,-2.34141
1470243626096503,-0.556413,0.0475712,-2.34141
1470243626125058,-0.556114,0.0473133,-2.34139
1470243626133036,-0.555908,0.0469141,-2.34106
1470243626156557,-0.555627,0.0463603,-2.34066
1470243626179077,-0.555328,0.0458489,-2.34007
1470243626193089,-0.554422,0.0455279,-2.33937
1470243626216110,-0.552351,0.0451186,-2.33819
1470243626238630,-0.550046,0.0444774,-2.33655
1470243626253143,-0.54699,0.0433514,-2.33446
1470243626276164,-0.542866,0.0419521,-2.33167
1470243626298685,-0.537942,0.040701,-2.32807
1470243626321205,-0.532205,0.0394265,-2.32324
1470243626336218,-0.52444,0.0378536,-2.3176
1470243626358738,-0.515809,0.0360319,-2.31078
1470243626379758,-0.506571,0.0335061,-2.30225
1470243626396273,-0.495972,0.029659,-2.29233
1470243626418792,-0.484721,0.0256948,-2.28178
1470243626439811,-0.469918,0.0216947,-2.27077
1470243626462332,-0.453501,0.0172002,-2.25899
1470243626478846,-0.437588,0.0118114,-2.24701
1470243626499865,-0.42282,0.0059079,-2.23441
1470243626516402,-0.407123,0.00049524,-2.22085
1470243626538908,-0.390867,-0.00575474,-2.20594
1470243626559919,-0.372302,-0.0127192,-2.19072
1470243626575935,-0.352815,-0.0191921,-2.17512
1470243626598955,-0.334114,-0.0259319,-2.15887
1470243626619973,-0.314711,-0.033205,-2.14302
1470243626636488,-0.296167,-0.0408639,-2.12753
1470243626659008,-0.279665,-0.0493477,-2.11354
1470243626680027,-0.264747,-0.058454,-2.10025
1470243626696042,-0.250478,-0.0675805,-2.0881
1470243626718562,-0.237394,-0.0759463,-2.0757
1470243626740082,-0.22412,-0.084245,-2.06353
1470243626755594,-0.211315,-0.0926062,-2.05285
1470243626778616,-0.200006,-0.100469,-2.04313
1470243626800134,-0.189988,-0.107744,-2.03414
1470243626815648,-0.18003,-0.114681,-2.02528
1470243626838669,-0.169408,-0.121339,-2.0172
1470243626861189,-0.159317,-0.127067,-2.00942
1470243626877206,-0.149655,-0.132955,-2.00258
1470243626898726,-0.140945,-0.139217,-1.99596
1470243626921243,-0.132888,-0.145292,-1.99008
1470243626942782,-0.126588,-0.151062,-1.98517
1470243626958777,-0.120612,-0.15666,-1.98021
1470243626981297,-0.115212,-0.162087,-1.97576
1470243626995812,-0.111008,-0.167203,-1.97185
1470243627018831,-0.107924,-0.172202,-1.96908
1470243627041356,-0.106036,-0.176263,-1.96699
1470243627062372,-0.104983,-0.179492,-1.96567
1470243627078885,-0.104675,-0.181929,-1.96475
1470243627101908,-0.104403,-0.18343,-1.96428
1470243627115918,-0.104033,-0.183976,-1.96432
1470243627138939,-0.104101,-0.184377,-1.96477
1470243627161470,-0.104198,-0.184014,-1.96561
1470243627175474,-0.104187,-0.183274,-1.96643
1470243627198997,-0.104369,-0.182397,-1.96728
1470243627221513,-0.10468,-0.181455,-1.96805
1470243627235528,-0.104755,-0.180794,-1.96851
1470243627258580,-0.104811,-0.180317,-1.9691
1470243627288576,-0.104273,-0.180076,-1.96977
1470243627295580,-0.104438,-0.179964,-1.9702
1470243627325046,-0.104724,-0.180217,-1.97044
1470243627341060,-0.104493,-0.180363,-1.9707
1470243627355573,-0.104619,-0.180582,-1.9709
1470243627378597,-0.105008,-0.180767,-1.97113
1470243627401116,-0.105747,-0.180865,-1.97159
1470243627422652,-0.105983,-0.180843,-1.97186
1470243627438647,-0.106148,-0.180732,-1.9723
1470243627461168,-0.106946,-0.180661,-1.97267
1470243627482687,-0.107738,-0.180417,-1.97315
1470243627498750,-0.108094,-0.180183,-1.97378
1470243627521223,-0.107953,-0.179684,-1.97463
1470243627542299,-0.107852,-0.179161,-1.97502
1470243627558755,-0.108422,-0.178939,-1.97519
1470243627581277,-0.108908,-0.178614,-1.97541
1470243627602327,-0.108908,-0.178614,-1.97541
1470243627618810,-0.108103,-0.17855,-1.97564
1470243627641329,-0.107533,-0.178772,-1.97547
1470243627662850,-0.107162,-0.17903,-1.97521
1470243627680365,-0.106759,-0.179434,-1.97463
1470243627701402,-0.106472,-0.179771,-1.974
1470243627729943,-0.105909,-0.180153,-1.97355
1470243627738919,-0.105436,-0.180467,-1.97313
1470243627761437,-0.105341,-0.180682,-1.9727
1470243627782456,-0.105565,-0.180967,-1.97233
1470243627798984,-0.105565,-0.180967,-1.97233
1470243627821494,-0.105635,-0.18107,-1.97233
1470243627844013,-0.106204,-0.180847,-1.9725
1470243627858028,-0.106997,-0.180331,-1.97286
1470243627881545,-0.107996,-0.179667,-1.97304
1470243627903565,-0.109733,-0.178678,-1.9727
1470243627918578,-0.112143,-0.178415,-1.97313
1470243627942100,-0.116468,-0.179842,-1.97304
1470243627963618,-0.121832,-0.182676,-1.97231
1470243627985159,-0.126685,-0.186278,-1.97148
1470243628001657,-0.131196,-0.190841,-1.97032
1470243628023674,-0.138424,-0.196887,-1.96857
1470243628045231,-0.147478,-0.204407,-1.96629
1470243628068713,-0.157339,-0.211667,-1.96254
1470243628092244,-0.167053,-0.218277,-1.9574
1470243628105246,-0.174985,-0.224581,-1.95154
1470243628121280,-0.179899,-0.229451,-1.94419
1470243628143781,-0.183202,-0.232027,-1.9314
1470243628165302,-0.187965,-0.233206,-1.91209
1470243628181343,-0.192994,-0.23349,-1.88758
1470243628218348,-0.197975,-0.232764,-1.86053
1470243628225859,-0.20161,-0.230297,-1.83157
1470243628241368,-0.204937,-0.228109,-1.79974
1470243628263893,-0.209767,-0.22722,-1.76602
1470243628284908,-0.217325,-0.228802,-1.72965
1470243628301422,-0.22572,-0.231718,-1.69099
1470243628323942,-0.235365,-0.235794,-1.65034
1470243628344961,-0.247063,-0.241162,-1.60849
1470243628361476,-0.260626,-0.248941,-1.56491
1470243628383996,-0.272736,-0.257899,-1.52083
1470243628405016,-0.281918,-0.267267,-1.47727
1470243628421030,-0.290804,-0.277009,-1.43404
1470243628444070,-0.30193,-0.286871,-1.39153
1470243628465098,-0.316047,-0.297908,-1.34959
1470243628481083,-0.331147,-0.309718,-1.30798
1470243628504107,-0.345799,-0.32128,-1.26834
1470243628526151,-0.360892,-0.331893,-1.23072
1470243628541637,-0.376445,-0.342125,-1.19583
1470243628563659,-0.389555,-0.35079,-1.16393
1470243628585178,-0.402075,-0.35881,-1.13373
1470243628591696,-0.414236,-0.367489,-1.10742
1470243628608229,-0.424998,-0.377289,-1.08673
1470243628629219,-0.435102,-0.38754,-1.07038
1470243628651737,-0.445326,-0.397022,-1.05694
1470243628668252,-0.456294,-0.405359,-1.04562
1470243628689298,-0.467967,-0.41264,-1.03582
1470243628711802,-0.476608,-0.418352,-1.03036
1470243628728321,-0.482095,-0.421919,-1.02751
1470243628749379,-0.489774,-0.425527,-1.02551
1470243628771845,-0.498779,-0.429791,-1.02441
1470243628788359,-0.505194,-0.433187,-1.02512
1470243628809377,-0.508239,-0.435347,-1.02874
1470243628831933,-0.509538,-0.436573,-1.03338
1470243628848413,-0.51279,-0.437826,-1.03832
1470243628869521,-0.517096,-0.43931,-1.04443
1470243628892014,-0.519714,-0.440739,-1.05116
1470243628908468,-0.520814,-0.442364,-1.05815
1470243628929486,-0.519991,-0.443878,-1.06637
1470243628952006,-0.518546,-0.445619,-1.07596
1470243628968021,-0.518037,-0.447874,-1.08525
1470243628989540,-0.517936,-0.449925,-1.0944
1470243629012059,-0.516467,-0.451832,-1.10436
1470243629028076,-0.514566,-0.452772,-1.11483
1470243629049594,-0.511815,-0.452692,-1.12568
1470243629072129,-0.509159,-0.451411,-1.13637
1470243629089683,-0.509096,-0.450143,-1.14642
1470243629109736,-0.508773,-0.447286,-1.15672
1470243629132231,-0.50447,-0.442164,-1.16724
1470243629148185,-0.502309,-0.43631,-1.17672
1470243629176752,-0.501851,-0.429014,-1.18447
1470243629191721,-0.498374,-0.420355,-1.19208
1470243629208236,-0.492864,-0.412472,-1.19933
1470243629229257,-0.492032,-0.406389,-1.20395
1470243629251831,-0.493372,-0.401267,-1.20742
1470243629268316,-0.492711,-0.396758,-1.21071
1470243629289365,-0.489152,-0.392545,-1.21358
1470243629311854,-0.485171,-0.386994,-1.21558
1470243629326888,-0.480796,-0.379945,-1.2181
1470243629349390,-0.477181,-0.372095,-1.22119
1470243629371917,-0.474623,-0.363855,-1.22524
1470243629387897,-0.470605,-0.354794,-1.23054
1470243629409450,-0.465637,-0.344847,-1.23625
1470243629431939,-0.460065,-0.334487,-1.24261
1470243629447951,-0.453547,-0.32312,-1.24924
1470243629469513,-0.446746,-0.311377,-1.25603
1470243629492080,-0.444511,-0.299495,-1.2608
1470243629508052,-0.440943,-0.287085,-1.26607
1470243629529026,-0.436312,-0.27392,-1.2727
1470243629552045,-0.430268,-0.259584,-1.28022
1470243629571062,-0.424517,-0.244842,-1.28716
1470243629589078,-0.420834,-0.230855,-1.29263
1470243629612212,-0.41939,-0.220699,-1.29548
1470243629628114,-0.418841,-0.215171,-1.2981
1470243629649133,-0.420241,-0.216595,-1.302
1470243629671681,-0.421961,-0.222471,-1.30582
1470243629689670,-0.419322,-0.23043,-1.30869
1470243629709695,-0.413699,-0.235412,-1.30716
1470243629732247,-0.402643,-0.233016,-1.30717
1470243629749749,-0.39605,-0.228816,-1.30866
1470243629769256,-0.402021,-0.222287,-1.30938
1470243629791801,-0.411682,-0.21639,-1.31073
1470243629809821,-0.414164,-0.213081,-1.31581
1470243629829295,-0.410653,-0.212185,-1.32169
1470243629851814,-0.407406,-0.212317,-1.32618
1470243629869831,-0.408384,-0.212921,-1.32845
1470243629889391,-0.412617,-0.212944,-1.32932
1470243629911895,-0.416034,-0.211999,-1.33079
1470243629929883,-0.416378,-0.209879,-1.33336
1470243629949444,-0.415189,-0.207518,-1.33669
1470243629972010,-0.414619,-0.205612,-1.34031
1470243629989972,-0.41555,-0.203695,-1.34373
1470243630009460,-0.417008,-0.202017,-1.34584
1470243630031975,-0.417672,-0.200883,-1.34718
1470243630049492,-0.416815,-0.20045,-1.34865
1470243630069509,-0.415808,-0.199935,-1.34962
1470243630092038,-0.415789,-0.199596,-1.35015
1470243630109546,-0.415898,-0.199301,-1.35054
1470243630129563,-0.415791,-0.199223,-1.35053
1470243630151598,-0.414669,-0.199199,-1.35077
1470243630169599,-0.413862,-0.199604,-1.35067
1470243630189117,-0.41338,-0.200126,-1.34991
1470243630211651,-0.413087,-0.200661,-1.34933
1470243630229659,-0.412535,-0.200931,-1.3491
1470243630249183,-0.411579,-0.200884,-1.34888
1470243630271704,-0.410909,-0.200873,-1.34851
1470243630289707,-0.411086,-0.201054,-1.34818
1470243630309227,-0.411295,-0.201556,-1.34763
1470243630331746,-0.411572,-0.202427,-1.34722
1470243630349766,-0.4117,-0.202995,-1.34648
1470243630370780,-0.411645,-0.203429,-1.34593
1470243630393301,-0.411442,-0.203703,-1.3459
1470243630409817,-0.411816,-0.204223,-1.34552
1470243630430833,-0.412089,-0.204692,-1.34532
1470243630451854,-0.412464,-0.205212,-1.34495
1470243630469869,-0.412814,-0.205588,-1.34476
1470243630490913,-0.412865,-0.205726,-1.34459
1470243630511908,-0.412745,-0.206084,-1.34454
1470243630529923,-0.412745,-0.206084,-1.34454
1470243630550453,-0.412745,-0.206084,-1.34454
1470243630572021,-0.412745,-0.206084,-1.34454
1470243630590097,-0.412745,-0.206084,-1.34454
1470243630610995,-0.412745,-0.206084,-1.34454
1470243630632015,-0.412148,-0.206021,-1.34482
1470243630650096,-0.412148,-0.206021,-1.34482
1470243630672551,-0.412148,-0.206021,-1.34482
1470243630692074,-0.412249,-0.205922,-1.34486
1470243630709584,-0.412066,-0.205937,-1.34484
1470243630732106,-0.412142,-0.205844,-1.34486
1470243630752123,-0.412142,-0.205844,-1.34486
1470243630769638,-0.412066,-0.205937,-1.34484
1470243630792176,-0.411958,-0.20586,-1.34484
1470243630811678,-0.411958,-0.20586,-1.34484
1470243630829693,-0.412016,-0.206174,-1.34463
1470243630852238,-0.411998,-0.206582,-1.34441
1470243630871773,-0.411998,-0.206582,-1.34441
1470243630889805,-0.411998,-0.206582,-1.34441
1470243630912266,-0.411998,-0.206582,-1.34441
1470243630931842,-0.411998,-0.206582,-1.34441
1470243630955336,-0.411998,-0.206582,-1.34441
1470243630972321,-0.411998,-0.206582,-1.34441
1470243630991865,-0.411998,-0.206582,-1.34441
1470243631009883,-0.411922,-0.206675,-1.34439
1470243631032375,-0.411922,-0.206675,-1.34439
1470243631051924,-0.41184,-0.206591,-1.34441
1470243631069908,-0.412023,-0.206576,-1.34443
1470243631091427,-0.411922,-0.206675,-1.34439
1470243631113947,-0.411922,-0.206675,-1.34439
1470243631129466,-0.411922,-0.206675,-1.34439
1470243631151519,-0.411922,-0.206675,-1.34439
1470243631172500,-0.411846,-0.206768,-1.34437
1470243631189014,-0.411846,-0.206768,-1.34437
1470243631211552,-0.411922,-0.206675,-1.34439
1470243631232556,-0.411922,-0.206675,-1.34439
1470243631249069,-0.411922,-0.206675,-1.34439
1470243631271588,-0.411738,-0.206691,-1.34437
1470243631292622,-0.411922,-0.206675,-1.34439
1470243631309123,-0.411738,-0.206691,-1.34437
1470243631331645,-0.411744,-0.206718,-1.34454
1470243631352661,-0.411744,-0.206718,-1.34454
1470243631368690,-0.411744,-0.206718,-1.34454
1470243631391196,-0.411769,-0.206713,-1.34456
1470243631412716,-0.411769,-0.206713,-1.34456
1470243631428730,-0.411769,-0.206713,-1.34456
1470243631451261,-0.411661,-0.206635,-1.34456
1470243631472326,-0.411661,-0.206635,-1.34456
1470243631488799,-0.411661,-0.206635,-1.34456
1470243631511304,-0.411661,-0.206635,-1.34456
1470243631532835,-0.411661,-0.206635,-1.34456
1470243631548839,-0.411661,-0.206635,-1.34456
1470243631571358,-0.411661,-0.206635,-1.34456
1470243631592392,-0.411661,-0.206635,-1.34456
1470243631608892,-0.411661,-0.206635,-1.34456
1470243631631413,-0.411661,-0.206635,-1.34456
1470243631653960,-0.411585,-0.206728,-1.34454
1470243631668952,-0.411585,-0.206728,-1.34454
1470243631691511,-0.411661,-0.206635,-1.34456
1470243631713988,-0.411585,-0.206728,-1.34454
1470243631728999,-0.411585,-0.206728,-1.34454
1470243631751520,-0.411668,-0.206812,-1.34453
1470243631774041,-0.411744,-0.206718,-1.34454
1470243631788053,-0.411668,-0.206812,-1.34453
1470243631811613,-0.411668,-0.206812,-1.34453
1470243631834094,-0.411668,-0.206812,-1.34453
1470243631848109,-0.412015,-0.206814,-1.34472
1470243631871627,-0.412015,-0.206814,-1.34472
1470243631894185,-0.411908,-0.206736,-1.34472
1470243631908186,-0.41199,-0.20682,-1.3447
1470243631931187,-0.412015,-0.206814,-1.34472
1470243631954203,-0.411908,-0.206736,-1.34472
1470243631975221,-0.412369,-0.206994,-1.34488
1470243631991256,-0.412369,-0.206994,-1.34488
1470243632013757,-0.412738,-0.207111,-1.34471
1470243632028282,-0.412845,-0.207189,-1.34471
1470243632051290,-0.412921,-0.207096,-1.34473
1470243632073809,-0.412921,-0.207096,-1.34473
1470243632088329,-0.413193,-0.207192,-1.34491
1470243632111343,-0.413827,-0.207228,-1.34495
1470243632133869,-0.414017,-0.20739,-1.34493
1470243632155882,-0.414245,-0.207899,-1.34487
1470243632171398,-0.415858,-0.208962,-1.34468
1470243632193917,-0.420732,-0.210175,-1.34402
1470243632215018,-0.427815,-0.211785,-1.34412
1470243632230949,-0.433705,-0.213552,-1.34527
1470243632253971,-0.438713,-0.215316,-1.34767
1470243632275062,-0.443324,-0.217119,-1.35169
1470243632291505,-0.449568,-0.218265,-1.35694
1470243632314025,-0.452716,-0.21735,-1.3646
1470243632335111,-0.449161,-0.212684,-1.37445
1470243632350557,-0.444266,-0.207841,-1.38806
1470243632374121,-0.436896,-0.201763,-1.40702
1470243632395120,-0.425794,-0.192881,-1.43135
1470243632410650,-0.410698,-0.18097,-1.46315
1470243632434133,-0.391676,-0.16631,-1.50253
1470243632455151,-0.373975,-0.143547,-1.5487
1470243632477671,-0.353371,-0.117892,-1.60211
1470243632493702,-0.328702,-0.0895081,-1.66252
1470243632515206,-0.302643,-0.0593224,-1.72859
1470243632530720,-0.27836,-0.0288677,-1.79902
1470243632553749,-0.253769,0.00276204,-1.87251
1470243632583768,-0.226742,0.0339061,-1.94833
1470243632590773,-0.196932,0.0649542,-2.02592
1470243632613838,-0.167126,0.0931136,-2.10333
1470243632636316,-0.140592,0.117406,-2.18017
1470243632650829,-0.117898,0.136546,-2.25669
1470243632673849,-0.0993161,0.148887,-2.33148
1470243632703875,-0.0850548,0.15496,-2.40508
1470243632717887,-0.0732746,0.153919,-2.47753
1470243632733902,-0.0622691,0.14717,-2.54903
1470243632756422,-0.0534704,0.135011,-2.61803
1470243632777945,-0.0469725,0.116412,-2.68449
1470243632793983,-0.0414323,0.0917913,-2.74926
1470243632816482,-0.0350325,0.0627456,-2.81302
1470243632837497,-0.0266442,0.0301628,-2.87618
1470243632854021,-0.01851,-0.00584858,-2.93894
1470243632876305,-0.01118,-0.0453484,-2.99972
1470243632897833,-0.00505195,-0.0894997,-3.05887
1470243632913809,-0.00424056,-0.139486,-3.11768
1470243632936330,-0.00443711,-0.192303,3.10621
1470243632957375,0.00217567,-0.242954,3.04821
1470243632979902,0.0176607,-0.289968,2.99296
1470243632996383,0.0347099,-0.337822,2.9402
1470243633024910,0.0533827,-0.386832,2.88829
1470243633033916,0.0734245,-0.435873,2.83688
1470243633063943,0.0970184,-0.483967,2.78571
1470243633077483,0.123871,-0.5314,2.73437
1470243633094001,0.150518,-0.57779,2.6826
1470243633116492,0.17861,-0.623054,2.62922
1470243633137509,0.211591,-0.66806,2.575
1470243633154024,0.249056,-0.709138,2.5208
1470243633176544,0.287589,-0.74339,2.46697
1470243633197564,0.325571,-0.773908,2.41592
1470243633214077,0.362913,-0.801876,2.36883
1470243633236597,0.395873,-0.823892,2.32542
1470243633257648,0.420622,-0.841095,2.28878
1470243633273131,0.442971,-0.857764,2.25939
1470243633303659,0.465044,-0.871675,2.23668
1470243633317670,0.480754,-0.880692,2.22156
1470243633333212,0.487183,-0.888064,2.21512
1470243633364213,0.487506,-0.894178,2.21683
1470243633379226,0.483153,-0.896958,2.22569
1470243633393280,0.474771,-0.896963,2.24049
1470243633416259,0.454485,-0.894122,2.25676
1470243633437791,0.439544,-0.889039,2.28044
1470243633453308,0.423101,-0.884513,2.31031
1470243633476320,0.41501,-0.875133,2.33457
1470243633497833,0.403206,-0.866325,2.35559
1470243633520370,0.38764,-0.854611,2.37376
1470243633536367,0.363455,-0.846714,2.39723
1470243633558919,0.344894,-0.838118,2.41864
1470243633573402,0.33157,-0.829015,2.4387
1470243633596423,0.320769,-0.820641,2.45728
1470243633618942,0.31131,-0.812653,2.47487
1470243633639989,0.301748,-0.806029,2.4925
1470243633656476,0.293248,-0.799993,2.50963
1470243633679021,0.286053,-0.794202,2.52629
1470243633700069,0.280227,-0.789161,2.54258
1470243633724044,0.27632,-0.784817,2.55848
1470243633739085,0.272003,-0.780906,2.57403
1470243633760112,0.264836,-0.777677,2.58965
1470243633776583,0.252571,-0.77585,2.60661
1470243633799102,0.23489,-0.773337,2.62641
1470243633820148,0.215497,-0.767558,2.64986
1470243633836636,0.197011,-0.757762,2.67595
1470243633858676,0.179331,-0.743944,2.70407
1470243633880208,0.160928,-0.726194,2.73485
1470243633897192,0.139846,-0.704244,2.76598
1470243633918710,0.113223,-0.676549,2.79852
1470243633940262,0.0828547,-0.642753,2.83362
1470243633956756,0.0541649,-0.60433,2.86927
1470243633978764,0.0289912,-0.559937,2.90529
1470243633999816,0.00792802,-0.509235,2.94134
1470243634016298,-0.0114491,-0.452576,2.97769
1470243634038836,-0.0290122,-0.388505,3.01484
1470243634060337,-0.0438172,-0.31605,3.05162
1470243634076371,-0.0520597,-0.234893,3.08773
1470243634098872,-0.0526728,-0.148248,3.12383
1470243634120393,-0.0476837,-0.0587977,-3.12333
1470243634136408,-0.0383616,0.0315618,-3.0881
1470243634159427,-0.0237839,0.121974,-3.05399
1470243634179945,-0.00218659,0.210493,-3.02158
1470243634196465,0.0247134,0.294641,-2.99118
1470243634218980,0.0532288,0.372144,-2.96265
1470243634239999,0.0810655,0.440495,-2.93577
1470243634256013,0.107334,0.499647,-2.91024
1470243634279052,0.133376,0.550128,-2.885
1470243634300053,0.158668,0.5925,-2.86061
1470243634315566,0.182706,0.627005,-2.83702
1470243634339113,0.203986,0.65236,-2.81495
1470243634361608,0.225484,0.671374,-2.79342
1470243634375664,0.24602,0.683074,-2.77297
1470243634399145,0.264992,0.687569,-2.75382
1470243634420163,0.279909,0.685603,-2.73742
1470243634435674,0.291285,0.677285,-2.72411
1470243634458849,0.299599,0.664046,-2.71349
1470243634481325,0.30403,0.648386,-2.70587
1470243634495838,0.302925,0.630683,-2.70148
1470243634518860,0.29744,0.610903,-2.70045
1470243634541919,0.287639,0.589081,-2.70332
1470243634555892,0.275731,0.566525,-2.70861
1470243634578926,0.263236,0.543447,-2.71478
1470243634601935,0.249586,0.520889,-2.72139
1470243634622478,0.236067,0.500119,-2.72813
1470243634645057,0.225884,0.482835,-2.73489
1470243634661489,0.221444,0.469505,-2.74109
1470243634682538,0.220862,0.458944,-2.74648
1470243634699024,0.220504,0.450517,-2.75107
1470243634721558,0.218907,0.445085,-2.7547
1470243634742607,0.218341,0.442615,-2.75687
1470243634759074,0.221185,0.442813,-2.75742
1470243634781596,0.226491,0.446159,-2.75705
1470243634802614,0.232931,0.451333,-2.75627
1470243634819128,0.240359,0.457848,-2.75484
1470243634841661,0.247099,0.465264,-2.75305
1470243634862667,0.253094,0.473017,-2.75097
1470243634879182,0.258563,0.480904,-2.74881
1470243634901202,0.262839,0.488357,-2.74695
1470243634922722,0.265723,0.494705,-2.74603
1470243634939237,0.266944,0.499609,-2.74622
1470243634961257,0.265175,0.502652,-2.74773
1470243634982775,0.259711,0.503294,-2.75115
1470243634998824,0.2522,0.500547,-2.75651
1470243635021310,0.242802,0.493241,-2.76367
1470243635042829,0.231139,0.480752,-2.7731
1470243635058877,0.217614,0.461806,-2.78581
1470243635081363,0.203545,0.434764,-2.80092
1470243635103884,0.188743,0.399606,-2.81751
1470243635118899,0.173431,0.356802,-2.8345
1470243635141418,0.15781,0.30615,-2.85306
1470243635162473,0.143512,0.245595,-2.87463
1470243635178450,0.132637,0.174169,-2.89951
1470243635201474,0.120097,0.0942367,-2.92708
1470243635222490,0.100856,0.00967235,-2.95679
1470243635238505,0.0800246,-0.0790236,-2.98651
1470243635261533,0.0700821,-0.172573,-3.01492
1470243635282586,0.0768256,-0.265677,-3.04558
1470243635298558,0.092392,-0.356752,-3.08114
1470243635321580,0.110735,-0.450715,-3.11896
1470243635342623,0.138781,-0.546876,3.12587
1470243635358112,0.176636,-0.638415,3.0867
1470243635381636,0.222539,-0.7182,3.04573
1470243635402697,0.276729,-0.791839,3.00346
1470243635418168,0.338722,-0.859589,2.96005
1470243635441187,0.400157,-0.912697,2.9185
1470243635464208,0.450488,-0.953257,2.88083
1470243635478220,0.492431,-0.99012,2.84758
1470243635501741,0.530578,-1.02074,2.82218
1470243635523763,0.547123,-1.03054,2.77572
1470243635545280,0.545527,-1.04452,2.77211
1470243635561794,0.554139,-1.04969,2.7774
1470243635583863,0.591407,-1.05925,2.77774
1470243635605355,0.617945,-1.06244,2.77816
1470243635621350,0.632998,-1.06036,2.78655
1470243635643870,0.64208,-1.05592,2.79311
1470243635664943,0.631787,-1.054,2.80647
1470243635681402,0.618648,-1.05003,2.81538
1470243635703925,0.603397,-1.0491,2.8287
1470243635724959,0.587681,-1.04872,2.84204
1470243635741458,0.573143,-1.04968,2.85555
1470243635764478,0.560233,-1.05156,2.86911
1470243635778490,0.551531,-1.0537,2.88118
1470243635801510,0.545973,-1.05565,2.89273
1470243635824054,0.542934,-1.05756,2.90315
1470243635845104,0.541316,-1.05919,2.91234
1470243635861569,0.534275,-1.05961,2.92205
1470243635884085,0.532087,-1.06073,2.9309
1470243635905103,0.528257,-1.06094,2.94209
1470243635921617,0.527511,-1.06204,2.95006
1470243635944192,0.533982,-1.06288,2.9539
1470243635965160,0.529047,-1.06308,2.95993
1470243635981671,0.525316,-1.06331,2.96641
1470243636004192,0.524538,-1.06312,2.97083
1470243636026211,0.528033,-1.0621,2.97296
1470243636041231,0.531752,-1.06173,2.97441
1470243636064246,0.531806,-1.06172,2.97606
1470243636085265,0.528682,-1.06066,2.9777
1470243636101780,0.526327,-1.05963,2.97998
1470243636123799,0.526561,-1.0581,2.98187
1470243636145344,0.528966,-1.05573,2.98268
1470243636161333,0.53157,-1.05269,2.98356
1470243636183853,0.532325,-1.04822,2.98484
1470243636205374,0.533217,-1.04255,2.98533
1470243636221387,0.532415,-1.03533,2.98549
1470243636243947,0.529315,-1.02759,2.98555
1470243636265429,0.519669,-1.01811,2.98889
1470243636280941,0.504166,-1.00652,2.99712
1470243636303964,0.485535,-0.991131,3.0072
1470243636325025,0.461675,-0.972015,3.02069
1470243636340994,0.433037,-0.948905,3.03879
1470243636364054,0.401617,-0.921773,3.06081
1470243636369546,0.370878,-0.892363,3.08407
1470243636394545,0.343044,-0.861274,3.10494
1470243636409556,0.315508,-0.829235,3.12422
1470243636429574,0.29034,-0.796004,-3.14153
1470243636452094,0.267202,-0.763137,-3.1248
1470243636470143,0.248482,-0.729774,-3.10963
1470243636489628,0.23443,-0.696633,-3.0971
1470243636511704,0.222376,-0.66407,-3.08732
1470243636529665,0.208781,-0.632941,-3.0783
1470243636549754,0.191265,-0.603949,-3.06926
1470243636572309,0.169789,-0.576565,-3.05872
1470243636588216,0.145282,-0.549976,-3.04421
1470243636609736,0.120882,-0.525124,-3.02521
1470243636631755,0.0959007,-0.501937,-3.00013
1470243636648272,0.0727852,-0.476609,-2.96755
1470243636669324,0.0577041,-0.451488,-2.92898
1470243636692314,0.0512246,-0.429008,-2.8848
1470243636708326,0.0438174,-0.410456,-2.83253
1470243636729357,0.0315946,-0.396787,-2.77181
1470243636751905,0.0126325,-0.387415,-2.70248
1470243636768378,-0.0089381,-0.382133,-2.6265
1470243636789442,-0.033925,-0.382441,-2.54778
1470243636811945,-0.0706208,-0.388639,-2.46563
1470243636828432,-0.116456,-0.398197,-2.37685
1470243636849453,-0.167099,-0.411255,-2.27995
1470243636871973,-0.229427,-0.427402,-2.17572
1470243636888486,-0.311632,-0.446036,-2.06376
1470243636912514,-0.399757,-0.459439,-1.953
1470243636932058,-0.471866,-0.466998,-1.84995
1470243636948542,-0.532243,-0.469599,-1.74899
1470243636969614,-0.587247,-0.465889,-1.65013
1470243636992109,-0.639051,-0.460189,-1.56233
1470243637011098,-0.681753,-0.460233,-1.49369
1470243637029613,-0.702238,-0.473092,-1.44839
1470243637052133,-0.704062,-0.487034,-1.41982
1470243637068148,-0.701889,-0.503811,-1.40431
1470243637089667,-0.690957,-0.521823,-1.40904
1470243637112192,-0.662647,-0.535609,-1.43402
1470243637128201,-0.622213,-0.547915,-1.47921
1470243637149781,-0.579787,-0.548852,-1.54146
1470243637172287,-0.52259,-0.54696,-1.6264
1470243637189756,-0.446231,-0.538006,-1.73641
1470243637209319,-0.353244,-0.515783,-1.86529
1470243637231825,-0.256337,-0.47889,-2.00523
1470243637248309,-0.16317,-0.428502,-2.15168
1470243637269416,-0.0726267,-0.365652,-2.29741
1470243637291882,0.0107484,-0.298929,-2.43748
1470243637309892,0.0754183,-0.239026,-2.57554
1470243637329382,0.112192,-0.195693,-2.71612
1470243637351956,0.130042,-0.166812,-2.85246
1470243637370002,0.146298,-0.146361,-2.96849
1470243637389472,0.164559,-0.135958,-3.07239
1470243637412000,0.188601,-0.137743,3.10815
1470243637429972,0.20663,-0.151918,3.00589
1470243637449538,0.215122,-0.169294,2.91556
1470243637472025,0.207808,-0.188845,2.84148
1470243637490026,0.194407,-0.207476,2.77584
1470243637509647,0.185178,-0.220935,2.72112
1470243637532116,0.174566,-0.229517,2.68404
1470243637550080,0.148026,-0.239139,2.6671
1470243637569598,0.113424,-0.240679,2.66848
1470243637592118,0.0796163,-0.235037,2.68668
1470243637610134,0.0573243,-0.227469,2.71977
1470243637629652,0.0615091,-0.226402,2.76143
1470243637652172,0.0659894,-0.225452,2.81246
1470243637669706,0.0659588,-0.222809,2.87269
1470243637698213,0.066752,-0.218849,2.94463
1470243637712226,0.0637079,-0.214361,3.02968
1470243637730242,0.0505152,-0.208955,3.12697
1470243637749832,0.0280489,-0.203296,-3.04932
1470243637771779,0.00383181,-0.195965,-2.93543
1470243637789838,-0.0164404,-0.184007,-2.81551
1470243637809840,-0.0350343,-0.169706,-2.68599
1470243637831854,-0.0520426,-0.158852,-2.54463
1470243637849878,-0.0830541,-0.15779,-2.38968
1470243637870868,-0.137939,-0.16726,-2.23088
1470243637891918,-0.20133,-0.182666,-2.07768
1470243637909904,-0.262088,-0.206492,-1.92676
1470243637930925,-0.32241,-0.242653,-1.7797
1470243637951941,-0.393954,-0.283508,-1.64826
1470243637969957,-0.453548,-0.314939,-1.53622
1470243637991005,-0.496664,-0.34125,-1.43559
1470243638011995,-0.534351,-0.366142,-1.3509
1470243638030011,-0.57791,-0.393498,-1.29242
1470243638051043,-0.599304,-0.433931,-1.27223
1470243638072053,-0.590527,-0.458331,-1.28898
1470243638089565,-0.574157,-0.467106,-1.33955
1470243638111086,-0.552414,-0.454313,-1.42274
1470243638132103,-0.513178,-0.428032,-1.53536
1470243638150119,-0.467108,-0.388374,-1.66765
1470243638171138,-0.415825,-0.334469,-1.81083
1470243638192156,-0.359901,-0.268524,-1.95619
1470243638209673,-0.303758,-0.197826,-2.10242
1470243638230692,-0.24674,-0.128053,-2.24586
1470243638251711,-0.199356,-0.0705497,-2.38361
1470243638269728,-0.171057,-0.0318851,-2.51478
1470243638292255,-0.155759,-0.00778678,-2.63501
1470243638311775,-0.13936,0.00402646,-2.73694
1470243638337840,-0.124255,0.000306316,-2.82677
1470243638352301,-0.117421,-0.0207387,-2.9154
1470243638371823,-0.120177,-0.0570029,-3.00729
1470243638389863,-0.11837,-0.0977836,-3.09001
1470243638412374,-0.102853,-0.138165,3.12409
1470243638431951,-0.0897983,-0.18557,3.05924
1470243638450419,-0.0839866,-0.231225,2.99463
1470243638472436,-0.0812508,-0.263273,2.9347
1470243638491929,-0.0786944,-0.284458,2.88739
1470243638509957,-0.0813566,-0.304195,2.85164
1470243638532480,-0.100904,-0.317563,2.82953
1470243638551998,-0.11739,-0.322935,2.81781
1470243638569495,-0.130663,-0.319263,2.81869
1470243638592516,-0.149596,-0.310504,2.82997
1470243638615105,-0.170809,-0.29967,2.8511
1470243638630069,-0.185365,-0.285402,2.88063
1470243638651570,-0.185235,-0.268125,2.91652
1470243638672091,-0.187491,-0.245523,2.961
1470243638690196,-0.194633,-0.218504,3.01346
1470243638712624,-0.203451,-0.188581,3.07436
1470243638732141,-0.214489,-0.158067,-3.13821
1470243638749657,-0.231792,-0.130374,-3.05706
1470243638772810,-0.261963,-0.110922,-2.96725
1470243638791700,-0.28405,-0.0984678,-2.86855
1470243638809713,-0.274244,-0.0872026,-2.75893
1470243638832863,-0.249727,-0.0756105,-2.63696
1470243638852319,-0.221742,-0.0687717,-2.50586
1470243638869803,-0.209062,-0.0709793,-2.36787
1470243638891785,-0.219323,-0.0826169,-2.22769
1470243638912828,-0.245492,-0.101404,-2.08745
1470243638935339,-0.275733,-0.127186,-1.94789
1470243638951340,-0.307238,-0.156297,-1.81813
1470243638972944,-0.342722,-0.185718,-1.70473
1470243638996380,-0.390025,-0.215846,-1.60579
1470243639011392,-0.458593,-0.249423,-1.51906
1470243639032425,-0.524045,-0.275217,-1.45009
1470243639055432,-0.575143,-0.292438,-1.39647
1470243639071449,-0.61016,-0.311712,-1.36115
1470243639092517,-0.640301,-0.328244,-1.34351
1470243639108479,-0.665271,-0.345224,-1.33792
1470243639131501,-0.685347,-0.358301,-1.33942
1470243639152552,-0.694482,-0.363724,-1.34559
1470243639168536,-0.692115,-0.365265,-1.35444
1470243639191554,-0.685188,-0.364486,-1.36405
1470243639212572,-0.680706,-0.361744,-1.3733
1470243639228587,-0.67643,-0.356367,-1.38314
1470243639251608,-0.673625,-0.350573,-1.39415
1470243639274128,-0.672473,-0.344634,-1.40649
1470243639288141,-0.671461,-0.337756,-1.41873
1470243639311662,-0.671044,-0.330693,-1.4304
1470243639334182,-0.672796,-0.32439,-1.44045
1470243639355200,-0.677172,-0.319105,-1.44853
1470243639371716,-0.683043,-0.314978,-1.45447
1470243639394241,-0.690653,-0.312796,-1.45755
1470243639415258,-0.698991,-0.311555,-1.45855
1470243639431770,-0.7075,-0.309506,-1.45667
1470243639454291,-0.716666,-0.306812,-1.45215
1470243639475308,-0.728108,-0.304211,-1.4457
1470243639491323,-0.741087,-0.303332,-1.4388
1470243639513843,-0.753042,-0.303949,-1.43154
1470243639535362,-0.763131,-0.303651,-1.42327
1470243639551377,-0.77407,-0.303215,-1.41341
1470243639573899,-0.784876,-0.304861,-1.40424
1470243639595416,-0.794137,-0.308868,-1.39866
1470243639611431,-0.795954,-0.31425,-1.39925
1470243639633952,-0.784819,-0.320439,-1.41168
1470243639654971,-0.759893,-0.325266,-1.43658
1470243639670985,-0.72848,-0.331868,-1.47697
1470243639694006,-0.692618,-0.328379,-1.53832
1470243639715023,-0.645536,-0.318393,-1.62488
1470243639731539,-0.593706,-0.3022,-1.732
1470243639754059,-0.538077,-0.279096,-1.85562
1470243639775079,-0.484744,-0.248475,-1.98705
1470243639791595,-0.434199,-0.211469,-2.12143
1470243639814114,-0.383786,-0.170149,-2.25403
1470243639835133,-0.33207,-0.128207,-2.38121
1470243639851647,-0.283351,-0.0920906,-2.50327
1470243639874167,-0.238416,-0.0640723,-2.61955
1470243639895185,-0.202914,-0.0460516,-2.72918
1470243639911700,-0.182129,-0.0424002,-2.83398
1470243639933741,-0.171096,-0.0532203,-2.93101
1470243639955254,-0.166634,-0.0746652,-3.02007
1470243639970753,-0.16415,-0.0981468,-3.10102
1470243639994275,-0.157009,-0.120462,3.10569
1470243640015300,-0.144876,-0.145483,3.03357
1470243640030808,-0.124607,-0.168888,2.96829
1470243640053828,-0.0998703,-0.188232,2.91331
1470243640075347,-0.0840533,-0.206089,2.86662
1470243640090862,-0.0830142,-0.225045,2.82598
1470243640114384,-0.0898111,-0.244398,2.79072
1470243640135403,-0.0969003,-0.264492,2.76254
1470243640150915,-0.0991462,-0.280232,2.74151
1470243640173936,-0.102237,-0.293601,2.72608
1470243640196456,-0.110922,-0.306278,2.7154
1470243640210969,-0.119894,-0.317422,2.70845
1470243640233990,-0.125745,-0.326148,2.70548
1470243640258014,-0.128978,-0.333556,2.70605
1470243640277595,-0.135225,-0.339192,2.70959
1470243640300049,-0.145127,-0.341714,2.71672
1470243640316564,-0.153003,-0.342037,2.72753
1470243640338085,-0.156326,-0.340259,2.74084
1470243640354123,-0.157496,-0.335452,2.75653
1470243640376649,-0.158301,-0.32804,2.77477
1470243640397679,-0.156899,-0.32002,2.79527
1470243640414152,-0.154163,-0.31241,2.81656
1470243640436677,-0.150583,-0.303438,2.83854
1470243640457710,-0.145865,-0.292737,2.86165
1470243640474211,-0.139705,-0.281909,2.88464
1470243640496726,-0.132405,-0.271526,2.90742
1470243640517744,-0.124839,-0.261995,2.93011
1470243640533760,-0.117188,-0.253355,2.95207
1470243640556280,-0.110919,-0.247121,2.9728
1470243640577858,-0.105768,-0.242957,2.99241
1470243640594317,-0.10076,-0.240381,3.01035
1470243640616834,-0.0958027,-0.238962,3.02735
1470243640637854,-0.0886376,-0.238472,3.04277
1470243640653867,-0.0795735,-0.239714,3.05616
1470243640676390,-0.070454,-0.243994,3.06764
1470243640697907,-0.0631675,-0.25148,3.07731
1470243640713922,-0.0591558,-0.26205,3.08472
1470243640736443,-0.0578733,-0.275386,3.09031
1470243640757502,-0.0570109,-0.290617,3.09513
1470243640773975,-0.0543163,-0.307018,3.0981
1470243640796495,-0.052635,-0.322405,3.09856
1470243640834562,-0.0568472,-0.334384,3.09905
1470243640837033,-0.0612559,-0.339621,3.10142
1470243640856549,-0.0604137,-0.336441,3.10714
1470243640877570,-0.0547311,-0.325323,3.11469
1470243640893582,-0.0439835,-0.307635,3.12247
1470243640916605,-0.0261859,-0.280109,3.13407
1470243640937625,0.000604556,-0.242299,-3.13343
1470243640960155,0.0315612,-0.19865,-3.11603
1470243640976657,0.0642,-0.147486,-3.09894
1470243640997676,0.0961564,-0.09017,-3.08256
1470243641021697,0.126131,-0.02723,-3.0671
1470243641036712,0.155276,0.039737,-3.05373
1470243641057729,0.183374,0.108775,-3.04244
1470243641073243,0.20735,0.179761,-3.03323
1470243641096264,0.22635,0.253375,-3.02644
1470243641119344,0.239344,0.328091,-3.02092
1470243641140303,0.24798,0.402864,-3.0159
1470243641156318,0.250794,0.47598,-3.01096
1470243641179338,0.249733,0.545824,-3.00572
1470243641193353,0.246835,0.611555,-3.0003
1470243641216895,0.245049,0.672119,-2.99407
1470243641239393,0.246358,0.725779,-2.9868
1470243641260411,0.251224,0.770264,-2.97739
1470243641276927,0.257888,0.807765,-2.96513
1470243641299449,0.265148,0.835658,-2.95296
1470243641319966,0.274219,0.853713,-2.94034
1470243641336481,0.286683,0.861278,-2.92686
1470243641359001,0.298045,0.859278,-2.91554
1470243641380023,0.30523,0.846931,-2.9072
1470243641396537,0.311589,0.824113,-2.90174
1470243641419056,0.316187,0.791552,-2.90096
1470243641440102,0.318284,0.747023,-2.90245
1470243641464595,0.31646,0.694217,-2.90706
1470243641479108,0.31066,0.63253,-2.91446
1470243641500165,0.303539,0.562468,-2.92375
1470243641516642,0.295563,0.485066,-2.93552
1470243641539162,0.282939,0.40072,-2.94784
1470243641560223,0.262321,0.314004,-2.95904
1470243641584230,0.23726,0.227103,-2.96956
1470243641599216,0.219453,0.135467,-2.98128
1470243641620234,0.214779,0.0401557,-2.99469
1470243641636757,0.213493,-0.0505471,-3.00542
1470243641659270,0.203729,-0.13925,-3.01566
1470243641680296,0.199241,-0.231548,-3.0289
1470243641697304,0.211166,-0.321451,-3.04282
1470243641719348,0.222349,-0.405152,-3.05849
1470243641740347,0.220297,-0.483977,-3.07521
1470243641756357,0.223479,-0.555202,-3.09427
1470243641778879,0.234237,-0.614822,-3.10886
1470243641800412,0.244006,-0.660607,-3.12568
1470243641816431,0.25231,-0.697819,3.13902
1470243641838931,0.265998,-0.724242,3.12125
1470243641860451,0.27572,-0.74202,3.10997
1470243641875965,0.276321,-0.758501,3.10111
1470243641898985,0.277196,-0.772274,3.09409
1470243641920513,0.283574,-0.782375,3.09195
1470243641936018,0.292729,-0.788022,3.09191
1470243641959039,0.29626,-0.791127,3.09113
1470243641980558,0.296758,-0.792305,3.09111
1470243641995836,0.301294,-0.790791,3.09145
1470243642019378,0.309492,-0.784787,3.09172
1470243642040376,0.31904,-0.775594,3.08982
1470243642055890,0.326521,-0.763582,3.08804
1470243642078912,0.333671,-0.743976,3.08958
1470243642101461,0.346651,-0.71475,3.09371
1470243642115944,0.36531,-0.674981,3.0991
1470243642138998,0.382488,-0.630548,3.10624
1470243642161485,0.394858,-0.578363,3.11286
1470243642183008,0.400479,-0.51841,3.11748
1470243642199019,0.401239,-0.450004,3.12072
1470243642221550,0.399371,-0.372787,3.1232
1470243642242600,0.396683,-0.288081,3.12443
1470243642259073,0.393548,-0.198193,3.12373
1470243642281593,0.387046,-0.105277,3.12182
1470243642302614,0.373566,-0.0114271,3.11857
1470243642319129,0.353759,0.0821675,3.11496
1470243642341667,0.331638,0.174622,3.11125
1470243642362735,0.308569,0.26528,3.10818
1470243642379208,0.283646,0.353763,3.10607
1470243642401702,0.256851,0.43808,3.10526
1470243642422737,0.22955,0.51577,3.10594
1470243642439234,0.205615,0.586631,3.11032
1470243642461795,0.185817,0.65229,3.11777
1470243642490366,0.171519,0.710913,3.127
1470243642499292,0.1651,0.760278,3.13912
1470243642521808,0.167868,0.799703,-3.12927
1470243642542826,0.176357,0.832913,-3.11272
1470243642558844,0.186109,0.85568,-3.09586
1470243642581385,0.195719,0.868788,-3.08058
1470243642602881,0.204346,0.871583,-3.06835
1470243642618895,0.213634,0.863652,-3.06001
1470243642641416,0.224857,0.845834,-3.05462
1470243642662477,0.234705,0.820056,-3.05138
1470243642678973,0.239644,0.782695,-3.05085
1470243642701472,0.243404,0.73553,-3.05192
1470243642722503,0.24765,0.68071,-3.05363
1470243642739004,0.251882,0.619626,-3.05593
1470243642761525,0.251391,0.552077,-3.06098
1470243642782558,0.248485,0.478745,-3.0684
1470243642798582,0.250179,0.399926,-3.07696
1470243642821580,0.254675,0.31495,-3.08663
1470243642842722,0.256645,0.225979,-3.09708
1470243642858123,0.255883,0.137531,-3.10549
1470243642887692,0.257698,0.0456945,-3.11228
1470243642902650,0.271296,-0.0474516,-3.11985
1470243642918164,0.290179,-0.132278,-3.12942
1470243642941685,0.306379,-0.210269,-3.14064
1470243642962733,0.328344,-0.2923,3.1331
1470243642978740,0.360167,-0.36878,3.12431
1470243643001755,0.385126,-0.43251,3.1149
1470243643024313,0.400257,-0.486967,3.10631
1470243643038272,0.418925,-0.532375,3.10125
1470243643061792,0.433999,-0.571163,3.10091
1470243643084313,0.437879,-0.603989,3.09641
1470243643098354,0.430117,-0.631647,3.09158
1470243643121888,0.415854,-0.653532,3.09338
1470243643143871,0.406546,-0.671294,3.09396
1470243643165385,0.403229,-0.688484,3.09199
1470243643181901,0.403653,-0.70494,3.08845
1470243643203923,0.404343,-0.71952,3.08641
1470243643225522,0.401482,-0.731019,3.08796
1470243643241454,0.399225,-0.740092,3.09039
1470243643263975,0.399199,-0.747283,3.09301
1470243643284995,0.400457,-0.752158,3.09417
1470243643301510,0.397011,-0.753866,3.09448
1470243643324060,0.387253,-0.754347,3.09561
1470243643345566,0.37895,-0.754632,3.09673
1470243643361562,0.374896,-0.754514,3.09786
1470243643384085,0.373575,-0.753809,3.098
1470243643405116,0.3708,-0.75282,3.09771
1470243643421616,0.365309,-0.751124,3.099
1470243643444136,0.36077,-0.749592,3.10138
1470243643458657,0.35875,-0.747847,3.10368
1470243643481671,0.357471,-0.746867,3.10507
1470243643504191,0.35591,-0.74612,3.10582
1470243643525211,0.353166,-0.745165,3.10679
1470243643541724,0.350189,-0.743865,3.10769
1470243643564244,0.345825,-0.742893,3.10878
1470243643585263,0.341359,-0.742255,3.10981
1470243643601778,0.338519,-0.74212,3.11032
1470243643624298,0.336347,-0.741953,3.11104
1470243643645316,0.333277,-0.742282,3.1122
1470243643661847,0.330991,-0.743375,3.11317
1470243643683852,0.331644,-0.743835,3.11428
1470243643705372,0.332915,-0.744163,3.11585
1470243643721386,0.332108,-0.744263,3.11828
1470243643743907,0.331786,-0.74285,3.12049
1470243643765424,0.334402,-0.74039,3.1215
1470243643781439,0.337248,-0.737579,3.12116
1470243643803960,0.337195,-0.734849,3.12005
1470243643824978,0.333069,-0.7324,3.11929
1470243643849000,0.328821,-0.729176,3.1187
1470243643864014,0.327643,-0.724794,3.11775
1470243643885032,0.327643,-0.720184,3.11616
1470243643901547,0.326427,-0.716164,3.11441
1470243643924067,0.324238,-0.712798,3.11291
1470243643945086,0.321634,-0.709403,3.11245
1470243643961601,0.321088,-0.705858,3.11181
1470243643984121,0.322376,-0.701854,3.11109
1470243644006642,0.323854,-0.697428,3.11011
1470243644021656,0.324203,-0.692464,3.1103
1470243644044175,0.326325,-0.686593,3.11115
1470243644066696,0.330531,-0.680804,3.11144
1470243644087714,0.33536,-0.673905,3.1112
1470243644104230,0.33981,-0.664181,3.11172
1470243644126749,0.345732,-0.65088,3.11417
1470243644132253,0.359415,-0.633408,3.11706
1470243644157277,0.38048,-0.611992,3.1206
1470243644169788,0.402507,-0.58454,3.12512
1470243644192308,0.424858,-0.550918,3.13246
1470243644209824,0.448685,-0.513881,3.14106
1470243644229842,0.469946,-0.468866,-3.13346
1470243644252362,0.486626,-0.417242,-3.12545
1470243644275883,0.497691,-0.359736,-3.11814
1470243644289395,0.506231,-0.296935,-3.11199
1470243644319423,0.514594,-0.228788,-3.10764
1470243644329931,0.521569,-0.156535,-3.10386
1470243644349450,0.524472,-0.0803449,-3.10042
1470243644371984,0.521155,-0.000603259,-3.09716
1470243644389985,0.511584,0.0817848,-3.09368
1470243644409504,0.495902,0.165713,-3.09021
1470243644432056,0.474965,0.249526,-3.08711
1470243644450039,0.450089,0.331178,-3.08353
1470243644469557,0.423211,0.409873,-3.07937
1470243644492090,0.396067,0.485248,-3.07516
1470243644510128,0.370035,0.555912,-3.06984
1470243644529611,0.346995,0.620812,-3.06163
1470243644552221,0.329191,0.680087,-3.05137
1470243644574712,0.318176,0.73177,-3.03942
1470243644589677,0.315373,0.775217,-3.02515
1470243644612214,0.318983,0.811513,-3.00889
1470243644634723,0.3263,0.843554,-2.99212
1470243644649719,0.338108,0.86813,-2.97556
1470243644672238,0.354301,0.886195,-2.95927
1470243644691256,0.370808,0.898394,-2.94468
1470243644709772,0.383617,0.905244,-2.93376
1470243644732292,0.392404,0.906597,-2.92724
1470243644749808,0.398525,0.899569,-2.92422
1470243644769326,0.400636,0.89624,-2.92553
1470243644794956,0.406551,0.886849,-2.92524
1470243644814366,0.401101,0.875161,-2.93049
1470243644832382,0.400116,0.85496,-2.93396
1470243644852434,0.397543,0.833758,-2.9383
1470243644874425,0.395137,0.809216,-2.94398
1470243644889447,0.39336,0.779175,-2.95016
1470243644911954,0.395152,0.743329,-2.956
1470243644929973,0.401652,0.702107,-2.95947
1470243644949513,0.405462,0.657372,-2.96235
1470243644972023,0.403269,0.611954,-2.96451
1470243644990024,0.400196,0.564906,-2.96605
1470243645009569,0.401053,0.513231,-2.96741
1470243645032088,0.403987,0.458088,-2.97003
1470243645050088,0.400715,0.402695,-2.97348
1470243645069595,0.391801,0.345612,-2.97712
1470243645092132,0.388284,0.282799,-2.97983
1470243645110221,0.391903,0.215662,-2.98255
1470243645129650,0.387704,0.149153,-2.98785
1470243645152178,0.375498,0.0847216,-2.9947
1470243645174691,0.364824,0.0146224,-2.99915
1470243645189720,0.365442,-0.0592584,-3.00027
1470243645212242,0.367379,-0.126343,-3.00259
1470243645229742,0.362376,-0.184695,-3.00698
1470243645249777,0.354873,-0.243,-3.00967
1470243645272277,0.357435,-0.303529,-3.00816
1470243645289793,0.365403,-0.359185,-3.00746
1470243645309811,0.361855,-0.406848,-3.00811
1470243645332332,0.349615,-0.448077,-3.0081
1470243645349875,0.344233,-0.48829,-3.00317
1470243645369402,0.349908,-0.522432,-2.9959
1470243645392385,0.35518,-0.551414,-2.99165
1470243645409951,0.34941,-0.576212,-2.98848
1470243645429919,0.340581,-0.595507,-2.98311
1470243645452011,0.335092,-0.608626,-2.97385
1470243645469998,0.32926,-0.617504,-2.96679
1470243645489476,0.316229,-0.625611,-2.96244
1470243645514996,0.301719,-0.631681,-2.95998
1470243645530010,0.291891,-0.633918,-2.95571
1470243645552531,0.286312,-0.634337,-2.95098
1470243645572046,0.280307,-0.634793,-2.94782
1470243645590097,0.272918,-0.635554,-2.94649
1470243645611088,0.266111,-0.636027,-2.94491
1470243645632134,0.262094,-0.635893,-2.94296
1470243645650117,0.258754,-0.635508,-2.94146
1470243645671149,0.256087,-0.635352,-2.94086
1470243645692184,0.255031,-0.63556,-2.94043
1470243645710215,0.254768,-0.636532,-2.93979
1470243645731189,0.254411,-0.636752,-2.93955
1470243645752208,0.253969,-0.638898,-2.93976
1470243645769729,0.254174,-0.641274,-2.94044
1470243645791322,0.25457,-0.643694,-2.94091
1470243645812325,0.254591,-0.64622,-2.94142
1470243645829778,0.255311,-0.64826,-2.94238
1470243645852927,0.256775,-0.650304,-2.94319
1470243645872342,0.257338,-0.652084,-2.94366
1470243645889833,0.25599,-0.654698,-2.94399
1470243645912354,0.254943,-0.657358,-2.94443
1470243645931907,0.25445,-0.659643,-2.9445
1470243645949886,0.25409,-0.661706,-2.94417
1470243645972407,0.253457,-0.663725,-2.94337
1470243645991953,0.254234,-0.66525,-2.94244
1470243646009971,0.255691,-0.666017,-2.94142
1470243646032489,0.257376,-0.665828,-2.94092
1470243646052526,0.25815,-0.664681,-2.94068
1470243646070049,0.258449,-0.662404,-2.94121
1470243646092577,0.258295,-0.658707,-2.94211
1470243646112031,0.258436,-0.653559,-2.94364
1470243646134555,0.258179,-0.646266,-2.94522
1470243646152596,0.258243,-0.636246,-2.94779
1470243646172091,0.25833,-0.623396,-2.95125
1470243646194634,0.257563,-0.608515,-2.95551
1470243646212709,0.255636,-0.590923,-2.9599
1470243646232180,0.253449,-0.570173,-2.96519
1470243646250172,0.248774,-0.547447,-2.97113
1470243646272740,0.240631,-0.523684,-2.97802
1470243646292210,0.22709,-0.49976,-2.98392
1470243646314714,0.21098,-0.473731,-2.98873
1470243646332231,0.191983,-0.446637,-2.99078
1470243646353250,0.169797,-0.419639,-2.9896
1470243646377770,0.142296,-0.392648,-2.98252
1470243646392284,0.112763,-0.366383,-2.96987
1470243646412301,0.0826565,-0.339369,-2.95041
1470243646434821,0.0489656,-0.313161,-2.92414
1470243646452937,0.0185061,-0.279542,-2.89205
1470243646473371,0.00578832,-0.24058,-2.85435
1470243646494474,0.0112533,-0.198749,-2.80463
1470243646512436,0.0188496,-0.15783,-2.74557
1470243646533410,0.0214268,-0.12074,-2.67928
1470243646554473,0.0178623,-0.0893306,-2.60761
1470243646572544,0.013016,-0.0647728,-2.53143
1470243646593463,0.0153161,-0.045744,-2.45007
1470243646614499,0.0212557,-0.0350001,-2.36179
1470243646631511,0.0189062,-0.0369335,-2.27082
1470243646652548,0.00063829,-0.0515601,-2.17979
1470243646675638,-0.0288401,-0.071402,-2.08448
1470243646691552,-0.0634643,-0.094573,-1.98565
1470243646713072,-0.0995237,-0.124406,-1.88628
1470243646735147,-0.13786,-0.158638,-1.79288
1470243646751606,-0.183041,-0.186179,-1.70466
1470243646772660,-0.223574,-0.207019,-1.61787
1470243646795145,-0.258171,-0.226132,-1.53437
1470243646811660,-0.295221,-0.240792,-1.45549
1470243646834184,-0.330286,-0.248157,-1.38558
1470243646855204,-0.358719,-0.251483,-1.33379
1470243646871714,-0.370807,-0.258576,-1.29789
1470243646894289,-0.382263,-0.265813,-1.27166
1470243646915364,-0.391629,-0.273182,-1.25833
1470243646931768,-0.392296,-0.281309,-1.25624
1470243646954288,-0.383272,-0.289034,-1.26537
1470243646975351,-0.367231,-0.295319,-1.28684
1470243646991821,-0.346122,-0.298636,-1.31956
1470243647014342,-0.326777,-0.296392,-1.366
1470243647035376,-0.301125,-0.291108,-1.4258
1470243647051399,-0.264221,-0.277869,-1.50058
1470243647073896,-0.216429,-0.253676,-1.58913
1470243647095486,-0.166229,-0.219666,-1.69059
1470243647111929,-0.112607,-0.175796,-1.80385
1470243647133949,-0.056793,-0.128057,-1.92303
1470243647155001,-0.00787749,-0.0836803,-2.04884
1470243647171484,0.0258299,-0.0460834,-2.18099
1470243647194004,0.0389412,-0.0169889,-2.31893
1470243647215522,0.0456013,0.00911324,-2.44893
1470243647231537,0.0604162,0.0269841,-2.56748
1470243647254057,0.0766311,0.0332551,-2.68197
1470243647275582,0.0878859,0.0252354,-2.79952
1470243647291593,0.0849884,0.00397773,-2.91801
1470243647314113,0.0708436,-0.0228147,-3.02617
1470243647335185,0.0551423,-0.0516463,-3.12018
1470243647351644,0.035738,-0.0873821,3.07366
1470243647374165,0.030973,-0.120535,2.99038
1470243647402733,0.033459,-0.145312,2.92134
1470243647411699,0.0305075,-0.163709,2.86349
1470243647434223,0.0182651,-0.180503,2.81235
1470243647455238,0.00768429,-0.195384,2.76955
1470243647471752,0.000931152,-0.210822,2.73573
1470243647494289,-0.00296641,-0.223181,2.71031
1470243647515337,-0.0122328,-0.233732,2.69185
1470243647531806,-0.0253685,-0.243783,2.68051
1470243647555827,-0.0370497,-0.253032,2.67682
1470243647575401,-0.0434855,-0.260269,2.67906
1470243647606905,-0.0463297,-0.265297,2.68766
1470243647614380,-0.0477314,-0.268324,2.70281
1470243647636401,-0.046951,-0.269732,2.72528
1470243647650913,-0.0440157,-0.269309,2.75408
1470243647673935,-0.0409434,-0.264643,2.78836
1470243647694953,-0.0342467,-0.256651,2.82719
1470243647710967,-0.0236983,-0.248121,2.87234
1470243647733988,-0.00964445,-0.238618,2.92372
1470243647756529,0.00455336,-0.226568,2.98059
1470243647771044,0.0142852,-0.213101,3.04144
1470243647794074,0.0220616,-0.200561,3.10649
1470243647816580,0.0298253,-0.188447,-3.10811
1470243647831076,0.0347444,-0.173576,-3.03611
1470243647854098,0.0378637,-0.154804,-2.96293
1470243647876616,0.0424401,-0.133793,-2.89096
1470243647891629,0.0502168,-0.113245,-2.81944
1470243647914151,0.0585277,-0.0947328,-2.74864
1470243647936669,0.0632138,-0.0792353,-2.67995
1470243647957704,0.0593619,-0.0655994,-2.61486
1470243647974204,0.0457502,-0.0549491,-2.55316
1470243647996724,0.0266496,-0.0479764,-2.4935
1470243648017799,0.00503553,-0.0439921,-2.43732
1470243648034262,-0.0136653,-0.0380539,-2.38575
1470243648056777,-0.0273768,-0.031348,-2.33822
1470243648077812,-0.0376415,-0.0258941,-2.29509
1470243648094311,-0.0493339,-0.0225588,-2.25638
1470243648116834,-0.0648721,-0.0197347,-2.21989
1470243648137850,-0.0839219,-0.0179048,-2.18656
1470243648154365,-0.0981789,-0.0154388,-2.15793
1470243648176885,-0.10687,-0.0149956,-2.13359
1470243648197904,-0.112019,-0.0152568,-2.11248
1470243648213921,-0.116058,-0.0143701,-2.09407
1470243648236441,-0.118547,-0.0121649,-2.07771
1470243648257958,-0.121347,-0.0126567,-2.06543
1470243648273976,-0.131808,-0.0202335,-2.06059
1470243648296527,-0.1496,-0.0301298,-2.06274
1470243648319024,-0.170398,-0.0395506,-2.06652
1470243648334027,-0.188421,-0.0471953,-2.06924
1470243648356559,-0.206399,-0.0558565,-2.07269
1470243648377606,-0.225234,-0.0671411,-2.07813
1470243648393580,-0.24216,-0.0788404,-2.08401
1470243648416625,-0.2549,-0.0813509,-2.09125
1470243648437672,-0.252366,-0.0755187,-2.09113
1470243648454134,-0.252608,-0.0717855,-2.09224
1470243648476655,-0.266301,-0.0709303,-2.09629
1470243648497676,-0.280475,-0.0682985,-2.09918
1470243648513688,-0.281334,-0.0623396,-2.09994
1470243648536709,-0.278352,-0.0569497,-2.10022
1470243648557761,-0.278949,-0.0557162,-2.10105
1470243648573241,-0.282295,-0.056152,-2.10269
1470243648596763,-0.284902,-0.0575755,-2.10315
1470243648617809,-0.285888,-0.0593002,-2.1032
1470243648634298,-0.287246,-0.0606815,-2.10333
1470243648656826,-0.287152,-0.0599721,-2.10294
1470243648677836,-0.284942,-0.0580643,-2.10157
1470243648694351,-0.284134,-0.0565937,-2.09983
1470243648716370,-0.286357,-0.0556476,-2.09791
1470243648739390,-0.288003,-0.0541852,-2.0961
1470243648754404,-0.287105,-0.0526618,-2.09468
1470243648776424,-0.284821,-0.0517355,-2.09393
1470243648799445,-0.282876,-0.0516063,-2.09422
1470243648814458,-0.280996,-0.0522485,-2.09526
1470243648836513,-0.279586,-0.0531403,-2.09591
1470243648859498,-0.277958,-0.053211,-2.097
1470243648873513,-0.276013,-0.0527543,-2.09812
1470243648896557,-0.274293,-0.0521389,-2.09901
1470243648919057,-0.273202,-0.0514898,-2.09909
1470243648933565,-0.272677,-0.051047,-2.09883
1470243648956586,-0.272029,-0.0511107,-2.09865
1470243648979106,-0.27057,-0.0508068,-2.09865
1470243648993620,-0.268264,-0.0502876,-2.09875
1470243649016639,-0.266411,-0.0494799,-2.09861
1470243649039194,-0.265428,-0.0487479,-2.0985
1470243649053673,-0.265148,-0.0484441,-2.09819
1470243649076694,-0.264596,-0.0481197,-2.0976
1470243649099215,-0.263316,-0.0478036,-2.09715
1470243649113728,-0.261911,-0.0473005,-2.09692
1470243649136748,-0.260847,-0.0468652,-2.0965
1470243649159268,-0.261,-0.0466398,-2.09654
1470243649173280,-0.262258,-0.0463436,-2.09653
1470243649196802,-0.263291,-0.04618,-2.09654
1470243649219322,-0.263066,-0.0460174,-2.09649
1470243649240369,-0.262472,-0.0462004,-2.09636
1470243649256868,-0.261771,-0.0464437,-2.09621
1470243649279375,-0.261465,-0.0465766,-2.09586
1470243649300426,-0.261363,-0.0465788,-2.09538
1470243649316909,-0.261094,-0.0465817,-2.0953
1470243649339429,-0.260823,-0.0465619,-2.09502
1470243649360455,-0.260706,-0.0463393,-2.09498
1470243649376464,-0.260814,-0.0462791,-2.09499
1470243649398983,-0.260985,-0.046324,-2.095
1470243649420502,-0.261946,-0.0460897,-2.09528
1470243649436517,-0.262843,-0.0457507,-2.09556
1470243649459056,-0.262951,-0.0456905,-2.09558
1470243649480056,-0.263059,-0.0456304,-2.09559
1470243649497072,-0.263167,-0.0455702,-2.09561
1470243649519092,-0.263762,-0.0454099,-2.09594
1470243649540165,-0.264452,-0.0451563,-2.09594
1470243649556624,-0.265155,-0.0449361,-2.09629
1470243649579145,-0.265264,-0.044876,-2.0963
1470243649600165,-0.265296,-0.0447004,-2.09617
1470243649616679,-0.265624,-0.0445661,-2.09663
1470243649639200,-0.267468,-0.044419,-2.09709
1470243649660246,-0.271599,-0.0445204,-2.09749
1470243649676236,-0.277347,-0.0456907,-2.09788
1470243649699252,-0.287151,-0.048291,-2.09857
1470243649721806,-0.305734,-0.0523149,-2.09928
1470243649736286,-0.330413,-0.0545095,-2.10208
1470243649759330,-0.349932,-0.0523873,-2.10366
1470243649787865,-0.359626,-0.0454109,-2.10345
1470243649795840,-0.358521,-0.0357749,-2.10455
1470243649819384,-0.351578,-0.0239697,-2.10609
1470243649841880,-0.347172,-0.0105306,-2.10638
1470243649862909,-0.348417,0.00465526,-2.10437
1470243649878938,-0.351575,0.0213059,-2.10199
1470243649901934,-0.353241,0.0398053,-2.09978
1470243649922953,-0.352228,0.0608978,-2.09755
1470243649939476,-0.352166,0.082694,-2.09462
1470243649961989,-0.353239,0.105845,-2.0913
1470243649983008,-0.353318,0.130658,-2.08755
1470243649999025,-0.352384,0.157231,-2.0837
1470243650021569,-0.351564,0.184859,-2.07955
1470243650043061,-0.352028,0.212927,-2.07448
1470243650059077,-0.353323,0.241824,-2.06971
1470243650081596,-0.354987,0.27076,-2.06479
1470243650102617,-0.358228,0.300576,-2.05967
1470243650119129,-0.361364,0.331782,-2.0539
1470243650141650,-0.363891,0.364553,-2.04802
1470243650162685,-0.366907,0.397954,-2.04194
1470243650179194,-0.370729,0.432355,-2.03556
1470243650201714,-0.374486,0.466923,-2.02815
1470243650222778,-0.378086,0.502459,-2.02015
1470243650239238,-0.382251,0.53879,-2.01264
1470243650261789,-0.385153,0.576007,-2.00436
1470243650282776,-0.387698,0.612259,-1.99528
1470243650299291,-0.390737,0.647756,-1.98638
1470243650321813,-0.394189,0.682948,-1.9776
1470243650344336,-0.39777,0.717806,-1.96838
1470243650359347,-0.404064,0.751946,-1.95964
1470243650381867,-0.412544,0.785699,-1.95178
1470243650402951,-0.421721,0.817999,-1.94413
1470243650418398,-0.430766,0.848346,-1.93687
1470243650441919,-0.440013,0.876749,-1.92944
1470243650462941,-0.449435,0.90361,-1.9221
1470243650479956,-0.457651,0.929074,-1.91493
1470243650501474,-0.466283,0.95188,-1.90863
1470243650523009,-0.47552,0.972086,-1.902
1470243650538506,-0.484178,0.99032,-1.89316
1470243650569033,-0.49296,1.00543,-1.8849
1470243650582577,-0.508053,1.01989,-1.88458
1470243650598593,-0.521021,1.03635,-1.88443
1470243650629092,-0.536841,1.04757,-1.88802
1470243650644101,-0.550526,1.05999,-1.8909
1470243650658614,-0.559223,1.07152,-1.88963
1470243650681634,-0.566655,1.08197,-1.89022
1470243650704157,-0.575951,1.08935,-1.89269
1470243650725177,-0.587917,1.09554,-1.89758
1470243650741689,-0.596612,1.10206,-1.90117
1470243650764209,-0.601618,1.10771,-1.9028
1470243650785233,-0.607045,1.11147,-1.90375
1470243650801742,-0.615748,1.11401,-1.90724
1470243650824765,-0.625668,1.11615,-1.91378
1470243650845335,-0.634687,1.11799,-1.92061
1470243650861798,-0.644341,1.11975,-1.92767
1470243650884316,-0.655803,1.12056,-1.93666
1470243650898329,-0.668601,1.12084,-1.94697
1470243650921851,-0.680557,1.12046,-1.95657
1470243650944373,-0.692678,1.11797,-1.96648
1470243650965388,-0.707939,1.11354,-1.97754
1470243650981904,-0.723077,1.1085,-1.98858
1470243651004424,-0.733588,1.10471,-1.99701
1470243651026945,-0.740664,1.10117,-2.0024
1470243651041458,-0.749196,1.09564,-2.00773
1470243651063978,-0.757108,1.08955,-2.01211
1470243651085497,-0.760609,1.09164,-2.01622
1470243651101514,-0.762011,1.09038,-2.00985
1470243651124032,-0.771185,1.08469,-2.01795
1470243651145651,-0.776868,1.07945,-2.02183
1470243651161567,-0.781407,1.07394,-2.02058
1470243651184107,-0.786807,1.06861,-2.01995
1470243651205152,-0.789717,1.06443,-2.01871
1470243651227655,-0.789638,1.06171,-2.0164
1470243651244140,-0.789925,1.05991,-2.01386
1470243651265202,-0.790242,1.0577,-2.01207
1470243651281673,-0.793213,1.05315,-2.01098
1470243651304193,-0.798778,1.04679,-2.01174
1470243651325297,-0.803824,1.04105,-2.01362
1470243651341229,-0.80711,1.03631,-2.01551
1470243651364749,-0.810007,1.03239,-2.01622
1470243651385266,-0.814048,1.02783,-2.01635
1470243651401804,-0.818757,1.02303,-2.01633
1470243651424301,-0.823432,1.0199,-2.01748
1470243651445349,-0.826134,1.01804,-2.0187
1470243651461841,-0.826465,1.01792,-2.01894
1470243651484370,-0.826618,1.01548,-2.01794
1470243651505433,-0.831451,1.01044,-2.01855
1470243651521889,-0.837182,1.00669,-2.02164
1470243651544409,-0.83883,1.00458,-2.02393
1470243651566929,-0.837844,1.00381,-2.02374
1470243651581944,-0.837984,1.00315,-2.02336
1470243651603963,-0.839385,1.00269,-2.02377
1470243651627042,-0.840268,1.00328,-2.02453
1470243651640996,-0.839662,1.005,-2.02446
1470243651664017,-0.839185,1.00718,-2.02399
1470243651686536,-0.83841,1.00938,-2.02344
1470243651701566,-0.836797,1.0116,-2.0228
1470243651724074,-0.835025,1.01347,-2.0225
1470243651746593,-0.832783,1.01467,-2.02134
1470243651761143,-0.830839,1.01527,-2.02003
1470243651784125,-0.830052,1.01457,-2.01927
1470243651814658,-0.829662,1.01336,-2.01901
1470243651821159,-0.828113,1.01186,-2.01818
1470243651844182,-0.826186,1.01074,-2.01712
1470243651866698,-0.824627,1.00891,-2.01571
1470243651881214,-0.823118,1.00682,-2.01461
1470243651904250,-0.821318,1.00518,-2.01378
1470243651909762,-0.818795,1.00376,-2.01252
1470243651932320,-0.816284,1.00288,-2.01072
1470243651948772,-0.813751,1.00213,-2.00888
1470243651969791,-0.811769,1.00166,-2.00732
1470243651993812,-0.809579,1.00168,-2.00589
1470243652008847,-0.806836,1.00155,-2.00383
1470243652029852,-0.805128,1.0012,-2.0024
1470243652060454,-0.804069,1.00063,-2.00157
1470243652068380,-0.802584,1.00015,-2.00083
1470243652090026,-0.801497,0.999714,-2.00005
1470243652112497,-0.800804,0.998888,-1.9993
1470243652128435,-0.800293,0.997725,-1.9987
1470243652149490,-0.799183,0.996977,-1.99796
1470243652172006,-0.797788,0.996982,-1.99743
1470243652188488,-0.796195,0.997034,-1.99659
1470243652212522,-0.794573,0.997204,-1.9957
1470243652232096,-0.793602,0.997132,-1.99518
1470243652248541,-0.792916,0.997088,-1.99505
1470243652269561,-0.793103,0.997496,-1.99548
1470243652292136,-0.794146,0.998064,-1.9963
1470243652308595,-0.79616,0.998716,-1.99775
1470243652329640,-0.79889,0.999196,-2.00038
1470243652352134,-0.80167,0.999872,-2.00346
1470243652368651,-0.80538,1.00034,-2.00784
1470243652389722,-0.811158,1.00134,-2.01418
1470243652412249,-0.819665,1.00226,-2.02218
1470243652428705,-0.830189,1.0033,-2.0314
1470243652449722,-0.841186,1.00413,-2.0418
1470243652472305,-0.853529,1.00493,-2.05431
1470243652494774,-0.866645,1.0048,-2.06811
1470243652509829,-0.882449,1.00173,-2.08332
1470243652532334,-0.901569,0.997219,-2.10128
1470243652554816,-0.921925,0.991839,-2.12088
1470243652569830,-0.941238,0.985649,-2.14037
1470243652592350,-0.959084,0.978492,-2.15904
1470243652614870,-0.977352,0.968927,-2.1778
1470243652629884,-0.998329,0.957406,-2.19908
1470243652652512,-1.01731,0.946598,-2.21911
1470243652674924,-1.03284,0.936948,-2.23621
1470243652689966,-1.04693,0.928228,-2.2514
1470243652711959,-1.06106,0.92014,-2.2651
1470243652734514,-1.07581,0.911751,-2.27846
1470243652749518,-1.08884,0.903957,-2.29206
1470243652772042,-1.09952,0.897755,-2.30402
1470243652794585,-1.10804,0.891895,-2.31388
1470243652809588,-1.11673,0.886539,-2.32255
1470243652832093,-1.12633,0.880609,-2.33084
1470243652854585,-1.1349,0.874446,-2.33827
1470243652869599,-1.14192,0.868207,-2.34441
1470243652892167,-1.14821,0.861853,-2.35006
1470243652923647,-1.15402,0.855582,-2.35571
1470243652929696,-1.15934,0.849067,-2.3609
1470243652955218,-1.16431,0.843306,-2.36513
1470243652974694,-1.16939,0.837819,-2.36913
1470243652989741,-1.17394,0.832382,-2.37276
1470243653012269,-1.17776,0.827472,-2.37623
1470243653030280,-1.18197,0.822814,-2.3799
1470243653049801,-1.18641,0.818777,-2.38332
1470243653072281,-1.19099,0.815002,-2.38653
1470243653090296,-1.19492,0.811344,-2.38965
1470243653109814,-1.19885,0.807804,-2.39298
1470243653132334,-1.20275,0.804792,-2.39644
1470243653150441,-1.20689,0.802386,-2.39951
1470243653170869,-1.21083,0.800105,-2.40174
1470243653191907,-1.21499,0.797476,-2.40396
1470243653209940,-1.21794,0.795419,-2.4062
1470243653232973,-1.21921,0.79344,-2.40793
1470243653251943,-1.22082,0.791779,-2.40939
1470243653269958,-1.22337,0.790613,-2.41004
1470243653290977,-1.22604,0.789268,-2.41005
1470243653315000,-1.22793,0.787673,-2.40994
1470243653330041,-1.22852,0.786408,-2.41027
1470243653351043,-1.22787,0.785153,-2.41034
1470243653372140,-1.22818,0.784,-2.41028
1470243653390120,-1.22922,0.783082,-2.4101
1470243653411087,-1.23002,0.781973,-2.40953
1470243653432205,-1.23023,0.781196,-2.40922
1470243653450121,-1.22987,0.780455,-2.40878
1470243653472676,-1.22935,0.779765,-2.40882
1470243653492211,-1.22923,0.779418,-2.409
1470243653510175,-1.2292,0.779509,-2.40899
1470243653532694,-1.22924,0.779526,-2.40908
1470243653552214,-1.2292,0.779509,-2.40899
1470243653570243,-1.2283,0.778906,-2.40906
1470243653600299,-1.22775,0.778733,-2.40909
1470243653612298,-1.22769,0.778602,-2.40861
1470243653630282,-1.22802,0.778385,-2.40812
1470243653652804,-1.2276,0.77793,-2.40759
1470243653672356,-1.22642,0.777542,-2.40718
1470243653690335,-1.2254,0.777521,-2.40683
1470243653712858,-1.22475,0.777412,-2.40631
1470243653732374,-1.22466,0.777263,-2.40575
1470243653750390,-1.22474,0.777066,-2.40486
1470243653772410,-1.22474,0.777066,-2.40486
1470243653792431,-1.22436,0.777047,-2.40496
1470243653814947,-1.22358,0.776896,-2.40477
1470243653833031,-1.22357,0.777,-2.40469
1470243653852501,-1.22372,0.776829,-2.40436
1470243653870532,-1.22428,0.77659,-2.4041
1470243653892545,-1.22433,0.775552,-2.40366
1470243653912034,-1.2245,0.77436,-2.40378
1470243653930108,-1.22404,0.772955,-2.40346
1470243653952571,-1.22353,0.770998,-2.40268
1470243653972088,-1.22343,0.769071,-2.40158
1470243653990140,-1.22304,0.766298,-2.39956
1470243654012653,-1.2227,0.762907,-2.39719
1470243654032182,-1.22167,0.758863,-2.39429
1470243654050190,-1.21999,0.754161,-2.39053
1470243654072712,-1.21829,0.748496,-2.38634
1470243654093731,-1.21672,0.741922,-2.38194
1470243654114720,-1.21446,0.734984,-2.37706
1470243654132735,-1.21213,0.72748,-2.37186
1470243654155365,-1.20961,0.719366,-2.36652
1470243654174770,-1.20712,0.71041,-2.36105
1470243654192787,-1.20442,0.701572,-2.35596
1470243654213807,-1.20173,0.692105,-2.35095
1470243654234825,-1.1997,0.683185,-2.34649
1470243654252848,-1.19765,0.674669,-2.34198
1470243654275362,-1.19616,0.666862,-2.33765
1470243654294945,-1.19466,0.659496,-2.33391
1470243654313035,-1.19316,0.652648,-2.33056
1470243654340920,-1.19195,0.646558,-2.32784
1470243654355010,-1.19131,0.640675,-2.32515
1470243654372461,-1.1911,0.635286,-2.32238
1470243654393472,-1.19159,0.62974,-2.31992
1470243654409984,-1.19151,0.624206,-2.31753
1470243654431503,-1.19187,0.618018,-2.3156
1470243654454024,-1.19254,0.612078,-2.31374
1470243654475552,-1.193,0.606365,-2.31182
1470243654492056,-1.19379,0.600988,-2.30998
1470243654514075,-1.19427,0.595332,-2.30857
1470243654535161,-1.1939,0.590369,-2.30751
1470243654551655,-1.19309,0.586289,-2.30647
1470243654574132,-1.19248,0.582995,-2.30546
1470243654595650,-1.19232,0.580103,-2.30465
1470243654611665,-1.19175,0.577385,-2.30431
1470243654634185,-1.19092,0.57507,-2.3041
1470243654648699,-1.19044,0.573348,-2.30412
1470243654671732,-1.19029,0.57186,-2.30435
1470243654694238,-1.19008,0.570554,-2.30448
1470243654708757,-1.18988,0.56926,-2.30483
1470243654731775,-1.19003,0.568006,-2.30518
1470243654754314,-1.19025,0.567174,-2.30522
1470243654768804,-1.19013,0.566217,-2.30534
1470243654791829,-1.18889,0.565488,-2.30522
1470243654814347,-1.18701,0.56494,-2.30505
1470243654828358,-1.18549,0.564401,-2.30433
1470243654851878,-1.18493,0.563913,-2.30377
1470243654874401,-1.18503,0.563508,-2.30311
1470243654888412,-1.18473,0.563265,-2.30278
1470243654911932,-1.18352,0.563052,-2.30232
1470243654934453,-1.18225,0.562937,-2.30183
1470243654955472,-1.18152,0.563014,-2.30139
1470243654971487,-1.1817,0.563049,-2.30086
1470243654994011,-1.18213,0.562886,-2.30062
1470243655015555,-1.18164,0.562669,-2.30033
1470243655032041,-1.18027,0.562219,-2.29998
1470243655054060,-1.17922,0.562001,-2.29983
1470243655075582,-1.17812,0.562038,-2.2993
1470243655091594,-1.17798,0.562019,-2.29865
1470243655114615,-1.17816,0.562053,-2.29812
1470243655135634,-1.17772,0.562362,-2.2978
1470243655151649,-1.17601,0.563053,-2.2979
1470243655174170,-1.17415,0.565258,-2.29766
1470243655195212,-1.17278,0.568882,-2.29689
1470243655211704,-1.17188,0.574074,-2.29642
1470243655234222,-1.16931,0.582594,-2.29504
1470243655263265,-1.1656,0.595364,-2.29244
1470243655271255,-1.16169,0.611417,-2.28888
1470243655294276,-1.15578,0.630858,-2.28536
1470243655315332,-1.14601,0.653299,-2.28069
1470243655337892,-1.13359,0.680182,-2.2744
1470243655354330,-1.11993,0.709159,-2.26548
1470243655376877,-1.10623,0.736721,-2.25466
1470243655390864,-1.08838,0.761095,-2.24208
1470243655414383,-1.05848,0.782956,-2.22424
1470243655436904,-1.01324,0.797124,-2.19848
1470243655457922,-0.956049,0.804922,-2.16535
1470243655473938,-0.893633,0.802262,-2.12873
1470243655496976,-0.825827,0.794646,-2.08806
1470243655518069,-0.758353,0.782402,-2.04477
1470243655534514,-0.69215,0.755033,-2.00077
1470243655556512,-0.630765,0.710103,-1.96379
1470243655585546,-0.577942,0.654032,-1.94123
1470243655594570,-0.534351,0.593322,-1.92971
1470243655624072,-0.497608,0.531575,-1.92025
1470243655645596,-0.471739,0.471936,-1.91233
1470243655654150,-0.454571,0.411751,-1.90948
1470243655677120,-0.437531,0.349788,-1.90809
1470243655698139,-0.414619,0.292254,-1.90918
1470243655714155,-0.383672,0.243535,-1.91448
1470243655736673,-0.350406,0.203138,-1.92336
1470243655757748,-0.32409,0.169656,-1.93374
1470243655774208,-0.311044,0.139863,-1.94522
1470243655796729,-0.305969,0.112609,-1.95749
1470243655817790,-0.302051,0.0872791,-1.97055
1470243655833763,-0.298011,0.0616109,-1.98581
1470243655856781,-0.288186,0.0352281,-2.00246
1470243655877846,-0.271782,0.00993996,-2.01916
1470243655894817,-0.254298,-0.0127143,-2.0346
1470243655916838,-0.241689,-0.0321296,-2.04802
1470243655937871,-0.235532,-0.0493419,-2.05976
1470243655954369,-0.234738,-0.0651877,-2.07129
1470243655976889,-0.233672,-0.0796796,-2.08302
1470243655997942,-0.232082,-0.0918391,-2.09503
1470243656014423,-0.228343,-0.100401,-2.10667
1470243656036942,-0.22271,-0.106005,-2.11713
1470243656058048,-0.219923,-0.110739,-2.12675
1470243656073478,-0.221085,-0.116051,-2.13597
1470243656097015,-0.223493,-0.119894,-2.14408
1470243656118016,-0.225999,-0.122649,-2.14967
1470243656133530,-0.226645,-0.125619,-2.15421
1470243656156550,-0.231023,-0.129951,-2.15681
1470243656178070,-0.236969,-0.134378,-2.1585
1470243656193592,-0.240174,-0.137736,-2.15852
1470243656216604,-0.24249,-0.141541,-2.15658
1470243656238255,-0.245546,-0.146748,-2.15409
1470243656253669,-0.247677,-0.151339,-2.15182
1470243656276676,-0.246911,-0.153865,-2.1502
1470243656298177,-0.246498,-0.152809,-2.15007
1470243656313702,-0.249259,-0.149723,-2.15106
1470243656336712,-0.253643,-0.146174,-2.15173
1470243656359232,-0.258762,-0.142631,-2.1521
1470243656374246,-0.263733,-0.139705,-2.15212
1470243656396766,-0.266342,-0.136428,-2.15157
1470243656419287,-0.269409,-0.133453,-2.15089
1470243656434300,-0.273719,-0.131244,-2.15041
1470243656456820,-0.279197,-0.129397,-2.14995
1470243656479341,-0.284485,-0.127253,-2.14973
1470243656493853,-0.289949,-0.125162,-2.14955
1470243656516876,-0.295707,-0.123293,-2.14903
1470243656539431,-0.301816,-0.121809,-2.14857
1470243656553407,-0.307728,-0.120993,-2.14812
1470243656576929,-0.314614,-0.120954,-2.14786
1470243656599479,-0.321973,-0.122442,-2.1482
1470243656620556,-0.327716,-0.123482,-2.14927
1470243656637018,-0.331018,-0.12504,-2.15077
1470243656659512,-0.33129,-0.125516,-2.15331
1470243656680521,-0.327224,-0.123265,-2.1574
1470243656696535,-0.319944,-0.11875,-2.16156
1470243656719555,-0.315626,-0.11409,-2.16463
1470243656740575,-0.31492,-0.110523,-2.16685
1470243656756589,-0.314174,-0.107461,-2.16951
1470243656779109,-0.312303,-0.104496,-2.1727
1470243656801649,-0.310872,-0.101889,-2.17607
1470243656816661,-0.310383,-0.0987104,-2.17877
1470243656839163,-0.310885,-0.0961543,-2.18048
1470243656860273,-0.3114,-0.094183,-2.1824
1470243656876698,-0.312412,-0.0924566,-2.18489
1470243656899218,-0.314123,-0.0914241,-2.18789
1470243656920772,-0.314887,-0.0899421,-2.19116
1470243656936751,-0.313845,-0.0874168,-2.19334
1470243656959271,-0.311654,-0.0842135,-2.19544
1470243656980303,-0.31037,-0.0816551,-2.19747
1470243656996805,-0.310349,-0.0797335,-2.19964
1470243657019342,-0.310925,-0.0783382,-2.20173
1470243657040376,-0.312231,-0.0772011,-2.20329
1470243657056859,-0.313597,-0.0767019,-2.20464
1470243657079378,-0.314754,-0.0763254,-2.2061
1470243657100423,-0.316077,-0.075735,-2.2076
1470243657116913,-0.317999,-0.0750172,-2.20931
1470243657139434,-0.319862,-0.0741665,-2.21082
1470243657160469,-0.321127,-0.0732054,-2.21238
1470243657176966,-0.322127,-0.0724991,-2.21381
1470243657199486,-0.323117,-0.0718101,-2.21531
1470243657220505,-0.324564,-0.0711797,-2.21684
1470243657237021,-0.32611,-0.0704859,-2.21826
1470243657259556,-0.327339,-0.0696518,-2.21953
1470243657281560,-0.327901,-0.0688516,-2.22067
1470243657296574,-0.328207,-0.0680461,-2.22185
1470243657319606,-0.328774,-0.0675169,-2.22296
1470243657341617,-0.329568,-0.0671238,-2.22385
1470243657356635,-0.330601,-0.0668506,-2.22447
1470243657379149,-0.33092,-0.0665128,-2.22511
1470243657401716,-0.330843,-0.0662248,-2.2257
1470243657416181,-0.330823,-0.0662861,-2.22604
1470243657439202,-0.331372,-0.0663538,-2.22643
1470243657461738,-0.331633,-0.0663896,-2.22659
1470243657476235,-0.331746,-0.0663369,-2.22661
1470243657499258,-0.331633,-0.0663896,-2.22659
1470243657521777,-0.331027,-0.0668266,-2.22661
1470243657536289,-0.330771,-0.0673302,-2.22638
1470243657559349,-0.330774,-0.0678408,-2.2261
1470243657581835,-0.330561,-0.0684405,-2.22571
1470243657596347,-0.32926,-0.0689636,-2.22496
1470243657619365,-0.327427,-0.0696753,-2.22372
1470243657641885,-0.325375,-0.0704225,-2.22196
1470243657656396,-0.323736,-0.0713486,-2.21995
1470243657679420,-0.32408,-0.072423,-2.21802
1470243657701954,-0.325758,-0.0739563,-2.21615
1470243657715978,-0.326211,-0.0756038,-2.21471
1470243657739471,-0.325609,-0.0768389,-2.21352
1470243657762005,-0.324979,-0.0778362,-2.21249
1470243657783025,-0.325393,-0.0788068,-2.21198
1470243657799525,-0.326294,-0.0797318,-2.21186
1470243657822045,-0.327563,-0.080395,-2.21216
1470243657843064,-0.328868,-0.080431,-2.21303
1470243657859079,-0.330132,-0.0802748,-2.21434
1470243657881601,-0.331606,-0.0797895,-2.21599
1470243657903118,-0.333424,-0.0791772,-2.21791
1470243657919158,-0.335826,-0.078191,-2.22014
1470243657941657,-0.338991,-0.07716,-2.22267
1470243657963177,-0.34331,-0.0760868,-2.22581
1470243657978687,-0.349328,-0.074723,-2.22959
1470243658001709,-0.356662,-0.0731955,-2.23442
1470243658022774,-0.364827,-0.0707431,-2.24079
1470243658038741,-0.374337,-0.0674561,-2.24887
1470243658061762,-0.38603,-0.0635923,-2.25813
1470243658083281,-0.397057,-0.0590188,-2.26788
1470243658098795,-0.408208,-0.0541422,-2.27779
1470243658121815,-0.419178,-0.0493509,-2.28775
1470243658142858,-0.428993,-0.045279,-2.29735
1470243658158364,-0.438341,-0.0412107,-2.30679
1470243658181870,-0.447016,-0.0374446,-2.31515
1470243658202941,-0.454369,-0.0340955,-2.32242
1470243658218901,-0.461508,-0.0309977,-2.32889
1470243658241932,-0.469247,-0.0283857,-2.33482
1470243658264443,-0.475582,-0.0260227,-2.34079
1470243658278956,-0.481392,-0.0234528,-2.34595
1470243658301976,-0.486128,-0.0211057,-2.35059
1470243658324496,-0.489748,-0.0197751,-2.35463
1470243658338511,-0.491867,-0.0187875,-2.35748
1470243658362030,-0.494057,-0.0182589,-2.35897
1470243658384551,-0.495895,-0.0181926,-2.35957
1470243658398597,-0.49679,-0.0179658,-2.35902
1470243658422086,-0.496472,-0.0177627,-2.35771
1470243658444151,-0.494986,-0.0184722,-2.35536
1470243658458618,-0.491764,-0.019714,-2.35223
1470243658481672,-0.487374,-0.0216962,-2.34787
1470243658504158,-0.480495,-0.0240821,-2.34302
1470243658525176,-0.471755,-0.026059,-2.33759
1470243658541692,-0.463288,-0.0281643,-2.33236
1470243658564212,-0.455253,-0.030611,-2.32746
1470243658585754,-0.447914,-0.0326351,-2.32301
1470243658601761,-0.441737,-0.0342789,-2.31895
1470243658624286,-0.43727,-0.0359095,-2.31565
1470243658645304,-0.434797,-0.0376353,-2.31292
1470243658661800,-0.433416,-0.0386308,-2.31089
1470243658684322,-0.433037,-0.038685,-2.30972
1470243658698832,-0.433217,-0.0388133,-2.30877
1470243658721853,-0.434451,-0.0387,-2.3082
1470243658744374,-0.436145,-0.0385364,-2.30836
1470243658765394,-0.438775,-0.0381809,-2.30888
1470243658781908,-0.442495,-0.0376378,-2.31011
1470243658804430,-0.446831,-0.0365582,-2.31196
1470243658825526,-0.452561,-0.0352569,-2.31431
1470243658841961,-0.459723,-0.0338833,-2.31655
1470243658864482,-0.466869,-0.0324313,-2.31896
1470243658885549,-0.471903,-0.0304404,-2.32211
1470243658902017,-0.475427,-0.0284091,-2.32516
1470243658924539,-0.479013,-0.026737,-2.32807
1470243658945554,-0.483449,-0.0251639,-2.33113
1470243658961569,-0.487968,-0.0237704,-2.33386
1470243658984133,-0.492148,-0.0219433,-2.33699
1470243659005608,-0.496342,-0.0201967,-2.34041
1470243659021627,-0.50126,-0.018633,-2.34405
1470243659044187,-0.505972,-0.0171914,-2.34778
1470243659065662,-0.510825,-0.0158056,-2.35129
1470243659081677,-0.516158,-0.0148254,-2.355
1470243659104199,-0.521356,-0.0136912,-2.35881
1470243659125270,-0.528227,-0.012855,-2.36268
1470243659141251,-0.536387,-0.0121402,-2.36628
1470243659164251,-0.545211,-0.0117193,-2.36979
1470243659186773,-0.553971,-0.011894,-2.37376
1470243659201286,-0.561953,-0.0121738,-2.37784
1470243659224305,-0.568725,-0.0125755,-2.38195
1470243659246827,-0.574926,-0.0130822,-2.38646
1470243659261340,-0.582501,-0.0138462,-2.3908
1470243659284393,-0.591555,-0.014902,-2.39376
1470243659306879,-0.6013,-0.0164642,-2.39651
1470243659327897,-0.61014,-0.018484,-2.39988
1470243659344412,-0.617635,-0.0204668,-2.404
1470243659366960,-0.625417,-0.0221749,-2.40838
1470243659387967,-0.632759,-0.02407,-2.41223
1470243659404466,-0.638679,-0.0258326,-2.41606
1470243659426986,-0.645222,-0.0277523,-2.41972
1470243659448037,-0.652496,-0.0295647,-2.42252
1470243659464521,-0.658811,-0.031459,-2.42489
1470243659487041,-0.661958,-0.0334525,-2.42727
1470243659508059,-0.663051,-0.0352928,-2.42943
1470243659524097,-0.664558,-0.0365338,-2.43062
1470243659546594,-0.667111,-0.0374121,-2.43149
1470243659561107,-0.671041,-0.0379043,-2.43229
1470243659584128,-0.674163,-0.038232,-2.43332
1470243659606648,-0.675819,-0.0381132,-2.43471
1470243659621175,-0.678153,-0.0378938,-2.43613
1470243659644182,-0.679882,-0.0371406,-2.43735
1470243659666746,-0.68224,-0.0355972,-2.43894
1470243659672273,-0.685398,-0.033282,-2.44072
1470243659694727,-0.691519,-0.032325,-2.4427
1470243659709783,-0.701684,-0.0336527,-2.44418
1470243659732291,-0.710862,-0.0359589,-2.44509
1470243659754822,-0.716342,-0.0382091,-2.44705
1470243659769810,-0.72069,-0.0400279,-2.45014
1470243659792332,-0.726499,-0.0422025,-2.4525
1470243659814836,-0.732481,-0.0455171,-2.45468
1470243659829853,-0.738709,-0.0492276,-2.45623
1470243659852401,-0.744034,-0.051712,-2.45739
1470243659870385,-0.747669,-0.0525337,-2.45807
1470243659889911,-0.749776,-0.0523398,-2.45838
1470243659912422,-0.750285,-0.052174,-2.45842
1470243659930439,-0.749232,-0.0518149,-2.45797
1470243659949956,-0.744965,-0.0505837,-2.45744
1470243659972490,-0.73755,-0.0495008,-2.45739
1470243659995002,-0.730339,-0.0484263,-2.45675
1470243660009509,-0.72415,-0.0471946,-2.45623
1470243660032532,-0.718552,-0.0454622,-2.45528
1470243660057568,-0.708347,-0.0434449,-2.45402
1470243660069579,-0.693015,-0.0415282,-2.45259
1470243660092085,-0.680478,-0.0394915,-2.4495
1470243660115105,-0.674731,-0.0363155,-2.44519
1470243660129620,-0.669518,-0.0327442,-2.43978
1470243660152140,-0.653975,-0.0307397,-2.4347
1470243660174657,-0.632437,-0.0303529,-2.43005
1470243660189671,-0.618878,-0.0288424,-2.42293
1470243660212194,-0.614563,-0.025572,-2.41303
1470243660234712,-0.608801,-0.0237028,-2.40177
1470243660251227,-0.592379,-0.0244263,-2.39229
1470243660272248,-0.575092,-0.0250045,-2.38291
1470243660294766,-0.565779,-0.0241706,-2.37191
1470243660309780,-0.558814,-0.0243198,-2.36056
1470243660332299,-0.546309,-0.0267114,-2.35169
1470243660354848,-0.530807,-0.0292751,-2.3439
1470243660369864,-0.519054,-0.0297767,-2.33593
1470243660392354,-0.512771,-0.0304674,-2.32823
1470243660414874,-0.506087,-0.0336513,-2.32081
1470243660429905,-0.493774,-0.0378435,-2.31452
1470243660452407,-0.47956,-0.0405118,-2.30838
1470243660474928,-0.468847,-0.0400491,-2.30152
1470243660489941,-0.463524,-0.0387644,-2.29461
1470243660519968,-0.459688,-0.0389637,-2.28848
1470243660534981,-0.454688,-0.0393869,-2.28399
1470243660549995,-0.449293,-0.0390156,-2.28058
1470243660572604,-0.445092,-0.0379229,-2.27818
1470243660594550,-0.442061,-0.0372599,-2.27703
1470243660610132,-0.439978,-0.0370528,-2.27739
1470243660632069,-0.438932,-0.0358491,-2.2792
1470243660650630,-0.438234,-0.0340094,-2.28134
1470243660670110,-0.436918,-0.0323187,-2.2835
1470243660692123,-0.434867,-0.0310671,-2.28552
1470243660710139,-0.433513,-0.0297482,-2.28744
1470243660731158,-0.431701,-0.0282389,-2.28876
1470243660752211,-0.428145,-0.0271922,-2.28919
1470243660770194,-0.423364,-0.0267336,-2.28851
1470243660791213,-0.417099,-0.0269254,-2.28633
1470243660812233,-0.409182,-0.0276193,-2.28287
1470243660834753,-0.399997,-0.0287233,-2.27768
1470243660851267,-0.390253,-0.0307746,-2.27003
1470243660872311,-0.381891,-0.0341036,-2.26044
1470243660894804,-0.375926,-0.0393117,-2.25094
1470243660918828,-0.370719,-0.0462151,-2.24246
1470243660932338,-0.365923,-0.0545159,-2.23558
1470243660954866,-0.361932,-0.0606106,-2.23154
1470243660972914,-0.361922,-0.062725,-2.23008
1470243660992392,-0.366828,-0.062895,-2.23122
1470243661014912,-0.375023,-0.0632114,-2.23434
1470243661030926,-0.383066,-0.0636188,-2.23894
1470243661052446,-0.390078,-0.0626428,-2.24517
1470243661075108,-0.398296,-0.0595621,-2.25327
1470243661093126,-0.410282,-0.0547818,-2.26336
1470243661112500,-0.426746,-0.0498501,-2.27461
1470243661135522,-0.44459,-0.0453688,-2.28663
1470243661153053,-0.457524,-0.0402715,-2.29733
1470243661172081,-0.464928,-0.035917,-2.30475
1470243661195078,-0.467352,-0.0327424,-2.30815
1470243661213133,-0.465901,-0.0297223,-2.30777
1470243661232615,-0.46063,-0.0274949,-2.30352
1470243661255130,-0.452317,-0.0272635,-2.29527
1470243661273146,-0.440234,-0.0294437,-2.2848
1470243661292666,-0.425783,-0.0333661,-2.27482
1470243661315182,-0.413447,-0.0372823,-2.2668
1470243661332702,-0.407025,-0.0404738,-2.26154
1470243661352217,-0.40539,-0.0427622,-2.26016
1470243661374772,-0.40727,-0.0444065,-2.26247
1470243661392796,-0.411015,-0.0446599,-2.26767
1470243661412298,-0.416228,-0.0438207,-2.27481
1470243661435293,-0.42286,-0.0426138,-2.28243
1470243661452864,-0.429569,-0.0412302,-2.28972
1470243661472352,-0.435449,-0.0394001,-2.29551
1470243661494875,-0.437832,-0.0374483,-2.29776
1470243661512902,-0.433348,-0.0359749,-2.29306
1470243661532380,-0.423986,-0.0376924,-2.28041
1470243661554897,-0.410497,-0.0420811,-2.26322
1470243661572913,-0.39307,-0.0471664,-2.24484
1470243661592432,-0.372661,-0.0540899,-2.22563
1470243661614951,-0.351116,-0.062726,-2.2062
1470243661632744,-0.330156,-0.073799,-2.18941
1470243661652269,-0.309271,-0.0867422,-2.17715
1470243661674787,-0.289645,-0.0984795,-2.16688
1470243661692788,-0.275458,-0.108977,-2.15636
1470243661713806,-0.267427,-0.118223,-2.14735
1470243661734826,-0.263818,-0.126185,-2.14123
1470243661752842,-0.261282,-0.131586,-2.13758
1470243661773860,-0.259362,-0.13471,-2.13565
1470243661794892,-0.259613,-0.137759,-2.13492
1470243661812895,-0.262983,-0.14065,-2.13543
1470243661835416,-0.268687,-0.142514,-2.13701
1470243661850430,-0.275882,-0.143659,-2.13926
1470243661872999,-0.28089,-0.14365,-2.14215
1470243661893468,-0.283683,-0.14174,-2.1464
1470243661914989,-0.284761,-0.137144,-2.15245
1470243661933021,-0.285577,-0.130919,-2.16017
1470243661953553,-0.286996,-0.124054,-2.16842
1470243661975047,-0.286696,-0.118235,-2.17638
1470243661992558,-0.284575,-0.112341,-2.18258
1470243662015078,-0.280974,-0.10692,-2.18743
1470243662035108,-0.278152,-0.102657,-2.18999
1470243662052639,-0.277965,-0.100913,-2.18975
1470243662075174,-0.276899,-0.101759,-2.18748
1470243662094648,-0.272449,-0.104321,-2.18378
1470243662112721,-0.265011,-0.107512,-2.17909
1470243662135244,-0.257241,-0.110684,-2.17349
1470243662154702,-0.24921,-0.114607,-2.16783
1470243662171718,-0.242559,-0.119531,-2.16206
1470243662194239,-0.238075,-0.124359,-2.15649
1470243662215258,-0.233655,-0.128686,-2.15161
1470243662231774,-0.229715,-0.133364,-2.14682
1470243662254793,-0.224191,-0.136883,-2.14294
1470243662275818,-0.219066,-0.138136,-2.14147
1470243662291826,-0.217761,-0.138549,-2.14136
1470243662314347,-0.218954,-0.138497,-2.14172
1470243662335407,-0.220927,-0.13839,-2.14329
1470243662351882,-0.222916,-0.137492,-2.14565
1470243662374401,-0.227672,-0.137399,-2.14841
1470243662388921,-0.232133,-0.13764,-2.15149
1470243662411934,-0.236446,-0.138439,-2.15496
1470243662434454,-0.239113,-0.13849,-2.15913
1470243662448967,-0.243364,-0.138445,-2.16355
1470243662471998,-0.250594,-0.137915,-2.16871
1470243662494510,-0.261471,-0.136844,-2.17439
1470243662515528,-0.272768,-0.134713,-2.18072
1470243662532041,-0.28551,-0.132262,-2.18745
1470243662554564,-0.296726,-0.12865,-2.1947
1470243662575645,-0.307701,-0.12424,-2.20271
1470243662591597,-0.318929,-0.119551,-2.21083
1470243662614616,-0.331121,-0.115296,-2.21862
1470243662635634,-0.343065,-0.112326,-2.22596
1470243662652149,-0.355902,-0.109884,-2.23251
1470243662674694,-0.367164,-0.107112,-2.23861
1470243662695689,-0.375677,-0.104209,-2.24393
1470243662711704,-0.381654,-0.102018,-2.24854
1470243662734223,-0.387934,-0.101664,-2.25236
1470243662756772,-0.394352,-0.103364,-2.25547
1470243662777796,-0.399292,-0.105803,-2.25796
1470243662794277,-0.398423,-0.107724,-2.25712
1470243662815298,-0.392486,-0.110888,-2.25465
1470243662831310,-0.386226,-0.115837,-2.25107
1470243662854331,-0.381498,-0.122911,-2.24602
1470243662875425,-0.375558,-0.130719,-2.24083
1470243662891364,-0.367292,-0.137836,-2.23538
1470243662914385,-0.360165,-0.143677,-2.23022
1470243662935445,-0.354146,-0.1484,-2.22747
1470243662950918,-0.346268,-0.151686,-2.22681
1470243662974438,-0.339053,-0.152903,-2.22761
1470243662996975,-0.33503,-0.151063,-2.23063
1470243663011034,-0.336516,-0.147182,-2.23602
1470243663034494,-0.341241,-0.142875,-2.24324
1470243663057015,-0.345978,-0.138336,-2.25048
1470243663078031,-0.351292,-0.134765,-2.25727
1470243663094549,-0.356379,-0.130623,-2.26475
1470243663117066,-0.362428,-0.126624,-2.27472
1470243663138138,-0.371058,-0.123236,-2.2866
1470243663154600,-0.382897,-0.119524,-2.30006
1470243663176642,-0.397031,-0.116592,-2.31389
1470243663198140,-0.410305,-0.115434,-2.32889
1470243663214655,-0.423115,-0.115896,-2.34515
1470243663237174,-0.436173,-0.118709,-2.36157
1470243663258193,-0.449943,-0.123729,-2.37767
1470243663274240,-0.464157,-0.129154,-2.39403
1470243663296728,-0.47748,-0.132303,-2.40847
1470243663318312,-0.488472,-0.133872,-2.42083
1470243663334273,-0.498888,-0.135101,-2.43131
1470243663356783,-0.508919,-0.138294,-2.43984
1470243663385820,-0.516158,-0.142733,-2.44516
1470243663394316,-0.518912,-0.145949,-2.44784
1470243663416876,-0.516574,-0.146354,-2.44843
1470243663437898,-0.511891,-0.145166,-2.44748
1470243663454370,-0.503303,-0.142796,-2.44607
1470243663476890,-0.490586,-0.140259,-2.44464
1470243663497910,-0.474239,-0.136929,-2.44223
1470243663514424,-0.454753,-0.13107,-2.43945
1470243663536944,-0.432053,-0.122626,-2.43557
1470243663558005,-0.407192,-0.113394,-2.42956
1470243663581992,-0.386547,-0.105389,-2.4198
1470243663597008,-0.375286,-0.0993459,-2.40706
1470243663618077,-0.371028,-0.0959705,-2.39187
1470243663634541,-0.365202,-0.0937816,-2.37648
1470243663657060,-0.351968,-0.0922787,-2.3612
1470243663678118,-0.334811,-0.0923238,-2.34573
1470243663693595,-0.32044,-0.0940236,-2.32908
1470243663717113,-0.311572,-0.097319,-2.31376
1470243663738132,-0.307782,-0.10074,-2.30064
1470243663753647,-0.304534,-0.105213,-2.28848
1470243663777169,-0.296579,-0.111329,-2.2772
1470243663798187,-0.283722,-0.120458,-2.26777
1470243663813702,-0.264711,-0.127068,-2.2616
1470243663836721,-0.236427,-0.127808,-2.25913
1470243663857804,-0.21023,-0.126131,-2.25585
1470243663873795,-0.200658,-0.127806,-2.25272
1470243663896775,-0.202952,-0.130962,-2.25077
1470243663919296,-0.203398,-0.132361,-2.25035
1470243663933809,-0.202214,-0.130235,-2.25297
1470243663956829,-0.20464,-0.129968,-2.25561
1470243663979349,-0.211382,-0.13217,-2.258
1470243663993862,-0.222095,-0.13802,-2.25877
1470243664022952,-0.227623,-0.144261,-2.25795
1470243664039443,-0.223733,-0.14914,-2.25684
1470243664060423,-0.214609,-0.152163,-2.25673
1470243664076939,-0.207418,-0.154779,-2.25586
1470243664099459,-0.20885,-0.158553,-2.25472
1470243664120475,-0.214773,-0.163325,-2.25297
1470243664136992,-0.217686,-0.166996,-2.25254
1470243664159512,-0.217046,-0.170361,-2.25323
1470243664174026,-0.217682,-0.173536,-2.25585
1470243664197060,-0.219753,-0.177904,-2.25785
1470243664219575,-0.224201,-0.184259,-2.25864
1470243664240649,-0.228915,-0.189455,-2.25834
1470243664257108,-0.232196,-0.192964,-2.25768
1470243664279629,-0.233201,-0.193505,-2.25638
1470243664300648,-0.236064,-0.19329,-2.25475
1470243664317173,-0.238319,-0.192768,-2.25441
1470243664339693,-0.239954,-0.192553,-2.25449
1470243664353697,-0.243639,-0.190641,-2.25549
1470243664377217,-0.242513,-0.186727,-2.25674
1470243664400738,-0.24098,-0.183163,-2.25826
1470243664420788,-0.242992,-0.180853,-2.26001
1470243664436771,-0.24878,-0.178014,-2.26134
1470243664459290,-0.250316,-0.172521,-2.2616
1470243664480334,-0.243539,-0.166223,-2.26032
1470243664496865,-0.23428,-0.160222,-2.25835
1470243664519351,-0.22795,-0.154387,-2.25633
1470243664540865,-0.227043,-0.148982,-2.25366
1470243664556880,-0.229272,-0.146467,-2.25236
1470243664581405,-0.230095,-0.146824,-2.25144
1470243664600420,-0.227956,-0.146385,-2.25051
1470243664616932,-0.225158,-0.146819,-2.24967
1470243664639453,-0.221745,-0.148485,-2.24862
1470243664660487,-0.216773,-0.150446,-2.24706
1470243664677020,-0.214437,-0.150263,-2.24439
1470243664699507,-0.217266,-0.149835,-2.24191
1470243664720551,-0.220068,-0.149088,-2.24058
1470243664737063,-0.219567,-0.148654,-2.24074
1470243664759560,-0.218056,-0.148713,-2.24107
1470243664780578,-0.217139,-0.148615,-2.24134
1470243664797093,-0.217194,-0.148452,-2.24135
1470243664819613,-0.217495,-0.147894,-2.24125
1470243664842134,-0.218311,-0.146826,-2.24138
1470243664857147,-0.219181,-0.145595,-2.24153
1470243664879686,-0.220152,-0.144357,-2.2421
1470243664901689,-0.221086,-0.143418,-2.24286
1470243664917201,-0.221893,-0.142396,-2.24342
1470243664939267,-0.222415,-0.141058,-2.24364
1470243664961745,-0.223018,-0.140111,-2.24392
1470243664976255,-0.223742,-0.139635,-2.24396
1470243664999778,-0.224248,-0.139172,-2.24463
1470243665021800,-0.22473,-0.138489,-2.2458
1470243665036309,-0.226494,-0.138389,-2.24647
1470243665059331,-0.228652,-0.138859,-2.24627
1470243665081851,-0.229527,-0.138542,-2.24574
1470243665096362,-0.228234,-0.137742,-2.24528
1470243665119383,-0.227112,-0.137275,-2.24479
1470243665141903,-0.228192,-0.137964,-2.24435
1470243665156417,-0.231077,-0.139543,-2.24361
1470243665179471,-0.233844,-0.140777,-2.24282
1470243665201957,-0.234171,-0.141241,-2.24202
1470243665216484,-0.232144,-0.140669,-2.24174
1470243665239491,-0.231132,-0.140083,-2.24211
1470243665262012,-0.231563,-0.13961,-2.24221
1470243665276524,-0.232191,-0.138882,-2.24199
1470243665299545,-0.231631,-0.138064,-2.24217
1470243665322065,-0.229951,-0.136986,-2.2427
1470243665343112,-0.228123,-0.135818,-2.24294
1470243665359599,-0.227536,-0.135314,-2.24345
1470243665382119,-0.226982,-0.135042,-2.2436
1470243665403179,-0.226205,-0.134875,-2.24373
1470243665419654,-0.225164,-0.134397,-2.2436
1470243665441672,-0.225128,-0.134291,-2.24368
1470243665463192,-0.225072,-0.134181,-2.24368
1470243665479207,-0.225072,-0.134181,-2.24368
1470243665501727,-0.22512,-0.134278,-2.24354
1470243665523359,-0.22512,-0.134278,-2.24354
1470243665539264,-0.225584,-0.134775,-2.24394
1470243665561788,-0.225949,-0.135315,-2.24426
1470243665583304,-0.226117,-0.135373,-2.24426
1470243665599314,-0.22615,-0.135774,-2.24438
1470243665621834,-0.226373,-0.136239,-2.24456
1470243665643469,-0.226407,-0.136913,-2.24466
1470243665659368,-0.226142,-0.137171,-2.24457
1470243665681928,-0.226131,-0.137453,-2.24462
1470243665702907,-0.226382,-0.137772,-2.24496
1470243665719422,-0.227147,-0.13845,-2.24591
1470243665741946,-0.227771,-0.138925,-2.24702
1470243665762988,-0.229054,-0.139202,-2.24773
1470243665779529,-0.230703,-0.13952,-2.24774
1470243665801996,-0.233419,-0.140537,-2.24738
1470243665824516,-0.239375,-0.142908,-2.24708
1470243665838531,-0.24767,-0.146341,-2.2464
1470243665862049,-0.256026,-0.149679,-2.24497
1470243665884571,-0.262111,-0.151869,-2.24328
1470243665899083,-0.26559,-0.153095,-2.24025
1470243665922126,-0.269161,-0.154435,-2.2361
1470243665944624,-0.274508,-0.156006,-2.23184
1470243665965642,-0.278569,-0.157069,-2.22746
1470243665982159,-0.280267,-0.156284,-2.22246
1470243666004194,-0.28284,-0.154191,-2.21838
1470243666018691,-0.28607,-0.151954,-2.21483
1470243666041716,-0.289927,-0.148881,-2.21168
1470243666064243,-0.295003,-0.144296,-2.20805
1470243666085751,-0.302381,-0.139662,-2.2045
1470243666101765,-0.309537,-0.135321,-2.20159
1470243666125286,-0.316146,-0.131871,-2.19821
1470243666145805,-0.322534,-0.130193,-2.19493
1470243666161829,-0.329762,-0.130826,-2.19234
1470243666184347,-0.3374,-0.133738,-2.19057
1470243666205862,-0.344833,-0.137857,-2.18966
1470243666221873,-0.350012,-0.140774,-2.19105
1470243666244425,-0.351084,-0.140083,-2.19691
1470243666265443,-0.347445,-0.134279,-2.20348
1470243666281933,-0.348202,-0.128313,-2.20842
1470243666304448,-0.356209,-0.123839,-2.21251
1470243666325466,-0.364475,-0.118703,-2.21826
1470243666341981,-0.372027,-0.111435,-2.22641
1470243666364501,-0.382757,-0.102075,-2.23723
1470243666385555,-0.396035,-0.0895636,-2.25093
1470243666402037,-0.412106,-0.0759564,-2.26643
1470243666424562,-0.432196,-0.0635427,-2.28281
1470243666445619,-0.455545,-0.0525544,-2.29844
1470243666462093,-0.477942,-0.0448747,-2.31164
1470243666484608,-0.489066,-0.0376901,-2.32079
1470243666505645,-0.493203,-0.0314413,-2.32727
1470243666521642,-0.496271,-0.0269204,-2.33096
1470243666544663,-0.501077,-0.0252834,-2.33148
1470243666565682,-0.510132,-0.0264781,-2.32924
1470243666581696,-0.516924,-0.031438,-2.32394
1470243666604223,-0.512959,-0.0369863,-2.31304
1470243666625769,-0.497618,-0.0430224,-2.30082
1470243666641762,-0.468883,-0.0478559,-2.29353
1470243666664304,-0.432936,-0.0497621,-2.28975
1470243666685344,-0.399114,-0.0520449,-2.28612
1470243666701327,-0.381654,-0.0564512,-2.28129
1470243666724331,-0.378516,-0.0619664,-2.27652
1470243666746845,-0.378603,-0.0662684,-2.2731
1470243666761357,-0.375538,-0.0665797,-2.27234
1470243666784379,-0.373182,-0.0629553,-2.2745
1470243666806899,-0.376928,-0.0585236,-2.27856
1470243666821411,-0.387787,-0.0549042,-2.28357
1470243666844465,-0.403241,-0.0525531,-2.28918
1470243666867012,-0.420521,-0.0518354,-2.29485
1470243666888014,-0.437282,-0.0519161,-2.30007
1470243666904487,-0.450502,-0.0515574,-2.30445
1470243666927006,-0.457724,-0.0509938,-2.30693
1470243666948027,-0.461485,-0.0499193,-2.30705
1470243666964540,-0.464477,-0.0495414,-2.30569
1470243666987098,-0.467133,-0.0502777,-2.30255
1470243667008108,-0.465498,-0.0519148,-2.29687
1470243667024593,-0.457876,-0.0542576,-2.28777
1470243667047146,-0.442812,-0.057176,-2.28002
1470243667068148,-0.420928,-0.0597386,-2.27486
1470243667084678,-0.398296,-0.0629483,-2.27056
1470243667107168,-0.381584,-0.0651269,-2.26666
1470243667128188,-0.374932,-0.0669998,-2.26449
1470243667144205,-0.37855,-0.0680702,-2.26367
1470243667166731,-0.386151,-0.0679532,-2.26502
1470243667195746,-0.392146,-0.0657548,-2.26892
1470243667204255,-0.397475,-0.0615955,-2.27527
1470243667227309,-0.409311,-0.0569847,-2.28295
1470243667248295,-0.427944,-0.0529836,-2.29117
1470243667264350,-0.45117,-0.0493965,-2.30033
1470243667286829,-0.476349,-0.0482534,-2.31015
1470243667308455,-0.502831,-0.0478998,-2.31813
1470243667324363,-0.526669,-0.0472376,-2.32434
1470243667353402,-0.542741,-0.045874,-2.33198
1470243667367992,-0.552653,-0.043468,-2.34099
1470243667383918,-0.562409,-0.0418772,-2.34986
1470243667406942,-0.573304,-0.0418114,-2.35808
1470243667436463,-0.583208,-0.0440984,-2.3646
1470243667437964,-0.587889,-0.0475409,-2.36957
1470243667449999,-0.588422,-0.0511785,-2.37327
1470243667475531,-0.582982,-0.0550422,-2.37533
1470243667504029,-0.573485,-0.0583347,-2.3766
1470243667510030,-0.561157,-0.0578732,-2.37819
1470243667532549,-0.545823,-0.054988,-2.37815
1470243667555070,-0.545981,-0.0525329,-2.37081
1470243667573212,-0.561095,-0.052949,-2.35989
1470243667592617,-0.570113,-0.0547737,-2.34948
1470243667615127,-0.560917,-0.0548923,-2.34324
1470243667629651,-0.536476,-0.0531762,-2.3412
1470243667652159,-0.510938,-0.051011,-2.34003
1470243667675220,-0.498205,-0.0495296,-2.33746
1470243667690191,-0.498514,-0.049475,-2.33382
1470243667715247,-0.502702,-0.0498937,-2.33155
1470243667734791,-0.507318,-0.0500977,-2.33137
1470243667749763,-0.512089,-0.0497422,-2.33253
1470243667772296,-0.516889,-0.0492949,-2.33495
1470243667794840,-0.52324,-0.0489304,-2.33751
1470243667809799,-0.530571,-0.0492295,-2.33881
1470243667832321,-0.53687,-0.0494061,-2.33746
1470243667854883,-0.542168,-0.0487089,-2.33494
1470243667872855,-0.544873,-0.0480238,-2.33301
1470243667892875,-0.543958,-0.0486908,-2.32995
1470243667914896,-0.537474,-0.0496691,-2.32536
1470243667929974,-0.526592,-0.0494579,-2.32212
1470243667952516,-0.515899,-0.04814,-2.32062
1470243667975006,-0.511379,-0.0464364,-2.31821
1470243667990002,-0.510855,-0.0456738,-2.31536
1470243668020018,-0.509552,-0.0453553,-2.31296
1470243668035006,-0.505505,-0.0448242,-2.3115
1470243668050014,-0.499263,-0.0443061,-2.31124
1470243668072534,-0.492748,-0.0439883,-2.31074
1470243668095054,-0.48729,-0.0439111,-2.3091
1470243668110068,-0.483125,-0.0446604,-2.30691
1470243668132589,-0.479172,-0.0457102,-2.30398
1470243668155145,-0.474055,-0.0468548,-2.30098
1470243668173171,-0.468025,-0.048149,-2.29798
1470243668192643,-0.461973,-0.0490635,-2.295
1470243668214664,-0.456723,-0.0496301,-2.29197
1470243668231177,-0.452365,-0.0501477,-2.2892
1470243668252240,-0.449419,-0.0507901,-2.28671
1470243668274717,-0.447521,-0.0514546,-2.28454
1470243668298738,-0.446456,-0.0523466,-2.28324
1470243668312750,-0.445781,-0.0528367,-2.28282
1470243668334798,-0.445662,-0.0528857,-2.28279
1470243668351303,-0.446521,-0.0525393,-2.28235
1470243668372337,-0.447769,-0.0521401,-2.28183
1470243668394847,-0.447792,-0.0515843,-2.28188
1470243668411338,-0.446793,-0.0509887,-2.28213
1470243668432360,-0.446542,-0.0501328,-2.28212
1470243668463427,-0.447453,-0.04975,-2.28227
1470243668471415,-0.448511,-0.0498843,-2.28191
1470243668492439,-0.448907,-0.0502796,-2.28138
1470243668514932,-0.447804,-0.0500599,-2.28061
1470243668531448,-0.445752,-0.0496212,-2.28001
1470243668552493,-0.443913,-0.0491318,-2.27961
1470243668583025,-0.443378,-0.0490187,-2.27926
1470243668591501,-0.443536,-0.0490039,-2.27886
1470243668612523,-0.443548,-0.0489807,-2.27879
1470243668635043,-0.443733,-0.0485074,-2.27891
1470243668660568,-0.443744,-0.0479747,-2.27903
1470243668672634,-0.443531,-0.0475174,-2.27902
1470243668695098,-0.443205,-0.0468429,-2.27904
1470243668713176,-0.443054,-0.0462278,-2.27907
1470243668732628,-0.443221,-0.046044,-2.27921
1470243668755212,-0.443136,-0.0455743,-2.27943
1470243668772726,-0.443082,-0.0448963,-2.27935
1470243668792685,-0.442894,-0.0443924,-2.2792
1470243668815202,-0.443112,-0.04422,-2.27885
1470243668832717,-0.443364,-0.0440379,-2.27855
1470243668860258,-0.443247,-0.0437238,-2.27811
1470243668874757,-0.443541,-0.0435276,-2.27848
1470243668892799,-0.444496,-0.0432747,-2.27868
1470243668912316,-0.445723,-0.0435273,-2.27861
1470243668934843,-0.445841,-0.043478,-2.27864
1470243668952825,-0.445563,-0.043239,-2.27886
1470243668973843,-0.444933,-0.0429419,-2.27933
1470243668994889,-0.445228,-0.0422371,-2.27989
1470243669012879,-0.446086,-0.0420479,-2.2802
1470243669032409,-0.446802,-0.0419552,-2.28063
1470243669055417,-0.447254,-0.0416002,-2.28121
1470243669073008,-0.44764,-0.0410998,-2.2816
1470243669092521,-0.44778,-0.0405555,-2.28195
1470243669114974,-0.44778,-0.040411,-2.28255
1470243669140494,-0.447766,-0.0403509,-2.28351
1470243669153007,-0.448315,-0.0402985,-2.2844
1470243669175026,-0.44903,-0.0402689,-2.28511
1470243669193047,-0.449764,-0.0399502,-2.2858
1470243669212593,-0.450102,-0.039585,-2.28608
1470243669234603,-0.449782,-0.0392131,-2.28625
1470243669253098,-0.449104,-0.0390488,-2.28661
1470243669273621,-0.448937,-0.0390872,-2.28707
1470243669295135,-0.449498,-0.0391566,-2.28729
1470243669312648,-0.450381,-0.03909,-2.28754
1470243669333723,-0.450986,-0.0392921,-2.28781
1470243669355190,-0.450917,-0.039572,-2.28832
1470243669372702,-0.450522,-0.0397454,-2.28893
1470243669393721,-0.449946,-0.0397604,-2.28906
1470243669415240,-0.449946,-0.0397604,-2.28906
1470243669432756,-0.449968,-0.0397738,-2.28919
1470243669455312,-0.45041,-0.0398926,-2.28938
1470243669474827,-0.45041,-0.0398926,-2.28938
1470243669492839,-0.45041,-0.0398926,-2.28938
1470243669513829,-0.45041,-0.0398926,-2.28938
1470243669534865,-0.450507,-0.0398304,-2.28928
1470243669552904,-0.450979,-0.0406138,-2.28941
1470243669573883,-0.452418,-0.0416347,-2.28949
1470243669594904,-0.453839,-0.0429457,-2.28959
1470243669612927,-0.454292,-0.0440193,-2.28973
1470243669635490,-0.454722,-0.0449742,-2.28995
1470243669654973,-0.454845,-0.0456379,-2.29006
1470243669672972,-0.455395,-0.0465444,-2.29031
1470243669696018,-0.455514,-0.0472701,-2.29069
1470243669715012,-0.455826,-0.0481319,-2.29149
1470243669733026,-0.456345,-0.0488451,-2.29201
1470243669755546,-0.457216,-0.0494756,-2.29289
1470243669775087,-0.45847,-0.0503223,-2.29364
1470243669793196,-0.459264,-0.0508315,-2.2944
1470243669815100,-0.459972,-0.0513797,-2.29519
1470243669835118,-0.4604,-0.0518918,-2.29588
1470243669853203,-0.460918,-0.0526076,-2.2964
1470243669875722,-0.461499,-0.0531667,-2.29696
1470243669895179,-0.462161,-0.0537866,-2.29737
1470243669912688,-0.462256,-0.0540913,-2.29768
1470243669935209,-0.462337,-0.0544203,-2.29807
1470243669955271,-0.461892,-0.0546653,-2.2983
1470243669972242,-0.461017,-0.0551726,-2.2982
1470243669994760,-0.459982,-0.0558992,-2.29817
1470243670015780,-0.458784,-0.0567444,-2.29772
1470243670032294,-0.45776,-0.0576511,-2.29728
1470243670054315,-0.456714,-0.0587476,-2.29638
1470243670075966,-0.454591,-0.0597289,-2.29531
1470243670091848,-0.451218,-0.0608456,-2.29353
1470243670114368,-0.446448,-0.0623623,-2.29132
1470243670135887,-0.441428,-0.0639792,-2.28834
1470243670152402,-0.436286,-0.0661576,-2.28505
1470243670175424,-0.431649,-0.0685414,-2.28176
1470243670195981,-0.42833,-0.0707474,-2.27841
1470243670211961,-0.425976,-0.0729172,-2.27494
1470243670234477,-0.424128,-0.0755842,-2.27159
1470243670255496,-0.421768,-0.0783483,-2.26819
1470243670272027,-0.418983,-0.0808369,-2.26514
1470243670294530,-0.416967,-0.0830682,-2.26255
1470243670315565,-0.415218,-0.0846447,-2.26076
1470243670332063,-0.414088,-0.0858919,-2.25946
1470243670354586,-0.414003,-0.0868436,-2.25843
1470243670375647,-0.414242,-0.0871861,-2.2579
1470243670392119,-0.413474,-0.0867089,-2.25788
1470243670414638,-0.412084,-0.0853185,-2.2581
1470243670435753,-0.41143,-0.0837198,-2.25831
1470243670452172,-0.41183,-0.0829812,-2.25977
1470243670474692,-0.413122,-0.0831507,-2.26091
1470243670495712,-0.418728,-0.0857092,-2.26107
1470243670511226,-0.43145,-0.0904575,-2.26017
1470243670534745,-0.449558,-0.0988414,-2.25648
1470243670557266,-0.468878,-0.10663,-2.25256
1470243670571288,-0.488149,-0.112999,-2.2503
1470243670594300,-0.501261,-0.115196,-2.24973
1470243670616819,-0.512103,-0.115686,-2.24874
1470243670631332,-0.521611,-0.11321,-2.2481
1470243670654357,-0.526674,-0.105411,-2.249
1470243670683379,-0.529957,-0.0930365,-2.24917
1470243670698394,-0.537658,-0.0762569,-2.24849
1470243670714406,-0.548458,-0.055844,-2.24772
1470243670736931,-0.557363,-0.0325921,-2.24678
1470243670758459,-0.56439,-0.00627674,-2.24695
1470243670774476,-0.566411,0.0261247,-2.24788
1470243670796982,-0.564725,0.0639542,-2.24789
1470243670818002,-0.563085,0.105243,-2.24603
1470243670834515,-0.564879,0.146034,-2.24388
1470243670857037,-0.566469,0.187023,-2.2421
1470243670878101,-0.563684,0.229628,-2.23978
1470243670894569,-0.559434,0.271376,-2.23691
1470243670917089,-0.555273,0.311245,-2.23389
1470243670938107,-0.551083,0.347654,-2.23232
1470243670954623,-0.545624,0.381437,-2.23129
1470243670977142,-0.542186,0.411298,-2.2308
1470243670998161,-0.541455,0.438233,-2.22969
1470243671014677,-0.540741,0.463545,-2.22936
1470243671037199,-0.542085,0.487995,-2.23116
1470243671058258,-0.541587,0.512407,-2.23322
1470243671074749,-0.542725,0.534326,-2.23599
1470243671097250,-0.548514,0.553411,-2.24022
1470243671117769,-0.552917,0.572724,-2.24571
1470243671134784,-0.555703,0.590433,-2.25088
1470243671156804,-0.559105,0.605784,-2.25553
1470243671178323,-0.56515,0.616934,-2.25988
1470243671194352,-0.571521,0.623726,-2.26363
1470243671216861,-0.576389,0.627104,-2.26594
1470243671238407,-0.580163,0.626722,-2.26629
1470243671254391,-0.583728,0.621262,-2.2648
1470243671276914,-0.586383,0.611461,-2.26264
1470243671297940,-0.58862,0.598162,-2.26072
1470243671313945,-0.589266,0.582246,-2.25891
1470243671336966,-0.589312,0.565755,-2.25626
1470243671357985,-0.587496,0.547331,-2.25064
1470243671373525,-0.586597,0.527203,-2.24338
1470243671397034,-0.585403,0.506782,-2.23562
1470243671418038,-0.583043,0.486183,-2.2277
1470243671434052,-0.579052,0.464117,-2.22024
1470243671457130,-0.573312,0.440955,-2.21451
1470243671479633,-0.564991,0.414665,-2.20977
1470243671494107,-0.555542,0.385031,-2.204
1470243671517111,-0.55059,0.351902,-2.19861
1470243671547138,-0.550097,0.315978,-2.19578
1470243671553644,-0.548257,0.279596,-2.19533
1470243671577165,-0.542086,0.243303,-2.19564
1470243671599684,-0.534705,0.206541,-2.19698
1470243671622205,-0.527671,0.167413,-2.19896
1470243671637219,-0.520641,0.129671,-2.20269
1470243671659738,-0.51302,0.0989296,-2.20636
1470243671680758,-0.506339,0.0726757,-2.20849
1470243671697775,-0.506514,0.0483303,-2.21145
1470243671719297,-0.511858,0.0255267,-2.21471
1470243671740812,-0.511945,0.00817543,-2.21869
1470243671756826,-0.506312,-0.00533255,-2.2236
1470243671779355,-0.500149,-0.01783,-2.22876
1470243671800865,-0.4979,-0.028743,-2.23319
1470243671816880,-0.497217,-0.0367572,-2.23532
1470243671839400,-0.495644,-0.0431794,-2.23608
1470243671860923,-0.490918,-0.0486248,-2.23699
1470243671876934,-0.485687,-0.0541801,-2.23797
1470243671899454,-0.481087,-0.0600583,-2.23868
1470243671920521,-0.479216,-0.0658137,-2.23847
1470243671937029,-0.477923,-0.0714598,-2.23774
1470243671959555,-0.476495,-0.0776836,-2.23804
1470243671980582,-0.472981,-0.0835512,-2.23793
1470243671996916,-0.470147,-0.0888161,-2.23721
1470243672019438,-0.468601,-0.0938699,-2.23638
1470243672040958,-0.468131,-0.0988705,-2.23573
1470243672056994,-0.468506,-0.103748,-2.23637
1470243672079495,-0.466813,-0.103571,-2.23768
1470243672100525,-0.4608,-0.0987178,-2.23771
1470243672117024,-0.456625,-0.0959005,-2.23686
1470243672139568,-0.457427,-0.094602,-2.23651
1470243672160600,-0.457773,-0.0938136,-2.23621
1470243672177087,-0.455571,-0.093427,-2.23671
1470243672199598,-0.452894,-0.0927099,-2.23721
1470243672220645,-0.450236,-0.0922284,-2.23688
1470243672237132,-0.446734,-0.0913594,-2.2361
1470243672259683,-0.442457,-0.0902526,-2.23505
1470243672280740,-0.438527,-0.089324,-2.2343
1470243672297186,-0.435328,-0.0884355,-2.23407
1470243672319706,-0.432932,-0.0872473,-2.23427
1470243672340731,-0.430782,-0.0860907,-2.2345
1470243672357239,-0.429151,-0.0851619,-2.23504
1470243672379760,-0.427296,-0.0840097,-2.2353
1470243672400778,-0.425838,-0.0830995,-2.23564
1470243672416826,-0.424612,-0.0820109,-2.23633
1470243672439313,-0.423021,-0.0807678,-2.2375
1470243672469841,-0.421345,-0.0794569,-2.23881
1470243672476847,-0.420259,-0.0778307,-2.23996
1470243672499367,-0.419101,-0.0763475,-2.24094
1470243672521889,-0.417674,-0.0748727,-2.24203
1470243672536901,-0.416259,-0.0739675,-2.24322
1470243672559461,-0.415346,-0.0734491,-2.24405
1470243672581943,-0.414204,-0.0726727,-2.24441
1470243672596954,-0.413031,-0.0717461,-2.24464
1470243672619976,-0.410865,-0.0704849,-2.24502
1470243672641995,-0.409026,-0.0678939,-2.24505
1470243672656510,-0.407969,-0.0643472,-2.24421
1470243672679530,-0.408128,-0.0627499,-2.24353
1470243672702049,-0.408643,-0.06226,-2.24298
1470243672716562,-0.409095,-0.0622527,-2.24261
1470243672739583,-0.408812,-0.0625497,-2.24273
1470243672762105,-0.407897,-0.0627621,-2.243
1470243672776616,-0.407385,-0.0624835,-2.24391
1470243672799640,-0.407808,-0.0621632,-2.24473
1470243672822157,-0.408895,-0.0623458,-2.24548
1470243672836170,-0.408991,-0.0624615,-2.24632
1470243672859693,-0.408152,-0.0619919,-2.24686
1470243672882211,-0.406574,-0.0614318,-2.24726
1470243672896227,-0.405234,-0.0608035,-2.24791
1470243672919244,-0.40405,-0.0599501,-2.24848
1470243672941765,-0.402912,-0.059225,-2.2491
1470243672962784,-0.401575,-0.0583267,-2.2498
1470243672979298,-0.401134,-0.0572057,-2.25009
1470243673001819,-0.401084,-0.0565959,-2.2504
1470243673023345,-0.400347,-0.0560583,-2.25083
1470243673039354,-0.399674,-0.0556627,-2.25146
1470243673061872,-0.398834,-0.0555108,-2.25222
1470243673083393,-0.398926,-0.055233,-2.25243
1470243673099411,-0.399897,-0.0548663,-2.25219
1470243673121942,-0.400687,-0.0550319,-2.25212
1470243673142947,-0.40119,-0.0546554,-2.25212
1470243673159460,-0.401787,-0.0538226,-2.25285
1470243673181982,-0.40277,-0.053557,-2.25388
1470243673203003,-0.403209,-0.0537517,-2.25454
1470243673219514,-0.40253,-0.0535893,-2.25491
1470243673242036,-0.402357,-0.0535317,-2.2549
1470243673263554,-0.40314,-0.053664,-2.25462
1470243673279569,-0.404243,-0.0542206,-2.25446
1470243673302089,-0.405083,-0.0548181,-2.2546
1470243673323120,-0.405083,-0.0548181,-2.2546
1470243673339622,-0.40593,-0.0550032,-2.25403
1470243673362142,-0.407227,-0.0555407,-2.25354
1470243673383174,-0.408461,-0.055667,-2.2529
1470243673399677,-0.409586,-0.0555203,-2.25202
1470243673422195,-0.411117,-0.0556865,-2.25162
1470243673444721,-0.41252,-0.0558331,-2.25079
1470243673459730,-0.413427,-0.056123,-2.25022
1470243673482250,-0.413161,-0.0559831,-2.24957
1470243673504774,-0.412296,-0.055392,-2.24871
1470243673519286,-0.411767,-0.054937,-2.24794
1470243673541803,-0.412462,-0.0539137,-2.24724
1470243673564824,-0.41422,-0.0525103,-2.24647
1470243673578844,-0.416115,-0.0521204,-2.24624
1470243673601861,-0.417393,-0.0525181,-2.24641
1470243673624379,-0.417451,-0.0526262,-2.2464
1470243673638891,-0.417313,-0.0526802,-2.24566
1470243673661919,-0.418116,-0.0529042,-2.24452
1470243673684436,-0.418643,-0.0534598,-2.2437
1470243673699447,-0.418099,-0.0535597,-2.2429
1470243673721965,-0.417485,-0.0535735,-2.24218
1470243673744487,-0.417897,-0.0534706,-2.24197
1470243673758999,-0.418439,-0.0534532,-2.24177
1470243673782019,-0.418497,-0.0535611,-2.24176
1470243673804540,-0.418909,-0.0531908,-2.2416
1470243673819053,-0.418909,-0.0531908,-2.2416
1470243673842074,-0.419083,-0.0532473,-2.24161
1470243673864597,-0.418967,-0.0532987,-2.24158
1470243673879107,-0.419407,-0.0534034,-2.24177
1470243673902127,-0.419349,-0.0535627,-2.24173
1470243673924647,-0.419349,-0.0535627,-2.24173
1470243673945695,-0.418555,-0.053669,-2.24174
1470243673962180,-0.418517,-0.053575,-2.24189
1470243673984702,-0.419389,-0.0537491,-2.24205
1470243674007221,-0.420286,-0.0538804,-2.24208
1470243674021734,-0.420402,-0.053829,-2.24211
1470243674044254,-0.419822,-0.0536439,-2.24256
1470243674065775,-0.419822,-0.0536439,-2.24256
1470243674082289,-0.419822,-0.0536439,-2.24256
1470243674104308,-0.419926,-0.0534394,-2.24318
1470243674125827,-0.419418,-0.0531655,-2.24408
1470243674141842,-0.418909,-0.0525317,-2.24456
1470243674164408,-0.419122,-0.0518809,-2.24458
1470243674185881,-0.419535,-0.0509767,-2.24452
1470243674201898,-0.419615,-0.0492536,-2.24374
1470243674224416,-0.421059,-0.0481083,-2.24218
1470243674245440,-0.424251,-0.0482041,-2.24127
1470243674261953,-0.426174,-0.0474979,-2.24097
1470243674284471,-0.428219,-0.0469692,-2.23911
1470243674305489,-0.431204,-0.0486808,-2.2375
1470243674322005,-0.43181,-0.0494929,-2.23813
1470243674344525,-0.435816,-0.0514228,-2.2379
1470243674368045,-0.443314,-0.0546856,-2.2374
1470243674381559,-0.453325,-0.0592099,-2.2373
1470243674404578,-0.464375,-0.0643321,-2.23701
1470243674427099,-0.474005,-0.0692848,-2.23719
1470243674441611,-0.484776,-0.0759638,-2.23738
1470243674464633,-0.504621,-0.0850208,-2.23721
1470243674487153,-0.528963,-0.0907024,-2.23627
1470243674508171,-0.546798,-0.0925807,-2.23418
1470243674524685,-0.556767,-0.0958447,-2.23009
1470243674547206,-0.56076,-0.0976356,-2.22418
1470243674568225,-0.562795,-0.0930186,-2.21218
1470243674584239,-0.566174,-0.0834806,-2.19315
1470243674607260,-0.571021,-0.0718955,-2.17149
1470243674628278,-0.575818,-0.0599262,-2.14751
1470243674644293,-0.579842,-0.0482337,-2.12019
1470243674667816,-0.583906,-0.0365359,-2.09068
1470243674688332,-0.587314,-0.0259624,-2.0589
1470243674704848,-0.589194,-0.0167445,-2.02567
1470243674726868,-0.589441,-0.00938101,-1.99101
1470243674748388,-0.58863,-0.00336293,-1.95656
1470243674764902,-0.586492,0.00160402,-1.92302
1470243674786922,-0.582039,0.00472148,-1.89081
1470243674807940,-0.57676,0.00629799,-1.86159
1470243674824456,-0.571209,0.00641112,-1.83641
1470243674846976,-0.566854,0.00620834,-1.81476
1470243674868495,-0.566237,0.00508033,-1.79654
1470243674884509,-0.567832,0.00145632,-1.78043
1470243674907029,-0.571399,-0.00386975,-1.76648
1470243674928049,-0.574313,-0.00901419,-1.75443
1470243674944563,-0.576214,-0.013939,-1.74429
1470243674967084,-0.577268,-0.0199029,-1.73566
1470243674988136,-0.578168,-0.0260075,-1.72868
1470243675004630,-0.583085,-0.0324502,-1.72297
1470243675027139,-0.587533,-0.0371224,-1.7196
1470243675048174,-0.578919,-0.0347729,-1.71917
1470243675064671,-0.565571,-0.0277152,-1.71678
1470243675087190,-0.573592,-0.0209682,-1.71327
1470243675108267,-0.59108,-0.0181643,-1.70984
1470243675123724,-0.59544,-0.0189574,-1.70758
1470243675146745,-0.585433,-0.0209105,-1.70536
1470243675168363,-0.574918,-0.0225086,-1.702
1470243675184278,-0.571734,-0.0233968,-1.69648
1470243675191286,-0.572975,-0.0233253,-1.69052
1470243675212805,-0.571751,-0.0222769,-1.68483
1470243675243358,-0.565057,-0.0202914,-1.67965
1470243675251340,-0.558302,-0.0180173,-1.67494
1470243675272376,-0.552961,-0.0166983,-1.67136
1470243675294880,-0.548561,-0.0162603,-1.66901
1470243675311394,-0.542939,-0.015857,-1.66835
1470243675332427,-0.538382,-0.0152473,-1.66792
1470243675354957,-0.536706,-0.0147318,-1.66737
1470243675369944,-0.536553,-0.0136633,-1.66669
1470243675395495,-0.53723,-0.0107768,-1.66653
1470243675415091,-0.53604,-0.00570929,-1.66659
1470243675430015,-0.53597,4.07994e-05,-1.66662
1470243675452566,-0.53831,0.00467099,-1.66619
1470243675484059,-0.540267,0.00783067,-1.66616
1470243675490053,-0.538783,0.010745,-1.66559
1470243675515576,-0.535213,0.0133391,-1.66485
1470243675535094,-0.531257,0.0151169,-1.66394
1470243675550107,-0.527781,0.0160782,-1.66259
1470243675572633,-0.525649,0.0170941,-1.66054
1470243675595162,-0.524744,0.0183269,-1.65801
1470243675610160,-0.525203,0.0189537,-1.65606
1470243675632681,-0.525701,0.0190687,-1.65419
1470243675655202,-0.526914,0.0192006,-1.65218
1470243675678722,-0.528584,0.0194236,-1.65014
1470243675692803,-0.529646,0.0196225,-1.64865
1470243675715254,-0.529965,0.0199229,-1.64737
1470243675730268,-0.530886,0.0208722,-1.64643
1470243675760295,-0.53226,0.0219638,-1.64585
1470243675775346,-0.533572,0.0230306,-1.6458
1470243675790322,-0.534848,0.0240484,-1.64576
1470243675812935,-0.535782,0.0251268,-1.64561
1470243675835455,-0.536881,0.0259584,-1.64507
1470243675850376,-0.5378,0.0269624,-1.64454
1470243675872916,-0.538224,0.0283451,-1.64412
1470243675895458,-0.538591,0.0293911,-1.64345
1470243675911455,-0.539603,0.0302647,-1.64309
1470243675932453,-0.539019,0.0318563,-1.64226
1470243675954970,-0.538435,0.0334475,-1.64144
1470243675971485,-0.538195,0.0349283,-1.64032
1470243675992506,-0.536085,0.0368147,-1.63892
1470243676015024,-0.532725,0.0385341,-1.6382
1470243676031539,-0.529267,0.039862,-1.63733
1470243676052573,-0.526124,0.040108,-1.63643
1470243676078080,-0.524414,0.0407119,-1.63592
1470243676091594,-0.525396,0.0424862,-1.63597
1470243676112612,-0.528857,0.0438963,-1.63635
1470243676135132,-0.532285,0.0445879,-1.63614
1470243676151147,-0.534239,0.0438875,-1.63654
1470243676172666,-0.534556,0.0430204,-1.63639
1470243676195186,-0.533202,0.0425116,-1.63674
1470243676211701,-0.531858,0.0419128,-1.63743
1470243676235222,-0.529552,0.0420956,-1.63826
1470243676255240,-0.530235,0.0429005,-1.63888
1470243676272756,-0.532948,0.0430013,-1.639
1470243676292772,-0.53427,0.0431047,-1.63872
1470243676315295,-0.533574,0.0436737,-1.63867
1470243676332811,-0.531635,0.0440342,-1.63947
1470243676352328,-0.531542,0.0441176,-1.64186
1470243676374850,-0.532854,0.0443058,-1.64362
1470243676392864,-0.534593,0.044547,-1.64423
1470243676412381,-0.534246,0.0449612,-1.64406
1470243676434901,-0.532173,0.0460689,-1.64484
1470243676452917,-0.529958,0.0483187,-1.64537
1470243676472435,-0.529605,0.0495425,-1.64596
1470243676494955,-0.527962,0.0500839,-1.64709
1470243676512971,-0.526119,0.0499534,-1.64871
1470243676532491,-0.528263,0.0506626,-1.65015
1470243676555008,-0.535005,0.0514239,-1.65012
1470243676573026,-0.540098,0.0514642,-1.64915
1470243676592543,-0.540066,0.0518342,-1.64835
1470243676615063,-0.540339,0.0504174,-1.64764
1470243676633079,-0.542503,0.0486128,-1.64721
1470243676652596,-0.545826,0.047388,-1.64721
1470243676675117,-0.54912,0.0465403,-1.64707
1470243676692632,-0.551476,0.0452731,-1.64709
1470243676712651,-0.552716,0.0444928,-1.64724
1470243676735170,-0.554308,0.0438168,-1.64698
1470243676753247,-0.555601,0.043206,-1.64668
1470243676772704,-0.556563,0.0427774,-1.6465
1470243676795224,-0.556167,0.042271,-1.64583
1470243676812740,-0.554929,0.0413776,-1.64498
1470243676834761,-0.553707,0.0408625,-1.64406
1470243676855278,-0.552006,0.0422372,-1.64225
1470243676872795,-0.549535,0.0448094,-1.63982
1470243676895314,-0.546189,0.0481164,-1.63791
1470243676915332,-0.543852,0.05242,-1.63811
1470243676933349,-0.537519,0.0558453,-1.63968
1470243676953867,-0.54778,0.0590372,-1.63976
1470243676974887,-0.565301,0.053659,-1.63651
1470243676992903,-0.57242,0.0437833,-1.63464
1470243677013921,-0.570714,0.0384331,-1.63554
1470243677034940,-0.572662,0.0327445,-1.63571
1470243677065968,-0.58508,0.0244289,-1.63724
1470243677073975,-0.604085,0.0155278,-1.64061
1470243677094995,-0.615419,0.00866522,-1.64702
1470243677113012,-0.619909,0.00433285,-1.65549
1470243677134031,-0.625954,0.0029594,-1.66822
1470243677155049,-0.635251,0.00472938,-1.6831
1470243677173065,-0.643256,0.00720775,-1.70052
1470243677195584,-0.646534,0.0101991,-1.7218
