timestamp,roll,pitch,yaw
1470345334406549,-0.570813,-0.207493,-0.340986
1470345334426571,-0.570844,-0.2075,-0.341008
1470345334442582,-0.570844,-0.2075,-0.341008
1470345334465610,-0.570844,-0.2075,-0.341008
1470345334486637,-0.570844,-0.2075,-0.341008
1470345334502648,-0.570844,-0.2075,-0.341008
1470345334525668,-0.570844,-0.2075,-0.341008
1470345334546686,-0.570844,-0.2075,-0.341008
1470345334563208,-0.570844,-0.2075,-0.341008
1470345334585729,-0.570844,-0.2075,-0.341008
1470345334606747,-0.570844,-0.2075,-0.341008
1470345334622261,-0.570844,-0.2075,-0.341008
1470345334644781,-0.570844,-0.2075,-0.341008
1470345334665800,-0.570844,-0.2075,-0.341008
1470345334682315,-0.570844,-0.2075,-0.341008
1470345334704835,-0.570707,-0.207476,-0.341014
1470345334725854,-0.570707,-0.207476,-0.341014
1470345334742871,-0.570693,-0.207593,-0.340984
1470345334764389,-0.570693,-0.207593,-0.340984
1470345334785908,-0.570693,-0.207593,-0.340984
1470345334802423,-0.570556,-0.207569,-0.34099
1470345334824443,-0.570693,-0.207593,-0.340984
1470345334847463,-0.57068,-0.207709,-0.340954
1470345334862478,-0.56991,-0.207616,-0.34116
1470345334884496,-0.569773,-0.207592,-0.341166
1470345334907518,-0.569773,-0.207592,-0.341166
1470345334921531,-0.569786,-0.207475,-0.341196
1470345334944551,-0.569786,-0.207475,-0.341196
1470345334967076,-0.569635,-0.207568,-0.341172
1470345334981089,-0.569635,-0.207568,-0.341172
1470345335004109,-0.569635,-0.207568,-0.341172
1470345335027133,-0.569622,-0.207685,-0.341142
1470345335041648,-0.569622,-0.207685,-0.341142
1470345335064042,-0.569635,-0.207568,-0.341172
1470345335087063,-0.569635,-0.207568,-0.341172
1470345335101077,-0.569622,-0.207685,-0.341142
1470345335124096,-0.569622,-0.207685,-0.341142
1470345335147124,-0.569622,-0.207685,-0.341142
1470345335161143,-0.569622,-0.207685,-0.341142
1470345335185165,-0.569466,-0.207814,-0.341244
1470345335207185,-0.569603,-0.207838,-0.341238
1470345335221197,-0.569466,-0.207814,-0.341244
1470345335244726,-0.569466,-0.207814,-0.341244
1470345335267253,-0.569466,-0.207814,-0.341244
1470345335281263,-0.569466,-0.207814,-0.341244
1470345335304285,-0.569466,-0.207814,-0.341244
1470345335327306,-0.568909,-0.208032,-0.341482
1470345335348334,-0.568909,-0.208032,-0.341482
1470345335364350,-0.568909,-0.208032,-0.341482
1470345335387373,-0.568909,-0.208032,-0.341482
1470345335408389,-0.568758,-0.208125,-0.341458
1470345335424403,-0.568758,-0.208125,-0.341458
1470345335447430,-0.568758,-0.208125,-0.341458
1470345335468453,-0.56862,-0.208101,-0.341464
1470345335484468,-0.56862,-0.208101,-0.341464
1470345335507488,-0.568615,-0.208137,-0.34159
1470345335528525,-0.568615,-0.208137,-0.34159
1470345335544543,-0.568615,-0.208137,-0.34159
1470345335566568,-0.568477,-0.208113,-0.341596
1470345335587588,-0.568477,-0.208113,-0.341596
1470345335604604,-0.568602,-0.208254,-0.34156
1470345335626622,-0.568464,-0.20823,-0.341566
1470345335647653,-0.568508,-0.20812,-0.341618
1470345335664671,-0.568508,-0.20812,-0.341618
1470345335686688,-0.568357,-0.208213,-0.341594
1470345335707707,-0.568357,-0.208213,-0.341594
1470345335724724,-0.568357,-0.208213,-0.341594
1470345335747250,-0.568357,-0.208213,-0.341594
1470345335767643,-0.56862,-0.208101,-0.341464
1470345335784658,-0.568607,-0.208218,-0.341434
1470345335806677,-0.568607,-0.208218,-0.341434
1470345335829699,-0.568607,-0.208218,-0.341434
1470345335844719,-0.568607,-0.208218,-0.341434
1470345335866669,-0.568607,-0.208218,-0.341434
1470345335889689,-0.568469,-0.208194,-0.34144
1470345335904703,-0.568469,-0.208194,-0.34144
1470345335926725,-0.56798,-0.208111,-0.341508
1470345335949777,-0.56798,-0.208111,-0.341508
1470345335963845,-0.56798,-0.208111,-0.341508
1470345335986817,-0.567967,-0.208228,-0.341478
1470345336009835,-0.567967,-0.208228,-0.341478
1470345336023863,-0.567967,-0.208228,-0.341478
1470345336047460,-0.567967,-0.208228,-0.341478
1470345336069053,-0.567967,-0.208228,-0.341478
1470345336084015,-0.567962,-0.208264,-0.341604
1470345336107039,-0.567967,-0.208228,-0.341478
1470345336129081,-0.567824,-0.20824,-0.34161
1470345336144156,-0.567824,-0.20824,-0.34161
1470345336167200,-0.567824,-0.20824,-0.34161
1470345336189219,-0.567824,-0.20824,-0.34161
1470345336203235,-0.567824,-0.20824,-0.34161
1470345336227253,-0.567687,-0.208217,-0.341616
1470345336249032,-0.567687,-0.208217,-0.341616
1470345336279064,-0.567687,-0.208217,-0.341616
1470345336295028,-0.56758,-0.208199,-0.341645
1470345336309041,-0.56758,-0.208199,-0.341645
1470345336332063,-0.567549,-0.208193,-0.341622
1470345336347108,-0.56758,-0.208199,-0.341645
1470345336369239,-0.567673,-0.208333,-0.341586
1470345336390266,-0.567549,-0.208193,-0.341622
1470345336407248,-0.56758,-0.208199,-0.341645
1470345336429295,-0.567566,-0.208316,-0.341615
1470345336450467,-0.567429,-0.208292,-0.341621
1470345336467456,-0.567429,-0.208292,-0.341621
1470345336489508,-0.567429,-0.208292,-0.341621
1470345336510510,-0.567429,-0.208292,-0.341621
1470345336526509,-0.567949,-0.208381,-0.341574
1470345336549570,-0.568193,-0.208422,-0.34154
1470345336570623,-0.568193,-0.208422,-0.34154
1470345336586603,-0.568193,-0.208422,-0.34154
1470345336609624,-0.568692,-0.208708,-0.341307
1470345336630644,-0.568692,-0.208708,-0.341307
1470345336647163,-0.568692,-0.208708,-0.341307
1470345336669689,-0.568692,-0.208708,-0.341307
1470345336690712,-0.568554,-0.208685,-0.341313
1470345336706724,-0.568554,-0.208685,-0.341313
1470345336729747,-0.568554,-0.208685,-0.341313
1470345336751788,-0.568554,-0.208685,-0.341313
1470345336766819,-0.568554,-0.208685,-0.341313
1470345336789823,-0.568554,-0.208685,-0.341313
1470345336811842,-0.568554,-0.208685,-0.341313
1470345336826855,-0.568416,-0.208661,-0.341319
1470345336849938,-0.568416,-0.208661,-0.341319
1470345336871954,-0.568411,-0.208697,-0.341445
1470345336885967,-0.568411,-0.208697,-0.341445
1470345336909992,-0.568416,-0.208661,-0.341319
1470345336932015,-0.568411,-0.208697,-0.341445
1470345336946569,-0.568411,-0.208697,-0.341445
1470345336969117,-0.568411,-0.208697,-0.341445
1470345336992138,-0.568304,-0.20868,-0.341474
1470345337006151,-0.567914,-0.208695,-0.341358
1470345337029171,-0.567182,-0.208295,-0.341373
1470345337052324,-0.567182,-0.208295,-0.341373
1470345337066383,-0.567045,-0.208271,-0.341379
1470345337089358,-0.567045,-0.208271,-0.341379
1470345337112378,-0.566517,-0.208263,-0.34127
1470345337126391,-0.566517,-0.208263,-0.34127
1470345337148960,-0.566499,-0.208416,-0.341366
1470345337172295,-0.566158,-0.208285,-0.341177
1470345337186307,-0.566034,-0.208144,-0.341213
1470345337209329,-0.566203,-0.207898,-0.341141
1470345337232349,-0.56659,-0.207927,-0.340974
1470345337253016,-0.56659,-0.207927,-0.340974
1470345337269019,-0.566076,-0.207802,-0.340895
1470345337291995,-0.566094,-0.207925,-0.340887
1470345337313017,-0.566481,-0.207953,-0.340721
1470345337329039,-0.566494,-0.207837,-0.340751
1470345337352084,-0.566494,-0.207837,-0.340751
1470345337373128,-0.566357,-0.207813,-0.340757
1470345337389129,-0.566739,-0.207878,-0.340716
1470345337412139,-0.566739,-0.207878,-0.340716
1470345337433184,-0.566769,-0.207884,-0.340739
1470345337449682,-0.566645,-0.207744,-0.340775
1470345337471905,-0.566645,-0.207744,-0.340775
1470345337493041,-0.566645,-0.207744,-0.340775
1470345337509939,-0.566645,-0.207744,-0.340775
1470345337531959,-0.567213,-0.208353,-0.340706
1470345337553595,-0.568442,-0.209083,-0.340176
1470345337569593,-0.570507,-0.210266,-0.339728
1470345337591613,-0.573127,-0.211266,-0.339165
1470345337612634,-0.57619,-0.212104,-0.338643
1470345337629650,-0.577672,-0.21283,-0.338357
1470345337651892,-0.578018,-0.213245,-0.338225
1470345337672954,-0.578861,-0.213662,-0.338178
1470345337689926,-0.580542,-0.213865,-0.338164
1470345337712948,-0.582338,-0.214007,-0.338278
1470345337734497,-0.583764,-0.213967,-0.338464
1470345337749010,-0.584767,-0.214213,-0.338598
1470345337771539,-0.584767,-0.214213,-0.338598
1470345337794558,-0.584269,-0.21421,-0.338511
1470345337808648,-0.583361,-0.214056,-0.3386
1470345337831588,-0.582179,-0.213813,-0.338983
1470345337854638,-0.581577,-0.213431,-0.339403
1470345337868676,-0.581315,-0.213225,-0.339729
1470345337891681,-0.581207,-0.213208,-0.339757
1470345337914686,-0.581207,-0.213208,-0.339757
1470345337928706,-0.580967,-0.213129,-0.339666
1470345337952491,-0.580281,-0.21325,-0.339658
1470345337974511,-0.580137,-0.213263,-0.33979
1470345337988644,-0.579891,-0.212276,-0.339691
1470345338011570,-0.580444,-0.210783,-0.340332
1470345338034564,-0.581516,-0.210362,-0.341187
1470345338049084,-0.581111,-0.210493,-0.34104
1470345338071611,-0.578899,-0.210272,-0.341349
1470345338094628,-0.576091,-0.209674,-0.341669
1470345338109644,-0.57389,-0.2097,-0.341532
1470345338131666,-0.571899,-0.209129,-0.341416
1470345338160874,-0.570391,-0.208395,-0.341676
1470345338168830,-0.570435,-0.208285,-0.341728
1470345338191847,-0.569923,-0.208116,-0.341931
1470345338214869,-0.569017,-0.208622,-0.342476
1470345338235989,-0.569004,-0.208739,-0.342446
1470345338251567,-0.568451,-0.209247,-0.341957
1470345338275567,-0.567645,-0.209511,-0.341666
1470345338295587,-0.567609,-0.209869,-0.341168
1470345338311599,-0.5684,-0.210093,-0.340545
1470345338334619,-0.569315,-0.21013,-0.340488
1470345338355939,-0.569705,-0.210115,-0.340603
1470345338371928,-0.570116,-0.209903,-0.340904
1470345338394947,-0.570769,-0.209776,-0.340889
1470345338415966,-0.571183,-0.20957,-0.340783
1470345338431987,-0.571217,-0.209584,-0.340398
1470345338454625,-0.570531,-0.209081,-0.340058
1470345338475646,-0.569229,-0.208071,-0.340143
1470345338491660,-0.568224,-0.206964,-0.339711
1470345338514679,-0.567515,-0.206036,-0.338852
1470345338535712,-0.566996,-0.205333,-0.338157
1470345338552246,-0.566132,-0.204874,-0.338052
1470345338574266,-0.565907,-0.204965,-0.33767
1470345338595301,-0.565733,-0.2053,-0.337179
1470345338612302,-0.565596,-0.205276,-0.337185
1470345338634320,-0.565987,-0.205544,-0.336981
1470345338657413,-0.565987,-0.205544,-0.336981
1470345338672427,-0.56613,-0.205531,-0.33685
1470345338694447,-0.565993,-0.205508,-0.336856
1470345338717468,-0.565987,-0.205544,-0.336981
1470345338732482,-0.565987,-0.205544,-0.336981
1470345338754527,-0.56653,-0.205443,-0.336714
1470345338777551,-0.566917,-0.20547,-0.336548
1470345338791560,-0.566917,-0.20547,-0.336548
1470345338814581,-0.566917,-0.20547,-0.336548
1470345338837105,-0.566917,-0.20547,-0.336548
1470345338851117,-0.567055,-0.205494,-0.336542
1470345338874293,-0.566712,-0.205079,-0.336672
1470345338897314,-0.566575,-0.205056,-0.336678
1470345338911327,-0.567626,-0.205114,-0.336617
1470345338934347,-0.568603,-0.205553,-0.336568
1470345338956884,-0.568865,-0.205717,-0.336526
1470345338970895,-0.568863,-0.205761,-0.336245
1470345338994917,-0.568879,-0.205652,-0.335867
1470345339016937,-0.569248,-0.205217,-0.335058
1470345339030949,-0.569509,-0.204764,-0.334278
1470345339054085,-0.569363,-0.204206,-0.333389
1470345339077109,-0.568843,-0.203504,-0.332696
1470345339091119,-0.568338,-0.202641,-0.332315
1470345339114156,-0.568435,-0.202071,-0.332082
1470345339137172,-0.568998,-0.201771,-0.332002
1470345339158737,-0.569169,-0.20148,-0.332213
1470345339174749,-0.569032,-0.201457,-0.332219
1470345339196805,-0.569019,-0.201574,-0.332188
1470345339217842,-0.569406,-0.201601,-0.332023
1470345339234851,-0.570068,-0.201674,-0.331847
1470345339257420,-0.570705,-0.201704,-0.331524
1470345339278440,-0.570705,-0.201704,-0.331524
1470345339294457,-0.570705,-0.201704,-0.331524
1470345339316513,-0.570718,-0.201588,-0.331554
1470345339338532,-0.571169,-0.201307,-0.331628
1470345339354362,-0.571381,-0.200673,-0.331524
1470345339377384,-0.571362,-0.199883,-0.331484
1470345339398402,-0.571302,-0.19916,-0.331673
1470345339414417,-0.57186,-0.198896,-0.33172
1470345339437036,-0.572325,-0.198499,-0.331826
1470345339458217,-0.572325,-0.198499,-0.331826
1470345339474186,-0.572325,-0.198499,-0.331826
1470345339497207,-0.572591,-0.198342,-0.33198
1470345339518266,-0.572466,-0.198203,-0.332016
1470345339534240,-0.572846,-0.198259,-0.332384
1470345339556809,-0.573458,-0.198472,-0.332689
1470345339579793,-0.573932,-0.198662,-0.332999
1470345339594805,-0.574019,-0.198826,-0.333473
1470345339616825,-0.574196,-0.19916,-0.334014
1470345339639885,-0.574816,-0.199294,-0.334475
1470345339654916,-0.575303,-0.199369,-0.334815
1470345339676980,-0.575573,-0.19917,-0.335251
1470345339698991,-0.575304,-0.199037,-0.335825
1470345339714971,-0.575304,-0.199037,-0.335825
1470345339737024,-0.575552,-0.199034,-0.336074
1470345339759052,-0.575552,-0.199034,-0.336074
1470345339774065,-0.575552,-0.199034,-0.336074
1470345339797087,-0.575244,-0.199251,-0.336556
1470345339819118,-0.575244,-0.199251,-0.336556
1470345339834119,-0.57519,-0.199435,-0.336754
1470345339857177,-0.575012,-0.199754,-0.337074
1470345339879194,-0.574815,-0.199952,-0.337403
1470345339894208,-0.574916,-0.200281,-0.337588
1470345339917230,-0.57532,-0.200817,-0.337783
1470345339922266,-0.575777,-0.201445,-0.337867
1470345339945313,-0.575764,-0.201561,-0.337837
1470345339960978,-0.575777,-0.201445,-0.337867
1470345339982000,-0.576106,-0.201694,-0.338026
1470345340005020,-0.576861,-0.201896,-0.3382
1470345340021031,-0.576861,-0.201896,-0.3382
1470345340042594,-0.576723,-0.201873,-0.338205
1470345340064622,-0.577909,-0.202042,-0.337578
1470345340081636,-0.579785,-0.202052,-0.336836
1470345340102653,-0.581241,-0.202022,-0.336645
1470345340124673,-0.581873,-0.202085,-0.336854
1470345340141694,-0.581105,-0.201675,-0.337254
1470345340162543,-0.579897,-0.201034,-0.337648
1470345340184562,-0.579117,-0.20074,-0.338016
1470345340201577,-0.578948,-0.200043,-0.337953
1470345340222597,-0.579465,-0.199505,-0.337581
1470345340253157,-0.579396,-0.199187,-0.337012
1470345340267220,-0.578526,-0.199052,-0.336302
1470345340282238,-0.577586,-0.199538,-0.335563
1470345340305253,-0.577296,-0.200215,-0.334619
1470345340321291,-0.57737,-0.200876,-0.333363
1470345340342784,-0.576848,-0.20144,-0.332202
1470345340365451,-0.576531,-0.202112,-0.331237
1470345340381416,-0.577744,-0.203357,-0.329919
1470345340402390,-0.579612,-0.204831,-0.328111
1470345340425411,-0.58041,-0.206126,-0.32637
1470345340441436,-0.58071,-0.207416,-0.324947
1470345340462612,-0.581152,-0.208685,-0.3238
1470345340485669,-0.582147,-0.209449,-0.322738
1470345340501656,-0.583306,-0.209959,-0.322013
1470345340522698,-0.584146,-0.210491,-0.321529
1470345340545217,-0.584285,-0.210514,-0.321523
1470345340563279,-0.584285,-0.210514,-0.321523
1470345340582330,-0.584658,-0.210692,-0.321451
1470345340605291,-0.585313,-0.210878,-0.321242
1470345340623306,-0.585565,-0.21088,-0.321082
1470345340642832,-0.585565,-0.21088,-0.321082
1470345340665076,-0.585565,-0.21088,-0.321082
1470345340683092,-0.585426,-0.210857,-0.321089
1470345340702107,-0.585469,-0.210747,-0.321141
1470345340725129,-0.585542,-0.211113,-0.32102
1470345340743148,-0.585611,-0.211836,-0.320826
1470345340762931,-0.585433,-0.212243,-0.320582
1470345340784950,-0.585237,-0.212846,-0.320151
1470345340802968,-0.585168,-0.213547,-0.319964
1470345340823986,-0.585069,-0.214241,-0.319756
1470345340845508,-0.585163,-0.214731,-0.319624
1470345340863029,-0.585214,-0.215331,-0.319441
1470345340882048,-0.585152,-0.215952,-0.31941
1470345340905067,-0.585348,-0.216537,-0.319094
1470345340923084,-0.584758,-0.217155,-0.318956
1470345340942606,-0.584719,-0.217585,-0.318707
1470345340965129,-0.584842,-0.217804,-0.318513
1470345340983147,-0.584446,-0.21786,-0.318524
1470345341010170,-0.583633,-0.217847,-0.318555
1470345341025183,-0.583209,-0.218174,-0.318629
1470345341043205,-0.583209,-0.218174,-0.318629
1470345341062224,-0.583209,-0.218174,-0.318629
1470345341085245,-0.583209,-0.218174,-0.318629
1470345341103261,-0.583209,-0.218174,-0.318629
1470345341122277,-0.583209,-0.218174,-0.318629
1470345341145301,-0.583209,-0.218174,-0.318629
1470345341162321,-0.583209,-0.218174,-0.318629
1470345341184341,-0.583209,-0.218174,-0.318629
1470345341205359,-0.58322,-0.218057,-0.31866
1470345341222375,-0.583082,-0.218035,-0.318667
1470345341244397,-0.583082,-0.218035,-0.318667
1470345341265419,-0.583082,-0.218035,-0.318667
1470345341282435,-0.583082,-0.218035,-0.318667
1470345341304454,-0.583082,-0.218035,-0.318667
1470345341324471,-0.582974,-0.218019,-0.318696
1470345341342997,-0.582974,-0.218019,-0.318696
1470345341364061,-0.582974,-0.218019,-0.318696
1470345341385078,-0.582985,-0.217902,-0.318727
1470345341403096,-0.582974,-0.218019,-0.318696
1470345341424115,-0.582846,-0.217879,-0.318733
1470345341445140,-0.582846,-0.217879,-0.318733
1470345341462361,-0.582334,-0.217679,-0.318813
1470345341485381,-0.582365,-0.217686,-0.318835
1470345341505402,-0.581848,-0.217565,-0.318758
1470345341522415,-0.581848,-0.217565,-0.318758
1470345341545443,-0.581848,-0.217565,-0.318758
1470345341565477,-0.581191,-0.217379,-0.31897
1470345341583498,-0.581072,-0.21748,-0.318968
1470345341605515,-0.581072,-0.21748,-0.318968
1470345341624547,-0.581083,-0.217363,-0.318999
1470345341643069,-0.58056,-0.217279,-0.319048
1470345341665687,-0.580571,-0.217162,-0.319078
1470345341684729,-0.580577,-0.217125,-0.318953
1470345341702691,-0.580577,-0.217125,-0.318953
1470345341725713,-0.580439,-0.217102,-0.31896
1470345341745243,-0.58045,-0.216985,-0.318991
1470345341762761,-0.580336,-0.217007,-0.319144
1470345341785795,-0.580342,-0.21697,-0.319019
1470345341804822,-0.580342,-0.21697,-0.319019
1470345341822814,-0.580198,-0.216984,-0.319151
1470345341845840,-0.580198,-0.216984,-0.319151
1470345341865562,-0.580198,-0.216984,-0.319151
1470345341882574,-0.580215,-0.21683,-0.319057
1470345341905597,-0.580215,-0.21683,-0.319057
1470345341924666,-0.580076,-0.216807,-0.319063
1470345341943180,-0.580076,-0.216807,-0.319063
1470345341965762,-0.580076,-0.216807,-0.319063
1470345341984738,-0.580059,-0.216961,-0.319158
1470345342002753,-0.580076,-0.216807,-0.319063
1470345342025772,-0.580107,-0.216815,-0.319085
1470345342045311,-0.580107,-0.216815,-0.319085
1470345342063511,-0.580107,-0.216815,-0.319085
1470345342085500,-0.579969,-0.216792,-0.319092
1470345342106500,-0.5789,-0.216858,-0.319128
1470345342122514,-0.577726,-0.216952,-0.318911
1470345342145639,-0.57684,-0.216975,-0.318712
1470345342166804,-0.575918,-0.21707,-0.318335
1470345342182858,-0.575538,-0.217374,-0.317901
1470345342205839,-0.575357,-0.217863,-0.317505
1470345342225859,-0.574952,-0.21808,-0.317205
1470345342243428,-0.57509,-0.218103,-0.317198
1470345342264980,-0.57509,-0.218103,-0.317198
1470345342286087,-0.575079,-0.21822,-0.317167
1470345342303018,-0.575079,-0.21822,-0.317167
1470345342325035,-0.575489,-0.217923,-0.317623
1470345342346605,-0.575984,-0.217875,-0.317989
1470345342363178,-0.576256,-0.217556,-0.318452
1470345342385200,-0.576517,-0.217354,-0.318885
1470345342409219,-0.576646,-0.217092,-0.319199
1470345342423231,-0.576666,-0.217217,-0.31919
1470345342444766,-0.576528,-0.217194,-0.319196
1470345342467335,-0.576528,-0.217194,-0.319196
1470345342488411,-0.576852,-0.217519,-0.319197
1470345342504368,-0.577219,-0.217734,-0.31925
1470345342527389,-0.577725,-0.217972,-0.319295
1470345342548417,-0.578194,-0.218282,-0.319163
1470345342564471,-0.578786,-0.21877,-0.319119
1470345342586543,-0.579447,-0.218876,-0.319063
1470345342601467,-0.579458,-0.218759,-0.319093
1470345342624488,-0.579571,-0.218695,-0.319221
1470345342647569,-0.580098,-0.218656,-0.319609
1470345342661587,-0.580457,-0.21863,-0.319701
1470345342684611,-0.580349,-0.218615,-0.31973
1470345342706628,-0.580762,-0.218405,-0.319624
1470345342721641,-0.580762,-0.218405,-0.319624
1470345342744710,-0.580762,-0.218405,-0.319624
1470345342767356,-0.580762,-0.218405,-0.319624
1470345342781373,-0.580624,-0.218382,-0.319631
1470345342804387,-0.580624,-0.218382,-0.319631
1470345342827410,-0.580624,-0.218382,-0.319631
1470345342841483,-0.580624,-0.218382,-0.319631
1470345342864958,-0.580624,-0.218382,-0.319631
1470345342887006,-0.580321,-0.218886,-0.319794
1470345342908018,-0.57981,-0.218728,-0.319592
1470345342924053,-0.580099,-0.218699,-0.319328
1470345342947581,-0.580529,-0.219355,-0.31951
1470345342968172,-0.580379,-0.219449,-0.319486
1470345342984193,-0.57962,-0.219167,-0.319883
1470345343007195,-0.57962,-0.219167,-0.319883
1470345343028213,-0.57962,-0.219167,-0.319883
1470345343044755,-0.579481,-0.219144,-0.31989
1470345343067279,-0.579481,-0.219144,-0.31989
1470345343088318,-0.579131,-0.219838,-0.319846
1470345343104322,-0.57833,-0.220109,-0.319557
1470345343127333,-0.578202,-0.219969,-0.319595
1470345343148413,-0.578484,-0.219935,-0.319737
1470345343164305,-0.578473,-0.220052,-0.319706
1470345343187317,-0.577916,-0.220276,-0.319946
1470345343208363,-0.577777,-0.220254,-0.319953
1470345343224397,-0.577777,-0.220254,-0.319953
1470345343247380,-0.578403,-0.220433,-0.319718
1470345343268081,-0.578403,-0.220433,-0.319718
1470345343284109,-0.578414,-0.220316,-0.319749
1470345343307091,-0.578414,-0.220316,-0.319749
1470345343328105,-0.578858,-0.220113,-0.319664
1470345343344676,-0.578858,-0.220113,-0.319664
1470345343366752,-0.578713,-0.220128,-0.319796
1470345343389773,-0.578713,-0.220128,-0.319796
1470345343404786,-0.578719,-0.220091,-0.319671
1470345343434815,-0.57863,-0.219964,-0.319323
1470345343449877,-0.57863,-0.219964,-0.319323
1470345343464461,-0.578769,-0.219987,-0.319316
1470345343487434,-0.57863,-0.219964,-0.319323
1470345343509453,-0.578641,-0.219847,-0.319354
1470345343523498,-0.578624,-0.220001,-0.319449
1470345343555034,-0.578613,-0.220118,-0.319418
1470345343570051,-0.578624,-0.220001,-0.319449
1470345343584063,-0.578624,-0.220001,-0.319449
1470345343607083,-0.578624,-0.220001,-0.319449
1470345343630105,-0.57863,-0.219964,-0.319323
1470345343644189,-0.57863,-0.219964,-0.319323
1470345343667212,-0.578624,-0.220001,-0.319449
1470345343690233,-0.57863,-0.219964,-0.319323
1470345343704247,-0.578641,-0.219847,-0.319354
1470345343727266,-0.578641,-0.219847,-0.319354
1470345343749790,-0.578641,-0.219847,-0.319354
1470345343764325,-0.578641,-0.219847,-0.319354
1470345343787346,-0.578641,-0.219847,-0.319354
1470345343809368,-0.578641,-0.219847,-0.319354
1470345343824380,-0.578641,-0.219847,-0.319354
1470345343847405,-0.578641,-0.219847,-0.319354
1470345343869494,-0.578641,-0.219847,-0.319354
1470345343890493,-0.578503,-0.219824,-0.319361
1470345343907505,-0.578503,-0.219824,-0.319361
1470345343929527,-0.578503,-0.219824,-0.319361
1470345343951080,-0.578503,-0.219824,-0.319361
1470345343966693,-0.578503,-0.219824,-0.319361
1470345343989698,-0.578514,-0.219707,-0.319391
1470345344010746,-0.578503,-0.219824,-0.319361
1470345344026707,-0.578503,-0.219824,-0.319361
1470345344049786,-0.578503,-0.219824,-0.319361
1470345344070366,-0.578503,-0.219824,-0.319361
1470345344087382,-0.578514,-0.219707,-0.319391
1470345344109399,-0.578514,-0.219707,-0.319391
1470345344130421,-0.578514,-0.219707,-0.319391
1470345344147440,-0.578514,-0.219707,-0.319391
1470345344170041,-0.578406,-0.219691,-0.31942
1470345344191061,-0.578406,-0.219691,-0.31942
1470345344207109,-0.578525,-0.21959,-0.319422
1470345344229105,-0.578525,-0.21959,-0.319422
1470345344251171,-0.578525,-0.21959,-0.319422
1470345344267227,-0.578525,-0.21959,-0.319422
1470345344289225,-0.578567,-0.21948,-0.319474
1470345344312246,-0.578991,-0.219153,-0.319398
1470345344327259,-0.579503,-0.219354,-0.319318
1470345344349802,-0.579472,-0.219347,-0.319297
1470345344372361,-0.578841,-0.219247,-0.319375
1470345344387374,-0.578841,-0.219247,-0.319375
1470345344409394,-0.579292,-0.219007,-0.319164
1470345344432414,-0.579795,-0.218967,-0.319124
1470345344447445,-0.579784,-0.219084,-0.319093
1470345344469997,-0.579526,-0.219163,-0.319098
1470345344492003,-0.579143,-0.219144,-0.318859
1470345344506057,-0.579143,-0.219144,-0.318859
1470345344530038,-0.579431,-0.219073,-0.318876
1470345344552594,-0.579977,-0.218923,-0.318888
1470345344566641,-0.579988,-0.218806,-0.318919
1470345344589663,-0.579849,-0.218783,-0.318926
1470345344611681,-0.580244,-0.218684,-0.319196
1470345344626695,-0.580778,-0.218651,-0.319177
1470345344649734,-0.580778,-0.218651,-0.319177
1470345344672352,-0.580679,-0.218241,-0.319151
1470345344693386,-0.580546,-0.218181,-0.319033
1470345344710360,-0.580571,-0.218225,-0.31918
1470345344732379,-0.580577,-0.218188,-0.319054
1470345344746405,-0.580577,-0.218188,-0.319054
1470345344769525,-0.580433,-0.218202,-0.319186
1470345344792546,-0.58045,-0.218048,-0.319092
1470345344820625,-0.58045,-0.218048,-0.319092
1470345344835640,-0.58045,-0.218048,-0.319092
1470345344852125,-0.580383,-0.217687,-0.318806
1470345344872923,-0.580394,-0.21757,-0.318837
1470345344889897,-0.580394,-0.21757,-0.318837
1470345344911917,-0.580394,-0.21757,-0.318837
1470345344932937,-0.580255,-0.217547,-0.318844
1470345344949963,-0.580286,-0.217555,-0.318865
1470345344972519,-0.580298,-0.217438,-0.318896
1470345344993539,-0.580159,-0.217415,-0.318903
1470345345009554,-0.580159,-0.217415,-0.318903
1470345345031572,-0.580159,-0.217415,-0.318903
1470345345053598,-0.580176,-0.217261,-0.318808
1470345345069315,-0.580176,-0.217261,-0.318808
1470345345092327,-0.580176,-0.217261,-0.318808
1470345345113400,-0.580187,-0.217144,-0.318839
1470345345129401,-0.580187,-0.217144,-0.318839
1470345345152385,-0.580049,-0.217121,-0.318846
1470345345172952,-0.58008,-0.217128,-0.318867
1470345345189934,-0.58008,-0.217128,-0.318867
1470345345211948,-0.579952,-0.216989,-0.318905
1470345345232968,-0.579546,-0.217161,-0.318885
1470345345249990,-0.579123,-0.217531,-0.318679
1470345345272000,-0.579208,-0.217781,-0.318589
1470345345295021,-0.579197,-0.217898,-0.318559
1470345345310035,-0.578272,-0.217907,-0.318745
1470345345332059,-0.577359,-0.217799,-0.318961
1470345345354610,-0.577232,-0.21766,-0.318999
1470345345376833,-0.577263,-0.217667,-0.31902
1470345345391844,-0.577263,-0.217667,-0.31902
1470345345414865,-0.577263,-0.217667,-0.31902
1470345345428878,-0.57688,-0.217692,-0.3185
1470345345452405,-0.577032,-0.217684,-0.317961
1470345345474431,-0.576846,-0.217425,-0.317673
1470345345489445,-0.576496,-0.217057,-0.317525
1470345345512466,-0.576389,-0.217041,-0.317554
1470345345534539,-0.57679,-0.216948,-0.317417
1470345345549004,-0.576801,-0.216831,-0.317447
1470345345572238,-0.577096,-0.216765,-0.317058
1470345345594259,-0.577321,-0.21708,-0.31668
1470345345609272,-0.57731,-0.217197,-0.316649
1470345345632293,-0.57731,-0.217197,-0.316649
1470345345654841,-0.577203,-0.217182,-0.316678
1470345345668633,-0.577614,-0.216928,-0.316853
1470345345692655,-0.578009,-0.216872,-0.316841
1470345345714675,-0.577882,-0.216732,-0.316879
1470345345728692,-0.578021,-0.216755,-0.316872
1470345345752280,-0.578021,-0.216755,-0.316872
1470345345774811,-0.577882,-0.216732,-0.316879
1470345345795834,-0.577882,-0.216732,-0.316879
1470345345811839,-0.577882,-0.216732,-0.316879
1470345345834860,-0.577882,-0.216732,-0.316879
1470345345855974,-0.577786,-0.2166,-0.316938
1470345345872546,-0.5781,-0.217041,-0.316908
1470345345894567,-0.578194,-0.217532,-0.316778
1470345345915675,-0.577879,-0.217918,-0.316544
1470345345931628,-0.577734,-0.218334,-0.316325
1470345345954728,-0.577607,-0.218194,-0.316362
1470345345975970,-0.577607,-0.218194,-0.316362
1470345345992003,-0.577663,-0.218672,-0.316618
1470345346015002,-0.57768,-0.218518,-0.316523
1470345346036068,-0.577457,-0.219308,-0.316722
1470345346052106,-0.577148,-0.219614,-0.316645
1470345346074865,-0.577366,-0.219923,-0.316673
1470345346095883,-0.577557,-0.220547,-0.316485
1470345346111917,-0.577557,-0.220547,-0.316485
1470345346134917,-0.576928,-0.220491,-0.316282
1470345346157459,-0.576928,-0.220491,-0.316282
1470345346172502,-0.577164,-0.220646,-0.316216
1470345346194521,-0.577164,-0.220646,-0.316216
1470345346217541,-0.577157,-0.220683,-0.316341
1470345346232554,-0.577147,-0.2208,-0.316311
1470345346254639,-0.577069,-0.220557,-0.315994
1470345346277385,-0.577086,-0.220403,-0.315899
1470345346292398,-0.576973,-0.220066,-0.316123
1470345346314417,-0.576886,-0.219774,-0.316494
1470345346337441,-0.576552,-0.219208,-0.316533
1470345346352469,-0.576406,-0.218159,-0.316562
1470345346374259,-0.576531,-0.217193,-0.316703
1470345346398278,-0.576656,-0.216227,-0.316844
1470345346411287,-0.576104,-0.21531,-0.317135
1470345346434317,-0.575564,-0.214275,-0.317457
1470345346457394,-0.575098,-0.213563,-0.317939
1470345346471034,-0.57496,-0.213541,-0.317945
1470345346495056,-0.574991,-0.213548,-0.317967
1470345346517076,-0.574852,-0.213525,-0.317973
1470345346531099,-0.574852,-0.213525,-0.317973
1470345346554661,-0.574852,-0.213525,-0.317973
1470345346576685,-0.574864,-0.213408,-0.318004
1470345346591700,-0.574714,-0.213503,-0.31798
1470345346614720,-0.574164,-0.21369,-0.318093
1470345346636780,-0.573408,-0.213452,-0.318206
1470345346651783,-0.573281,-0.213312,-0.318243
1470345346674846,-0.573281,-0.213312,-0.318243
1470345346696866,-0.573281,-0.213312,-0.318243
1470345346711879,-0.572765,-0.213105,-0.318728
1470345346734935,-0.572009,-0.212822,-0.319122
1470345346764624,-0.571211,-0.212649,-0.319465
1470345346779645,-0.570296,-0.212622,-0.319524
1470345346794653,-0.569535,-0.21242,-0.319762
1470345346823677,-0.569014,-0.212292,-0.320091
1470345346838694,-0.567961,-0.212197,-0.320438
1470345346854801,-0.566795,-0.212123,-0.320938
1470345346877620,-0.565527,-0.212377,-0.321712
1470345346898644,-0.565312,-0.212727,-0.32214
1470345346914652,-0.565133,-0.213002,-0.322744
1470345346936714,-0.564696,-0.213079,-0.323266
1470345346958255,-0.564121,-0.213132,-0.323795
1470345346974815,-0.56384,-0.213033,-0.324496
1470345346996834,-0.563816,-0.212855,-0.325192
1470345347017901,-0.563559,-0.212521,-0.325953
1470345347034867,-0.563315,-0.212071,-0.326743
1470345347057394,-0.56316,-0.211789,-0.327601
1470345347078012,-0.562899,-0.211491,-0.328487
1470345347094972,-0.562507,-0.211134,-0.329254
1470345347117044,-0.562103,-0.210849,-0.330272
1470345347138011,-0.56133,-0.210428,-0.33108
1470345347154582,-0.560934,-0.210106,-0.331973
1470345347177139,-0.560383,-0.209913,-0.332968
1470345347199156,-0.560112,-0.209731,-0.333824
1470345347214221,-0.559975,-0.209707,-0.333831
1470345347237233,-0.559987,-0.20959,-0.33386
1470345347259764,-0.55985,-0.209567,-0.333867
1470345347274293,-0.559837,-0.209684,-0.333837
1470345347297300,-0.559837,-0.209684,-0.333837
1470345347319320,-0.559743,-0.20955,-0.333895
1470345347334335,-0.560105,-0.209812,-0.333669
1470345347357380,-0.560568,-0.210126,-0.33354
1470345347380056,-0.561217,-0.210317,-0.333331
1470345347394067,-0.561742,-0.210368,-0.333158
1470345347417111,-0.561605,-0.210345,-0.333164
1470345347439126,-0.562034,-0.210307,-0.332768
1470345347454166,-0.56272,-0.210191,-0.332366
1470345347477192,-0.56272,-0.210191,-0.332366
1470345347499315,-0.56272,-0.210191,-0.332366
1470345347514227,-0.56272,-0.210191,-0.332366
1470345347537248,-0.56272,-0.210191,-0.332366
1470345347559771,-0.56272,-0.210191,-0.332366
1470345347573862,-0.562376,-0.209777,-0.332496
1470345347596884,-0.562034,-0.209318,-0.332908
1470345347619904,-0.561936,-0.208899,-0.333284
1470345347633917,-0.561844,-0.208443,-0.333535
1470345347657445,-0.56152,-0.207831,-0.33385
1470345347679484,-0.560707,-0.207184,-0.333952
1470345347711513,-0.559991,-0.206625,-0.334278
1470345347717517,-0.559663,-0.206048,-0.334718
1470345347722580,-0.559668,-0.205681,-0.335192
1470345347745541,-0.560083,-0.20543,-0.335366
1470345347762563,-0.559946,-0.205406,-0.335372
1470345347782585,-0.559122,-0.204875,-0.335444
1470345347804605,-0.558847,-0.204162,-0.335402
1470345347822622,-0.560545,-0.204134,-0.335044
1470345347842638,-0.56209,-0.204521,-0.334469
1470345347864676,-0.56189,-0.204425,-0.333867
1470345347887715,-0.560579,-0.204535,-0.333371
1470345347902739,-0.559706,-0.204482,-0.332917
1470345347924734,-0.559532,-0.204153,-0.332374
1470345347950755,-0.559976,-0.204007,-0.331602
1470345347962764,-0.559634,-0.203924,-0.331131
1470345347984812,-0.558741,-0.20374,-0.331092
1470345348007835,-0.558753,-0.203623,-0.331121
1470345348022849,-0.55958,-0.203495,-0.330591
1470345348044842,-0.560674,-0.203494,-0.329893
1470345348067876,-0.561158,-0.20394,-0.329351
1470345348082890,-0.56168,-0.204035,-0.328898
1470345348104907,-0.561647,-0.20435,-0.328683
1470345348122924,-0.562166,-0.204435,-0.328637
1470345348141941,-0.562649,-0.20455,-0.328695
1470345348165030,-0.563674,-0.204838,-0.328573
1470345348188117,-0.563674,-0.204838,-0.328573
1470345348203042,-0.562606,-0.204937,-0.328731
1470345348225072,-0.561839,-0.204803,-0.329217
1470345348247692,-0.561702,-0.20478,-0.329224
1470345348262669,-0.561415,-0.204851,-0.329206
1470345348285016,-0.560593,-0.204944,-0.329611
1470345348308007,-0.560058,-0.204965,-0.330035
1470345348323064,-0.560058,-0.204965,-0.330035
1470345348345095,-0.560058,-0.204965,-0.330035
1470345348363106,-0.559749,-0.205179,-0.33052
1470345348390161,-0.559583,-0.205381,-0.330873
1470345348405149,-0.559595,-0.205264,-0.330903
1470345348428172,-0.559595,-0.205264,-0.330903
1470345348442237,-0.559595,-0.205264,-0.330903
1470345348464838,-0.559583,-0.205381,-0.330873
1470345348487835,-0.559583,-0.205381,-0.330873
1470345348502848,-0.559583,-0.205381,-0.330873
1470345348524877,-0.559595,-0.205264,-0.330903
1470345348547884,-0.559595,-0.205264,-0.330903
1470345348562917,-0.559216,-0.205868,-0.330996
1470345348585018,-0.55916,-0.206372,-0.331004
1470345348608067,-0.558759,-0.206507,-0.330859
1470345348623024,-0.558042,-0.206937,-0.331045
1470345348645047,-0.557814,-0.207402,-0.331444
1470345348667273,-0.55801,-0.207819,-0.331854
1470345348682241,-0.558068,-0.208258,-0.331989
1470345348705233,-0.558179,-0.208515,-0.331924
1470345348727238,-0.558179,-0.208515,-0.331924
1470345348744256,-0.55738,-0.208464,-0.331828
1470345348764811,-0.55683,-0.208648,-0.331942
1470345348787874,-0.5562,-0.20858,-0.332144
1470345348809885,-0.555707,-0.20826,-0.33225
1470345348824906,-0.555707,-0.20826,-0.33225
1470345348847903,-0.555694,-0.208377,-0.33222
1470345348863422,-0.555694,-0.208377,-0.33222
1470345348884752,-0.555412,-0.208689,-0.332167
1470345348907773,-0.555275,-0.208665,-0.332173
1470345348923732,-0.555088,-0.209111,-0.332062
1470345348944751,-0.554907,-0.209474,-0.332107
1470345348967816,-0.555113,-0.209865,-0.331984
1470345348983800,-0.555455,-0.210326,-0.331574
1470345349004908,-0.555696,-0.210734,-0.331067
1470345349027888,-0.555521,-0.211108,-0.330704
1470345349043854,-0.555745,-0.211669,-0.330293
1470345349065030,-0.555745,-0.211669,-0.330293
1470345349088016,-0.555745,-0.211669,-0.330293
1470345349105027,-0.555882,-0.211692,-0.330287
1470345349125039,-0.555926,-0.211259,-0.33053
1470345349147057,-0.556358,-0.210807,-0.330886
1470345349165802,-0.55691,-0.210255,-0.331244
1470345349184873,-0.556854,-0.209725,-0.331671
1470345349207918,-0.556768,-0.209187,-0.332076
1470345349225854,-0.556683,-0.20865,-0.332481
1470345349244891,-0.556656,-0.208552,-0.333022
1470345349267526,-0.556549,-0.208535,-0.33305
1470345349285499,-0.556412,-0.208512,-0.333056
1470345349305521,-0.556425,-0.208395,-0.333086
1470345349327594,-0.556468,-0.208997,-0.33291
1470345349345553,-0.556678,-0.209629,-0.332751
1470345349365413,-0.556878,-0.210102,-0.332473
1470345349387405,-0.55682,-0.210651,-0.3322
1470345349406423,-0.55682,-0.210651,-0.3322
1470345349425530,-0.55682,-0.210651,-0.3322
1470345349447514,-0.55682,-0.210651,-0.3322
1470345349465486,-0.55682,-0.210651,-0.3322
1470345349485590,-0.55682,-0.210651,-0.3322
1470345349507577,-0.55682,-0.210651,-0.3322
1470345349525541,-0.556671,-0.210745,-0.332177
1470345349545558,-0.556671,-0.210745,-0.332177
1470345349567647,-0.556671,-0.210745,-0.332177
1470345349585636,-0.556671,-0.210745,-0.332177
1470345349604654,-0.556671,-0.210745,-0.332177
1470345349627677,-0.55676,-0.210869,-0.332527
1470345349645689,-0.556748,-0.210986,-0.332497
1470345349664843,-0.556885,-0.211009,-0.332491
1470345349687923,-0.556885,-0.211009,-0.332491
1470345349705878,-0.556885,-0.211009,-0.332491
1470345349726897,-0.556748,-0.210986,-0.332497
1470345349747960,-0.556748,-0.210986,-0.332497
1470345349764936,-0.55661,-0.210963,-0.332504
1470345349786961,-0.55661,-0.210963,-0.332504
1470345349808095,-0.55631,-0.211427,-0.332547
1470345349824996,-0.555991,-0.211813,-0.332317
1470345349846073,-0.556204,-0.212169,-0.332069
1470345349867776,-0.556204,-0.212169,-0.332069
1470345349885781,-0.555977,-0.212022,-0.331726
1470345349906755,-0.556718,-0.21168,-0.331403
1470345349927818,-0.557191,-0.211255,-0.330968
1470345349945836,-0.557438,-0.210592,-0.330753
1470345349966373,-0.557662,-0.209841,-0.330671
1470345349987391,-0.558443,-0.20878,-0.330912
1470345350005408,-0.558317,-0.208262,-0.331828
1470345350028428,-0.558637,-0.207876,-0.33206
1470345350047445,-0.556955,-0.207799,-0.332044
1470345350064973,-0.554776,-0.207437,-0.332261
1470345350088315,-0.554698,-0.207807,-0.332683
1470345350107349,-0.55558,-0.208064,-0.332973
1470345350125321,-0.555586,-0.208028,-0.332847
1470345350148368,-0.554791,-0.207839,-0.333595
1470345350167165,-0.554778,-0.207956,-0.333566
1470345350185118,-0.554641,-0.207932,-0.333572
1470345350208142,-0.554641,-0.207932,-0.333572
1470345350228156,-0.554504,-0.207909,-0.333578
1470345350245174,-0.554879,-0.208008,-0.333663
1470345350267857,-0.555441,-0.207708,-0.333578
1470345350287954,-0.554965,-0.207557,-0.333396
1470345350304891,-0.55452,-0.207136,-0.333145
1470345350326910,-0.55452,-0.207136,-0.333145
1470345350347956,-0.554427,-0.206726,-0.333114
1470345350364948,-0.555045,-0.206198,-0.333109
1470345350387475,-0.554933,-0.20594,-0.333174
1470345350408496,-0.554348,-0.205486,-0.333337
1470345350424508,-0.554143,-0.205095,-0.333459
1470345350447533,-0.554113,-0.205088,-0.333437
1470345350468588,-0.554143,-0.205095,-0.333459
1470345350484575,-0.554156,-0.204978,-0.333488
1470345350507593,-0.553657,-0.204739,-0.333438
1470345350528612,-0.553063,-0.204412,-0.333164
1470345350544628,-0.552095,-0.203941,-0.333086
1470345350567655,-0.55051,-0.202436,-0.332529
1470345350588676,-0.549221,-0.201733,-0.331882
1470345350610696,-0.548157,-0.201224,-0.331298
1470345350626709,-0.547741,-0.200858,-0.330788
1470345350648728,-0.547746,-0.200823,-0.330662
1470345350664748,-0.547759,-0.200706,-0.330691
1470345350687378,-0.547687,-0.201039,-0.330988
1470345350708396,-0.547888,-0.201418,-0.331274
1470345350724410,-0.548474,-0.201825,-0.331393
1470345350747459,-0.549549,-0.202265,-0.331726
1470345350768038,-0.550427,-0.202566,-0.331737
1470345350785052,-0.550644,-0.20284,-0.331644
1470345350807106,-0.551109,-0.203394,-0.331482
1470345350828094,-0.551351,-0.20348,-0.331167
1470345350845108,-0.551687,-0.20393,-0.331165
1470345350867237,-0.551687,-0.20393,-0.331165
1470345350888287,-0.551563,-0.20379,-0.3312
1470345350904292,-0.551699,-0.203813,-0.331194
1470345350927290,-0.551611,-0.203644,-0.331125
1470345350948320,-0.552496,-0.203909,-0.33101
1470345350964882,-0.553353,-0.204455,-0.330555
1470345350986997,-0.553088,-0.204661,-0.330124
1470345351010010,-0.551783,-0.204731,-0.329912
1470345351025024,-0.550249,-0.204598,-0.330044
1470345351047054,-0.54899,-0.204235,-0.330075
1470345351069727,-0.548267,-0.203805,-0.329962
1470345351084696,-0.547997,-0.204047,-0.329657
1470345351106702,-0.547149,-0.204467,-0.329446
1470345351129723,-0.547149,-0.204467,-0.329446
1470345351143736,-0.547421,-0.20456,-0.329153
1470345351167838,-0.547336,-0.204403,-0.328678
1470345351189910,-0.546872,-0.204185,-0.328243
1470345351203886,-0.546403,-0.204001,-0.327934
1470345351226892,-0.545518,-0.203785,-0.32777
1470345351249913,-0.54554,-0.203921,-0.327357
1470345351264432,-0.546177,-0.20424,-0.326714
1470345351287035,-0.546598,-0.204239,-0.326444
1470345351310055,-0.546586,-0.204356,-0.326415
1470345351324068,-0.546586,-0.204356,-0.326415
1470345351347090,-0.546586,-0.204356,-0.326415
1470345351370168,-0.546586,-0.204356,-0.326415
1470345351384178,-0.546449,-0.204333,-0.326421
1470345351407199,-0.546449,-0.204333,-0.326421
1470345351429225,-0.546449,-0.204333,-0.326421
1470345351444231,-0.547339,-0.204561,-0.32618
1470345351466779,-0.547978,-0.204833,-0.325817
1470345351489999,-0.548202,-0.205071,-0.325599
1470345351511058,-0.548202,-0.205071,-0.325599
1470345351527032,-0.548202,-0.205071,-0.325599
1470345351557567,-0.548202,-0.205071,-0.325599
1470345351570581,-0.548595,-0.205016,-0.325588
1470345351587597,-0.548595,-0.205016,-0.325588
1470345351609616,-0.548595,-0.205016,-0.325588
1470345351630635,-0.548595,-0.205016,-0.325588
1470345351647650,-0.548501,-0.204882,-0.325645
1470345351669711,-0.548501,-0.204882,-0.325645
1470345351690763,-0.548501,-0.204882,-0.325645
1470345351706746,-0.548501,-0.204882,-0.325645
1470345351729768,-0.548501,-0.204882,-0.325645
1470345351750789,-0.548356,-0.204989,-0.325216
1470345351767811,-0.548356,-0.204989,-0.325216
1470345351789839,-0.548117,-0.204962,-0.324844
1470345351810886,-0.54801,-0.204993,-0.324592
1470345351826870,-0.547374,-0.20501,-0.324638
1470345351849921,-0.547374,-0.20501,-0.324638
1470345351871032,-0.547237,-0.204987,-0.324644
1470345351887008,-0.547374,-0.20501,-0.324638
1470345351910025,-0.547386,-0.204893,-0.324667
1470345351932045,-0.547374,-0.20501,-0.324638
1470345351947059,-0.5464,-0.204626,-0.324405
1470345351969678,-0.544562,-0.203828,-0.324192
1470345351992699,-0.543092,-0.202172,-0.32432
1470345352006761,-0.541573,-0.200986,-0.324333
