timestamp,x,y,z,w
1472088305822136,-0.0518188,0.134705,-0.467163,0.872314
1472088305844669,-0.0515137,0.13501,-0.466858,0.872437
1472088305860691,-0.0508423,0.135315,-0.466492,0.87262
1472088305882223,-0.0507202,0.135559,-0.466248,0.872742
1472088305905781,-0.0509644,0.135681,-0.465942,0.872864
1472088305920795,-0.0510864,0.135803,-0.465637,0.872986
1472088305942313,-0.0512695,0.135864,-0.46521,0.873169
1472088305987896,-0.0514526,0.135864,-0.464905,0.873352
1472088305988896,-0.052002,0.135803,-0.464661,0.873474
1472088306002924,-0.0529175,0.13562,-0.464539,0.873474
1472088306025958,-0.053894,0.135559,-0.464478,0.873474
1472088306040996,-0.0546265,0.135559,-0.464539,0.873413
1472088306070522,-0.0551147,0.135498,-0.464661,0.873291
1472088306114584,-0.0556641,0.135254,-0.464905,0.873169
1472088306124594,-0.0567017,0.13446,-0.465454,0.872925
1472088306126095,-0.0582275,0.133301,-0.466125,0.872681
1472088306145127,-0.0599365,0.13208,-0.466736,0.872375
1472088306167659,-0.0614624,0.131226,-0.467041,0.872253
1472088306182180,-0.0623169,0.131104,-0.466919,0.872314
1472088306204711,-0.062561,0.131042,-0.466797,0.872375
1472088306219732,-0.0620117,0.13092,-0.466797,0.872375
1472088306241775,-0.060791,0.130554,-0.467041,0.872437
1472088306264308,-0.0593262,0.130066,-0.467346,0.872375
1472088306279324,-0.0582275,0.130005,-0.46759,0.872375
1472088306301870,-0.0574951,0.130188,-0.467773,0.872314
1472088306324416,-0.057251,0.130371,-0.467896,0.872253
1472088306339429,-0.0569458,0.130493,-0.468018,0.872131
1472088306361960,-0.0567627,0.130432,-0.468262,0.87207
1472088306384494,-0.0567627,0.130432,-0.468262,0.87207
1472088306399520,-0.0567627,0.130432,-0.468262,0.87207
1472088306422055,-0.0567017,0.130737,-0.468201,0.87207
1472088306444589,-0.0567017,0.130981,-0.46814,0.872009
1472088306459615,-0.0566406,0.131287,-0.468079,0.872009
1472088306482136,-0.0563354,0.131653,-0.468018,0.872009
1472088306504696,-0.0559692,0.13208,-0.467957,0.872009
1472088306521211,-0.0554199,0.132446,-0.467834,0.87207
1472088306541753,-0.0549316,0.132813,-0.467773,0.87207
1472088306564474,-0.0543823,0.13324,-0.467712,0.87207
1472088306580988,-0.0540161,0.133728,-0.467529,0.872131
1472088306601916,-0.0537109,0.134399,-0.467407,0.872131
1472088306624461,-0.0534058,0.135071,-0.467346,0.87207
1472088306640989,-0.0531006,0.135742,-0.467285,0.872009
1472088306662035,-0.0526123,0.136414,-0.467224,0.871948
1472088306684568,-0.0523071,0.137085,-0.467285,0.871826
1472088306700925,-0.0524292,0.137695,-0.467468,0.871643
1472088306721973,-0.0526733,0.138367,-0.46759,0.87146
1472088306744509,-0.0529175,0.138916,-0.467712,0.871277
1472088306761033,-0.0527954,0.139221,-0.467896,0.871155
1472088306782056,-0.0526733,0.139587,-0.467896,0.871094
1472088306804407,-0.0526123,0.140015,-0.467773,0.871094
1472088306826937,-0.0528564,0.140381,-0.467529,0.871155
1472088306841975,-0.0529785,0.140869,-0.467285,0.871216
1472088306864754,-0.0531006,0.141235,-0.467102,0.871216
1472088306887150,-0.0535278,0.141418,-0.467041,0.871216
1472088306901859,-0.0541382,0.141663,-0.467041,0.871094
1472088306924697,-0.0548096,0.141968,-0.466919,0.871094
1472088306947008,-0.055603,0.142273,-0.466675,0.871094
1472088306962022,-0.0563354,0.142578,-0.466492,0.871094
1472088306984542,-0.0571289,0.142761,-0.46637,0.871094
1472088307006995,-0.0579224,0.142761,-0.466431,0.871033
1472088307025032,-0.0584717,0.142639,-0.466614,0.870911
1472088307044578,-0.0585327,0.142578,-0.466614,0.870911
1472088307067097,-0.0581055,0.142151,-0.466736,0.870972
1472088307082111,-0.057373,0.141907,-0.466736,0.871033
1472088307106160,-0.0564575,0.142029,-0.466675,0.871094
1472088307127194,-0.0556641,0.142273,-0.466675,0.871094
1472088307144729,-0.0548096,0.142334,-0.466736,0.871155
1472088307165756,-0.0535889,0.142334,-0.466736,0.871216
1472088307186781,-0.0526123,0.142517,-0.466553,0.871338
1472088307203803,-0.0522461,0.142944,-0.466248,0.87146
1472088307225846,-0.0522461,0.143555,-0.466003,0.87146
1472088307247015,-0.052124,0.143738,-0.46582,0.871582
1472088307265032,-0.052063,0.143677,-0.46582,0.871582
1472088307285549,-0.0518799,0.143311,-0.465515,0.871765
1472088307307094,-0.0519409,0.142944,-0.465088,0.87207
1472088307325122,-0.0522461,0.142822,-0.4646,0.872375
1472088307346156,-0.0527344,0.142822,-0.464111,0.872559
1472088307367021,-0.0530396,0.142822,-0.463806,0.872742
1472088307385063,-0.0529175,0.142639,-0.463623,0.872864
1472088307407610,-0.0526123,0.142578,-0.463501,0.872925
1472088307427032,-0.0522461,0.142517,-0.463562,0.872986
1472088307445077,-0.052063,0.142578,-0.463562,0.872925
1472088307467227,-0.052002,0.142822,-0.463745,0.872803
1472088307487329,-0.052002,0.143127,-0.463867,0.872681
1472088307505190,-0.0518799,0.143494,-0.46405,0.872559
1472088307527266,-0.0517578,0.144043,-0.464233,0.872375
1472088307547396,-0.0516357,0.144409,-0.464478,0.872192
1472088307577375,-0.0515137,0.144592,-0.464783,0.872009
1472088307587325,-0.0510254,0.144409,-0.465027,0.871948
1472088307606952,-0.050354,0.143799,-0.46521,0.871948
1472088307624927,-0.0496826,0.143066,-0.465332,0.87207
1472088307647701,-0.0490723,0.142273,-0.465271,0.872253
1472088307667050,-0.0487671,0.141724,-0.464966,0.872498
1472088307685102,-0.048645,0.141602,-0.4646,0.872742
1472088307707714,-0.0489502,0.141846,-0.464294,0.872864
1472088307726955,-0.0493774,0.142029,-0.464172,0.872864
1472088307744808,-0.0498047,0.142151,-0.464111,0.872864
1472088307767341,-0.0501099,0.142334,-0.464172,0.872803
1472088307786973,-0.0504761,0.142334,-0.464172,0.872742
1472088307804763,-0.0508423,0.142212,-0.464233,0.872742
1472088307827529,-0.0512695,0.142334,-0.464172,0.872681
1472088307847017,-0.0516968,0.142517,-0.464233,0.87262
1472088307865095,-0.052002,0.142639,-0.464294,0.872559
1472088307887720,-0.0522461,0.142883,-0.464478,0.872375
1472088307909945,-0.0524292,0.143066,-0.464722,0.872253
1472088307932753,-0.0526733,0.14325,-0.464966,0.87207
1472088307947311,-0.0527344,0.143372,-0.465149,0.871948
1472088307967026,-0.0527344,0.143372,-0.465149,0.871948
1472088307989626,-0.0527344,0.143372,-0.465149,0.871948
1472088308006580,-0.0527344,0.143372,-0.465149,0.871948
1472088308028203,-0.0526733,0.143372,-0.465149,0.871948
1472088308049516,-0.0526733,0.143372,-0.465149,0.871948
1472088308067590,-0.0524902,0.143372,-0.465027,0.872009
1472088308087608,-0.0522461,0.143311,-0.464844,0.872131
1472088308109611,-0.0522461,0.143311,-0.464905,0.872131
1472088308127708,-0.0523071,0.14325,-0.464722,0.872192
1472088308148759,-0.0524292,0.143311,-0.464478,0.872314
1472088308169817,-0.0525513,0.143433,-0.464233,0.872437
1472088308187442,-0.0526123,0.143677,-0.463928,0.872559
1472088308208584,-0.0528564,0.143799,-0.463684,0.872681
1472088308229688,-0.0528564,0.143799,-0.463684,0.872681
1472088308247833,-0.0528564,0.143799,-0.463684,0.87262
1472088308268400,-0.0528564,0.14386,-0.463684,0.87262
1472088308290019,-0.0529175,0.143799,-0.463684,0.87262
1472088308307674,-0.0531616,0.143921,-0.463562,0.872681
1472088308328256,-0.0534058,0.144104,-0.46344,0.872681
1472088308349443,-0.0534668,0.144104,-0.46344,0.872681
1472088308367586,-0.0534668,0.144165,-0.46344,0.872681
1472088308390113,-0.0534668,0.144165,-0.46344,0.872681
1472088308409516,-0.0535278,0.144165,-0.46344,0.872681
1472088308427894,-0.0535278,0.144165,-0.46344,0.872681
1472088308450017,-0.0535889,0.144165,-0.46344,0.872681
1472088308469715,-0.0535889,0.144165,-0.46344,0.872681
1472088308487490,-0.0536499,0.144165,-0.46344,0.872681
1472088308510059,-0.0536499,0.144165,-0.46344,0.872681
1472088308529675,-0.0534058,0.144104,-0.463562,0.87262
1472088308547676,-0.0534058,0.144104,-0.463562,0.87262
1472088308569827,-0.0534058,0.144104,-0.463562,0.87262
1472088308589357,-0.0534058,0.144104,-0.463562,0.87262
1472088308607311,-0.0534058,0.144104,-0.463562,0.87262
1472088308630192,-0.0533447,0.144104,-0.463562,0.87262
1472088308649691,-0.0533447,0.144165,-0.463562,0.87262
1472088308675280,-0.0532837,0.143921,-0.463501,0.872681
1472088308690344,-0.0532837,0.143921,-0.463501,0.872681
1472088308709543,-0.0532837,0.143921,-0.463501,0.872681
1472088308742689,-0.0532837,0.143921,-0.463501,0.872681
1472088308750089,-0.0532227,0.143738,-0.46344,0.872742
1472088308769796,-0.0531006,0.143494,-0.46344,0.872803
1472088308787265,-0.0531006,0.143494,-0.46344,0.872803
1472088308810382,-0.0531006,0.143555,-0.46344,0.872803
1472088308829417,-0.0531006,0.143555,-0.46344,0.872803
1472088308847323,-0.0531006,0.143555,-0.46344,0.872803
1472088308870008,-0.0529175,0.143311,-0.46344,0.872864
1472088308889667,-0.0526733,0.14325,-0.46344,0.872864
1472088308907498,-0.0526733,0.143188,-0.46344,0.872864
1472088308930036,-0.0526733,0.14325,-0.46344,0.872864
1472088308951148,-0.0526733,0.14325,-0.46344,0.872864
1472088308967943,-0.0526733,0.14325,-0.46344,0.872864
1472088308989934,-0.0526733,0.14325,-0.46344,0.872864
1472088309010975,-0.0526733,0.14325,-0.46344,0.872864
1472088309027565,-0.0527344,0.14325,-0.46344,0.872864
1472088309050212,-0.0527344,0.14325,-0.46344,0.872864
1472088309070810,-0.0527344,0.14325,-0.46344,0.872864
1472088309087363,-0.0527344,0.14325,-0.46344,0.872864
1472088309110099,-0.0527344,0.14325,-0.46344,0.872864
1472088309130821,-0.0527344,0.14325,-0.46344,0.872864
1472088309152186,-0.0527344,0.14325,-0.46344,0.872864
1472088309170239,-0.0527344,0.14325,-0.46344,0.872864
1472088309190911,-0.0527344,0.143311,-0.46344,0.872864
1472088309211993,-0.0527344,0.14325,-0.46344,0.872864
1472088309230014,-0.0527344,0.14325,-0.46344,0.872864
1472088309251116,-0.0527344,0.14325,-0.46344,0.872864
1472088309272093,-0.0527344,0.14325,-0.46344,0.872864
1472088309290149,-0.0527344,0.14325,-0.46344,0.872864
1472088309312481,-0.0527344,0.14325,-0.46344,0.872864
1472088309331939,-0.0527954,0.14325,-0.46344,0.872864
1472088309350223,-0.0527954,0.143311,-0.46344,0.872864
1472088309372452,-0.0527954,0.143311,-0.46344,0.872864
1472088309391902,-0.0527954,0.143311,-0.46344,0.872864
1472088309409920,-0.0526123,0.143311,-0.46344,0.872864
1472088309432566,-0.0526123,0.143188,-0.463379,0.872925
1472088309452156,-0.0526123,0.143188,-0.463379,0.872925
1472088309470221,-0.0526123,0.143188,-0.463379,0.872925
1472088309492258,-0.0526123,0.143188,-0.463379,0.872925
1472088309512371,-0.0526123,0.14325,-0.463379,0.872864
1472088309529999,-0.0526123,0.14325,-0.463379,0.872864
1472088309552193,-0.0526123,0.14325,-0.463379,0.872864
1472088309571867,-0.0526733,0.143005,-0.46344,0.872925
1472088309589882,-0.0529785,0.142822,-0.46344,0.872925
1472088309611894,-0.0535889,0.142517,-0.463379,0.872986
1472088309632108,-0.0544434,0.142151,-0.463196,0.873047
1472088309650224,-0.0553589,0.141907,-0.463013,0.873169
1472088309672279,-0.0562134,0.141724,-0.462891,0.873169
1472088309692303,-0.0568848,0.141479,-0.462769,0.87323
1472088309709920,-0.057251,0.141174,-0.462769,0.873291
1472088309732692,-0.0574341,0.140991,-0.462769,0.873291
1472088309752400,-0.0574341,0.141052,-0.462769,0.873291
1472088309770001,-0.0574951,0.141052,-0.462769,0.873291
1472088309800101,-0.057373,0.14093,-0.462769,0.873291
1472088309813462,-0.057373,0.14093,-0.462769,0.873291
1472088309830152,-0.057373,0.14093,-0.462769,0.873291
1472088309852663,-0.057373,0.14093,-0.462769,0.873291
1472088309872203,-0.0571899,0.140808,-0.462891,0.873291
1472088309890363,-0.0569458,0.140564,-0.462952,0.873291
1472088309912562,-0.0570068,0.140625,-0.462952,0.873291
1472088309933471,-0.0569458,0.140625,-0.462952,0.873291
1472088309950208,-0.0569458,0.140564,-0.462952,0.873291
1472088309972830,-0.0569458,0.140564,-0.462952,0.873291
1472088309994359,-0.0569458,0.140564,-0.462952,0.873291
1472088310009984,-0.0569458,0.140564,-0.462952,0.873291
1472088310032632,-0.0569458,0.140564,-0.462952,0.873291
1472088310061171,-0.0570068,0.140564,-0.462952,0.873291
1472088310070181,-0.0569458,0.140564,-0.462952,0.873291
1472088310092723,-0.0570068,0.140564,-0.462952,0.873291
1472088310113600,-0.0570068,0.140625,-0.462952,0.873291
1472088310129687,-0.0570068,0.140625,-0.462952,0.873291
1472088310152250,-0.0570068,0.140625,-0.462952,0.873291
1472088310173625,-0.0570068,0.140625,-0.462952,0.873291
1472088310190112,-0.0568237,0.140808,-0.462952,0.873291
1472088310212758,-0.0567017,0.14093,-0.462891,0.873291
1472088310235012,-0.0567017,0.14093,-0.462891,0.873291
1472088310250026,-0.0567017,0.14093,-0.462891,0.873291
1472088310272642,-0.0567017,0.14093,-0.462891,0.873291
1472088310302347,-0.0567017,0.14093,-0.462891,0.873291
1472088310314701,-0.0567017,0.14093,-0.462891,0.873291
1472088310332742,-0.0567017,0.14093,-0.462891,0.873291
1472088310355034,-0.0567017,0.140991,-0.462891,0.873291
1472088310374689,-0.0567627,0.140991,-0.462891,0.873291
1472088310392692,-0.0567627,0.140991,-0.462891,0.873291
1472088310415399,-0.0567627,0.140991,-0.462891,0.873291
1472088310434560,-0.0567627,0.140991,-0.462891,0.873291
1472088310452486,-0.0567627,0.140991,-0.462891,0.873291
1472088310475110,-0.0567627,0.140991,-0.462891,0.873291
1472088310494679,-0.0567627,0.140991,-0.462891,0.873291
1472088310512679,-0.0567627,0.140991,-0.462891,0.873291
1472088310534745,-0.0567627,0.140991,-0.462891,0.873291
1472088310554764,-0.0567627,0.140991,-0.462891,0.873291
1472088310572346,-0.0567627,0.141052,-0.462891,0.873291
1472088310595415,-0.0567627,0.141052,-0.462891,0.873291
1472088310614890,-0.0567627,0.141052,-0.462891,0.873291
1472088310632480,-0.0567627,0.141052,-0.462891,0.873291
1472088310654795,-0.0568237,0.141052,-0.462891,0.87323
1472088310674428,-0.0568237,0.141052,-0.462891,0.87323
1472088310692715,-0.0568237,0.141052,-0.462891,0.87323
1472088310714817,-0.0568237,0.141052,-0.462891,0.87323
1472088310734491,-0.0568237,0.141052,-0.462891,0.87323
1472088310752404,-0.0568848,0.141052,-0.462891,0.87323
1472088310775077,-0.0568848,0.141052,-0.462891,0.87323
1472088310794606,-0.0568848,0.141052,-0.462891,0.87323
1472088310812561,-0.0568848,0.141052,-0.462891,0.87323
1472088310835056,-0.0569458,0.141113,-0.462891,0.87323
1472088310856044,-0.0569458,0.141113,-0.462891,0.87323
1472088310872663,-0.0569458,0.141113,-0.462891,0.87323
1472088310895224,-0.0569458,0.141052,-0.462891,0.87323
1472088310916002,-0.0568848,0.141052,-0.462891,0.87323
1472088310932434,-0.0568848,0.141113,-0.462891,0.87323
1472088310955168,-0.0569458,0.141113,-0.462891,0.87323
1472088310975708,-0.0569458,0.141113,-0.462891,0.87323
1472088310992224,-0.0569458,0.141113,-0.462891,0.87323
1472088311014811,-0.0571289,0.141113,-0.46283,0.87323
1472088311035454,-0.0571289,0.141113,-0.46283,0.87323
1472088311052610,-0.0571899,0.141174,-0.46283,0.87323
1472088311075749,-0.0571899,0.141174,-0.46283,0.87323
1472088311096242,-0.0571899,0.141174,-0.46283,0.87323
1472088311112751,-0.057251,0.141174,-0.46283,0.87323
1472088311134364,-0.057251,0.141174,-0.46283,0.87323
1472088311155420,-0.057251,0.141174,-0.46283,0.87323
1472088311170943,-0.057251,0.141235,-0.46283,0.87323
1472088311193965,-0.057251,0.141235,-0.46283,0.87323
1472088311216522,-0.057251,0.141235,-0.46283,0.87323
1472088311237543,-0.057312,0.141235,-0.46283,0.87323
1472088311254089,-0.057312,0.141235,-0.46283,0.87323
1472088311276688,-0.057312,0.141235,-0.46283,0.87323
1472088311297729,-0.057312,0.141235,-0.46283,0.87323
1472088311314409,-0.057312,0.141235,-0.46283,0.87323
1472088311336623,-0.057312,0.141235,-0.46283,0.87323
1472088311357878,-0.057312,0.141235,-0.46283,0.87323
1472088311374376,-0.057251,0.141235,-0.46283,0.87323
1472088311396660,-0.057251,0.141235,-0.46283,0.87323
1472088311418075,-0.057251,0.141235,-0.46283,0.87323
1472088311434076,-0.057251,0.141235,-0.46283,0.87323
1472088311456836,-0.057251,0.141235,-0.46283,0.87323
1472088311477933,-0.0571289,0.141296,-0.462769,0.873291
1472088311494492,-0.0570068,0.141296,-0.462769,0.873291
1472088311516633,-0.0570068,0.141296,-0.462769,0.873291
1472088311537663,-0.0570068,0.141296,-0.462769,0.873291
1472088311554428,-0.0570068,0.141296,-0.462769,0.873291
1472088311576540,-0.0570068,0.141296,-0.462769,0.873291
1472088311598105,-0.0570068,0.141296,-0.462769,0.873291
1472088311614157,-0.0569458,0.141296,-0.462769,0.873291
1472088311636644,-0.0569458,0.141296,-0.462769,0.873291
1472088311657894,-0.0570068,0.141296,-0.462769,0.873291
1472088311674422,-0.0570068,0.141296,-0.462769,0.873291
1472088311696562,-0.0570068,0.141235,-0.462769,0.873291
1472088311718197,-0.0570068,0.141296,-0.462769,0.873291
1472088311734244,-0.0570068,0.141296,-0.462769,0.873291
1472088311756802,-0.0570068,0.141296,-0.462769,0.873291
1472088311777909,-0.0570068,0.141296,-0.462769,0.873291
1472088311794369,-0.0570068,0.141296,-0.462769,0.873291
1472088311815992,-0.0570068,0.141296,-0.462769,0.873291
1472088311837618,-0.0570068,0.141235,-0.462769,0.873291
1472088311854149,-0.0570068,0.141235,-0.462769,0.873291
1472088311876450,-0.0570068,0.141235,-0.462769,0.873291
1472088311897474,-0.0570068,0.141296,-0.462769,0.873291
1472088311914128,-0.0570068,0.141296,-0.462769,0.873291
1472088311936840,-0.0570068,0.141296,-0.462769,0.873291
1472088311957862,-0.0570068,0.141296,-0.462769,0.873291
1472088311974309,-0.0570068,0.141296,-0.462769,0.873291
1472088311996947,-0.0570068,0.141296,-0.462769,0.873291
1472088312018044,-0.0570068,0.141357,-0.462769,0.873291
1472088312034111,-0.0570068,0.141357,-0.462769,0.873291
1472088312056715,-0.0570068,0.141357,-0.462769,0.873291
1472088312077955,-0.0570068,0.141357,-0.462769,0.873291
1472088312094439,-0.0570068,0.141357,-0.462769,0.873291
1472088312116737,-0.0570068,0.141357,-0.462769,0.873291
1472088312139151,-0.0569458,0.141296,-0.462769,0.873291
1472088312154349,-0.0569458,0.141296,-0.462769,0.873291
1472088312176597,-0.0568237,0.141174,-0.462769,0.873291
1472088312199195,-0.0568237,0.141174,-0.462769,0.873291
1472088312214277,-0.0568237,0.141174,-0.462769,0.873291
1472088312236822,-0.0568237,0.141174,-0.462769,0.873291
1472088312258958,-0.0568237,0.141174,-0.462769,0.873291
1472088312273085,-0.0568237,0.141235,-0.462769,0.873291
1472088312296526,-0.0568237,0.141174,-0.462769,0.873291
1472088312319174,-0.0568237,0.141174,-0.462769,0.873291
1472088312333751,-0.0567627,0.141174,-0.462769,0.873291
1472088312356855,-0.0568237,0.141235,-0.462769,0.873291
1472088312379397,-0.0568237,0.141235,-0.462769,0.873291
1472088312393388,-0.0568237,0.141174,-0.462769,0.873291
1472088312416657,-0.0568237,0.141235,-0.462769,0.873291
1472088312439012,-0.0568237,0.141235,-0.462769,0.873291
1472088312453557,-0.0568237,0.141235,-0.462769,0.873291
1472088312476657,-0.0568237,0.141174,-0.462769,0.873291
1472088312499259,-0.0568237,0.141174,-0.462769,0.873291
1472088312513593,-0.0568237,0.141174,-0.462769,0.873291
1472088312536773,-0.0568237,0.141174,-0.462769,0.873291
1472088312559367,-0.0568237,0.141174,-0.462769,0.873291
1472088312580433,-0.0568237,0.141174,-0.462769,0.873291
1472088312596947,-0.0568237,0.141174,-0.462769,0.873291
1472088312618557,-0.0568237,0.141174,-0.462769,0.873291
1472088312640157,-0.0568237,0.141174,-0.462769,0.873291
1472088312656750,-0.0568237,0.141174,-0.462769,0.873291
1472088312679067,-0.0568237,0.141174,-0.462769,0.873291
1472088312700100,-0.0568237,0.141174,-0.462769,0.873291
1472088312716669,-0.0568237,0.141174,-0.462769,0.873291
1472088312739436,-0.0567627,0.141174,-0.462769,0.873291
1472088312760427,-0.0567017,0.141174,-0.462769,0.873291
1472088312776738,-0.0561523,0.14032,-0.462769,0.873474
1472088312799295,-0.0585327,0.136353,-0.462341,0.874207
1472088312820351,-0.06604,0.129944,-0.460205,0.875732
1472088312836898,-0.0751343,0.125427,-0.45636,0.877686
1472088312859163,-0.0824585,0.121277,-0.452087,0.879822
1472088312880246,-0.0869751,0.115906,-0.448547,0.881897
1472088312896311,-0.0877075,0.109924,-0.445801,0.883972
1472088312926695,-0.085083,0.104614,-0.442993,0.886292
1472088312940300,-0.0801392,0.100342,-0.439514,0.888977
1472088312956852,-0.0731201,0.0961304,-0.435669,0.891968
1472088312979157,-0.0639038,0.0930176,-0.430908,0.895325
1472088313000285,-0.0536499,0.0911255,-0.425537,0.898743
1472088313015925,-0.041626,0.0900269,-0.419678,0.902222
1472088313039075,-0.0272217,0.0894165,-0.413147,0.905823
1472088313060481,-0.0108643,0.0889282,-0.405518,0.909668
1472088313075541,0.00830078,0.0882568,-0.39679,0.913574
1472088313099102,0.0298462,0.0866699,-0.387451,0.917297
1472088313121734,0.0526733,0.0862427,-0.377991,0.920288
1472088313136382,0.0769043,0.0878906,-0.369019,0.922058
1472088313159370,0.101563,0.0917969,-0.361023,0.922424
1472088313181981,0.126282,0.0974731,-0.354309,0.921387
1472088313195994,0.151794,0.105286,-0.349731,0.918457
1472088313219242,0.178406,0.115906,-0.347473,0.913208
1472088313241945,0.2052,0.129761,-0.347961,0.905518
1472088313256094,0.231567,0.147522,-0.350464,0.895386
1472088313279100,0.256226,0.168396,-0.354065,0.883484
1472088313302162,0.278687,0.191101,-0.358704,0.870117
1472088313316185,0.300232,0.215149,-0.364014,0.85498
1472088313339320,0.322388,0.239014,-0.369934,0.837891
1472088313361488,0.344482,0.262085,-0.376709,0.81897
1472088313383057,0.36499,0.284058,-0.384399,0.798889
1472088313399050,0.381714,0.303589,-0.392517,0.779724
1472088313421636,0.394531,0.322815,-0.400574,0.761353
1472088313442701,0.403137,0.340393,-0.407837,0.745117
1472088313459240,0.408081,0.356995,-0.414185,0.731018
1472088313481704,0.409851,0.36853,-0.4198,0.721069
1472088313502725,0.409302,0.379517,-0.424622,0.71283
1472088313519269,0.409607,0.393372,-0.428223,0.702881
1472088313542091,0.411316,0.40387,-0.429138,0.695313
1472088313563001,0.412842,0.414978,-0.429016,0.687927
1472088313579056,0.416748,0.424744,-0.427856,0.680237
1472088313601608,0.421265,0.434326,-0.426086,0.672485
1472088313622833,0.427368,0.443359,-0.423645,0.664246
1472088313639274,0.434875,0.451477,-0.420593,0.655762
1472088313661903,0.442688,0.45874,-0.417175,0.647705
1472088313682950,0.450134,0.465271,-0.413635,0.640137
1472088313699475,0.457458,0.470947,-0.410339,0.632874
1472088313721945,0.464783,0.475403,-0.407837,0.625732
1472088313742988,0.471619,0.479065,-0.406067,0.618958
1472088313759030,0.477905,0.482117,-0.404541,0.612793
1472088313781645,0.483032,0.484802,-0.403259,0.607361
1472088313802729,0.487549,0.487427,-0.401611,0.602844
1472088313819011,0.491211,0.48999,-0.400024,0.598755
1472088313841965,0.494202,0.492188,-0.399109,0.595093
1472088313863057,0.49707,0.493713,-0.398499,0.591858
1472088313879162,0.499939,0.49469,-0.397888,0.58905
1472088313901900,0.502197,0.495422,-0.397156,0.586975
1472088313923027,0.503723,0.496033,-0.395996,0.585938
1472088313938582,0.504822,0.496277,-0.394653,0.585693
1472088313961716,0.505981,0.495667,-0.393188,0.586243
1472088313983279,0.506836,0.494507,-0.391113,0.58783
1472088313998752,0.507568,0.492981,-0.388855,0.590027
1472088314021931,0.508301,0.491211,-0.386475,0.592346
1472088314044416,0.509949,0.488892,-0.384277,0.59436
1472088314058468,0.512146,0.485596,-0.382324,0.596375
1472088314082048,0.514587,0.481628,-0.379944,0.598999
1472088314104217,0.518311,0.476624,-0.377136,0.601563
1472088314118370,0.522766,0.470154,-0.375183,0.604004
1472088314141932,0.526184,0.461426,-0.373596,0.608765
1472088314164228,0.528381,0.450378,-0.37085,0.61676
1472088314185323,0.529785,0.437805,-0.367859,0.626282
1472088314201809,0.529785,0.423462,-0.364075,0.638245
1472088314223457,0.527344,0.406494,-0.359619,0.653625
1472088314238392,0.521851,0.387329,-0.354797,0.672058
1472088314261972,0.512939,0.366211,-0.349548,0.693176
1472088314284071,0.497742,0.343018,-0.345703,0.717651
1472088314304724,0.472534,0.316589,-0.343506,0.747253
1472088314321822,0.441101,0.287354,-0.335876,0.781006
1472088314344425,0.405518,0.255249,-0.32605,0.81488
1472088314365592,0.361938,0.221069,-0.320435,0.846985
1472088314381665,0.311707,0.189331,-0.31958,0.874512
1472088314404265,0.262512,0.160095,-0.323547,0.894836
1472088314425294,0.216248,0.131042,-0.329834,0.909546
1472088314441932,0.173401,0.100891,-0.341858,0.91803
1472088314464127,0.134277,0.0765381,-0.355347,0.921814
1472088314485226,0.102051,0.0604248,-0.370483,0.921204
1472088314501769,0.0750732,0.0481567,-0.388184,0.917236
1472088314524294,0.0483398,0.0363159,-0.40387,0.912781
1472088314545439,0.0245361,0.0290527,-0.4151,0.908997
1472088314562060,0.00396729,0.0256348,-0.424622,0.904968
1472088314584422,-0.00952148,0.0233765,-0.435059,0.900024
1472088314605449,-0.0123901,0.0154419,-0.443909,0.895874
1472088314621711,-0.0114746,0.00512695,-0.448364,0.893738
1472088314644375,-0.0101318,-0.00219727,-0.450012,0.892944
1472088314665448,-0.0136108,-0.00622559,-0.450073,0.892883
1472088314681874,-0.0206299,-0.00744629,-0.450378,0.892578
1472088314704471,-0.0252686,-0.00952148,-0.451599,0.891785
1472088314725275,-0.0250244,-0.0133667,-0.452576,0.891235
1472088314741796,-0.0228271,-0.0163574,-0.453186,0.890991
1472088314764380,-0.0219116,-0.0176392,-0.453674,0.890747
1472088314786542,-0.0229492,-0.0185547,-0.453918,0.890564
1472088314802056,-0.0238037,-0.0200195,-0.452881,0.890991
1472088314825251,-0.0241699,-0.0228882,-0.450378,0.892212
1472088314845172,-0.0249023,-0.026123,-0.446838,0.89386
1472088314861695,-0.026062,-0.0307617,-0.443054,0.895569
1472088314884357,-0.022522,-0.0316162,-0.443542,0.895386
1472088314905528,-0.0078125,-0.0310059,-0.444031,0.895447
1472088314921153,-0.000793457,-0.0305786,-0.442383,0.896301
1472088314944255,-0.00195313,-0.0274048,-0.442749,0.896179
1472088314965386,-0.00854492,-0.0213013,-0.442017,0.896667
1472088314981229,-0.00897217,-0.0183716,-0.441406,0.897034
1472088315004250,-0.00390625,-0.0180664,-0.441833,0.896912
1472088315026859,-0.000915527,-0.0181885,-0.442261,0.896667
1472088315040928,-0.000427246,-0.0176392,-0.442871,0.896362
1472088315064024,-0.000793457,-0.0164185,-0.442871,0.896423
1472088315087011,-0.000854492,-0.0146484,-0.442871,0.896423
1472088315101129,-0.000305176,-0.0126343,-0.442932,0.896423
1472088315124317,0.0012207,-0.0111084,-0.443176,0.896362
1472088315146843,0.00335693,-0.00994873,-0.443665,0.896118
1472088315160841,0.00500488,-0.00878906,-0.443726,0.896057
1472088315184390,0.00531006,-0.00732422,-0.443604,0.896179
1472088315206930,0.00482178,-0.00561523,-0.443359,0.896301
1472088315220939,0.0043335,-0.00427246,-0.443237,0.896362
1472088315244279,0.00427246,-0.00372314,-0.443237,0.896362
1472088315266721,0.00463867,-0.00360107,-0.443481,0.89624
1472088315280302,0.00488281,-0.00341797,-0.443481,0.89624
1472088315304136,0.00500488,-0.00292969,-0.443359,0.896301
1472088315334319,0.00476074,-0.0020752,-0.443359,0.896301
1472088315341326,0.0043335,-0.00109863,-0.443481,0.89624
1472088315364047,0.00378418,-0.00012207,-0.443726,0.896179
1472088315387081,0.0032959,0.000671387,-0.44397,0.895996
1472088315401094,0.00274658,0.00140381,-0.444397,0.895813
1472088315424227,0.00244141,0.00213623,-0.444763,0.89563
1472088315446911,0.00231934,0.00280762,-0.445129,0.895447
1472088315468026,0.00201416,0.00360107,-0.445435,0.895264
1472088315484515,0.00146484,0.00439453,-0.445923,0.895081
1472088315507049,0.000549316,0.00512695,-0.44635,0.894836
1472088315527766,-0.000610352,0.00585938,-0.446777,0.894592
1472088315544264,-0.00183105,0.00653076,-0.447266,0.894348
1472088315566625,-0.00268555,0.00701904,-0.447693,0.894104
1472088315587761,-0.00341797,0.00750732,-0.448181,0.89386
1472088315604268,-0.00402832,0.00787354,-0.448608,0.893677
1472088315627039,-0.0045166,0.00823975,-0.449097,0.893433
1472088315648229,-0.00518799,0.00872803,-0.449585,0.893188
1472088315664218,-0.00585938,0.00921631,-0.450012,0.892944
1472088315686685,-0.0067749,0.00958252,-0.4505,0.8927
1472088315708273,-0.00756836,0.00982666,-0.450989,0.892456
1472088315724435,-0.00836182,0.010376,-0.451416,0.892212
1472088315747009,-0.00909424,0.0111084,-0.451904,0.891907
1472088315767944,-0.00994873,0.0117798,-0.452454,0.891602
1472088315784553,-0.010498,0.0123291,-0.453003,0.891357
1472088315806575,-0.0108032,0.0128784,-0.453491,0.891052
1472088315828144,-0.0109863,0.0134277,-0.453979,0.890808
1472088315844357,-0.0112305,0.0140381,-0.454407,0.890564
1472088315867042,-0.0118408,0.0147095,-0.454834,0.890381
1472088315888119,-0.0127563,0.015686,-0.455322,0.890076
1472088315904208,-0.0136108,0.0164795,-0.45575,0.889832
1472088315926813,-0.0142822,0.0172119,-0.456177,0.889587
1472088315949032,-0.0149536,0.0178833,-0.456421,0.889404
1472088315963733,-0.0154419,0.0186157,-0.456604,0.889343
1472088315986798,-0.0155029,0.0196533,-0.456604,0.889343
1472088316009415,-0.015625,0.020752,-0.456604,0.889282
1472088316024027,-0.0162964,0.0217285,-0.456787,0.88916
1472088316046623,-0.0168457,0.0224609,-0.457153,0.888916
1472088316069257,-0.0165405,0.0230713,-0.457703,0.888672
1472088316082839,-0.015564,0.0238647,-0.458374,0.888306
1472088316106910,-0.015625,0.0250854,-0.459106,0.887878
1472088316129152,-0.0161743,0.0259399,-0.459595,0.887573
1472088316143685,-0.0164185,0.0263062,-0.4599,0.88739
1472088316166682,-0.0163574,0.0261841,-0.460144,0.887268
1472088316189252,-0.0163574,0.0259399,-0.460205,0.887268
1472088316203765,-0.0164795,0.0256958,-0.460205,0.887268
1472088316227054,-0.0164185,0.0253906,-0.460144,0.887329
1472088316249235,-0.0164795,0.0251465,-0.459961,0.88739
1472088316263759,-0.0163574,0.0248413,-0.459839,0.887512
1472088316286903,-0.0162964,0.0245361,-0.459778,0.887512
1472088316309397,-0.0159302,0.0244141,-0.459656,0.887573
1472088316331866,-0.015686,0.0245361,-0.459534,0.887695
1472088316346873,-0.015625,0.0247803,-0.459534,0.887634
1472088316369388,-0.015686,0.0249634,-0.459656,0.887573
1472088316383547,-0.0155029,0.0252686,-0.459839,0.887512
1472088316407025,-0.0154419,0.0255737,-0.4599,0.887451
1472088316429330,-0.015564,0.0256958,-0.460022,0.88739
1472088316450523,-0.015564,0.0256958,-0.460022,0.88739
1472088316466665,-0.015625,0.0256958,-0.460022,0.88739
1472088316489581,-0.015686,0.0257568,-0.460022,0.88739
1472088316512128,-0.015686,0.0257568,-0.460022,0.88739
1472088316526662,-0.0157471,0.0257568,-0.460022,0.88739
1472088316549285,-0.0157471,0.0257568,-0.460022,0.88739
1472088316570385,-0.015686,0.0259399,-0.460266,0.887268
1472088316587032,-0.0159302,0.0261841,-0.46051,0.887085
1472088316609223,-0.0162354,0.0263672,-0.460693,0.887024
1472088316631369,-0.0162354,0.0263672,-0.460693,0.887024
1472088316647105,-0.0161743,0.0263672,-0.460693,0.887024
1472088316669295,-0.0162354,0.0263672,-0.460693,0.887024
1472088316690415,-0.0161743,0.0263062,-0.460693,0.887024
1472088316712454,-0.0162354,0.0263062,-0.460693,0.887024
1472088316728949,-0.0161133,0.0263672,-0.460693,0.887024
1472088316750607,-0.0158081,0.0261841,-0.460876,0.886902
1472088316766708,-0.015564,0.026001,-0.46106,0.886841
1472088316789283,-0.015564,0.026001,-0.46106,0.886841
1472088316810678,-0.0158691,0.026062,-0.460999,0.886841
1472088316826839,-0.0158691,0.026062,-0.460999,0.886841
1472088316849381,-0.0158691,0.026001,-0.460999,0.886841
1472088316870495,-0.0158691,0.026001,-0.460999,0.886841
1472088316887049,-0.015686,0.026123,-0.460754,0.886963
1472088316909070,-0.0157471,0.0268555,-0.460205,0.887268
1472088316931946,-0.0158691,0.027771,-0.459717,0.887512
1472088316946523,-0.0160522,0.0284424,-0.45929,0.887634
1472088316969111,-0.0150757,0.0281372,-0.459167,0.887756
1472088316991656,-0.0141602,0.027771,-0.459106,0.887817
1472088317006649,-0.0134888,0.027771,-0.459106,0.887817
1472088317029255,-0.0136719,0.0283813,-0.458679,0.888
1472088317051929,-0.0142212,0.0286865,-0.458374,0.888184
1472088317066477,-0.0135498,0.0289307,-0.458252,0.888245
1472088317089604,-0.0124512,0.0285645,-0.458313,0.888245
