timestamp,roll,pitch,yaw
1470345119091311,-0.46961,-0.0739099,-0.961105
1470345119114332,-0.469728,-0.0739659,-0.96111
1470345119135351,-0.470123,-0.0737993,-0.961333
1470345119151365,-0.470908,-0.073705,-0.961571
1470345119173886,-0.471523,-0.0735958,-0.961501
1470345119195906,-0.4717,-0.0735467,-0.961537
1470345119211419,-0.4717,-0.0735467,-0.961537
1470345119233940,-0.471818,-0.0736027,-0.961543
1470345119254687,-0.47181,-0.0735753,-0.961391
1470345119271699,-0.47181,-0.0735753,-0.961391
1470345119293719,-0.47181,-0.0735753,-0.961391
1470345119322744,-0.4717,-0.0735467,-0.961537
1470345119331257,-0.47114,-0.0731938,-0.961271
1470345119353283,-0.470308,-0.0725589,-0.961052
1470345119376304,-0.469918,-0.0722209,-0.961093
1470345119391317,-0.470036,-0.0722768,-0.961099
1470345119413337,-0.4706,-0.0720339,-0.961207
1470345119436365,-0.470718,-0.0720898,-0.961212
1470345119451384,-0.470803,-0.0719532,-0.961514
1470345119473402,-0.470803,-0.0719532,-0.961514
1470345119496425,-0.470803,-0.0719532,-0.961514
1470345119510437,-0.471413,-0.0721739,-0.961659
1470345119533963,-0.471589,-0.0721248,-0.961696
1470345119556487,-0.471246,-0.0725161,-0.961718
1470345119570498,-0.471021,-0.0729633,-0.961746
1470345119593519,-0.471021,-0.0729633,-0.961746
1470345119616540,-0.470852,-0.0729483,-0.961438
1470345119631058,-0.470529,-0.0727073,-0.961182
1470345119653585,-0.469825,-0.0724216,-0.961064
1470345119676607,-0.469462,-0.0722267,-0.960896
1470345119690619,-0.469581,-0.0722826,-0.960901
1470345119713641,-0.469581,-0.0722826,-0.960901
1470345119736670,-0.469581,-0.0722826,-0.960901
1470345119750689,-0.469581,-0.0722826,-0.960901
1470345119773709,-0.469699,-0.0723385,-0.960906
1470345119796731,-0.469699,-0.0723385,-0.960906
1470345119810743,-0.47014,-0.0726352,-0.961167
1470345119841274,-0.470413,-0.0730085,-0.961544
1470345119856788,-0.47089,-0.0734757,-0.961747
1470345119877807,-0.47089,-0.0734757,-0.961747
1470345119893822,-0.47089,-0.0734757,-0.961747
1470345119916341,-0.47089,-0.0734757,-0.961747
1470345119937361,-0.470948,-0.0733707,-0.961778
1470345119953875,-0.470517,-0.0733669,-0.961612
1470345119975900,-0.470282,-0.0735209,-0.961545
1470345119996921,-0.4704,-0.0735769,-0.961551
1470345120013935,-0.4704,-0.0735769,-0.961551
1470345120035956,-0.470519,-0.0736328,-0.961556
1470345120057479,-0.470519,-0.0736328,-0.961556
1470345120073994,-0.470613,-0.073698,-0.961529
1470345120096515,-0.470731,-0.073754,-0.961535
1470345120116999,-0.470731,-0.073754,-0.961535
1470345120134014,-0.470731,-0.073754,-0.961535
1470345120156033,-0.470731,-0.073754,-0.961535
1470345120177054,-0.470849,-0.0738099,-0.96154
1470345120194076,-0.470849,-0.0738099,-0.96154
1470345120216098,-0.470849,-0.0738099,-0.96154
1470345120237119,-0.470518,-0.0735416,-0.961133
1470345120254133,-0.46991,-0.073587,-0.960931
1470345120276152,-0.469582,-0.073676,-0.960891
1470345120297693,-0.4697,-0.0737319,-0.960896
1470345120314078,-0.4697,-0.0737319,-0.960896
1470345120336103,-0.469818,-0.0737878,-0.960901
1470345120359119,-0.469818,-0.0737878,-0.960901
1470345120380190,-0.470317,-0.0738884,-0.96077
1470345120396657,-0.470317,-0.0738884,-0.96077
1470345120419269,-0.470153,-0.0733691,-0.960726
1470345120433283,-0.470153,-0.0733691,-0.960726
1470345120456302,-0.471777,-0.0738454,-0.960912
1470345120478321,-0.472361,-0.0740059,-0.960364
1470345120493347,-0.471847,-0.0741166,-0.960135
1470345120516369,-0.470924,-0.0728211,-0.959784
1470345120538388,-0.469676,-0.0709287,-0.958812
1470345120553402,-0.469647,-0.0696514,-0.957651
1470345120576422,-0.469117,-0.0689609,-0.957203
1470345120598962,-0.469105,-0.068402,-0.957165
1470345120613479,-0.470015,-0.0682977,-0.957139
1470345120636498,-0.471137,-0.0683142,-0.957092
1470345120658517,-0.472613,-0.0682317,-0.957119
1470345120673532,-0.473721,-0.0682851,-0.957193
1470345120696591,-0.474571,-0.0678462,-0.957675
1470345120718616,-0.475742,-0.0672912,-0.958048
1470345120733629,-0.477753,-0.0670408,-0.95843
1470345120762658,-0.480079,-0.0678674,-0.959015
1470345120778670,-0.480082,-0.0683984,-0.958898
1470345120793231,-0.478194,-0.0681997,-0.958788
1470345120822775,-0.476987,-0.0682969,-0.958768
1470345120838787,-0.476847,-0.0679415,-0.958279
1470345120859809,-0.476418,-0.0673417,-0.957956
1470345120875822,-0.475576,-0.0665065,-0.958065
1470345120899350,-0.474897,-0.0659247,-0.958272
1470345120919578,-0.474955,-0.0658196,-0.958304
1470345120936580,-0.475607,-0.0657062,-0.958661
1470345120958598,-0.476284,-0.0655833,-0.959049
1470345120964602,-0.476843,-0.0656705,-0.959375
1470345120987145,-0.476785,-0.0657755,-0.959343
1470345121001176,-0.476726,-0.0658805,-0.959311
1470345121024224,-0.477153,-0.066215,-0.959692
1470345121046215,-0.477433,-0.0662588,-0.959855
1470345121062231,-0.478001,-0.0665472,-0.959851
1470345121084258,-0.477544,-0.0667259,-0.95917
1470345121106963,-0.476171,-0.0665901,-0.958812
1470345121121887,-0.475171,-0.0662982,-0.958648
1470345121143907,-0.475171,-0.0662982,-0.958648
1470345121167005,-0.475576,-0.0665065,-0.958065
1470345121181940,-0.475552,-0.0665163,-0.958033
1470345121204514,-0.47567,-0.0665719,-0.958039
1470345121226571,-0.4767,-0.0665236,-0.958022
1470345121241571,-0.477693,-0.0670535,-0.957976
1470345121264583,-0.477812,-0.0671091,-0.957982
1470345121287104,-0.47724,-0.0674172,-0.958141
1470345121302156,-0.477799,-0.0675044,-0.958466
1470345121324176,-0.479028,-0.0677073,-0.95897
1470345121347195,-0.480367,-0.067939,-0.959329
1470345121362212,-0.480367,-0.067939,-0.959329
1470345121384255,-0.480367,-0.067939,-0.959329
1470345121406518,-0.480367,-0.067939,-0.959329
1470345121421497,-0.480367,-0.067939,-0.959329
1470345121444559,-0.47957,-0.0677398,-0.958992
1470345121466558,-0.478681,-0.0677409,-0.958624
1470345121481592,-0.477962,-0.0677579,-0.958564
1470345121504713,-0.478021,-0.067653,-0.958596
1470345121526726,-0.479191,-0.068134,-0.958588
1470345121542738,-0.479979,-0.0683053,-0.958773
1470345121563756,-0.479979,-0.0683053,-0.958773
1470345121587416,-0.480098,-0.0683609,-0.958779
1470345121601853,-0.480074,-0.0683708,-0.958747
1470345121624058,-0.480192,-0.0684264,-0.958753
1470345121647076,-0.480026,-0.0687689,-0.958808
1470345121662103,-0.479065,-0.0692706,-0.958892
1470345121684165,-0.479074,-0.0692982,-0.959044
1470345121707065,-0.479406,-0.0696479,-0.958548
1470345121722072,-0.479188,-0.0700303,-0.958301
1470345121747068,-0.478031,-0.0702815,-0.957866
1470345121767086,-0.477025,-0.0704012,-0.957014
1470345121782102,-0.476476,-0.0705155,-0.956362
1470345121804281,-0.476446,-0.0710501,-0.955825
1470345121827307,-0.477235,-0.0713934,-0.955529
1470345121842256,-0.478389,-0.0719308,-0.9554
1470345121864366,-0.478423,-0.0718353,-0.9554
1470345121886888,-0.478542,-0.0718909,-0.955405
1470345121903420,-0.47866,-0.0719464,-0.955411
1470345121924497,-0.479219,-0.0719404,-0.955312
1470345121946459,-0.480126,-0.072166,-0.955501
1470345121963475,-0.48045,-0.0724075,-0.955757
1470345121984505,-0.480425,-0.072417,-0.955725
1470345122006571,-0.48045,-0.0724075,-0.955757
1470345122023581,-0.480331,-0.0723519,-0.955751
1470345122044600,-0.47962,-0.0723049,-0.955422
1470345122066652,-0.478654,-0.0720917,-0.95478
1470345122082635,-0.477663,-0.0720022,-0.95429
1470345122103855,-0.476908,-0.0717586,-0.953868
1470345122126828,-0.477355,-0.0716319,-0.953494
1470345122142840,-0.478129,-0.0705746,-0.952826
1470345122163852,-0.47784,-0.0698367,-0.951699
1470345122186873,-0.476382,-0.0694634,-0.950917
1470345122204575,-0.475285,-0.0696145,-0.950515
1470345122224592,-0.475057,-0.0703012,-0.950333
1470345122246636,-0.474763,-0.0711575,-0.950389
1470345122264630,-0.474465,-0.072344,-0.950659
1470345122284651,-0.474286,-0.0735858,-0.950936
1470345122306327,-0.474059,-0.0743644,-0.951176
1470345122325283,-0.474059,-0.0743644,-0.951176
1470345122344355,-0.473456,-0.0741742,-0.951183
1470345122367317,-0.472945,-0.0736912,-0.950798
1470345122384332,-0.47251,-0.0734238,-0.950689
1470345122405128,-0.472502,-0.0733964,-0.950538
1470345122427186,-0.472502,-0.0733964,-0.950538
1470345122445171,-0.473301,-0.0737655,-0.950392
1470345122464197,-0.473705,-0.0743029,-0.950023
1470345122487201,-0.473869,-0.0744637,-0.949701
1470345122504871,-0.473988,-0.074519,-0.949706
1470345122523929,-0.473938,-0.0746519,-0.949826
1470345122546950,-0.474057,-0.0747072,-0.949832
1470345122564952,-0.474176,-0.0747625,-0.949837
1470345122583930,-0.474426,-0.0751441,-0.950179
1470345122606508,-0.474368,-0.0752493,-0.950148
1470345122624490,-0.474368,-0.0752493,-0.950148
1470345122644510,-0.474114,-0.075106,-0.949598
1470345122666527,-0.473236,-0.0750484,-0.948966
1470345122684544,-0.472363,-0.0751657,-0.947857
1470345122705603,-0.471732,-0.0756603,-0.946704
1470345122726622,-0.471605,-0.0761053,-0.946048
1470345122744639,-0.47241,-0.0766472,-0.945424
1470345122764656,-0.474008,-0.0775279,-0.944503
1470345122786677,-0.476069,-0.0785718,-0.943301
1470345122804712,-0.477414,-0.079637,-0.942044
1470345122825730,-0.477875,-0.0808032,-0.94085
1470345122846749,-0.477172,-0.0820079,-0.939793
1470345122864766,-0.476601,-0.0829656,-0.938681
1470345122885784,-0.476734,-0.083959,-0.937506
1470345122906866,-0.476766,-0.0856717,-0.936394
1470345122924911,-0.476148,-0.0873331,-0.935414
1470345122945901,-0.47453,-0.088954,-0.934078
1470345122966978,-0.472416,-0.090154,-0.932668
1470345122985002,-0.470662,-0.0909269,-0.931502
1470345123006090,-0.469481,-0.091506,-0.930739
1470345123027165,-0.469399,-0.0918566,-0.930088
1470345123045127,-0.470373,-0.0921393,-0.929821
1470345123066146,-0.471691,-0.0928597,-0.929481
1470345123087163,-0.472896,-0.0935533,-0.929288
1470345123104901,-0.474039,-0.0943244,-0.928914
1470345123125929,-0.474012,-0.0948983,-0.928507
1470345123146978,-0.473457,-0.0948199,-0.928193
1470345123164958,-0.473983,-0.094783,-0.927521
1470345123186974,-0.474134,-0.0949751,-0.926934
1470345123207032,-0.474157,-0.0948464,-0.926397
1470345123225038,-0.474523,-0.095155,-0.925787
1470345123248057,-0.474909,-0.0959957,-0.925068
1470345123267074,-0.47495,-0.0963994,-0.924423
1470345123285088,-0.47544,-0.096431,-0.923604
1470345123307121,-0.475241,-0.0961574,-0.92294
1470345123326153,-0.475052,-0.0961502,-0.922223
1470345123344155,-0.475878,-0.0963516,-0.921386
1470345123367176,-0.476678,-0.0968883,-0.920347
1470345123387196,-0.47697,-0.0962004,-0.919809
1470345123405093,-0.47617,-0.0961087,-0.919905
1470345123427111,-0.476427,-0.0956146,-0.92017
1470345123447132,-0.476178,-0.094008,-0.919398
1470345123464146,-0.476758,-0.0922807,-0.919683
1470345123486167,-0.477991,-0.0921603,-0.920485
1470345123507248,-0.477243,-0.0920555,-0.921027
1470345123523279,-0.477224,-0.0906242,-0.920916
1470345123546280,-0.477888,-0.0894685,-0.920503
1470345123567328,-0.478394,-0.0891113,-0.920931
1470345123583314,-0.477578,-0.0881567,-0.920922
1470345123606387,-0.476437,-0.086399,-0.920657
1470345123627406,-0.476203,-0.0846141,-0.920777
1470345123643469,-0.476412,-0.0838033,-0.920386
1470345123666441,-0.476998,-0.0831177,-0.919894
1470345123687511,-0.476553,-0.0828293,-0.919638
1470345123703979,-0.476348,-0.0826486,-0.919394
1470345123726156,-0.47652,-0.0821453,-0.918651
1470345123747177,-0.476993,-0.0814335,-0.918305
1470345123764189,-0.477932,-0.0809768,-0.918479
1470345123786211,-0.478622,-0.081046,-0.918916
1470345123807841,-0.479492,-0.0807566,-0.918945
1470345123823835,-0.47954,-0.0806224,-0.918826
1470345123846831,-0.47954,-0.0806224,-0.918826
1470345123867854,-0.479579,-0.0805531,-0.918974
1470345123883869,-0.479571,-0.0799566,-0.91882
1470345123906621,-0.47894,-0.0786486,-0.918787
1470345123927640,-0.478318,-0.0776065,-0.918697
1470345123943654,-0.478357,-0.0766383,-0.91863
1470345123966675,-0.478238,-0.0760163,-0.918621
1470345123987693,-0.478676,-0.0757083,-0.918723
1470345124004214,-0.479856,-0.0755972,-0.918707
1470345124026112,-0.479856,-0.0755972,-0.918707
1470345124048139,-0.479913,-0.0749229,-0.918734
1470345124064112,-0.480119,-0.0745358,-0.918976
1470345124086133,-0.480613,-0.074122,-0.919111
1470345124108326,-0.481276,-0.073628,-0.919133
1470345124124322,-0.481593,-0.07336,-0.919647
1470345124146312,-0.481752,-0.0731073,-0.920008
1470345124169331,-0.481849,-0.0723641,-0.920186
1470345124183425,-0.481627,-0.0714137,-0.920263
1470345124206401,-0.481029,-0.0703393,-0.92044
1470345124228462,-0.48021,-0.0691205,-0.920489
1470345124243448,-0.479631,-0.0677713,-0.920757
1470345124266453,-0.479452,-0.066514,-0.92119
1470345124288472,-0.479479,-0.0656762,-0.921662
1470345124303492,-0.480135,-0.0652481,-0.921954
1470345124326571,-0.480688,-0.0647293,-0.922125
1470345124348589,-0.481342,-0.0645394,-0.922211
1470345124371611,-0.481911,-0.0643141,-0.922473
1470345124386646,-0.48278,-0.0642414,-0.922539
1470345124408664,-0.483796,-0.0639753,-0.922852
1470345124422677,-0.484246,-0.0636969,-0.923109
1470345124446697,-0.484246,-0.0636969,-0.923109
1470345124468716,-0.483393,-0.0634729,-0.923368
1470345124482747,-0.481679,-0.0632345,-0.923527
1470345124506368,-0.479878,-0.0629601,-0.923864
1470345124528461,-0.478127,-0.0625518,-0.924083
1470345124543386,-0.47625,-0.0621539,-0.924565
1470345124566450,-0.474486,-0.0618733,-0.92532
1470345124595071,-0.4732,-0.0617841,-0.926332
1470345124609736,-0.472791,-0.0616724,-0.927325
1470345124626751,-0.472923,-0.0615836,-0.92834
1470345124648794,-0.473167,-0.0615218,-0.92921
1470345124669835,-0.473029,-0.0614215,-0.930215
1470345124686813,-0.47267,-0.0611759,-0.931091
1470345124710442,-0.472768,-0.0614222,-0.9319
1470345124730400,-0.473255,-0.061735,-0.932725
1470345124746387,-0.473381,-0.0621239,-0.933327
1470345124768410,-0.472913,-0.0623552,-0.934083
1470345124790428,-0.472161,-0.0622806,-0.934736
1470345124814093,-0.470818,-0.0622223,-0.935068
1470345124829108,-0.469344,-0.0618163,-0.935302
1470345124850158,-0.468202,-0.0615827,-0.935522
1470345124866186,-0.467291,-0.0615211,-0.936021
1470345124889184,-0.467292,-0.0616113,-0.93644
1470345124910383,-0.466988,-0.0620006,-0.936877
1470345124926398,-0.466826,-0.0624348,-0.937353
1470345124948424,-0.467037,-0.0628826,-0.937544
1470345124969503,-0.46719,-0.063436,-0.937704
1470345124987453,-0.467145,-0.0638346,-0.937766
1470345125009045,-0.467351,-0.0645213,-0.93775
1470345125030064,-0.467807,-0.0651053,-0.938103
1470345125046079,-0.468346,-0.065551,-0.938754
1470345125069099,-0.468736,-0.0657092,-0.939189
1470345125091685,-0.46877,-0.0657036,-0.939607
1470345125106698,-0.467907,-0.0655076,-0.939989
1470345125129132,-0.466859,-0.0648539,-0.940213
1470345125151201,-0.466159,-0.0642235,-0.940118
1470345125166166,-0.465762,-0.0636238,-0.940215
1470345125189187,-0.465762,-0.0636238,-0.940215
1470345125211305,-0.465881,-0.0636784,-0.940221
1470345125226270,-0.466541,-0.0638496,-0.940666
1470345125249292,-0.467671,-0.0638837,-0.94077
1470345125271356,-0.469419,-0.0640683,-0.940752
1470345125285338,-0.470423,-0.0629208,-0.940811
1470345125308460,-0.471752,-0.0626066,-0.941281
1470345125331471,-0.47434,-0.0623187,-0.941597
1470345125345518,-0.474562,-0.0608523,-0.940791
1470345125368500,-0.475524,-0.0601955,-0.941338
1470345125392026,-0.476255,-0.0598693,-0.941339
1470345125407073,-0.476152,-0.0593555,-0.940586
1470345125429195,-0.475611,-0.058311,-0.939782
1470345125451214,-0.474837,-0.0575151,-0.939326
1470345125466229,-0.474941,-0.0571853,-0.938822
1470345125489250,-0.474965,-0.0567538,-0.938225
1470345125510958,-0.474425,-0.0558019,-0.937841
1470345125525973,-0.474093,-0.0550333,-0.937704
1470345125548991,-0.47404,-0.0544793,-0.937252
1470345125571012,-0.47378,-0.053568,-0.93703
1470345125592621,-0.473149,-0.052531,-0.936908
1470345125608813,-0.472686,-0.0518364,-0.937301
1470345125631791,-0.472731,-0.0514382,-0.937242
1470345125653841,-0.472907,-0.0513869,-0.93728
1470345125668827,-0.472835,-0.051355,-0.937843
1470345125691846,-0.472555,-0.0517353,-0.938308
1470345125712376,-0.471707,-0.0514131,-0.938148
1470345125728473,-0.470709,-0.0508028,-0.937772
1470345125751411,-0.470051,-0.0503927,-0.937532
1470345125772523,-0.469668,-0.0502616,-0.937246
1470345125788444,-0.469163,-0.0498107,-0.937012
1470345125811218,-0.468597,-0.0491998,-0.936804
1470345125832292,-0.468655,-0.0490941,-0.936836
1470345125849255,-0.468937,-0.0488046,-0.936789
1470345125871313,-0.469335,-0.0483036,-0.936806
1470345125892820,-0.469375,-0.0479691,-0.937015
1470345125908368,-0.469432,-0.0478634,-0.937048
1470345125931688,-0.469542,-0.047891,-0.936904
1470345125953727,-0.469381,-0.0477301,-0.937224
1470345125968741,-0.469018,-0.04796,-0.937683
1470345125991739,-0.46857,-0.0481517,-0.938319
1470345126013805,-0.467264,-0.0481706,-0.938167
1470345126028810,-0.466003,-0.0479035,-0.938139
1470345126051832,-0.465034,-0.0480329,-0.937706
1470345126073852,-0.464103,-0.0481161,-0.937188
1470345126088866,-0.463259,-0.0482379,-0.936495
1470345126111919,-0.462784,-0.0483096,-0.936177
1470345126133940,-0.463133,-0.048712,-0.935988
1470345126147952,-0.463401,-0.0492302,-0.935734
1470345126170972,-0.463286,-0.0494418,-0.93567
1470345126194088,-0.46318,-0.0496798,-0.935757
1470345126208157,-0.463298,-0.0497341,-0.935763
1470345126231186,-0.463296,-0.0500627,-0.935973
1470345126254147,-0.463497,-0.0503068,-0.936489
1470345126268199,-0.463474,-0.0507347,-0.937086
1470345126291180,-0.462916,-0.0508971,-0.937868
1470345126314265,-0.462337,-0.0507405,-0.938408
1470345126328278,-0.461471,-0.0505179,-0.938636
1470345126351342,-0.460513,-0.0504967,-0.938833
1470345126374320,-0.459753,-0.0505917,-0.938623
1470345126388333,-0.459086,-0.0504851,-0.938445
1470345126411017,-0.458465,-0.0505749,-0.93836
1470345126434036,-0.458747,-0.05088,-0.938464
1470345126448052,-0.459244,-0.05157,-0.938491
1470345126471085,-0.459624,-0.052028,-0.938988
1470345126494090,-0.460691,-0.0524946,-0.939276
1470345126514738,-0.461701,-0.0524728,-0.939378
1470345126531690,-0.461701,-0.0524728,-0.939378
1470345126553708,-0.461701,-0.0524728,-0.939378
1470345126574784,-0.461701,-0.0524728,-0.939378
1470345126591742,-0.461192,-0.0520847,-0.939413
1470345126613601,-0.460449,-0.0518536,-0.939378
1470345126634612,-0.459555,-0.051664,-0.939339
1470345126651627,-0.457823,-0.051357,-0.938817
1470345126673696,-0.456455,-0.0506462,-0.938307
1470345126702722,-0.455444,-0.0498088,-0.938107
1470345126711736,-0.454834,-0.049597,-0.937961
1470345126733777,-0.454438,-0.0489101,-0.937639
1470345126754793,-0.454432,-0.0483778,-0.937752
1470345126771789,-0.455042,-0.0484109,-0.938374
1470345126794313,-0.455206,-0.0484828,-0.938948
1470345126814932,-0.454977,-0.0481336,-0.939144
1470345126830918,-0.455034,-0.0480278,-0.939175
1470345126853954,-0.455873,-0.0479951,-0.938971
1470345126874974,-0.459778,-0.0484824,-0.93965
1470345126890945,-0.46345,-0.0494584,-0.940474
1470345126914032,-0.463447,-0.0507995,-0.941468
1470345126935050,-0.460973,-0.0515356,-0.941635
1470345126951062,-0.460798,-0.0515866,-0.941598
1470345126974085,-0.461578,-0.0507998,-0.941266
1470345126996613,-0.462059,-0.0500324,-0.940656
1470345127011142,-0.461835,-0.0492038,-0.939953
1470345127034164,-0.461058,-0.0484739,-0.939765
1470345127056183,-0.460098,-0.0481862,-0.940019
1470345127071195,-0.460148,-0.0484711,-0.94053
1470345127094218,-0.461163,-0.0489818,-0.940519
1470345127116765,-0.462446,-0.0492399,-0.940577
1470345127130779,-0.463246,-0.0493656,-0.940644
1470345127153797,-0.463223,-0.0493757,-0.940612
1470345127176823,-0.463223,-0.0493757,-0.940612
1470345127190867,-0.46318,-0.0492682,-0.940939
1470345127213983,-0.462888,-0.049088,-0.941372
1470345127236001,-0.463593,-0.0491895,-0.94197
1470345127251016,-0.464869,-0.0492459,-0.942356
1470345127274035,-0.465376,-0.0493688,-0.94238
1470345127296617,-0.465231,-0.0496125,-0.942047
1470345127310156,-0.464161,-0.049915,-0.941433
1470345127334322,-0.462324,-0.0501084,-0.940936
1470345127356342,-0.460718,-0.0504744,-0.940721
1470345127370354,-0.460154,-0.0510521,-0.940821
1470345127393379,-0.460987,-0.0516766,-0.941041
1470345127416489,-0.461858,-0.0524715,-0.941203
1470345127430501,-0.462191,-0.0533287,-0.941762
1470345127453521,-0.461779,-0.053688,-0.942344
1470345127483552,-0.460987,-0.054005,-0.943061
1470345127497584,-0.460399,-0.0544146,-0.943607
1470345127514116,-0.460573,-0.0549582,-0.9438
1470345127536139,-0.460221,-0.0556544,-0.943882
1470345127557170,-0.458816,-0.0562622,-0.944191
1470345127574169,-0.456757,-0.0564595,-0.944264
1470345127596710,-0.455011,-0.0567787,-0.944021
1470345127617372,-0.453939,-0.0571446,-0.943687
1470345127633385,-0.452957,-0.0574216,-0.943567
1470345127656354,-0.451492,-0.0577812,-0.943488
1470345127677428,-0.449533,-0.0583103,-0.943488
1470345127701457,-0.447448,-0.0585788,-0.943809
1470345127716472,-0.446545,-0.0587755,-0.944261
1470345127737491,-0.446681,-0.0593623,-0.944543
1470345127753505,-0.447235,-0.060034,-0.945023
1470345127776526,-0.447505,-0.0607275,-0.945614
1470345127797672,-0.447087,-0.061409,-0.94642
1470345127813543,-0.44624,-0.0620924,-0.947066
1470345127836562,-0.445263,-0.0623418,-0.947188
1470345127864589,-0.444532,-0.0629935,-0.947419
1470345127873596,-0.443806,-0.0633183,-0.947434
1470345127897129,-0.443202,-0.0633714,-0.947238
1470345127918651,-0.442303,-0.0639279,-0.946745
1470345127933664,-0.441414,-0.0640026,-0.946661
1470345127956687,-0.44098,-0.0642468,-0.946296
1470345127978703,-0.440808,-0.0645642,-0.946208
1470345127993717,-0.440866,-0.0644584,-0.946238
1470345128016749,-0.441931,-0.0645996,-0.946302
1470345128038767,-0.442755,-0.0646907,-0.946626
1470345128052780,-0.442733,-0.0647852,-0.947016
1470345128076801,-0.44295,-0.0647492,-0.94762
1470345128099348,-0.443502,-0.0645609,-0.947991
1470345128113893,-0.444107,-0.0645081,-0.948187
1470345128135911,-0.444164,-0.0644023,-0.948217
1470345128158930,-0.44422,-0.064116,-0.948722
1470345128173046,-0.443941,-0.063896,-0.949038
1470345128196469,-0.443644,-0.0633579,-0.949106
1470345128219034,-0.44337,-0.0628109,-0.949206
1470345128233053,-0.443252,-0.0627556,-0.9492
1470345128256067,-0.443252,-0.0627556,-0.9492
1470345128279088,-0.443142,-0.0626402,-0.948924
1470345128293120,-0.442608,-0.062286,-0.948692
1470345128315911,-0.442702,-0.0623502,-0.948665
1470345128338932,-0.442702,-0.0623502,-0.948665
1470345128352959,-0.44276,-0.0622445,-0.948695
1470345128376020,-0.442752,-0.0622189,-0.948543
1470345128399049,-0.442869,-0.0622741,-0.948549
1470345128420083,-0.44398,-0.0626122,-0.948709
1470345128436084,-0.445501,-0.0630105,-0.948916
1470345128459105,-0.446713,-0.0631726,-0.949256
1470345128480157,-0.446772,-0.0631534,-0.949707
1470345128496746,-0.446025,-0.062979,-0.949949
1470345128519123,-0.44514,-0.0625444,-0.950122
1470345128540186,-0.444129,-0.0620287,-0.95014
1470345128556156,-0.443337,-0.0615725,-0.949864
1470345128579181,-0.442457,-0.0608112,-0.949821
1470345128600222,-0.44152,-0.0601556,-0.949748
1470345128616283,-0.441131,-0.0598198,-0.949789
1470345128638307,-0.440718,-0.0592264,-0.949851
1470345128660351,-0.440949,-0.0588036,-0.949969
1470345128676307,-0.44113,-0.0585119,-0.95021
1470345128698867,-0.44113,-0.0585119,-0.95021
1470345128720022,-0.44113,-0.0585119,-0.95021
1470345128736036,-0.441107,-0.058521,-0.950177
1470345128759055,-0.441107,-0.058521,-0.950177
1470345128764059,-0.441107,-0.058521,-0.950177
1470345128787137,-0.441107,-0.058521,-0.950177
1470345128809672,-0.4409,-0.0580749,-0.949982
1470345128824694,-0.440284,-0.0575688,-0.949742
1470345128846686,-0.43974,-0.0569228,-0.949411
1470345128861712,-0.43948,-0.0562564,-0.94897
1470345128885704,-0.43909,-0.055836,-0.948589
1470345128907271,-0.43887,-0.0556913,-0.948459
1470345128929593,-0.438927,-0.0555855,-0.948488
1470345128944593,-0.439508,-0.055243,-0.948202
1470345128966569,-0.440338,-0.0552748,-0.948259
1470345128981589,-0.441004,-0.0556492,-0.948378
1470345129004608,-0.441004,-0.0556492,-0.948378
1470345129036079,-0.441122,-0.0557044,-0.948384
1470345129042104,-0.441673,-0.0554306,-0.948336
1470345129064194,-0.442292,-0.0553431,-0.948415
1470345129087205,-0.442464,-0.0547594,-0.948559
1470345129102177,-0.442016,-0.054263,-0.948624
1470345129131898,-0.441793,-0.053585,-0.948603
1470345129146889,-0.441411,-0.0531896,-0.948373
1470345129161925,-0.440984,-0.0525989,-0.948048
1470345129184894,-0.440542,-0.0520429,-0.947843
1470345129206929,-0.439985,-0.0516986,-0.947577
1470345129222094,-0.439975,-0.0514068,-0.947481
1470345129244124,-0.439975,-0.0514068,-0.947481
1470345129267106,-0.439975,-0.0514068,-0.947481
1470345129282160,-0.440092,-0.0514618,-0.947486
1470345129304700,-0.440092,-0.0514618,-0.947486
1470345129326711,-0.440267,-0.051411,-0.947522
1470345129341814,-0.440267,-0.051411,-0.947522
1470345129367747,-0.440384,-0.0514661,-0.947527
1470345129386814,-0.440267,-0.051411,-0.947522
1470345129402282,-0.440267,-0.051411,-0.947522
1470345129423809,-0.440267,-0.051411,-0.947522
1470345129446830,-0.439935,-0.0511517,-0.947116
1470345129462859,-0.439159,-0.0509299,-0.946666
1470345129484867,-0.438567,-0.0506826,-0.946403
1470345129507010,-0.438564,-0.0505981,-0.945982
1470345129523004,-0.438681,-0.050653,-0.945988
1470345129544040,-0.438739,-0.0505471,-0.946018
1470345129567085,-0.439346,-0.0507599,-0.946162
1470345129583069,-0.44001,-0.0508669,-0.946336
1470345129604586,-0.440068,-0.0507611,-0.946366
1470345129627114,-0.440848,-0.0506566,-0.946601
1470345129643128,-0.440848,-0.0506566,-0.946601
1470345129664151,-0.441286,-0.0506792,-0.946916
1470345129687183,-0.441286,-0.0506792,-0.946916
1470345129703234,-0.441404,-0.0507341,-0.946921
1470345129724118,-0.441404,-0.0507341,-0.946921
1470345129747146,-0.441404,-0.0507341,-0.946921
1470345129765123,-0.440729,-0.0503351,-0.94665
1470345129784178,-0.43979,-0.049863,-0.9461
1470345129813768,-0.439467,-0.0496291,-0.945846
1470345129824931,-0.439247,-0.0494847,-0.945716
1470345129843947,-0.439014,-0.0496416,-0.94565
1470345129869972,-0.439132,-0.0496965,-0.945656
1470345129884985,-0.439132,-0.0496965,-0.945656
1470345129904565,-0.439752,-0.0498746,-0.945681
1470345129926605,-0.440345,-0.0501219,-0.945945
1470345129944565,-0.440462,-0.0501768,-0.94595
1470345129964583,-0.440462,-0.0501768,-0.94595
1470345129986631,-0.440348,-0.0502068,-0.946366
1470345130005223,-0.440279,-0.0504321,-0.946875
1470345130024399,-0.440279,-0.0504321,-0.946875
1470345130046348,-0.439777,-0.0505751,-0.946801
1470345130064360,-0.438763,-0.0505697,-0.946555
1470345130084436,-0.437727,-0.05036,-0.946248
1470345130107014,-0.437185,-0.0502489,-0.945809
1470345130125034,-0.43689,-0.0501607,-0.945348
1470345130144095,-0.436623,-0.0504141,-0.945285
1470345130167075,-0.436448,-0.0504651,-0.94525
1470345130185088,-0.436448,-0.0504651,-0.94525
1470345130204641,-0.436565,-0.05052,-0.945255
1470345130227220,-0.436682,-0.0505749,-0.945261
1470345130245205,-0.436682,-0.0505749,-0.945261
1470345130264277,-0.436799,-0.0506298,-0.945266
1470345130287244,-0.436799,-0.0506298,-0.945266
1470345130305264,-0.437164,-0.0505249,-0.945723
1470345130324182,-0.437115,-0.0506558,-0.945844
1470345130347156,-0.437115,-0.0506558,-0.945844
1470345130365173,-0.436998,-0.0506009,-0.945839
1470345130384279,-0.436681,-0.0503082,-0.945315
1470345130406815,-0.436365,-0.0502825,-0.944736
1470345130424301,-0.436158,-0.0502869,-0.944013
1470345130445318,-0.43604,-0.0504147,-0.943533
1470345130467338,-0.43604,-0.0504147,-0.943533
1470345130484353,-0.436718,-0.0504862,-0.943588
1470345130505877,-0.437711,-0.0507659,-0.943746
1470345130537413,-0.438389,-0.0508375,-0.943801
1470345130544418,-0.438389,-0.0508375,-0.943801
1470345130565436,-0.438447,-0.0507315,-0.943831
1470345130586456,-0.438389,-0.0508375,-0.943801
1470345130604979,-0.438564,-0.0507864,-0.943836
1470345130625499,-0.438273,-0.0506005,-0.94427
1470345130646532,-0.438362,-0.0514014,-0.945095
1470345130664535,-0.43837,-0.0524681,-0.944879
1470345130685572,-0.437824,-0.0521884,-0.943599
1470345130707082,-0.436674,-0.0515997,-0.943072
1470345130724551,-0.436617,-0.0517057,-0.943043
1470345130752579,-0.436687,-0.0523407,-0.942641
1470345130766589,-0.435634,-0.0520837,-0.942034
1470345130784604,-0.435028,-0.0518726,-0.941891
1470345130807691,-0.435805,-0.052541,-0.94181
1470345130826749,-0.435748,-0.052647,-0.941781
1470345130844768,-0.435865,-0.0527018,-0.941786
1470345130866786,-0.43604,-0.0526505,-0.941821
1470345130886847,-0.43604,-0.0526505,-0.941821
1470345130904902,-0.436134,-0.0527145,-0.941794
1470345130926873,-0.436523,-0.0528661,-0.942229
1470345130946892,-0.436453,-0.0530905,-0.942738
1470345130964907,-0.436453,-0.0530905,-0.942738
1470345130986926,-0.436079,-0.052722,-0.94266
1470345131006977,-0.435239,-0.0524011,-0.942506
1470345131025035,-0.434741,-0.0522198,-0.942217
1470345131047029,-0.434344,-0.0518607,-0.942106
1470345131067095,-0.433956,-0.0515264,-0.942146
1470345131085063,-0.433956,-0.0515264,-0.942146
1470345131107644,-0.434073,-0.0515812,-0.942152
1470345131126836,-0.43419,-0.0516359,-0.942157
1470345131144809,-0.434168,-0.0516451,-0.942125
1470345131166829,-0.434168,-0.0516451,-0.942125
1470345131186882,-0.434285,-0.0516999,-0.942131
1470345131204900,-0.434342,-0.0515939,-0.94216
1470345131227451,-0.434622,-0.0517153,-0.94274
1470345131246526,-0.434705,-0.0518972,-0.943252
1470345131270489,-0.434588,-0.0518424,-0.943247
1470345131287504,-0.434588,-0.0518424,-0.943247
1470345131308037,-0.434101,-0.0519527,-0.943056
1470345131323586,-0.433443,-0.0517886,-0.942613
1470345131346515,-0.43288,-0.0516888,-0.942145
1470345131367594,-0.432219,-0.0518508,-0.941919
1470345131383550,-0.431938,-0.052139,-0.941977
1470345131406575,-0.432055,-0.0521937,-0.941982
1470345131427654,-0.432055,-0.0521937,-0.941982
1470345131443614,-0.432172,-0.0522485,-0.941987
1470345131472681,-0.432055,-0.0521937,-0.941982
1470345131487697,-0.43223,-0.0521425,-0.942017
1470345131504217,-0.43223,-0.0521425,-0.942017
1470345131526548,-0.43222,-0.0525266,-0.942503
1470345131547598,-0.432034,-0.0526951,-0.943008
1470345131563563,-0.432034,-0.0526951,-0.943008
1470345131586585,-0.432309,-0.0524657,-0.94322
1470345131607710,-0.432309,-0.0524657,-0.94322
1470345131624267,-0.432309,-0.0524657,-0.94322
1470345131646322,-0.432366,-0.0523597,-0.943249
1470345131667361,-0.432249,-0.0523049,-0.943244
1470345131684321,-0.432147,-0.0522162,-0.94312
1470345131706894,-0.432204,-0.0521102,-0.943149
1470345131728721,-0.433197,-0.0517966,-0.943142
1470345131743727,-0.434093,-0.0517448,-0.943379
1470345131766747,-0.434652,-0.0514945,-0.943481
1470345131788769,-0.435268,-0.0511384,-0.943613
1470345131804315,-0.435325,-0.0510325,-0.943643
1470345131826840,-0.435935,-0.0509183,-0.94357
1470345131848861,-0.43611,-0.0508671,-0.943606
1470345131863873,-0.43611,-0.0508671,-0.943606
1470345131886893,-0.435724,-0.0507993,-0.943592
1470345131909452,-0.435286,-0.0507785,-0.943279
1470345131923030,-0.435003,-0.05039,-0.942752
1470345131946095,-0.43468,-0.0501575,-0.942499
1470345131969057,-0.434462,-0.0502806,-0.942315
1470345131983070,-0.43429,-0.0505987,-0.942226
1470345132006597,-0.434175,-0.0508107,-0.942167
1470345132028703,-0.434471,-0.0513478,-0.9421
1470345132042730,-0.435014,-0.0519067,-0.942009
1470345132066704,-0.435014,-0.0519067,-0.942009
1470345132088766,-0.435131,-0.0519615,-0.942015
1470345132103746,-0.435131,-0.0519615,-0.942015
1470345132126272,-0.435305,-0.0519102,-0.94205
1470345132149292,-0.435423,-0.051965,-0.942055
1470345132163305,-0.435343,-0.0520802,-0.941993
1470345132186326,-0.435182,-0.0519145,-0.942314
1470345132209407,-0.434734,-0.0514195,-0.942378
1470345132230140,-0.433892,-0.050832,-0.942278
1470345132246157,-0.433333,-0.0502234,-0.942067
1470345132269174,-0.432784,-0.0499065,-0.941953
1470345132290260,-0.432398,-0.0498391,-0.941939
1470345132306782,-0.432121,-0.0498017,-0.94178
1470345132329097,-0.432238,-0.0498565,-0.941786
1470345132350173,-0.432238,-0.0498565,-0.941786
1470345132366131,-0.432903,-0.050228,-0.941905
1470345132389186,-0.432903,-0.050228,-0.941905
1470345132410225,-0.432903,-0.050228,-0.941905
1470345132426294,-0.43302,-0.0502828,-0.94191
1470345132449315,-0.433078,-0.0501767,-0.94194
1470345132470331,-0.433078,-0.0501767,-0.94194
1470345132486380,-0.433137,-0.0503375,-0.941916
1470345132509438,-0.433137,-0.0503375,-0.941916
1470345132530527,-0.433137,-0.0503375,-0.941916
1470345132546544,-0.432638,-0.0498899,-0.941681
1470345132568562,-0.432233,-0.0495063,-0.941419
1470345132589636,-0.43185,-0.0491136,-0.941189
1470345132606638,-0.431353,-0.0489332,-0.940901
1470345132628722,-0.43109,-0.0488622,-0.940623
1470345132651722,-0.431024,-0.0489437,-0.940443
1470345132665735,-0.43126,-0.0493198,-0.9404
1470345132688760,-0.431542,-0.0498906,-0.940452
1470345132713284,-0.43181,-0.0504953,-0.940623
1470345132726801,-0.431858,-0.0509568,-0.940664
1470345132748820,-0.431957,-0.0513708,-0.941005
1470345132771841,-0.432019,-0.051615,-0.941401
1470345132786855,-0.432019,-0.051615,-0.941401
1470345132809423,-0.431791,-0.0512634,-0.941595
1470345132831574,-0.431272,-0.0509083,-0.941748
1470345132845631,-0.430213,-0.0502611,-0.941939
1470345132868607,-0.429271,-0.0496685,-0.942135
1470345132891629,-0.428533,-0.04917,-0.942159
1470345132906147,-0.427819,-0.0489292,-0.942162
1470345132928923,-0.427097,-0.0486641,-0.942013
1470345132951946,-0.426711,-0.0485968,-0.942
1470345132965956,-0.426769,-0.0484907,-0.942029
1470345132988977,-0.42676,-0.0484663,-0.941878
1470345133011522,-0.426865,-0.0488216,-0.94195
1470345133026050,-0.426921,-0.0493073,-0.942143
1470345133049095,-0.427131,-0.0500179,-0.942285
1470345133071091,-0.427459,-0.0510502,-0.942381
1470345133086105,-0.427511,-0.0520456,-0.942318
1470345133109162,-0.42786,-0.0528021,-0.942498
1470345133131187,-0.428245,-0.0534615,-0.942675
1470345133152272,-0.428393,-0.0537444,-0.942895
1470345133169230,-0.42851,-0.0537992,-0.9429
1470345133191249,-0.428044,-0.0536625,-0.9433
1470345133212848,-0.427605,-0.0531916,-0.943515
1470345133228955,-0.426924,-0.0525863,-0.943568
1470345133251063,-0.426024,-0.0518379,-0.943492
1470345133273026,-0.42554,-0.0511724,-0.943611
1470345133289047,-0.424923,-0.0504034,-0.943423
1470345133312037,-0.42398,-0.049728,-0.943199
1470345133332562,-0.423881,-0.0493153,-0.942857
1470345133348576,-0.423938,-0.0492091,-0.942886
1470345133371596,-0.423938,-0.0492091,-0.942886
1470345133392650,-0.424116,-0.049692,-0.942815
1470345133409155,-0.424506,-0.0502935,-0.942723
1470345133431692,-0.424838,-0.051001,-0.942602
1470345133452710,-0.425281,-0.0518211,-0.942756
1470345133468724,-0.425888,-0.0522986,-0.942845
1470345133491745,-0.425888,-0.0522986,-0.942845
1470345133512826,-0.425888,-0.0522986,-0.942845
1470345133528514,-0.426005,-0.0523534,-0.94285
1470345133551537,-0.426005,-0.0523534,-0.94285
1470345133572620,-0.426005,-0.0523534,-0.94285
1470345133588568,-0.426005,-0.0523534,-0.94285
1470345133611655,-0.425389,-0.0518516,-0.94261
1470345133634176,-0.424911,-0.0511287,-0.942459
1470345133649189,-0.424337,-0.0504724,-0.941945
1470345133671209,-0.424018,-0.0499169,-0.941475
1470345133694229,-0.423938,-0.0494135,-0.940745
1470345133709248,-0.42423,-0.0490103,-0.940146
1470345133731280,-0.425018,-0.0487859,-0.939836
1470345133754294,-0.426412,-0.0487707,-0.939669
1470345133768305,-0.428996,-0.0492383,-0.939672
1470345133791325,-0.432677,-0.0494791,-0.939794
1470345133814352,-0.435504,-0.049761,-0.940101
1470345133828367,-0.437761,-0.0499719,-0.939706
1470345133851389,-0.438984,-0.0495652,-0.938371
1470345133874408,-0.437383,-0.0482575,-0.936801
1470345133888447,-0.435559,-0.0471353,-0.935316
1470345133911511,-0.4352,-0.0467741,-0.933959
1470345133933590,-0.43516,-0.0472959,-0.933284
1470345133948605,-0.434683,-0.0480257,-0.933403
1470345133971626,-0.433818,-0.0486362,-0.933592
1470345133993644,-0.43288,-0.0491738,-0.933842
1470345134008678,-0.432477,-0.0490585,-0.933527
1470345134031730,-0.432104,-0.0483666,-0.933234
1470345134053751,-0.431143,-0.047729,-0.933128
1470345134068762,-0.429685,-0.0473214,-0.933369
1470345134091849,-0.428527,-0.0471246,-0.933329
1470345134114391,-0.428059,-0.0469075,-0.933307
1470345134135011,-0.428119,-0.0470681,-0.933283
1470345134151959,-0.428236,-0.0471224,-0.933288
1470345134173980,-0.42841,-0.0470703,-0.933323
1470345134195000,-0.428856,-0.0471122,-0.933785
1470345134211522,-0.429105,-0.0472155,-0.93418
1470345134234080,-0.429268,-0.0472799,-0.934752
1470345134255119,-0.428578,-0.0476529,-0.935452
1470345134271116,-0.427778,-0.0475881,-0.935662
1470345134294122,-0.427064,-0.0473497,-0.935665
1470345134315767,-0.426059,-0.0471089,-0.935628
1470345134331179,-0.425073,-0.0467771,-0.935203
1470345134354202,-0.424405,-0.0469183,-0.934829
1470345134375244,-0.424074,-0.0472561,-0.934589
1470345134391233,-0.423951,-0.0474446,-0.934381
1470345134414262,-0.424068,-0.0474989,-0.934386
1470345134435289,-0.424682,-0.0477309,-0.934679
1470345134451301,-0.425627,-0.0478105,-0.934739
1470345134474321,-0.426464,-0.0478602,-0.934944
1470345134495340,-0.427301,-0.0479101,-0.93515
1470345134511860,-0.429023,-0.0478796,-0.935442
1470345134534387,-0.431141,-0.0479405,-0.935899
1470345134556408,-0.432631,-0.0478026,-0.936182
1470345134571436,-0.432479,-0.0478452,-0.936179
1470345134594441,-0.43165,-0.0474104,-0.935487
1470345134616467,-0.430282,-0.0469529,-0.934779
1470345134631202,-0.429133,-0.0465561,-0.933781
1470345134654224,-0.428532,-0.0464745,-0.932898
1470345134676242,-0.427736,-0.0468621,-0.932582
1470345134691256,-0.427025,-0.0474837,-0.932694
1470345134714283,-0.426616,-0.048344,-0.933028
1470345134742814,-0.427124,-0.0488131,-0.933413
1470345134750820,-0.428007,-0.0490566,-0.933713
1470345134773841,-0.428273,-0.0492086,-0.934409
1470345134796862,-0.427918,-0.0491862,-0.935081
1470345134810904,-0.42717,-0.049073,-0.93559
1470345134833950,-0.426838,-0.0492256,-0.935822
1470345134855994,-0.426838,-0.0492256,-0.935822
1470345134877988,-0.42667,-0.0490349,-0.935991
1470345134894006,-0.426172,-0.0486717,-0.936176
1470345134916577,-0.425094,-0.0483033,-0.936282
1470345134930642,-0.423749,-0.0481902,-0.936328
1470345134953662,-0.422582,-0.0482923,-0.936356
1470345134976682,-0.422023,-0.0488697,-0.936475
1470345134990694,-0.421791,-0.0496194,-0.936577
1470345135014306,-0.421523,-0.0501993,-0.936736
1470345135036407,-0.421012,-0.0506461,-0.936733
1470345135057382,-0.420573,-0.0509536,-0.936641
1470345135074396,-0.420473,-0.0511333,-0.936465
1470345135096431,-0.420457,-0.0510851,-0.936164
1470345135118035,-0.420574,-0.0511396,-0.936169
1470345135133632,-0.420399,-0.0510054,-0.936607
1470345135156642,-0.420111,-0.0510838,-0.936989
1470345135177661,-0.41948,-0.0510225,-0.937506
1470345135193631,-0.41898,-0.0509827,-0.937909
1470345135216662,-0.41898,-0.0509827,-0.937909
1470345135237740,-0.418139,-0.0509893,-0.937976
1470345135253754,-0.417139,-0.051015,-0.937892
1470345135276773,-0.416399,-0.0510284,-0.937663
1470345135297795,-0.416081,-0.0511472,-0.937779
1470345135314319,-0.416081,-0.0511472,-0.937779
1470345135336616,-0.416626,-0.0511942,-0.937943
1470345135357637,-0.416782,-0.0514989,-0.938313
1470345135381657,-0.416782,-0.0514989,-0.938313
1470345135396672,-0.416899,-0.0515536,-0.938318
1470345135417730,-0.416733,-0.0516292,-0.938436
1470345135434252,-0.416733,-0.0516292,-0.938436
1470345135456278,-0.416711,-0.0516379,-0.938404
1470345135477322,-0.416388,-0.051813,-0.93879
1470345135493305,-0.415823,-0.0518548,-0.939016
1470345135516835,-0.415105,-0.0518593,-0.93882
1470345135539359,-0.415105,-0.0518593,-0.93882
1470345135554372,-0.415105,-0.0518593,-0.93882
1470345135576394,-0.414712,-0.0517692,-0.938658
1470345135599414,-0.41432,-0.0516791,-0.938496
1470345135614432,-0.414436,-0.0517338,-0.938501
1470345135636461,-0.414436,-0.0517338,-0.938501
1470345135658547,-0.414493,-0.0516274,-0.938529
1470345135673492,-0.415228,-0.0518576,-0.938555
1470345135696576,-0.415827,-0.0523092,-0.938493
1470345135719039,-0.416119,-0.0525795,-0.93848
1470345135733559,-0.416718,-0.053031,-0.938418
1470345135756578,-0.416718,-0.053031,-0.938418
1470345135778598,-0.416835,-0.0530856,-0.938423
1470345135793636,-0.416222,-0.0526667,-0.938604
1470345135816720,-0.415544,-0.0523301,-0.938606
1470345135844673,-0.415097,-0.0518355,-0.938669
1470345135853639,-0.414656,-0.0512845,-0.938462
1470345135876661,-0.413985,-0.0508918,-0.938194
1470345135898680,-0.413332,-0.0508142,-0.938177
1470345135913701,-0.412937,-0.0504569,-0.938066
1470345135936612,-0.412937,-0.0504569,-0.938066
1470345135958631,-0.412937,-0.0504569,-0.938066
1470345135973643,-0.413053,-0.0505115,-0.938071
1470345135996664,-0.413053,-0.0505115,-0.938071
1470345136019214,-0.41317,-0.0505662,-0.938076
1470345136039769,-0.413714,-0.0506129,-0.938239
1470345136056769,-0.414592,-0.0505888,-0.938586
1470345136078787,-0.414592,-0.0505888,-0.938586
1470345136099862,-0.414535,-0.0506952,-0.938558
1470345136116883,-0.413928,-0.0502199,-0.938469
1470345136138552,-0.413276,-0.0495512,-0.938284
1470345136160543,-0.412662,-0.0490524,-0.938044
1470345136176592,-0.412167,-0.0488758,-0.937758
1470345136198575,-0.41146,-0.0485814,-0.937494
1470345136220713,-0.411011,-0.0485983,-0.937304
1470345136236217,-0.411127,-0.0486529,-0.937309
1470345136259237,-0.41168,-0.0489108,-0.937152
1470345136280256,-0.412346,-0.0489558,-0.93705
1470345136296285,-0.412463,-0.0490103,-0.937055
1470345136319369,-0.412406,-0.0491168,-0.937027
1470345136340241,-0.412463,-0.0490103,-0.937055
1470345136356255,-0.413186,-0.0489488,-0.936982
1470345136379277,-0.413801,-0.0488565,-0.937055
1470345136400296,-0.413801,-0.0488565,-0.937055
1470345136416813,-0.413189,-0.0486254,-0.936763
1470345136439339,-0.412827,-0.0481477,-0.936146
1470345136462360,-0.413397,-0.0474585,-0.935484
1470345136476375,-0.41318,-0.0469938,-0.935137
1470345136499392,-0.4124,-0.0465717,-0.935014
1470345136521917,-0.412108,-0.0463019,-0.935027
1470345136536179,-0.412108,-0.0463019,-0.935027
1470345136559199,-0.413007,-0.046455,-0.934937
1470345136581220,-0.413516,-0.0465986,-0.935104
1470345136587227,-0.41412,-0.0468055,-0.935245
1470345136603240,-0.414554,-0.046741,-0.935134
1470345136624317,-0.414611,-0.0466346,-0.935162
1470345136647338,-0.415354,-0.0462962,-0.935174
1470345136663370,-0.41547,-0.0463506,-0.93518
1470345136684372,-0.415291,-0.046459,-0.935415
1470345136706391,-0.414833,-0.0462651,-0.935545
1470345136723412,-0.414671,-0.0460172,-0.935444
1470345136744437,-0.414072,-0.0455665,-0.935506
1470345136766457,-0.41327,-0.0451531,-0.93535
1470345136783472,-0.412826,-0.0449266,-0.935361
1470345136804492,-0.412114,-0.0446888,-0.935366
1470345136827146,-0.411325,-0.0448339,-0.935259
1470345136843152,-0.411382,-0.0447274,-0.935287
1470345136865165,-0.412059,-0.0450627,-0.935287
1470345136887207,-0.412826,-0.0455173,-0.935528
1470345136903211,-0.412942,-0.0455717,-0.935533
1470345136924426,-0.412942,-0.0455717,-0.935533
1470345136946424,-0.413116,-0.0455197,-0.935567
1470345136963407,-0.413116,-0.0455197,-0.935567
1470345136984426,-0.413116,-0.0455197,-0.935567
1470345137006447,-0.413116,-0.0455197,-0.935567
1470345137023465,-0.412614,-0.0453996,-0.93555
1470345137045545,-0.412614,-0.0453996,-0.93555
1470345137066552,-0.412457,-0.0450959,-0.93518
1470345137083523,-0.412119,-0.0448209,-0.934626
1470345137104632,-0.411729,-0.0449993,-0.934412
1470345137126646,-0.411785,-0.0448928,-0.93444
1470345137143644,-0.411785,-0.0448928,-0.93444
1470345137164705,-0.412579,-0.0452822,-0.934445
1470345137186738,-0.41314,-0.0455628,-0.934439
1470345137203698,-0.41314,-0.0455628,-0.934439
1470345137224787,-0.413256,-0.0456172,-0.934444
1470345137248809,-0.413292,-0.0455195,-0.93444
1470345137262867,-0.413408,-0.0455739,-0.934445
1470345137284893,-0.413408,-0.0455739,-0.934445
1470345137306904,-0.413408,-0.0455739,-0.934445
1470345137323422,-0.412969,-0.0452916,-0.934187
1470345137344648,-0.412086,-0.0447832,-0.933941
1470345137366660,-0.41152,-0.044156,-0.933578
1470345137384628,-0.411254,-0.0438218,-0.933354
1470345137404649,-0.410861,-0.0437332,-0.933191
1470345137427184,-0.410593,-0.0437223,-0.933185
1470345137445201,-0.41071,-0.0437766,-0.93319
1470345137464216,-0.411254,-0.0438218,-0.933354
1470345137487237,-0.412191,-0.0439559,-0.93368
1470345137505291,-0.412852,-0.0440558,-0.933849
1470345137523903,-0.412969,-0.0441101,-0.933854
1470345137547140,-0.412969,-0.0441101,-0.933854
1470345137565124,-0.412969,-0.0441101,-0.933854
1470345137584181,-0.412969,-0.0441101,-0.933854
1470345137607200,-0.412476,-0.044014,-0.933988
1470345137624681,-0.411755,-0.0437533,-0.933842
1470345137644704,-0.411208,-0.0434405,-0.933729
1470345137666724,-0.410631,-0.0431132,-0.933434
1470345137684739,-0.410076,-0.0427772,-0.93317
1470345137704758,-0.409753,-0.0425499,-0.932918
1470345137726818,-0.409139,-0.0426437,-0.932844
1470345137744835,-0.409139,-0.0426437,-0.932844
1470345137764893,-0.409919,-0.0430647,-0.932967
1470345137786890,-0.410642,-0.0435923,-0.933062
1470345137810980,-0.410642,-0.0435923,-0.933062
1470345137824511,-0.410758,-0.0436466,-0.933068
1470345137846672,-0.411492,-0.0438746,-0.933095
1470345137864690,-0.41205,-0.0438875,-0.933141
1470345137884724,-0.412167,-0.0439418,-0.933146
1470345137906810,-0.412167,-0.0439418,-0.933146
1470345137924793,-0.412167,-0.0439418,-0.933146
1470345137944333,-0.412167,-0.0439418,-0.933146
1470345137970340,-0.411706,-0.0436688,-0.932856
1470345137984335,-0.411432,-0.0433113,-0.932481
1470345138005358,-0.411489,-0.0432047,-0.932509
1470345138027473,-0.411489,-0.0432047,-0.932509
1470345138044473,-0.411605,-0.043259,-0.932514
1470345138065543,-0.411722,-0.0433132,-0.93252
1470345138087512,-0.411722,-0.0433132,-0.93252
1470345138104527,-0.412935,-0.0436692,-0.932533
1470345138125150,-0.413049,-0.0434561,-0.932589
1470345138146593,-0.413599,-0.0432577,-0.932956
1470345138164566,-0.414421,-0.0431504,-0.933749
1470345138185584,-0.415072,-0.0433632,-0.934457
1470345138206661,-0.415132,-0.043524,-0.934434
1470345138225125,-0.413978,-0.0433274,-0.934397
1470345138246259,-0.412696,-0.0433765,-0.934422
1470345138267279,-0.412251,-0.0433382,-0.933962
1470345138285295,-0.411698,-0.0432692,-0.933647
1470345138305317,-0.411192,-0.042803,-0.933261
1470345138327431,-0.411162,-0.0434355,-0.933163
1470345138344446,-0.411083,-0.0435509,-0.933102
1470345138367468,-0.4112,-0.0436052,-0.933108
1470345138386486,-0.411717,-0.0439596,-0.932955
1470345138404501,-0.413179,-0.0440686,-0.932642
1470345138427055,-0.413274,-0.0441318,-0.932615
1470345138447168,-0.413391,-0.044186,-0.932621
1470345138465091,-0.413391,-0.044186,-0.932621
1470345138487110,-0.414172,-0.0446072,-0.932744
1470345138507188,-0.414662,-0.0450265,-0.932828
1470345138525151,-0.415383,-0.0452871,-0.932974
1470345138547114,-0.415335,-0.0454174,-0.933096
1470345138567132,-0.414958,-0.0455631,-0.932764
1470345138585175,-0.414912,-0.0455571,-0.932198
1470345138607211,-0.415376,-0.045694,-0.9318
1470345138627424,-0.415354,-0.0457029,-0.931767
1470345138645391,-0.415471,-0.0457571,-0.931773
1470345138667399,-0.415553,-0.045909,-0.931782
1470345138687436,-0.415531,-0.0459178,-0.931749
1470345138704432,-0.416421,-0.0463693,-0.931727
1470345138727150,-0.416477,-0.0462628,-0.931755
1470345138747168,-0.416594,-0.046317,-0.931761
1470345138765186,-0.416711,-0.0463712,-0.931766
1470345138787204,-0.41654,-0.0465038,-0.932152
1470345138807239,-0.416483,-0.0466103,-0.932123
1470345138825241,-0.416483,-0.0466103,-0.932123
1470345138854815,-0.415967,-0.0459327,-0.932059
1470345138866916,-0.415424,-0.0453765,-0.932148
1470345138884843,-0.415353,-0.0449247,-0.932072
1470345138906863,-0.415315,-0.044755,-0.932128
1470345138926947,-0.415432,-0.0448093,-0.932133
1470345138944965,-0.415402,-0.0447945,-0.93195
1470345138966982,-0.415424,-0.0447856,-0.931983
1470345138988001,-0.416191,-0.0452394,-0.932224
1470345139005017,-0.416354,-0.045674,-0.931853
1470345139027042,-0.416471,-0.0457282,-0.931859
1470345139048066,-0.416528,-0.0456217,-0.931887
1470345139065082,-0.416528,-0.0456217,-0.931887
1470345139087102,-0.416964,-0.0456368,-0.932197
1470345139108138,-0.416362,-0.0449198,-0.93231
1470345139124187,-0.415912,-0.0447504,-0.932589
1470345139146198,-0.415193,-0.0447571,-0.932391
1470345139167268,-0.413963,-0.0443539,-0.932077
1470345139184232,-0.414019,-0.0442473,-0.932106
1470345139206252,-0.413857,-0.0441874,-0.931534
1470345139227360,-0.41342,-0.044173,-0.931225
1470345139250423,-0.413537,-0.0442271,-0.93123
1470345139266397,-0.413987,-0.0443966,-0.930951
1470345139288415,-0.414895,-0.0445715,-0.931012
1470345139304428,-0.41499,-0.0446345,-0.930985
1470345139327013,-0.415372,-0.0444321,-0.931049
1470345139349193,-0.415715,-0.04406,-0.931168
1470345139364200,-0.415927,-0.0441773,-0.931147
1470345139386219,-0.415812,-0.0430214,-0.93123
1470345139409242,-0.417195,-0.0426032,-0.931854
1470345139424263,-0.418134,-0.0433289,-0.932347
1470345139446787,-0.417187,-0.0429836,-0.932339
1470345139468807,-0.415464,-0.04157,-0.931775
1470345139483822,-0.414756,-0.0406864,-0.931345
1470345139506842,-0.414711,-0.0403569,-0.930562
1470345139528928,-0.414609,-0.0401342,-0.929751
1470345139542945,-0.414236,-0.0402245,-0.92915
1470345139566952,-0.414849,-0.0406407,-0.928971
1470345139588970,-0.415584,-0.0408672,-0.929
1470345139603001,-0.417038,-0.0410858,-0.929229
1470345139627022,-0.418587,-0.041368,-0.929431
1470345139649051,-0.418742,-0.0414052,-0.929852
1470345139663060,-0.418742,-0.0412186,-0.930323
1470345139686085,-0.418499,-0.041224,-0.930849
1470345139709102,-0.418499,-0.041224,-0.930849
1470345139723715,-0.418442,-0.0413305,-0.93082
1470345139746359,-0.417452,-0.0410596,-0.930665
1470345139769281,-0.416172,-0.0407874,-0.93047
1470345139790354,-0.415732,-0.0405056,-0.930212
1470345139806342,-0.415623,-0.0406624,-0.929886
1470345139829477,-0.414964,-0.0408308,-0.929664
1470345139850495,-0.414453,-0.0410121,-0.929712
1470345139866547,-0.414453,-0.0410121,-0.929712
1470345139889531,-0.415117,-0.0413782,-0.92983
1470345139910551,-0.415117,-0.0413782,-0.92983
1470345139926685,-0.415234,-0.0414323,-0.929835
1470345139949310,-0.414765,-0.0415395,-0.93003
1470345139970327,-0.414557,-0.0415021,-0.930471
1470345139986342,-0.414653,-0.0413778,-0.930915
1470345140009363,-0.414596,-0.0412969,-0.931357
1470345140030618,-0.41374,-0.0410716,-0.931592
1470345140046495,-0.412999,-0.0406329,-0.931883
1470345140069517,-0.412222,-0.0402915,-0.932179
1470345140090539,-0.411276,-0.0399465,-0.932172
1470345140106554,-0.410659,-0.0397731,-0.932148
1470345140129225,-0.410499,-0.0397931,-0.931996
1470345140150287,-0.410385,-0.0400064,-0.931939
1470345140166287,-0.410385,-0.0400064,-0.931939
1470345140189280,-0.410169,-0.040535,-0.932396
1470345140210340,-0.410422,-0.0409013,-0.932738
1470345140226907,-0.411151,-0.0411848,-0.933035
1470345140249033,-0.411704,-0.0412535,-0.933351
1470345140272007,-0.412028,-0.0412932,-0.934074
1470345140287021,-0.411726,-0.0411355,-0.934625
1470345140309041,-0.411446,-0.0409686,-0.935208
1470345140331098,-0.411206,-0.0406483,-0.935518
1470345140347114,-0.410866,-0.0405085,-0.935652
1470345140369168,-0.41009,-0.0401654,-0.935948
1470345140391152,-0.408856,-0.0398164,-0.935902
1470345140406167,-0.407515,-0.0394362,-0.936002
1470345140428694,-0.406465,-0.0393256,-0.93609
1470345140451783,-0.406444,-0.0393347,-0.936057
1470345140465796,-0.407025,-0.0396067,-0.936084
1470345140488816,-0.407736,-0.0398446,-0.93608
1470345140511837,-0.407852,-0.039899,-0.936085
1470345140526356,-0.407852,-0.039899,-0.936085
1470345140549424,-0.407969,-0.0399534,-0.936091
1470345140571476,-0.407969,-0.0399534,-0.936091
1470345140585546,-0.40857,-0.0398927,-0.936283
1470345140609476,-0.408513,-0.0399993,-0.936255
1470345140631408,-0.408513,-0.0399993,-0.936255
1470345140654427,-0.408026,-0.0398469,-0.936119
1470345140669440,-0.407741,-0.0397893,-0.935811
1470345140691459,-0.407526,-0.0395931,-0.935412
1470345140705473,-0.407699,-0.0395409,-0.935446
1470345140729530,-0.407699,-0.0395409,-0.935446
1470345140751555,-0.407816,-0.0395953,-0.935451
1470345140772599,-0.407816,-0.0395953,-0.935451
1470345140788639,-0.4087,-0.0397808,-0.935481
1470345140811608,-0.409643,-0.0398599,-0.935539
1470345140832752,-0.410602,-0.0399857,-0.935899
1470345140848711,-0.41148,-0.0399601,-0.93625
1470345140871755,-0.4123,-0.0397739,-0.936625
1470345140892793,-0.4123,-0.0397739,-0.936625
1470345140908765,-0.412634,-0.0397024,-0.936812
1470345140931796,-0.412634,-0.0397024,-0.936812
1470345140952827,-0.412634,-0.0397024,-0.936812
1470345140968829,-0.412691,-0.039596,-0.93684
1470345140991850,-0.412916,-0.0390908,-0.936535
1470345141012929,-0.413033,-0.0391452,-0.93654
1470345141029391,-0.413718,-0.0389135,-0.936527
1470345141051819,-0.414664,-0.0386699,-0.93637
1470345141072845,-0.415937,-0.0385985,-0.936199
1470345141088846,-0.416934,-0.0384919,-0.935869
1470345141111837,-0.418069,-0.0384299,-0.935578
1470345141132574,-0.419132,-0.0382399,-0.93543
1470345141149573,-0.420148,-0.0378559,-0.935188
1470345141171591,-0.421597,-0.0377316,-0.935055
1470345141193620,-0.422834,-0.037489,-0.934944
1470345141208625,-0.423674,-0.0372139,-0.934938
1470345141231725,-0.424072,-0.0366549,-0.934673
1470345141253823,-0.424566,-0.0361595,-0.934382
1470345141268830,-0.424746,-0.0357252,-0.933934
1470345141291780,-0.424473,-0.0350407,-0.933345
1470345141314335,-0.424532,-0.0344708,-0.932474
1470345141329348,-0.424879,-0.034227,-0.931858
1470345141351876,-0.425279,-0.0339341,-0.931541
1470345141373910,-0.426063,-0.034031,-0.931454
1470345141388907,-0.427077,-0.0342937,-0.931646
1470345141411930,-0.428457,-0.034307,-0.931609
1470345141434043,-0.429707,-0.034353,-0.9316
1470345141448028,-0.430369,-0.0341873,-0.931831
1470345141472046,-0.431244,-0.0338146,-0.931828
1470345141494086,-0.432268,-0.0335102,-0.932014
1470345141508170,-0.432756,-0.0333974,-0.932209
1470345141531790,-0.432813,-0.0332911,-0.93224
1470345141553832,-0.432813,-0.0332911,-0.93224
1470345141568825,-0.432546,-0.0329541,-0.932017
1470345141591843,-0.432434,-0.0325162,-0.93153
1470345141614370,-0.432791,-0.0322941,-0.931067
1470345141628883,-0.432769,-0.0323042,-0.931035
1470345141651443,-0.432886,-0.0323581,-0.931041
1470345141674427,-0.432943,-0.0322517,-0.931072
1470345141695487,-0.433903,-0.0322957,-0.931024
1470345141713481,-0.435014,-0.0326229,-0.931193
1470345141734445,-0.436124,-0.0329502,-0.931362
1470345141755508,-0.437366,-0.0332971,-0.93142
1470345141771478,-0.438481,-0.0335654,-0.931322
1470345141794499,-0.43921,-0.0337681,-0.931207
1470345141815577,-0.439705,-0.0338629,-0.93108
1470345141831454,-0.439727,-0.0338528,-0.931112
1470345141854473,-0.439561,-0.0337861,-0.93054
1470345141875515,-0.439511,-0.0337733,-0.929974
1470345141891522,-0.439237,-0.0336777,-0.929545
1470345141914527,-0.438801,-0.0335999,-0.928962
1470345141935435,-0.438975,-0.0335473,-0.928999
1470345141951486,-0.438975,-0.0335473,-0.928999
1470345141974470,-0.439926,-0.0338916,-0.929014
1470345141995490,-0.440877,-0.0342358,-0.92903
1470345142011506,-0.441936,-0.0346091,-0.928901
1470345142034481,-0.443104,-0.0350111,-0.928629
1470345142055500,-0.443682,-0.035255,-0.92851
1470345142071517,-0.4438,-0.0353088,-0.928516
1470345142094535,-0.443857,-0.0352025,-0.928547
1470345142115639,-0.443857,-0.0352025,-0.928547
1470345142131537,-0.443952,-0.0352664,-0.928521
1470345142154515,-0.443949,-0.035,-0.928577
1470345142176578,-0.443616,-0.0345622,-0.928647
1470345142191549,-0.443015,-0.0337865,-0.928496
1470345142213573,-0.44289,-0.0333815,-0.928129
1470345142236508,-0.44289,-0.0333815,-0.928129
1470345142251520,-0.44289,-0.0333815,-0.928129
1470345142273563,-0.443465,-0.0333588,-0.928066
1470345142296596,-0.444361,-0.0334825,-0.92784
1470345142310622,-0.445259,-0.0338723,-0.927558
1470345142334492,-0.446006,-0.0343044,-0.92727
1470345142356538,-0.446006,-0.0343044,-0.92727
1470345142370565,-0.446064,-0.034198,-0.927302
1470345142393601,-0.446172,-0.0342266,-0.927158
1470345142417073,-0.446149,-0.0342369,-0.927126
1470345142430084,-0.446149,-0.0342369,-0.927126
1470345142454478,-0.446267,-0.0342906,-0.927132
1470345142476535,-0.446267,-0.0342906,-0.927132
1470345142490515,-0.445823,-0.0340053,-0.926872
1470345142514534,-0.445603,-0.033536,-0.926532
1470345142536542,-0.445603,-0.033536,-0.926532
1470345142550556,-0.445777,-0.0334833,-0.92657
1470345142574533,-0.445777,-0.0334833,-0.92657
1470345142596604,-0.44668,-0.0333649,-0.926551
1470345142610566,-0.447738,-0.0334704,-0.926482
1470345142634564,-0.448927,-0.0335939,-0.926301
1470345142656594,-0.449764,-0.0335564,-0.926103
1470345142677607,-0.450283,-0.033312,-0.9258
1470345142694619,-0.450392,-0.0333403,-0.925657
1470345142717145,-0.450449,-0.033234,-0.925689
1470345142738358,-0.450449,-0.033234,-0.925689
1470345142753399,-0.450885,-0.0331672,-0.92559
1470345142776393,-0.451002,-0.0332207,-0.925596
1470345142797455,-0.450855,-0.0328748,-0.925114
1470345142814428,-0.450863,-0.0327528,-0.924581
1470345142836714,-0.450966,-0.0326946,-0.924021
1470345142857789,-0.451537,-0.0325839,-0.923545
1470345142873773,-0.452448,-0.032669,-0.923205
1470345142896778,-0.453606,-0.0327752,-0.922845
1470345142917879,-0.454295,-0.0330445,-0.922585
1470345142934518,-0.454295,-0.0330445,-0.922585
1470345142956538,-0.454413,-0.0330979,-0.922591
1470345142977557,-0.455033,-0.0326752,-0.922472
1470345142993573,-0.45581,-0.032476,-0.922302
1470345143017129,-0.45581,-0.032476,-0.922302
1470345143038209,-0.455928,-0.0325293,-0.922309
1470345143054225,-0.455426,-0.0323502,-0.922017
1470345143076244,-0.455042,-0.0322244,-0.921732
1470345143099266,-0.455046,-0.0318352,-0.921257
1470345143114279,-0.455103,-0.0317289,-0.92129
1470345143136364,-0.455046,-0.0315076,-0.921049
1470345143159386,-0.454658,-0.0314437,-0.92103
1470345143174398,-0.455003,-0.0315779,-0.9209
1470345143202471,-0.455948,-0.0318931,-0.92077
1470345143225547,-0.457064,-0.0323955,-0.920471
1470345143233533,-0.457192,-0.0324743,-0.920627
1470345143256558,-0.457192,-0.0324743,-0.920627
1470345143278629,-0.4573,-0.0325019,-0.920484
1470345143293587,-0.457357,-0.0323956,-0.920516
1470345143317149,-0.458195,-0.032683,-0.920529
1470345143338715,-0.458313,-0.0327362,-0.920535
1470345143353686,-0.457915,-0.0329745,-0.920574
1470345143376734,-0.457375,-0.0329531,-0.920549
1470345143398813,-0.457432,-0.0328468,-0.920581
1470345143413740,-0.457432,-0.0328468,-0.920581
1470345143436644,-0.457432,-0.0328468,-0.920581
1470345143458662,-0.457819,-0.033089,-0.920127
1470345143473669,-0.457876,-0.0329826,-0.920159
1470345143496690,-0.458316,-0.0331803,-0.920003
1470345143519219,-0.459898,-0.0335132,-0.920528
1470345143533736,-0.462087,-0.0339656,-0.920788
1470345143556758,-0.463822,-0.0344347,-0.920847
1470345143578776,-0.465113,-0.0344407,-0.921121
1470345143600802,-0.465089,-0.0344514,-0.921089
1470345143616843,-0.465555,-0.0344617,-0.92144
1470345143638990,-0.466329,-0.0346533,-0.921746
1470345143659937,-0.466818,-0.034871,-0.922156
1470345143676902,-0.467165,-0.0348284,-0.9225
1470345143698923,-0.466802,-0.0341372,-0.9226
1470345143720447,-0.468234,-0.0343634,-0.92244
1470345143736969,-0.47043,-0.0349311,-0.921964
1470345143758989,-0.472072,-0.0355128,-0.921577
1470345143780036,-0.472189,-0.0360706,-0.921315
1470345143797026,-0.4714,-0.0362447,-0.921331
1470345143819580,-0.470716,-0.0368384,-0.921676
1470345143840134,-0.471613,-0.0373499,-0.92193
1470345143857135,-0.472297,-0.0377443,-0.922202
1470345143879211,-0.472335,-0.0380688,-0.922825
1470345143900256,-0.472159,-0.0382758,-0.923466
1470345143916780,-0.471698,-0.0385085,-0.924211
1470345143939307,-0.471252,-0.0387037,-0.92484
1470345143960329,-0.470778,-0.0386437,-0.925496
1470345143976340,-0.470304,-0.0385834,-0.926153
1470345143999362,-0.470304,-0.0385834,-0.926153
1470345144020446,-0.47009,-0.0384657,-0.926172
1470345144037023,-0.469583,-0.0383468,-0.926146
1470345144059064,-0.468966,-0.0382009,-0.926262
1470345144082061,-0.469084,-0.0382544,-0.926269
1470345144097074,-0.469084,-0.0382544,-0.926269
1470345144119645,-0.469084,-0.0382544,-0.926269
1470345144141724,-0.469179,-0.0383186,-0.926243
1470345144156737,-0.468679,-0.0387311,-0.926098
1470345144178791,-0.468185,-0.0389043,-0.926162
1470345144201813,-0.468307,-0.0392236,-0.926109
1470345144222856,-0.468307,-0.0392236,-0.926109
1470345144239579,-0.467746,-0.0394765,-0.925991
1470345144261639,-0.467015,-0.0395427,-0.926043
1470345144275613,-0.466545,-0.0395941,-0.925959
1470345144299635,-0.466,-0.0393052,-0.925992
1470345144321716,-0.464972,-0.0387758,-0.92585
1470345144336257,-0.464376,-0.0383535,-0.926058
1470345144359277,-0.464087,-0.0381128,-0.926222
1470345144381297,-0.464087,-0.0381128,-0.926222
1470345144387304,-0.464206,-0.0381664,-0.926228
1470345144403317,-0.464182,-0.0381769,-0.926196
1470345144424840,-0.463681,-0.0378185,-0.926378
1470345144447370,-0.46317,-0.0377624,-0.926619
1470345144463401,-0.46317,-0.0377624,-0.926619
1470345144484437,-0.463288,-0.037816,-0.926625
1470345144507455,-0.463116,-0.0381343,-0.926528
1470345144523474,-0.462849,-0.0383886,-0.926457
1470345144545119,-0.462451,-0.0382974,-0.926288
1470345144567174,-0.462219,-0.0381276,-0.926009
1470345144583153,-0.461669,-0.0380786,-0.925834
1470345144604188,-0.461224,-0.0377915,-0.925574
1470345144627204,-0.461281,-0.0376853,-0.925607
1470345144643724,-0.461468,-0.038102,-0.925262
1470345144664744,-0.461529,-0.0384391,-0.924762
1470345144686803,-0.46121,-0.0387375,-0.924392
1470345144703779,-0.460701,-0.0391251,-0.924101
1470345144725306,-0.460701,-0.0391251,-0.924101
1470345144747581,-0.460701,-0.0391251,-0.924101
1470345144763519,-0.46082,-0.0391786,-0.924107
1470345144784590,-0.46082,-0.0391786,-0.924107
1470345144807561,-0.46053,-0.0394437,-0.924005
1470345144823583,-0.460084,-0.0394853,-0.923954
1470345144844924,-0.459639,-0.0395269,-0.923903
1470345144867971,-0.458189,-0.0393583,-0.923953
1470345144883024,-0.457285,-0.0391499,-0.923761
1470345144904075,-0.457342,-0.0390437,-0.923793
1470345144927126,-0.457006,-0.0391132,-0.9236
1470345144943098,-0.456802,-0.0392001,-0.923295
1470345144964118,-0.456797,-0.0394404,-0.923088
1470345144987138,-0.456858,-0.0396001,-0.923063
1470345145005156,-0.456915,-0.0394938,-0.923095
1470345145024681,-0.457582,-0.0395949,-0.923274
1470345145047210,-0.4579,-0.0396236,-0.923851
1470345145065223,-0.4579,-0.0396236,-0.923851
1470345145084254,-0.458814,-0.0395299,-0.923984
1470345145107289,-0.458791,-0.0395402,-0.923952
1470345145125296,-0.458814,-0.0395299,-0.923984
1470345145144423,-0.458757,-0.0396361,-0.923952
1470345145167396,-0.458464,-0.0393073,-0.923699
1470345145185406,-0.458138,-0.0387466,-0.923237
1470345145204457,-0.457803,-0.0381602,-0.922626
1470345145227504,-0.457808,-0.0377703,-0.922151
1470345145244564,-0.458097,-0.037683,-0.92178
1470345145264586,-0.458154,-0.0375767,-0.921812
1470345145287632,-0.458272,-0.03763,-0.921819
1470345145304619,-0.459154,-0.0371918,-0.921563
1470345145324682,-0.460349,-0.0368057,-0.921651
1470345145346713,-0.461629,-0.0364575,-0.921565
1470345145364683,-0.462517,-0.0361075,-0.921727
1470345145384720,-0.463523,-0.0358111,-0.921896
1470345145406723,-0.463523,-0.0358111,-0.921896
1470345145425243,-0.463405,-0.0357578,-0.92189
1470345145444386,-0.463974,-0.0353779,-0.921475
1470345145467483,-0.46439,-0.0350401,-0.921054
1470345145484425,-0.464494,-0.0346497,-0.92029
1470345145507443,-0.464831,-0.0340999,-0.919597
1470345145527496,-0.465304,-0.0336553,-0.91921
1470345145544991,-0.465826,-0.0334067,-0.918914
1470345145565009,-0.466476,-0.0331262,-0.918592
1470345145587084,-0.467115,-0.0329303,-0.918303
1470345145605045,-0.467902,-0.0329311,-0.917813
1470345145626067,-0.468751,-0.0330909,-0.917297
1470345145646954,-0.469253,-0.0331177,-0.91691
1470345145664916,-0.46931,-0.0330114,-0.916943
1470345145685933,-0.469429,-0.0330644,-0.91695
1470345145706953,-0.469548,-0.0331173,-0.916956
1470345145725503,-0.469548,-0.0331173,-0.916956
1470345145746000,-0.469942,-0.0329416,-0.917186
1470345145767019,-0.469942,-0.0329416,-0.917186
1470345145785035,-0.470103,-0.0322673,-0.916931
1470345145806053,-0.47015,-0.0318055,-0.91661
1470345145827610,-0.469936,-0.0313596,-0.916424
1470345145852148,-0.469993,-0.0312533,-0.916458
1470345145866159,-0.469993,-0.0312533,-0.916458
1470345145887237,-0.470088,-0.0313171,-0.916432
1470345145909223,-0.470088,-0.0313171,-0.916432
1470345145927828,-0.470145,-0.0312108,-0.916465
1470345145947103,-0.470264,-0.0312638,-0.916472
1470345145965094,-0.470264,-0.0312638,-0.916472
1470345145987108,-0.470383,-0.0313167,-0.916479
1470345146007187,-0.470501,-0.0313696,-0.916485
1470345146025209,-0.470501,-0.0313696,-0.916485
1470345146047251,-0.470501,-0.0313696,-0.916485
1470345146067353,-0.470036,-0.0308551,-0.916402
1470345146085283,-0.469195,-0.0302401,-0.916182
1470345146107304,-0.468564,-0.0298053,-0.916207
1470345146127344,-0.468171,-0.0294764,-0.916246
1470345146145364,-0.467716,-0.0293171,-0.916517
1470345146167383,-0.467892,-0.0292637,-0.916557
1470345146187459,-0.468277,-0.0293904,-0.916843
1470345146205418,-0.468217,-0.029889,-0.91728
1470345146227500,-0.468393,-0.0301646,-0.917526
1470345146247177,-0.468393,-0.0301646,-0.917526
1470345146265165,-0.468393,-0.0301646,-0.917526
1470345146287182,-0.468545,-0.0301222,-0.917533
1470345146307244,-0.46816,-0.0303242,-0.917452
1470345146325308,-0.467714,-0.0303669,-0.917398
1470345146347509,-0.467714,-0.0303669,-0.917398
1470345146367528,-0.467714,-0.0303669,-0.917398
1470345146385593,-0.467771,-0.0302606,-0.917431
1470345146408563,-0.467889,-0.0303136,-0.917438
1470345146427630,-0.467609,-0.0302769,-0.917275
1470345146445149,-0.467609,-0.0302769,-0.917275
1470345146467169,-0.467666,-0.0301706,-0.917308
1470345146487243,-0.468116,-0.0303934,-0.917303
1470345146505267,-0.468235,-0.0304463,-0.917309
1470345146527828,-0.469184,-0.0307594,-0.917182
1470345146550149,-0.469302,-0.0308124,-0.917189
1470345146565162,-0.469302,-0.0308124,-0.917189
1470345146587186,-0.469959,-0.0309501,-0.91749
1470345146608200,-0.470077,-0.0310031,-0.917497
1470345146625268,-0.470077,-0.0310031,-0.917497
1470345146647344,-0.470077,-0.0310031,-0.917497
1470345146668363,-0.470077,-0.0310031,-0.917497
1470345146685391,-0.470077,-0.0310031,-0.917497
1470345146707399,-0.469516,-0.0306002,-0.916965
1470345146728932,-0.469363,-0.0303136,-0.916752
1470345146745588,-0.469363,-0.0303136,-0.916752
1470345146767470,-0.469539,-0.0302602,-0.916792
1470345146788489,-0.469529,-0.030234,-0.916643
1470345146805504,-0.469506,-0.0302449,-0.916611
1470345146827548,-0.470427,-0.0307429,-0.916897
1470345146849629,-0.470997,-0.0313478,-0.917104
1470345146864641,-0.471031,-0.0312525,-0.917105
1470345146887709,-0.471031,-0.0312525,-0.917105
1470345146909678,-0.471031,-0.0312525,-0.917105
1470345146930760,-0.471031,-0.0312525,-0.917105
1470345146946473,-0.47058,-0.0310297,-0.91711
1470345146969494,-0.469976,-0.0308493,-0.917108
1470345146990516,-0.469401,-0.0304838,-0.916693
1470345147014536,-0.469086,-0.0302134,-0.916324
1470345147029553,-0.468582,-0.0300338,-0.916031
1470345147043138,-0.46813,-0.0299874,-0.915563
1470345147067116,-0.46813,-0.0299874,-0.915563
1470345147089174,-0.468306,-0.0299339,-0.915603
1470345147103174,-0.468306,-0.0299339,-0.915603
1470345147126758,-0.468424,-0.0299867,-0.915609
1470345147148999,-0.468519,-0.0300506,-0.915584
1470345147163964,-0.468519,-0.0300506,-0.915584
1470345147186985,-0.468638,-0.0301034,-0.91559
1470345147209015,-0.468853,-0.0297152,-0.91584
1470345147223580,-0.468835,-0.0294868,-0.916017
1470345147246620,-0.469026,-0.0292202,-0.916414
1470345147269626,-0.46868,-0.0290877,-0.916543
1470345147283642,-0.468561,-0.0290348,-0.916536
1470345147306705,-0.46868,-0.0290877,-0.916543
1470345147329244,-0.468737,-0.0289814,-0.916576
1470345147343822,-0.468727,-0.0289552,-0.916427
1470345147366830,-0.468949,-0.0292741,-0.916083
1470345147388900,-0.469361,-0.0298314,-0.915868
1470345147409871,-0.470266,-0.0302128,-0.915592
1470345147426889,-0.471406,-0.0304342,-0.915389
1470345147448807,-0.471406,-0.0304342,-0.915389
1470345147469846,-0.471382,-0.0304452,-0.915357
1470345147486841,-0.471501,-0.030498,-0.915364
1470345147508900,-0.471619,-0.0305509,-0.915371
1470345147530435,-0.472048,-0.0302798,-0.915602
1470345147546935,-0.472605,-0.0300881,-0.91599
1470345147568998,-0.47283,-0.0300562,-0.916594
1470345147590002,-0.47283,-0.0300562,-0.916594
1470345147606988,-0.47283,-0.0300562,-0.916594
1470345147629544,-0.47283,-0.0300562,-0.916594
1470345147650067,-0.472553,-0.0299554,-0.916165
1470345147667082,-0.472005,-0.0298441,-0.915722
1470345147689106,-0.471691,-0.0299026,-0.915557
1470345147710122,-0.471448,-0.0297068,-0.91513
1470345147727184,-0.471742,-0.0297061,-0.915177
1470345147749207,-0.471837,-0.0297699,-0.915152
1470345147770225,-0.47178,-0.0298763,-0.915118
1470345147786258,-0.471837,-0.0297699,-0.915152
1470345147809308,-0.471956,-0.0298228,-0.915158
1470345147831879,-0.471956,-0.0298228,-0.915158
1470345147847399,-0.471956,-0.0298228,-0.915158
1470345147869418,-0.471956,-0.0298228,-0.915158
1470345147891438,-0.472075,-0.0298756,-0.915165
1470345147906500,-0.472075,-0.0298756,-0.915165
1470345147929524,-0.472132,-0.0297693,-0.915199
1470345147951577,-0.472132,-0.0297693,-0.915199
1470345147966590,-0.47225,-0.0298221,-0.915205
1470345147989611,-0.472021,-0.0299181,-0.914866
1470345148011632,-0.472197,-0.0298646,-0.914907
1470345148026206,-0.472967,-0.0299645,-0.914801
1470345148048812,-0.473699,-0.0302236,-0.91496
1470345148071778,-0.473818,-0.0302764,-0.914966
1470345148085796,-0.473818,-0.0302764,-0.914966
1470345148108856,-0.473927,-0.0303027,-0.914824
1470345148131880,-0.473984,-0.0301964,-0.914858
1470345148145993,-0.473984,-0.0301964,-0.914858
1470345148169022,-0.474046,-0.0303556,-0.914831
1470345148191993,-0.473718,-0.0299471,-0.915052
1470345148206003,-0.473765,-0.0298143,-0.914938
1470345148229585,-0.473765,-0.0298143,-0.914938
1470345148252150,-0.473366,-0.0297247,-0.914767
1470345148266190,-0.473313,-0.029767,-0.914469
1470345148289184,-0.473155,-0.0300485,-0.914252
1470345148311238,-0.472936,-0.0301709,-0.914061
1470345148333230,-0.473112,-0.0301173,-0.914102
1470345148349275,-0.473112,-0.0301173,-0.914102
1470345148371294,-0.473112,-0.0301173,-0.914102
1470345148392400,-0.473231,-0.0301701,-0.914108
1470345148409330,-0.473207,-0.0301811,-0.914076
1470345148431977,-0.473207,-0.0301811,-0.914076
1470345148452560,-0.473326,-0.0302339,-0.914083
1470345148469570,-0.473088,-0.0301283,-0.914069
1470345148491540,-0.472822,-0.0298791,-0.914263
1470345148514562,-0.472704,-0.0298263,-0.914257
1470345148529639,-0.472822,-0.0298791,-0.914263
1470345148551667,-0.472375,-0.0295931,-0.914004
1470345148572685,-0.472375,-0.0295931,-0.914004
1470345148588745,-0.472494,-0.0296459,-0.914011
1470345148611720,-0.472589,-0.0297096,-0.913985
1470345148633248,-0.472646,-0.0296033,-0.914019
1470345148648772,-0.472755,-0.0296296,-0.913877
1470345148671788,-0.472812,-0.0295233,-0.913911
1470345148692865,-0.472873,-0.0296824,-0.913884
1470345148708823,-0.472873,-0.0296824,-0.913884
1470345148731849,-0.472869,-0.0294169,-0.913944
1470345148753875,-0.472926,-0.0293106,-0.913978
1470345148768892,-0.472988,-0.0294697,-0.913951
1470345148791908,-0.473045,-0.0293634,-0.913985
1470345148813928,-0.473045,-0.0293634,-0.913985
1470345148828951,-0.473045,-0.0293634,-0.913985
1470345148859020,-0.472763,-0.0289973,-0.913617
1470345148874041,-0.4726,-0.0286841,-0.913256
1470345148889070,-0.472499,-0.0285301,-0.912869
1470345148912068,-0.472374,-0.0283871,-0.912449
1470345148934183,-0.472259,-0.0282706,-0.912177
1470345148948206,-0.472434,-0.0282169,-0.912218
1470345148971260,-0.472553,-0.0282695,-0.912225
1470345148994249,-0.473329,-0.0284588,-0.912533
1470345149008260,-0.473448,-0.0285115,-0.91254
1470345149031812,-0.473448,-0.0285115,-0.91254
1470345149054405,-0.473448,-0.0285115,-0.91254
1470345149068438,-0.473448,-0.0285115,-0.91254
1470345149091488,-0.47322,-0.0284326,-0.912675
1470345149114460,-0.472427,-0.0283446,-0.912747
1470345149128613,-0.471928,-0.0282555,-0.912867
1470345149151269,-0.471457,-0.027981,-0.912575
1470345149174291,-0.471185,-0.0276418,-0.912356
1470345149188305,-0.471202,-0.0275407,-0.911975
1470345149211323,-0.470579,-0.0273093,-0.911676
1470345149234350,-0.470369,-0.0271294,-0.91143
1470345149248922,-0.470369,-0.0271294,-0.91143
1470345149271913,-0.470487,-0.027182,-0.911436
1470345149293933,-0.471377,-0.0276624,-0.911542
1470345149314997,-0.471933,-0.027974,-0.91166
1470345149332018,-0.47249,-0.0282856,-0.911778
1470345149354155,-0.473398,-0.0284899,-0.911977
1470345149375167,-0.47414,-0.028445,-0.91208
1470345149392131,-0.47414,-0.028445,-0.91208
1470345149414152,-0.474463,-0.0280832,-0.91219
1470345149435677,-0.474739,-0.0278544,-0.912414
1470345149451797,-0.474383,-0.0276965,-0.912394
1470345149473874,-0.474463,-0.0275789,-0.91246
1470345149494835,-0.474504,-0.0273554,-0.911933
1470345149511850,-0.474346,-0.0273074,-0.911511
1470345149534404,-0.474239,-0.027392,-0.910915
1470345149556520,-0.474091,-0.0273706,-0.910642
1470345149571473,-0.474266,-0.0273167,-0.910683
1470345149594494,-0.474243,-0.0273279,-0.910651
1470345149615527,-0.475212,-0.0273611,-0.91062
1470345149632034,-0.475212,-0.0273611,-0.91062
1470345149654469,-0.475331,-0.0274137,-0.910627
1470345149675530,-0.475308,-0.0274249,-0.910594
1470345149691502,-0.475365,-0.0273184,-0.910628
1470345149714522,-0.475484,-0.027371,-0.910635
1470345149737080,-0.475043,-0.0275057,-0.910991
1470345149751693,-0.474473,-0.0275613,-0.911193
1470345149773738,-0.474473,-0.0275613,-0.911193
1470345149796763,-0.474073,-0.0274723,-0.911022
1470345149811726,-0.473583,-0.0275852,-0.910817
1470345149834269,-0.473235,-0.0276289,-0.910471
1470345149856793,-0.473016,-0.0277517,-0.910281
1470345149871806,-0.473249,-0.0280958,-0.910085
1470345149893878,-0.473249,-0.0280958,-0.910085
1470345149916901,-0.473249,-0.0280958,-0.910085
1470345149931364,-0.473368,-0.0281483,-0.910092
1470345149954494,-0.473425,-0.0280419,-0.910126
1470345149976513,-0.473544,-0.0280944,-0.910133
1470345149990526,-0.473696,-0.0280516,-0.910141
1470345150014548,-0.473812,-0.0284976,-0.910616
1470345150037074,-0.473812,-0.0284976,-0.910616
1470345150051090,-0.473812,-0.0284976,-0.910616
1470345150074110,-0.474154,-0.0283634,-0.910549
1470345150097132,-0.474154,-0.0283634,-0.910549
1470345150111144,-0.474154,-0.0283634,-0.910549
1470345150134176,-0.474053,-0.0282092,-0.910161
1470345150156203,-0.474109,-0.0282776,-0.909722
1470345150171218,-0.474109,-0.0282776,-0.909722
1470345150194238,-0.474284,-0.0282237,-0.909763
1470345150216272,-0.475065,-0.0283481,-0.909807
1470345150238283,-0.475749,-0.0284089,-0.909876
1470345150254314,-0.475868,-0.0284614,-0.909883
1470345150277337,-0.475845,-0.0284725,-0.909851
1470345150298354,-0.475845,-0.0284725,-0.909851
1470345150314370,-0.475964,-0.028525,-0.909858
1470345150336896,-0.475964,-0.028525,-0.909858
1470345150357419,-0.475964,-0.028525,-0.909858
1470345150374435,-0.476292,-0.0284284,-0.909907
1470345150396453,-0.477143,-0.0284087,-0.90987
1470345150417531,-0.477703,-0.0283258,-0.90952
1470345150434504,-0.477754,-0.0281282,-0.909142
1470345150456585,-0.477495,-0.0277508,-0.908808
1470345150477608,-0.477494,-0.0279249,-0.908334
1470345150494619,-0.477551,-0.0278185,-0.908369
1470345150516688,-0.47767,-0.0278709,-0.908375
1470345150538241,-0.47767,-0.0278709,-0.908375
1470345150553893,-0.477789,-0.0279233,-0.908382
1470345150576827,-0.477908,-0.0279757,-0.908389
1470345150597885,-0.477884,-0.0279869,-0.908357
1470345150613861,-0.478003,-0.0280393,-0.908364
1470345150636901,-0.478111,-0.0275612,-0.908493
1470345150658963,-0.477821,-0.0273242,-0.908655
1470345150673975,-0.47726,-0.0270775,-0.908801
1470345150696998,-0.47727,-0.0271041,-0.908949
1470345150719019,-0.477139,-0.0266953,-0.908591
1470345150734567,-0.476975,-0.0263817,-0.908231
1470345150757106,-0.476702,-0.0260424,-0.908013
1470345150779128,-0.476525,-0.0257668,-0.907769
1470345150794190,-0.476644,-0.0258192,-0.907776
1470345150816249,-0.476644,-0.0258192,-0.907776
1470345150839247,-0.477538,-0.02573,-0.90789
1470345150853928,-0.478205,-0.0255629,-0.908138
1470345150876985,-0.478481,-0.0253339,-0.908364
1470345150898968,-0.478481,-0.0253339,-0.908364
1470345150913982,-0.478481,-0.0253339,-0.908364
1470345150937012,-0.478657,-0.0252798,-0.908405
1470345150959551,-0.478657,-0.0252798,-0.908405
1470345150973564,-0.478472,-0.0251333,-0.908689
1470345150996583,-0.477897,-0.0249246,-0.908951
1470345151019604,-0.477897,-0.0249246,-0.908951
1470345151033652,-0.477789,-0.0241746,-0.908423
1470345151071372,-0.477273,-0.0239691,-0.907981
1470345151079323,-0.476837,-0.0236461,-0.907606
1470345151093397,-0.476654,-0.0231052,-0.907424
1470345151116359,-0.477633,-0.0228335,-0.907342
1470345151139409,-0.478802,-0.0226891,-0.90721
1470345151159934,-0.479516,-0.0223888,-0.907346
1470345151176950,-0.479516,-0.0223888,-0.907346
1470345151198966,-0.479516,-0.0223888,-0.907346
1470345151220000,-0.479516,-0.0223888,-0.907346
1470345151237020,-0.479516,-0.0223888,-0.907346
1470345151259674,-0.479635,-0.0224411,-0.907354
1470345151280725,-0.479136,-0.0223536,-0.907471
1470345151296708,-0.478452,-0.0226235,-0.9076
1470345151318721,-0.478452,-0.0226235,-0.9076
1470345151340763,-0.477948,-0.0227745,-0.907508
1470345151357034,-0.478061,-0.0230655,-0.907305
1470345151379057,-0.477907,-0.0232824,-0.906823
1470345151400100,-0.477691,-0.0233405,-0.906368
1470345151417088,-0.477748,-0.023234,-0.906402
1470345151439611,-0.477867,-0.0232863,-0.906409
1470345151460135,-0.478752,-0.02317,-0.906377
1470345151477151,-0.479377,-0.0234009,-0.906678
1470345151499170,-0.479553,-0.0233466,-0.906719
1470345151520188,-0.480139,-0.0232974,-0.906902
1470345151537223,-0.480139,-0.0232974,-0.906902
1470345151559271,-0.480139,-0.0232974,-0.906902
1470345151580305,-0.480143,-0.0234538,-0.907578
1470345151596332,-0.480436,-0.023847,-0.908092
1470345151619324,-0.481095,-0.0239838,-0.908396
1470345151641858,-0.481828,-0.023911,-0.908355
1470345151655940,-0.481947,-0.0239633,-0.908362
1470345151678964,-0.482059,-0.0239237,-0.907957
1470345151701981,-0.482069,-0.0239505,-0.908105
1470345151716994,-0.482235,-0.0238696,-0.907999
1470345151739610,-0.482609,-0.0240352,-0.908402
1470345151761691,-0.483121,-0.0239767,-0.908907
1470345151775705,-0.483224,-0.0236295,-0.909566
1470345151799727,-0.483382,-0.0233489,-0.909787
1470345151822746,-0.483382,-0.0233489,-0.909787
1470345151836319,-0.483477,-0.0234129,-0.909761
1470345151858869,-0.483249,-0.023335,-0.909895
1470345151881882,-0.48276,-0.0232738,-0.91016
1470345151895938,-0.48276,-0.0232738,-0.91016
1470345151918914,-0.48276,-0.0232738,-0.91016
1470345151942001,-0.481844,-0.0228045,-0.91002
1470345151956054,-0.479476,-0.0213869,-0.908976
1470345151979041,-0.47966,-0.0204135,-0.907559
1470345152002060,-0.480338,-0.019657,-0.906555
1470345152016074,-0.480395,-0.0195505,-0.90659
1470345152039600,-0.480731,-0.0195452,-0.907053
1470345152061691,-0.481178,-0.0198957,-0.907577
1470345152075722,-0.481914,-0.020483,-0.907939
1470345152098721,-0.481695,-0.0213308,-0.908413
1470345152121739,-0.480911,-0.0221053,-0.908557
1470345152143261,-0.479692,-0.0225557,-0.908327
1470345152159315,-0.479509,-0.0225184,-0.907874
1470345152182337,-0.478671,-0.022501,-0.907792
1470345152203353,-0.477028,-0.0220415,-0.90743
1470345152205357,-0.475065,-0.0220999,-0.907632
1470345152224375,-0.472935,-0.0223023,-0.908206
1470345152248411,-0.471965,-0.0219411,-0.908032
1470345152265422,-0.471806,-0.021894,-0.907611
1470345152284438,-0.47177,-0.0221646,-0.907137
1470345152307457,-0.471375,-0.0223422,-0.906905
1470345152325473,-0.471275,-0.0225179,-0.906721
1470345152345001,-0.47145,-0.0224636,-0.906762
1470345152367526,-0.471427,-0.0224749,-0.90673
1470345152385540,-0.471484,-0.0223683,-0.906764
1470345152404558,-0.471541,-0.0222617,-0.906798
1470345152427576,-0.471603,-0.0224206,-0.906771
1470345152445116,-0.471546,-0.0225272,-0.906737
1470345152464224,-0.472113,-0.0228637,-0.907003
1470345152487244,-0.472903,-0.0230133,-0.907197
1470345152505260,-0.472846,-0.0231199,-0.907163
1470345152525280,-0.472965,-0.0231722,-0.90717
1470345152547519,-0.472135,-0.0230278,-0.906563
1470345152569512,-0.471286,-0.0226559,-0.906133
1470345152584528,-0.471333,-0.0225231,-0.906019
1470345152607573,-0.472186,-0.0219334,-0.905988
1470345152624558,-0.473059,-0.0217906,-0.905806
1470345152645080,-0.473178,-0.0218428,-0.905813
1470345152667105,-0.473461,-0.0222077,-0.90618
1470345152690128,-0.473863,-0.022625,-0.906553
1470345152705139,-0.474384,-0.0230947,-0.906933
1470345152727184,-0.474871,-0.0235495,-0.907134
1470345152749259,-0.47499,-0.0236018,-0.90714
1470345152765221,-0.47499,-0.0236018,-0.90714
1470345152787302,-0.47498,-0.0235754,-0.906992
1470345152810283,-0.474828,-0.0236183,-0.906984
1470345152825289,-0.474085,-0.0233356,-0.906676
1470345152847087,-0.473869,-0.0233947,-0.906221
1470345152870008,-0.473869,-0.0233947,-0.906221
1470345152885053,-0.473926,-0.0232882,-0.906255
1470345152907098,-0.474101,-0.0232339,-0.906297
1470345152930076,-0.474553,-0.0234542,-0.906292
1470345152945115,-0.475011,-0.0239399,-0.906227
1470345152967346,-0.475396,-0.0242403,-0.90604
1470345152990311,-0.475802,-0.0245936,-0.90615
1470345153005313,-0.475802,-0.0245936,-0.90615
1470345153027356,-0.475864,-0.0247524,-0.906123
1470345153049951,-0.475921,-0.0246459,-0.906157
1470345153064941,-0.47604,-0.0246981,-0.906164
1470345153086962,-0.475006,-0.0241788,-0.906017
1470345153109978,-0.473713,-0.0232833,-0.905537
1470345153125043,-0.472881,-0.0228101,-0.904728
1470345153147150,-0.472252,-0.0228198,-0.904219
1470345153169168,-0.471445,-0.0230585,-0.904111
1470345153186184,-0.470809,-0.0231961,-0.90413
1470345153207202,-0.470757,-0.0230635,-0.904305
1470345153229242,-0.471599,-0.0233445,-0.904323
1470345153246252,-0.472662,-0.0238312,-0.904734
1470345153266945,-0.473335,-0.0242572,-0.905123
1470345153289966,-0.47339,-0.0245439,-0.905623
1470345153305981,-0.473509,-0.0245962,-0.90563
1470345153327042,-0.472945,-0.0249185,-0.905769
1470345153350070,-0.472725,-0.025435,-0.906046
1470345153366131,-0.473229,-0.0257878,-0.905866
1470345153387161,-0.473356,-0.0257121,-0.905345
1470345153410146,-0.473361,-0.0252548,-0.904615
1470345153426135,-0.473532,-0.0247166,-0.903778
1470345153447186,-0.474715,-0.024862,-0.90373
1470345153470211,-0.475344,-0.0250273,-0.903766
1470345153486225,-0.475441,-0.0245223,-0.903748
1470345153507299,-0.475617,-0.0244678,-0.903789
1470345153529263,-0.475726,-0.0244934,-0.903648
1470345153547883,-0.475711,-0.0240271,-0.904034
1470345153566902,-0.476097,-0.0236484,-0.904591
1470345153589922,-0.476659,-0.0237197,-0.904918
1470345153607991,-0.476659,-0.0237197,-0.904918
1470345153626974,-0.476095,-0.0240424,-0.905057
1470345153650194,-0.474973,-0.024055,-0.905077
1470345153667213,-0.474973,-0.024055,-0.905077
1470345153687310,-0.475254,-0.0242652,-0.904768
1470345153709246,-0.474929,-0.0242986,-0.904454
1470345153727263,-0.47426,-0.0245315,-0.904471
1470345153747291,-0.47425,-0.024505,-0.904323
1470345153769471,-0.474369,-0.0245572,-0.90433
1470345153787486,-0.474426,-0.0244506,-0.904364
1470345153807507,-0.474545,-0.0245028,-0.904371
1470345153837536,-0.474647,-0.0246568,-0.904757
1470345153847544,-0.474766,-0.024709,-0.904764
1470345153867084,-0.474315,-0.0248185,-0.904971
1470345153890104,-0.473968,-0.0246883,-0.905098
1470345153908170,-0.473974,-0.0249536,-0.905037
1470345153927125,-0.473477,-0.025196,-0.905358
1470345153957167,-0.473467,-0.0251696,-0.90521
1470345153968223,-0.473628,-0.0246484,-0.905637
1470345153987194,-0.473317,-0.0238543,-0.905772
1470345154010308,-0.473256,-0.0227978,-0.905603
1470345154028309,-0.472674,-0.0212721,-0.905053
1470345154047326,-0.472175,-0.0200695,-0.904037
1470345154070073,-0.471496,-0.0193788,-0.903709
1470345154088146,-0.471236,-0.0199008,-0.903571
1470345154107145,-0.470797,-0.0210459,-0.903386
1470345154130126,-0.469507,-0.0222768,-0.903502
1470345154147677,-0.468532,-0.0231652,-0.903498
1470345154168705,-0.46841,-0.0242497,-0.903481
1470345154189723,-0.468782,-0.025595,-0.903788
1470345154207738,-0.46929,-0.0266054,-0.904015
1470345154228756,-0.469341,-0.0271304,-0.904308
1470345154249786,-0.469135,-0.0276095,-0.90447
1470345154267816,-0.468396,-0.0279862,-0.904573
1470345154288821,-0.46633,-0.027629,-0.904461
1470345154309840,-0.464864,-0.027688,-0.904144
1470345154327857,-0.464121,-0.028264,-0.903544
1470345154348448,-0.462961,-0.0287021,-0.902481
1470345154369615,-0.461471,-0.0293026,-0.901637
1470345154387627,-0.460025,-0.0298339,-0.900944
1470345154416653,-0.458909,-0.0300271,-0.900504
1470345154429667,-0.457856,-0.0298117,-0.90004
1470345154455199,-0.457294,-0.029417,-0.899513
1470345154468211,-0.457243,-0.0294622,-0.899217
1470345154489231,-0.457361,-0.0295142,-0.899223
1470345154508280,-0.457305,-0.0296211,-0.899191
1470345154530381,-0.457424,-0.0296732,-0.899197
1470345154549944,-0.457292,-0.0296573,-0.899307
1470345154568016,-0.456664,-0.0293149,-0.899744
1470345154589979,-0.45633,-0.0289696,-0.900227
1470345154609997,-0.45633,-0.0289696,-0.900227
1470345154628047,-0.45633,-0.0289696,-0.900227
1470345154650486,-0.457277,-0.028379,-0.899894
1470345154669523,-0.457882,-0.0275958,-0.899427
1470345154687518,-0.457659,-0.0268875,-0.899299
1470345154712637,-0.457142,-0.0267501,-0.899125
1470345154730557,-0.45643,-0.0265494,-0.899265
1470345154747109,-0.456311,-0.0264974,-0.899259
1470345154769414,-0.455796,-0.0265389,-0.898614
1470345154790432,-0.454139,-0.027139,-0.897474
1470345154806446,-0.453903,-0.0273569,-0.896028
1470345154829468,-0.454615,-0.0281182,-0.894248
1470345154850502,-0.455004,-0.0293678,-0.892894
1470345154866515,-0.454336,-0.0308576,-0.89181
1470345154889535,-0.453822,-0.0323029,-0.890735
1470345154910587,-0.453993,-0.033562,-0.88993
1470345154926570,-0.455035,-0.0344301,-0.889134
1470345154949126,-0.455777,-0.0345551,-0.88876
1470345154970186,-0.456313,-0.0342393,-0.888579
1470345154987199,-0.456177,-0.0334157,-0.888892
1470345155009252,-0.456326,-0.032322,-0.889308
1470345155030262,-0.457459,-0.0314314,-0.889595
1470345155047257,-0.459083,-0.0307114,-0.889796
1470345155068798,-0.460688,-0.0303301,-0.89017
1470345155090801,-0.462141,-0.0302343,-0.890333
1470345155106817,-0.463824,-0.0302158,-0.890363
1470345155128838,-0.464663,-0.0301621,-0.890173
1470345155150660,-0.465172,-0.0302717,-0.8902
1470345155166625,-0.465741,-0.0302113,-0.889997
1470345155189680,-0.466406,-0.0302129,-0.889768
1470345155210663,-0.466525,-0.0302644,-0.889775
1470345155226678,-0.466589,-0.030423,-0.889749
1470345155249284,-0.466229,-0.0310989,-0.889289
1470345155270468,-0.465706,-0.0308741,-0.888705
1470345155286480,-0.46584,-0.0306495,-0.888803
1470345155309500,-0.466495,-0.0306243,-0.888427
1470345155330532,-0.466551,-0.0305172,-0.88846
1470345155347037,-0.466216,-0.0305918,-0.888266
1470345155368877,-0.466335,-0.0306432,-0.888272
1470345155389899,-0.46651,-0.0305876,-0.888312
1470345155406868,-0.46726,-0.0313676,-0.888349
1470345155428889,-0.468232,-0.0319587,-0.88831
1470345155451938,-0.468342,-0.0319837,-0.88817
1470345155466950,-0.467937,-0.0323549,-0.88873
1470345155489975,-0.468038,-0.0322672,-0.88932
1470345155511991,-0.468537,-0.0325033,-0.889872
1470345155527005,-0.468536,-0.0328954,-0.890338
1470345155549535,-0.468246,-0.032989,-0.890702
1470345155572062,-0.467415,-0.0330691,-0.891039
1470345155586074,-0.466401,-0.033178,-0.89119
1470345155609163,-0.466281,-0.0331264,-0.891184
1470345155632117,-0.466689,-0.0333242,-0.890619
1470345155646233,-0.466589,-0.0334122,-0.890029
1470345155669295,-0.466148,-0.0333982,-0.889714
1470345155691336,-0.465979,-0.0333907,-0.889412
1470345155706316,-0.466098,-0.0334423,-0.889418
1470345155729339,-0.46635,-0.033748,-0.88911
1470345155752370,-0.46619,-0.0340063,-0.88875
1470345155766381,-0.46596,-0.0341689,-0.888678
1470345155789401,-0.465579,-0.0343768,-0.8886
1470345155811499,-0.465125,-0.0343999,-0.888401
1470345155826435,-0.464529,-0.0344947,-0.888342
1470345155849524,-0.463598,-0.0340724,-0.888323
1470345155871273,-0.463218,-0.0338014,-0.888657
1470345155886242,-0.463297,-0.0333317,-0.888748
1470345155909291,-0.463,-0.0327679,-0.888704
1470345155931283,-0.462538,-0.0322858,-0.888769
1470345155953475,-0.462657,-0.0323373,-0.888776
1470345155969489,-0.462657,-0.0323373,-0.888776
1470345155991512,-0.462713,-0.0322302,-0.888808
1470345156012552,-0.462832,-0.0322817,-0.888815
1470345156029542,-0.462506,-0.0326223,-0.888564
1470345156051606,-0.462354,-0.0329073,-0.888351
1470345156072669,-0.462354,-0.0329073,-0.888351
1470345156089640,-0.462647,-0.0333824,-0.887985
1470345156111662,-0.462675,-0.0337889,-0.887344
1470345156132710,-0.46229,-0.0339087,-0.886856
1470345156149740,-0.462409,-0.0339601,-0.886863
1470345156171801,-0.462409,-0.0339601,-0.886863
1470345156192853,-0.463419,-0.033521,-0.886506
1470345156208868,-0.464525,-0.0329036,-0.88633
1470345156231859,-0.465535,-0.0324638,-0.885975
1470345156253039,-0.465655,-0.0321237,-0.885516
1470345156269019,-0.465927,-0.031738,-0.885064
1470345156292061,-0.466762,-0.0315925,-0.884466
1470345156313101,-0.468236,-0.0316323,-0.884048
1470345156329122,-0.46943,-0.0316394,-0.883471
1470345156351914,-0.469959,-0.0318859,-0.882915
1470345156373874,-0.470185,-0.0318717,-0.882372
1470345156388886,-0.471279,-0.0318793,-0.882083
1470345156411908,-0.472809,-0.0318093,-0.881702
1470345156433942,-0.47372,-0.0318456,-0.881227
1470345156449464,-0.473987,-0.0317602,-0.880833
1470345156471502,-0.474547,-0.0314311,-0.880692
1470345156501531,-0.476915,-0.0311265,-0.880596
1470345156509536,-0.479481,-0.0308804,-0.88019
1470345156531565,-0.481009,-0.0308724,-0.880076
1470345156554298,-0.48152,-0.0307417,-0.880312
1470345156568313,-0.482259,-0.0300973,-0.880653
1470345156591333,-0.483442,-0.0296608,-0.880614
1470345156614349,-0.484833,-0.0293097,-0.88041
1470345156628406,-0.485791,-0.0292083,-0.879829
1470345156651420,-0.486257,-0.0290539,-0.879511
1470345156673916,-0.486939,-0.0290119,-0.879175
1470345156688873,-0.488069,-0.0289189,-0.878896
1470345156711898,-0.488189,-0.0289697,-0.878903
1470345156733995,-0.489278,-0.0290228,-0.877601
1470345156748933,-0.490028,-0.0301055,-0.876175
1470345156771984,-0.488455,-0.0316952,-0.874917
1470345156794005,-0.487322,-0.0294727,-0.874214
1470345156809019,-0.488583,-0.027786,-0.874641
1470345156832038,-0.491683,-0.0285532,-0.875753
1470345156854138,-0.493937,-0.0291301,-0.875972
1470345156876124,-0.493408,-0.0288254,-0.876264
1470345156892132,-0.49071,-0.028934,-0.876237
1470345156914215,-0.489841,-0.0293403,-0.87507
1470345156935215,-0.488479,-0.0284093,-0.873895
1470345156951719,-0.48682,-0.0274872,-0.875089
1470345156973988,-0.488177,-0.027434,-0.876045
1470345156996009,-0.493861,-0.0288687,-0.876729
1470345157012023,-0.50227,-0.0315737,-0.877217
1470345157034071,-0.514698,-0.0365041,-0.877835
1470345157055655,-0.533524,-0.0434668,-0.877326
1470345157071671,-0.556965,-0.0524214,-0.872774
1470345157094690,-0.576398,-0.0595647,-0.865273
1470345157116731,-0.577846,-0.064959,-0.855318
1470345157131724,-0.569856,-0.0691224,-0.840161
1470345157154595,-0.547595,-0.0684663,-0.8164
1470345157175664,-0.533027,-0.0666312,-0.783471
1470345157191629,-0.546582,-0.0648464,-0.741153
1470345157214649,-0.566648,-0.059896,-0.696663
1470345157235668,-0.583268,-0.0517757,-0.659627
1470345157251187,-0.586541,-0.0423881,-0.626961
1470345157274236,-0.583014,-0.0361291,-0.59893
1470345157295321,-0.575755,-0.0343473,-0.576252
1470345157311295,-0.576171,-0.0364347,-0.558139
1470345157334291,-0.580495,-0.0384765,-0.545886
1470345157356377,-0.583116,-0.0382333,-0.537928
1470345157371361,-0.578242,-0.0361693,-0.533849
1470345157394427,-0.570971,-0.0338703,-0.53247
1470345157416493,-0.565958,-0.031833,-0.532088
1470345157431415,-0.564661,-0.0297964,-0.53219
1470345157454447,-0.566537,-0.0313248,-0.532924
1470345157476478,-0.571033,-0.0301311,-0.532234
1470345157491479,-0.572774,-0.0275452,-0.534275
1470345157514501,-0.565418,-0.0250011,-0.540198
1470345157537024,-0.561273,-0.0225212,-0.54658
1470345157551536,-0.554847,-0.0206982,-0.557068
1470345157574592,-0.54631,-0.0183296,-0.571937
1470345157596612,-0.535449,-0.0169309,-0.591351
1470345157617686,-0.524936,-0.0197413,-0.614599
1470345157634663,-0.518403,-0.0275038,-0.64239
1470345157658264,-0.513906,-0.0376428,-0.672976
1470345157678282,-0.50844,-0.0468814,-0.703804
1470345157694296,-0.502883,-0.0573289,-0.731191
1470345157716331,-0.502149,-0.070614,-0.753131
1470345157737974,-0.505269,-0.0859039,-0.769802
1470345157753987,-0.510161,-0.0965435,-0.780267
1470345157777004,-0.513815,-0.101076,-0.784218
1470345157798023,-0.515641,-0.104085,-0.784415
1470345157814040,-0.512735,-0.105976,-0.78335
1470345157837058,-0.503671,-0.105188,-0.782635
1470345157858110,-0.494212,-0.103671,-0.783886
1470345157874109,-0.486025,-0.103811,-0.786142
1470345157897125,-0.480457,-0.103591,-0.788101
1470345157918169,-0.474415,-0.10155,-0.790185
1470345157934159,-0.470424,-0.100736,-0.794133
1470345157957204,-0.469898,-0.100281,-0.799001
1470345157978226,-0.471359,-0.0994402,-0.801747
1470345157994275,-0.467813,-0.0988524,-0.802786
1470345158016292,-0.460935,-0.0973374,-0.8037
1470345158038418,-0.454475,-0.0959414,-0.805062
1470345158054213,-0.450289,-0.0951671,-0.805414
1470345158077234,-0.446706,-0.0949642,-0.805963
1470345158098257,-0.44371,-0.0950056,-0.8065
1470345158114267,-0.441253,-0.0944137,-0.807311
1470345158137288,-0.439603,-0.0932789,-0.808433
1470345158158203,-0.439303,-0.0925289,-0.809805
1470345158174213,-0.439851,-0.0919916,-0.811019
1470345158197234,-0.440535,-0.0910327,-0.81137
1470345158218254,-0.439976,-0.0905486,-0.812153
1470345158234267,-0.438309,-0.0900583,-0.813116
1470345158257170,-0.438389,-0.0896397,-0.814017
1470345158279191,-0.43859,-0.0892698,-0.814922
1470345158294204,-0.438851,-0.088844,-0.816145
1470345158317225,-0.438982,-0.0883168,-0.817074
1470345158339751,-0.438313,-0.0879693,-0.817368
1470345158354268,-0.436787,-0.0877234,-0.817486
1470345158377290,-0.436077,-0.0877703,-0.817308
1470345158399309,-0.435195,-0.0885215,-0.816977
1470345158414323,-0.434521,-0.0892005,-0.817615
1470345158436360,-0.4353,-0.0896951,-0.818237
1470345158459378,-0.437142,-0.0895535,-0.818226
1470345158473394,-0.43809,-0.0895777,-0.818265
1470345158497413,-0.43826,-0.0895172,-0.818296
1470345158519433,-0.437297,-0.0888681,-0.817983
1470345158533446,-0.43513,-0.0884295,-0.817799
1470345158557324,-0.433745,-0.0884727,-0.817729
1470345158579345,-0.432593,-0.0885609,-0.817377
1470345158600365,-0.432544,-0.0886702,-0.817351
1470345158616378,-0.433366,-0.0890284,-0.817853
1470345158639405,-0.434698,-0.0887955,-0.817832
1470345158652919,-0.434774,-0.0885697,-0.817343
1470345158676299,-0.435038,-0.0885238,-0.816689
1470345158699318,-0.436606,-0.0879503,-0.81592
1470345158713331,-0.438054,-0.087586,-0.814558
1470345158737353,-0.439,-0.0869248,-0.81407
1470345158759385,-0.439996,-0.0857836,-0.813653
1470345158773398,-0.441458,-0.0852381,-0.813323
1470345158796417,-0.44285,-0.085492,-0.813461
1470345158819440,-0.444466,-0.0862457,-0.813676
1470345158840462,-0.446254,-0.0869389,-0.813922
1470345158856481,-0.448996,-0.0875414,-0.813665
1470345158879501,-0.451295,-0.0881835,-0.813229
1470345158900522,-0.452615,-0.088236,-0.812739
1470345158916534,-0.454458,-0.0887052,-0.812467
1470345158939575,-0.45662,-0.0887859,-0.81231
1470345158960330,-0.459566,-0.0885607,-0.811708
1470345158976345,-0.462811,-0.0884759,-0.810514
1470345158999363,-0.465974,-0.0882713,-0.809098
1470345159020382,-0.468817,-0.0881501,-0.807508
1470345159036396,-0.471483,-0.0877855,-0.805831
1470345159059424,-0.475178,-0.0874443,-0.803498
1470345159080443,-0.478026,-0.0872552,-0.801271
1470345159096457,-0.480129,-0.0864749,-0.798965
1470345159119479,-0.481841,-0.0853119,-0.796849
1470345159140501,-0.484274,-0.0837308,-0.79462
1470345159157092,-0.487077,-0.0819474,-0.79261
1470345159179111,-0.489894,-0.0804894,-0.790807
1470345159200130,-0.492533,-0.0788469,-0.789572
1470345159217146,-0.495937,-0.0773796,-0.788374
1470345159239671,-0.49955,-0.0756778,-0.786969
1470345159261692,-0.502716,-0.0741399,-0.785925
1470345159276705,-0.505471,-0.072871,-0.784893
1470345159299727,-0.507339,-0.0715985,-0.784401
1470345159321747,-0.510032,-0.0702311,-0.783693
1470345159336759,-0.513192,-0.0690245,-0.78284
1470345159359825,-0.516235,-0.0681342,-0.781929
1470345159381842,-0.51848,-0.0671365,-0.780846
1470345159395853,-0.520064,-0.0656746,-0.779547
1470345159419875,-0.520813,-0.0642768,-0.778322
1470345159441901,-0.521939,-0.0629538,-0.777228
1470345159456448,-0.522836,-0.0616305,-0.77655
1470345159480480,-0.523674,-0.0604856,-0.776091
1470345159508500,-0.524339,-0.0594037,-0.775594
1470345159516502,-0.524962,-0.0584611,-0.775204
1470345159539545,-0.525394,-0.0576214,-0.774885
1470345159561934,-0.525745,-0.0570608,-0.77478
1470345159575947,-0.526452,-0.0566761,-0.774803
1470345159599969,-0.527001,-0.0564164,-0.775069
1470345159621990,-0.527425,-0.0561113,-0.775329
1470345159636001,-0.5276,-0.0557155,-0.775576
1470345159659731,-0.527725,-0.0557609,-0.775582
1470345159681750,-0.527648,-0.0556066,-0.775611
1470345159695763,-0.527812,-0.0558859,-0.775807
1470345159719785,-0.527528,-0.0562977,-0.775836
1470345159742338,-0.526821,-0.0566821,-0.775812
1470345159780413,-0.526414,-0.0573207,-0.77574
1470345159782411,-0.526414,-0.0573207,-0.77574
1470345159801430,-0.526462,-0.0572118,-0.775775
1470345159822448,-0.526102,-0.0571367,-0.776039
1470345159839480,-0.525566,-0.0572259,-0.776654
1470345159861531,-0.524989,-0.0574542,-0.777376
1470345159882550,-0.524482,-0.0578061,-0.77793
1470345159899565,-0.52467,-0.0584493,-0.778457
1470345159921584,-0.524372,-0.0593039,-0.779036
1470345159943109,-0.524216,-0.0599325,-0.780112
1470345159959643,-0.524376,-0.0603124,-0.780701
1470345159981667,-0.524312,-0.061197,-0.781011
1470345160002759,-0.523111,-0.0611547,-0.781202
1470345160009691,-0.521669,-0.061051,-0.781524
1470345160024701,-0.520912,-0.0612701,-0.781564
1470345160047731,-0.520819,-0.0613877,-0.781104
1470345160069770,-0.521022,-0.0618605,-0.780988
1470345160084794,-0.520475,-0.0625832,-0.781056
1470345160107792,-0.519979,-0.0634692,-0.781065
1470345160129823,-0.519694,-0.064525,-0.781305
1470345160145427,-0.519541,-0.0656571,-0.781693
1470345160167936,-0.519307,-0.0667343,-0.782504
1470345160189875,-0.519383,-0.0673916,-0.783313
1470345160204900,-0.51981,-0.06749,-0.78401
1470345160226906,-0.52,-0.0674269,-0.784444
1470345160249931,-0.519975,-0.0672938,-0.785041
1470345160264950,-0.519568,-0.0669915,-0.785478
1470345160286989,-0.518744,-0.0664175,-0.7861
1470345160309991,-0.517824,-0.0657884,-0.786749
1470345160325060,-0.517166,-0.0654544,-0.787064
1470345160347555,-0.516883,-0.0655313,-0.787303
1470345160370177,-0.516583,-0.0658814,-0.787054
1470345160392239,-0.516311,-0.0664954,-0.786745
1470345160407229,-0.515402,-0.0670091,-0.786549
1470345160430217,-0.515075,-0.067702,-0.786065
1470345160445239,-0.514673,-0.0682399,-0.785609
1470345160467219,-0.514091,-0.0686675,-0.785602
1470345160490237,-0.513836,-0.0690083,-0.785783
1470345160506253,-0.513836,-0.0690083,-0.785783
1470345160527270,-0.51358,-0.0693491,-0.785963
1470345160549855,-0.51329,-0.0693956,-0.786061
1470345160564372,-0.512924,-0.069287,-0.786187
1470345160587408,-0.511958,-0.0690011,-0.786206
1470345160609442,-0.511243,-0.0680099,-0.786105
1470345160624447,-0.510761,-0.0661721,-0.786117
1470345160647492,-0.509755,-0.0650639,-0.785072
1470345160669604,-0.508872,-0.0637306,-0.784126
1470345160684532,-0.509833,-0.062401,-0.784254
1470345160707550,-0.512666,-0.0616755,-0.785199
1470345160729569,-0.515328,-0.061622,-0.785813
1470345160746604,-0.515998,-0.0617816,-0.786381
1470345160767661,-0.516334,-0.0624989,-0.787456
1470345160789686,-0.516757,-0.0633026,-0.788251
1470345160806688,-0.516818,-0.0636262,-0.78887
1470345160834713,-0.516841,-0.0639894,-0.789204
1470345160850232,-0.516663,-0.0641512,-0.789559
1470345160866755,-0.516562,-0.0647403,-0.789793
1470345160887769,-0.516562,-0.0647403,-0.789793
1470345160909803,-0.51594,-0.0649716,-0.790097
1470345160925804,-0.514874,-0.0650001,-0.790442
1470345160947403,-0.514922,-0.0648914,-0.790476
1470345160969969,-0.514798,-0.0648449,-0.79047
1470345160986023,-0.515103,-0.0651317,-0.790564
1470345161007049,-0.515477,-0.0655434,-0.790489
1470345161030062,-0.515629,-0.0661261,-0.790341
1470345161046580,-0.515386,-0.0666697,-0.790175
1470345161066997,-0.51551,-0.0667161,-0.79018
1470345161090033,-0.51551,-0.0667161,-0.79018
1470345161107997,-0.51551,-0.0667161,-0.79018
1470345161127012,-0.51551,-0.0667161,-0.79018
1470345161150094,-0.515635,-0.0667626,-0.790186
1470345161168089,-0.515808,-0.0667004,-0.790225
1470345161187108,-0.515808,-0.0667004,-0.790225
1470345161210126,-0.515713,-0.0665838,-0.790363
1470345161228143,-0.515547,-0.0664041,-0.790559
1470345161247729,-0.515292,-0.0656746,-0.790702
1470345161270316,-0.515292,-0.0656746,-0.790702
1470345161287316,-0.515292,-0.0656746,-0.790702
1470345161307390,-0.515292,-0.0656746,-0.790702
1470345161330358,-0.514946,-0.0655267,-0.790717
1470345161347901,-0.514946,-0.0655267,-0.790717
1470345161367426,-0.514487,-0.0659992,-0.790714
1470345161389461,-0.514168,-0.0663876,-0.790576
1470345161407460,-0.514168,-0.0663876,-0.790576
1470345161427537,-0.513912,-0.0667278,-0.790756
1470345161450001,-0.513912,-0.0667278,-0.790756
1470345161467576,-0.514029,-0.0667441,-0.790619
1470345161487594,-0.514029,-0.0667441,-0.790619
1470345161509614,-0.514029,-0.0667441,-0.790619
1470345161527630,-0.514202,-0.0666818,-0.790658
1470345161547688,-0.514058,-0.0666739,-0.790762
1470345161569728,-0.513929,-0.0667263,-0.791151
1470345161587742,-0.514223,-0.0670819,-0.791498
1470345161607760,-0.514788,-0.0678939,-0.792192
1470345161629801,-0.51483,-0.0680272,-0.791989
1470345161648397,-0.514908,-0.0683119,-0.7925
1470345161668901,-0.515055,-0.0689939,-0.792748
1470345161689963,-0.515688,-0.0694679,-0.792937
1470345161709939,-0.515737,-0.0693593,-0.79297
1470345161728955,-0.515982,-0.0698242,-0.793284
1470345161750081,-0.516905,-0.0699807,-0.793468
1470345161773780,-0.517078,-0.0699188,-0.793507
1470345161788736,-0.517567,-0.0701131,-0.793893
1470345161809760,-0.517567,-0.0701131,-0.793893
1470345161827769,-0.516944,-0.0703434,-0.794199
1470345161848794,-0.516944,-0.0703434,-0.794199
1470345161870169,-0.518188,-0.0706572,-0.794335
1470345161888236,-0.519508,-0.0708544,-0.794537
1470345161909201,-0.520259,-0.0710736,-0.794682
1470345161930219,-0.520484,-0.0713063,-0.7952
1470345161948253,-0.52169,-0.0721638,-0.795891
1470345161969282,-0.522184,-0.0727239,-0.796216
1470345161990303,-0.521998,-0.0728553,-0.79643
1470345162008331,-0.522237,-0.0736945,-0.797046
1470345162028332,-0.522058,-0.0745934,-0.797644
1470345162049998,-0.521989,-0.0754776,-0.797963
1470345162067496,-0.521753,-0.076182,-0.798479
1470345162090575,-0.521136,-0.0767144,-0.798836
1470345162109534,-0.521132,-0.0772182,-0.799679
1470345162127548,-0.521767,-0.0770899,-0.800165
1470345162150620,-0.521957,-0.077029,-0.800601
1470345162169712,-0.521683,-0.0768021,-0.80119
1470345162187710,-0.521809,-0.0772529,-0.801642
1470345162210731,-0.522629,-0.0780035,-0.802063
1470345162229780,-0.522857,-0.0788742,-0.802427
1470345162247773,-0.522378,-0.0797867,-0.802985
1470345162270880,-0.52157,-0.080782,-0.803356
1470345162289856,-0.520707,-0.0815825,-0.803645
1470345162307830,-0.520233,-0.0823939,-0.803808
1470345162334854,-0.519403,-0.0834891,-0.804183
1470345162349873,-0.518248,-0.0843332,-0.804576
1470345162367904,-0.517441,-0.0853273,-0.804954
1470345162389924,-0.516709,-0.0862052,-0.805399
1470345162412946,-0.516006,-0.0870128,-0.805988
1470345162427960,-0.51502,-0.0874296,-0.806482
1470345162449499,-0.513956,-0.0877526,-0.806895
1470345162470094,-0.512568,-0.0878236,-0.807325
1470345162488195,-0.511187,-0.0879245,-0.807899
1470345162510110,-0.510278,-0.0882235,-0.808462
1470345162530131,-0.509639,-0.0885167,-0.809034
1470345162547151,-0.509167,-0.0887188,-0.809499
1470345162570205,-0.508571,-0.0888727,-0.80996
1470345162590222,-0.507737,-0.0893265,-0.810498
1470345162607238,-0.506952,-0.0896716,-0.811069
1470345162629258,-0.506339,-0.090228,-0.811586
1470345162650784,-0.505603,-0.0907361,-0.812099
1470345162667303,-0.504742,-0.0911957,-0.812607
1470345162689323,-0.503424,-0.0915153,-0.813419
1470345162711343,-0.502074,-0.0915389,-0.814145
1470345162727357,-0.501002,-0.0913149,-0.815114
1470345162749387,-0.500106,-0.0909656,-0.816228
1470345162771439,-0.499263,-0.0908734,-0.817318
1470345162786437,-0.498296,-0.0910041,-0.818315
1470345162809458,-0.497175,-0.0911569,-0.819165
1470345162830477,-0.49552,-0.091619,-0.820058
1470345162847009,-0.493968,-0.0921651,-0.821069
1470345162869533,-0.492756,-0.0925609,-0.822008
1470345162890551,-0.4915,-0.0930936,-0.823063
1470345162906566,-0.490445,-0.093766,-0.824207
1470345162929588,-0.489516,-0.0942139,-0.825447
1470345162950638,-0.488023,-0.0949762,-0.8267
1470345162966666,-0.486394,-0.0957529,-0.82821
1470345162989687,-0.48567,-0.0963672,-0.829689
1470345163010720,-0.484993,-0.0971446,-0.831111
1470345163026764,-0.48382,-0.0977895,-0.832408
1470345163057284,-0.482039,-0.0983099,-0.833869
1470345163071837,-0.480889,-0.0992175,-0.835117
1470345163086848,-0.480423,-0.100435,-0.836327
1470345163108883,-0.479897,-0.101797,-0.837254
1470345163131889,-0.479154,-0.102986,-0.838317
1470345163146410,-0.478191,-0.104069,-0.839408
1470345163168950,-0.477675,-0.10512,-0.840683
1470345163191969,-0.478003,-0.106065,-0.841595
1470345163205981,-0.47836,-0.106938,-0.842651
1470345163229002,-0.4785,-0.107433,-0.843818
1470345163252031,-0.478467,-0.107986,-0.844953
1470345163266049,-0.478866,-0.108421,-0.845831
1470345163289069,-0.479224,-0.108722,-0.846913
1470345163312090,-0.479601,-0.108892,-0.847845
1470345163326103,-0.480039,-0.109013,-0.849099
1470345163349630,-0.480649,-0.108776,-0.850325
1470345163372151,-0.481224,-0.108487,-0.851225
1470345163386163,-0.481207,-0.108006,-0.852029
1470345163409183,-0.480523,-0.107445,-0.852675
1470345163432205,-0.480267,-0.106834,-0.852954
1470345163446247,-0.480623,-0.106381,-0.853215
1470345163469097,-0.481539,-0.105893,-0.85337
1470345163492035,-0.482593,-0.105391,-0.85327
1470345163513083,-0.483169,-0.105047,-0.853507
1470345163529078,-0.484275,-0.104739,-0.853498
1470345163552151,-0.485821,-0.104741,-0.853476
1470345163573226,-0.487749,-0.104735,-0.853171
1470345163589199,-0.489024,-0.104643,-0.85311
1470345163612237,-0.490101,-0.104407,-0.85296
1470345163633232,-0.491427,-0.103905,-0.852872
1470345163649808,-0.492824,-0.102956,-0.852642
1470345163671409,-0.494051,-0.101698,-0.852432
1470345163693401,-0.495298,-0.100403,-0.852111
1470345163709417,-0.49594,-0.0988533,-0.851399
1470345163731451,-0.496841,-0.0973366,-0.850439
1470345163753489,-0.498254,-0.096495,-0.849466
1470345163769532,-0.499637,-0.096025,-0.848408
1470345163791596,-0.500769,-0.0955165,-0.847232
1470345163812638,-0.501876,-0.0953168,-0.846079
1470345163829584,-0.502739,-0.0951088,-0.844954
1470345163852700,-0.503181,-0.094858,-0.843784
1470345163873368,-0.504154,-0.0946379,-0.842373
1470345163889428,-0.505503,-0.0951713,-0.841089
1470345163912404,-0.507105,-0.0964079,-0.839926
1470345163933422,-0.509315,-0.098967,-0.839615
1470345163949445,-0.51234,-0.102161,-0.839179
1470345163971987,-0.516457,-0.105412,-0.838659
1470345164001998,-0.519739,-0.108168,-0.838778
1470345164009013,-0.521096,-0.109673,-0.839878
1470345164032026,-0.520908,-0.110036,-0.84146
1470345164054609,-0.520977,-0.109457,-0.842739
1470345164069184,-0.521599,-0.108472,-0.843575
1470345164092200,-0.521964,-0.107054,-0.844201
1470345164114219,-0.52208,-0.105597,-0.844708
1470345164129233,-0.522511,-0.104062,-0.844999
1470345164152260,-0.522472,-0.1032,-0.84532
1470345164174302,-0.522851,-0.102713,-0.845485
1470345164188314,-0.523578,-0.102555,-0.845134
1470345164211369,-0.524453,-0.102711,-0.844729
1470345164234355,-0.524908,-0.102916,-0.844312
1470345164248901,-0.525299,-0.103166,-0.843571
1470345164271981,-0.525335,-0.103287,-0.842591
1470345164294035,-0.524527,-0.102615,-0.841006
1470345164309015,-0.522034,-0.102195,-0.838697
1470345164332035,-0.518845,-0.101874,-0.836886
1470345164354563,-0.51525,-0.101005,-0.835362
1470345164368581,-0.512923,-0.10025,-0.833414
1470345164391601,-0.511253,-0.0997063,-0.831781
1470345164414622,-0.507759,-0.099249,-0.830805
1470345164428635,-0.502757,-0.0982256,-0.830309
1470345164452191,-0.498405,-0.0967122,-0.82998
1470345164474550,-0.495362,-0.0960899,-0.830206
1470345164495599,-0.49407,-0.0955941,-0.830513
1470345164511584,-0.492634,-0.0945111,-0.830959
1470345164534605,-0.490915,-0.0934961,-0.831657
1470345164555671,-0.48971,-0.0924222,-0.831675
1470345164571703,-0.488745,-0.0914177,-0.831557
1470345164594723,-0.486385,-0.0904702,-0.831486
1470345164615742,-0.483441,-0.0898158,-0.830881
1470345164631764,-0.480288,-0.0896337,-0.829906
1470345164654802,-0.478148,-0.0894345,-0.829675
1470345164683001,-0.478068,-0.0893699,-0.830104
1470345164691995,-0.479018,-0.0892502,-0.831162
1470345164714957,-0.479891,-0.0889453,-0.832101
1470345164735976,-0.478946,-0.0894192,-0.833459
1470345164752032,-0.476809,-0.0881771,-0.834972
1470345164774057,-0.476681,-0.0865782,-0.836999
1470345164796078,-0.478564,-0.0862035,-0.838026
1470345164812090,-0.480379,-0.0859467,-0.838624
1470345164834110,-0.480291,-0.0862484,-0.83937
1470345164855693,-0.478545,-0.0866313,-0.840306
1470345164872194,-0.478291,-0.0873207,-0.841224
1470345164894253,-0.479099,-0.0884078,-0.841859
1470345164917234,-0.47987,-0.0895389,-0.842205
1470345164932248,-0.479495,-0.0904526,-0.842663
1470345164954809,-0.478372,-0.0909238,-0.843332
1470345164977188,-0.476539,-0.0916351,-0.843464
1470345164992202,-0.474822,-0.0920664,-0.843398
1470345165014222,-0.474822,-0.0920664,-0.843398
1470345165037243,-0.475069,-0.0919199,-0.844009
1470345165051293,-0.475876,-0.0917357,-0.844517
1470345165074188,-0.477513,-0.0917874,-0.844472
1470345165097208,-0.47839,-0.092309,-0.844413
1470345165111246,-0.478818,-0.0928609,-0.844168
1470345165134242,-0.47886,-0.0933928,-0.84406
1470345165157268,-0.47873,-0.0938607,-0.843365
1470345165171328,-0.479167,-0.0944137,-0.842752
1470345165194215,-0.478952,-0.0950333,-0.84174
1470345165217237,-0.478034,-0.0954711,-0.840919
1470345165231250,-0.477702,-0.0957691,-0.83999
1470345165254775,-0.478059,-0.0964079,-0.839169
1470345165276423,-0.478148,-0.0970486,-0.838343
1470345165291372,-0.478048,-0.0975107,-0.837684
1470345165314455,-0.477739,-0.0978294,-0.837305
1470345165336458,-0.477862,-0.0978791,-0.837309
1470345165351446,-0.478432,-0.0974735,-0.836886
1470345165374473,-0.478432,-0.0974735,-0.836886
1470345165396584,-0.47844,-0.0971347,-0.837082
1470345165418513,-0.479548,-0.0968465,-0.83722
1470345165434530,-0.480316,-0.0967043,-0.837439
1470345165457054,-0.480316,-0.0967043,-0.837439
1470345165478174,-0.479704,-0.096551,-0.837454
1470345165494227,-0.479704,-0.096551,-0.837454
1470345165517164,-0.480327,-0.0963383,-0.83712
1470345165538203,-0.480953,-0.096427,-0.836846
1470345165554793,-0.480744,-0.0965291,-0.836524
1470345165577440,-0.47982,-0.0957242,-0.836092
1470345165598459,-0.479489,-0.0954484,-0.835193
1470345165614473,-0.480798,-0.0957904,-0.834219
1470345165636492,-0.481789,-0.096299,-0.833872
1470345165658023,-0.481891,-0.0967516,-0.833939
1470345165674045,-0.481944,-0.0969449,-0.834027
1470345165697075,-0.482254,-0.0978693,-0.834387
