timestamp,x,y,z,w
1470262319419257,-0.0335083,-0.0098877,-0.583069,-0.811707
1470262319433271,-0.0335083,-0.0098877,-0.583069,-0.811707
1470262319456791,-0.0335693,-0.0098877,-0.583069,-0.811707
1470262319478810,-0.0335083,-0.00964355,-0.58313,-0.811707
1470262319500331,-0.0335083,-0.00964355,-0.58313,-0.811707
1470262319516344,-0.0335083,-0.00958252,-0.58313,-0.811707
1470262319538864,-0.0336914,-0.00964355,-0.583191,-0.811646
1470262319559883,-0.0339966,-0.00970459,-0.583252,-0.811584
1470262319576398,-0.0342407,-0.00976563,-0.583313,-0.811523
1470262319598920,-0.0344849,-0.00982666,-0.583313,-0.811523
1470262319619937,-0.0344849,-0.00976563,-0.583313,-0.811523
1470262319636953,-0.0344849,-0.00976563,-0.583313,-0.811523
1470262319658972,-0.034729,-0.00976563,-0.583313,-0.811462
1470262319679991,-0.0350342,-0.00982666,-0.583313,-0.811462
1470262319696506,-0.0353394,-0.0098877,-0.583313,-0.811462
1470262319719027,-0.0356445,-0.0098877,-0.583374,-0.811401
1470262319740048,-0.0358887,-0.0098877,-0.583435,-0.811401
1470262319756564,-0.0362549,-0.0100098,-0.583435,-0.81134
1470262319779080,-0.0365601,-0.0102539,-0.583374,-0.81134
1470262319800099,-0.0368042,-0.010376,-0.583374,-0.81134
1470262319816614,-0.0368042,-0.0103149,-0.583374,-0.81134
1470262319839134,-0.0369873,-0.010376,-0.583496,-0.811279
1470262319860153,-0.0372925,-0.0106201,-0.583496,-0.811218
1470262319876668,-0.0372925,-0.0106201,-0.583496,-0.811218
1470262319899187,-0.0372925,-0.0106201,-0.583496,-0.811218
1470262319920206,-0.0372925,-0.0106201,-0.583496,-0.811218
1470262319936222,-0.0374756,-0.0107422,-0.583496,-0.811218
1470262319958742,-0.0377197,-0.0109253,-0.583496,-0.811218
1470262319981262,-0.0377197,-0.0109253,-0.583496,-0.811218
1470262319996776,-0.0377197,-0.0109253,-0.583496,-0.811218
1470262320018796,-0.0377197,-0.0108643,-0.583496,-0.811218
1470262320041816,-0.0377197,-0.0108643,-0.583496,-0.811218
1470262320056829,-0.0377197,-0.0108643,-0.583496,-0.811218
1470262320078850,-0.0377197,-0.0108643,-0.583496,-0.811218
1470262320101371,-0.0377197,-0.0108643,-0.583496,-0.811218
1470262320115882,-0.0377197,-0.0109863,-0.583557,-0.811157
1470262320138903,-0.0377197,-0.0109863,-0.583557,-0.811157
1470262320161424,-0.0377197,-0.0109863,-0.583557,-0.811157
1470262320175936,-0.0377197,-0.0109863,-0.583557,-0.811157
1470262320198957,-0.0377197,-0.0109863,-0.583557,-0.811157
1470262320221477,-0.0377197,-0.0109253,-0.583557,-0.811157
1470262320235991,-0.0377197,-0.0109253,-0.583557,-0.811157
1470262320259012,-0.0377197,-0.0109253,-0.583557,-0.811157
1470262320281531,-0.0377808,-0.0109863,-0.583557,-0.811157
1470262320296044,-0.0377197,-0.0109253,-0.583557,-0.811157
1470262320319568,-0.0377808,-0.0109253,-0.583557,-0.811157
1470262320341585,-0.0379028,-0.0111084,-0.583557,-0.811157
1470262320356098,-0.0379639,-0.0111084,-0.583557,-0.811157
1470262320379120,-0.0379639,-0.0111084,-0.583557,-0.811157
1470262320401639,-0.0379639,-0.0111084,-0.583557,-0.811157
1470262320422658,-0.0379639,-0.0111084,-0.583557,-0.811157
1470262320439173,-0.0379639,-0.0111084,-0.583557,-0.811157
1470262320461693,-0.0379639,-0.0111084,-0.583557,-0.811157
1470262320482712,-0.0379639,-0.0111084,-0.583557,-0.811157
1470262320499228,-0.0379639,-0.0111084,-0.583557,-0.811157
1470262320521746,-0.0380249,-0.0111084,-0.583557,-0.811157
1470262320542765,-0.0380249,-0.0111084,-0.583557,-0.811157
1470262320559280,-0.0380249,-0.0111084,-0.583557,-0.811157
1470262320581800,-0.0380249,-0.0111084,-0.583557,-0.811157
1470262320602819,-0.0380249,-0.0111084,-0.583557,-0.811157
1470262320619335,-0.0380249,-0.0111084,-0.583557,-0.811157
1470262320641355,-0.0380249,-0.0111084,-0.583557,-0.811157
1470262320662874,-0.0380249,-0.0111084,-0.583557,-0.811157
1470262320679388,-0.0380859,-0.0111084,-0.583557,-0.811157
1470262320701409,-0.0380859,-0.0111084,-0.583557,-0.811157
1470262320722427,-0.0380859,-0.0111084,-0.583557,-0.811157
1470262320738943,-0.0380859,-0.0111084,-0.583557,-0.811157
1470262320761465,-0.0380859,-0.0111084,-0.583557,-0.811157
1470262320782981,-0.0380859,-0.0111694,-0.583557,-0.811157
1470262320798997,-0.038147,-0.0111084,-0.583557,-0.811157
1470262320821517,-0.038147,-0.0111084,-0.583557,-0.811157
1470262320843035,-0.038147,-0.0111084,-0.583557,-0.811157
1470262320859050,-0.038147,-0.0111694,-0.583557,-0.811157
1470262320881570,-0.038208,-0.0111694,-0.583557,-0.811157
1470262320904090,-0.038208,-0.0111694,-0.583557,-0.811157
1470262320919104,-0.038208,-0.0111084,-0.583557,-0.811157
1470262320941623,-0.0383911,-0.0112305,-0.583557,-0.811157
1470262320964145,-0.0383911,-0.0112305,-0.583557,-0.811157
1470262320979158,-0.0384521,-0.0112915,-0.583557,-0.811157
1470262321001678,-0.0384521,-0.0112915,-0.583557,-0.811157
1470262321023698,-0.0384521,-0.0112915,-0.583557,-0.811157
1470262321038211,-0.0386963,-0.0112915,-0.583557,-0.811096
1470262321061732,-0.0386963,-0.0112915,-0.583557,-0.811096
1470262321090257,-0.0386963,-0.0112915,-0.583557,-0.811096
1470262321098265,-0.0386963,-0.0112915,-0.583557,-0.811096
1470262321121786,-0.0386963,-0.0112915,-0.583557,-0.811096
1470262321143806,-0.0387573,-0.0112915,-0.583557,-0.811096
1470262321158318,-0.0387573,-0.0112915,-0.583557,-0.811096
1470262321181839,-0.0387573,-0.0112915,-0.583557,-0.811096
1470262321204360,-0.0387573,-0.0112305,-0.583557,-0.811096
1470262321218374,-0.0387573,-0.0112305,-0.583557,-0.811096
1470262321242394,-0.0388184,-0.0112305,-0.583557,-0.811096
1470262321246898,-0.0388184,-0.0112305,-0.583557,-0.811096
1470262321269418,-0.0388184,-0.0112305,-0.583557,-0.811096
1470262321285933,-0.0388794,-0.0112305,-0.583557,-0.811096
1470262321306952,-0.0388794,-0.0112305,-0.583557,-0.811096
1470262321329472,-0.0389404,-0.0112305,-0.583557,-0.811096
1470262321345987,-0.0389404,-0.0112305,-0.583557,-0.811096
1470262321367006,-0.0389404,-0.0112915,-0.583557,-0.811096
1470262321389526,-0.0388184,-0.0110474,-0.583557,-0.811096
1470262321406040,-0.0388794,-0.0110474,-0.583557,-0.811096
1470262321427061,-0.0388794,-0.0110474,-0.583557,-0.811096
1470262321449581,-0.0389404,-0.0110474,-0.583557,-0.811096
1470262321466096,-0.0389404,-0.0110474,-0.583557,-0.811096
1470262321487113,-0.0389404,-0.0110474,-0.583557,-0.811096
1470262321509633,-0.0389404,-0.0110474,-0.583557,-0.811096
1470262321525648,-0.0390015,-0.0110474,-0.583557,-0.811096
1470262321547167,-0.0390015,-0.0110474,-0.583557,-0.811096
1470262321569687,-0.0390015,-0.0110474,-0.583557,-0.811096
1470262321585702,-0.0390015,-0.0110474,-0.583557,-0.811096
1470262321607221,-0.0390625,-0.0110474,-0.583557,-0.811096
1470262321629741,-0.0390625,-0.0110474,-0.583557,-0.811096
1470262321645757,-0.0390625,-0.0110474,-0.583557,-0.811096
1470262321667275,-0.0391235,-0.0110474,-0.583557,-0.811096
1470262321689294,-0.0391235,-0.0110474,-0.583557,-0.811096
1470262321707311,-0.0391235,-0.0110474,-0.583557,-0.811096
1470262321726829,-0.0391235,-0.0110474,-0.583557,-0.811096
1470262321749349,-0.0391235,-0.0110474,-0.583557,-0.811096
1470262321765865,-0.0391235,-0.0110474,-0.583557,-0.811096
1470262321786882,-0.0391235,-0.0110474,-0.583557,-0.811096
1470262321809405,-0.0391235,-0.0110474,-0.583557,-0.811096
1470262321825917,-0.0391235,-0.0110474,-0.583557,-0.811096
1470262321846937,-0.0391846,-0.0110474,-0.583557,-0.811096
1470262321869457,-0.0391846,-0.0110474,-0.583557,-0.811096
1470262321887974,-0.0391846,-0.0110474,-0.583557,-0.811096
1470262321906991,-0.0391846,-0.0110474,-0.583557,-0.811096
1470262321929510,-0.0391846,-0.0110474,-0.583557,-0.811096
1470262321947527,-0.0391846,-0.0110474,-0.583557,-0.811096
1470262321967045,-0.0389404,-0.0108643,-0.583496,-0.811157
1470262321989564,-0.0386353,-0.0106812,-0.583435,-0.811218
1470262322007581,-0.0383301,-0.0106201,-0.583313,-0.81134
1470262322027098,-0.0380859,-0.0105591,-0.583191,-0.811401
1470262322049618,-0.0379639,-0.0106812,-0.58313,-0.811462
1470262322067134,-0.0377197,-0.0106812,-0.583069,-0.811523
1470262322087153,-0.0372925,-0.010437,-0.583008,-0.811584
1470262322109672,-0.0366821,-0.0100098,-0.582825,-0.811768
1470262322127188,-0.0360107,-0.00958252,-0.582642,-0.811951
1470262322147206,-0.0355835,-0.00933838,-0.582397,-0.812134
1470262322169726,-0.0354614,-0.00927734,-0.582153,-0.812317
1470262322187243,-0.0352783,-0.00927734,-0.58197,-0.812439
1470262322206760,-0.0349731,-0.00921631,-0.581787,-0.812561
1470262322229780,-0.034729,-0.00915527,-0.581726,-0.812622
1470262322247296,-0.034729,-0.00915527,-0.581726,-0.812622
1470262322266814,-0.0348511,-0.00946045,-0.581665,-0.812683
1470262322289334,-0.0351563,-0.00976563,-0.581665,-0.812683
1470262322307351,-0.0351563,-0.00982666,-0.581665,-0.812683
1470262322326868,-0.0351563,-0.00982666,-0.581665,-0.812683
1470262322349387,-0.0354614,-0.0098877,-0.581665,-0.812622
1470262322367404,-0.0357056,-0.0100098,-0.581726,-0.812561
1470262322386922,-0.0359497,-0.0101929,-0.581787,-0.8125
1470262322409441,-0.0360107,-0.0103149,-0.581909,-0.812439
1470262322427458,-0.0360107,-0.0103149,-0.581909,-0.812439
1470262322448478,-0.0360107,-0.0103149,-0.581909,-0.812439
1470262322469495,-0.0360107,-0.0103149,-0.581909,-0.812439
1470262322487512,-0.0360107,-0.0103149,-0.581909,-0.812439
1470262322508530,-0.0360107,-0.0103149,-0.581909,-0.812439
1470262322529550,-0.0360107,-0.0103149,-0.581909,-0.812439
1470262322547565,-0.0360107,-0.0103149,-0.581909,-0.812439
1470262322568086,-0.0360718,-0.0103149,-0.581909,-0.812439
1470262322589603,-0.0360718,-0.0103149,-0.581909,-0.812439
1470262322607119,-0.0360107,-0.0103149,-0.581909,-0.812439
1470262322636145,-0.0360107,-0.0103149,-0.581909,-0.812439
1470262322649657,-0.0360107,-0.0102539,-0.581909,-0.812439
1470262322667174,-0.0360107,-0.0102539,-0.581909,-0.812439
1470262322688192,-0.0360107,-0.0102539,-0.581909,-0.812439
1470262322709711,-0.0360107,-0.0102539,-0.581909,-0.812439
1470262322727227,-0.0360107,-0.0103149,-0.581909,-0.812439
1470262322748246,-0.0360107,-0.0103149,-0.581909,-0.812439
1470262322769767,-0.0360107,-0.0103149,-0.581909,-0.812439
1470262322787281,-0.0360718,-0.0103149,-0.581909,-0.812439
1470262322809801,-0.0360718,-0.0103149,-0.581909,-0.812439
1470262322829319,-0.0360107,-0.0103149,-0.581909,-0.812439
1470262322847335,-0.0360718,-0.0102539,-0.581909,-0.812439
1470262322869855,-0.0360718,-0.0102539,-0.581909,-0.812439
1470262322889373,-0.0360718,-0.0102539,-0.581909,-0.812439
1470262322907389,-0.0360718,-0.0102539,-0.581909,-0.812439
1470262322929910,-0.0360718,-0.0102539,-0.581909,-0.812439
1470262322949428,-0.0360718,-0.0102539,-0.581909,-0.812439
1470262322967443,-0.0360718,-0.0102539,-0.581909,-0.812439
1470262322997471,-0.0360718,-0.0102539,-0.581909,-0.812439
1470262323009481,-0.0360718,-0.0102539,-0.581909,-0.812439
1470262323033502,-0.0360718,-0.0102539,-0.581909,-0.812439
1470262323050017,-0.0360718,-0.0102539,-0.581909,-0.812439
1470262323069534,-0.0360718,-0.0102539,-0.581909,-0.812439
1470262323087551,-0.0360718,-0.0102539,-0.581909,-0.812439
1470262323109571,-0.0360718,-0.0102539,-0.581909,-0.812439
1470262323129588,-0.0360718,-0.0102539,-0.581909,-0.812439
1470262323147604,-0.0361328,-0.0102539,-0.581909,-0.812439
1470262323169624,-0.0361328,-0.0102539,-0.581909,-0.812439
1470262323189642,-0.0360718,-0.0101929,-0.581909,-0.812439
1470262323207158,-0.0361328,-0.0101929,-0.581909,-0.812439
1470262323230179,-0.0361328,-0.0102539,-0.581909,-0.812439
1470262323251198,-0.0361328,-0.0102539,-0.581909,-0.812439
1470262323267213,-0.0361328,-0.0102539,-0.581909,-0.812439
1470262323289732,-0.0361938,-0.0102539,-0.581909,-0.812439
1470262323310751,-0.0361938,-0.0102539,-0.581909,-0.812439
1470262323327266,-0.0361938,-0.0102539,-0.581909,-0.812439
1470262323349787,-0.0361938,-0.0102539,-0.581909,-0.812439
1470262323369304,-0.0361328,-0.0102539,-0.581909,-0.812439
1470262323387320,-0.0361938,-0.0102539,-0.581909,-0.812439
1470262323409840,-0.0361938,-0.0102539,-0.581909,-0.812439
1470262323430859,-0.0361938,-0.0102539,-0.581909,-0.812439
1470262323447374,-0.0361938,-0.0102539,-0.581909,-0.812439
1470262323469894,-0.0362549,-0.0102539,-0.581909,-0.812439
1470262323490913,-0.0362549,-0.0102539,-0.581909,-0.812439
1470262323507428,-0.0362549,-0.0102539,-0.581909,-0.812439
1470262323529949,-0.0362549,-0.0102539,-0.581909,-0.812439
1470262323552468,-0.0362549,-0.0102539,-0.581909,-0.812439
1470262323567484,-0.0362549,-0.0102539,-0.581909,-0.812439
1470262323590502,-0.0362549,-0.0102539,-0.581909,-0.812439
1470262323611024,-0.0362549,-0.0102539,-0.581909,-0.812439
1470262323627535,-0.0362549,-0.0102539,-0.581909,-0.812439
1470262323649056,-0.0362549,-0.0103149,-0.581909,-0.812439
1470262323671075,-0.0362549,-0.0103149,-0.581909,-0.812439
1470262323685587,-0.0362549,-0.0103149,-0.581909,-0.812439
1470262323709109,-0.0362549,-0.0103149,-0.581909,-0.812439
1470262323730128,-0.0362549,-0.0102539,-0.581909,-0.812439
1470262323752647,-0.0363159,-0.0103149,-0.581909,-0.812439
1470262323776670,-0.0362549,-0.0102539,-0.581909,-0.812439
1470262323791683,-0.0362549,-0.0102539,-0.581909,-0.812439
1470262323806696,-0.0363159,-0.0102539,-0.581909,-0.812439
1470262323829217,-0.0363159,-0.0102539,-0.581909,-0.812439
1470262323851736,-0.0363159,-0.0102539,-0.581909,-0.812439
1470262323866750,-0.0363159,-0.0102539,-0.581909,-0.812439
1470262323889271,-0.0363159,-0.0102539,-0.581909,-0.812439
1470262323911791,-0.036377,-0.0102539,-0.581909,-0.812439
1470262323925803,-0.036377,-0.0102539,-0.581909,-0.812439
1470262323949324,-0.036377,-0.0102539,-0.581909,-0.812439
1470262323971845,-0.036377,-0.0102539,-0.581909,-0.812439
1470262323985857,-0.036377,-0.0102539,-0.581909,-0.812439
1470262324008878,-0.036377,-0.0102539,-0.581909,-0.812439
1470262324031399,-0.036438,-0.0101929,-0.581909,-0.812439
1470262324045911,-0.036438,-0.0101929,-0.581909,-0.812439
1470262324068933,-0.036438,-0.0101929,-0.581909,-0.812439
1470262324091452,-0.036438,-0.0102539,-0.581909,-0.812439
1470262324105965,-0.036438,-0.0102539,-0.581909,-0.812439
1470262324128986,-0.036499,-0.0101929,-0.581909,-0.812439
1470262324151505,-0.036499,-0.0101929,-0.581909,-0.812439
1470262324166019,-0.036499,-0.0101929,-0.581909,-0.812439
1470262324189040,-0.036499,-0.0101929,-0.581909,-0.812439
1470262324219066,-0.036499,-0.0101929,-0.581909,-0.812439
1470262324226075,-0.036499,-0.0101929,-0.581909,-0.812439
1470262324249093,-0.036499,-0.0101929,-0.581909,-0.812439
1470262324271614,-0.036499,-0.0101929,-0.581909,-0.812439
1470262324292634,-0.0365601,-0.0101929,-0.581909,-0.812439
1470262324309147,-0.0365601,-0.0101929,-0.581909,-0.812439
1470262324331669,-0.0365601,-0.0101929,-0.581909,-0.812439
1470262324352687,-0.0366211,-0.0101929,-0.581909,-0.812439
1470262324369202,-0.0366211,-0.0101929,-0.581909,-0.812439
1470262324391722,-0.0366211,-0.0101929,-0.581909,-0.812439
1470262324412744,-0.0366211,-0.0101929,-0.581909,-0.812439
1470262324429255,-0.0366211,-0.0101929,-0.581909,-0.812439
1470262324451776,-0.0366211,-0.0101929,-0.581909,-0.812439
1470262324472795,-0.0366211,-0.0101929,-0.581909,-0.812439
1470262324489309,-0.0366211,-0.0101318,-0.581909,-0.812439
1470262324511829,-0.0366211,-0.0101318,-0.581909,-0.812439
1470262324533848,-0.0366821,-0.0101929,-0.581909,-0.812439
1470262324549363,-0.0366821,-0.0101929,-0.581909,-0.812439
1470262324571383,-0.0366821,-0.0101929,-0.581909,-0.812439
1470262324593019,-0.0366821,-0.0101929,-0.581909,-0.812439
1470262324608916,-0.0366821,-0.0101929,-0.581909,-0.812439
1470262324631937,-0.0366821,-0.0101929,-0.581909,-0.812439
1470262324659964,-0.0366821,-0.0101929,-0.581909,-0.812439
1470262324668971,-0.0366821,-0.0101929,-0.581909,-0.812439
1470262324691492,-0.0366821,-0.0101929,-0.581909,-0.812439
1470262324714012,-0.0366821,-0.0101929,-0.581909,-0.812439
1470262324729025,-0.0366821,-0.0101929,-0.581909,-0.812439
1470262324751547,-0.0366821,-0.0101929,-0.581909,-0.812439
1470262324774065,-0.0366821,-0.0101929,-0.581909,-0.812439
1470262324789114,-0.0366821,-0.0101929,-0.581909,-0.812439
1470262324811634,-0.0366821,-0.0101929,-0.581909,-0.812439
1470262324834154,-0.0366821,-0.0101929,-0.581909,-0.812439
1470262324848667,-0.0367432,-0.0101929,-0.581909,-0.812439
1470262324871690,-0.0367432,-0.0101929,-0.581909,-0.812439
1470262324894209,-0.0367432,-0.0101929,-0.581909,-0.812439
1470262324908221,-0.0367432,-0.0101318,-0.581909,-0.812439
1470262324931742,-0.0367432,-0.0101318,-0.581909,-0.812439
1470262324954262,-0.0367432,-0.0101929,-0.581909,-0.812439
1470262324976782,-0.0367432,-0.0101929,-0.581909,-0.812439
1470262324991796,-0.0367432,-0.0101929,-0.581909,-0.812439
1470262325013816,-0.0366821,-0.0101929,-0.581909,-0.812439
1470262325028329,-0.0367432,-0.0101929,-0.581909,-0.812439
1470262325051349,-0.0367432,-0.0101929,-0.581909,-0.812439
1470262325073870,-0.0367432,-0.0101929,-0.581909,-0.812439
1470262325088383,-0.0367432,-0.0101929,-0.581909,-0.812439
1470262325111403,-0.0367432,-0.0101929,-0.581909,-0.812439
1470262325133925,-0.0367432,-0.0101929,-0.581909,-0.812439
1470262325148436,-0.0367432,-0.0101929,-0.581909,-0.812439
1470262325171458,-0.0367432,-0.0101929,-0.581909,-0.812439
1470262325193980,-0.0367432,-0.0101929,-0.581909,-0.812439
1470262325215496,-0.0367432,-0.0101929,-0.581909,-0.812439
1470262325231511,-0.0367432,-0.0101929,-0.581909,-0.812439
1470262325254031,-0.0367432,-0.0101929,-0.581909,-0.812439
1470262325275065,-0.0367432,-0.0101929,-0.581909,-0.812439
1470262325291565,-0.0367432,-0.0101929,-0.581909,-0.812439
1470262325314087,-0.0367432,-0.0102539,-0.581909,-0.812439
1470262325335188,-0.0367432,-0.0102539,-0.581848,-0.812439
1470262325351618,-0.0367432,-0.0102539,-0.581909,-0.812439
1470262325374139,-0.0367432,-0.0102539,-0.581909,-0.812439
1470262325395187,-0.0367432,-0.0102539,-0.581848,-0.812439
1470262325411673,-0.0367432,-0.0102539,-0.581909,-0.812439
1470262325434193,-0.0367432,-0.0102539,-0.581909,-0.812439
1470262325455240,-0.0369263,-0.010376,-0.581726,-0.812561
1470262325471727,-0.0372925,-0.0107422,-0.581604,-0.812622
1470262325494247,-0.0379028,-0.0112915,-0.581421,-0.812683
1470262325515268,-0.0386353,-0.0120239,-0.581238,-0.812805
1470262325531781,-0.0393066,-0.0124512,-0.581238,-0.812744
1470262325556303,-0.039856,-0.0125732,-0.581238,-0.812683
1470262325575321,-0.0401001,-0.0128174,-0.581177,-0.812744
1470262325591835,-0.0403442,-0.0128174,-0.581055,-0.812805
1470262325613855,-0.0401611,-0.0124512,-0.580994,-0.812866
1470262325635375,-0.039856,-0.0120239,-0.580994,-0.812927
1470262325651388,-0.0395508,-0.0114746,-0.580933,-0.812988
1470262325673909,-0.0394287,-0.0112915,-0.580872,-0.812988
1470262325696429,-0.0392456,-0.0110474,-0.580872,-0.813049
1470262325711443,-0.0390625,-0.0107422,-0.580811,-0.81311
1470262325733964,-0.0390625,-0.0107422,-0.580811,-0.81311
1470262325756484,-0.0390625,-0.0108032,-0.580811,-0.81311
1470262325771496,-0.0390625,-0.0108032,-0.580811,-0.81311
1470262325794017,-0.0390625,-0.0108032,-0.580811,-0.81311
1470262325816552,-0.0394897,-0.0111084,-0.580811,-0.813049
1470262325831567,-0.0400391,-0.0114746,-0.58075,-0.813049
1470262325854085,-0.0407104,-0.0119019,-0.58075,-0.813049
1470262325876607,-0.0415039,-0.0120239,-0.580627,-0.813049
1470262325891122,-0.0424194,-0.012146,-0.580505,-0.81311
1470262325914139,-0.0435181,-0.0123901,-0.580383,-0.813171
1470262325936660,-0.0447998,-0.0126343,-0.580139,-0.813232
1470262325951173,-0.0462036,-0.0128784,-0.579773,-0.813416
1470262325974194,-0.0477295,-0.0131226,-0.579346,-0.81366
1470262325996714,-0.0493164,-0.0134277,-0.578918,-0.813843
1470262326010727,-0.0512085,-0.013855,-0.578308,-0.814148
1470262326034248,-0.0531616,-0.0142822,-0.577637,-0.814514
1470262326056767,-0.0551147,-0.0147095,-0.576782,-0.814941
1470262326070780,-0.0570068,-0.0149536,-0.575745,-0.815552
1470262326093801,-0.05896,-0.0151367,-0.574524,-0.816284
1470262326116822,-0.0609131,-0.0150757,-0.573181,-0.817078
1470262326130834,-0.0628662,-0.0149536,-0.571716,-0.817932
1470262326153856,-0.0647583,-0.0148315,-0.570068,-0.81897
1470262326176876,-0.0667725,-0.0149536,-0.568359,-0.820007
1470262326197896,-0.0691528,-0.0152588,-0.566528,-0.821045
1470262326214410,-0.0717163,-0.0153809,-0.564514,-0.822205
1470262326236429,-0.0741577,-0.0152588,-0.562439,-0.823425
1470262326257948,-0.076416,-0.0151367,-0.560181,-0.824768
1470262326273964,-0.0786743,-0.0150757,-0.557922,-0.826111
1470262326296485,-0.0812378,-0.0153198,-0.55542,-0.827515
1470262326318007,-0.0839233,-0.0158081,-0.552795,-0.828979
1470262326334035,-0.0866699,-0.0162964,-0.550171,-0.830444
1470262326356537,-0.0896606,-0.0167236,-0.547546,-0.831848
1470262326377559,-0.0925903,-0.0172119,-0.544922,-0.833252
1470262326393570,-0.09552,-0.0182495,-0.542358,-0.834595
1470262326416595,-0.0988159,-0.0192871,-0.539551,-0.835999
1470262326439111,-0.102173,-0.0205078,-0.536804,-0.83728
1470262326453623,-0.105164,-0.0215454,-0.533875,-0.838745
1470262326476647,-0.107788,-0.0222778,-0.530945,-0.840271
1470262326497679,-0.110291,-0.0228882,-0.528076,-0.841736
1470262326513678,-0.113098,-0.0238037,-0.525208,-0.84314
1470262326536699,-0.115845,-0.0246582,-0.522461,-0.844482
1470262326557718,-0.118774,-0.0253906,-0.519653,-0.845764
1470262326573732,-0.121887,-0.026062,-0.516968,-0.846924
1470262326597253,-0.125549,-0.0269775,-0.514404,-0.8479
1470262326619273,-0.130188,-0.0281982,-0.511902,-0.848694
1470262326640292,-0.135498,-0.0299072,-0.509521,-0.849243
1470262326664314,-0.141113,-0.0314331,-0.507202,-0.84967
1470262326679328,-0.146362,-0.0325317,-0.505066,-0.850037
1470262326693339,-0.151184,-0.0336304,-0.503052,-0.850342
1470262326716360,-0.155579,-0.0346069,-0.501099,-0.850647
1470262326738880,-0.159363,-0.0352173,-0.499146,-0.851074
1470262326760400,-0.162476,-0.0354614,-0.497314,-0.851563
1470262326776914,-0.165283,-0.0354614,-0.495605,-0.85199
1470262326798937,-0.167969,-0.0354004,-0.493958,-0.852417
1470262326820453,-0.170349,-0.0352783,-0.492249,-0.852966
1470262326836468,-0.172424,-0.0352783,-0.490601,-0.853516
1470262326858988,-0.174255,-0.0352783,-0.488831,-0.854126
1470262326873501,-0.175903,-0.0352173,-0.487,-0.854858
1470262326896522,-0.177307,-0.0352173,-0.485291,-0.85553
1470262326919042,-0.178772,-0.0352783,-0.483765,-0.856079
1470262326933555,-0.18042,-0.0355225,-0.482361,-0.856506
1470262326956575,-0.18219,-0.0360107,-0.481201,-0.85675
1470262326979096,-0.184631,-0.0366211,-0.480408,-0.856689
1470262326993610,-0.187073,-0.0371094,-0.479797,-0.856445
1470262327016630,-0.189209,-0.0373535,-0.479309,-0.856262
1470262327039149,-0.190857,-0.0373535,-0.478699,-0.856201
1470262327053663,-0.192078,-0.0372314,-0.478027,-0.856323
1470262327076684,-0.193054,-0.0371094,-0.477417,-0.856445
1470262327099204,-0.194153,-0.0371094,-0.476685,-0.856628
1470262327120224,-0.195251,-0.0372314,-0.475708,-0.856934
1470262327136738,-0.195923,-0.0372314,-0.474731,-0.8573
1470262327165263,-0.196045,-0.0371094,-0.473694,-0.857849
1470262327180277,-0.19574,-0.0368652,-0.472839,-0.858398
1470262327196791,-0.195129,-0.036499,-0.471985,-0.859009
1470262327218836,-0.194153,-0.0361938,-0.471069,-0.859741
1470262327240368,-0.19281,-0.0358276,-0.470276,-0.860474
1470262327256845,-0.190979,-0.0353394,-0.469788,-0.861206
1470262327278865,-0.189026,-0.034729,-0.46936,-0.861877
1470262327300384,-0.187134,-0.0342407,-0.469055,-0.862488
1470262327316899,-0.185242,-0.0336304,-0.468811,-0.863037
1470262327339419,-0.183472,-0.032959,-0.468445,-0.863647
1470262327360438,-0.181824,-0.0323486,-0.468018,-0.864258
1470262327376466,-0.180298,-0.0319214,-0.46759,-0.864807
1470262327398973,-0.179138,-0.0316772,-0.467163,-0.865295
1470262327420497,-0.178406,-0.0314331,-0.466858,-0.865601
1470262327437007,-0.177856,-0.031189,-0.466553,-0.865906
1470262327459027,-0.177124,-0.0307617,-0.46637,-0.866211
1470262327480051,-0.176636,-0.0305176,-0.466125,-0.866455
1470262327496560,-0.176208,-0.0303345,-0.46582,-0.866699
1470262327519583,-0.17572,-0.0302124,-0.465515,-0.866943
1470262327540100,-0.175171,-0.0300293,-0.465332,-0.867126
1470262327558617,-0.1745,-0.0299072,-0.465149,-0.867371
1470262327579135,-0.17395,-0.0298462,-0.465088,-0.867554
1470262327601655,-0.173523,-0.0298462,-0.464966,-0.867676
1470262327618171,-0.17334,-0.0297852,-0.464966,-0.867737
1470262327639189,-0.17334,-0.0297852,-0.464966,-0.867737
1470262327661709,-0.17334,-0.0297852,-0.464966,-0.867737
1470262327676723,-0.17334,-0.0297852,-0.464966,-0.867737
1470262327699243,-0.173279,-0.0297852,-0.464966,-0.867737
1470262327721762,-0.17334,-0.0298462,-0.464905,-0.867737
1470262327736276,-0.17334,-0.0299072,-0.464905,-0.867737
1470262327759296,-0.17334,-0.0298462,-0.464905,-0.867737
1470262327781816,-0.173584,-0.0299072,-0.464905,-0.867737
1470262327795932,-0.173889,-0.0300903,-0.464783,-0.867737
1470262327826454,-0.174377,-0.0303955,-0.464722,-0.867615
1470262327841470,-0.175049,-0.0307007,-0.464661,-0.867554
1470262327855980,-0.175781,-0.0310059,-0.464661,-0.867371
1470262327879000,-0.176453,-0.031189,-0.4646,-0.867249
1470262327901519,-0.177063,-0.031189,-0.4646,-0.867126
1470262327916036,-0.177734,-0.031311,-0.464417,-0.867065
1470262327939054,-0.178467,-0.0314941,-0.464294,-0.867004
1470262327961573,-0.179016,-0.0315552,-0.464111,-0.867004
1470262327976087,-0.179443,-0.0314941,-0.463928,-0.867004
1470262327999108,-0.17981,-0.0314941,-0.463745,-0.867004
1470262328021628,-0.180054,-0.0314941,-0.463562,-0.867065
1470262328042662,-0.180298,-0.0314941,-0.463379,-0.867126
1470262328059161,-0.180298,-0.0314941,-0.463379,-0.867126
1470262328081683,-0.180298,-0.0314941,-0.463379,-0.867126
1470262328102700,-0.180298,-0.0314941,-0.463379,-0.867126
1470262328119216,-0.180298,-0.0314941,-0.463379,-0.867126
1470262328141738,-0.180298,-0.0314941,-0.463379,-0.867126
1470262328162756,-0.180542,-0.0316162,-0.463196,-0.867126
1470262328186777,-0.180725,-0.0318604,-0.463196,-0.867126
1470262328201790,-0.181152,-0.0321045,-0.463257,-0.867004
1470262328222838,-0.181641,-0.0322266,-0.463257,-0.866882
1470262328239325,-0.182129,-0.0322876,-0.463196,-0.86676
1470262328261843,-0.182617,-0.0323486,-0.463135,-0.866699
1470262328282862,-0.183044,-0.0325317,-0.463074,-0.866699
1470262328298880,-0.183533,-0.0325928,-0.462952,-0.866638
1470262328321897,-0.184021,-0.0327148,-0.46283,-0.866577
1470262328342916,-0.184509,-0.0327759,-0.462708,-0.866516
1470262328358931,-0.184937,-0.0328979,-0.462708,-0.866455
1470262328381951,-0.185364,-0.0330811,-0.462646,-0.866394
1470262328402980,-0.185608,-0.0331421,-0.462646,-0.866333
1470262328419485,-0.185608,-0.0331421,-0.462646,-0.866333
1470262328441504,-0.185486,-0.032959,-0.462585,-0.866394
1470262328463025,-0.185486,-0.032959,-0.462585,-0.866394
1470262328479050,-0.185486,-0.032959,-0.462585,-0.866394
1470262328501558,-0.185852,-0.0332031,-0.462402,-0.866394
1470262328524078,-0.186157,-0.0334473,-0.462341,-0.866394
1470262328539095,-0.186401,-0.0335083,-0.462158,-0.866394
1470262328561613,-0.186462,-0.0334473,-0.462036,-0.866455
1470262328584133,-0.186707,-0.0332642,-0.461792,-0.866516
1470262328599147,-0.18689,-0.0332031,-0.461548,-0.866638
1470262328621667,-0.186951,-0.0331421,-0.461182,-0.866821
1470262328644187,-0.18689,-0.032959,-0.460999,-0.866943
1470262328658700,-0.18689,-0.032959,-0.460999,-0.866943
1470262328681721,-0.18689,-0.032959,-0.460999,-0.866943
1470262328704241,-0.186951,-0.03302,-0.460999,-0.866943
1470262328718755,-0.186951,-0.03302,-0.460999,-0.866943
1470262328741775,-0.186951,-0.03302,-0.460999,-0.866882
1470262328764295,-0.186951,-0.03302,-0.460999,-0.866943
1470262328778808,-0.186951,-0.0330811,-0.460999,-0.866943
1470262328801828,-0.187195,-0.03302,-0.46106,-0.866821
1470262328824348,-0.1875,-0.03302,-0.46106,-0.86676
1470262328838361,-0.187866,-0.0330811,-0.461243,-0.866577
1470262328861882,-0.187988,-0.0333252,-0.461487,-0.866394
1470262328884403,-0.187988,-0.0333862,-0.461792,-0.866272
1470262328898916,-0.188049,-0.0332642,-0.461975,-0.86615
1470262328921436,-0.188049,-0.0332642,-0.461975,-0.86615
1470262328943956,-0.188049,-0.0332642,-0.461975,-0.86615
1470262328958969,-0.187927,-0.03302,-0.461914,-0.866211
1470262328981491,-0.187927,-0.03302,-0.461914,-0.866211
1470262328986995,-0.187927,-0.03302,-0.461914,-0.866211
1470262329009515,-0.187927,-0.0330811,-0.461914,-0.866211
1470262329027530,-0.187927,-0.0330811,-0.461914,-0.866211
1470262329047049,-0.187927,-0.0330811,-0.461914,-0.866211
1470262329069570,-0.187927,-0.0330811,-0.461914,-0.866211
1470262329087585,-0.187927,-0.0330811,-0.461914,-0.866211
1470262329107102,-0.187927,-0.0330811,-0.461914,-0.866211
1470262329137130,-0.188171,-0.03302,-0.461914,-0.86615
1470262329147639,-0.188354,-0.0328369,-0.461914,-0.86615
1470262329167157,-0.18866,-0.0327759,-0.461914,-0.866028
1470262329189676,-0.189209,-0.0327759,-0.462036,-0.865906
1470262329207192,-0.189636,-0.0328369,-0.462036,-0.865784
1470262329227211,-0.189819,-0.0328369,-0.462036,-0.865723
1470262329249730,-0.189819,-0.0328369,-0.462036,-0.865723
1470262329267747,-0.189819,-0.0328369,-0.462036,-0.865723
1470262329287264,-0.189819,-0.0328369,-0.462036,-0.865723
1470262329309784,-0.189758,-0.0326538,-0.461975,-0.865784
1470262329327804,-0.189758,-0.0326538,-0.461975,-0.865784
1470262329347318,-0.189758,-0.0326538,-0.461975,-0.865784
1470262329369339,-0.190002,-0.0326538,-0.461914,-0.865784
1470262329387369,-0.190063,-0.0325928,-0.461914,-0.865784
1470262329414392,-0.190002,-0.0325928,-0.461914,-0.865784
1470262329429391,-0.190002,-0.0325928,-0.461914,-0.865784
1470262329447408,-0.190186,-0.0325317,-0.461853,-0.865723
1470262329466940,-0.190613,-0.0325317,-0.461853,-0.865662
1470262329489447,-0.190613,-0.0325317,-0.461853,-0.865662
1470262329507478,-0.190613,-0.0325317,-0.461853,-0.865662
1470262329526979,-0.190613,-0.0325317,-0.461853,-0.865662
1470262329549500,-0.190613,-0.0325317,-0.461853,-0.865662
1470262329567516,-0.190613,-0.0325317,-0.461853,-0.865662
1470262329587034,-0.190613,-0.0325317,-0.461853,-0.865662
1470262329609554,-0.190613,-0.0325317,-0.461853,-0.865662
1470262329627571,-0.190613,-0.0325317,-0.461853,-0.865662
1470262329647087,-0.190674,-0.0324707,-0.461853,-0.865662
1470262329669607,-0.190674,-0.0324707,-0.461853,-0.865662
1470262329693629,-0.190552,-0.0323486,-0.461731,-0.865723
1470262329707141,-0.19043,-0.0322266,-0.46167,-0.865845
1470262329737168,-0.190186,-0.0320435,-0.461609,-0.865906
1470262329747678,-0.190186,-0.0320435,-0.461609,-0.865906
1470262329767196,-0.190063,-0.0319214,-0.461548,-0.865967
1470262329789715,-0.189819,-0.0317993,-0.461487,-0.866089
1470262329807732,-0.189636,-0.0315552,-0.461365,-0.866211
1470262329827250,-0.189331,-0.031311,-0.461243,-0.866333
1470262329849770,-0.188965,-0.0311279,-0.461121,-0.866455
1470262329867285,-0.188538,-0.0308228,-0.46106,-0.866638
1470262329887305,-0.18811,-0.0305786,-0.460938,-0.86676
1470262329909323,-0.187805,-0.0305176,-0.460938,-0.866821
1470262329933344,-0.187195,-0.0305176,-0.461121,-0.866882
1470262329946856,-0.186401,-0.0303345,-0.461304,-0.866943
1470262329969377,-0.185547,-0.0300293,-0.461426,-0.867065
1470262329987392,-0.185059,-0.0299072,-0.461426,-0.867188
1470262330006910,-0.185059,-0.0299072,-0.461426,-0.867188
1470262330029431,-0.185242,-0.0299683,-0.461243,-0.867249
1470262330047447,-0.185547,-0.0300903,-0.461121,-0.867249
1470262330068465,-0.185547,-0.0300903,-0.461121,-0.867249
1470262330089484,-0.185608,-0.0300293,-0.461121,-0.867249
1470262330107501,-0.185608,-0.0300293,-0.461121,-0.867249
1470262330128519,-0.185303,-0.0299072,-0.460999,-0.867371
1470262330149540,-0.184753,-0.0297852,-0.460815,-0.867615
1470262330167555,-0.184021,-0.029541,-0.460632,-0.867859
1470262330189075,-0.183289,-0.0294189,-0.460449,-0.868103
1470262330212595,-0.182739,-0.0292358,-0.460388,-0.868286
1470262330227608,-0.182373,-0.0289917,-0.460327,-0.868408
1470262330248627,-0.182068,-0.0289307,-0.460327,-0.868469
1470262330269647,-0.182007,-0.0288696,-0.460266,-0.86853
1470262330287662,-0.182007,-0.0289307,-0.460266,-0.86853
1470262330308682,-0.182007,-0.0289307,-0.460266,-0.86853
1470262330329699,-0.182007,-0.0289307,-0.460266,-0.86853
1470262330347717,-0.18219,-0.0290527,-0.460205,-0.868469
1470262330368736,-0.182373,-0.0292969,-0.460205,-0.868408
1470262330389754,-0.182617,-0.0293579,-0.460144,-0.868408
1470262330407771,-0.182617,-0.0293579,-0.460144,-0.868408
1470262330429790,-0.182617,-0.0293579,-0.460144,-0.868408
1470262330449808,-0.182617,-0.0293579,-0.460144,-0.868408
1470262330467324,-0.182617,-0.0293579,-0.460144,-0.868408
1470262330489843,-0.182617,-0.0293579,-0.460144,-0.868408
1470262330509398,-0.182617,-0.0294189,-0.460144,-0.868408
1470262330527381,-0.182434,-0.0292969,-0.460144,-0.868469
1470262330549898,-0.182434,-0.0292969,-0.460144,-0.868469
1470262330569917,-0.182434,-0.0292969,-0.460083,-0.868469
1470262330587431,-0.182434,-0.0292969,-0.460083,-0.868469
1470262330609951,-0.182251,-0.0291138,-0.460022,-0.868591
1470262330632472,-0.181946,-0.0288696,-0.459961,-0.868652
1470262330647486,-0.18158,-0.0286255,-0.459839,-0.868835
1470262330670005,-0.181274,-0.0285645,-0.459778,-0.868958
1470262330689523,-0.181152,-0.0285034,-0.459656,-0.869019
1470262330707539,-0.181152,-0.0285034,-0.459656,-0.869019
1470262330730059,-0.180908,-0.0283813,-0.459656,-0.86908
1470262330749577,-0.180664,-0.0281982,-0.459656,-0.869141
1470262330767593,-0.180298,-0.0280762,-0.459717,-0.869202
1470262330790116,-0.179871,-0.0278931,-0.459656,-0.869324
1470262330809630,-0.179443,-0.02771,-0.459656,-0.869385
1470262330827647,-0.179138,-0.0276489,-0.459595,-0.869507
1470262330850168,-0.178955,-0.02771,-0.459534,-0.869568
1470262330869685,-0.178772,-0.0276489,-0.459534,-0.869568
1470262330887701,-0.178589,-0.0276489,-0.459534,-0.869629
1470262330909721,-0.178467,-0.0275879,-0.459595,-0.869629
1470262330929738,-0.178467,-0.0275879,-0.459595,-0.869629
1470262330947755,-0.178406,-0.0275879,-0.459595,-0.869629
1470262330970275,-0.178406,-0.0275879,-0.459595,-0.869629
1470262330989792,-0.178101,-0.0274658,-0.459717,-0.869629
1470262331007308,-0.177795,-0.0273438,-0.459717,-0.86969
1470262331030330,-0.177551,-0.0273438,-0.459717,-0.869751
1470262331050847,-0.177307,-0.0272827,-0.459717,-0.869812
1470262331067363,-0.177307,-0.0272827,-0.459717,-0.869812
1470262331089883,-0.177307,-0.0272827,-0.459717,-0.869812
1470262331110902,-0.177307,-0.0272827,-0.459717,-0.869812
1470262331127417,-0.177246,-0.0273438,-0.459717,-0.869812
1470262331149937,-0.177246,-0.0272827,-0.459717,-0.869812
1470262331170955,-0.177246,-0.0272827,-0.459717,-0.869812
1470262331187470,-0.177063,-0.0272217,-0.459778,-0.869873
1470262331209990,-0.17688,-0.0271606,-0.459717,-0.869873
1470262331231010,-0.17688,-0.0271606,-0.459717,-0.869873
1470262331247525,-0.17688,-0.0271606,-0.459717,-0.869873
1470262331270045,-0.17688,-0.0271606,-0.459717,-0.869873
1470262331291063,-0.177002,-0.0272217,-0.459656,-0.869873
1470262331307579,-0.177002,-0.0272217,-0.459656,-0.869873
1470262331330100,-0.177002,-0.0272217,-0.459656,-0.869873
1470262331352619,-0.177002,-0.0272217,-0.459656,-0.869873
1470262331367632,-0.177002,-0.0272217,-0.459656,-0.869873
1470262331390151,-0.177002,-0.0272217,-0.459656,-0.869873
1470262331412673,-0.177185,-0.0273438,-0.459595,-0.869873
1470262331427686,-0.177429,-0.0275269,-0.459412,-0.869934
1470262331456713,-0.177429,-0.0275269,-0.459412,-0.869934
1470262331471727,-0.177429,-0.0274658,-0.459412,-0.869934
1470262331492744,-0.177429,-0.0275269,-0.459412,-0.869934
1470262331509260,-0.177429,-0.0275269,-0.459412,-0.869934
1470262331531779,-0.177429,-0.0275269,-0.459412,-0.869934
1470262331552800,-0.177429,-0.0275269,-0.459412,-0.869934
1470262331569316,-0.177429,-0.0275269,-0.459412,-0.869934
1470262331591833,-0.177185,-0.0274658,-0.459412,-0.869995
1470262331605846,-0.177002,-0.0274658,-0.459351,-0.870056
1470262331629367,-0.17688,-0.0274658,-0.45929,-0.870117
1470262331651887,-0.17688,-0.0274658,-0.45929,-0.870117
1470262331665899,-0.17688,-0.0274658,-0.45929,-0.870117
1470262331688921,-0.17688,-0.0274658,-0.45929,-0.870117
1470262331711441,-0.17688,-0.0274658,-0.45929,-0.870117
1470262331725954,-0.176819,-0.0274658,-0.45929,-0.870117
1470262331749477,-0.176636,-0.0273438,-0.45929,-0.870178
1470262331771495,-0.176392,-0.0274048,-0.459229,-0.870239
1470262331786009,-0.176392,-0.0274048,-0.459229,-0.870239
1470262331809028,-0.176392,-0.0274048,-0.459229,-0.870239
1470262331831549,-0.176392,-0.0274048,-0.459229,-0.870239
1470262331852569,-0.176392,-0.0274048,-0.459229,-0.870239
1470262331869082,-0.176392,-0.0274048,-0.459229,-0.870239
1470262331891604,-0.176392,-0.0274048,-0.459229,-0.870239
1470262331912621,-0.176392,-0.0274048,-0.459229,-0.870239
1470262331929137,-0.176392,-0.0274048,-0.459229,-0.870239
1470262331951656,-0.176392,-0.0274048,-0.459229,-0.870239
1470262331972675,-0.176636,-0.0274658,-0.459167,-0.870239
1470262331989190,-0.17688,-0.0275269,-0.459167,-0.870178
1470262332011710,-0.177063,-0.0276489,-0.459229,-0.870117
1470262332032730,-0.177368,-0.027771,-0.45929,-0.869995
1470262332049244,-0.177734,-0.027771,-0.459473,-0.869812
1470262332071764,-0.178162,-0.027832,-0.459656,-0.869629
1470262332092783,-0.178528,-0.0279541,-0.4599,-0.869446
1470262332109299,-0.178894,-0.0280762,-0.460144,-0.869263
1470262332131819,-0.179382,-0.0281982,-0.460266,-0.86908
1470262332152837,-0.179871,-0.0281372,-0.460327,-0.868958
1470262332169353,-0.180237,-0.0281982,-0.460449,-0.868774
1470262332191872,-0.180542,-0.0283203,-0.46051,-0.868713
1470262332212891,-0.180847,-0.0283813,-0.46051,-0.868652
1470262332229406,-0.181152,-0.0285034,-0.460449,-0.868591
1470262332251426,-0.181519,-0.0285645,-0.460449,-0.86853
1470262332272944,-0.181885,-0.0286865,-0.460449,-0.868469
1470262332288959,-0.182373,-0.0288086,-0.460388,-0.868347
1470262332311480,-0.1828,-0.0288696,-0.460449,-0.868225
1470262332334000,-0.183105,-0.0289307,-0.460571,-0.868103
1470262332349514,-0.183594,-0.0289917,-0.460693,-0.867981
1470262332372035,-0.18396,-0.0291138,-0.460754,-0.867798
1470262332394054,-0.184326,-0.0292358,-0.460815,-0.867676
1470262332409068,-0.184326,-0.0292358,-0.460815,-0.867676
1470262332431588,-0.184326,-0.0291748,-0.460815,-0.867676
1470262332454107,-0.184326,-0.0291748,-0.460815,-0.867676
1470262332469122,-0.184326,-0.0292358,-0.460815,-0.867676
1470262332491641,-0.184326,-0.0292358,-0.460815,-0.867676
1470262332514184,-0.184326,-0.0292358,-0.460815,-0.867676
1470262332528674,-0.184326,-0.0292358,-0.460815,-0.867676
1470262332552696,-0.184326,-0.0292358,-0.460815,-0.867676
1470262332574216,-0.184387,-0.0291748,-0.460815,-0.867676
1470262332588729,-0.184326,-0.0292358,-0.460815,-0.867676
1470262332611749,-0.184387,-0.0292358,-0.460815,-0.867676
1470262332634270,-0.184387,-0.0292358,-0.460815,-0.867676
1470262332648782,-0.184509,-0.0293579,-0.460876,-0.867615
1470262332671803,-0.184753,-0.02948,-0.460938,-0.867554
1470262332694323,-0.184753,-0.029541,-0.460938,-0.867554
1470262332708335,-0.184753,-0.029541,-0.460938,-0.867554
1470262332731857,-0.184753,-0.029541,-0.460938,-0.867554
1470262332753877,-0.18457,-0.0294189,-0.460938,-0.867554
1470262332768890,-0.18457,-0.0294189,-0.460938,-0.867554
1470262332791411,-0.18457,-0.0294189,-0.460938,-0.867554
1470262332813930,-0.18457,-0.0294189,-0.460938,-0.867554
1470262332835451,-0.184387,-0.0293579,-0.460938,-0.867615
1470262332851967,-0.184082,-0.0292969,-0.460938,-0.867676
1470262332873985,-0.183838,-0.0291748,-0.460938,-0.867737
1470262332895503,-0.183655,-0.0291138,-0.460876,-0.867798
1470262332911518,-0.183533,-0.0289307,-0.460876,-0.867859
1470262332934039,-0.18335,-0.0288696,-0.460815,-0.86792
1470262332955559,-0.18335,-0.0288696,-0.460815,-0.86792
1470262332971572,-0.183228,-0.0288086,-0.460876,-0.86792
1470262332994092,-0.183105,-0.0286865,-0.460938,-0.86792
1470262333022619,-0.182922,-0.0286255,-0.460938,-0.86792
1470262333031628,-0.182739,-0.0285645,-0.460999,-0.867981
1470262333054146,-0.182495,-0.0285034,-0.46106,-0.867981
1470262333075166,-0.182495,-0.0285645,-0.46106,-0.867981
1470262333091680,-0.182495,-0.0285645,-0.46106,-0.867981
1470262333114201,-0.182495,-0.0285645,-0.46106,-0.867981
1470262333135219,-0.182495,-0.0285645,-0.46106,-0.867981
1470262333151736,-0.182495,-0.0285645,-0.46106,-0.867981
1470262333174255,-0.182495,-0.0285645,-0.46106,-0.867981
1470262333195290,-0.182495,-0.0285645,-0.46106,-0.867981
1470262333211790,-0.182495,-0.0285645,-0.46106,-0.867981
1470262333234308,-0.182495,-0.0285645,-0.46106,-0.867981
1470262333256828,-0.182495,-0.0285645,-0.46106,-0.867981
1470262333271842,-0.182434,-0.0285645,-0.46106,-0.867981
1470262333300396,-0.182434,-0.0285645,-0.46106,-0.867981
1470262333316883,-0.182434,-0.0285645,-0.46106,-0.867981
1470262333331896,-0.182434,-0.0285645,-0.46106,-0.867981
1470262333354447,-0.182434,-0.0285645,-0.46106,-0.867981
1470262333376451,-0.182434,-0.0285645,-0.46106,-0.867981
1470262333391454,-0.182434,-0.0285645,-0.46106,-0.867981
1470262333414472,-0.182434,-0.0285034,-0.46106,-0.867981
1470262333436489,-0.182434,-0.0285034,-0.46106,-0.867981
1470262333451002,-0.182434,-0.0285034,-0.46106,-0.867981
1470262333474523,-0.182434,-0.0285034,-0.46106,-0.867981
1470262333496543,-0.182434,-0.0285645,-0.46106,-0.867981
1470262333511058,-0.182373,-0.0285645,-0.46106,-0.868042
1470262333534077,-0.182129,-0.0284424,-0.460999,-0.868103
1470262333557098,-0.181885,-0.0283203,-0.460999,-0.868164
1470262333579118,-0.181885,-0.0283203,-0.460999,-0.868164
1470262333594131,-0.181885,-0.0283203,-0.460999,-0.868164
1470262333616651,-0.181885,-0.0283203,-0.460999,-0.868164
1470262333631164,-0.181946,-0.0283203,-0.460999,-0.868164
1470262333654186,-0.181885,-0.0283813,-0.460876,-0.868225
1470262333676706,-0.181885,-0.0283813,-0.460876,-0.868225
1470262333691218,-0.181824,-0.0283813,-0.460876,-0.868225
1470262333714239,-0.181824,-0.0283813,-0.460876,-0.868225
1470262333736760,-0.181824,-0.0284424,-0.460876,-0.868225
1470262333757778,-0.181824,-0.0284424,-0.460876,-0.868225
1470262333774293,-0.18158,-0.0283813,-0.460754,-0.868347
1470262333796814,-0.181519,-0.0283813,-0.460754,-0.868347
1470262333817832,-0.181519,-0.0283813,-0.460754,-0.868347
1470262333834347,-0.181519,-0.0283813,-0.460754,-0.868347
1470262333856868,-0.181519,-0.0283813,-0.460754,-0.868347
1470262333877885,-0.181335,-0.0283813,-0.460693,-0.868408
1470262333893901,-0.181335,-0.0283813,-0.460693,-0.868408
1470262333916420,-0.181335,-0.0283813,-0.460693,-0.868408
1470262333937939,-0.181335,-0.0284424,-0.460693,-0.868408
1470262333954455,-0.181335,-0.0284424,-0.460693,-0.868408
1470262333976974,-0.181274,-0.0284424,-0.460693,-0.868408
1470262333997993,-0.181274,-0.0284424,-0.460693,-0.868408
1470262334014009,-0.181335,-0.0284424,-0.460693,-0.868408
1470262334036529,-0.181335,-0.0284424,-0.460693,-0.868408
1470262334058048,-0.181335,-0.0283813,-0.460693,-0.868408
1470262334074062,-0.181091,-0.0283813,-0.460754,-0.868469
1470262334097083,-0.180786,-0.0283203,-0.460693,-0.86853
1470262334118102,-0.180481,-0.0282593,-0.460693,-0.868591
1470262334134116,-0.180176,-0.0281982,-0.460632,-0.868713
1470262334156637,-0.180176,-0.0281982,-0.460632,-0.868713
1470262334177655,-0.180176,-0.0281982,-0.460632,-0.868713
1470262334194170,-0.180176,-0.0281982,-0.460632,-0.868713
1470262334216690,-0.180176,-0.0281982,-0.460632,-0.868713
1470262334239210,-0.179871,-0.0281372,-0.460693,-0.868713
1470262334254223,-0.179565,-0.0280151,-0.460754,-0.868774
1470262334276744,-0.179565,-0.0280151,-0.460754,-0.868774
1470262334299265,-0.179565,-0.0280151,-0.460754,-0.868774
1470262334314278,-0.179565,-0.0280151,-0.460754,-0.868774
1470262334336798,-0.179565,-0.0280151,-0.460754,-0.868774
1470262334359819,-0.179504,-0.0280762,-0.460754,-0.868774
1470262334373330,-0.179504,-0.0280762,-0.460754,-0.868774
1470262334396852,-0.179504,-0.0280762,-0.460693,-0.868774
1470262334419373,-0.179504,-0.0280762,-0.460693,-0.868774
1470262334433386,-0.179504,-0.0280762,-0.460693,-0.868774
1470262334456906,-0.179321,-0.0279541,-0.460815,-0.868835
1470262334478926,-0.179321,-0.0279541,-0.460815,-0.868835
1470262334493439,-0.17926,-0.0279541,-0.460815,-0.868835
1470262334516961,-0.17926,-0.0279541,-0.460815,-0.868835
1470262334539479,-0.179199,-0.0279541,-0.460815,-0.868835
1470262334553494,-0.179077,-0.0278931,-0.460754,-0.868896
1470262334577013,-0.178894,-0.027832,-0.460754,-0.868958
1470262334606540,-0.178894,-0.027832,-0.460754,-0.868958
1470262334613546,-0.178894,-0.027832,-0.460754,-0.868958
1470262334636567,-0.179077,-0.0281372,-0.460815,-0.868835
1470262334659088,-0.179199,-0.0290527,-0.46106,-0.868652
1470262334673600,-0.179199,-0.0297852,-0.461487,-0.868408
1470262334696621,-0.179077,-0.0303955,-0.461853,-0.868225
1470262334719141,-0.178711,-0.0305786,-0.462158,-0.868164
1470262334740728,-0.178467,-0.0310669,-0.462402,-0.868042
1470262334756674,-0.178345,-0.0313721,-0.462646,-0.86792
1470262334779195,-0.178345,-0.0313721,-0.462646,-0.86792
1470262334800214,-0.178345,-0.0313721,-0.462646,-0.86792
1470262334816729,-0.178345,-0.0313721,-0.462646,-0.86792
1470262334839249,-0.178528,-0.0315552,-0.462708,-0.867859
1470262334860294,-0.178711,-0.0317383,-0.462708,-0.867798
1470262334876785,-0.179138,-0.0319824,-0.462769,-0.867676
1470262334899303,-0.179443,-0.0321655,-0.46283,-0.867554
1470262334920324,-0.179443,-0.0321655,-0.46283,-0.867554
1470262334936837,-0.179443,-0.0322266,-0.46283,-0.867554
1470262334959356,-0.179443,-0.0321655,-0.46283,-0.867554
1470262334980376,-0.179382,-0.0321655,-0.46283,-0.867554
1470262334996891,-0.179382,-0.0321655,-0.46283,-0.867554
1470262335019412,-0.179382,-0.0321655,-0.46283,-0.867554
1470262335040432,-0.179382,-0.0322266,-0.46283,-0.867554
1470262335056960,-0.179382,-0.0322266,-0.46283,-0.867554
1470262335079466,-0.179382,-0.0322266,-0.46283,-0.867554
1470262335100501,-0.179382,-0.0322266,-0.46283,-0.867554
1470262335116998,-0.179321,-0.0321655,-0.46283,-0.867554
1470262335139519,-0.179321,-0.0321655,-0.46283,-0.867554
1470262335161540,-0.179321,-0.0321655,-0.46283,-0.867554
1470262335176554,-0.179138,-0.0320435,-0.46283,-0.867615
1470262335199073,-0.179016,-0.0319214,-0.462891,-0.867615
1470262335221592,-0.178833,-0.0318604,-0.462891,-0.867676
1470262335236606,-0.178711,-0.0316772,-0.462952,-0.867676
1470262335259134,-0.178711,-0.0316772,-0.462952,-0.867676
1470262335281647,-0.17865,-0.0316772,-0.462952,-0.867676
1470262335296161,-0.17865,-0.0316772,-0.462952,-0.867676
1470262335319180,-0.17865,-0.0316772,-0.462952,-0.867676
1470262335341700,-0.17865,-0.0316772,-0.462952,-0.867676
1470262335356214,-0.17865,-0.0316772,-0.462952,-0.867676
1470262335379233,-0.17865,-0.0316772,-0.462952,-0.867676
1470262335401754,-0.17865,-0.0316772,-0.462952,-0.867676
1470262335416267,-0.17865,-0.0316772,-0.462952,-0.867676
1470262335439792,-0.17865,-0.0316772,-0.462952,-0.867676
1470262335461808,-0.17865,-0.0316772,-0.462952,-0.867676
1470262335484329,-0.178589,-0.0316772,-0.462952,-0.867676
1470262335499383,-0.178406,-0.0315552,-0.463013,-0.867676
1470262335521864,-0.178467,-0.0315552,-0.462952,-0.867676
1470262335536375,-0.178467,-0.0315552,-0.462952,-0.867676
1470262335566902,-0.178467,-0.0316162,-0.462952,-0.867676
1470262335581917,-0.178406,-0.0315552,-0.462952,-0.867676
1470262335595928,-0.178467,-0.0316162,-0.462952,-0.867676
1470262335619450,-0.178284,-0.0314331,-0.463074,-0.867676
1470262335649478,-0.178223,-0.0314331,-0.463074,-0.867676
1470262335662990,-0.178223,-0.0314331,-0.463074,-0.867676
1470262335679504,-0.178162,-0.0314331,-0.463074,-0.867676
1470262335701523,-0.178162,-0.0314331,-0.463074,-0.867676
1470262335723042,-0.178162,-0.0314331,-0.463074,-0.867676
1470262335739057,-0.178101,-0.0313721,-0.463135,-0.867737
1470262335761579,-0.17804,-0.031311,-0.463135,-0.867737
1470262335783096,-0.17804,-0.031311,-0.463135,-0.867737
1470262335799611,-0.17804,-0.031311,-0.463135,-0.867737
1470262335821630,-0.17804,-0.031311,-0.463135,-0.867737
1470262335844151,-0.17804,-0.031311,-0.463135,-0.867737
1470262335859165,-0.177979,-0.031311,-0.463135,-0.867737
1470262335881686,-0.177979,-0.031311,-0.463135,-0.867737
1470262335902726,-0.177979,-0.031311,-0.463135,-0.867737
1470262335926725,-0.177979,-0.031311,-0.463135,-0.867737
1470262335941739,-0.177979,-0.03125,-0.463135,-0.867737
1470262335962774,-0.177917,-0.031311,-0.463135,-0.867737
1470262335979273,-0.177917,-0.03125,-0.463135,-0.867737
1470262336001795,-0.177917,-0.03125,-0.463135,-0.867737
1470262336022844,-0.177917,-0.031311,-0.463135,-0.867737
1470262336039327,-0.177917,-0.03125,-0.463135,-0.867737
1470262336069356,-0.177856,-0.03125,-0.463135,-0.867737
1470262336084368,-0.177856,-0.03125,-0.463135,-0.867737
1470262336099382,-0.177856,-0.03125,-0.463135,-0.867737
1470262336121901,-0.177856,-0.03125,-0.463135,-0.867737
1470262336144421,-0.177856,-0.03125,-0.463135,-0.867737
1470262336159434,-0.177856,-0.03125,-0.463135,-0.867737
1470262336181954,-0.177856,-0.03125,-0.463135,-0.867737
1470262336204474,-0.177856,-0.03125,-0.463135,-0.867737
1470262336219488,-0.177856,-0.031189,-0.463135,-0.867737
1470262336242008,-0.177673,-0.0309448,-0.463196,-0.867798
1470262336264530,-0.177429,-0.0307617,-0.463257,-0.867798
1470262336278541,-0.177368,-0.0307617,-0.463257,-0.867798
1470262336301562,-0.177429,-0.0308228,-0.463257,-0.867798
1470262336324087,-0.177612,-0.0308228,-0.463257,-0.867737
1470262336338597,-0.177612,-0.0307617,-0.463257,-0.867737
1470262336361616,-0.177612,-0.0307617,-0.463257,-0.867737
1470262336384137,-0.17749,-0.0306396,-0.463257,-0.867798
1470262336398649,-0.17749,-0.0306396,-0.463257,-0.867798
1470262336429177,-0.177429,-0.0307007,-0.463257,-0.867798
1470262336444192,-0.17749,-0.0306396,-0.463257,-0.867798
1470262336458703,-0.177429,-0.0306396,-0.463257,-0.867798
1470262336481724,-0.177429,-0.0306396,-0.463257,-0.867798
1470262336504244,-0.177429,-0.0306396,-0.463257,-0.867798
1470262336518757,-0.177429,-0.0306396,-0.463257,-0.867798
1470262336541777,-0.177429,-0.0306396,-0.463257,-0.867798
1470262336564298,-0.177368,-0.0306396,-0.463257,-0.867798
1470262336578312,-0.177612,-0.0307007,-0.463257,-0.867737
1470262336601832,-0.177856,-0.0308228,-0.463257,-0.867676
1470262336624352,-0.178162,-0.0308838,-0.463257,-0.867615
1470262336645395,-0.178467,-0.0310669,-0.463257,-0.867554
1470262336661889,-0.17865,-0.031189,-0.463318,-0.867493
1470262336684405,-0.178894,-0.03125,-0.463318,-0.867432
1470262336705453,-0.179077,-0.031311,-0.463318,-0.867432
1470262336721939,-0.179077,-0.031311,-0.463318,-0.867432
1470262336744459,-0.179077,-0.031311,-0.463318,-0.867432
1470262336756971,-0.179016,-0.031311,-0.463318,-0.867432
1470262336767982,-0.179199,-0.0314331,-0.463379,-0.867371
1470262336787507,-0.179199,-0.0314331,-0.463379,-0.867371
1470262336809523,-0.179199,-0.0314331,-0.463379,-0.867371
1470262336827536,-0.179138,-0.0314331,-0.463379,-0.867371
1470262336847127,-0.179321,-0.0314941,-0.46344,-0.86731
1470262336869587,-0.179504,-0.0315552,-0.46344,-0.867249
1470262336887588,-0.179504,-0.0315552,-0.46344,-0.867249
1470262336908607,-0.179443,-0.0315552,-0.46344,-0.867249
1470262336929681,-0.179443,-0.0315552,-0.46344,-0.867249
1470262336947643,-0.179688,-0.0316162,-0.463501,-0.867188
1470262336967161,-0.179688,-0.0316162,-0.463501,-0.867188
1470262336989695,-0.179688,-0.0316162,-0.463501,-0.867188
1470262337007697,-0.179688,-0.0316162,-0.463501,-0.867188
1470262337027243,-0.179688,-0.0316162,-0.463501,-0.867188
1470262337049747,-0.179688,-0.0316162,-0.463501,-0.867188
1470262337072270,-0.179688,-0.0316162,-0.463501,-0.867188
1470262337087270,-0.179688,-0.0316162,-0.463501,-0.867188
1470262337109848,-0.179688,-0.0316162,-0.463501,-0.867188
1470262337132339,-0.179688,-0.0315552,-0.463501,-0.867188
1470262337149824,-0.179688,-0.0316162,-0.463501,-0.867188
1470262337169883,-0.179688,-0.0316162,-0.463501,-0.867188
1470262337187357,-0.179688,-0.0316162,-0.463501,-0.867188
1470262337207376,-0.179688,-0.0316162,-0.463501,-0.867188
1470262337229896,-0.179688,-0.0316162,-0.463501,-0.867188
1470262337252416,-0.179688,-0.0316162,-0.463501,-0.867188
1470262337267430,-0.179688,-0.0316162,-0.463501,-0.867188
1470262337290075,-0.179626,-0.0316162,-0.463501,-0.867188
1470262337312471,-0.179749,-0.0315552,-0.46344,-0.867188
1470262337327569,-0.179993,-0.0315552,-0.463257,-0.867249
1470262337350003,-0.180359,-0.0315552,-0.463074,-0.867249
1470262337372054,-0.18103,-0.0317383,-0.462891,-0.867188
1470262337387048,-0.18219,-0.0317383,-0.462524,-0.867188
1470262337409556,-0.183655,-0.0319824,-0.462219,-0.867004
1470262337432091,-0.18512,-0.0321045,-0.461914,-0.866882
1470262337447091,-0.186279,-0.0322876,-0.46167,-0.866699
1470262337469627,-0.187073,-0.0322876,-0.461548,-0.866638
1470262337492164,-0.187317,-0.0322876,-0.461487,-0.866577
1470262337507177,-0.187317,-0.0322266,-0.461487,-0.866577
1470262337529665,-0.186951,-0.0322266,-0.461548,-0.866638
1470262337553686,-0.186401,-0.0319824,-0.461548,-0.86676
1470262337567198,-0.185852,-0.0317993,-0.461548,-0.866882
1470262337589777,-0.185364,-0.0315552,-0.461487,-0.867004
1470262337612240,-0.184998,-0.0314331,-0.461487,-0.867126
1470262337627252,-0.184875,-0.0314331,-0.461426,-0.867188
1470262337649793,-0.184875,-0.0314331,-0.461426,-0.867188
1470262337672294,-0.184875,-0.0314331,-0.461426,-0.867188
1470262337688819,-0.185059,-0.0314331,-0.461426,-0.867126
1470262337709883,-0.185486,-0.0314941,-0.461426,-0.867065
1470262337732346,-0.185791,-0.0316162,-0.461426,-0.867004
1470262337748861,-0.186035,-0.0317383,-0.461426,-0.866943
1470262337769880,-0.186279,-0.0317993,-0.461426,-0.866882
1470262337792401,-0.186646,-0.0318604,-0.461426,-0.866821
1470262337808916,-0.187012,-0.0319824,-0.461304,-0.86676
1470262337829934,-0.187317,-0.0320435,-0.461365,-0.866699
1470262337852454,-0.187317,-0.0320435,-0.461365,-0.866699
1470262337868468,-0.187317,-0.0320435,-0.461365,-0.866699
1470262337889487,-0.187317,-0.0320435,-0.461365,-0.866699
1470262337912514,-0.187317,-0.0320435,-0.461365,-0.866699
1470262337928523,-0.187256,-0.0320435,-0.461365,-0.866699
1470262337949543,-0.187439,-0.0321045,-0.461243,-0.866699
1470262337972064,-0.187683,-0.0321045,-0.461121,-0.866699
1470262337988579,-0.187866,-0.0321045,-0.460999,-0.86676
1470262338009640,-0.187927,-0.0321045,-0.460999,-0.866699
1470262338032116,-0.187866,-0.0321045,-0.460999,-0.866699
1470262338050136,-0.187927,-0.0319824,-0.460815,-0.866821
1470262338069650,-0.187744,-0.0317993,-0.460632,-0.866943
1470262338092172,-0.187744,-0.0317383,-0.460449,-0.867065
1470262338110186,-0.187683,-0.0316772,-0.460266,-0.867188
1470262338129732,-0.187744,-0.0316772,-0.460266,-0.867188
1470262338152243,-0.187744,-0.0316772,-0.460266,-0.867188
1470262338177806,-0.187744,-0.0316772,-0.460266,-0.867188
1470262338189789,-0.187744,-0.0316772,-0.460266,-0.867188
1470262338212292,-0.187744,-0.0316772,-0.460266,-0.867188
1470262338230366,-0.187744,-0.0316772,-0.460266,-0.867188
1470262338249822,-0.187744,-0.0316772,-0.460266,-0.867188
1470262338272331,-0.187744,-0.0316772,-0.460266,-0.867188
1470262338294855,-0.187744,-0.0316772,-0.460266,-0.867188
1470262338309870,-0.187744,-0.0316772,-0.460266,-0.867188
1470262338339892,-0.187744,-0.0316772,-0.460266,-0.867188
1470262338350401,-0.187744,-0.0317383,-0.460266,-0.867188
1470262338369919,-0.187561,-0.0316772,-0.460266,-0.867188
1470262338392513,-0.187256,-0.0315552,-0.460327,-0.867249
1470262338409955,-0.186829,-0.0313721,-0.460327,-0.867371
1470262338430068,-0.186401,-0.031189,-0.460327,-0.867432
1470262338452581,-0.185974,-0.03125,-0.460327,-0.867554
1470262338470008,-0.185669,-0.03125,-0.460205,-0.867676
1470262338490027,-0.185242,-0.03125,-0.460205,-0.867798
1470262338512060,-0.184814,-0.03125,-0.460205,-0.867859
1470262338530068,-0.184387,-0.03125,-0.460205,-0.86792
1470262338550083,-0.184387,-0.03125,-0.460205,-0.86792
1470262338575103,-0.184387,-0.03125,-0.460205,-0.86792
1470262338590118,-0.184326,-0.03125,-0.460205,-0.86792
1470262338617141,-0.184326,-0.03125,-0.460205,-0.86792
1470262338632155,-0.184326,-0.03125,-0.460266,-0.86792
1470262338650170,-0.184448,-0.031189,-0.460022,-0.868042
1470262338671189,-0.184631,-0.03125,-0.459778,-0.868103
1470262338699715,-0.184875,-0.0313721,-0.459412,-0.868225
1470262338710225,-0.18512,-0.0313721,-0.459045,-0.868408
1470262338731245,-0.185181,-0.0314331,-0.45874,-0.86853
1470262338752262,-0.185181,-0.0314331,-0.458374,-0.868774
1470262338770279,-0.185059,-0.0315552,-0.458069,-0.868896
1470262338791297,-0.185059,-0.0314941,-0.457825,-0.869019
1470262338812316,-0.185303,-0.0315552,-0.457642,-0.869141
1470262338830333,-0.185669,-0.0315552,-0.457336,-0.869202
1470262338851351,-0.186035,-0.0315552,-0.457092,-0.869202
1470262338872370,-0.186218,-0.0316162,-0.456909,-0.869263
1470262338890387,-0.186523,-0.0317383,-0.456787,-0.869324
1470262338911406,-0.186768,-0.0317993,-0.456604,-0.869324
1470262338932425,-0.187073,-0.0319824,-0.456482,-0.869324
1470262338950441,-0.187317,-0.0321045,-0.456421,-0.869263
1470262338972460,-0.187256,-0.0321045,-0.456421,-0.869324
1470262338991993,-0.187317,-0.0324097,-0.456482,-0.869263
1470262339010025,-0.187378,-0.0328979,-0.456726,-0.86908
1470262339032514,-0.187561,-0.0336304,-0.457031,-0.868835
1470262339052537,-0.187805,-0.0343018,-0.457397,-0.868591
1470262339070049,-0.18811,-0.0349121,-0.457764,-0.868286
1470262339092568,-0.188599,-0.0353394,-0.458008,-0.868042
1470262339112113,-0.189636,-0.0360718,-0.458557,-0.867493
1470262339130131,-0.190857,-0.0365601,-0.458862,-0.867065
1470262339152621,-0.192688,-0.0373535,-0.458984,-0.866577
1470262339172142,-0.194946,-0.0387573,-0.458984,-0.865967
1470262339189655,-0.198364,-0.0403442,-0.459229,-0.86499
1470262339211686,-0.203674,-0.0425415,-0.459473,-0.863525
1470262339234195,-0.211609,-0.0452271,-0.459595,-0.86145
1470262339255838,-0.220276,-0.0446777,-0.461853,-0.858093
1470262339271731,-0.225647,-0.0383301,-0.468445,-0.853394
1470262339293248,-0.225281,-0.0281982,-0.476257,-0.849548
1470262339309262,-0.218689,-0.0144653,-0.483582,-0.847473
1470262339331782,-0.219482,-0.00592041,-0.489807,-0.843811
1470262339352811,-0.232117,-0.00506592,-0.495178,-0.83728
1470262339370818,-0.251038,-0.0136719,-0.499023,-0.829407
1470262339391837,-0.266724,-0.0253296,-0.501526,-0.822693
1470262339412873,-0.278442,-0.0379639,-0.503357,-0.817139
1470262339429370,-0.285645,-0.0534668,-0.503784,-0.813538
1470262339451891,-0.2901,-0.0725708,-0.503174,-0.810913
1470262339472938,-0.290588,-0.0931396,-0.501404,-0.809692
1470262339489425,-0.284851,-0.113831,-0.498901,-0.810608
1470262339511944,-0.274048,-0.134338,-0.495972,-0.812988
1470262339533044,-0.261414,-0.156494,-0.492432,-0.815369
1470262339549978,-0.250183,-0.181946,-0.487122,-0.816772
1470262339571998,-0.240112,-0.210327,-0.47998,-0.8172
1470262339593018,-0.230347,-0.239441,-0.472168,-0.816589
1470262339617039,-0.221191,-0.267334,-0.46405,-0.815063
1470262339632053,-0.212463,-0.293152,-0.455688,-0.813232
1470262339653071,-0.204834,-0.316956,-0.446777,-0.811218
1470262339675592,-0.198975,-0.338745,-0.437256,-0.809082
1470262339691606,-0.195923,-0.358459,-0.427246,-0.806641
1470262339713125,-0.196228,-0.376221,-0.417236,-0.803711
1470262339728640,-0.198669,-0.391235,-0.407898,-0.80072
1470262339751697,-0.19989,-0.402832,-0.399963,-0.798706
1470262339773179,-0.201233,-0.411499,-0.393372,-0.797241
1470262339788696,-0.204163,-0.418518,-0.387024,-0.795898
1470262339811713,-0.205933,-0.423828,-0.38147,-0.795349
1470262339832772,-0.207397,-0.428894,-0.375732,-0.794983
1470262339848747,-0.208435,-0.434143,-0.36908,-0.794983
1470262339886280,-0.208069,-0.439331,-0.362427,-0.795288
1470262339893345,-0.20636,-0.444702,-0.355591,-0.795837
1470262339908801,-0.202087,-0.449646,-0.349548,-0.796814
1470262339931821,-0.194336,-0.454102,-0.344788,-0.798279
1470262339960381,-0.184631,-0.459229,-0.340149,-0.799622
1470262339968854,-0.174316,-0.465515,-0.334595,-0.800659
1470262339991875,-0.163025,-0.472351,-0.328918,-0.801392
1470262340014396,-0.151184,-0.479553,-0.324036,-0.801392
1470262340028909,-0.140015,-0.486755,-0.320068,-0.80072
1470262340051928,-0.131287,-0.493591,-0.316772,-0.799316
1470262340074449,-0.124939,-0.499573,-0.313904,-0.797729
1470262340095468,-0.118408,-0.503845,-0.312378,-0.796631
1470262340111983,-0.112183,-0.507019,-0.31134,-0.795959
1470262340134503,-0.106934,-0.509888,-0.310242,-0.795288
1470262340155581,-0.101807,-0.512695,-0.309448,-0.794434
1470262340172091,-0.0967407,-0.515747,-0.30896,-0.793274
1470262340202064,-0.0901489,-0.518555,-0.309204,-0.792175
1470262340215576,-0.0836792,-0.521606,-0.30896,-0.790955
1470262340232092,-0.0774536,-0.525085,-0.307861,-0.789673
1470262340254611,-0.0715942,-0.529236,-0.30603,-0.788147
1470262340283136,-0.0657959,-0.533691,-0.304138,-0.786377
1470262340292145,-0.0601196,-0.538025,-0.302429,-0.784607
1470262340314165,-0.0548096,-0.543213,-0.299316,-0.782532
1470262340335685,-0.0507813,-0.54834,-0.297241,-0.78009
1470262340351698,-0.0458984,-0.548279,-0.297668,-0.780273
1470262340374218,-0.0411987,-0.55365,-0.295349,-0.777588
1470262340395739,-0.0370483,-0.55365,-0.296326,-0.777405
1470262340411752,-0.032959,-0.555237,-0.296875,-0.776245
1470262340434274,-0.0288696,-0.556641,-0.297852,-0.775024
1470262340455293,-0.0259399,-0.557739,-0.298645,-0.774048
1470262340471806,-0.0247192,-0.558838,-0.298645,-0.773315
1470262340494328,-0.024353,-0.559875,-0.298462,-0.772644
1470262340515345,-0.0240479,-0.560547,-0.298584,-0.772095
1470262340531860,-0.0239868,-0.56073,-0.299744,-0.771545
1470262340561888,-0.0239868,-0.560669,-0.301331,-0.770935
1470262340575434,-0.0231934,-0.560425,-0.302673,-0.77063
1470262340591914,-0.0218506,-0.559998,-0.303772,-0.770569
1470262340614434,-0.0205078,-0.559998,-0.304077,-0.770508
1470262340642961,-0.0195923,-0.560364,-0.304016,-0.770264
1470262340651969,-0.0183716,-0.560669,-0.304321,-0.769958
1470262340674489,-0.0169678,-0.560608,-0.30481,-0.769836
1470262340695508,-0.0160522,-0.560364,-0.305176,-0.769836
1470262340712022,-0.0158691,-0.560303,-0.305542,-0.769775
1470262340734542,-0.0159302,-0.56012,-0.306213,-0.769653
1470262340755562,-0.0159912,-0.559753,-0.307129,-0.769531
1470262340772076,-0.0161133,-0.559265,-0.308228,-0.76947
1470262340794597,-0.0167236,-0.55896,-0.309021,-0.769348
1470262340815615,-0.0175171,-0.558777,-0.309692,-0.769226
1470262340832130,-0.0183716,-0.558716,-0.310181,-0.768982
1470262340854149,-0.019043,-0.558716,-0.310669,-0.768799
1470262340877170,-0.0192261,-0.558899,-0.311462,-0.768372
1470262340891684,-0.0192871,-0.559143,-0.312439,-0.767761
1470262340914204,-0.0194092,-0.559326,-0.313416,-0.767212
1470262340936725,-0.0198975,-0.55957,-0.314453,-0.766602
1470262340957746,-0.0209961,-0.559937,-0.315674,-0.765808
1470262340974258,-0.022644,-0.560181,-0.317505,-0.764832
1470262340996778,-0.0255127,-0.560059,-0.320496,-0.763611
1470262341018297,-0.0305786,-0.559204,-0.325256,-0.762024
1470262341034311,-0.0387573,-0.557068,-0.332214,-0.760193
1470262341056832,-0.0502319,-0.553345,-0.341064,-0.758362
1470262341077869,-0.0665283,-0.547974,-0.351501,-0.756226
1470262341094366,-0.0899048,-0.540894,-0.36377,-0.753052
1470262341117386,-0.120361,-0.530273,-0.379761,-0.748474
1470262341137939,-0.156067,-0.514587,-0.40094,-0.74176
1470262341154421,-0.196045,-0.492981,-0.42627,-0.732788
1470262341178441,-0.24054,-0.466675,-0.452332,-0.721008
1470262341197973,-0.288757,-0.437866,-0.476501,-0.705688
1470262341214474,-0.33728,-0.40509,-0.499756,-0.687378
1470262341236993,-0.38623,-0.368591,-0.522705,-0.664673
1470262341259513,-0.434631,-0.329651,-0.542725,-0.638733
1470262341274527,-0.474731,-0.288696,-0.55896,-0.615601
1470262341296546,-0.509155,-0.249878,-0.571594,-0.593079
1470262341318066,-0.543396,-0.217102,-0.580505,-0.566345
1470262341334581,-0.573303,-0.180786,-0.589233,-0.539917
1470262341357101,-0.595398,-0.143616,-0.59729,-0.517883
1470262341378120,-0.611389,-0.107056,-0.60321,-0.501038
1470262341394634,-0.622253,-0.0703125,-0.607971,-0.488281
1470262341417155,-0.630188,-0.0378418,-0.612488,-0.47583
1470262341438257,-0.636414,-0.0126953,-0.617615,-0.462036
1470262341454190,-0.640869,0.00604248,-0.622498,-0.44928
1470262341476717,-0.642639,0.0217896,-0.627686,-0.438904
1470262341497740,-0.641602,0.0405273,-0.632019,-0.432861
1470262341514242,-0.637878,0.062561,-0.636047,-0.429749
1470262341536763,-0.632813,0.0843506,-0.641113,-0.426086
1470262341558783,-0.628479,0.10437,-0.645996,-0.420593
1470262341574296,-0.624756,0.12262,-0.651123,-0.413269
1470262341596816,-0.620728,0.140747,-0.656128,-0.405579
1470262341617836,-0.61499,0.161133,-0.660645,-0.399353
1470262341640384,-0.606995,0.183899,-0.664124,-0.395935
1470262341656870,-0.597656,0.207214,-0.666382,-0.394897
1470262341677907,-0.588684,0.227844,-0.670532,-0.389954
1470262341693904,-0.580872,0.245667,-0.675476,-0.382202
1470262341716925,-0.572449,0.261719,-0.680054,-0.376038
1470262341737961,-0.562866,0.277649,-0.685364,-0.369385
1470262341753457,-0.55365,0.292847,-0.690125,-0.36261
1470262341776979,-0.546387,0.306274,-0.6922,-0.358643
1470262341797997,-0.539673,0.317261,-0.694885,-0.353943
1470262341813514,-0.53363,0.32373,-0.699646,-0.347961
1470262341837033,-0.526978,0.328735,-0.70459,-0.343323
1470262341858120,-0.520874,0.334595,-0.70752,-0.340881
1470262341873565,-0.514343,0.339478,-0.710266,-0.340332
1470262341904592,-0.50769,0.342468,-0.713379,-0.34082
1470262341919606,-0.50177,0.343872,-0.716064,-0.342407
1470262341940629,-0.498413,0.344421,-0.718018,-0.342712
1470262341957140,-0.496399,0.346191,-0.718933,-0.341919
1470262341979660,-0.494934,0.349731,-0.719971,-0.338379
1470262341993673,-0.495178,0.352905,-0.720825,-0.332825
1470262342017194,-0.496094,0.355957,-0.720886,-0.328064
1470262342039214,-0.49646,0.359375,-0.720825,-0.323792
1470262342060733,-0.496094,0.362244,-0.72168,-0.319214
1470262342076747,-0.495605,0.364258,-0.7229,-0.315002
1470262342099268,-0.495056,0.365784,-0.723816,-0.311951
1470262342120286,-0.494568,0.366943,-0.724426,-0.309937
1470262342136803,-0.493835,0.367554,-0.724976,-0.30896
1470262342159322,-0.49292,0.367859,-0.725708,-0.308472
1470262342180342,-0.492065,0.367676,-0.72644,-0.308289
1470262342196856,-0.491455,0.367493,-0.726746,-0.308838
1470262342219377,-0.490601,0.367554,-0.726929,-0.309692
1470262342240394,-0.489441,0.367615,-0.727295,-0.310608
1470262342256909,-0.488098,0.36731,-0.728027,-0.31134
1470262342279430,-0.486816,0.366943,-0.728821,-0.311768
1470262342293943,-0.485779,0.36676,-0.72937,-0.312378
1470262342316964,-0.484619,0.366638,-0.729858,-0.313171
1470262342339483,-0.483459,0.366638,-0.730286,-0.314026
1470262342353496,-0.482422,0.366943,-0.73053,-0.314636
1470262342377019,-0.48175,0.367004,-0.730774,-0.315002
1470262342399538,-0.481384,0.366577,-0.73114,-0.315247
1470262342420556,-0.481018,0.365845,-0.731689,-0.315369
1470262342437071,-0.480652,0.365479,-0.732117,-0.31543
1470262342460091,-0.480286,0.365356,-0.732422,-0.31543
1470262342480609,-0.47998,0.365234,-0.732727,-0.315308
1470262342497124,-0.479797,0.364929,-0.733032,-0.315125
1470262342519145,-0.479614,0.364563,-0.733398,-0.314941
1470262342541665,-0.479553,0.364258,-0.733704,-0.314758
1470262342556679,-0.479553,0.364014,-0.733948,-0.314575
1470262342579699,-0.479614,0.36377,-0.73407,-0.314453
1470262342600718,-0.479675,0.363647,-0.734131,-0.314392
1470262342616733,-0.479553,0.363403,-0.734253,-0.314453
1470262342639253,-0.479492,0.363159,-0.734436,-0.314514
1470262342660772,-0.47937,0.362732,-0.73468,-0.314575
1470262342676787,-0.479248,0.362366,-0.734924,-0.314697
1470262342699308,-0.479187,0.361877,-0.735107,-0.31488
1470262342720325,-0.479187,0.361023,-0.735413,-0.315063
1470262342736840,-0.479248,0.360474,-0.735596,-0.315247
1470262342759360,-0.479126,0.359924,-0.735901,-0.315369
1470262342780381,-0.479065,0.359497,-0.736023,-0.315491
1470262342796894,-0.479126,0.35907,-0.736145,-0.315674
1470262342819415,-0.479248,0.358643,-0.736206,-0.315857
1470262342841934,-0.479248,0.358337,-0.736389,-0.315857
1470262342856949,-0.479126,0.357971,-0.736694,-0.315613
1470262342879469,-0.479004,0.357544,-0.737183,-0.315186
1470262342909495,-0.479248,0.356995,-0.737488,-0.314697
1470262342917003,-0.479553,0.356445,-0.737732,-0.31427
1470262342939522,-0.479675,0.356262,-0.737854,-0.314026
1470262342962042,-0.479614,0.356262,-0.738037,-0.313721
1470262342976055,-0.479492,0.356018,-0.738403,-0.313354
1470262342999576,-0.479492,0.35553,-0.738892,-0.312744
1470262343029603,-0.479675,0.354919,-0.739319,-0.312134
1470262343036109,-0.479797,0.354431,-0.739685,-0.311584
1470262343059129,-0.479736,0.354065,-0.740112,-0.311096
1470262343082150,-0.479675,0.353577,-0.740662,-0.310486
1470262343096164,-0.479919,0.352905,-0.741211,-0.30957
1470262343119184,-0.480347,0.352112,-0.741638,-0.308716
1470262343141704,-0.480652,0.351563,-0.742126,-0.307739
1470262343156217,-0.480774,0.351074,-0.742615,-0.306946
1470262343179237,-0.480774,0.350647,-0.743103,-0.306213
1470262343201758,-0.480652,0.350342,-0.743591,-0.305481
1470262343216271,-0.48053,0.350281,-0.743958,-0.304993
1470262343239291,-0.480225,0.350647,-0.744019,-0.304749
1470262343261811,-0.47998,0.351196,-0.743958,-0.304749
1470262343276325,-0.479614,0.351746,-0.743896,-0.304871
1470262343299346,-0.47937,0.35199,-0.743835,-0.305054
1470262343321865,-0.479187,0.352112,-0.743835,-0.305237
1470262343342884,-0.479065,0.352234,-0.743835,-0.305359
1470262343359399,-0.478882,0.352356,-0.743835,-0.305603
1470262343381920,-0.478699,0.3526,-0.743652,-0.305908
1470262343402939,-0.478577,0.352722,-0.74353,-0.306213
1470262343419453,-0.478699,0.352905,-0.743286,-0.306335
1470262343441974,-0.479004,0.35321,-0.74292,-0.306458
1470262343462993,-0.479431,0.353882,-0.742249,-0.306763
1470262343479507,-0.479675,0.354492,-0.741699,-0.307007
1470262343502028,-0.479614,0.35498,-0.741394,-0.30719
1470262343523046,-0.479675,0.355286,-0.74115,-0.307312
1470262343539561,-0.479675,0.355286,-0.74115,-0.307251
1470262343562082,-0.479736,0.355042,-0.741272,-0.30719
1470262343584101,-0.479858,0.354736,-0.741333,-0.30719
1470262343599614,-0.479858,0.354614,-0.741394,-0.307251
1470262343621635,-0.479736,0.354431,-0.741516,-0.307373
1470262343643153,-0.479675,0.354187,-0.741577,-0.307556
1470262343659168,-0.479614,0.353821,-0.741699,-0.307678
1470262343682189,-0.479553,0.353699,-0.741699,-0.307922
1470262343702708,-0.47937,0.353516,-0.74176,-0.30835
1470262343719222,-0.479248,0.353333,-0.74176,-0.308777
1470262343741744,-0.479187,0.353149,-0.741699,-0.309204
1470262343762761,-0.479004,0.352905,-0.74176,-0.309692
1470262343778776,-0.478882,0.352661,-0.74176,-0.310059
1470262343801796,-0.478821,0.352417,-0.74176,-0.310486
1470262343824317,-0.478577,0.352173,-0.741821,-0.310974
1470262343839330,-0.478394,0.351929,-0.741882,-0.311462
1470262343861850,-0.478149,0.351624,-0.741882,-0.312012
1470262343884370,-0.477966,0.351379,-0.741943,-0.312561
1470262343899385,-0.477722,0.351135,-0.741943,-0.31311
1470262343921904,-0.477539,0.35083,-0.742004,-0.313538
1470262343944424,-0.477356,0.350586,-0.742065,-0.314026
1470262343958937,-0.477051,0.350403,-0.742126,-0.314575
1470262343981958,-0.476929,0.350342,-0.742065,-0.315002
1470262344004479,-0.476807,0.350159,-0.742004,-0.31543
1470262344018992,-0.476807,0.349976,-0.741943,-0.315857
1470262344042011,-0.476685,0.349792,-0.741943,-0.316223
1470262344064532,-0.476624,0.349792,-0.741821,-0.31665
1470262344078545,-0.476563,0.349792,-0.741699,-0.317017
1470262344102065,-0.476501,0.349731,-0.741638,-0.317322
1470262344124586,-0.476501,0.349548,-0.741577,-0.317566
1470262344138599,-0.476563,0.349304,-0.741577,-0.317749
1470262344161620,-0.476563,0.349121,-0.741577,-0.317993
1470262344184139,-0.47644,0.349182,-0.741516,-0.318237
1470262344198653,-0.476318,0.349182,-0.741516,-0.318542
1470262344221673,-0.476318,0.349121,-0.741516,-0.318542
1470262344244193,-0.476318,0.349121,-0.741516,-0.318542
1470262344258707,-0.476318,0.348816,-0.741577,-0.318665
1470262344281728,-0.476379,0.348572,-0.741638,-0.318726
1470262344304247,-0.476379,0.348572,-0.741638,-0.318726
1470262344325766,-0.476379,0.348572,-0.741638,-0.318726
1470262344341781,-0.476379,0.348572,-0.741638,-0.318726
1470262344364312,-0.476379,0.348572,-0.741699,-0.318726
1470262344385820,-0.476379,0.348572,-0.741699,-0.318726
1470262344402336,-0.476379,0.348572,-0.741638,-0.318726
1470262344424356,-0.476379,0.348572,-0.741638,-0.318726
1470262344445375,-0.476379,0.348572,-0.741638,-0.318726
1470262344461889,-0.476379,0.348511,-0.741638,-0.318726
1470262344484409,-0.476379,0.348511,-0.741638,-0.318726
1470262344489949,-0.47644,0.348511,-0.741638,-0.318726
1470262344512435,-0.47644,0.348511,-0.741638,-0.318726
1470262344527448,-0.47644,0.348511,-0.741638,-0.318726
1470262344557474,-0.47644,0.348511,-0.741638,-0.318787
1470262344572488,-0.476379,0.348511,-0.741638,-0.318787
1470262344587502,-0.476379,0.348511,-0.741638,-0.318787
1470262344610021,-0.476624,0.348511,-0.741455,-0.318848
1470262344635046,-0.476807,0.348633,-0.741272,-0.31897
1470262344647056,-0.476929,0.348816,-0.741028,-0.319092
1470262344670077,-0.476929,0.348877,-0.741028,-0.319092
1470262344692097,-0.476929,0.348877,-0.741028,-0.319092
1470262344707109,-0.476929,0.348755,-0.740967,-0.319275
1470262344729629,-0.476929,0.348633,-0.740906,-0.31958
1470262344752150,-0.476807,0.348572,-0.740845,-0.319885
1470262344767163,-0.476685,0.348511,-0.740845,-0.32019
1470262344789682,-0.476624,0.34845,-0.740784,-0.320435
1470262344812204,-0.476624,0.34845,-0.740784,-0.320435
1470262344827218,-0.476685,0.348206,-0.740784,-0.320679
1470262344849738,-0.476807,0.347961,-0.740723,-0.320862
1470262344872257,-0.476929,0.347656,-0.740723,-0.321045
1470262344887272,-0.477051,0.347473,-0.740662,-0.321228
1470262344909792,-0.477112,0.347473,-0.74054,-0.321411
1470262344932312,-0.477112,0.347534,-0.740417,-0.321655
1470262344947327,-0.477051,0.347595,-0.740234,-0.32196
1470262344969845,-0.477051,0.347534,-0.740234,-0.322205
1470262344992379,-0.477051,0.347473,-0.740234,-0.322205
1470262345007394,-0.477051,0.347473,-0.740234,-0.322266
1470262345029899,-0.477051,0.347534,-0.740112,-0.322449
1470262345052420,-0.477051,0.347473,-0.740112,-0.322449
1470262345067432,-0.477051,0.347473,-0.740112,-0.322449
1470262345089953,-0.477051,0.347473,-0.740112,-0.322449
1470262345112473,-0.477051,0.347412,-0.740112,-0.322449
1470262345127487,-0.477051,0.347412,-0.740112,-0.32251
1470262345150006,-0.477051,0.347412,-0.740112,-0.32251
1470262345172526,-0.477173,0.347534,-0.73999,-0.322571
1470262345187540,-0.477173,0.347534,-0.739929,-0.322571
1470262345210066,-0.477173,0.347534,-0.739929,-0.322571
1470262345232080,-0.477173,0.347534,-0.739929,-0.322571
1470262345247114,-0.477112,0.347656,-0.739868,-0.322693
1470262345269614,-0.477112,0.347656,-0.739868,-0.322693
1470262345292134,-0.477112,0.347656,-0.739868,-0.322693
1470262345307161,-0.47699,0.347473,-0.73999,-0.322876
1470262345330185,-0.47699,0.347473,-0.73999,-0.322876
1470262345352188,-0.47699,0.347473,-0.73999,-0.322876
1470262345368703,-0.47699,0.347412,-0.73999,-0.322876
1470262345389794,-0.47699,0.347412,-0.73999,-0.322876
1470262345412261,-0.477051,0.347412,-0.73999,-0.322876
1470262345428757,-0.477051,0.347412,-0.73999,-0.322937
1470262345449778,-0.47699,0.347351,-0.73999,-0.322937
1470262345472314,-0.47699,0.347351,-0.73999,-0.322937
1470262345488811,-0.477051,0.347351,-0.73999,-0.322937
1470262345509859,-0.477051,0.347351,-0.73999,-0.322937
1470262345532383,-0.477051,0.34729,-0.73999,-0.322998
1470262345548865,-0.476929,0.347412,-0.739929,-0.32312
1470262345569883,-0.476807,0.347473,-0.739929,-0.323242
1470262345592416,-0.476807,0.347473,-0.739929,-0.323242
1470262345608918,-0.476807,0.347412,-0.739929,-0.323303
1470262345629942,-0.476685,0.347534,-0.739868,-0.323486
1470262345652457,-0.47644,0.347778,-0.739868,-0.323608
1470262345668472,-0.476318,0.347961,-0.739868,-0.323669
1470262345689994,-0.476257,0.347839,-0.739868,-0.323853
1470262345712512,-0.476257,0.347656,-0.739868,-0.324097
1470262345730028,-0.476196,0.347473,-0.739807,-0.324402
1470262345750046,-0.476196,0.347534,-0.739624,-0.324829
1470262345772567,-0.476013,0.347595,-0.739441,-0.325378
1470262345790081,-0.47583,0.347839,-0.739258,-0.325867
1470262345810099,-0.475708,0.347839,-0.739136,-0.326294
1470262345832120,-0.475647,0.347717,-0.739075,-0.326721
1470262345850135,-0.475464,0.347595,-0.739075,-0.327026
1470262345869652,-0.475403,0.347473,-0.739014,-0.327393
1470262345892173,-0.475281,0.347412,-0.738953,-0.327759
1470262345910190,-0.475159,0.347412,-0.738953,-0.328003
1470262345929708,-0.475159,0.347351,-0.738953,-0.328003
1470262345952227,-0.475159,0.347351,-0.738953,-0.328003
1470262345970244,-0.475098,0.347412,-0.738892,-0.328186
1470262345989761,-0.475098,0.347412,-0.73877,-0.32843
1470262346012282,-0.475098,0.347412,-0.738647,-0.328735
1470262346030297,-0.474976,0.347473,-0.738586,-0.328979
1470262346049815,-0.474976,0.347412,-0.738464,-0.329346
1470262346072334,-0.474915,0.347412,-0.738342,-0.329712
1470262346090351,-0.474854,0.347595,-0.738159,-0.330017
1470262346109869,-0.474731,0.347656,-0.738037,-0.330383
1470262346132389,-0.47467,0.347595,-0.737915,-0.33075
1470262346149904,-0.474548,0.347412,-0.737976,-0.330933
1470262346169922,-0.474426,0.347168,-0.738098,-0.331177
1470262346192443,-0.474426,0.347107,-0.738098,-0.331177
1470262346210458,-0.474365,0.347168,-0.737976,-0.331421
1470262346229976,-0.474365,0.347168,-0.737854,-0.331726
1470262346252497,-0.474365,0.347168,-0.737854,-0.331726
1470262346270012,-0.474365,0.347229,-0.737793,-0.331909
1470262346291031,-0.474365,0.34729,-0.737671,-0.332092
1470262346312550,-0.474304,0.347351,-0.73761,-0.332275
1470262346330066,-0.474243,0.347229,-0.737549,-0.332581
1470262346351085,-0.474243,0.347168,-0.737488,-0.332825
1470262346372106,-0.474182,0.347046,-0.737488,-0.33313
1470262346390121,-0.473999,0.346924,-0.737488,-0.333435
1470262346411140,-0.473755,0.346802,-0.737488,-0.333862
1470262346432659,-0.473572,0.346619,-0.737488,-0.33429
1470262346450175,-0.47345,0.346436,-0.737488,-0.334656
1470262346471193,-0.473328,0.346191,-0.737549,-0.335022
1470262346492211,-0.473267,0.345947,-0.737549,-0.335327
1470262346510228,-0.473145,0.345825,-0.737549,-0.335632
1470262346531247,-0.472839,0.345703,-0.73761,-0.335999
1470262346552267,-0.472412,0.345215,-0.738037,-0.336121
1470262346570283,-0.472168,0.344421,-0.738586,-0.336182
1470262346591301,-0.47168,0.343689,-0.739197,-0.336243
1470262346612319,-0.47113,0.343384,-0.739624,-0.336365
1470262346630336,-0.470337,0.343384,-0.740051,-0.336548
1470262346652856,-0.469238,0.343872,-0.740417,-0.336792
1470262346672374,-0.46814,0.344238,-0.740906,-0.336914
1470262346690390,-0.467224,0.344116,-0.741516,-0.336853
1470262346712910,-0.466248,0.343811,-0.742371,-0.336731
1470262346732428,-0.464844,0.343689,-0.743347,-0.336609
1470262346750443,-0.463196,0.343506,-0.74469,-0.336121
1470262346772963,-0.461365,0.343262,-0.746155,-0.335632
1470262346792481,-0.459106,0.343018,-0.747986,-0.335022
1470262346809997,-0.45636,0.342224,-0.750366,-0.334167
1470262346833018,-0.452881,0.341064,-0.753418,-0.333191
1470262346852534,-0.448853,0.340454,-0.756592,-0.332153
1470262346870051,-0.444275,0.340149,-0.759705,-0.331421
1470262346892571,-0.439392,0.340942,-0.762512,-0.330688
1470262346912105,-0.433716,0.342896,-0.765564,-0.329041
1470262346930622,-0.427795,0.344421,-0.769531,-0.325928
1470262346952625,-0.42218,0.344055,-0.774536,-0.321838
1470262346972144,-0.416931,0.343506,-0.779419,-0.317505
1470262346990158,-0.411682,0.343201,-0.783997,-0.313293
1470262347012179,-0.406738,0.343262,-0.788147,-0.309326
1470262347033198,-0.401978,0.343872,-0.791748,-0.305603
1470262347049712,-0.3974,0.343506,-0.795776,-0.301514
1470262347071733,-0.392822,0.342468,-0.799927,-0.297546
1470262347093306,-0.387756,0.342651,-0.803528,-0.294373
1470262347115772,-0.381836,0.343628,-0.807129,-0.291138
1470262347131787,-0.375244,0.343445,-0.811523,-0.287659
1470262347153364,-0.368225,0.342468,-0.816162,-0.284668
1470262347175880,-0.360291,0.341492,-0.820923,-0.282349
1470262347191840,-0.351318,0.340271,-0.825928,-0.280396
1470262347212864,-0.340759,0.338623,-0.831543,-0.279053
1470262347229374,-0.326843,0.336121,-0.838745,-0.2771
1470262347251894,-0.312683,0.332092,-0.845886,-0.276428
1470262347272914,-0.300415,0.327148,-0.852783,-0.274841
1470262347289428,-0.291626,0.321533,-0.859436,-0.270203
1470262347311949,-0.287964,0.314514,-0.865173,-0.263916
1470262347333468,-0.289429,0.306152,-0.869263,-0.258667
1470262347349482,-0.293762,0.299316,-0.871338,-0.254822
1470262347372002,-0.298645,0.295105,-0.872498,-0.250122
1470262347393021,-0.302856,0.292297,-0.874146,-0.242371
1470262347408535,-0.305908,0.289917,-0.87677,-0.231689
1470262347432056,-0.307373,0.290894,-0.878723,-0.220886
1470262347453074,-0.307678,0.297302,-0.87854,-0.212524
1470262347468588,-0.308167,0.306946,-0.876526,-0.20636
1470262347491610,-0.309082,0.31488,-0.874512,-0.201538
1470262347513129,-0.310364,0.318115,-0.873718,-0.197754
1470262347528644,-0.312134,0.317383,-0.874023,-0.195068
1470262347552164,-0.31366,0.315002,-0.874695,-0.193298
1470262347573183,-0.314575,0.313477,-0.875122,-0.192505
1470262347588697,-0.314758,0.31366,-0.874878,-0.19281
1470262347612217,-0.31427,0.31488,-0.87439,-0.193848
1470262347634237,-0.31311,0.315918,-0.874146,-0.195068
1470262347649752,-0.311768,0.31604,-0.874268,-0.196594
1470262347672272,-0.310547,0.315552,-0.874451,-0.198364
1470262347694291,-0.30957,0.314941,-0.874634,-0.200195
1470262347709305,-0.309143,0.314514,-0.874512,-0.201904
1470262347731825,-0.309387,0.314087,-0.874268,-0.203491
1470262347754345,-0.309937,0.313538,-0.873962,-0.20459
1470262347768859,-0.310425,0.312927,-0.873962,-0.205017
1470262347791879,-0.310669,0.312378,-0.874084,-0.204895
1470262347814399,-0.311157,0.312195,-0.873962,-0.204773
1470262347828912,-0.311829,0.312683,-0.873596,-0.204712
1470262347851932,-0.3125,0.313538,-0.873108,-0.204346
1470262347874454,-0.312988,0.314209,-0.872925,-0.203491
1470262347888965,-0.313293,0.314575,-0.872864,-0.202576
1470262347911987,-0.313599,0.315186,-0.872742,-0.20166
1470262347934508,-0.313843,0.316467,-0.872314,-0.201111
1470262347948520,-0.313904,0.31842,-0.871704,-0.200806
1470262347972041,-0.313843,0.320679,-0.87085,-0.200867
1470262347994563,-0.313477,0.322693,-0.870056,-0.201538
1470262348008573,-0.312927,0.32428,-0.869385,-0.203003
1470262348032094,-0.312561,0.324646,-0.868835,-0.205322
1470262348054614,-0.312073,0.323792,-0.868591,-0.208191
1470262348075633,-0.311401,0.322571,-0.868469,-0.211609
1470262348092148,-0.310486,0.321594,-0.868286,-0.215271
1470262348114668,-0.309448,0.32074,-0.868042,-0.218872
1470262348135710,-0.30835,0.320129,-0.867798,-0.22229
1470262348152202,-0.307373,0.319763,-0.867432,-0.225464
1470262348174723,-0.30658,0.319214,-0.867188,-0.228394
1470262348195741,-0.30603,0.318481,-0.866943,-0.231079
1470262348211782,-0.305664,0.317627,-0.86676,-0.233337
1470262348234278,-0.305237,0.31665,-0.866882,-0.234924
1470262348255901,-0.30481,0.315796,-0.866943,-0.236206
1470262348271810,-0.304565,0.315308,-0.866882,-0.237366
1470262348294330,-0.304504,0.31488,-0.866943,-0.237976
1470262348315349,-0.30426,0.314209,-0.867188,-0.238159
1470262348331879,-0.30426,0.313416,-0.867554,-0.237915
1470262348354386,-0.304932,0.313293,-0.867371,-0.237976
1470262348375461,-0.306213,0.315002,-0.866028,-0.238831
1470262348391919,-0.307068,0.316406,-0.86499,-0.239624
1470262348414437,-0.307617,0.315918,-0.864868,-0.23999
1470262348435512,-0.30835,0.314026,-0.865051,-0.240906
1470262348451972,-0.309143,0.312439,-0.86499,-0.242126
1470262348474492,-0.309082,0.312195,-0.864807,-0.243164
1470262348495537,-0.308472,0.312683,-0.864563,-0.244202
1470262348512026,-0.307678,0.312561,-0.864624,-0.2453
1470262348534545,-0.307129,0.311523,-0.864868,-0.246338
1470262348563071,-0.306885,0.309814,-0.865295,-0.247375
1470262348574081,-0.306458,0.308289,-0.865723,-0.248291
1470262348594599,-0.305969,0.30719,-0.86615,-0.248779
1470262348617120,-0.305664,0.306641,-0.866394,-0.248901
1470262348632634,-0.305115,0.306763,-0.866638,-0.248657
1470262348654653,-0.304138,0.307373,-0.866821,-0.248413
1470262348677173,-0.303345,0.30719,-0.867126,-0.248596
1470262348691186,-0.303406,0.305725,-0.867554,-0.24884
1470262348714709,-0.303955,0.304077,-0.86792,-0.248901
1470262348737228,-0.304321,0.302917,-0.868286,-0.248657
1470262348751241,-0.304626,0.302551,-0.868408,-0.24823
1470262348774761,-0.305298,0.30249,-0.868286,-0.247803
1470262348796781,-0.306519,0.30249,-0.867981,-0.247314
1470262348811294,-0.307495,0.302795,-0.867737,-0.246643
1470262348834317,-0.307983,0.303833,-0.86731,-0.246277
1470262348856842,-0.308533,0.304932,-0.86676,-0.246216
1470262348886877,-0.308838,0.304932,-0.866699,-0.246033
1470262348894392,-0.308289,0.30426,-0.867249,-0.245667
1470262348916888,-0.307251,0.304138,-0.867737,-0.245483
1470262348938008,-0.306702,0.304321,-0.867798,-0.245483
1470262348954490,-0.306885,0.303833,-0.867798,-0.246033
1470262348977010,-0.307129,0.303223,-0.867615,-0.247131
1470262348992024,-0.306641,0.303223,-0.867432,-0.24823
1470262349014543,-0.306152,0.303162,-0.86731,-0.249329
1470262349037064,-0.305847,0.302368,-0.867432,-0.250305
1470262349058085,-0.305847,0.30127,-0.867615,-0.251099
1470262349074598,-0.306152,0.300964,-0.867432,-0.251587
1470262349097118,-0.30603,0.300964,-0.867493,-0.251648
1470262349118169,-0.306152,0.300903,-0.867432,-0.251648
1470262349134651,-0.306519,0.300354,-0.867554,-0.251587
1470262349157171,-0.306946,0.2995,-0.867798,-0.251221
1470262349178190,-0.307312,0.29895,-0.867981,-0.250793
1470262349194705,-0.307373,0.298767,-0.868103,-0.250366
1470262349217226,-0.307068,0.298706,-0.868469,-0.249634
1470262349238245,-0.307007,0.298279,-0.868835,-0.248962
1470262349254259,-0.30719,0.297485,-0.869202,-0.248291
1470262349276789,-0.307373,0.296814,-0.869568,-0.247681
1470262349297839,-0.307495,0.296509,-0.869812,-0.24707
1470262349314312,-0.307434,0.29657,-0.869995,-0.24646
1470262349336833,-0.307251,0.296692,-0.870178,-0.24585
1470262349358355,-0.306824,0.296509,-0.870544,-0.245239
1470262349374388,-0.306213,0.296021,-0.871094,-0.24469
1470262349397888,-0.305847,0.29541,-0.871521,-0.244324
1470262349417922,-0.305908,0.294617,-0.871826,-0.24408
1470262349434421,-0.306458,0.293579,-0.87207,-0.243896
1470262349456941,-0.307434,0.292542,-0.872131,-0.243591
1470262349479463,-0.308472,0.292114,-0.872009,-0.243225
1470262349494476,-0.309875,0.292419,-0.87146,-0.243103
1470262349516995,-0.311218,0.29303,-0.870789,-0.243042
1470262349539515,-0.312256,0.293457,-0.8703,-0.243103
1470262349554530,-0.312988,0.293335,-0.869995,-0.243347
1470262349577065,-0.313477,0.292725,-0.869751,-0.244141
1470262349599570,-0.31366,0.292114,-0.869629,-0.245056
1470262349614582,-0.31366,0.291687,-0.869568,-0.24585
1470262349637103,-0.313477,0.291321,-0.869507,-0.246704
1470262349659623,-0.312866,0.290771,-0.869812,-0.247253
1470262349674137,-0.312317,0.290283,-0.869934,-0.247803
1470262349697160,-0.31189,0.289856,-0.870117,-0.24823
1470262349719678,-0.311035,0.289307,-0.870605,-0.248291
1470262349733690,-0.309937,0.288879,-0.871216,-0.247925
1470262349757211,-0.309448,0.288513,-0.871582,-0.247742
1470262349779230,-0.309692,0.287964,-0.871765,-0.247437
1470262349793744,-0.310364,0.287354,-0.871887,-0.247009
1470262349816765,-0.310913,0.286987,-0.871948,-0.246582
1470262349839285,-0.311279,0.287354,-0.871765,-0.246216
1470262349853798,-0.311829,0.288025,-0.871338,-0.246216
1470262349876818,-0.312622,0.288513,-0.870728,-0.246826
1470262349899338,-0.313416,0.289063,-0.870056,-0.24762
1470262349913852,-0.313782,0.289246,-0.869629,-0.248352
1470262349936872,-0.313599,0.28949,-0.869446,-0.249023
1470262349959392,-0.313354,0.289917,-0.86908,-0.250122
1470262349980427,-0.313171,0.290222,-0.868652,-0.251404
1470262349996926,-0.312805,0.290161,-0.868408,-0.252747
1470262350019446,-0.312439,0.289917,-0.868164,-0.254272
1470262350040464,-0.312012,0.289612,-0.867981,-0.255859
1470262350056980,-0.311462,0.289307,-0.867798,-0.257446
1470262350079500,-0.31073,0.289429,-0.867554,-0.259094
1470262350100519,-0.310059,0.289917,-0.867126,-0.260742
1470262350117034,-0.309326,0.290527,-0.866699,-0.26239
1470262350139554,-0.308716,0.290955,-0.866211,-0.264099
1470262350160588,-0.308289,0.291016,-0.865845,-0.265869
1470262350177087,-0.308044,0.290649,-0.865479,-0.2677
1470262350199608,-0.307861,0.290161,-0.865112,-0.269592
1470262350220640,-0.307739,0.289734,-0.864746,-0.271362
1470262350237141,-0.307556,0.289429,-0.86438,-0.273132
1470262350259661,-0.307251,0.289185,-0.864014,-0.27478
1470262350280680,-0.307007,0.288879,-0.863708,-0.276245
1470262350297195,-0.306702,0.288513,-0.863525,-0.277588
1470262350319716,-0.306335,0.288269,-0.863342,-0.278809
1470262350340734,-0.30603,0.288147,-0.863159,-0.279846
1470262350356749,-0.305847,0.288025,-0.863037,-0.28064
1470262350379269,-0.305664,0.287842,-0.862915,-0.28125
1470262350400287,-0.305542,0.287537,-0.862915,-0.281738
1470262350416802,-0.305542,0.287354,-0.862854,-0.282104
1470262350439323,-0.305481,0.287231,-0.862793,-0.282471
1470262350461844,-0.30542,0.287231,-0.862793,-0.282715
1470262350476857,-0.30542,0.287231,-0.862793,-0.282715
1470262350505383,-0.30542,0.28717,-0.862793,-0.282715
1470262350521897,-0.305481,0.28717,-0.862793,-0.282715
1470262350536911,-0.305481,0.287415,-0.862671,-0.282837
1470262350559431,-0.305664,0.287476,-0.862488,-0.28302
1470262350581952,-0.305725,0.287476,-0.862488,-0.28302
1470262350596465,-0.305725,0.287476,-0.862488,-0.28302
1470262350619488,-0.305847,0.287476,-0.862366,-0.283264
1470262350642006,-0.306091,0.287598,-0.862122,-0.283508
1470262350657020,-0.306519,0.287598,-0.862,-0.283569
1470262350679539,-0.30719,0.287964,-0.861755,-0.283142
1470262350702060,-0.308411,0.290344,-0.860535,-0.28302
1470262350716572,-0.309326,0.292908,-0.859253,-0.283325
1470262350739592,-0.309875,0.294678,-0.858337,-0.283752
1470262350762115,-0.309692,0.296021,-0.857727,-0.284302
1470262350776125,-0.309692,0.296082,-0.857605,-0.284546
1470262350799646,-0.309937,0.295166,-0.857788,-0.284729
1470262350822167,-0.31012,0.294312,-0.85791,-0.285095
1470262350836179,-0.309998,0.294373,-0.857788,-0.285583
1470262350859700,-0.309814,0.294373,-0.857727,-0.285889
1470262350882221,-0.30957,0.294067,-0.857849,-0.286194
1470262350896234,-0.309448,0.293396,-0.858154,-0.286072
1470262350919755,-0.309753,0.292419,-0.858398,-0.285889
1470262350941774,-0.310181,0.291626,-0.858582,-0.285767
1470262350963293,-0.310303,0.291992,-0.858337,-0.28595
1470262350979308,-0.310242,0.292725,-0.857971,-0.286377
1470262351001828,-0.310181,0.292725,-0.85791,-0.286682
1470262351022846,-0.310242,0.292175,-0.857971,-0.286804
1470262351039362,-0.310364,0.291809,-0.85791,-0.287292
1470262351061884,-0.310364,0.29187,-0.857727,-0.287964
1470262351083401,-0.310303,0.291992,-0.857422,-0.288757
1470262351099416,-0.310242,0.291931,-0.857239,-0.28949
1470262351121936,-0.310425,0.291504,-0.857117,-0.289978
1470262351142956,-0.310669,0.291077,-0.856995,-0.290527
1470262351159471,-0.310669,0.291016,-0.856812,-0.291199
1470262351181990,-0.310669,0.291199,-0.856506,-0.291809
1470262351203040,-0.310669,0.291016,-0.856323,-0.29248
1470262351219524,-0.310669,0.290894,-0.856262,-0.292908
1470262351242044,-0.310608,0.290649,-0.856201,-0.293213
1470262351263115,-0.310425,0.290466,-0.856262,-0.293579
1470262351279577,-0.309998,0.290527,-0.856262,-0.293884
1470262351302098,-0.309204,0.290466,-0.856445,-0.294312
1470262351323151,-0.308044,0.289978,-0.856873,-0.294678
1470262351339631,-0.30658,0.289246,-0.857483,-0.295166
1470262351362153,-0.305542,0.289124,-0.857605,-0.296082
1470262351384672,-0.305847,0.28894,-0.857605,-0.296021
1470262351399685,-0.307007,0.287109,-0.858337,-0.294373
1470262351422206,-0.308777,0.285339,-0.859009,-0.292419
1470262351444225,-0.310608,0.285217,-0.859131,-0.290161
1470262351458739,-0.312744,0.285461,-0.859436,-0.28656
1470262351481759,-0.314758,0.285034,-0.860229,-0.282471
1470262351504279,-0.316162,0.285706,-0.860474,-0.279419
1470262351525798,-0.3172,0.287292,-0.860291,-0.277161
1470262351541813,-0.317993,0.288818,-0.860046,-0.275452
1470262351564333,-0.318665,0.289368,-0.859985,-0.274231
1470262351578847,-0.319092,0.289368,-0.859985,-0.273743
1470262351601868,-0.319275,0.289307,-0.859924,-0.273682
1470262351624388,-0.319153,0.289307,-0.859863,-0.274109
1470262351638901,-0.318726,0.289246,-0.859802,-0.274841
1470262351661921,-0.318237,0.289185,-0.859741,-0.275757
1470262351685442,-0.317505,0.289246,-0.859619,-0.276917
1470262351698954,-0.316772,0.289185,-0.859436,-0.278259
1470262351721975,-0.315918,0.289063,-0.859253,-0.279907
1470262351744495,-0.314697,0.289185,-0.859009,-0.281982
1470262351759008,-0.312988,0.289307,-0.858765,-0.284424
1470262351782028,-0.311401,0.289185,-0.858398,-0.287476
1470262351804549,-0.309998,0.289001,-0.857788,-0.290955
1470262351825568,-0.308716,0.289124,-0.856995,-0.294434
1470262351842083,-0.307739,0.289307,-0.856201,-0.297607
1470262351864603,-0.307312,0.288635,-0.855713,-0.30011
1470262351885621,-0.306946,0.287109,-0.855713,-0.301941
1470262351902136,-0.306458,0.286072,-0.855774,-0.303345
1470262351924656,-0.305786,0.285706,-0.855713,-0.304504
1470262351945675,-0.305115,0.285706,-0.855591,-0.305359
1470262351962191,-0.304749,0.285767,-0.855591,-0.305725
1470262351984710,-0.304626,0.285339,-0.855835,-0.305664
1470262352005731,-0.30481,0.28479,-0.856079,-0.305359
1470262352021744,-0.305054,0.284424,-0.856262,-0.304871
1470262352044264,-0.305237,0.284363,-0.856445,-0.304199
1470262352065783,-0.305298,0.284607,-0.856628,-0.303467
1470262352081798,-0.305298,0.28479,-0.856812,-0.302795
1470262352104318,-0.305298,0.284729,-0.857056,-0.302124
1470262352125336,-0.305298,0.28479,-0.857117,-0.301819
1470262352141851,-0.305298,0.28479,-0.857117,-0.301819
1470262352170378,-0.305298,0.284851,-0.857117,-0.301758
1470262352185891,-0.305298,0.284912,-0.857056,-0.30188
1470262352201905,-0.305298,0.284668,-0.857056,-0.302185
1470262352207412,-0.30542,0.284485,-0.856873,-0.302673
1470262352229932,-0.305542,0.283936,-0.85675,-0.303589
1470262352252452,-0.305603,0.283447,-0.856506,-0.304565
1470262352267465,-0.305847,0.28363,-0.856018,-0.305481
1470262352289984,-0.306274,0.284973,-0.85498,-0.306702
1470262352312516,-0.307251,0.287292,-0.853333,-0.308289
1470262352330520,-0.308228,0.291199,-0.850891,-0.310242
1470262352350038,-0.308289,0.29657,-0.847839,-0.313416
1470262352372560,-0.307068,0.300537,-0.845764,-0.316467
1470262352388588,-0.305969,0.302307,-0.844238,-0.319946
1470262352410092,-0.305298,0.302185,-0.842773,-0.324463
1470262352432613,-0.304749,0.300842,-0.841614,-0.329224
1470262352448627,-0.304016,0.299438,-0.840271,-0.334534
1470262352470146,-0.302979,0.298157,-0.838562,-0.340942
1470262352492667,-0.30188,0.295349,-0.836914,-0.348267
1470262352510182,-0.300903,0.291565,-0.8349,-0.357056
1470262352529701,-0.299622,0.286194,-0.832886,-0.366943
1470262352552220,-0.298157,0.279419,-0.831055,-0.377502
1470262352568735,-0.296082,0.271301,-0.829407,-0.388428
1470262352589753,-0.294067,0.261108,-0.827454,-0.400879
1470262352612774,-0.29126,0.250122,-0.825562,-0.413696
1470262352628788,-0.287964,0.238403,-0.823669,-0.426453
1470262352650308,-0.285156,0.224854,-0.821716,-0.439331
1470262352672329,-0.282288,0.209167,-0.81958,-0.452698
1470262352688844,-0.278503,0.191772,-0.817688,-0.466003
1470262352709862,-0.275269,0.173218,-0.815796,-0.478333
1470262352732383,-0.272156,0.153503,-0.812622,-0.492065
1470262352748897,-0.268066,0.13324,-0.808044,-0.507446
1470262352769915,-0.263123,0.113708,-0.802551,-0.523254
1470262352792437,-0.258179,0.0948486,-0.796753,-0.538147
1470262352808951,-0.254517,0.0750732,-0.790771,-0.551697
1470262352829970,-0.251343,0.0548096,-0.783997,-0.565002
1470262352852490,-0.249084,0.0339355,-0.776428,-0.577942
1470262352869005,-0.247253,0.0144653,-0.767883,-0.590881
1470262352890023,-0.2453,-0.0022583,-0.758667,-0.603577
1470262352912544,-0.243286,-0.0155029,-0.749329,-0.615784
1470262352929058,-0.241333,-0.0263062,-0.740234,-0.627075
1470262352950077,-0.240662,-0.0354004,-0.731689,-0.636841
1470262352972597,-0.241577,-0.043396,-0.723877,-0.644897
1470262352988613,-0.242676,-0.0488892,-0.716858,-0.651917
1470262353009630,-0.241699,-0.048584,-0.710876,-0.658752
1470262353032651,-0.238708,-0.0444946,-0.705872,-0.665527
1470262353049167,-0.237366,-0.0425415,-0.700317,-0.671936
1470262353077691,-0.240601,-0.0454102,-0.693726,-0.677429
1470262353092705,-0.244934,-0.0490723,-0.686707,-0.682739
1470262353108720,-0.247742,-0.0512695,-0.680298,-0.687988
1470262353130239,-0.248535,-0.0509644,-0.674927,-0.692993
1470262353152759,-0.249084,-0.048645,-0.669373,-0.698303
1470262353168773,-0.251221,-0.0476685,-0.664001,-0.702698
1470262353197800,-0.25592,-0.0493774,-0.659058,-0.705566
1470262353212312,-0.262268,-0.0546875,-0.653992,-0.707581
1470262353228827,-0.270386,-0.0601807,-0.647766,-0.709778
1470262353250348,-0.276917,-0.0635376,-0.64093,-0.713196
1470262353272366,-0.282166,-0.0645752,-0.633789,-0.717346
1470262353290384,-0.285522,-0.0664063,-0.626648,-0.722107
1470262353309913,-0.289246,-0.0698853,-0.618408,-0.727417
1470262353332421,-0.292664,-0.0751343,-0.609314,-0.733154
1470262353350438,-0.294556,-0.0800171,-0.600464,-0.739197
1470262353369954,-0.292419,-0.0819702,-0.592896,-0.74585
1470262353392476,-0.286621,-0.0810547,-0.586304,-0.753418
1470262353410491,-0.279114,-0.0769653,-0.580261,-0.761292
1470262353430008,-0.2724,-0.0721436,-0.574768,-0.768372
1470262353452528,-0.266052,-0.0680542,-0.568848,-0.775269
1470262353470544,-0.259155,-0.0639038,-0.562744,-0.78241
1470262353490062,-0.255676,-0.0596924,-0.556641,-0.788269
1470262353512583,-0.252563,-0.0536499,-0.551636,-0.793152
1470262353530098,-0.24939,-0.0462646,-0.547791,-0.797302
1470262353550117,-0.248474,-0.0404053,-0.544434,-0.800171
1470262353572637,-0.248779,-0.0350342,-0.541931,-0.802063
1470262353590152,-0.250122,-0.0305176,-0.540039,-0.803101
1470262353610169,-0.25238,-0.0274658,-0.539063,-0.803162
1470262353632690,-0.256592,-0.0265503,-0.538391,-0.802307
1470262353650206,-0.259888,-0.024292,-0.537842,-0.801697
1470262353670225,-0.261963,-0.0217285,-0.53656,-0.801941
1470262353692244,-0.263611,-0.0209961,-0.534851,-0.802551
1470262353710260,-0.266113,-0.0217896,-0.532654,-0.803162
1470262353729777,-0.268555,-0.0216675,-0.530884,-0.803589
1470262353752798,-0.268799,-0.0188599,-0.529724,-0.80426
1470262353770315,-0.268494,-0.0198364,-0.528809,-0.804993
1470262353792834,-0.264465,-0.019165,-0.52771,-0.807007
1470262353812351,-0.262573,-0.0193481,-0.527344,-0.807922
1470262353837875,-0.259705,-0.0189819,-0.525818,-0.809814
1470262353849886,-0.258057,-0.0187988,-0.52533,-0.810669
1470262353879913,-0.258057,-0.0203247,-0.52417,-0.81134
1470262353890422,-0.25769,-0.0216675,-0.522888,-0.812317
1470262353911440,-0.257019,-0.0219727,-0.521729,-0.813232
1470262353932460,-0.254822,-0.020813,-0.520569,-0.814697
1470262353950478,-0.252319,-0.0195923,-0.519409,-0.816284
1470262353971495,-0.250183,-0.019104,-0.518555,-0.817505
1470262353992513,-0.249023,-0.0194092,-0.5177,-0.818359
1470262354010530,-0.247864,-0.0194092,-0.516785,-0.819275
1470262354031549,-0.246216,-0.0189819,-0.515747,-0.820435
1470262354052568,-0.244324,-0.0183105,-0.514771,-0.821655
1470262354070083,-0.242859,-0.0178833,-0.513794,-0.822693
1470262354091102,-0.242004,-0.0175171,-0.512878,-0.823486
1470262354115124,-0.240662,-0.0168457,-0.511841,-0.824585
1470262354130137,-0.238953,-0.0161743,-0.510864,-0.825684
1470262354151157,-0.237854,-0.0159302,-0.51001,-0.826538
1470262354172676,-0.237427,-0.0160522,-0.509277,-0.827087
1470262354190692,-0.23645,-0.0158081,-0.508545,-0.82782
1470262354211209,-0.235107,-0.0153809,-0.507935,-0.828613
1470262354232729,-0.234192,-0.0153198,-0.507446,-0.829163
1470262354250245,-0.233887,-0.015625,-0.507019,-0.829468
1470262354272765,-0.233643,-0.0160522,-0.506714,-0.829712
1470262354292283,-0.233215,-0.0161133,-0.506409,-0.830078
1470262354310298,-0.232544,-0.0159912,-0.506042,-0.830505
1470262354332819,-0.231812,-0.0158081,-0.505676,-0.830933
1470262354352836,-0.231262,-0.015625,-0.50531,-0.831299
1470262354370353,-0.230713,-0.0155029,-0.504761,-0.831787
1470262354393373,-0.230103,-0.0153198,-0.504333,-0.832214
1470262354412390,-0.229675,-0.0154419,-0.503967,-0.832581
1470262354430408,-0.229309,-0.015564,-0.503662,-0.832825
1470262354452927,-0.229065,-0.015564,-0.503357,-0.833069
1470262354472444,-0.228699,-0.0153198,-0.503113,-0.833313
1470262354490461,-0.228577,-0.0154419,-0.502808,-0.833557
1470262354512981,-0.228394,-0.015625,-0.502502,-0.83374
1470262354532499,-0.228394,-0.015686,-0.502502,-0.83374
1470262354550514,-0.228088,-0.0159912,-0.502502,-0.833862
1470262354573034,-0.227844,-0.0164185,-0.502563,-0.833862
1470262354592552,-0.2276,-0.0167236,-0.502625,-0.833923
1470262354610569,-0.227295,-0.0170288,-0.502563,-0.833984
1470262354633089,-0.227173,-0.0174561,-0.502502,-0.834106
1470262354652607,-0.22699,-0.0178223,-0.502441,-0.834167
1470262354670622,-0.226929,-0.0183105,-0.502502,-0.834106
1470262354692642,-0.226929,-0.0187988,-0.502686,-0.833984
1470262354713661,-0.226868,-0.0192261,-0.502747,-0.833984
1470262354729675,-0.226868,-0.0192871,-0.502747,-0.833984
1470262354752196,-0.226807,-0.0192871,-0.502747,-0.833984
1470262354773214,-0.226807,-0.0192871,-0.502747,-0.833984
1470262354789729,-0.226807,-0.0192871,-0.502747,-0.833984
1470262354812249,-0.226746,-0.0193481,-0.502747,-0.833984
1470262354833268,-0.226746,-0.0194092,-0.502747,-0.833984
1470262354849783,-0.226501,-0.0194702,-0.502625,-0.834167
1470262354872303,-0.226196,-0.0194702,-0.502502,-0.83429
1470262354893323,-0.22583,-0.0195313,-0.502319,-0.834473
1470262354909838,-0.225464,-0.0194702,-0.502136,-0.834717
1470262354932357,-0.225037,-0.0194702,-0.501953,-0.834961
1470262354953376,-0.224609,-0.0192871,-0.501709,-0.835205
1470262354969390,-0.224365,-0.0189819,-0.501465,-0.835388
1470262354991910,-0.224243,-0.0187378,-0.50116,-0.835632
1470262355012931,-0.224243,-0.0184326,-0.500732,-0.835876
1470262355029445,-0.224243,-0.0181274,-0.500366,-0.836121
1470262355051964,-0.224182,-0.0177612,-0.5,-0.836365
1470262355074486,-0.223938,-0.017334,-0.499695,-0.83667
1470262355089499,-0.223816,-0.0169678,-0.499268,-0.836914
1470262355112019,-0.223633,-0.0167847,-0.498901,-0.837158
1470262355133038,-0.223572,-0.0167847,-0.498596,-0.837402
1470262355149552,-0.223511,-0.0167847,-0.498352,-0.837585
1470262355172073,-0.22345,-0.0167847,-0.498108,-0.837708
1470262355194592,-0.223511,-0.0167847,-0.498047,-0.837769
1470262355209606,-0.223572,-0.0166626,-0.497925,-0.837769
1470262355232126,-0.223816,-0.0168457,-0.497803,-0.83783
1470262355254647,-0.223999,-0.0170288,-0.497681,-0.83783
1470262355269660,-0.224182,-0.017334,-0.497742,-0.837708
1470262355292180,-0.224365,-0.0177002,-0.497803,-0.837646
1470262355314701,-0.224731,-0.0186157,-0.497925,-0.837463
1470262355328713,-0.225098,-0.019165,-0.498108,-0.837219
1470262355352237,-0.225281,-0.0197754,-0.498108,-0.837158
1470262355382261,-0.225281,-0.0197754,-0.498047,-0.837219
1470262355388767,-0.225342,-0.0200806,-0.498047,-0.837158
1470262355412287,-0.225464,-0.0202637,-0.498108,-0.837097
1470262355434808,-0.225464,-0.0202637,-0.498108,-0.837097
1470262355448822,-0.225403,-0.0203247,-0.498108,-0.837097
1470262355471841,-0.225159,-0.0203247,-0.497986,-0.83728
1470262355500867,-0.225037,-0.0204468,-0.497864,-0.837402
1470262355508875,-0.224915,-0.0206909,-0.497681,-0.837524
1470262355531895,-0.224915,-0.020752,-0.497681,-0.837524
1470262355554416,-0.224915,-0.020752,-0.497681,-0.837524
1470262355568929,-0.224854,-0.020752,-0.497681,-0.837524
1470262355591949,-0.224854,-0.020752,-0.49762,-0.837524
1470262355614470,-0.224854,-0.020813,-0.49762,-0.837524
1470262355628983,-0.224915,-0.020874,-0.49762,-0.837524
1470262355652005,-0.224854,-0.020874,-0.49762,-0.837524
1470262355674523,-0.224854,-0.0209351,-0.49762,-0.837524
1470262355695543,-0.224609,-0.0206909,-0.497498,-0.837646
1470262355712057,-0.224426,-0.0204468,-0.497498,-0.837769
1470262355734578,-0.224487,-0.0204468,-0.497437,-0.837769
1470262355755597,-0.224487,-0.0205078,-0.497437,-0.837769
1470262355771611,-0.224365,-0.0202026,-0.497253,-0.837891
1470262355794632,-0.224365,-0.0199585,-0.49707,-0.838013
1470262355815650,-0.224365,-0.0199585,-0.49707,-0.838013
1470262355832165,-0.224365,-0.0200195,-0.49707,-0.838013
1470262355854686,-0.224365,-0.0200195,-0.49707,-0.838013
1470262355875705,-0.224365,-0.0200195,-0.49707,-0.838013
1470262355892219,-0.224365,-0.0200195,-0.49707,-0.838013
1470262355914739,-0.224365,-0.0200806,-0.49707,-0.838013
1470262355935758,-0.224365,-0.0200806,-0.49707,-0.838013
1470262355952273,-0.224365,-0.0200806,-0.49707,-0.838013
1470262355974793,-0.224365,-0.0201416,-0.49707,-0.838013
1470262355995811,-0.224304,-0.0201416,-0.49707,-0.838013
1470262356018332,-0.224121,-0.0200195,-0.496948,-0.838135
1470262356034346,-0.22406,-0.0199585,-0.496765,-0.838318
1470262356055865,-0.22406,-0.0200195,-0.496765,-0.838318
1470262356072381,-0.224121,-0.0199585,-0.496582,-0.838379
1470262356094400,-0.223999,-0.0197144,-0.496399,-0.838501
1470262356115424,-0.223816,-0.0194092,-0.496277,-0.838684
1470262356131968,-0.223694,-0.019104,-0.496033,-0.838806
1470262356154488,-0.223816,-0.0188599,-0.49585,-0.838928
1470262356177007,-0.224121,-0.0187988,-0.495667,-0.838989
1470262356192023,-0.22406,-0.0186157,-0.495483,-0.839111
1470262356214542,-0.223938,-0.0184937,-0.4953,-0.839233
1470262356237062,-0.223938,-0.0184937,-0.4953,-0.839233
1470262356252077,-0.223938,-0.0184937,-0.4953,-0.839233
1470262356275096,-0.223938,-0.0184937,-0.4953,-0.839233
1470262356297116,-0.224182,-0.0189819,-0.495422,-0.83905
1470262356311628,-0.22406,-0.0189819,-0.495544,-0.83905
1470262356334650,-0.223938,-0.0195313,-0.495667,-0.838989
1470262356357171,-0.224182,-0.0200195,-0.495911,-0.838745
1470262356371685,-0.224182,-0.0200195,-0.495911,-0.838806
1470262356394704,-0.224243,-0.0203857,-0.495911,-0.838745
1470262356417224,-0.224365,-0.0206299,-0.495911,-0.838684
1470262356431237,-0.224365,-0.0206299,-0.495911,-0.838684
1470262356462264,-0.224365,-0.0206299,-0.495911,-0.838684
1470262356477277,-0.224365,-0.0206299,-0.495911,-0.838684
1470262356491290,-0.224731,-0.020874,-0.495911,-0.838562
1470262356514812,-0.225525,-0.0211792,-0.496033,-0.838257
1470262356537331,-0.226563,-0.0216675,-0.496338,-0.83783
1470262356551345,-0.227478,-0.0221558,-0.496704,-0.837341
1470262356574365,-0.228149,-0.0224609,-0.497131,-0.836853
1470262356596885,-0.228821,-0.0228271,-0.497559,-0.836487
1470262356618405,-0.229309,-0.0230103,-0.497864,-0.836121
1470262356634419,-0.229675,-0.0233154,-0.498108,-0.835876
1470262356656939,-0.22998,-0.0235596,-0.49823,-0.835693
1470262356677958,-0.230225,-0.0236816,-0.498291,-0.835571
1470262356694472,-0.230469,-0.0237427,-0.498291,-0.83551
1470262356716994,-0.230469,-0.0237427,-0.498291,-0.83551
1470262356738040,-0.230469,-0.0237427,-0.498291,-0.83551
1470262356754526,-0.230469,-0.0237427,-0.498291,-0.83551
1470262356777046,-0.230469,-0.0238037,-0.498291,-0.83551
1470262356798121,-0.230713,-0.0239868,-0.498413,-0.835388
1470262356814580,-0.23114,-0.024231,-0.498474,-0.835205
1470262356837116,-0.231445,-0.024292,-0.498535,-0.835083
1470262356858119,-0.231689,-0.024231,-0.498657,-0.834961
1470262356874635,-0.232056,-0.024292,-0.498718,-0.834839
1470262356897154,-0.232605,-0.024353,-0.498718,-0.834656
1470262356918173,-0.233215,-0.0246582,-0.498657,-0.834534
1470262356934688,-0.233704,-0.0249023,-0.498535,-0.834412
1470262356957208,-0.234009,-0.0250854,-0.498474,-0.834412
1470262356978314,-0.234192,-0.0251465,-0.498535,-0.83429
1470262356994741,-0.234436,-0.0252686,-0.498474,-0.83429
1470262357017262,-0.23468,-0.0253296,-0.498413,-0.834229
1470262357038281,-0.234924,-0.0253906,-0.498352,-0.834229
1470262357054796,-0.234924,-0.0253906,-0.498352,-0.834229
1470262357077318,-0.234924,-0.0253906,-0.498352,-0.834229
1470262357099336,-0.235229,-0.0257568,-0.498413,-0.834106
1470262357113849,-0.235596,-0.0261841,-0.498352,-0.833984
1470262357136872,-0.236084,-0.0265503,-0.49823,-0.833923
1470262357166899,-0.23645,-0.0268555,-0.498169,-0.833862
1470262357174406,-0.236694,-0.0270386,-0.498108,-0.833801
1470262357196932,-0.236938,-0.0271606,-0.498108,-0.83374
1470262357219446,-0.237122,-0.0273438,-0.498047,-0.83374
1470262357241964,-0.237305,-0.0272827,-0.497925,-0.83374
1470262357256978,-0.237305,-0.0272827,-0.497925,-0.83374
1470262357279498,-0.237671,-0.0273438,-0.497803,-0.833679
1470262357294011,-0.237854,-0.0273438,-0.49762,-0.833801
1470262357317031,-0.238037,-0.0272827,-0.497437,-0.833801
1470262357339552,-0.238037,-0.0270386,-0.497253,-0.833923
1470262357354065,-0.238159,-0.0269165,-0.49707,-0.834045
1470262357377085,-0.238525,-0.0269775,-0.496887,-0.833984
1470262357399606,-0.238708,-0.0269775,-0.496765,-0.834045
1470262357414120,-0.238708,-0.0269165,-0.496765,-0.834045
1470262357437140,-0.238708,-0.0269775,-0.496765,-0.834045
1470262357459660,-0.238831,-0.0267944,-0.496704,-0.834045
1470262357474173,-0.238831,-0.0267944,-0.496704,-0.834045
1470262357497194,-0.238892,-0.0267944,-0.496704,-0.834045
1470262357519715,-0.239075,-0.0268555,-0.496704,-0.833984
1470262357534226,-0.239075,-0.0269165,-0.496704,-0.833984
1470262357557247,-0.239075,-0.0269165,-0.496704,-0.833984
1470262357579767,-0.239075,-0.0269165,-0.496704,-0.833984
1470262357600786,-0.239136,-0.0269165,-0.496704,-0.833984
1470262357616803,-0.239136,-0.0269165,-0.496704,-0.833984
1470262357639821,-0.239136,-0.0269165,-0.496643,-0.833984
1470262357660840,-0.239136,-0.0269775,-0.496643,-0.833984
1470262357676861,-0.239136,-0.0269775,-0.496643,-0.833984
1470262357699876,-0.239014,-0.0266724,-0.496582,-0.834045
1470262357720896,-0.239075,-0.0266724,-0.496582,-0.834045
1470262357736909,-0.238892,-0.0265503,-0.496521,-0.834167
1470262357759930,-0.238831,-0.0264893,-0.49646,-0.834167
1470262357780461,-0.238708,-0.0264893,-0.496399,-0.834229
1470262357797463,-0.23877,-0.0264893,-0.496399,-0.834229
1470262357819484,-0.238708,-0.0265503,-0.496399,-0.834229
1470262357840503,-0.238525,-0.0265503,-0.496521,-0.834229
1470262357857016,-0.238464,-0.0266113,-0.496643,-0.834167
1470262357879537,-0.23822,-0.0266113,-0.496704,-0.834229
1470262357902057,-0.237915,-0.0266724,-0.496826,-0.834229
1470262357917071,-0.237671,-0.0266724,-0.496887,-0.834229
1470262357939590,-0.237671,-0.0266724,-0.496887,-0.834229
1470262357961119,-0.237732,-0.0266724,-0.496887,-0.834229
1470262357977124,-0.237488,-0.0266113,-0.496887,-0.834351
1470262358000146,-0.237305,-0.0264893,-0.496765,-0.834473
1470262358020694,-0.237061,-0.0263672,-0.496704,-0.834534
1470262358044691,-0.236877,-0.0263062,-0.496704,-0.834656
1470262358059700,-0.236877,-0.0263062,-0.496704,-0.834595
1470262358082222,-0.236572,-0.0263062,-0.496643,-0.834778
1470262358097232,-0.236206,-0.026123,-0.496521,-0.8349
1470262358119254,-0.235779,-0.026123,-0.496521,-0.835022
1470262358142272,-0.235474,-0.026062,-0.49646,-0.835144
1470262358157286,-0.235107,-0.026062,-0.49646,-0.835266
1470262358179324,-0.234924,-0.026001,-0.49646,-0.835327
1470262358201826,-0.234558,-0.0259399,-0.496521,-0.835388
1470262358216339,-0.234497,-0.0259399,-0.496582,-0.835388
1470262358239860,-0.234314,-0.0258789,-0.496582,-0.835449
1470262358261881,-0.234009,-0.0256348,-0.496582,-0.83551
1470262358276393,-0.233826,-0.0255737,-0.496582,-0.835571
1470262358299414,-0.233643,-0.0254517,-0.496521,-0.835632
1470262358321934,-0.233459,-0.0253296,-0.496521,-0.835754
1470262358336447,-0.233337,-0.0253296,-0.496521,-0.835754
1470262358359468,-0.233093,-0.0252686,-0.496521,-0.835815
1470262358383489,-0.232788,-0.0252075,-0.496582,-0.835876
1470262358396501,-0.232605,-0.0251465,-0.496582,-0.835938
1470262358419521,-0.232544,-0.0251465,-0.496582,-0.835938
1470262358442042,-0.232544,-0.0251465,-0.496643,-0.835938
1470262358456555,-0.232544,-0.0251465,-0.496582,-0.835938
1470262358479576,-0.232544,-0.0251465,-0.496582,-0.835938
1470262358502096,-0.232544,-0.0251465,-0.496582,-0.835938
1470262358516609,-0.232544,-0.0251465,-0.496582,-0.835938
1470262358539629,-0.232544,-0.0251465,-0.496582,-0.835938
1470262358562149,-0.232544,-0.0251465,-0.496643,-0.835938
1470262358583168,-0.232544,-0.0251465,-0.496643,-0.835938
1470262358599683,-0.232544,-0.0251465,-0.496643,-0.835938
1470262358622203,-0.232544,-0.0251465,-0.496643,-0.835938
1470262358643240,-0.232544,-0.0251465,-0.496643,-0.835938
1470262358659738,-0.232544,-0.0251465,-0.496582,-0.835938
1470262358682257,-0.232544,-0.0251465,-0.496582,-0.835938
1470262358703292,-0.232544,-0.0251465,-0.496582,-0.835938
1470262358719791,-0.232544,-0.0251465,-0.496582,-0.835938
1470262358741848,-0.232544,-0.0251465,-0.496582,-0.835938
1470262358763332,-0.232544,-0.0251465,-0.496582,-0.835938
1470262358779344,-0.232544,-0.0251465,-0.496582,-0.835938
1470262358801865,-0.232544,-0.0251465,-0.496582,-0.835938
1470262358824385,-0.232544,-0.0251465,-0.496582,-0.835938
1470262358839398,-0.232544,-0.0251465,-0.496582,-0.835938
1470262358861919,-0.232544,-0.0251465,-0.496582,-0.835938
1470262358883439,-0.232544,-0.0251465,-0.496582,-0.835938
1470262358906959,-0.232544,-0.0251465,-0.496582,-0.835938
1470262358921974,-0.232544,-0.0251465,-0.496643,-0.835938
1470262358943578,-0.232422,-0.0249634,-0.496582,-0.835999
1470262358959508,-0.2323,-0.0249023,-0.496521,-0.83606
1470262358982027,-0.232117,-0.0247192,-0.49646,-0.836121
1470262359004547,-0.232056,-0.0245361,-0.496399,-0.836182
1470262359019561,-0.232056,-0.0245361,-0.496399,-0.836182
1470262359042080,-0.232056,-0.0245972,-0.496399,-0.836182
1470262359064603,-0.232056,-0.0245972,-0.496399,-0.836182
1470262359079626,-0.232056,-0.0245972,-0.496399,-0.836182
1470262359102134,-0.232056,-0.0245361,-0.496399,-0.836182
1470262359124663,-0.232056,-0.0245972,-0.496399,-0.836182
1470262359139168,-0.232056,-0.0245972,-0.496399,-0.836182
1470262359162190,-0.232056,-0.0245972,-0.496399,-0.836182
1470262359184708,-0.232056,-0.0245972,-0.496399,-0.836182
1470262359198721,-0.232056,-0.0245972,-0.496399,-0.836182
1470262359222242,-0.232056,-0.0245972,-0.496399,-0.836182
1470262359244762,-0.232056,-0.0245972,-0.496399,-0.836182
1470262359258774,-0.232056,-0.0245972,-0.496399,-0.836182
1470262359282296,-0.232056,-0.0245361,-0.496399,-0.836182
1470262359304816,-0.232056,-0.0245361,-0.496399,-0.836182
1470262359318828,-0.232056,-0.0245361,-0.496399,-0.836182
1470262359349858,-0.232056,-0.0245361,-0.496399,-0.836182
1470262359364370,-0.232056,-0.0245361,-0.496399,-0.836182
1470262359387392,-0.232056,-0.0245361,-0.496399,-0.836182
1470262359402404,-0.232056,-0.0245972,-0.496399,-0.836182
1470262359424425,-0.232056,-0.0245361,-0.496399,-0.836182
1470262359438937,-0.232056,-0.0245361,-0.496399,-0.836182
1470262359461957,-0.232056,-0.0245361,-0.496399,-0.836182
1470262359484478,-0.232056,-0.0245361,-0.496399,-0.836182
1470262359513004,-0.232056,-0.0245361,-0.496399,-0.836182
1470262359522013,-0.232056,-0.0245361,-0.496399,-0.836182
1470262359544531,-0.232056,-0.0245972,-0.496399,-0.836182
1470262359565555,-0.232056,-0.0245361,-0.496399,-0.836182
1470262359582066,-0.232056,-0.0245361,-0.496399,-0.836182
1470262359604586,-0.232178,-0.0247192,-0.49646,-0.836121
1470262359625604,-0.232178,-0.0247192,-0.49646,-0.836121
1470262359642119,-0.232117,-0.0246582,-0.496521,-0.836121
1470262359664640,-0.232117,-0.0246582,-0.496521,-0.836121
1470262359685660,-0.232117,-0.0246582,-0.496521,-0.836121
1470262359702174,-0.232117,-0.0246582,-0.496521,-0.836121
1470262359724694,-0.232117,-0.0246582,-0.496521,-0.836121
1470262359745726,-0.232117,-0.0246582,-0.496521,-0.836121
1470262359762227,-0.232178,-0.0246582,-0.496521,-0.836121
1470262359790770,-0.232056,-0.0244751,-0.496521,-0.836121
1470262359805784,-0.232056,-0.0244751,-0.496521,-0.836121
1470262359822281,-0.232056,-0.0244751,-0.496521,-0.836121
1470262359844349,-0.232056,-0.0244751,-0.496521,-0.836121
1470262359865819,-0.232056,-0.0244751,-0.496521,-0.836121
1470262359882336,-0.232056,-0.0244751,-0.496521,-0.836121
1470262359904855,-0.232056,-0.0244751,-0.496521,-0.836121
1470262359927375,-0.232056,-0.0244751,-0.496521,-0.836121
1470262359941388,-0.232056,-0.0244751,-0.496521,-0.836121
1470262359948895,-0.232056,-0.0244751,-0.496521,-0.836121
1470262359970466,-0.232056,-0.0244751,-0.496521,-0.836121
1470262359992468,-0.232056,-0.0244751,-0.496521,-0.836121
1470262360007461,-0.232056,-0.0244751,-0.496521,-0.836121
1470262360029981,-0.232056,-0.0244751,-0.496521,-0.836121
1470262360052514,-0.232056,-0.0244751,-0.496521,-0.836121
1470262360067501,-0.232056,-0.0244751,-0.496521,-0.836121
1470262360090040,-0.232056,-0.0244751,-0.496521,-0.836121
1470262360112541,-0.232056,-0.0244751,-0.496521,-0.836121
1470262360127586,-0.232056,-0.0244751,-0.496521,-0.836121
1470262360150076,-0.232056,-0.0244751,-0.496521,-0.836121
1470262360172595,-0.232056,-0.0244751,-0.496521,-0.836121
1470262360187673,-0.232117,-0.0244141,-0.496521,-0.836121
1470262360210129,-0.232117,-0.0244141,-0.496521,-0.836121
1470262360232649,-0.232117,-0.0244141,-0.496521,-0.836121
1470262360247663,-0.232117,-0.0244751,-0.496521,-0.836121
1470262360270183,-0.232117,-0.0244141,-0.496521,-0.836121
1470262360292703,-0.232117,-0.0244751,-0.496521,-0.836121
1470262360307717,-0.232117,-0.0244751,-0.496521,-0.836121
1470262360330237,-0.232117,-0.0247192,-0.496643,-0.83606
1470262360352758,-0.232178,-0.0249634,-0.496704,-0.835938
1470262360367771,-0.232178,-0.0249634,-0.496704,-0.835938
1470262360389791,-0.232178,-0.0249634,-0.496704,-0.835938
1470262360412311,-0.232178,-0.0249634,-0.496704,-0.835938
1470262360427826,-0.232178,-0.0249634,-0.496704,-0.835938
1470262360449846,-0.232178,-0.0250244,-0.496704,-0.835938
1470262360472364,-0.232178,-0.0250244,-0.496704,-0.835938
1470262360487882,-0.232178,-0.0249634,-0.496704,-0.835938
1470262360509900,-0.232178,-0.0249634,-0.496704,-0.835938
1470262360532419,-0.232178,-0.0249634,-0.496704,-0.835938
1470262360548935,-0.232178,-0.0249634,-0.496704,-0.835938
1470262360569954,-0.232117,-0.0249634,-0.496765,-0.835938
1470262360592473,-0.232117,-0.0249634,-0.496765,-0.835938
1470262360608987,-0.232117,-0.0249634,-0.496704,-0.835938
1470262360630010,-0.232178,-0.0249634,-0.496704,-0.835938
1470262360652544,-0.232178,-0.0249634,-0.496704,-0.835938
1470262360669042,-0.232178,-0.0249634,-0.496765,-0.835938
1470262360690082,-0.232178,-0.0249634,-0.496765,-0.835938
1470262360712582,-0.232178,-0.0249634,-0.496765,-0.835938
1470262360729095,-0.232178,-0.0249634,-0.496765,-0.835938
1470262360750114,-0.232178,-0.0249634,-0.496765,-0.835938
1470262360775638,-0.232178,-0.0249634,-0.496704,-0.835938
1470262360789149,-0.232239,-0.0247192,-0.496643,-0.835999
1470262360810167,-0.2323,-0.0244141,-0.496521,-0.83606
1470262360832687,-0.232422,-0.0239868,-0.496277,-0.836182
1470262360850300,-0.232422,-0.0235596,-0.496094,-0.836304
1470262360870315,-0.232422,-0.0231323,-0.495911,-0.836426
1470262360892835,-0.232422,-0.0231323,-0.495911,-0.836426
1470262360910351,-0.232422,-0.0231323,-0.495911,-0.836426
1470262360929869,-0.232422,-0.0231323,-0.495911,-0.836426
1470262360952891,-0.232483,-0.0234375,-0.495972,-0.836365
1470262360970406,-0.232605,-0.0235596,-0.496033,-0.836304
1470262360989924,-0.232666,-0.0238037,-0.496216,-0.836182
1470262361012459,-0.232666,-0.0238037,-0.496216,-0.836182
1470262361030478,-0.232605,-0.0238037,-0.496216,-0.836182
1470262361049977,-0.232605,-0.0237427,-0.496216,-0.836182
1470262361072546,-0.232605,-0.0237427,-0.496216,-0.836182
1470262361090517,-0.232788,-0.0239258,-0.496277,-0.836121
1470262361110031,-0.232788,-0.0239258,-0.496277,-0.836121
1470262361132565,-0.232727,-0.0239258,-0.496277,-0.836121
1470262361150567,-0.23291,-0.024231,-0.496399,-0.835999
1470262361170085,-0.23291,-0.024231,-0.496399,-0.835999
1470262361192604,-0.23291,-0.024231,-0.496399,-0.835999
1470262361210640,-0.23291,-0.024231,-0.496399,-0.835999
1470262361230154,-0.23291,-0.024231,-0.496399,-0.835999
1470262361252679,-0.23291,-0.024231,-0.496399,-0.835999
1470262361270675,-0.23291,-0.024231,-0.496399,-0.835999
1470262361290193,-0.23291,-0.024231,-0.496399,-0.835999
1470262361312714,-0.23291,-0.024231,-0.496399,-0.835999
1470262361330229,-0.23291,-0.024292,-0.496399,-0.835999
