timestamp,x,y,z,w
1470345934556873,-0.299377,0.00354004,0.32251,0.897949
1470345934575890,-0.29248,-0.00366211,0.326721,0.898682
1470345934598924,-0.285217,-0.0110474,0.329407,0.899963
1470345934616940,-0.277832,-0.0178833,0.330139,0.901917
1470345934635958,-0.268555,-0.0217896,0.329285,0.904907
1470345934658977,-0.250793,-0.0128174,0.328735,0.9104
1470345934675993,-0.233398,-0.00543213,0.329346,0.914856
1470345934696020,-0.225525,-0.000671387,0.331482,0.916077
1470345934719042,-0.227356,-0.000427246,0.332764,0.915161
1470345934737057,-0.230225,-0.000854492,0.333008,0.914368
1470345934756077,-0.229614,0.00012207,0.332703,0.914612
1470345934779096,-0.227783,0.00189209,0.331421,0.915527
1470345934801129,-0.225586,0.00384521,0.328918,0.916992
1470345934816143,-0.224365,0.00531006,0.326172,0.918274
1470345934838162,-0.223755,0.00646973,0.324158,0.919067
1470345934856178,-0.223694,0.00750732,0.32312,0.919495
1470345934876196,-0.223511,0.00836182,0.322754,0.919617
1470345934898231,-0.222717,0.00927734,0.32251,0.919922
1470345934916246,-0.221741,0.0106201,0.32251,0.920105
1470345934936266,-0.220398,0.012085,0.32251,0.920471
1470345934958285,-0.219238,0.0133667,0.322571,0.920654
1470345934976300,-0.218628,0.0144653,0.322754,0.920715
1470345934996324,-0.218262,0.015564,0.322876,0.920776
1470345935018350,-0.21814,0.0166626,0.322876,0.920776
1470345935036367,-0.218628,0.0172119,0.322876,0.920654
1470345935056385,-0.21875,0.0174561,0.323059,0.920532
1470345935078405,-0.218445,0.0178833,0.323364,0.920532
1470345935096427,-0.217834,0.0183716,0.323608,0.920532
1470345935116451,-0.21698,0.0187378,0.323975,0.920593
1470345935138472,-0.216492,0.0186157,0.324585,0.920532
1470345935156487,-0.215454,0.0182495,0.325623,0.92041
1470345935179507,-0.214111,0.0180054,0.326965,0.920227
1470345935199058,-0.212769,0.0178223,0.328186,0.920166
1470345935217075,-0.211365,0.0179443,0.329102,0.920105
1470345935237095,-0.210693,0.0181274,0.329834,0.920044
1470345935259114,-0.210022,0.0180664,0.330444,0.919922
1470345935277131,-0.209229,0.0181274,0.331238,0.919861
1470345935297218,-0.207825,0.0183716,0.332336,0.919739
1470345935318236,-0.206421,0.0186157,0.333496,0.919617
1470345935336251,-0.2052,0.0188599,0.334229,0.919617
1470345935357269,-0.204468,0.0188599,0.334656,0.919678
1470345935378289,-0.204224,0.0187378,0.334961,0.919617
1470345935396814,-0.203918,0.0188599,0.335144,0.919617
1470345935417839,-0.203674,0.019043,0.335266,0.919617
1470345935438858,-0.203674,0.019043,0.335266,0.919617
1470345935456874,-0.203308,0.019043,0.335266,0.919678
1470345935477892,-0.203247,0.019043,0.335266,0.919678
1470345935498919,-0.203308,0.0187378,0.33551,0.919617
1470345935516935,-0.203125,0.0187378,0.335815,0.919556
1470345935537954,-0.202576,0.0187988,0.33606,0.919556
1470345935558973,-0.201904,0.0189209,0.336182,0.919678
1470345935576993,-0.201721,0.0186768,0.336304,0.919678
1470345935598011,-0.201843,0.0184326,0.336365,0.919617
1470345935619029,-0.202087,0.0181274,0.336548,0.919495
1470345935637047,-0.201782,0.0180054,0.33667,0.919556
1470345935659571,-0.201416,0.0180664,0.336731,0.919617
1470345935679093,-0.200989,0.0181885,0.336731,0.919678
1470345935701128,-0.200928,0.0181885,0.336731,0.919678
1470345935719129,-0.200684,0.0182495,0.337097,0.919617
1470345935738148,-0.200562,0.0181274,0.337646,0.919434
1470345935756668,-0.200684,0.0178833,0.33783,0.919312
1470345935779193,-0.200317,0.0177612,0.337952,0.919373
1470345935798211,-0.199707,0.0180054,0.338196,0.919434
1470345935816227,-0.199707,0.0180664,0.338196,0.919434
1470345935839252,-0.200073,0.0180664,0.338562,0.91925
1470345935858817,-0.200012,0.0179443,0.338928,0.919067
1470345935876337,-0.19873,0.0181274,0.339661,0.919067
1470345935899357,-0.196899,0.0185547,0.340271,0.91925
1470345935918437,-0.195129,0.0185547,0.341003,0.919373
1470345935936391,-0.194397,0.0177612,0.341553,0.919312
1470345935959482,-0.194458,0.015625,0.342346,0.919067
1470345935979039,-0.19519,0.0129395,0.343445,0.918518
1470345936001058,-0.196533,0.00946045,0.344788,0.917786
1470345936019034,-0.198792,0.00360107,0.34613,0.916809
1470345936039051,-0.201233,-0.00341797,0.348206,0.915527
1470345936061667,-0.20343,-0.00939941,0.351074,0.913879
1470345936079230,-0.202332,-0.0129395,0.354675,0.91272
1470345936098311,-0.198486,-0.0162964,0.358398,0.912048
1470345936121308,-0.194641,-0.019104,0.362183,0.911316
1470345936139284,-0.191345,-0.0202026,0.366821,0.910156
1470345936158822,-0.187927,-0.0204468,0.372253,0.90863
1470345936180988,-0.183899,-0.0206909,0.377991,0.907104
1470345936198939,-0.179504,-0.0205078,0.383545,0.90564
1470345936219005,-0.174622,-0.0193481,0.389404,0.904114
1470345936241032,-0.170288,-0.0177612,0.395691,0.902283
1470345936259551,-0.166565,-0.0162964,0.402893,0.89978
1470345936280604,-0.164001,-0.0157471,0.410461,0.896851
1470345936301654,-0.160339,-0.0148315,0.418701,0.893677
1470345936318639,-0.154968,-0.0122681,0.427368,0.890564
1470345936339665,-0.148193,-0.00842285,0.436584,0.887329
1470345936361232,-0.141541,-0.0043335,0.446533,0.883423
1470345936378798,-0.135681,-0.000671387,0.457092,0.878967
1470345936399815,-0.130127,0.00262451,0.467834,0.874146
1470345936420835,-0.124634,0.00585938,0.47876,0.869019
1470345936438851,-0.118896,0.00915527,0.489746,0.863647
1470345936460374,-0.113159,0.0130005,0.501038,0.857849
1470345936480924,-0.107788,0.0169067,0.512573,0.851624
1470345936498926,-0.102295,0.0212402,0.523926,0.845276
1470345936519944,-0.0969238,0.0253296,0.535156,0.838745
1470345936540977,-0.0913086,0.02948,0.545959,0.832275
1470345936559500,-0.0861816,0.0330811,0.556458,0.825684
1470345936581031,-0.0810547,0.0365601,0.566711,0.819092
1470345936602108,-0.0750732,0.0404053,0.576538,0.812561
1470345936618121,-0.0682983,0.0442505,0.585388,0.80658
1470345936641085,-0.0618896,0.046875,0.593323,0.801147
1470345936662171,-0.0567017,0.0489502,0.600708,0.795898
1470345936678275,-0.0525513,0.0507813,0.607239,0.791077
1470345936701263,-0.0475464,0.0516357,0.613342,0.786621
1470345936722330,-0.0408325,0.0511475,0.618713,0.782837
1470345936738296,-0.0327148,0.0496216,0.623352,0.779663
1470345936761366,-0.0239258,0.0482788,0.62793,0.776367
1470345936783434,-0.0167847,0.046875,0.632935,0.772583
1470345936798447,-0.0108032,0.0444336,0.638,0.768616
1470345936820467,-0.00305176,0.0432739,0.642639,0.764893
1470345936841539,0.00683594,0.0447388,0.64679,0.761292
1470345936858564,0.0177002,0.0475464,0.650513,0.757751
1470345936880683,0.0272827,0.0491943,0.654297,0.754089
1470345936901657,0.0351563,0.0473633,0.65802,0.75061
1470345936918673,0.0426636,0.0444336,0.661682,0.747192
1470345936940726,0.0498047,0.0427856,0.665283,0.743652
1470345936962271,0.0565796,0.0424194,0.668823,0.73999
1470345936977831,0.0638428,0.0422974,0.672058,0.73645
1470345937000854,0.0708618,0.0413208,0.675476,0.732727
1470345937021948,0.0765381,0.0390625,0.679443,0.728577
1470345937037894,0.0817261,0.0368042,0.683655,0.724243
1470345937060961,0.0869141,0.0353394,0.687927,0.719604
1470345937082028,0.0917358,0.03479,0.692688,0.714478
1470345937097997,0.0962524,0.0343628,0.697876,0.708801
1470345937121017,0.100708,0.0343018,0.70343,0.702698
1470345937142080,0.104492,0.0348511,0.709351,0.696167
1470345937158562,0.107727,0.0359497,0.715637,0.689087
1470345937180703,0.11084,0.0372314,0.72229,0.681519
1470345937201773,0.113953,0.038147,0.728882,0.673889
1470345937217788,0.117126,0.0404053,0.735168,0.666382
1470345937240775,0.119446,0.0428467,0.741089,0.659241
1470345937262284,0.121155,0.0449829,0.746521,0.652588
1470345937277867,0.122131,0.0469971,0.751343,0.646729
1470345937300887,0.123047,0.0491333,0.755554,0.641479
1470345937321950,0.124146,0.0513916,0.759155,0.63678
1470345937337922,0.125549,0.053772,0.761841,0.633118
1470345937361003,0.126648,0.0558472,0.763672,0.630493
1470345937381589,0.127441,0.0568848,0.764465,0.629272
1470345937404609,0.128418,0.0576782,0.764282,0.629211
1470345937420621,0.1297,0.0588989,0.763245,0.630127
1470345937441641,0.131104,0.0595703,0.761414,0.632019
1470345937457727,0.131897,0.05896,0.759216,0.634583
1470345937481269,0.13269,0.0588379,0.756775,0.637268
1470345937502289,0.133728,0.0596313,0.754028,0.640259
1470345937517315,0.134521,0.0604248,0.750916,0.643677
1470345937541324,0.133972,0.0606689,0.747192,0.64801
1470345937563890,0.132813,0.0603027,0.743042,0.653137
1470345937577892,0.130676,0.0588379,0.73877,0.658508
1470345937600912,0.12738,0.0570068,0.734192,0.664368
1470345937622934,0.124573,0.0560913,0.728638,0.671082
1470345937637945,0.121338,0.0545044,0.722107,0.678772
1470345937661027,0.116943,0.0510254,0.714783,0.687561
1470345937683614,0.112122,0.046875,0.706543,0.697083
1470345937697626,0.106995,0.0426025,0.697449,0.707214
1470345937721646,0.102356,0.0386963,0.687439,0.717896
1470345937743666,0.0983887,0.0349121,0.676514,0.728943
1470345937757740,0.0952759,0.0317993,0.664978,0.740051
1470345937781264,0.0928955,0.0294189,0.652771,0.751221
1470345937803283,0.0928345,0.0278931,0.639099,0.762939
1470345937824357,0.0922241,0.0248413,0.624268,0.77533
1470345937840359,0.0914917,0.0219727,0.609009,0.787476
1470345937863423,0.0918579,0.0197144,0.593445,0.799316
1470345937884032,0.0932007,0.0175781,0.57666,0.811401
1470345937901046,0.0944214,0.0154419,0.558411,0.823975
1470345937923066,0.0950928,0.0131226,0.539612,0.836365
1470345937944085,0.0961914,0.0108643,0.52063,0.848206
1470345937961196,0.0977173,0.00878906,0.500977,0.859802
1470345937983721,0.098999,0.00714111,0.480774,0.871155
1470345938004778,0.0997925,0.00518799,0.460693,0.881836
1470345938020761,0.10083,0.00305176,0.440918,0.891785
1470345938043775,0.102966,0.00177002,0.421204,0.901062
1470345938064806,0.105408,0.00134277,0.401794,0.909607
1470345938080877,0.108154,0.00146484,0.383362,0.917175
1470345938102883,0.111938,0.00164795,0.365662,0.92395
1470345938124904,0.11322,0.00268555,0.348938,0.930237
1470345938140964,0.113525,0.00250244,0.333374,0.935852
1470345938163499,0.112061,0.00201416,0.318787,0.941101
1470345938184064,0.110535,0.0022583,0.305054,0.945862
1470345938201051,0.110046,0.00256348,0.292603,0.949829
1470345938223058,0.109497,0.00256348,0.281982,0.953125
1470345938244079,0.107788,0.00317383,0.273376,0.955811
1470345938261156,0.106384,0.00488281,0.266418,0.957886
1470345938283746,0.106079,0.00732422,0.26123,0.959351
1470345938304769,0.105347,0.00958252,0.257507,0.960449
1470345938320778,0.10376,0.0115967,0.255981,0.960999
1470345938343799,0.101868,0.013916,0.256592,0.960999
1470345938364847,0.100159,0.0167236,0.259338,0.960388
1470345938380378,0.0985107,0.0198364,0.264221,0.959167
1470345938403398,0.0971069,0.0227051,0.271301,0.957275
1470345938424448,0.0967407,0.0253906,0.280029,0.954712
1470345938440434,0.0960083,0.0273438,0.290894,0.951477
1470345938463466,0.09552,0.0293579,0.303711,0.947449
1470345938486049,0.0960083,0.0321655,0.318176,0.942566
1470345938500062,0.0968018,0.0354614,0.333801,0.936951
1470345938523080,0.0986938,0.038269,0.350769,0.93042
1470345938546101,0.100098,0.0418091,0.368286,0.92334
1470345938561121,0.10199,0.0455933,0.386475,0.915466
1470345938583670,0.103699,0.0490112,0.404907,0.907104
1470345938605689,0.104492,0.0524292,0.423462,0.898254
1470345938619786,0.104553,0.0560913,0.442078,0.889038
1470345938643724,0.104492,0.0598145,0.460632,0.879333
1470345938666289,0.104248,0.0637207,0.479309,0.86908
1470345938679822,0.104126,0.0678101,0.498169,0.858093
1470345938703845,0.104431,0.0725098,0.516785,0.846558
1470345938725865,0.105469,0.078064,0.535156,0.834473
1470345938739876,0.107178,0.0837402,0.552795,0.822083
1470345938763901,0.108215,0.0879517,0.569031,0.810364
1470345938785927,0.107605,0.0893555,0.5849,0.798889
1470345938807027,0.105774,0.0892944,0.600403,0.787598
1470345938822960,0.105042,0.0909424,0.615173,0.776001
1470345938846017,0.106018,0.0914917,0.629456,0.764282
1470345938867128,0.108826,0.0926514,0.642639,0.752625
1470345938883172,0.111572,0.0931396,0.655029,0.741455
1470345938906177,0.113342,0.0909424,0.666809,0.730896
1470345938927240,0.114136,0.086731,0.678467,0.720459
1470345938943213,0.115417,0.0829468,0.689575,0.710083
1470345938966294,0.118103,0.0820313,0.699707,0.699707
1470345938987274,0.121155,0.083313,0.709229,0.689392
1470345939003290,0.123535,0.0831299,0.71814,0.679688
1470345939025331,0.124817,0.0794067,0.726379,0.671082
1470345939047328,0.126099,0.0742188,0.73407,0.663086
1470345939063417,0.127625,0.0698853,0.741272,0.655151
1470345939085476,0.13031,0.0681152,0.747925,0.647217
1470345939106551,0.133545,0.0675659,0.75415,0.639343
1470345939123514,0.137268,0.0668335,0.759521,0.632263
1470345939145543,0.140137,0.0644531,0.764221,0.62616
1470345939167058,0.141846,0.0614014,0.768616,0.620728
1470345939183580,0.143677,0.0598145,0.772278,0.615845
1470345939205601,0.146118,0.0597534,0.775146,0.611694
1470345939226623,0.148315,0.0596313,0.777405,0.608276
1470345939243634,0.149353,0.0588379,0.779236,0.605713
1470345939266244,0.149902,0.0576782,0.780579,0.603943
1470345939287311,0.15033,0.0565796,0.781494,0.602783
1470345939303325,0.150574,0.0557861,0.782043,0.602112
1470345939326346,0.150818,0.055481,0.782166,0.601868
1470345939347399,0.151123,0.0553589,0.781982,0.602051
1470345939363428,0.151001,0.0551147,0.781616,0.6026
1470345939385607,0.150696,0.0546875,0.780945,0.603577
1470345939406628,0.150391,0.0544434,0.779968,0.60498
1470345939423641,0.149841,0.0535889,0.778748,0.606689
1470345939445672,0.148987,0.0523682,0.777527,0.608643
1470345939468698,0.14801,0.0512085,0.776184,0.610657
1470345939483243,0.146973,0.0501709,0.774719,0.612854
1470345939506261,0.145691,0.0490112,0.773193,0.615173
1470345939528283,0.143921,0.0477295,0.771667,0.617554
1470345939543296,0.141846,0.0465698,0.770264,0.619934
1470345939565928,0.139526,0.0455933,0.768738,0.622437
1470345939588444,0.13678,0.0444946,0.767212,0.625
1470345939602455,0.13385,0.0437012,0.765381,0.62793
1470345939625475,0.130737,0.0428467,0.763367,0.631042
1470345939648496,0.127502,0.041687,0.761169,0.634399
1470345939663070,0.124817,0.0408325,0.758362,0.638428
1470345939685648,0.122681,0.0394897,0.754883,0.643005
1470345939709669,0.120239,0.0367432,0.75116,0.647949
1470345939729743,0.116028,0.0322266,0.747437,0.653259
1470345939745701,0.110901,0.0258789,0.743469,0.658997
1470345939768358,0.105652,0.0185547,0.738953,0.6651
1470345939789518,0.101257,0.0119019,0.733704,0.671753
1470345939805479,0.0975952,0.00585938,0.728271,0.678162
1470345939828502,0.0938721,-0.000915527,0.723389,0.68396
1470345939849575,0.0899658,-0.0078125,0.719177,0.688843
1470345939866045,0.0859985,-0.0140381,0.715637,0.692932
1470345939888174,0.0843506,-0.0183105,0.712585,0.696228
1470345939909205,0.0847778,-0.0213623,0.710022,0.698669
1470345939926169,0.0837402,-0.0244141,0.708191,0.700562
1470345939956194,0.0806885,-0.02771,0.706726,0.702271
1470345939969799,0.0760498,-0.0308838,0.705872,0.703491
1470345939985781,0.0721436,-0.0338745,0.705383,0.704285
1470345940008802,0.0697632,-0.0355225,0.705566,0.704224
1470345940029821,0.0687866,-0.0357056,0.706787,0.703125
1470345940045840,0.0692749,-0.0339966,0.708313,0.701599
1470345940068361,0.0702515,-0.0324097,0.709534,0.700378
1470345940089386,0.0709229,-0.03125,0.710938,0.698914
1470345940107412,0.0717163,-0.0333862,0.712891,0.696716
1470345940128420,0.0705566,-0.0338745,0.714355,0.695374
1470345940149494,0.0717163,-0.0322876,0.71344,0.696228
1470345940166016,0.072876,-0.0332642,0.713318,0.696167
1470345940188579,0.0713501,-0.036377,0.713745,0.69574
1470345940209653,0.0681152,-0.0419312,0.7146,0.694885
1470345940225612,0.0644531,-0.0487671,0.715149,0.694214
1470345940248634,0.0612793,-0.0546265,0.71582,0.693359
1470345940269658,0.0598145,-0.0560303,0.716675,0.692505
1470345940285677,0.0587769,-0.0546875,0.716736,0.692627
1470345940308699,0.0591431,-0.0522461,0.716431,0.693115
1470345940329717,0.0597534,-0.0491333,0.716248,0.693481
1470345940345735,0.0596924,-0.0455933,0.716309,0.693665
1470345940368769,0.0585938,-0.0426636,0.716492,0.693726
1470345940390792,0.0576782,-0.0404663,0.716553,0.693848
1470345940406807,0.0575562,-0.038208,0.716553,0.694031
1470345940427827,0.0582886,-0.0353394,0.716553,0.694092
1470345940450850,0.0593872,-0.0323486,0.716553,0.694214
1470345940465867,0.0599365,-0.0303955,0.716431,0.694336
1470345940487893,0.0603638,-0.0289307,0.716064,0.694763
1470345940510914,0.0612183,-0.0270996,0.715698,0.695129
1470345940524926,0.0616455,-0.0256348,0.715454,0.695374
1470345940547946,0.0614624,-0.0250854,0.71521,0.695679
1470345940570988,0.0614014,-0.0247803,0.714905,0.695984
1470345940585019,0.0620117,-0.0236206,0.7146,0.69635
1470345940608041,0.062561,-0.0222778,0.714355,0.696533
1470345940631063,0.0628662,-0.0212402,0.714233,0.696655
1470345940645078,0.0628052,-0.0206299,0.714233,0.696716
1470345940668598,0.0626831,-0.0202026,0.714233,0.696777
1470345940691126,0.0622559,-0.0200195,0.714111,0.696899
1470345940705138,0.0620117,-0.0196533,0.713928,0.697144
1470345940728157,0.0619507,-0.019165,0.713684,0.697388
1470345940751178,0.0618286,-0.0186157,0.713501,0.697632
1470345940765207,0.0617676,-0.0180054,0.713318,0.697815
1470345940788804,0.0617065,-0.017395,0.713257,0.697876
1470345940810820,0.0612793,-0.0172729,0.713257,0.697937
1470345940825832,0.0605469,-0.0174561,0.713135,0.69812
1470345940847905,0.0600586,-0.017334,0.71283,0.698486
1470345940870945,0.0599365,-0.0177002,0.712463,0.698853
1470345940899028,0.0580444,-0.0206909,0.713318,0.69812
1470345940908035,0.0579224,-0.0197144,0.713257,0.698181
1470345940931056,0.0577393,-0.0188599,0.71344,0.698059
1470345940952130,0.0568848,-0.0189209,0.713318,0.698242
1470345940968650,0.0557251,-0.0202637,0.713257,0.698303
1470345940991214,0.0547485,-0.0210571,0.713196,0.698425
1470345941012308,0.0546265,-0.0206909,0.713257,0.698425
1470345941028301,0.0545044,-0.0206299,0.713257,0.698425
1470345941051266,0.0544434,-0.0206299,0.713257,0.698425
1470345941072342,0.0543823,-0.0205688,0.713196,0.698486
1470345941088417,0.0548096,-0.0201416,0.713135,0.698547
1470345941110434,0.055603,-0.0192261,0.713074,0.698547
1470345941131454,0.0560913,-0.0186157,0.713013,0.698608
1470345941148469,0.0552979,-0.019104,0.712769,0.698914
1470345941171001,0.0549927,-0.0192261,0.712708,0.698975
1470345941191621,0.0541382,-0.0194092,0.712463,0.69928
1470345941208578,0.0540771,-0.0194092,0.712463,0.69928
1470345941230652,0.0540161,-0.0189819,0.712341,0.699402
1470345941251661,0.053833,-0.019043,0.71228,0.699463
1470345941268715,0.0534058,-0.0194092,0.71228,0.699524
1470345941290398,0.0529785,-0.0197144,0.71228,0.699524
1470345941313429,0.0523071,-0.0201416,0.712402,0.699463
1470345941328433,0.0519409,-0.0202637,0.71228,0.699646
1470345941350452,0.0519409,-0.0202637,0.71228,0.699646
1470345941373506,0.0513916,-0.0203857,0.712219,0.699707
1470345941388023,0.0513916,-0.0203857,0.712219,0.699707
1470345941411045,0.0516357,-0.0198975,0.712219,0.699707
1470345941433071,0.052002,-0.0195923,0.712219,0.699707
1470345941448081,0.0518799,-0.0198975,0.712219,0.699707
1470345941471129,0.0513916,-0.0205078,0.71228,0.699646
1470345941493179,0.0513916,-0.0205078,0.71228,0.699646
1470345941507231,0.0514526,-0.0202026,0.712219,0.699707
1470345941531211,0.0515747,-0.0197144,0.712158,0.699768
1470345941553232,0.0515747,-0.0197144,0.712158,0.699768
1470345941567753,0.0515137,-0.0197144,0.712158,0.699768
1470345941591276,0.0515137,-0.0197144,0.712158,0.699768
1470345941613300,0.0517578,-0.0195313,0.712036,0.699951
1470345941627308,0.0521851,-0.019165,0.711975,0.699951
1470345941650349,0.0523071,-0.0189209,0.711975,0.699951
1470345941673354,0.0523071,-0.0189209,0.711975,0.699951
1470345941687386,0.0522461,-0.0188599,0.711975,0.699951
1470345941711406,0.0522461,-0.0188599,0.711975,0.699951
1470345941733426,0.0521851,-0.0188599,0.711975,0.699951
1470345941747438,0.0523071,-0.0187378,0.711914,0.700012
1470345941770967,0.0524902,-0.0184326,0.711914,0.700012
1470345941793493,0.0527344,-0.0181885,0.711914,0.700012
1470345941815511,0.0530396,-0.0179443,0.711914,0.700012
1470345941816512,0.0530396,-0.0179443,0.711914,0.700012
1470345941843536,0.0526733,-0.0180054,0.711975,0.699951
1470345941858549,0.052063,-0.0182495,0.712036,0.69989
1470345941876070,0.0519409,-0.0182495,0.712036,0.69989
1470345941896222,0.0518799,-0.0180054,0.712036,0.69989
1470345941918242,0.0519409,-0.0179443,0.712036,0.699951
1470345941936258,0.0523682,-0.0177612,0.711914,0.700012
1470345941956276,0.0527344,-0.017395,0.711914,0.700012
1470345941979372,0.0527954,-0.017395,0.711914,0.700012
1470345941996389,0.0527954,-0.017334,0.711914,0.700012
1470345942016405,0.0525513,-0.0175171,0.711914,0.700012
1470345942038424,0.0524902,-0.0175171,0.711975,0.700012
1470345942056441,0.0524292,-0.0175171,0.711975,0.700012
1470345942083643,0.0524292,-0.0175171,0.711975,0.700012
1470345942098656,0.0526733,-0.0172729,0.711914,0.700012
1470345942116672,0.0530396,-0.0167847,0.711914,0.700012
1470345942136690,0.0529785,-0.0167847,0.711914,0.700012
1470345942158711,0.0528564,-0.0170288,0.711914,0.700012
1470345942183950,0.0527954,-0.0170288,0.711914,0.700012
1470345942195963,0.0527954,-0.0169678,0.711914,0.700012
1470345942218982,0.0524902,-0.0170288,0.711914,0.700012
1470345942237000,0.0524902,-0.0170288,0.711914,0.700012
1470345942256016,0.0526733,-0.0166626,0.711975,0.699951
1470345942278596,0.0526733,-0.0166626,0.711975,0.700012
1470345942296586,0.0525513,-0.0167847,0.711975,0.699951
1470345942316654,0.0523682,-0.0169678,0.711975,0.699951
1470345942338650,0.0523682,-0.0169678,0.711975,0.699951
1470345942356640,0.0523071,-0.0169678,0.711975,0.699951
1470345942376718,0.0523071,-0.0169678,0.711975,0.699951
1470345942398525,0.0526733,-0.0165405,0.711914,0.700012
1470345942416541,0.0529175,-0.0161743,0.711914,0.700012
1470345942436560,0.0529175,-0.0161743,0.711914,0.700012
1470345942458613,0.0529175,-0.0161743,0.711914,0.700012
1470345942477107,0.0529175,-0.0161133,0.711914,0.700012
1470345942496632,0.0525513,-0.0162354,0.711975,0.700012
1470345942518681,0.0524902,-0.0162354,0.711975,0.700012
1470345942536667,0.0526123,-0.0160522,0.711975,0.700012
1470345942556685,0.0526123,-0.0160522,0.711975,0.700012
1470345942578526,0.0527954,-0.0159912,0.711914,0.700012
1470345942596502,0.0528564,-0.0159302,0.711914,0.700012
1470345942619523,0.0528564,-0.0158691,0.711914,0.700012
1470345942638566,0.0524902,-0.0160522,0.712036,0.699951
1470345942656557,0.0521851,-0.0162354,0.712036,0.699951
1470345942676598,0.0521851,-0.0162354,0.712036,0.699951
1470345942699159,0.0522461,-0.0160522,0.712097,0.69989
1470345942717179,0.0523071,-0.0158691,0.712036,0.699951
1470345942736230,0.0524902,-0.0157471,0.711975,0.700012
1470345942759215,0.0527344,-0.0154419,0.711975,0.700012
1470345942776737,0.0527344,-0.0153809,0.711975,0.700012
1470345942795835,0.0527344,-0.0154419,0.711975,0.700012
1470345942818934,0.0527344,-0.0153809,0.711975,0.700012
1470345942836869,0.0527344,-0.0153809,0.711975,0.700012
1470345942855887,0.0524902,-0.0155029,0.711975,0.700012
1470345942879421,0.0524292,-0.0155029,0.711975,0.700012
1470345942896431,0.0525513,-0.0153198,0.711975,0.699951
1470345942917450,0.0525513,-0.0153198,0.711975,0.699951
1470345942938559,0.0525513,-0.0152588,0.711975,0.699951
1470345942956487,0.0524292,-0.0154419,0.712036,0.699951
1470345942978070,0.0521851,-0.0157471,0.712036,0.699951
1470345942999111,0.0521851,-0.0157471,0.712036,0.699951
1470345943017149,0.0521851,-0.015686,0.712036,0.699951
1470345943038147,0.0521851,-0.015686,0.712036,0.699951
1470345943059220,0.0521851,-0.015686,0.712036,0.699951
1470345943076743,0.0521851,-0.015625,0.712036,0.699951
1470345943097770,0.052124,-0.015625,0.712036,0.699951
1470345943118841,0.0524292,-0.0154419,0.712036,0.699951
1470345943136859,0.0524292,-0.0153809,0.711975,0.700012
1470345943157841,0.0521851,-0.015564,0.712036,0.699951
1470345943178960,0.0519409,-0.0158081,0.712097,0.699951
1470345943196974,0.0519409,-0.0158081,0.712097,0.699951
1470345943218993,0.0519409,-0.015625,0.712097,0.699951
1470345943239064,0.0519409,-0.015564,0.712097,0.699951
1470345943257029,0.0519409,-0.015564,0.712097,0.699951
1470345943279076,0.052002,-0.015564,0.712097,0.699951
1470345943299099,0.052002,-0.015564,0.712097,0.699951
1470345943317116,0.052002,-0.015564,0.712097,0.699951
1470345943339138,0.052002,-0.015564,0.712097,0.699951
1470345943359158,0.052002,-0.0155029,0.712097,0.699951
1470345943377206,0.0519409,-0.0155029,0.712097,0.699951
1470345943399279,0.0519409,-0.0155029,0.712097,0.699951
1470345943419295,0.0521851,-0.0151367,0.712097,0.699951
1470345943436311,0.0521851,-0.0151367,0.712097,0.699951
1470345943459333,0.0521851,-0.0151367,0.712097,0.699951
1470345943478917,0.0521851,-0.0151367,0.712097,0.699951
1470345943497176,0.0521851,-0.0150757,0.712097,0.699951
1470345943519146,0.0521851,-0.0150757,0.712097,0.699951
1470345943539165,0.0521851,-0.0150757,0.712097,0.699951
1470345943564720,0.0521851,-0.0150146,0.712097,0.699951
1470345943579207,0.0522461,-0.0150146,0.712097,0.699951
1470345943598746,0.0522461,-0.0149536,0.712097,0.699951
1470345943616747,0.052124,-0.0150757,0.712097,0.699951
1470345943638766,0.052124,-0.0150757,0.712097,0.699951
1470345943658828,0.052124,-0.0150757,0.712097,0.699951
1470345943676817,0.052124,-0.0150757,0.712097,0.699951
1470345943699569,0.052124,-0.0150757,0.712097,0.699951
1470345943718584,0.052124,-0.0150146,0.712097,0.699951
1470345943736601,0.052124,-0.0150146,0.712097,0.699951
1470345943761622,0.052124,-0.0150146,0.712097,0.699951
1470345943782170,0.052124,-0.0149536,0.712097,0.699951
1470345943797189,0.0519409,-0.0149536,0.712097,0.69989
1470345943819205,0.0518799,-0.0149536,0.712097,0.69989
1470345943840281,0.0518799,-0.0149536,0.712097,0.69989
1470345943857307,0.0519409,-0.0148926,0.712097,0.699951
1470345943879895,0.0521851,-0.0144043,0.712036,0.699951
1470345943900157,0.0521851,-0.0143433,0.712036,0.699951
1470345943916173,0.0521851,-0.0143433,0.712036,0.699951
1470345943939193,0.0521851,-0.0143433,0.712036,0.699951
1470345943960218,0.0521851,-0.0142822,0.712036,0.699951
1470345943976734,0.0521851,-0.0143433,0.712036,0.699951
1470345943999261,0.0522461,-0.0142822,0.712036,0.699951
1470345944020288,0.0521851,-0.0142822,0.712036,0.699951
1470345944041324,0.0522461,-0.0142822,0.712036,0.699951
1470345944059376,0.0522461,-0.0142212,0.712036,0.699951
1470345944081418,0.0524292,-0.0140991,0.712097,0.699951
1470345944096432,0.0524292,-0.0140381,0.712097,0.699951
1470345944119507,0.0524292,-0.0140381,0.712097,0.699951
1470345944140470,0.0524292,-0.0140381,0.712097,0.699951
1470345944156486,0.0524292,-0.0139771,0.712097,0.699951
1470345944179579,0.0524292,-0.0139771,0.712036,0.699951
1470345944202154,0.0524902,-0.013916,0.712036,0.699951
1470345944221202,0.0524902,-0.013916,0.712036,0.699951
1470345944239157,0.0523071,-0.0140991,0.712097,0.69989
1470345944262178,0.0519409,-0.0142822,0.712158,0.699829
1470345944276780,0.0519409,-0.0142822,0.712158,0.69989
1470345944298855,0.0519409,-0.0142822,0.712158,0.69989
1470345944321877,0.052124,-0.0140991,0.712158,0.69989
1470345944341894,0.0521851,-0.0140381,0.712158,0.69989
1470345944358909,0.0521851,-0.0140381,0.712158,0.69989
1470345944380936,0.0521851,-0.0140381,0.712158,0.69989
1470345944401959,0.0521851,-0.0140381,0.712158,0.69989
1470345944417976,0.0521851,-0.0139771,0.712158,0.69989
1470345944440995,0.0521851,-0.0139771,0.712158,0.69989
1470345944462013,0.0521851,-0.013916,0.712158,0.69989
1470345944478532,0.0522461,-0.013916,0.712158,0.69989
1470345944500784,0.0522461,-0.013916,0.712158,0.69989
1470345944514822,0.0522461,-0.013916,0.712158,0.69989
1470345944538819,0.0522461,-0.013855,0.712158,0.69989
1470345944560838,0.0523071,-0.013855,0.712158,0.69989
1470345944582433,0.0523071,-0.013855,0.712158,0.69989
1470345944598433,0.0523071,-0.0137939,0.712158,0.69989
1470345944620537,0.0523071,-0.0137939,0.712158,0.69989
1470345944642473,0.0523682,-0.0137939,0.712158,0.69989
1470345944658508,0.0523071,-0.0137939,0.712158,0.69989
1470345944680589,0.0526123,-0.0134888,0.712036,0.699951
1470345944701881,0.0527954,-0.0131836,0.712036,0.700012
1470345944718870,0.0528564,-0.0131226,0.712036,0.700012
1470345944740890,0.0528564,-0.0131226,0.712036,0.700012
1470345944761960,0.0528564,-0.0131226,0.712036,0.700012
1470345944778967,0.0528564,-0.0130615,0.712036,0.700012
1470345944801031,0.0528564,-0.0130615,0.712036,0.700012
1470345944822015,0.0529175,-0.0130615,0.712036,0.700012
1470345944838026,0.0529175,-0.0130005,0.712036,0.700012
1470345944861047,0.0529175,-0.0130005,0.712036,0.700012
1470345944882125,0.0529785,-0.0129395,0.712036,0.700012
1470345944898187,0.0529175,-0.0130005,0.711975,0.700012
1470345944921202,0.0526733,-0.0131836,0.711975,0.700012
1470345944942223,0.0525513,-0.0133667,0.711975,0.700012
1470345944959184,0.0525513,-0.0133667,0.711975,0.700012
1470345944980827,0.0528564,-0.0130005,0.711914,0.700073
1470345945002034,0.0531616,-0.0126953,0.711914,0.700073
1470345945018046,0.0531616,-0.0126343,0.711914,0.700073
1470345945041066,0.0531006,-0.0127563,0.711853,0.700134
1470345945062135,0.0531006,-0.0127563,0.711853,0.700134
1470345945078737,0.0531006,-0.0126953,0.711853,0.700134
1470345945100943,0.0531006,-0.0127563,0.711731,0.700256
1470345945123964,0.0532227,-0.0129395,0.711487,0.7005
1470345945138978,0.0535278,-0.0133057,0.710876,0.701111
1470345945160998,0.0541382,-0.0134888,0.7099,0.702026
1470345945183642,0.0559692,-0.0130005,0.70813,0.703674
1470345945197650,0.0490112,-0.0254517,0.710083,0.701904
1470345945220672,0.0360718,-0.0435791,0.708313,0.703552
1470345945243692,0.0343018,-0.046875,0.707214,0.704529
1470345945257705,0.0309448,-0.0527954,0.70752,0.703979
1470345945281234,0.026062,-0.0600586,0.708679,0.702454
1470345945303619,0.0250854,-0.0619507,0.710022,0.700928
1470345945324651,0.0302124,-0.0574341,0.711365,0.699768
1470345945340652,0.0385742,-0.0371094,0.714294,0.697754
1470345945363673,0.0458374,-0.0231934,0.715393,0.696777
1470345945384708,0.0465698,-0.0189209,0.716309,0.695923
1470345945400724,0.0410767,-0.0195923,0.716309,0.696228
1470345945423745,0.03302,-0.020874,0.71405,0.698975
1470345945444764,0.0249634,-0.0197144,0.709167,0.704224
1470345945460776,0.0171509,-0.0167236,0.70166,0.712036
1470345945482856,0.00927734,-0.0137329,0.690552,0.723083
1470345945504879,0.000915527,-0.0114136,0.674805,0.737854
1470345945520897,-0.00933838,-0.0120239,0.654602,0.755798
1470345945543906,-0.0216064,-0.0150146,0.630249,0.775879
1470345945564924,-0.0353394,-0.0186157,0.60144,0.797852
1470345945580946,-0.0497437,-0.0213623,0.567566,0.821472
1470345945603049,-0.0643311,-0.022644,0.529724,0.845337
1470345945624986,-0.0778198,-0.0216675,0.492004,0.866821
1470345945641110,-0.0891724,-0.019104,0.45575,0.885376
1470345945663022,-0.0990601,-0.0167236,0.420532,0.901672
1470345945684151,-0.107788,-0.0133057,0.386169,0.915955
1470345945701125,-0.115479,-0.00854492,0.354248,0.927917
1470345945723216,-0.12146,-0.00341797,0.326172,0.937439
1470345945744206,-0.12793,6.10352e-05,0.301208,0.944885
1470345945761180,-0.135925,-0.000793457,0.279297,0.9505
1470345945783294,-0.144653,-0.00402832,0.260132,0.954651
1470345945804364,-0.155273,-0.00366211,0.244202,0.957153
1470345945820296,-0.161072,-0.0010376,0.231445,0.959412
1470345945843320,-0.16571,0.00201416,0.222168,0.960815
1470345945864333,-0.173462,0.00299072,0.216553,0.960693
1470345945880354,-0.182556,0.0022583,0.213196,0.959778
1470345945903007,-0.188232,0.000305176,0.210938,0.959167
1470345945926021,-0.188538,-0.00244141,0.209534,0.959412
1470345945940032,-0.183899,-0.00408936,0.208618,0.96051
1470345945963052,-0.177734,-0.00408936,0.207947,0.961792
1470345945985691,-0.171082,-0.000427246,0.208191,0.963013
1470345946000697,-0.163269,0.00653076,0.210083,0.963928
1470345946023718,-0.159607,0.0112915,0.212402,0.963928
1470345946045740,-0.161926,0.012146,0.214417,0.963135
1470345946067347,-0.166077,0.0113525,0.214844,0.962341
1470345946083485,-0.16748,0.0111084,0.213623,0.962341
1470345946105506,-0.16571,0.0117798,0.210754,0.963318
1470345946126549,-0.16449,0.0117798,0.208008,0.964111
1470345946143540,-0.165649,0.0111084,0.20636,0.964233
1470345946165558,-0.168518,0.0106201,0.205261,0.963989
1470345946186768,-0.170776,0.0110474,0.203918,0.963867
1470345946203772,-0.171265,0.0125732,0.202576,0.96405
1470345946226823,-0.170471,0.0151367,0.201416,0.964417
1470345946239839,-0.169312,0.0178223,0.200012,0.964844
1470345946263825,-0.168457,0.0202637,0.198608,0.965271
1470345946286429,-0.168579,0.0221558,0.197388,0.965454
1470345946300452,-0.16925,0.0234985,0.196289,0.965515
1470345946323466,-0.169495,0.0246582,0.19519,0.965637
1470345946346483,-0.169495,0.0257568,0.19397,0.965881
1470345946360495,-0.16925,0.0267944,0.19281,0.966125
1470345946383073,-0.169434,0.0275879,0.191895,0.966248
1470345946413418,-0.169983,0.0278931,0.191223,0.966309
1470345946420424,-0.170532,0.0280762,0.190796,0.966248
1470345946443444,-0.170593,0.0284424,0.190491,0.966309
1470345946465482,-0.170593,0.0288086,0.190247,0.966309
1470345946480490,-0.170532,0.0291138,0.190125,0.96637
1470345946503532,-0.170837,0.0294189,0.190063,0.966309
1470345946525551,-0.171204,0.0298462,0.190063,0.966248
1470345946540564,-0.171387,0.0301514,0.190002,0.966187
1470345946563585,-0.171631,0.0305176,0.190002,0.966125
1470345946585634,-0.172119,0.0309448,0.189941,0.966064
1470345946606683,-0.172485,0.031311,0.189819,0.966003
1470345946623665,-0.172607,0.0316772,0.189758,0.966003
1470345946645683,-0.172668,0.0321045,0.189697,0.965942
1470345946666753,-0.173035,0.0326538,0.189697,0.965881
1470345946683316,-0.173523,0.0331421,0.189697,0.965759
1470345946705706,-0.173889,0.0336304,0.189636,0.965698
1470345946726722,-0.174438,0.0339966,0.189758,0.965576
1470345946743738,-0.17511,0.0342407,0.18988,0.965454
1470345946765767,-0.17572,0.0345459,0.18988,0.965332
1470345946786814,-0.176208,0.03479,0.189758,0.96521
1470345946803806,-0.177063,0.03479,0.189636,0.965088
1470345946839885,-0.177979,0.034729,0.189514,0.964966
1470345946846844,-0.178467,0.0348511,0.189514,0.964844
1470345946863862,-0.178467,0.0352173,0.189453,0.964844
1470345946885982,-0.178284,0.0357056,0.189331,0.964905
1470345946907032,-0.178284,0.0360718,0.189026,0.964966
1470345946923005,-0.178772,0.0362549,0.188599,0.964905
1470345946946026,-0.17926,0.036377,0.188293,0.964905
1470345946967043,-0.179504,0.036499,0.188049,0.964905
1470345946983567,-0.179504,0.0366211,0.187866,0.964905
1470345947006125,-0.179382,0.0366821,0.187622,0.964966
1470345947028112,-0.179626,0.0366211,0.1875,0.964966
1470345947043125,-0.179932,0.036438,0.187317,0.964966
1470345947066146,-0.180115,0.0363159,0.187195,0.964966
1470345947088235,-0.180176,0.0363159,0.187195,0.964966
1470345947103234,-0.180176,0.036377,0.187195,0.964966
1470345947126258,-0.180115,0.036377,0.187195,0.964966
1470345947148318,-0.180115,0.036377,0.187195,0.964966
1470345947169892,-0.180176,0.036377,0.187195,0.964966
1470345947186412,-0.179993,0.036377,0.187378,0.964905
1470345947208432,-0.179382,0.036499,0.1875,0.965027
1470345947222443,-0.178955,0.036438,0.187561,0.965088
1470345947246465,-0.179077,0.0362549,0.187744,0.965027
1470345947268524,-0.179443,0.0360107,0.187927,0.964966
1470345947283041,-0.179443,0.0360107,0.187927,0.964966
1470345947306430,-0.179443,0.0360718,0.187927,0.964966
1470345947335547,-0.17926,0.0361328,0.187866,0.964966
1470345947342475,-0.17926,0.0361328,0.187866,0.964966
1470345947365508,-0.179565,0.0361938,0.187927,0.964905
1470345947388173,-0.17981,0.0362549,0.188049,0.964844
1470345947403188,-0.179871,0.0363159,0.188049,0.964844
1470345947426210,-0.180054,0.0365601,0.188049,0.964783
1470345947448228,-0.180054,0.0365601,0.188049,0.964783
1470345947469769,-0.179993,0.0365601,0.188049,0.964783
1470345947486370,-0.180237,0.0365601,0.188049,0.964722
1470345947508392,-0.18042,0.0366211,0.188049,0.964722
1470345947529433,-0.18042,0.0366211,0.188049,0.964722
1470345947545471,-0.180481,0.0366821,0.188049,0.964722
1470345947568443,-0.18042,0.0366821,0.188049,0.964722
1470345947589508,-0.180481,0.0366821,0.188049,0.964722
1470345947605522,-0.180481,0.0366821,0.188049,0.964722
1470345947628544,-0.180481,0.0367432,0.18811,0.964722
1470345947649577,-0.180481,0.0367432,0.18811,0.964722
1470345947672119,-0.180542,0.0369263,0.187927,0.964722
1470345947688148,-0.180725,0.0371094,0.187866,0.964661
1470345947710222,-0.180664,0.0371094,0.187866,0.964661
1470345947726183,-0.180664,0.0371094,0.187866,0.964722
1470345947748202,-0.180664,0.0371704,0.187866,0.964722
1470345947777278,-0.180603,0.0371704,0.187866,0.964722
1470345947786280,-0.180603,0.0371704,0.187866,0.964722
1470345947808342,-0.180603,0.0371704,0.187866,0.964722
1470345947829385,-0.180664,0.0372314,0.187866,0.964661
1470345947846334,-0.180664,0.0372314,0.187866,0.964661
1470345947868388,-0.180664,0.0372314,0.187866,0.964661
1470345947889403,-0.180664,0.0372314,0.187866,0.964661
1470345947906401,-0.180847,0.0372925,0.187988,0.964661
1470345947928419,-0.180847,0.0372925,0.187988,0.964661
1470345947949496,-0.180786,0.0373535,0.187988,0.964661
1470345947965498,-0.180786,0.0373535,0.187988,0.964661
1470345947989031,-0.180786,0.0373535,0.187988,0.9646
1470345948011049,-0.180786,0.0373535,0.187988,0.964661
1470345948026062,-0.180786,0.0373535,0.187988,0.964661
1470345948048164,-0.180725,0.0373535,0.187988,0.964661
1470345948071111,-0.180908,0.0375366,0.188049,0.9646
1470345948086246,-0.181091,0.0376587,0.18811,0.964539
1470345948108267,-0.181091,0.0376587,0.18811,0.964539
1470345948131286,-0.181091,0.0376587,0.18811,0.964539
1470345948145300,-0.18103,0.0376587,0.18811,0.964539
1470345948168384,-0.181274,0.0377197,0.18811,0.964539
1470345948191381,-0.181458,0.0377808,0.18811,0.964478
1470345948205393,-0.181458,0.0378418,0.18811,0.964478
1470345948228414,-0.181458,0.0378418,0.18811,0.964478
1470345948250525,-0.181458,0.0379028,0.188171,0.964478
1470345948265450,-0.181641,0.038147,0.18811,0.964417
1470345948288017,-0.181763,0.0383911,0.188049,0.964417
1470345948311039,-0.181885,0.0385742,0.187927,0.964417
1470345948325051,-0.182007,0.0386963,0.187866,0.964355
1470345948348071,-0.18219,0.0387573,0.187744,0.964355
1470345948371143,-0.182312,0.0387573,0.187683,0.964355
1470345948385654,-0.182556,0.0387573,0.187683,0.964294
1470345948408065,-0.182495,0.0387573,0.187683,0.964294
1470345948431086,-0.182556,0.0387573,0.187683,0.964294
1470345948452148,-0.182556,0.0388184,0.187683,0.964294
1470345948468212,-0.182617,0.0390625,0.187683,0.964294
1470345948491182,-0.182739,0.0393677,0.187683,0.964233
1470345948512218,-0.182983,0.0396729,0.187622,0.964172
1470345948528215,-0.183167,0.039917,0.187622,0.964172
1470345948551237,-0.183228,0.0400391,0.187683,0.964111
1470345948572317,-0.18335,0.0400391,0.187805,0.96405
1470345948588403,-0.183411,0.039978,0.187805,0.96405
1470345948611381,-0.183411,0.039978,0.187805,0.96405
1470345948633444,-0.183411,0.039978,0.187805,0.96405
1470345948648417,-0.183411,0.039978,0.187805,0.96405
1470345948671012,-0.183411,0.039978,0.187866,0.96405
1470345948692561,-0.183411,0.039978,0.187866,0.96405
1470345948708576,-0.183411,0.0400391,0.187866,0.96405
1470345948730595,-0.183594,0.0402222,0.187805,0.96405
1470345948751686,-0.183594,0.0402222,0.187805,0.96405
1470345948768630,-0.183594,0.0404663,0.187622,0.96405
1470345948790417,-0.183472,0.0406494,0.187439,0.964111
1470345948812436,-0.183411,0.0406494,0.187439,0.964111
1470345948835459,-0.183472,0.0407104,0.1875,0.964111
1470345948850489,-0.183716,0.0406494,0.187622,0.963989
1470345948872100,-0.183716,0.0407104,0.187622,0.963989
1470345948888662,-0.183716,0.0406494,0.187622,0.963989
1470345948910657,-0.183716,0.0407104,0.187622,0.963989
1470345948933678,-0.183716,0.0407104,0.187622,0.963989
1470345948948691,-0.183899,0.0406494,0.187683,0.963989
1470345948971215,-0.184021,0.0407104,0.187683,0.963928
1470345948993538,-0.18457,0.0405884,0.187683,0.963867
1470345949008550,-0.185059,0.0404663,0.187683,0.963745
1470345949030636,-0.185303,0.0406494,0.187622,0.963684
1470345949053591,-0.185608,0.0408325,0.187378,0.963684
1470345949067603,-0.185791,0.0411377,0.187134,0.963684
1470345949090561,-0.185974,0.0413208,0.186951,0.963684
1470345949113539,-0.185974,0.0415039,0.186829,0.963684
1470345949127546,-0.186157,0.041626,0.186768,0.963684
1470345949150565,-0.186157,0.041687,0.186768,0.963684
1470345949173685,-0.186218,0.041626,0.186829,0.963623
1470345949187748,-0.186646,0.041626,0.187012,0.963501
1470345949210768,-0.186646,0.041626,0.187012,0.963501
1470345949233790,-0.186523,0.041748,0.186829,0.963623
1470345949247805,-0.186646,0.0418701,0.186584,0.963623
1470345949271361,-0.187012,0.0419312,0.18634,0.963562
1470345949293538,-0.1875,0.0419922,0.186218,0.963501
1470345949307550,-0.187927,0.0419922,0.186218,0.96344
1470345949330618,-0.188232,0.0419312,0.186279,0.963379
1470345949353591,-0.188232,0.0419312,0.186279,0.963379
1470345949367633,-0.188171,0.0419922,0.186218,0.963379
1470345949391141,-0.188171,0.0421143,0.186096,0.963379
1470345949413162,-0.188538,0.0422974,0.185974,0.963318
1470345949434180,-0.188965,0.0424194,0.18573,0.963257
1470345949451195,-0.18927,0.0426636,0.185547,0.963257
1470345949473842,-0.189514,0.0428467,0.185364,0.963257
1470345949502310,-0.18988,0.0428467,0.185364,0.963196
1470345949511239,-0.190186,0.0427856,0.185364,0.963074
1470345949533258,-0.190186,0.0427856,0.185364,0.963074
1470345949554332,-0.190186,0.0427856,0.185364,0.963135
1470345949571292,-0.190125,0.0429688,0.185242,0.963135
1470345949593379,-0.190247,0.0429688,0.18512,0.963135
1470345949614356,-0.190491,0.0430298,0.184998,0.963135
1470345949631372,-0.190674,0.0430908,0.184937,0.963074
1470345949636431,-0.190674,0.0430908,0.184937,0.963074
1470345949659397,-0.190674,0.0430298,0.184937,0.963074
1470345949681522,-0.190674,0.0430298,0.184937,0.963074
1470345949696539,-0.190674,0.0430298,0.184937,0.963074
1470345949718612,-0.190613,0.0430908,0.184998,0.963074
1470345949741578,-0.190552,0.0430908,0.184998,0.963074
1470345949756590,-0.190552,0.0430908,0.184998,0.963074
1470345949779163,-0.190491,0.0431519,0.184998,0.963074
1470345949801742,-0.190796,0.0430298,0.185242,0.963013
1470345949816757,-0.190796,0.0430298,0.185547,0.962952
1470345949838775,-0.19043,0.0429688,0.185791,0.962952
1470345949861795,-0.189941,0.0430908,0.186035,0.963013
1470345949876816,-0.189575,0.0431519,0.186157,0.963074
1470345949898765,-0.18927,0.0431519,0.186279,0.963074
1470345949921748,-0.188965,0.0429688,0.186462,0.963135
1470345949936757,-0.188721,0.0426636,0.18689,0.963135
1470345949958832,-0.188354,0.0421753,0.187439,0.963074
1470345949981860,-0.187683,0.0418091,0.188171,0.963074
1470345949996484,-0.186951,0.0415039,0.188904,0.963135
1470345950018501,-0.18634,0.0410156,0.189514,0.963135
1470345950041543,-0.185425,0.0406494,0.190186,0.963196
1470345950056501,-0.184204,0.0404663,0.19104,0.963257
1470345950079030,-0.183228,0.0402832,0.191956,0.963257
1470345950101127,-0.182495,0.0397339,0.19281,0.963257
1470345950116172,-0.181885,0.0389404,0.193848,0.963196
1470345950139166,-0.18103,0.038208,0.194824,0.963196
1470345950161142,-0.18042,0.0374146,0.195557,0.963196
1470345950176749,-0.179993,0.0365601,0.196167,0.963196
1470345950199348,-0.179504,0.0361328,0.196472,0.963196
1470345950224349,-0.179138,0.0359497,0.196777,0.963257
1470345950236362,-0.178894,0.0358276,0.197021,0.963257
1470345950258459,-0.178345,0.0357666,0.197327,0.963257
1470345950281450,-0.177734,0.0357666,0.197815,0.963318
1470345950296428,-0.177063,0.0355835,0.198425,0.963318
1470345950318472,-0.176331,0.0352783,0.199036,0.963318
1470345950341517,-0.175293,0.0349731,0.199768,0.963379
1470345950356531,-0.17395,0.0344238,0.200745,0.96344
1470345950379046,-0.172668,0.0338135,0.201843,0.96344
1470345950401562,-0.170593,0.0330811,0.203247,0.963562
1470345950416575,-0.167664,0.0321655,0.205078,0.963684
1470345950438594,-0.164856,0.031189,0.206787,0.963867
1470345950461628,-0.162048,0.0300903,0.208313,0.96405
1470345950478152,-0.158875,0.0290527,0.210144,0.964233
1470345950498525,-0.15625,0.027771,0.212158,0.964233
1470345950521614,-0.154175,0.0261841,0.214172,0.964172
1470345950537559,-0.151855,0.0245361,0.216431,0.96405
1470345950558640,-0.149536,0.0230713,0.218811,0.963928
1470345950581674,-0.146912,0.0218506,0.220764,0.963928
1470345950597492,-0.144104,0.020874,0.222229,0.96405
1470345950618532,-0.141785,0.0198975,0.223572,0.96405
1470345950641581,-0.140198,0.0189819,0.224976,0.963989
1470345950657579,-0.13916,0.0181885,0.226074,0.963928
1470345950679114,-0.138489,0.017334,0.22699,0.963806
1470345950701607,-0.137817,0.0166016,0.228271,0.963623
1470345950719623,-0.136719,0.0162354,0.229614,0.96344
1470345950738642,-0.135193,0.0162354,0.230591,0.96344
1470345950761696,-0.133362,0.0164795,0.231384,0.963501
1470345950779749,-0.131958,0.0167236,0.232056,0.963501
1470345950798835,-0.131165,0.0169067,0.232605,0.963501
1470345950821858,-0.130737,0.0169067,0.23291,0.963501
1470345950839901,-0.130737,0.0169678,0.23291,0.963501
1470345950858890,-0.131287,0.0170288,0.23291,0.963379
1470345950881546,-0.132141,0.0170898,0.232788,0.963318
1470345950899063,-0.132935,0.017395,0.232483,0.963257
1470345950919082,-0.133606,0.0177612,0.232056,0.963257
1470345950941102,-0.134094,0.0183105,0.231506,0.963318
1470345950959118,-0.134766,0.0188599,0.230774,0.96344
1470345950979186,-0.135925,0.0193481,0.229858,0.96344
1470345951001989,-0.137695,0.0197754,0.229065,0.963379
1470345951019004,-0.139526,0.0203247,0.228455,0.963257
1470345951039078,-0.14093,0.020813,0.227844,0.963196
1470345951061047,-0.141602,0.0214844,0.227356,0.963196
1470345951079598,-0.141541,0.0223389,0.227051,0.963257
1470345951115214,-0.141174,0.0230713,0.226746,0.963379
1470345951121201,-0.141174,0.0235596,0.226563,0.963379
1470345951139181,-0.141235,0.0238037,0.22644,0.96344
1470345951159222,-0.141541,0.0236206,0.226379,0.963379
1470345951181823,-0.142151,0.0234375,0.226379,0.963318
1470345951199311,-0.142151,0.0231323,0.226563,0.963257
1470345951220331,-0.142395,0.0229492,0.226746,0.963196
1470345951241353,-0.142212,0.0230103,0.226868,0.963196
1470345951259366,-0.14209,0.0230713,0.226807,0.963196
1470345951281947,-0.141663,0.0233154,0.226563,0.963318
1470345951301511,-0.141602,0.0232544,0.226563,0.963318
1470345951319527,-0.142029,0.0231934,0.226563,0.963257
1470345951338599,-0.142761,0.0230713,0.226807,0.963135
1470345951361569,-0.142944,0.0232544,0.227051,0.963013
1470345951379631,-0.142822,0.0234375,0.227417,0.962952
1470345951398659,-0.14209,0.0237427,0.227844,0.962952
1470345951421677,-0.141602,0.0236816,0.228333,0.962891
1470345951439697,-0.141052,0.0233765,0.229004,0.96283
1470345951460712,-0.140442,0.0230103,0.229675,0.962769
1470345951481771,-0.139526,0.0228271,0.230469,0.962708
1470345951499909,-0.138794,0.0224609,0.231201,0.962646
1470345951519854,-0.138245,0.0220337,0.231934,0.962585
1470345951541926,-0.137939,0.0217285,0.232361,0.962524
1470345951559853,-0.137512,0.0216064,0.232666,0.962524
1470345951580378,-0.137329,0.0216064,0.232849,0.962463
1470345951608520,-0.137085,0.0216675,0.233032,0.962463
1470345951619569,-0.137085,0.0216675,0.233032,0.962463
1470345951640532,-0.137085,0.0216675,0.233032,0.962463
1470345951661640,-0.137207,0.0217896,0.233032,0.962463
1470345951679575,-0.137634,0.0219116,0.233032,0.962402
1470345951700120,-0.137939,0.0220947,0.23291,0.962341
1470345951721172,-0.138062,0.0222778,0.232788,0.962402
1470345951739155,-0.138,0.022522,0.232605,0.962402
1470345951762176,-0.137939,0.022583,0.232361,0.962524
1470345951781702,-0.137939,0.022644,0.232117,0.962524
1470345951799223,-0.138306,0.022522,0.231934,0.962524
1470345951822244,-0.138977,0.0223999,0.23175,0.962524
1470345951841319,-0.139771,0.0222778,0.231689,0.962402
1470345951859277,-0.140137,0.0222778,0.231628,0.962341
1470345951881859,-0.140076,0.022522,0.231567,0.962402
1470345951901436,-0.140015,0.0229492,0.231323,0.962463
1470345951919447,-0.14032,0.0233154,0.230896,0.962463
1470345951941466,-0.141174,0.0234985,0.230347,0.962524
1470345951961492,-0.14209,0.0234985,0.229797,0.962524
1470345951979546,-0.143066,0.0236206,0.229248,0.962463
1470345952001572,-0.143799,0.0238647,0.228882,0.962463
1470345952021644,-0.144409,0.0241089,0.228699,0.962402
1470345952039606,-0.144531,0.0244141,0.228516,0.962402
1470345952061626,-0.144409,0.0247803,0.22821,0.962463
1470345952081712,-0.144531,0.0248413,0.228027,0.962524
1470345952099758,-0.144836,0.0248413,0.227783,0.962524
1470345952121709,-0.145081,0.0248413,0.227539,0.962524
1470345952141741,-0.145569,0.0248413,0.227417,0.962524
1470345952166746,-0.146118,0.0247192,0.227234,0.962463
1470345952181265,-0.146606,0.0245972,0.227173,0.962402
1470345952201867,-0.146912,0.0245972,0.227112,0.962402
1470345952218842,-0.146973,0.0245972,0.227112,0.962402
1470345952240865,-0.14679,0.0247803,0.226868,0.962463
1470345952261883,-0.146973,0.0247803,0.226746,0.962463
1470345952278964,-0.147461,0.0246582,0.226685,0.962402
1470345952300989,-0.147949,0.0245361,0.226685,0.962341
1470345952322063,-0.148315,0.0244751,0.226685,0.96228
1470345952339024,-0.148315,0.0244751,0.226685,0.96228
1470345952361067,-0.147949,0.0245361,0.226746,0.96228
1470345952382610,-0.147949,0.0245361,0.226746,0.96228
1470345952398102,-0.147888,0.0245361,0.226746,0.96228
1470345952421125,-0.147888,0.0245361,0.226746,0.96228
1470345952442175,-0.147888,0.0245972,0.226746,0.962341
1470345952458157,-0.148132,0.024292,0.226807,0.96228
1470345952481189,-0.148254,0.0240479,0.226929,0.962219
1470345952502244,-0.148254,0.0240479,0.226929,0.962219
1470345952518266,-0.148254,0.0240479,0.226929,0.962219
1470345952541261,-0.148193,0.0240479,0.226929,0.962219
1470345952562281,-0.148193,0.0240479,0.226929,0.962219
1470345952578858,-0.148132,0.0240479,0.226929,0.962219
1470345952601420,-0.148132,0.0241089,0.226929,0.962219
1470345952622439,-0.148254,0.0241089,0.227051,0.962219
1470345952638494,-0.148254,0.0241089,0.227051,0.962219
1470345952661475,-0.148254,0.0241089,0.227051,0.962219
1470345952684001,-0.148254,0.0241089,0.227051,0.962219
1470345952699115,-0.148193,0.0241089,0.227051,0.962219
1470345952721138,-0.148132,0.0241089,0.227051,0.962219
1470345952743153,-0.148132,0.0241089,0.227051,0.962219
1470345952765188,-0.148071,0.0241089,0.227051,0.962219
1470345952781714,-0.148071,0.0241089,0.227051,0.962219
1470345952803519,-0.148071,0.0241089,0.227051,0.962219
1470345952818533,-0.148071,0.0241089,0.227051,0.962219
1470345952840586,-0.14801,0.0241089,0.227051,0.962219
1470345952863615,-0.14801,0.0241089,0.227051,0.962219
1470345952878141,-0.147949,0.0241089,0.227051,0.962219
1470345952900667,-0.147949,0.0241089,0.227051,0.962219
1470345952923689,-0.147888,0.0241089,0.227051,0.962219
1470345952937701,-0.147888,0.0241699,0.227051,0.96228
1470345952960738,-0.147827,0.0241699,0.227051,0.96228
1470345952983747,-0.147827,0.0241699,0.227051,0.96228
1470345952997766,-0.147705,0.0240479,0.227234,0.962219
1470345953020834,-0.147461,0.0238037,0.227478,0.962219
1470345953043807,-0.147339,0.0233154,0.227844,0.962158
1470345953057820,-0.148071,0.0216064,0.22821,0.962036
1470345953081410,-0.150269,0.0183716,0.229004,0.961548
1470345953103966,-0.153931,0.0134277,0.230408,0.960693
1470345953124984,-0.158325,0.00683594,0.232483,0.959595
1470345953140999,-0.161743,0.00012207,0.235474,0.958313
1470345953163073,-0.162292,-0.00457764,0.239807,0.957092
1470345953185137,-0.160461,-0.00805664,0.24646,0.955688
1470345953201159,-0.158936,-0.010376,0.255432,0.953552
1470345953223179,-0.157471,-0.0118408,0.266052,0.950928
1470345953244201,-0.155945,-0.0131226,0.278137,0.947693
1470345953261213,-0.153381,-0.0142822,0.291504,0.944031
1470345953283750,-0.149109,-0.0151978,0.306091,0.940063
1470345953304370,-0.143799,-0.0159912,0.321716,0.935669
1470345953321343,-0.138306,-0.017395,0.337585,0.930908
1470345953343361,-0.132385,-0.0186157,0.35376,0.925659
1470345953364435,-0.12616,-0.0200195,0.370544,0.919983
1470345953381401,-0.118652,-0.0210571,0.386902,0.914185
1470345953403424,-0.110291,-0.0220947,0.402893,0.908264
1470345953424498,-0.10144,-0.0231323,0.418518,0.902222
1470345953441460,-0.0921631,-0.0239868,0.433533,0.896057
1470345953463528,-0.083374,-0.0249023,0.447632,0.889954
1470345953485015,-0.0758667,-0.0261841,0.460754,0.88385
1470345953501206,-0.069397,-0.027832,0.472717,0.877991
1470345953523241,-0.0631104,-0.0297241,0.483765,0.872375
1470345953552253,-0.0567627,-0.0311279,0.494202,0.866882
1470345953560260,-0.0501099,-0.0321655,0.504028,0.861572
1470345953583871,-0.0437012,-0.0328979,0.513123,0.856506
1470345953604429,-0.038269,-0.0337524,0.521667,0.851563
1470345953620479,-0.0336914,-0.0344849,0.530029,0.846558
1470345953643505,-0.0289307,-0.034668,0.538269,0.841553
1470345953666468,-0.0241699,-0.0345459,0.546143,0.836609
1470345953680543,-0.0196533,-0.0346069,0.553345,0.83197
1470345953703616,-0.0137939,-0.0340576,0.558289,0.828796
1470345953725635,-0.0078125,-0.0335693,0.56604,0.823608
1470345953740649,-0.00482178,-0.0361328,0.572266,0.819214
1470345953763670,-0.00372314,-0.0410156,0.579468,0.813904
1470345953786210,-0.0012207,-0.045166,0.585266,0.809509
1470345953800727,0.00463867,-0.0454102,0.590515,0.805725
1470345953823747,0.0100708,-0.046936,0.595154,0.802124
1470345953845768,0.0147705,-0.0484619,0.598694,0.799316
1470345953860785,0.0200195,-0.0496826,0.601257,0.79718
1470345953883830,0.0273438,-0.0475464,0.6026,0.796082
1470345953905896,0.0333252,-0.0473633,0.604248,0.794617
1470345953926918,0.0374146,-0.0493164,0.604797,0.793884
1470345953942976,0.0407715,-0.0528564,0.605713,0.792847
1470345953965952,0.0442505,-0.0563354,0.606323,0.791931
1470345953987477,0.0484009,-0.0587769,0.60675,0.791199
1470345954003999,0.0525513,-0.0611572,0.6073,0.790344
1470345954026037,0.0548706,-0.0634766,0.60791,0.78949
1470345954047039,0.0559692,-0.064209,0.608093,0.789185
1470345954063136,0.0557251,-0.0632324,0.608337,0.789124
1470345954086129,0.0552368,-0.0612183,0.608765,0.789001
1470345954100159,0.0552979,-0.0601196,0.609192,0.788757
1470345954123176,0.0567627,-0.0592651,0.609619,0.788391
1470345954146198,0.0592651,-0.0578613,0.610291,0.787781
1470345954167258,0.0619507,-0.0556641,0.611328,0.786926
1470345954183737,0.0633545,-0.0535278,0.612305,0.786194
1470345954205864,0.0632935,-0.0524292,0.613342,0.785522
1470345954226905,0.0634766,-0.0516357,0.614258,0.78479
1470345954243867,0.0647583,-0.0497437,0.615234,0.784058
1470345954265897,0.0658569,-0.0477905,0.616028,0.783447
1470345954287501,0.0667114,-0.0458374,0.616394,0.783203
1470345954303148,0.0682983,-0.0429688,0.616516,0.783142
1470345954326131,0.0699463,-0.0400391,0.616821,0.782898
1470345954347201,0.0707397,-0.0379639,0.616882,0.782898
1470345954363255,0.0714722,-0.0357666,0.61676,0.78302
1470345954386234,0.0726929,-0.0332031,0.61676,0.78302
1470345954406756,0.0742798,-0.0303955,0.61676,0.782959
1470345954423770,0.0753784,-0.0280151,0.616699,0.78302
1470345954445789,0.0761719,-0.026001,0.616577,0.783142
1470345954466824,0.0772095,-0.0240479,0.616516,0.783081
1470345954483828,0.0784302,-0.0219727,0.616577,0.78302
1470345954513878,0.0793457,-0.0203857,0.616638,0.782959
1470345954526904,0.079895,-0.0194092,0.616577,0.782959
1470345954543901,0.0801392,-0.0189209,0.616516,0.782959
1470345954573929,0.0805664,-0.0183105,0.616455,0.78302
1470345954588960,0.0809937,-0.0177612,0.616394,0.78302
1470345954604001,0.0812378,-0.0172729,0.616333,0.78302
1470345954626021,0.0813599,-0.0170288,0.616333,0.78302
1470345954648045,0.0814209,-0.0169067,0.616272,0.783081
1470345954664058,0.081665,-0.0165405,0.616272,0.783081
1470345954686114,0.081665,-0.0165405,0.616272,0.783081
1470345954708139,0.0817261,-0.0162964,0.61615,0.783142
1470345954723238,0.0819092,-0.0160522,0.615967,0.783264
1470345954746173,0.0822754,-0.015564,0.615723,0.783447
1470345954768243,0.0827026,-0.0148926,0.61554,0.783569
1470345954783228,0.0831299,-0.0139771,0.615417,0.78363
1470345954806221,0.083313,-0.0134277,0.615295,0.783752
1470345954829244,0.083374,-0.0130005,0.615173,0.783813
1470345954843255,0.0838013,-0.0124512,0.615173,0.783752
1470345954866275,0.0841675,-0.0120239,0.615173,0.783752
1470345954888818,0.0841675,-0.0119629,0.615173,0.783752
1470345954903200,0.0840454,-0.012207,0.615356,0.78363
1470345954926248,0.0838013,-0.0126343,0.61554,0.783447
1470345954948243,0.0838623,-0.0127563,0.615784,0.783264
1470345954963254,0.0837402,-0.0130615,0.616028,0.783081
1470345954986326,0.083374,-0.0136719,0.616211,0.782959
1470345955008234,0.0831299,-0.0142212,0.616455,0.782837
1470345955023249,0.0828247,-0.0148926,0.616638,0.782715
1470345955046270,0.0827026,-0.0152588,0.61676,0.782593
1470345955068290,0.0828857,-0.0153198,0.616882,0.782471
1470345955083309,0.0830688,-0.0153809,0.616943,0.78241
1470345955106278,0.0828857,-0.015625,0.617065,0.782349
1470345955128297,0.0828247,-0.0158081,0.617065,0.782288
1470345955149359,0.0828247,-0.0158081,0.617065,0.782288
1470345955166353,0.0825806,-0.0158691,0.617065,0.782349
1470345955188917,0.0825806,-0.0158691,0.617065,0.782349
1470345955209297,0.0825806,-0.0158691,0.617065,0.782349
1470345955226257,0.0826416,-0.0159302,0.617065,0.782349
1470345955248277,0.0814209,-0.0171509,0.617432,0.782166
1470345955269360,0.0803223,-0.0186157,0.617737,0.781982
1470345955286376,0.0809326,-0.0183716,0.617432,0.782227
1470345955308248,0.0807495,-0.0180054,0.617615,0.782043
1470345955329246,0.0802002,-0.0189819,0.617615,0.782104
1470345955346227,0.0795288,-0.0198975,0.617615,0.782166
1470345955368250,0.079895,-0.0195313,0.617737,0.781982
1470345955389824,0.0802612,-0.0186768,0.617859,0.781921
1470345955406239,0.0802612,-0.0186768,0.617859,0.781921
1470345955428258,0.0802002,-0.0187988,0.617737,0.781982
1470345955449280,0.0799561,-0.0189209,0.617676,0.782043
1470345955466295,0.0796509,-0.0183716,0.61792,0.781921
1470345955488822,0.0799561,-0.0180054,0.617676,0.782043
1470345955509312,0.0809326,-0.0167847,0.617188,0.78241
1470345955526262,0.0812988,-0.0158691,0.617065,0.782471
1470345955548281,0.0811157,-0.0155029,0.616821,0.782715
1470345955571302,0.0814819,-0.0146484,0.616638,0.782837
1470345955585854,0.0825195,-0.0131836,0.616455,0.782898
1470345955608251,0.0828857,-0.012146,0.616394,0.782898
1470345955631270,0.0823975,-0.0119629,0.616272,0.78302
1470345955646284,0.0822144,-0.0119629,0.615967,0.783325
1470345955668303,0.0828857,-0.0110474,0.615662,0.783508
1470345955691390,0.0834351,-0.00994873,0.61554,0.783569
1470345955705410,0.0835571,-0.00946045,0.615173,0.783813
1470345955728431,0.0838623,-0.00842285,0.614746,0.78418
1470345955751450,0.0841675,-0.00714111,0.61438,0.784424
1470345955765495,0.0845337,-0.00579834,0.613953,0.784729
1470345955788989,0.0854492,-0.00415039,0.613403,0.785095
1470345955811516,0.086731,-0.00201416,0.612854,0.7854
1470345955825530,0.0877686,-6.10352e-05,0.612549,0.785461
1470345955848550,0.0880737,0.000915527,0.612366,0.785583
1470345955870605,0.0881348,0.00115967,0.612,0.785828
1470345955885663,0.088562,0.00170898,0.611755,0.786011
1470345955908740,0.0891724,0.00256348,0.611633,0.786072
1470345955930708,0.0894775,0.00286865,0.611511,0.786133
1470345955945723,0.0892944,0.00292969,0.611511,0.786133
1470345955968744,0.0889282,0.00280762,0.61145,0.786194
1470345955991271,0.0891113,0.00335693,0.611328,0.786255
1470345956005566,0.0895996,0.00408936,0.611145,0.786377
1470345956028587,0.0899658,0.00476074,0.610779,0.786621
1470345956050605,0.090271,0.00524902,0.610352,0.786865
1470345956072646,0.0906982,0.00592041,0.610107,0.787048
1470345956088731,0.0913696,0.00689697,0.609863,0.787109
1470345956110909,0.0914917,0.00787354,0.609985,0.787048
1470345956131930,0.0907593,0.00799561,0.610352,0.786804
1470345956148943,0.0911255,0.00836182,0.610046,0.787048
1470345956170967,0.0925903,0.00982666,0.609558,0.78717
1470345956192492,0.0935059,0.0108032,0.609314,0.787231
1470345956208548,0.0933228,0.010437,0.609253,0.787354
1470345956230599,0.0929565,0.0101929,0.609436,0.787231
1470345956252658,0.0932007,0.0109253,0.609802,0.786926
1470345956268635,0.09375,0.012207,0.609863,0.786804
1470345956291181,0.0944824,0.0133667,0.609619,0.786865
1470345956312631,0.0951538,0.0141602,0.609314,0.786987
1470345956328692,0.0948486,0.0139771,0.609375,0.786987
1470345956350686,0.0942383,0.0128784,0.609558,0.786926
1470345956372720,0.0942383,0.0128174,0.609558,0.786926
1470345956388754,0.0949097,0.0137329,0.609741,0.786682
1470345956411435,0.0948486,0.013855,0.609741,0.786682
1470345956432453,0.0942993,0.0133667,0.609619,0.786865
1470345956448472,0.0939331,0.0127563,0.609497,0.787048
1470345956471489,0.0941772,0.0128784,0.609375,0.787109
1470345956492590,0.0949097,0.0135498,0.609131,0.78717
1470345956508166,0.0956421,0.0142212,0.608887,0.787292
1470345956531132,0.0956421,0.0142822,0.608887,0.787292
1470345956553206,0.0952148,0.013916,0.609131,0.78717
1470345956569128,0.0951538,0.0139771,0.609131,0.78717
1470345956591228,0.0956421,0.0145264,0.608948,0.787231
1470345956613215,0.0959473,0.0149536,0.608826,0.787292
1470345956628227,0.0956421,0.0147095,0.608887,0.787292
1470345956651264,0.09552,0.0142212,0.608826,0.787354
1470345956673268,0.0957031,0.0142822,0.608948,0.787231
1470345956688320,0.0960693,0.0145874,0.608887,0.787231
1470345956711081,0.0960693,0.0145874,0.608887,0.787231
1470345956733115,0.0960693,0.0146484,0.608887,0.787231
1470345956748123,0.0960693,0.0146484,0.608887,0.787231
1470345956771134,0.0960693,0.0147705,0.608887,0.787231
1470345956793662,0.0960693,0.0147705,0.608887,0.787231
1470345956808604,0.0961304,0.0147705,0.608887,0.787231
1470345956830624,0.0958862,0.0142822,0.608948,0.787231
1470345956853644,0.0957031,0.013916,0.609009,0.787231
1470345956874689,0.0959473,0.0141602,0.609009,0.78717
1470345956891221,0.0961914,0.0146484,0.609009,0.787109
1470345956913792,0.0961914,0.0147095,0.609009,0.787109
1470345956927785,0.0959473,0.0146484,0.608826,0.787292
1470345956950806,0.0961914,0.0148315,0.608643,0.787354
1470345956973827,0.0966187,0.0152588,0.608521,0.787415
1470345956987899,0.0969238,0.015625,0.608459,0.787415
1470345957010982,0.0969238,0.015686,0.608459,0.787415
1470345957034000,0.0969238,0.015686,0.608459,0.787415
1470345957055021,0.0969238,0.015686,0.608459,0.787415
1470345957071036,0.0969238,0.0157471,0.608459,0.787415
1470345957093606,0.0969238,0.0157471,0.608459,0.787415
1470345957115189,0.0969238,0.0157471,0.608459,0.787415
1470345957131204,0.0968018,0.015564,0.608398,0.787476
1470345957153262,0.0968018,0.015564,0.608398,0.787476
1470345957174246,0.0971069,0.0159302,0.608215,0.787598
1470345957191359,0.0975342,0.0165405,0.608032,0.787659
1470345957213466,0.0975952,0.0166016,0.608032,0.787659
1470345957234489,0.0975342,0.0166016,0.608032,0.787659
1470345957251472,0.0975342,0.0166626,0.608032,0.787659
1470345957273491,0.0975952,0.0166626,0.608032,0.787659
1470345957295036,0.0975952,0.0166626,0.608032,0.787659
1470345957310594,0.0975952,0.0167236,0.608032,0.787659
1470345957333562,0.0976563,0.0167236,0.608032,0.787659
1470345957354637,0.0976563,0.0167236,0.608032,0.787659
1470345957370636,0.0975952,0.0167236,0.608032,0.787659
1470345957393647,0.0977173,0.0169678,0.607849,0.787781
1470345957414339,0.0977173,0.0170288,0.607849,0.787781
1470345957431352,0.0977783,0.0170288,0.607849,0.787781
1470345957436389,0.0977783,0.0170288,0.607849,0.787781
1470345957459443,0.0977783,0.0170898,0.607849,0.787781
1470345957490424,0.0978394,0.0170898,0.607849,0.787781
1470345957496930,0.0979004,0.0170898,0.607849,0.787781
1470345957519014,0.0977173,0.0170898,0.60791,0.78772
1470345957542036,0.0977173,0.0170898,0.60791,0.78772
1470345957556991,0.0980225,0.017395,0.60791,0.78772
1470345957579010,0.0980225,0.0174561,0.607849,0.78772
1470345957601138,0.0979004,0.017334,0.60791,0.78772
1470345957616140,0.0979004,0.017334,0.60791,0.78772
1470345957639150,0.0979004,0.017334,0.60791,0.78772
1470345957661140,0.0979614,0.017334,0.607849,0.78772
1470345957676153,0.0979614,0.017334,0.607849,0.78772
1470345957698793,0.0979614,0.017395,0.607849,0.78772
1470345957721812,0.0979614,0.0174561,0.607849,0.78772
1470345957736825,0.0979614,0.0174561,0.607849,0.78772
1470345957766908,0.0979614,0.0174561,0.607849,0.78772
1470345957781895,0.0979614,0.0174561,0.607849,0.78772
1470345957796891,0.0980225,0.0175171,0.607849,0.78772
1470345957820010,0.0980225,0.0175171,0.607849,0.78772
1470345957842025,0.0980225,0.0175171,0.607849,0.78772
1470345957856089,0.0981445,0.0177612,0.607788,0.787781
1470345957879077,0.0982666,0.0179443,0.607605,0.787842
1470345957901555,0.0983276,0.0180054,0.607422,0.788025
1470345957916602,0.0983276,0.0180664,0.607422,0.788025
1470345957939670,0.0983887,0.0180664,0.607422,0.788025
1470345957961611,0.0986328,0.0184326,0.607361,0.788025
1470345957976668,0.0988159,0.0187988,0.6073,0.788025
1470345957999372,0.098877,0.0187988,0.6073,0.788025
1470345958021392,0.098877,0.0187988,0.6073,0.788025
1470345958036360,0.098877,0.0188599,0.6073,0.788025
1470345958059381,0.098877,0.0189209,0.6073,0.788025
1470345958081453,0.098877,0.0189209,0.607239,0.788025
1470345958104998,0.098938,0.0189209,0.607239,0.788025
1470345958119047,0.0991211,0.019165,0.607178,0.788086
1470345958141011,0.0993042,0.0194092,0.607056,0.788147
1470345958158088,0.0996704,0.0198364,0.606873,0.788208
1470345958179093,0.0998535,0.0202026,0.606812,0.788208
1470345958201230,0.0998535,0.0202637,0.606812,0.788208
1470345958218221,0.0999146,0.0203247,0.606812,0.788208
1470345958239270,0.100098,0.0206299,0.60675,0.788208
1470345958261269,0.100159,0.0206909,0.60675,0.788208
1470345958278275,0.100159,0.0206909,0.60675,0.788208
1470345958298894,0.100159,0.0206909,0.60675,0.788208
1470345958321207,0.10022,0.020752,0.60675,0.788208
1470345958338219,0.10022,0.020752,0.60675,0.788208
1470345958359238,0.10022,0.020752,0.60675,0.788208
1470345958381317,0.10022,0.020752,0.60675,0.788208
1470345958399281,0.100464,0.0210571,0.606628,0.788269
1470345958419336,0.100586,0.0214844,0.606689,0.788208
1470345958441356,0.100647,0.0214844,0.606689,0.788208
1470345958459339,0.100647,0.0215454,0.606689,0.788208
1470345958479357,0.100647,0.0215454,0.606689,0.788208
1470345958501530,0.100708,0.0216064,0.606689,0.788208
1470345958519491,0.100525,0.0214233,0.60675,0.788147
1470345958539512,0.100525,0.0214233,0.60675,0.788147
1470345958561529,0.100647,0.0216675,0.60675,0.788147
1470345958579547,0.100647,0.0217285,0.60675,0.788147
1470345958599115,0.100708,0.0219727,0.606689,0.788208
1470345958621414,0.100769,0.0219727,0.606689,0.788208
1470345958639398,0.100769,0.0220337,0.606628,0.788208
1470345958659418,0.10083,0.0220337,0.606628,0.788208
1470345958681490,0.10083,0.0220947,0.606628,0.788208
1470345958698999,0.10083,0.0220947,0.606628,0.788208
1470345958719239,0.10083,0.0221558,0.606628,0.788208
1470345958741274,0.101074,0.0223389,0.606567,0.788208
1470345958759246,0.101257,0.022644,0.606506,0.788208
1470345958779264,0.101318,0.0227051,0.606506,0.788208
1470345958801229,0.101318,0.0227051,0.606506,0.788208
1470345958820208,0.101318,0.0227051,0.606506,0.788208
1470345958839222,0.101563,0.0230713,0.606323,0.788269
1470345958861241,0.101807,0.0234375,0.606201,0.788391
1470345958879258,0.102234,0.0238647,0.606079,0.788391
1470345958901952,0.102234,0.0238647,0.606079,0.788391
1470345958921970,0.102234,0.0239258,0.606079,0.788391
1470345958938987,0.102295,0.0239868,0.606079,0.788391
1470345958959059,0.102295,0.0239868,0.606079,0.788391
1470345958981028,0.102295,0.0239868,0.606079,0.788391
1470345958999048,0.102356,0.0240479,0.606079,0.788391
1470345959020511,0.102478,0.024292,0.606018,0.788391
1470345959049537,0.102539,0.024353,0.606018,0.788391
1470345959059546,0.102539,0.0244141,0.606018,0.788391
1470345959080569,0.102539,0.0244141,0.606018,0.788391
1470345959101652,0.1026,0.0244751,0.606018,0.788391
1470345959119643,0.1026,0.0244751,0.606018,0.788391
1470345959140663,0.1026,0.0245361,0.606018,0.788391
1470345959161724,0.102661,0.0245972,0.606018,0.788391
1470345959179697,0.102722,0.0245972,0.606018,0.788391
1470345959200852,0.102539,0.0245361,0.606018,0.78833
1470345959221872,0.102539,0.0245972,0.606018,0.78833
1470345959239886,0.1026,0.0245972,0.606018,0.78833
1470345959260954,0.102722,0.0249023,0.605957,0.788391
1470345959281979,0.102783,0.0249634,0.605957,0.788391
1470345959299492,0.102905,0.0252075,0.605896,0.788391
1470345959319925,0.102966,0.0252075,0.605896,0.788391
1470345959341911,0.102966,0.0252075,0.605896,0.788391
1470345959359961,0.103149,0.0255737,0.605713,0.788513
1470345959381912,0.103149,0.0255737,0.605713,0.788513
1470345959401614,0.10321,0.0256348,0.605713,0.788513
1470345959419597,0.10321,0.0256958,0.605713,0.788513
1470345959441616,0.10321,0.0256958,0.605713,0.788513
1470345959461636,0.103455,0.026001,0.605652,0.788513
1470345959479652,0.103638,0.0263062,0.60553,0.788513
1470345959502313,0.103699,0.0263062,0.60553,0.788513
1470345959521260,0.103699,0.0263672,0.60553,0.788513
1470345959539253,0.103699,0.0263672,0.60553,0.788513
1470345959562352,0.103699,0.0263672,0.60553,0.788513
1470345959581332,0.103943,0.0267334,0.605408,0.788574
1470345959599914,0.103943,0.0267334,0.605408,0.788574
1470345959622187,0.104004,0.0267944,0.605408,0.788574
1470345959641152,0.104004,0.0268555,0.605408,0.788574
1470345959659170,0.104065,0.0268555,0.605408,0.788574
1470345959682215,0.104065,0.0269165,0.605408,0.788574
1470345959701801,0.104065,0.0269165,0.605408,0.788574
1470345959725822,0.104065,0.0269165,0.605408,0.788574
1470345959741837,0.104065,0.0269775,0.605408,0.788574
1470345959761886,0.104126,0.0270386,0.605408,0.788574
1470345959779877,0.104126,0.0270386,0.605408,0.788574
1470345959802008,0.104126,0.0270386,0.605408,0.788574
1470345959822025,0.104126,0.0270386,0.605408,0.788574
1470345959840089,0.10437,0.0273438,0.605286,0.788574
1470345959862061,0.104675,0.027832,0.605286,0.788513
1470345959881077,0.104675,0.0278931,0.605286,0.788513
1470345959899702,0.104553,0.02771,0.605347,0.788513
1470345959921835,0.104614,0.02771,0.605347,0.788513
1470345959941853,0.104614,0.027771,0.605347,0.788513
1470345959959869,0.104614,0.027771,0.605347,0.788513
1470345959980932,0.104675,0.027771,0.605347,0.788513
1470345960002074,0.104675,0.027832,0.605347,0.788513
1470345960019088,0.104736,0.0280151,0.605286,0.788513
1470345960041108,0.10498,0.0283813,0.605225,0.788513
1470345960062127,0.105042,0.0284424,0.605225,0.788513
1470345960078141,0.105103,0.0285034,0.605225,0.788513
1470345960101168,0.105103,0.0285034,0.605225,0.788513
1470345960122692,0.105103,0.0285034,0.605225,0.788513
1470345960138706,0.105103,0.0285645,0.605225,0.788513
1470345960160726,0.105164,0.0285645,0.605225,0.788513
1470345960182754,0.105164,0.0286255,0.605225,0.788513
1470345960198268,0.105164,0.0286255,0.605225,0.788513
1470345960220794,0.105225,0.0286865,0.605164,0.788513
1470345960241837,0.105225,0.0287476,0.605164,0.788513
1470345960258827,0.105225,0.0287476,0.605164,0.788513
1470345960280846,0.105225,0.0287476,0.605164,0.788513
1470345960303960,0.105286,0.0288086,0.605164,0.788513
1470345960318974,0.105286,0.0288086,0.605164,0.788513
1470345960340992,0.105286,0.0288696,0.605164,0.788513
1470345960364013,0.105347,0.0288696,0.605164,0.788513
1470345960379027,0.105347,0.0289307,0.605164,0.788513
1470345960401619,0.105408,0.0289917,0.605164,0.788513
1470345960423909,0.105225,0.0288696,0.605164,0.788513
1470345960438922,0.105286,0.0288696,0.605164,0.788513
1470345960460943,0.105286,0.0289307,0.605164,0.788513
1470345960483962,0.105286,0.0289307,0.605164,0.788513
1470345960498483,0.105286,0.0289307,0.605164,0.788513
1470345960521104,0.105286,0.0289917,0.605164,0.788513
1470345960544081,0.105286,0.0289917,0.605164,0.788513
1470345960558094,0.105591,0.0293579,0.605103,0.788513
1470345960581150,0.105652,0.0294189,0.605103,0.788513
1470345960603219,0.105713,0.02948,0.605042,0.788513
1470345960618228,0.10553,0.0292969,0.605164,0.788452
1470345960641248,0.105408,0.0291138,0.605225,0.788452
1470345960663267,0.105286,0.0288696,0.605225,0.788452
1470345960678281,0.105164,0.0286865,0.605286,0.788452
1470345960701389,0.105164,0.0286865,0.605286,0.788452
1470345960723414,0.105225,0.0287476,0.605286,0.788452
1470345960738427,0.105225,0.0287476,0.605286,0.788452
1470345960768454,0.105225,0.0287476,0.605286,0.788452
1470345960783500,0.105286,0.0288086,0.605286,0.788452
1470345960804686,0.105286,0.0288086,0.605286,0.788452
1470345960826703,0.105347,0.0288696,0.605286,0.788452
1470345960843695,0.105286,0.0288696,0.605286,0.788452
1470345960864716,0.105164,0.0286255,0.605347,0.788391
1470345960880729,0.105042,0.0285034,0.605408,0.788391
1470345960903838,0.105103,0.0285645,0.605408,0.788391
1470345960924883,0.105103,0.0285645,0.605408,0.788391
1470345960940878,0.105103,0.0286255,0.605408,0.788391
1470345960963893,0.105103,0.0286255,0.605347,0.788391
1470345960984935,0.105164,0.0286865,0.605347,0.788391
1470345961001514,0.105164,0.0286865,0.605347,0.788391
1470345961023716,0.105164,0.0287476,0.605347,0.788391
1470345961044785,0.105164,0.0287476,0.605347,0.788391
1470345961060750,0.105225,0.0287476,0.605347,0.788391
1470345961083770,0.105164,0.0286255,0.605408,0.788391
1470345961105439,0.105164,0.0285034,0.605408,0.788391
1470345961121378,0.105164,0.0285645,0.605408,0.788391
1470345961143403,0.105042,0.0284424,0.605408,0.788391
1470345961164437,0.105042,0.0284424,0.605408,0.788391
1470345961181433,0.105103,0.0284424,0.605408,0.788391
1470345961203461,0.105103,0.0285034,0.605408,0.788391
1470345961224535,0.105103,0.0285034,0.605408,0.788391
1470345961241495,0.105164,0.0285034,0.605408,0.788391
1470345961263540,0.105164,0.0285034,0.605408,0.788391
1470345961286535,0.105225,0.0285645,0.605347,0.788391
1470345961301558,0.105225,0.0285645,0.605347,0.788391
1470345961323166,0.105225,0.0286255,0.605347,0.788391
1470345961346147,0.105225,0.0286255,0.605347,0.788391
1470345961360157,0.105225,0.0286255,0.605347,0.788391
1470345961383178,0.105103,0.0285645,0.605408,0.78833
1470345961406712,0.104919,0.0282593,0.605408,0.788391
1470345961420726,0.10498,0.0282593,0.605408,0.788391
1470345961443745,0.10498,0.0282593,0.605408,0.788391
1470345961465764,0.105164,0.0285645,0.605286,0.788452
1470345961480780,0.105347,0.0288696,0.605225,0.788452
1470345961503331,0.105408,0.0289307,0.605225,0.788452
1470345961525687,0.105652,0.0291748,0.605103,0.788513
1470345961548692,0.105713,0.0291748,0.605103,0.788513
1470345961563706,0.105652,0.0291138,0.605103,0.788513
1470345961585726,0.105713,0.0291748,0.605103,0.788513
1470345961600748,0.105713,0.0291748,0.605103,0.788513
1470345961623570,0.105713,0.0291748,0.605103,0.788513
1470345961646591,0.105835,0.02948,0.605164,0.788452
1470345961660659,0.105835,0.029541,0.605164,0.788452
1470345961683623,0.105713,0.0294189,0.605225,0.788391
1470345961705711,0.105591,0.0290527,0.605225,0.788452
1470345961720725,0.105408,0.0288086,0.605225,0.788452
1470345961743818,0.105347,0.0285034,0.605164,0.788574
1470345961765765,0.10553,0.0283813,0.605042,0.788574
1470345961786832,0.10553,0.0281372,0.60498,0.788696
1470345961803346,0.105164,0.0266113,0.604919,0.788818
1470345961826512,0.104492,0.0239868,0.60498,0.78894
1470345961847556,0.103638,0.0205078,0.605042,0.789063
1470345961863565,0.102844,0.0164795,0.605286,0.789124
1470345961886565,0.100891,0.0109863,0.605774,0.789063
1470345961907198,0.097229,0.00311279,0.606323,0.789185
1470345961923160,0.0923462,-0.00604248,0.607239,0.789063
1470345961953202,0.0872192,-0.0136719,0.608704,0.788391
1470345961967241,0.0817871,-0.019043,0.610413,0.787537
1470345961983216,0.0744019,-0.0236206,0.612183,0.786804
1470345962006339,0.0644531,-0.0285645,0.613708,0.786377
1470345962027361,0.0560913,-0.0274658,0.615234,0.785828
1470345962043373,0.0499268,-0.0269165,0.616394,0.785339
1470345962066394,0.0439453,-0.0247192,0.618286,0.784302
1470345962087468,0.0341797,-0.0271606,0.62085,0.782654
1470345962103933,0.0209961,-0.0287476,0.623657,0.780884
1470345962126460,0.0130005,-0.0203247,0.624207,0.780884
1470345962147537,0.0123291,-0.00616455,0.626038,0.779602
1470345962162517,0.00787354,0.00793457,0.628479,0.77771
1470345962186515,-0.00115967,0.0185547,0.631165,0.775391
1470345962208611,-0.0123901,0.0264893,0.634521,0.772278
1470345962222620,-0.0230713,0.0350952,0.638367,0.768555
1470345962245641,-0.0322876,0.0460815,0.642151,0.764465
1470345962268663,-0.0408936,0.0588379,0.645569,0.760254
1470345962282674,-0.0500488,0.0717773,0.648804,0.755859
1470345962306258,-0.0596313,0.0836182,0.652344,0.750854
1470345962328295,-0.0687866,0.0953369,0.655823,0.745605
1470345962343291,-0.0768433,0.106873,0.659607,0.739929
1470345962366311,-0.0847778,0.11792,0.66333,0.734009
1470345962388330,-0.0926514,0.128845,0.666321,0.728516
1470345962403350,-0.100342,0.139954,0.668518,0.723389
1470345962433883,-0.108093,0.149658,0.670776,0.718262
1470345962448897,-0.116455,0.157043,0.674011,0.712341
1470345962469916,-0.125122,0.162598,0.677307,0.706482
1470345962485932,-0.133057,0.168152,0.680115,0.700989
1470345962508535,-0.140503,0.173584,0.682495,0.695862
1470345962529553,-0.148254,0.177185,0.685425,0.69043
1470345962546570,-0.156067,0.180298,0.688721,0.684631
1470345962568588,-0.162659,0.185059,0.691467,0.679077
1470345962590114,-0.168274,0.190247,0.69397,0.673645
1470345962606144,-0.174255,0.195129,0.696716,0.667908
1470345962629152,-0.179871,0.199036,0.69989,0.661865
1470345962657208,-0.183899,0.203064,0.703613,0.655579
1470345962666185,-0.184631,0.207703,0.707397,0.649841
1470345962689206,-0.184143,0.211121,0.71106,0.644836
1470345962710249,-0.186035,0.215881,0.713135,0.640442
1470345962726265,-0.188232,0.221436,0.714111,0.63678
1470345962748284,-0.189392,0.227905,0.715332,0.632813
1470345962771306,-0.190796,0.234619,0.716736,0.628296
1470345962786318,-0.192871,0.240356,0.718506,0.623474
1470345962816368,-0.196472,0.244263,0.721008,0.617859
1470345962829444,-0.200806,0.246826,0.723938,0.612061
1470345962846397,-0.204773,0.249634,0.72644,0.606567
1470345962868415,-0.208313,0.253967,0.727966,0.601746
1470345962889967,-0.210876,0.260132,0.728821,0.597168
1470345962906537,-0.212952,0.266479,0.729431,0.592834
1470345962928558,-0.215271,0.270752,0.730835,0.588379
1470345962949579,-0.218262,0.272156,0.732544,0.584473
1470345962965619,-0.221069,0.273315,0.733765,0.58136
1470345962988612,-0.223572,0.274292,0.734497,0.578979
1470345963009683,-0.225708,0.27417,0.735229,0.577271
1470345963032716,-0.227417,0.273376,0.73584,0.576233
1470345963048704,-0.229004,0.272034,0.736084,0.575928
1470345963069724,-0.230774,0.270325,0.736023,0.576111
1470345963085795,-0.232178,0.268494,0.735718,0.576721
1470345963108876,-0.233459,0.266479,0.735474,0.577515
1470345963129914,-0.234192,0.264404,0.735535,0.578003
1470345963145909,-0.23407,0.262207,0.736267,0.578186
1470345963168930,-0.233276,0.260254,0.737244,0.578064
1470345963191506,-0.232483,0.259033,0.738159,0.57782
1470345963205518,-0.23175,0.257996,0.738953,0.577637
1470345963228646,-0.231018,0.256714,0.73999,0.577148
1470345963250683,-0.230286,0.255432,0.741028,0.576599
1470345963265679,-0.229492,0.254395,0.742126,0.575989
1470345963288700,-0.228455,0.253296,0.743347,0.575317
1470345963311292,-0.227539,0.252319,0.744385,0.574829
1470345963325294,-0.226563,0.251282,0.7453,0.574402
1470345963348317,-0.225586,0.250366,0.746094,0.574219
1470345963371336,-0.224854,0.249207,0.746826,0.573975
1470345963385349,-0.224548,0.247375,0.747925,0.573486
1470345963408386,-0.22406,0.24585,0.74884,0.57312
1470345963431406,-0.223328,0.244751,0.749817,0.572693
1470345963445418,-0.222473,0.243652,0.750793,0.572144
1470345963468440,-0.22168,0.242493,0.752075,0.571289
1470345963491468,-0.220642,0.241333,0.753235,0.570679
1470345963505479,-0.21991,0.239441,0.754272,0.570313
1470345963529202,-0.219238,0.237244,0.755493,0.569885
1470345963551223,-0.218445,0.235779,0.756287,0.569763
1470345963565235,-0.217712,0.234741,0.756958,0.56958
1470345963595269,-0.217163,0.233582,0.757507,0.569519
1470345963610840,-0.216675,0.232239,0.757935,0.569763
1470345963625854,-0.216309,0.230957,0.758301,0.569885
1470345963648876,-0.216064,0.229309,0.758728,0.570068
1470345963670895,-0.215881,0.228027,0.759155,0.570068
1470345963692545,-0.215393,0.227478,0.759583,0.569946
1470345963708497,-0.214844,0.227173,0.759888,0.569885
1470345963731519,-0.214294,0.226868,0.760132,0.569885
1470345963752551,-0.213684,0.226746,0.760193,0.570068
1470345963768551,-0.212891,0.226624,0.760193,0.570374
1470345963791579,-0.212036,0.226624,0.760193,0.57074
1470345963819614,-0.211243,0.22644,0.76001,0.57135
1470345963828620,-0.210693,0.225342,0.760071,0.571899
1470345963850640,-0.210083,0.224792,0.759949,0.57251
1470345963872688,-0.209229,0.224731,0.759888,0.572937
1470345963888675,-0.208435,0.225037,0.759888,0.57312
1470345963911322,-0.207581,0.22583,0.759766,0.573242
1470345963932395,-0.206787,0.226196,0.759644,0.573547
1470345963948353,-0.206482,0.226013,0.75946,0.573914
1470345963971374,-0.206238,0.226135,0.759094,0.574463
1470345963992455,-0.20575,0.226563,0.758728,0.574951
1470345964008976,-0.205261,0.226624,0.758484,0.575439
1470345964030995,-0.20459,0.227051,0.75824,0.575806
1470345964052072,-0.204102,0.227173,0.757935,0.576355
1470345964069029,-0.203857,0.226685,0.757568,0.577148
1470345964091588,-0.203613,0.226257,0.75708,0.578003
1470345964114166,-0.203247,0.22583,0.756897,0.578552
1470345964129179,-0.20282,0.225708,0.756775,0.578857
1470345964151202,-0.202332,0.225647,0.756653,0.579285
1470345964174219,-0.202087,0.225037,0.756592,0.579651
1470345964188314,-0.202148,0.224121,0.756653,0.579895
1470345964211125,-0.202026,0.223633,0.756653,0.580139
1470345964234148,-0.201721,0.223206,0.756714,0.580322
1470345964249159,-0.201477,0.222595,0.757019,0.5802
1470345964271180,-0.201294,0.222412,0.757385,0.579895
1470345964293754,-0.20105,0.222473,0.757629,0.579651
1470345964314997,-0.200867,0.222351,0.757996,0.579285
1470345964330962,-0.200806,0.222168,0.75824,0.579102
1470345964353982,-0.200623,0.22229,0.758362,0.578979
1470345964376002,-0.200378,0.222656,0.758423,0.578796
1470345964391037,-0.200134,0.223022,0.758545,0.578613
1470345964413548,-0.199951,0.2229,0.758606,0.578613
1470345964427560,-0.199951,0.2229,0.758606,0.578613
1470345964451583,-0.199829,0.223206,0.758545,0.578552
1470345964473602,-0.199707,0.223511,0.758484,0.578613
1470345964487615,-0.199646,0.22345,0.758423,0.578674
1470345964511649,-0.199768,0.222961,0.758606,0.578674
1470345964533670,-0.199768,0.222656,0.758667,0.578674
1470345964547682,-0.199524,0.2229,0.758667,0.578674
1470345964571702,-0.199158,0.223145,0.758667,0.578674
1470345964594285,-0.199097,0.222717,0.758789,0.578735
1470345964614686,-0.199219,0.221802,0.759033,0.578674
1470345964630688,-0.19928,0.221497,0.759277,0.578552
1470345964653687,-0.199158,0.221863,0.759338,0.578308
1470345964674723,-0.199463,0.221619,0.759521,0.578064
1470345964690721,-0.199646,0.221069,0.759766,0.577881
1470345964713464,-0.200317,0.220337,0.759888,0.577759
1470345964734482,-0.201477,0.218933,0.760193,0.577515
1470345964751499,-0.202148,0.218323,0.760498,0.577087
1470345964773518,-0.202332,0.218689,0.760986,0.576233
1470345964795084,-0.202759,0.219421,0.761536,0.575012
1470345964824625,-0.204102,0.219666,0.762268,0.573608
1470345964833651,-0.205322,0.219849,0.763062,0.57196
1470345964854696,-0.205933,0.221313,0.763672,0.570435
1470345964870711,-0.206116,0.223267,0.764099,0.56897
1470345964894193,-0.206238,0.223755,0.764832,0.567749
1470345964915257,-0.206604,0.221985,0.765747,0.567078
1470345964931273,-0.207214,0.21991,0.766174,0.567078
1470345964953331,-0.207581,0.218811,0.766174,0.567322
1470345964975318,-0.208191,0.218262,0.766235,0.567261
1470345964991327,-0.208984,0.217712,0.766418,0.567017
1470345965013911,-0.209473,0.217163,0.766785,0.566528
1470345965034976,-0.209839,0.216492,0.767517,0.565613
1470345965051018,-0.210266,0.215881,0.768433,0.564453
1470345965073964,-0.210815,0.21582,0.769287,0.56311
1470345965096494,-0.211487,0.216003,0.769775,0.562073
1470345965111024,-0.21228,0.216431,0.769958,0.561401
1470345965134046,-0.212952,0.216675,0.769958,0.561096
1470345965156118,-0.213745,0.21698,0.769836,0.560791
1470345965171086,-0.214478,0.217285,0.769836,0.560425
1470345965194107,-0.215149,0.218018,0.769653,0.56012
1470345965216154,-0.215881,0.218811,0.769348,0.559998
1470345965230203,-0.216797,0.219238,0.768982,0.559937
1470345965260185,-0.21759,0.219666,0.768677,0.559875
1470345965276241,-0.21814,0.220581,0.768372,0.559753
1470345965281243,-0.218567,0.221252,0.768127,0.55957
1470345965298279,-0.218994,0.221436,0.768188,0.559326
1470345965319343,-0.21936,0.221497,0.768127,0.559204
1470345965341365,-0.219727,0.22168,0.768066,0.559082
1470345965358378,-0.21991,0.222046,0.768005,0.55896
1470345965379426,-0.220154,0.222473,0.767883,0.558838
1470345965401977,-0.220459,0.222839,0.767639,0.558899
1470345965417500,-0.220703,0.223206,0.767395,0.559021
1470345965439542,-0.221008,0.223816,0.76709,0.559082
1470345965461536,-0.221313,0.224426,0.766663,0.559204
1470345965477570,-0.221741,0.224854,0.766357,0.559326
1470345965499576,-0.222107,0.225525,0.76593,0.559509
1470345965521643,-0.222412,0.226318,0.765503,0.559692
1470345965537718,-0.222778,0.227173,0.765015,0.559814
1470345965559675,-0.223206,0.2276,0.764648,0.559998
1470345965581669,-0.223694,0.2276,0.764343,0.560181
1470345965598229,-0.223938,0.227417,0.764282,0.560303
1470345965618870,-0.223938,0.227417,0.764282,0.560303
1470345965649877,-0.22406,0.227173,0.764343,0.560242
1470345965657886,-0.224365,0.226624,0.764648,0.559937
1470345965678907,-0.224548,0.226379,0.764893,0.559631
1470345965701926,-0.224731,0.225952,0.765137,0.559387
1470345965718001,-0.224792,0.225342,0.765503,0.559143
1470345965739018,-0.224915,0.224854,0.765808,0.558838
1470345965762036,-0.224915,0.224609,0.766174,0.558472
1470345965779054,-0.225159,0.224121,0.766479,0.558167
1470345965799587,-0.225159,0.22406,0.766724,0.5578
1470345965821211,-0.225342,0.223938,0.766907,0.557495
1470345965838203,-0.225586,0.223694,0.767151,0.55719
1470345965859212,-0.225586,0.222595,0.767517,0.55719
1470345965881307,-0.225525,0.221313,0.767822,0.557251
1470345965898349,-0.225464,0.220093,0.768188,0.557251
1470345965926394,-0.225525,0.219421,0.76825,0.557434
1470345965944354,-0.22583,0.218872,0.768066,0.5578
1470345965958369,-0.226379,0.218262,0.767761,0.558228
1470345965979389,-0.226929,0.217957,0.767334,0.558655
1470345966001920,-0.227417,0.217957,0.767029,0.55896
1470345966019491,-0.227844,0.218262,0.766663,0.559082
1470345966039510,-0.228455,0.218872,0.766418,0.55896
1470345966061534,-0.229004,0.219177,0.766296,0.558777
1470345966079547,-0.229675,0.219604,0.766235,0.558411
1470345966099575,-0.230225,0.21991,0.766296,0.557983
1470345966122177,-0.230774,0.220459,0.766357,0.557434
1470345966156208,-0.231323,0.221191,0.766418,0.556885
1470345966160212,-0.232056,0.22113,0.766479,0.556519
1470345966181230,-0.232727,0.221375,0.766357,0.556274
1470345966199763,-0.233337,0.221863,0.766113,0.556152
1470345966218682,-0.234314,0.222351,0.765869,0.555908
1470345966241691,-0.235107,0.223145,0.765503,0.555786
1470345966259705,-0.235962,0.223694,0.765015,0.555847
1470345966278721,-0.236938,0.22406,0.764587,0.555847
1470345966301748,-0.237671,0.225037,0.76416,0.555786
1470345966319769,-0.238647,0.226074,0.763611,0.555603
1470345966338786,-0.23938,0.227112,0.763123,0.555603
1470345966361822,-0.240112,0.228027,0.762634,0.555603
1470345966379912,-0.240845,0.228516,0.762207,0.555664
1470345966399378,-0.241577,0.229431,0.761719,0.555603
1470345966428885,-0.242432,0.230408,0.76123,0.555481
1470345966439892,-0.243286,0.231323,0.760742,0.555359
1470345966458910,-0.243958,0.232544,0.760376,0.555115
1470345966488936,-0.24469,0.233948,0.759705,0.555176
1470345966499949,-0.245544,0.234924,0.758911,0.55542
1470345966519023,-0.246399,0.235901,0.758057,0.555847
1470345966543033,-0.247437,0.237244,0.757141,0.55603
1470345966560034,-0.248474,0.238281,0.756409,0.556152
1470345966579052,-0.249512,0.239197,0.755615,0.556335
1470345966602140,-0.250488,0.240173,0.754822,0.556519
1470345966619201,-0.251343,0.241211,0.75415,0.556641
1470345966640219,-0.252136,0.241943,0.75354,0.556824
1470345966661238,-0.252808,0.242737,0.75293,0.556946
1470345966680255,-0.25354,0.243835,0.752258,0.557068
1470345966700862,-0.254272,0.244934,0.751526,0.557251
1470345966722424,-0.255188,0.245667,0.750732,0.557556
1470345966739437,-0.255798,0.246704,0.749817,0.558044
1470345966760461,-0.256592,0.247742,0.748962,0.55835
1470345966781532,-0.257324,0.248474,0.74823,0.558655
1470345966799535,-0.258057,0.249268,0.747498,0.55896
1470345966821154,-0.258728,0.250122,0.746765,0.559265
1470345966842173,-0.25946,0.250793,0.746033,0.55957
1470345966859188,-0.260254,0.251343,0.745361,0.559875
1470345966880207,-0.261047,0.251648,0.744934,0.559937
1470345966901830,-0.261719,0.25177,0.74469,0.559875
1470345966925858,-0.262085,0.251648,0.744629,0.559875
1470345966940874,-0.262329,0.251343,0.74469,0.559814
1470345966961925,-0.262573,0.251099,0.744629,0.559875
1470345966986914,-0.262817,0.250854,0.744629,0.559814
1470345967002437,-0.263062,0.250183,0.744873,0.559692
1470345967022082,-0.263184,0.249268,0.745178,0.559692
1470345967039008,-0.263062,0.248474,0.7453,0.559875
1470345967062029,-0.263123,0.247803,0.745361,0.56012
1470345967082093,-0.263184,0.247192,0.745361,0.560303
1470345967099573,-0.263428,0.246765,0.7453,0.560486
1470345967122099,-0.263794,0.246277,0.745178,0.560669
1470345967142116,-0.263977,0.246155,0.745056,0.560852
1470345967160133,-0.264038,0.246033,0.744995,0.560974
1470345967182153,-0.264221,0.245911,0.744995,0.560913
1470345967201686,-0.26416,0.245972,0.744995,0.560913
1470345967219821,-0.264099,0.246643,0.745056,0.560547
1470345967241839,-0.263916,0.247375,0.745117,0.560242
1470345967261861,-0.263733,0.247864,0.745117,0.560059
1470345967279873,-0.263489,0.248291,0.745178,0.559937
1470345967302405,-0.263245,0.24884,0.745239,0.559753
1470345967321487,-0.262817,0.249329,0.745361,0.55957
1470345967339445,-0.262573,0.24939,0.745544,0.559387
1470345967362465,-0.26239,0.248962,0.74585,0.559326
1470345967381572,-0.262207,0.248657,0.746094,0.559204
1470345967399550,-0.261963,0.248413,0.746277,0.559143
1470345967421576,-0.261719,0.247986,0.746643,0.559021
1470345967441593,-0.261414,0.247498,0.746948,0.55896
1470345967459611,-0.261292,0.246887,0.747192,0.55896
1470345967481629,-0.261292,0.246826,0.747192,0.55896
1470345967504656,-0.261292,0.246765,0.747131,0.559082
1470345967519674,-0.261414,0.246338,0.747192,0.559143
1470345967541693,-0.261414,0.246338,0.747192,0.559143
1470345967562713,-0.261536,0.246338,0.74707,0.559204
1470345967579728,-0.261536,0.246338,0.74707,0.559204
1470345967602257,-0.261536,0.246338,0.74707,0.559204
1470345967623572,-0.261536,0.246765,0.747009,0.559143
1470345967639585,-0.261414,0.24707,0.746948,0.559082
1470345967661604,-0.261414,0.247314,0.746887,0.559082
1470345967682624,-0.261292,0.247559,0.746887,0.559021
1470345967699673,-0.26123,0.247742,0.746948,0.558899
1470345967721596,-0.26123,0.247742,0.746948,0.558899
1470345967742619,-0.26123,0.247742,0.746948,0.558899
1470345967759631,-0.261169,0.248047,0.746948,0.558838
1470345967782652,-0.261108,0.248047,0.746948,0.558838
1470345967809181,-0.261108,0.248413,0.746765,0.558899
1470345967819453,-0.261169,0.248657,0.746582,0.559021
1470345967841474,-0.261169,0.248657,0.746582,0.55896
1470345967869515,-0.261169,0.248657,0.746582,0.55896
1470345967878513,-0.261169,0.248718,0.746582,0.55896
1470345967901537,-0.261169,0.248718,0.746582,0.55896
1470345967923807,-0.261353,0.24884,0.746521,0.55896
1470345967937903,-0.261353,0.24884,0.746521,0.558899
1470345967960833,-0.261353,0.24884,0.746521,0.558899
1470345967983855,-0.261353,0.24884,0.746521,0.558899
1470345967998932,-0.261353,0.24884,0.746521,0.558899
1470345968020951,-0.261292,0.248901,0.746521,0.558899
1470345968043962,-0.261353,0.248901,0.746521,0.558899
1470345968064981,-0.261292,0.249268,0.746582,0.558716
1470345968081038,-0.261169,0.249634,0.746582,0.558533
1470345968104062,-0.261169,0.249634,0.746643,0.558533
1470345968118093,-0.26123,0.249939,0.746521,0.558533
1470345968141144,-0.26123,0.250244,0.74646,0.558411
1470345968164136,-0.261169,0.250732,0.74646,0.558289
1470345968178148,-0.261047,0.251343,0.746338,0.558167
1470345968201748,-0.260986,0.251709,0.746277,0.558105
1470345968223981,-0.261047,0.251709,0.746277,0.558167
1470345968237993,-0.261047,0.252014,0.746155,0.558105
1470345968261047,-0.261047,0.252441,0.746094,0.557983
1470345968284035,-0.261108,0.252869,0.745972,0.557922
1470345968298097,-0.261169,0.253113,0.745911,0.557861
1470345968320911,-0.261292,0.253479,0.745789,0.557861
1470345968343920,-0.261292,0.253784,0.745667,0.557861
1470345968365941,-0.261353,0.253967,0.745544,0.557922
1470345968380956,-0.261414,0.254272,0.745483,0.557861
1470345968403981,-0.261414,0.254639,0.745422,0.557739
1470345968424509,-0.261292,0.255066,0.745483,0.557556
1470345968447529,-0.261292,0.255737,0.745361,0.557373
1470345968463541,-0.261353,0.25592,0.745178,0.557495
1470345968484574,-0.261597,0.255737,0.745056,0.557678
1470345968501595,-0.26178,0.255615,0.744873,0.557861
1470345968523556,-0.262085,0.255554,0.744873,0.5578
1470345968544627,-0.262268,0.255737,0.744812,0.557617
1470345968561586,-0.262329,0.255737,0.744812,0.557617
1470345968591611,-0.262268,0.255737,0.744812,0.557617
1470345968605172,-0.262268,0.255798,0.744812,0.557617
1470345968621225,-0.262268,0.255798,0.744812,0.557617
1470345968643243,-0.262268,0.255798,0.744812,0.557617
1470345968665263,-0.262268,0.256104,0.744751,0.557556
1470345968681277,-0.262329,0.256226,0.744568,0.557739
1470345968703848,-0.262451,0.256287,0.744385,0.557861
1470345968724654,-0.262573,0.256653,0.744141,0.557983
1470345968741650,-0.262817,0.256836,0.743958,0.557983
1470345968763670,-0.263245,0.256897,0.743591,0.55835
1470345968784708,-0.263794,0.256165,0.743103,0.559021
1470345968801290,-0.264465,0.255005,0.742737,0.559692
1470345968823815,-0.265015,0.2547,0.74231,0.560181
1470345968844883,-0.265503,0.254944,0.741882,0.560425
1470345968874903,-0.26593,0.255371,0.741516,0.560547
1470345968883893,-0.266357,0.255798,0.741028,0.56073
1470345968906467,-0.266602,0.256287,0.740723,0.560791
1470345968920608,-0.266846,0.256897,0.740417,0.560852
1470345968943674,-0.26709,0.257629,0.740112,0.56073
1470345968966649,-0.267151,0.258728,0.739929,0.560486
1470345968981662,-0.26709,0.259766,0.739807,0.560181
1470345969003773,-0.267029,0.260193,0.739746,0.560059
1470345969042917,-0.267151,0.260071,0.739807,0.559937
1470345969046921,-0.267334,0.259888,0.739929,0.559875
1470345969063935,-0.267517,0.259766,0.73999,0.559692
1470345969085953,-0.267517,0.259583,0.740295,0.559387
1470345969101000,-0.267334,0.259094,0.740845,0.559021
1470345969123632,-0.267029,0.258362,0.741516,0.558533
1470345969146587,-0.266602,0.257141,0.742554,0.558044
1470345969160599,-0.26593,0.255798,0.743652,0.557434
1470345969183669,-0.265198,0.2547,0.74469,0.556885
1470345969206694,-0.264587,0.253967,0.745483,0.556458
1470345969220740,-0.264038,0.253113,0.746216,0.556152
1470345969243758,-0.26355,0.252258,0.746826,0.555969
1470345969266779,-0.263184,0.251587,0.747192,0.555908
1470345969280792,-0.263123,0.251526,0.747253,0.555908
1470345969303818,-0.263123,0.251526,0.747253,0.555908
1470345969326494,-0.263062,0.251404,0.747192,0.556091
1470345969340508,-0.263,0.251404,0.747192,0.556091
1470345969363541,-0.263123,0.25177,0.746948,0.556152
1470345969386552,-0.263428,0.252014,0.746765,0.556213
1470345969407579,-0.263367,0.252014,0.746765,0.556213
1470345969424101,-0.26355,0.252014,0.746582,0.556335
1470345969446121,-0.26355,0.252014,0.746582,0.556335
1470345969467139,-0.26355,0.252014,0.746582,0.556335
1470345969484156,-0.263672,0.251831,0.746582,0.556396
1470345969506696,-0.263855,0.251587,0.746582,0.556458
1470345969527218,-0.26416,0.251587,0.74646,0.556396
1470345969543232,-0.264526,0.25177,0.746338,0.556335
1470345969566254,-0.264771,0.251892,0.746277,0.556274
1470345969595280,-0.265076,0.251953,0.746338,0.555969
1470345969603796,-0.265198,0.252014,0.74646,0.555725
1470345969626318,-0.265137,0.251953,0.746643,0.555542
1470345969647340,-0.265137,0.251831,0.746765,0.555481
1470345969663352,-0.265137,0.251831,0.746765,0.555481
1470345969686373,-0.265198,0.251831,0.746765,0.555481
1470345969707419,-0.265137,0.251831,0.746765,0.555481
1470345969723316,-0.265137,0.251831,0.746765,0.555481
1470345969746336,-0.265076,0.25177,0.746765,0.555542
1470345969767463,-0.264954,0.251587,0.746765,0.555603
1470345969783371,-0.264954,0.251282,0.746887,0.555603
1470345969806426,-0.264954,0.251282,0.746887,0.555603
1470345969828434,-0.264832,0.251221,0.74707,0.555481
1470345969843447,-0.264832,0.250916,0.747253,0.55542
1470345969866467,-0.264587,0.250671,0.747498,0.555298
1470345969888488,-0.264343,0.250183,0.747864,0.555115
1470345969904012,-0.264099,0.249817,0.748169,0.554932
1470345969926549,-0.264038,0.249451,0.748474,0.55481
1470345969948576,-0.263855,0.249268,0.748657,0.554688
1470345969963582,-0.263794,0.249268,0.748657,0.554688
1470345969986604,-0.263733,0.249268,0.748718,0.554688
1470345970008760,-0.263794,0.249329,0.748657,0.554688
1470345970022792,-0.263794,0.249695,0.748596,0.554626
1470345970045847,-0.263855,0.250061,0.748474,0.554626
1470345970068894,-0.263855,0.250061,0.748474,0.554626
1470345970082850,-0.263977,0.250427,0.748291,0.554626
1470345970106427,-0.264099,0.250427,0.748169,0.554749
1470345970129006,-0.264099,0.250427,0.748169,0.554749
1470345970143020,-0.264099,0.250427,0.748169,0.554749
1470345970166084,-0.264099,0.250488,0.748169,0.554749
1470345970189061,-0.26416,0.250244,0.748169,0.554749
1470345970203163,-0.26416,0.250244,0.748169,0.554749
1470345970226205,-0.26416,0.250244,0.74823,0.554749
1470345970249226,-0.26416,0.250244,0.74823,0.554749
1470345970263239,-0.26416,0.250244,0.748169,0.554749
1470345970286296,-0.263977,0.25061,0.748352,0.554443
1470345970308804,-0.263855,0.250732,0.748718,0.553955
1470345970330340,-0.263977,0.250427,0.749146,0.553467
1470345970346354,-0.263977,0.250671,0.749268,0.553162
1470345970369375,-0.263855,0.250488,0.749512,0.552979
1470345970390391,-0.263733,0.250366,0.749695,0.552795
1470345970407469,-0.263733,0.250366,0.749695,0.552795
1470345970428492,-0.263672,0.250244,0.749878,0.552734
1470345970449511,-0.263611,0.250244,0.749878,0.552734
1470345970466527,-0.263611,0.250244,0.749878,0.552734
1470345970488617,-0.263611,0.250244,0.749878,0.552734
1470345970510157,-0.263611,0.250244,0.749878,0.552734
1470345970526206,-0.263611,0.250244,0.749878,0.552734
1470345970548315,-0.263611,0.250244,0.749878,0.552734
1470345970570245,-0.263611,0.250244,0.749878,0.552734
1470345970586260,-0.263611,0.250244,0.749878,0.552673
1470345970608786,-0.263611,0.250244,0.749878,0.552734
1470345970629861,-0.263611,0.250305,0.749878,0.552673
1470345970645897,-0.263611,0.250305,0.749878,0.552673
1470345970668917,-0.263611,0.250305,0.749878,0.552673
1470345970689956,-0.263611,0.250305,0.749878,0.552673
1470345970706463,-0.26355,0.250549,0.749939,0.55249
1470345970728998,-0.263611,0.250732,0.75,0.552307
1470345970751018,-0.263611,0.251221,0.75,0.552124
1470345970766032,-0.263611,0.251282,0.75,0.552124
1470345970789054,-0.263611,0.251282,0.75,0.552124
1470345970812084,-0.26355,0.251282,0.75,0.552124
1470345970826064,-0.26355,0.251282,0.75,0.552124
1470345970849122,-0.26355,0.251282,0.75,0.552124
1470345970871130,-0.26355,0.251587,0.749939,0.552063
1470345970886163,-0.263489,0.251648,0.749939,0.552063
1470345970909159,-0.263489,0.251648,0.749939,0.552063
1470345970931224,-0.263428,0.251831,0.75,0.551941
1470345970945281,-0.263306,0.252136,0.750061,0.551819
1470345970968299,-0.263306,0.252136,0.750061,0.551819
1470345970991281,-0.263306,0.252136,0.750061,0.551758
1470345971005828,-0.263306,0.252136,0.750061,0.551758
1470345971028433,-0.263184,0.252441,0.75,0.551697
1470345971051399,-0.263123,0.252747,0.750061,0.551514
1470345971065468,-0.262939,0.253113,0.750183,0.55127
1470345971088432,-0.262817,0.253296,0.750305,0.551147
1470345971111534,-0.262817,0.253296,0.750305,0.551147
1470345971125160,-0.262634,0.25354,0.750366,0.550964
1470345971149182,-0.262573,0.253784,0.750427,0.550842
1470345971171206,-0.26239,0.254089,0.750427,0.550781
1470345971185214,-0.26239,0.254089,0.750427,0.550781
1470345971210281,-0.26239,0.253723,0.750549,0.550781
1470345971230798,-0.26239,0.253723,0.750549,0.550781
1470345971245809,-0.26239,0.254211,0.750427,0.550781
1470345971268828,-0.26239,0.254211,0.750427,0.550781
1470345971290940,-0.262329,0.254211,0.750305,0.550903
1470345971312474,-0.262329,0.254211,0.749939,0.551392
1470345971328984,-0.26239,0.254333,0.749634,0.551819
1470345971351003,-0.262512,0.254761,0.749268,0.552002
1470345971372067,-0.262695,0.255188,0.748779,0.552368
1470345971389038,-0.263062,0.255371,0.748474,0.552612
1470345971411598,-0.263306,0.255798,0.748108,0.552673
1470345971432125,-0.26355,0.25647,0.747986,0.55249
1470345971449140,-0.263672,0.256775,0.747986,0.552307
1470345971471159,-0.263611,0.257202,0.747864,0.552246
1470345971492192,-0.263428,0.257141,0.747986,0.552246
1470345971508700,-0.26355,0.25647,0.74823,0.552124
1470345971531224,-0.263672,0.256226,0.748352,0.552002
1470345971552268,-0.263672,0.256042,0.748535,0.55188
1470345971569262,-0.263733,0.255188,0.748901,0.551697
1470345971591283,-0.26355,0.254089,0.749512,0.551453
1470345971612821,-0.263123,0.252625,0.750427,0.551147
1470345971629393,-0.262573,0.251282,0.751404,0.550659
1470345971651413,-0.261963,0.250183,0.75238,0.55011
1470345971673432,-0.261353,0.249084,0.753296,0.549622
1470345971688445,-0.260864,0.248169,0.753967,0.549316
1470345971711474,-0.260376,0.247986,0.754333,0.549194
1470345971734221,-0.260315,0.247986,0.754333,0.549194
1470345971756248,-0.260254,0.247986,0.754395,0.549194
1470345971771254,-0.260315,0.247681,0.754333,0.549316
1470345971794274,-0.260254,0.247437,0.754456,0.549316
1470345971816376,-0.260071,0.246826,0.7547,0.549316
1470345971831377,-0.259827,0.245483,0.755249,0.549377
1470345971853429,-0.259521,0.244324,0.755737,0.549316
1470345971868412,-0.259277,0.243408,0.756287,0.549072
1470345971891467,-0.259155,0.242798,0.756714,0.548828
1470345971913960,-0.258972,0.242188,0.757019,0.548767
1470345971928476,-0.25885,0.241394,0.757385,0.548645
1470345971951497,-0.258667,0.241028,0.757568,0.548645
1470345971973533,-0.258667,0.241028,0.757568,0.548645
1470345971988530,-0.25885,0.241028,0.757568,0.548584
1470345972011558,-0.258911,0.241699,0.757263,0.548645
1470345972034160,-0.259094,0.241821,0.757141,0.548706
1470345972048172,-0.259338,0.241943,0.757019,0.548706
1470345972071194,-0.25946,0.242371,0.756958,0.548523
1470345972093213,-0.259644,0.243103,0.756958,0.548157
1470345972108278,-0.259766,0.243835,0.756836,0.547852
1470345972131804,-0.259827,0.244141,0.756714,0.547913
1470345972153828,-0.26001,0.24408,0.756592,0.548035
1470345972167837,-0.260254,0.244385,0.756348,0.548035
1470345972190934,-0.260437,0.244812,0.756226,0.547974
1470345972213929,-0.260681,0.245178,0.756042,0.547913
1470345972234959,-0.260864,0.2453,0.75592,0.547974
1470345972250934,-0.260925,0.245483,0.755737,0.548096
1470345972273976,-0.260925,0.245483,0.755737,0.548096
1470345972295026,-0.261169,0.2453,0.755798,0.548035
1470345972311547,-0.261108,0.244995,0.755859,0.548096
1470345972333616,-0.261047,0.244324,0.756165,0.548035
1470345972354644,-0.260986,0.243713,0.756348,0.548035
1470345972371648,-0.260925,0.243469,0.75647,0.548035
1470345972393685,-0.260864,0.24353,0.75647,0.548035
1470345972415691,-0.260864,0.24353,0.75647,0.548035
1470345972431213,-0.260864,0.24353,0.756348,0.548157
1470345972454234,-0.260742,0.243591,0.756226,0.54834
1470345972476263,-0.260742,0.243591,0.756165,0.548462
1470345972491272,-0.260742,0.243713,0.755981,0.548645
1470345972513847,-0.260742,0.243713,0.755981,0.548645
1470345972535448,-0.260681,0.243713,0.755981,0.548645
1470345972551451,-0.26062,0.243958,0.755981,0.548645
1470345972573468,-0.26062,0.243958,0.755981,0.548645
1470345972594553,-0.26062,0.243958,0.755981,0.548645
1470345972611563,-0.260498,0.244263,0.755859,0.548645
1470345972633261,-0.260498,0.244263,0.75592,0.548645
1470345972656227,-0.260498,0.244263,0.755859,0.548645
1470345972671250,-0.260498,0.244263,0.755859,0.548645
1470345972694262,-0.260498,0.244324,0.75592,0.548645
1470345972716787,-0.260254,0.244568,0.75592,0.548584
1470345972731808,-0.260193,0.244934,0.75592,0.548462
1470345972753842,-0.260071,0.2453,0.75592,0.54834
1470345972775846,-0.260071,0.245605,0.75592,0.548218
1470345972790942,-0.260071,0.245605,0.75592,0.548218
1470345972813934,-0.260071,0.245911,0.75592,0.548096
1470345972835982,-0.259949,0.246216,0.755859,0.548035
1470345972850995,-0.259827,0.246521,0.755859,0.547974
1470345972874015,-0.259827,0.246582,0.755859,0.547974
1470345972896035,-0.259827,0.246521,0.75592,0.547974
1470345972911100,-0.259827,0.246582,0.755859,0.547974
1470345972933203,-0.259705,0.246704,0.756042,0.547791
1470345972956219,-0.25946,0.246948,0.756226,0.547424
1470345972971207,-0.259155,0.246826,0.756592,0.54718
1470345972994229,-0.258789,0.246338,0.757141,0.546814
1470345973016757,-0.258301,0.246216,0.75769,0.546326
1470345973030321,-0.257813,0.245972,0.75824,0.545959
1470345973053427,-0.257385,0.245667,0.758606,0.545715
1470345973076398,-0.25708,0.2453,0.758911,0.545593
1470345973090405,-0.256653,0.245056,0.759277,0.54541
1470345973098377,-0.256287,0.245056,0.759521,0.545227
1470345973119465,-0.256042,0.245483,0.759399,0.545349
1470345973141515,-0.256042,0.246216,0.759033,0.545593
1470345973158499,-0.256287,0.246887,0.758545,0.545776
1470345973179526,-0.256775,0.247742,0.757935,0.546021
1470345973201594,-0.257141,0.248657,0.757263,0.546387
1470345973218600,-0.257263,0.249817,0.756714,0.54657
1470345973239685,-0.257385,0.250916,0.756226,0.546631
1470345973261648,-0.257507,0.251648,0.75592,0.546692
1470345973278659,-0.257813,0.251831,0.755615,0.546875
1470345973299678,-0.258057,0.25177,0.755493,0.546936
1470345973321881,-0.258057,0.25177,0.755493,0.546936
1470345973337806,-0.258057,0.251892,0.755554,0.546814
1470345973358880,-0.257996,0.252136,0.755615,0.546631
1470345973381911,-0.25769,0.252014,0.755737,0.546692
1470345973397860,-0.25769,0.252014,0.755737,0.546692
1470345973419470,-0.257446,0.251892,0.755676,0.546936
1470345973442028,-0.257385,0.251892,0.755676,0.546936
1470345973458010,-0.257385,0.251892,0.755676,0.546936
1470345973479030,-0.257385,0.252319,0.755554,0.546936
1470345973502115,-0.257446,0.25238,0.755554,0.546936
1470345973519636,-0.25769,0.252258,0.755554,0.546875
1470345973539112,-0.25769,0.252075,0.755676,0.546753
1470345973562078,-0.257568,0.25177,0.755981,0.546509
1470345973580186,-0.257202,0.251038,0.756531,0.546265
1470345973599193,-0.256714,0.250061,0.757324,0.545837
1470345973621868,-0.256042,0.248901,0.758179,0.545532
1470345973639885,-0.255493,0.247986,0.758972,0.545105
1470345973658935,-0.255005,0.247131,0.759644,0.5448
1470345973681953,-0.254639,0.246521,0.760193,0.544495
1470345973699972,-0.254395,0.245483,0.760742,0.54425
1470345973719518,-0.254089,0.245056,0.761108,0.544128
1470345973741655,-0.254028,0.244995,0.761108,0.544128
1470345973759613,-0.254028,0.244995,0.761108,0.544128
1470345973779636,-0.254089,0.244751,0.761108,0.544189
1470345973809681,-0.254395,0.244446,0.761047,0.544312
1470345973819691,-0.254578,0.244202,0.760986,0.544373
1470345973839073,-0.254639,0.243713,0.761169,0.544373
1470345973862076,-0.2547,0.243042,0.761475,0.544189
1470345973880096,-0.254639,0.242004,0.762085,0.543823
1470345973899157,-0.254333,0.24054,0.762939,0.543396
1470345973922205,-0.253906,0.239136,0.763855,0.542908
1470345973939223,-0.253418,0.237854,0.764771,0.54248
1470345973959281,-0.253052,0.236816,0.765442,0.542114
1470345973982264,-0.252686,0.236145,0.766052,0.541748
1470345974000282,-0.252319,0.235291,0.766602,0.541443
1470345974019386,-0.252014,0.23468,0.767029,0.54126
1470345974042181,-0.25177,0.23407,0.767395,0.541138
1470345974060233,-0.25177,0.233704,0.767578,0.541077
1470345974079229,-0.251892,0.233765,0.767639,0.540894
1470345974102329,-0.252136,0.233948,0.767578,0.540833
1470345974119873,-0.252258,0.234436,0.767456,0.54071
1470345974139203,-0.252319,0.234863,0.767273,0.54071
1470345974162199,-0.252441,0.235107,0.767029,0.540955
1470345974180212,-0.252625,0.235596,0.766724,0.541077
1470345974201231,-0.252869,0.236206,0.766418,0.541077
1470345974222397,-0.253235,0.236572,0.766113,0.541199
1470345974239373,-0.253601,0.236816,0.765808,0.541321
1470345974260391,-0.254028,0.236633,0.765625,0.541504
1470345974281434,-0.254395,0.236389,0.765503,0.541626
1470345974299425,-0.254578,0.236023,0.765503,0.541687
1470345974319999,-0.254578,0.235413,0.765686,0.541626
1470345974341393,-0.254578,0.234985,0.765747,0.541748
1470345974359359,-0.254639,0.234375,0.76593,0.541809
1470345974380408,-0.254761,0.233887,0.76593,0.541931
1470345974401482,-0.254822,0.233643,0.76593,0.541992
1470345974419915,-0.254822,0.233704,0.76593,0.541992
1470345974440438,-0.254822,0.233704,0.76593,0.541992
1470345974461459,-0.254822,0.233765,0.76593,0.541992
1470345974479474,-0.254761,0.233704,0.76593,0.541992
1470345974500492,-0.254761,0.234009,0.765869,0.541931
1470345974521594,-0.254761,0.234009,0.765869,0.541931
1470345974539541,-0.254761,0.233704,0.765991,0.541931
1470345974562561,-0.254822,0.233398,0.766113,0.54187
1470345974589589,-0.255005,0.233276,0.766052,0.541931
1470345974599595,-0.254944,0.233276,0.766052,0.541931
1470345974622481,-0.254944,0.233276,0.766052,0.541931
1470345974641526,-0.254944,0.233276,0.766052,0.541931
1470345974659489,-0.255066,0.233276,0.76593,0.542053
1470345974682541,-0.255127,0.233337,0.765808,0.542114
1470345974701527,-0.25531,0.233704,0.765625,0.542175
1470345974720085,-0.255432,0.23407,0.765442,0.542175
1470345974742743,-0.255737,0.233887,0.765503,0.542114
1470345974761647,-0.255859,0.233582,0.765564,0.542053
1470345974779645,-0.255859,0.233582,0.765564,0.542053
1470345974801664,-0.255798,0.233582,0.765564,0.542053
1470345974821785,-0.255798,0.233582,0.765564,0.542053
1470345974839756,-0.255798,0.233582,0.765564,0.542053
1470345974861776,-0.255798,0.233582,0.765564,0.542053
1470345974881838,-0.255798,0.233582,0.765564,0.542053
1470345974899862,-0.255859,0.233826,0.765503,0.542053
1470345974922466,-0.255859,0.234436,0.76532,0.541992
1470345974941486,-0.255737,0.235168,0.76532,0.541748
1470345974959500,-0.255798,0.235229,0.76532,0.541687
1470345974982528,-0.255859,0.235046,0.765442,0.541626
1470345975001592,-0.255859,0.235046,0.765442,0.541626
1470345975020167,-0.255737,0.235535,0.765503,0.541382
1470345975041738,-0.255554,0.236145,0.765625,0.541016
1470345975062758,-0.255493,0.236633,0.765686,0.54071
1470345975086779,-0.255493,0.236694,0.765686,0.54071
1470345975101792,-0.255493,0.236755,0.765808,0.540527
1470345975121378,-0.255249,0.237244,0.765747,0.540466
1470345975139394,-0.254944,0.237671,0.765869,0.540283
1470345975162414,-0.254761,0.238037,0.765991,0.540039
1470345975183434,-0.2547,0.238647,0.765869,0.539978
1470345975199448,-0.2547,0.238647,0.765869,0.539917
1470345975222159,-0.2547,0.238403,0.76593,0.539978
1470345975243177,-0.2547,0.238403,0.76593,0.539978
1470345975260192,-0.2547,0.238403,0.76593,0.539978
1470345975282226,-0.255005,0.237976,0.765991,0.539917
1470345975310772,-0.25531,0.237427,0.766052,0.539917
1470345975319781,-0.255554,0.237,0.766235,0.539734
1470345975341807,-0.255554,0.236633,0.766479,0.539551
1470345975364832,-0.255432,0.236328,0.766785,0.539246
1470345975379842,-0.255249,0.236206,0.767029,0.539063
1470345975401862,-0.255127,0.235901,0.767334,0.538879
1470345975422891,-0.255005,0.23584,0.767517,0.538635
1470345975439908,-0.255005,0.23584,0.767517,0.538635
1470345975461927,-0.254944,0.235657,0.7677,0.538574
1470345975482945,-0.255005,0.235474,0.767944,0.538269
1470345975499963,-0.255005,0.235535,0.768066,0.538086
1470345975529999,-0.255066,0.235291,0.768127,0.538025
1470345975545012,-0.255188,0.234985,0.768188,0.537964
1470345975560026,-0.25531,0.234985,0.768066,0.538086
1470345975582045,-0.255554,0.234863,0.768005,0.538147
1470345975605066,-0.255737,0.234741,0.767883,0.53833
1470345975620086,-0.255798,0.234802,0.767761,0.538452
1470345975641119,-0.25592,0.234863,0.767578,0.538574
1470345975664132,-0.256104,0.234924,0.767456,0.538696
1470345975685192,-0.256104,0.234985,0.767395,0.538635
1470345975701163,-0.256104,0.235046,0.767456,0.538635
1470345975724260,-0.256104,0.235046,0.767395,0.538635
1470345975745272,-0.256104,0.235107,0.767395,0.538635
1470345975761283,-0.256104,0.235107,0.767395,0.538635
1470345975783347,-0.256165,0.235107,0.767395,0.538635
1470345975798317,-0.256104,0.235107,0.767395,0.538635
1470345975821345,-0.256104,0.235107,0.767395,0.538635
1470345975843413,-0.255981,0.235291,0.767456,0.538574
1470345975865391,-0.255798,0.235535,0.767456,0.538574
1470345975881405,-0.255798,0.235535,0.767456,0.538574
1470345975903477,-0.255615,0.236145,0.767456,0.538391
1470345975926214,-0.255432,0.236938,0.767456,0.538147
1470345975941227,-0.255188,0.237305,0.767517,0.537903
1470345975964247,-0.255066,0.237305,0.767639,0.537842
1470345975978260,-0.254944,0.237122,0.767761,0.537781
1470345976001309,-0.254761,0.237366,0.767944,0.537537
1470345976023716,-0.254333,0.238037,0.768066,0.537231
1470345976044733,-0.254089,0.238159,0.76825,0.537048
1470345976061752,-0.253967,0.237915,0.768372,0.537109
1470345976083769,-0.253784,0.238037,0.768188,0.537354
1470345976104857,-0.253784,0.23877,0.767944,0.537415
1470345976121349,-0.253906,0.239624,0.767639,0.537354
1470345976143701,-0.254028,0.240723,0.767334,0.537231
1470345976164773,-0.253967,0.241699,0.767029,0.537292
1470345976181734,-0.253845,0.24231,0.766724,0.537537
1470345976203759,-0.253784,0.242432,0.766541,0.53772
1470345976224950,-0.253784,0.242859,0.766418,0.537781
1470345976240925,-0.253906,0.243347,0.766174,0.537842
1470345976263945,-0.253967,0.243591,0.765991,0.537964
1470345976284963,-0.253967,0.243591,0.765991,0.537903
1470345976301062,-0.253784,0.243469,0.76593,0.538147
1470345976324143,-0.253723,0.243103,0.765991,0.538269
1470345976345169,-0.253662,0.242615,0.766113,0.538269
1470345976361173,-0.253662,0.242615,0.766113,0.538269
1470345976384161,-0.25354,0.24292,0.766113,0.538208
1470345976406180,-0.253235,0.242798,0.766113,0.538391
1470345976421700,-0.253052,0.242126,0.766296,0.538513
1470345976443978,-0.253113,0.241577,0.766418,0.538635
1470345976465998,-0.252991,0.241394,0.766479,0.538635
1470345976481012,-0.252991,0.241272,0.766602,0.538513
1470345976504034,-0.253113,0.241089,0.766724,0.538452
1470345976526085,-0.253235,0.240723,0.766785,0.538391
1470345976549108,-0.253235,0.240112,0.766907,0.538513
1470345976564120,-0.253174,0.239136,0.76709,0.538696
1470345976586215,-0.253174,0.237976,0.767456,0.538757
1470345976601153,-0.253174,0.236694,0.767944,0.538574
1470345976624262,-0.253113,0.235352,0.768555,0.53833
1470345976646285,-0.252869,0.233948,0.769409,0.537781
1470345976660294,-0.252686,0.232605,0.770447,0.537048
1470345976683331,-0.252441,0.231628,0.771423,0.536133
1470345976706337,-0.252075,0.230408,0.7724,0.5354
1470345976721858,-0.251831,0.22937,0.77301,0.535095
1470345976744144,-0.251587,0.228516,0.773315,0.535156
1470345976772190,-0.251404,0.227722,0.77356,0.535217
1470345976780249,-0.251465,0.226868,0.773743,0.535278
1470345976804193,-0.251648,0.226257,0.773804,0.535339
1470345976826302,-0.251892,0.226135,0.773743,0.5354
1470345976840310,-0.252075,0.22644,0.77356,0.535461
1470345976863360,-0.252136,0.226685,0.773376,0.535583
1470345976886373,-0.252319,0.226929,0.773132,0.535767
1470345976900365,-0.252441,0.226929,0.772949,0.53595
1470345976923439,-0.252686,0.226868,0.772888,0.53595
1470345976946460,-0.252991,0.226746,0.772888,0.535889
1470345976967521,-0.253235,0.226685,0.772888,0.535828
1470345976983492,-0.253357,0.226257,0.77301,0.535767
1470345977006512,-0.253418,0.22583,0.773071,0.535828
1470345977027281,-0.25354,0.22522,0.773132,0.535828
1470345977044258,-0.253601,0.224548,0.773193,0.536072
1470345977066326,-0.253662,0.224304,0.773132,0.536255
1470345977087333,-0.253845,0.22406,0.773071,0.536316
1470345977103367,-0.253967,0.223938,0.772949,0.536499
1470345977125861,-0.254089,0.223877,0.772766,0.536743
1470345977147877,-0.254272,0.223938,0.772583,0.536865
1470345977163890,-0.254272,0.223938,0.772644,0.536865
1470345977185910,-0.254272,0.223938,0.772644,0.536865
1470345977207931,-0.254333,0.223755,0.772583,0.536865
1470345977223541,-0.254517,0.223511,0.772644,0.536865
1470345977253835,-0.254517,0.223511,0.772644,0.536804
1470345977267931,-0.254639,0.223328,0.772705,0.536804
1470345977283863,-0.254639,0.223328,0.772705,0.536804
1470345977305918,-0.254578,0.223389,0.772705,0.536804
1470345977326946,-0.254578,0.223389,0.772705,0.536804
1470345977343962,-0.254578,0.223389,0.772705,0.536804
1470345977365992,-0.254517,0.223389,0.772705,0.536804
1470345977387042,-0.2547,0.223755,0.772583,0.536804
1470345977403017,-0.2547,0.223755,0.772583,0.536804
1470345977426098,-0.2547,0.223755,0.772583,0.536804
1470345977449119,-0.2547,0.223816,0.772583,0.536804
1470345977471138,-0.254578,0.224121,0.772522,0.536743
1470345977486152,-0.254578,0.224121,0.772522,0.536682
1470345977509256,-0.254578,0.224182,0.772522,0.536682
1470345977523767,-0.254517,0.224609,0.772522,0.536621
1470345977545969,-0.254517,0.224609,0.772522,0.536621
1470345977568989,-0.254517,0.224854,0.772461,0.53656
1470345977583050,-0.254517,0.225159,0.7724,0.536499
1470345977606037,-0.254517,0.225464,0.7724,0.536377
1470345977629171,-0.254517,0.225464,0.7724,0.536377
1470345977643208,-0.254333,0.225708,0.7724,0.536316
1470345977666214,-0.25415,0.226013,0.772522,0.536194
1470345977689225,-0.253967,0.226318,0.772583,0.536011
1470345977703256,-0.253845,0.226746,0.772583,0.535889
1470345977726590,-0.253845,0.227051,0.772522,0.535828
1470345977748609,-0.253845,0.227051,0.772522,0.535828
1470345977763624,-0.253784,0.227112,0.772644,0.535645
1470345977786648,-0.253784,0.227112,0.772644,0.535645
1470345977808665,-0.253601,0.227356,0.772644,0.535706
1470345977823187,-0.253418,0.227661,0.772644,0.535645
1470345977846766,-0.253601,0.227539,0.772522,0.535828
1470345977868801,-0.253723,0.2276,0.772339,0.53595
1470345977889801,-0.253906,0.228027,0.772095,0.536072
1470345977906828,-0.254211,0.228333,0.771851,0.536133
1470345977928592,-0.254456,0.228638,0.771606,0.536194
1470345977949652,-0.254761,0.228943,0.771423,0.536255
1470345977966627,-0.255127,0.229309,0.771118,0.536255
1470345977988658,-0.255371,0.229553,0.770935,0.536377
1470345978010173,-0.255432,0.229919,0.770813,0.536316
1470345978026743,-0.255493,0.22998,0.770813,0.536316
1470345978048779,-0.255493,0.230042,0.770813,0.536316
1470345978069814,-0.255554,0.229919,0.770874,0.536194
1470345978086798,-0.255493,0.229919,0.770874,0.536194
1470345978108866,-0.255493,0.229919,0.770874,0.536194
1470345978130913,-0.255493,0.229919,0.770874,0.536194
1470345978145947,-0.255493,0.22998,0.770874,0.536194
1470345978168923,-0.255493,0.230347,0.770874,0.536072
1470345978189948,-0.255432,0.230774,0.770813,0.536011
1470345978206017,-0.255371,0.231201,0.770752,0.535889
1470345978229119,-0.255371,0.231689,0.770691,0.535828
1470345978250151,-0.255249,0.232422,0.77063,0.535645
1470345978266247,-0.255127,0.233032,0.770447,0.535583
1470345978289174,-0.255005,0.233521,0.770386,0.535583
1470345978310256,-0.254944,0.233948,0.770203,0.535645
1470345978326790,-0.254944,0.234436,0.77002,0.535706
1470345978348810,-0.254883,0.235291,0.769836,0.535706
1470345978371831,-0.254883,0.235779,0.769653,0.535706
1470345978386845,-0.254761,0.236267,0.769531,0.535706
1470345978408866,-0.2547,0.236633,0.769409,0.535767
1470345978430897,-0.2547,0.236694,0.769409,0.535706
1470345978446912,-0.2547,0.236694,0.769409,0.535706
1470345978468931,-0.2547,0.236694,0.769409,0.535706
1470345978490965,-0.254639,0.236938,0.769287,0.535828
1470345978505963,-0.254517,0.237244,0.769165,0.53595
1470345978529024,-0.254639,0.237,0.769226,0.535889
1470345978551045,-0.254578,0.237244,0.769165,0.53595
1470345978566058,-0.254456,0.237549,0.769104,0.53595
1470345978589078,-0.254333,0.237854,0.768982,0.536011
1470345978611648,-0.254333,0.238159,0.768921,0.536011
1470345978626162,-0.254272,0.23822,0.768921,0.536011
1470345978649188,-0.254211,0.23822,0.768921,0.536011
1470345978671208,-0.253906,0.238892,0.768921,0.535828
1470345978692239,-0.253662,0.239502,0.76886,0.535767
1470345978710283,-0.253479,0.23999,0.768921,0.535583
1470345978731875,-0.253418,0.240234,0.768799,0.535645
