timestamp,x,y,z,w
1470242759059073,-0.019104,0.219543,-0.947571,0.231384
1470242759083095,-0.019104,0.219543,-0.947571,0.231445
1470242759111621,-0.019104,0.219543,-0.947571,0.231445
1470242759120128,-0.019104,0.219543,-0.947571,0.231445
1470242759141647,-0.019104,0.219482,-0.947571,0.231445
1470242759165670,-0.019165,0.219482,-0.947571,0.231384
1470242759180182,-0.019165,0.219482,-0.947571,0.231384
1470242759231728,-0.019165,0.219482,-0.947571,0.231384
1470242759241737,-0.019165,0.219482,-0.947571,0.231384
1470242759248243,-0.019165,0.219482,-0.947571,0.231384
1470242759262256,-0.019165,0.219482,-0.947571,0.231384
1470242759284776,-0.019165,0.219482,-0.947571,0.231384
1470242759299289,-0.019165,0.219482,-0.947632,0.231445
1470242759322810,-0.019165,0.219421,-0.947632,0.231445
1470242759368852,-0.019165,0.219421,-0.947632,0.231384
1470242759369852,-0.019165,0.219421,-0.947632,0.231384
1470242759382864,-0.019165,0.219421,-0.947632,0.231384
1470242759405384,-0.019165,0.219421,-0.947632,0.231384
1470242759420398,-0.019165,0.219421,-0.947632,0.231384
1470242759444420,-0.019165,0.21936,-0.947632,0.231384
1470242759465438,-0.019165,0.219421,-0.947632,0.231384
1470242759480452,-0.019165,0.219421,-0.947632,0.231384
1470242759503473,-0.019165,0.219421,-0.947632,0.231384
1470242759524491,-0.019165,0.21936,-0.947632,0.231384
1470242759547011,-0.019165,0.21936,-0.947632,0.231384
1470242759563527,-0.019165,0.21936,-0.947632,0.231384
1470242759584545,-0.019165,0.21936,-0.947632,0.231384
1470242759600560,-0.019165,0.21936,-0.947632,0.231384
1470242759623581,-0.019165,0.21936,-0.947632,0.231384
1470242759646101,-0.019165,0.21936,-0.947632,0.231384
1470242759660613,-0.0192261,0.21936,-0.947632,0.231384
1470242759683634,-0.0192261,0.21936,-0.947632,0.231384
1470242759706154,-0.0192261,0.219299,-0.947632,0.231384
1470242759720167,-0.0192261,0.219299,-0.947632,0.231384
1470242759743688,-0.0192261,0.219299,-0.947632,0.231384
1470242759766207,-0.0192261,0.219299,-0.947632,0.231384
1470242759780221,-0.0192261,0.219299,-0.947632,0.231384
1470242759803742,-0.0192261,0.219238,-0.947632,0.231384
1470242759826262,-0.0192261,0.219238,-0.947632,0.231384
1470242759840275,-0.0192261,0.219238,-0.947632,0.231384
1470242759864296,-0.0192261,0.219238,-0.947632,0.231384
1470242759885815,-0.0192261,0.219238,-0.947632,0.231384
1470242759900329,-0.0192261,0.219177,-0.947632,0.231384
1470242759923349,-0.0192261,0.219238,-0.947632,0.231384
1470242759945870,-0.0192261,0.219177,-0.947693,0.231384
1470242759960383,-0.0192261,0.219238,-0.947632,0.231384
1470242759983404,-0.0192261,0.219177,-0.947693,0.231384
1470242760005923,-0.0192261,0.219177,-0.947693,0.231384
1470242760020437,-0.0192261,0.219177,-0.947693,0.231384
1470242760043458,-0.0192261,0.219177,-0.947693,0.231384
1470242760065977,-0.019165,0.219177,-0.947693,0.231445
1470242760080492,-0.019165,0.219177,-0.947693,0.231445
1470242760111018,-0.019165,0.219177,-0.947693,0.231384
1470242760126031,-0.019165,0.219116,-0.947693,0.231445
1470242760147051,-0.0192261,0.219177,-0.947693,0.231384
1470242760163565,-0.0192261,0.219177,-0.947693,0.231384
1470242760186085,-0.0192261,0.219116,-0.947693,0.231384
1470242760207105,-0.019165,0.219116,-0.947693,0.231445
1470242760223619,-0.019165,0.219055,-0.947693,0.231445
1470242760246139,-0.019165,0.219116,-0.947693,0.231445
1470242760267158,-0.0192261,0.219116,-0.947693,0.231384
1470242760283673,-0.0192261,0.219116,-0.947693,0.231384
1470242760312198,-0.0192261,0.219055,-0.947693,0.231445
1470242760327211,-0.019165,0.219055,-0.947693,0.231445
1470242760351233,-0.0192261,0.219055,-0.947693,0.231445
1470242760365247,-0.019165,0.219055,-0.947693,0.231445
1470242760388768,-0.019165,0.219055,-0.947693,0.231445
1470242760410787,-0.019165,0.219055,-0.947693,0.231445
1470242760425300,-0.019165,0.218994,-0.947693,0.231445
1470242760448320,-0.019165,0.218994,-0.947693,0.231445
1470242760470840,-0.019165,0.218994,-0.947693,0.231445
1470242760485354,-0.019165,0.218994,-0.947693,0.231445
1470242760508375,-0.019165,0.218994,-0.947693,0.231445
1470242760530895,-0.019165,0.218994,-0.947693,0.231445
1470242760545408,-0.019165,0.218994,-0.947693,0.231445
1470242760568430,-0.019165,0.218994,-0.947693,0.231445
1470242760591449,-0.019165,0.218933,-0.947693,0.231445
1470242760612469,-0.019165,0.218933,-0.947693,0.231445
1470242760635991,-0.019165,0.218933,-0.947693,0.231445
1470242760651003,-0.019165,0.218933,-0.947693,0.231445
1470242760672022,-0.019165,0.218933,-0.947754,0.231445
1470242760688537,-0.019165,0.218933,-0.947754,0.231445
1470242760711056,-0.019165,0.218872,-0.947754,0.231445
1470242760732080,-0.019165,0.218872,-0.947754,0.231445
1470242760748590,-0.019165,0.218872,-0.947754,0.231445
1470242760771110,-0.019165,0.218872,-0.947754,0.231445
1470242760792131,-0.019165,0.218811,-0.947754,0.231445
1470242760808644,-0.019165,0.218872,-0.947754,0.231445
1470242760831165,-0.019165,0.218872,-0.947754,0.231445
1470242760852184,-0.019165,0.218811,-0.947754,0.231445
1470242760868697,-0.019165,0.218811,-0.947754,0.231445
1470242760891218,-0.019104,0.218811,-0.947754,0.231445
1470242760912238,-0.019165,0.218811,-0.947754,0.231445
1470242760928752,-0.019165,0.218811,-0.947754,0.231445
1470242760950771,-0.019165,0.218811,-0.947754,0.231445
1470242760973292,-0.019165,0.21875,-0.947754,0.231445
1470242760988305,-0.019165,0.21875,-0.947754,0.231445
1470242761011326,-0.019165,0.21875,-0.947754,0.231445
1470242761032345,-0.019165,0.21875,-0.947754,0.231445
1470242761048361,-0.019165,0.21875,-0.947754,0.231445
1470242761070879,-0.019165,0.21875,-0.947754,0.231445
1470242761093417,-0.019165,0.21875,-0.947754,0.231445
1470242761107930,-0.019165,0.21875,-0.947754,0.231445
1470242761130934,-0.019165,0.218689,-0.947754,0.231445
1470242761153479,-0.019165,0.218689,-0.947754,0.231445
1470242761168467,-0.019165,0.218689,-0.947754,0.231445
1470242761190989,-0.019165,0.218689,-0.947754,0.231445
1470242761213507,-0.019165,0.218689,-0.947754,0.231445
1470242761228025,-0.019165,0.218689,-0.947754,0.231445
1470242761251042,-0.019165,0.218689,-0.947754,0.231445
1470242761273565,-0.019104,0.218689,-0.947754,0.231445
1470242761288074,-0.019165,0.218628,-0.947754,0.231445
1470242761311095,-0.0189209,0.218689,-0.947754,0.231384
1470242761333616,-0.0187378,0.219116,-0.947693,0.231384
1470242761347629,-0.0187378,0.219543,-0.947571,0.231384
1470242761371151,-0.0187378,0.219543,-0.947571,0.231384
1470242761393671,-0.0187378,0.219543,-0.947571,0.231384
1470242761407682,-0.0185547,0.219177,-0.947693,0.231384
1470242761431204,-0.0184937,0.219177,-0.947693,0.231384
1470242761453723,-0.0186768,0.21936,-0.947632,0.231323
1470242761467736,-0.0186768,0.21936,-0.947632,0.231323
1470242761490758,-0.0186768,0.21936,-0.947632,0.231323
1470242761513777,-0.0186768,0.21936,-0.947632,0.231323
1470242761527789,-0.0186768,0.21936,-0.947632,0.231323
1470242761550810,-0.0186768,0.21936,-0.947632,0.231323
1470242761573357,-0.0186768,0.21936,-0.947632,0.231323
1470242761594872,-0.0186768,0.21936,-0.947632,0.231323
1470242761611365,-0.0186768,0.21936,-0.947632,0.231323
1470242761633385,-0.0186768,0.219299,-0.947693,0.231323
1470242761654904,-0.0186768,0.219299,-0.947693,0.231323
1470242761670918,-0.0186157,0.219299,-0.947693,0.231323
1470242761693439,-0.0186157,0.219299,-0.947693,0.231323
1470242761714957,-0.0186157,0.219299,-0.947693,0.231323
1470242761730972,-0.0186157,0.219299,-0.947693,0.231323
1470242761753534,-0.0186157,0.219299,-0.947693,0.231323
1470242761774511,-0.0186157,0.219299,-0.947693,0.231323
1470242761791027,-0.0186157,0.219299,-0.947693,0.231323
1470242761813546,-0.0185547,0.219299,-0.947693,0.231323
1470242761834599,-0.0185547,0.219299,-0.947693,0.231323
1470242761851082,-0.0185547,0.219299,-0.947693,0.231323
1470242761873602,-0.0185547,0.219299,-0.947693,0.231323
1470242761894624,-0.0185547,0.219299,-0.947693,0.231323
1470242761911134,-0.0185547,0.219238,-0.947693,0.231323
1470242761933656,-0.0185547,0.219238,-0.947693,0.231323
1470242761954729,-0.0185547,0.219238,-0.947693,0.231323
1470242761978695,-0.0185547,0.219238,-0.947693,0.231323
1470242761993752,-0.0185547,0.219238,-0.947693,0.231384
1470242762016233,-0.0185547,0.219238,-0.947693,0.231323
1470242762031277,-0.0185547,0.219238,-0.947693,0.231384
1470242762053761,-0.0185547,0.219238,-0.947693,0.231323
1470242762076314,-0.0185547,0.219238,-0.947693,0.231384
1470242762091311,-0.0185547,0.219177,-0.947693,0.231323
1470242762113316,-0.0185547,0.219177,-0.947693,0.231384
1470242762136353,-0.0185547,0.219177,-0.947693,0.231384
1470242762150349,-0.0185547,0.219177,-0.947693,0.231384
1470242762173369,-0.0184937,0.219177,-0.947693,0.231384
1470242762196390,-0.0184937,0.219116,-0.947693,0.231384
1470242762218410,-0.0184937,0.219116,-0.947693,0.231384
1470242762233423,-0.0184937,0.219116,-0.947693,0.231384
1470242762256444,-0.0183105,0.219116,-0.947693,0.231384
1470242762270459,-0.0183105,0.219116,-0.947693,0.231384
1470242762293477,-0.0183105,0.219116,-0.947693,0.231384
1470242762315999,-0.0182495,0.219055,-0.947693,0.231384
1470242762330520,-0.0182495,0.219055,-0.947693,0.231384
1470242762353531,-0.0181274,0.21936,-0.947632,0.231445
1470242762376052,-0.0181274,0.219666,-0.94751,0.231567
1470242762390590,-0.0181274,0.219666,-0.94751,0.231628
1470242762413586,-0.0183105,0.21991,-0.94751,0.231506
1470242762436128,-0.0184937,0.220276,-0.947388,0.231567
1470242762450629,-0.0187988,0.220581,-0.947327,0.231567
1470242762473639,-0.0187988,0.220581,-0.947327,0.231567
1470242762496162,-0.0186157,0.22052,-0.947388,0.231445
1470242762517230,-0.0187988,0.221375,-0.947144,0.231445
1470242762533696,-0.0194092,0.222534,-0.946838,0.231506
1470242762556251,-0.0198975,0.22345,-0.946594,0.23175
1470242762577275,-0.0198364,0.222961,-0.946716,0.23175
1470242762593761,-0.0198975,0.2229,-0.946716,0.23175
1470242762616267,-0.020752,0.223267,-0.946594,0.23175
1470242762637292,-0.0215454,0.223022,-0.946533,0.231995
1470242762653802,-0.0218506,0.221924,-0.946777,0.232117
1470242762675820,-0.0219116,0.220276,-0.947205,0.232056
1470242762697352,-0.0223999,0.219543,-0.947327,0.232117
1470242762713355,-0.0228882,0.219788,-0.947266,0.232056
1470242762736380,-0.0238647,0.220703,-0.947021,0.232117
1470242762757393,-0.024353,0.220459,-0.947083,0.232056
1470242762773908,-0.024292,0.219971,-0.947205,0.231995
1470242762795928,-0.0245972,0.219604,-0.947327,0.231934
1470242762817448,-0.0252686,0.219849,-0.947205,0.231995
1470242762833462,-0.0256348,0.219421,-0.947266,0.232117
1470242762855982,-0.0262451,0.218994,-0.947327,0.232239
1470242762877591,-0.0264282,0.218201,-0.94751,0.2323
1470242762893516,-0.0266113,0.217224,-0.947632,0.232605
1470242762916085,-0.0270386,0.216309,-0.947754,0.233032
1470242762937107,-0.0274048,0.215759,-0.947754,0.233398
1470242762953573,-0.0280762,0.215881,-0.947571,0.233948
1470242762976103,-0.0285645,0.215149,-0.947571,0.234558
1470242762998612,-0.0286865,0.214661,-0.947571,0.235107
1470242763013625,-0.0288696,0.213745,-0.947693,0.235413
1470242763036144,-0.0296021,0.21344,-0.947632,0.235657
1470242763058664,-0.0301514,0.213318,-0.947632,0.235718
1470242763072677,-0.0303955,0.213135,-0.947571,0.236084
1470242763096249,-0.0303345,0.21283,-0.947571,0.236389
1470242763118718,-0.0306396,0.213074,-0.94751,0.236511
1470242763133733,-0.0311279,0.212769,-0.94751,0.236755
1470242763156296,-0.0317383,0.212402,-0.94751,0.237
1470242763178773,-0.0322266,0.212219,-0.947388,0.237427
1470242763192786,-0.0324707,0.211914,-0.947327,0.238037
1470242763216307,-0.0325317,0.211731,-0.947266,0.238464
1470242763238833,-0.0325928,0.211182,-0.947266,0.238892
1470242763252838,-0.0327759,0.211121,-0.947205,0.239197
1470242763260351,-0.0330811,0.211182,-0.947083,0.239441
1470242763281911,-0.0333252,0.211121,-0.947083,0.239624
1470242763303940,-0.0335693,0.211182,-0.94696,0.239868
1470242763320399,-0.0336304,0.211548,-0.946838,0.240112
1470242763341476,-0.0338135,0.211731,-0.946716,0.240356
1470242763363988,-0.0340576,0.211853,-0.946655,0.240479
1470242763380475,-0.0340576,0.211914,-0.946655,0.240479
1470242763401475,-0.0343018,0.212219,-0.946594,0.240356
1470242763423993,-0.0343018,0.212219,-0.946594,0.240356
1470242763440508,-0.0342407,0.212463,-0.946533,0.240295
1470242763461616,-0.0342407,0.212646,-0.946533,0.240356
1470242763484099,-0.0342407,0.213074,-0.946411,0.240356
1470242763500562,-0.0340576,0.213135,-0.946411,0.240417
1470242763521580,-0.0340576,0.213135,-0.946411,0.240417
1470242763544158,-0.0339966,0.213745,-0.946289,0.240356
1470242763560618,-0.0339355,0.215149,-0.946045,0.23999
1470242763581634,-0.0338135,0.217468,-0.945679,0.239319
1470242763604154,-0.0330811,0.218872,-0.945557,0.238586
1470242763620672,-0.0319824,0.218994,-0.945679,0.238281
1470242763641688,-0.0324097,0.221558,-0.94519,0.237671
1470242763664208,-0.0327759,0.226379,-0.944153,0.237244
1470242763686727,-0.0313721,0.23114,-0.943176,0.236755
1470242763701741,-0.0291748,0.232361,-0.943054,0.236267
1470242763724293,-0.0273438,0.229187,-0.944031,0.235779
1470242763746782,-0.0283813,0.231323,-0.943604,0.235291
1470242763761796,-0.0300903,0.235962,-0.942627,0.234314
1470242763784316,-0.0304565,0.239441,-0.941833,0.233948
1470242763806844,-0.0298462,0.239502,-0.942017,0.233337
1470242763821855,-0.0291138,0.237671,-0.942627,0.232666
1470242763844462,-0.0285645,0.236267,-0.943115,0.232239
1470242763861945,-0.0284424,0.236694,-0.943054,0.232117
1470242763881404,-0.0291138,0.238953,-0.942444,0.232117
1470242763903923,-0.0296631,0.240234,-0.942139,0.232056
1470242763921941,-0.0294189,0.239258,-0.942322,0.232239
1470242763941491,-0.0287476,0.237061,-0.942871,0.232361
1470242763964022,-0.0281372,0.235168,-0.943298,0.232544
1470242763982038,-0.0280762,0.234192,-0.943481,0.23291
1470242764001524,-0.0286255,0.234375,-0.943359,0.233093
1470242764024052,-0.0293579,0.234497,-0.943359,0.232849
1470242764042132,-0.0296021,0.234375,-0.943481,0.232605
1470242764061609,-0.0296021,0.234314,-0.94342,0.232727
1470242764084085,-0.0293579,0.233887,-0.943481,0.232971
1470242764102127,-0.0290527,0.233521,-0.943542,0.233215
1470242764121644,-0.0290527,0.233521,-0.943542,0.233215
1470242764144181,-0.0290527,0.233521,-0.943665,0.232849
1470242764162156,-0.0286865,0.233215,-0.943726,0.232788
1470242764181763,-0.0285645,0.233337,-0.943665,0.232971
1470242764204255,-0.0282593,0.232971,-0.943726,0.233154
1470242764222236,-0.027832,0.232605,-0.943787,0.233276
1470242764241727,-0.0275879,0.232666,-0.943787,0.233276
1470242764264246,-0.0275879,0.232727,-0.943787,0.233276
1470242764282264,-0.0270386,0.2323,-0.943848,0.233398
1470242764301780,-0.0264282,0.231384,-0.944031,0.233704
1470242764324397,-0.0258789,0.230774,-0.944153,0.233887
1470242764341816,-0.0256348,0.230469,-0.944153,0.234192
1470242764361962,-0.0254517,0.230103,-0.944214,0.234436
1470242764386859,-0.0251465,0.229309,-0.944336,0.234619
1470242764401872,-0.0247192,0.228455,-0.944519,0.234741
1470242764421430,-0.024231,0.227966,-0.94458,0.234985
1470242764443920,-0.0238647,0.227722,-0.944641,0.235107
1470242764461969,-0.0236206,0.227783,-0.94458,0.235168
1470242764482943,-0.0234985,0.227966,-0.94458,0.235107
1470242764504021,-0.0233154,0.228271,-0.944519,0.234985
1470242764521978,-0.0233154,0.228271,-0.944519,0.234985
1470242764542997,-0.0232544,0.227905,-0.944641,0.234924
1470242764564025,-0.0229492,0.227478,-0.944763,0.234863
1470242764582077,-0.0228882,0.227234,-0.944885,0.234741
1470242764603051,-0.0228882,0.227234,-0.944885,0.234558
1470242764624072,-0.0228882,0.227234,-0.944885,0.234558
1470242764642153,-0.0228882,0.227234,-0.944885,0.234558
1470242764663144,-0.0228271,0.227051,-0.944946,0.23468
1470242764684182,-0.022644,0.226807,-0.945007,0.234619
1470242764702172,-0.0224609,0.226563,-0.945068,0.23468
1470242764723159,-0.0222168,0.226318,-0.945129,0.234619
1470242764744184,-0.0219116,0.226013,-0.94519,0.23468
1470242764762194,-0.0219116,0.226013,-0.94519,0.23468
1470242764783212,-0.0219116,0.226013,-0.94519,0.23468
1470242764804232,-0.0219116,0.226013,-0.94519,0.23468
1470242764822323,-0.0217896,0.226013,-0.94519,0.23468
1470242764844768,-0.0214844,0.22583,-0.945251,0.234741
1470242764864286,-0.0210571,0.225464,-0.945313,0.234741
1470242764881803,-0.020752,0.225464,-0.945313,0.234802
1470242764904367,-0.0205078,0.225403,-0.945313,0.234802
1470242764924367,-0.0202637,0.225342,-0.945374,0.234802
1470242764941855,-0.0202637,0.225403,-0.945374,0.234802
1470242764964376,-0.0201416,0.225586,-0.945251,0.234924
1470242764984465,-0.0201416,0.225952,-0.94519,0.235046
1470242765001914,-0.0201416,0.226135,-0.945129,0.235107
1470242765031979,-0.0198975,0.226196,-0.945068,0.235168
1470242765044470,-0.0197144,0.226501,-0.945007,0.235168
1470242765062010,-0.0198364,0.226929,-0.944885,0.235168
1470242765084508,-0.0199585,0.227173,-0.944824,0.235291
1470242765104026,-0.0199585,0.227173,-0.944824,0.235291
1470242765122045,-0.0197144,0.227295,-0.944763,0.235291
1470242765144571,-0.0195313,0.227722,-0.944702,0.235229
1470242765164055,-0.0195313,0.228088,-0.944641,0.235229
1470242765182074,-0.0193481,0.227966,-0.944641,0.235291
1470242765204593,-0.0184326,0.227661,-0.944763,0.235046
1470242765224148,-0.0180664,0.227844,-0.944763,0.234924
1470242765242180,-0.0178833,0.227783,-0.944763,0.234985
1470242765264664,-0.0175171,0.227356,-0.944885,0.235046
1470242765284252,-0.0171509,0.226379,-0.945068,0.235107
1470242765309718,-0.0167847,0.225403,-0.945313,0.235107
1470242765324199,-0.0167236,0.224548,-0.945557,0.235168
1470242765344217,-0.0167847,0.22406,-0.945618,0.235291
1470242765361766,-0.0169678,0.22406,-0.945557,0.235474
1470242765384753,-0.0172119,0.224121,-0.945496,0.235596
1470242765404270,-0.017334,0.224304,-0.945435,0.235779
1470242765421787,-0.017395,0.224365,-0.945313,0.236084
1470242765444819,-0.017395,0.224243,-0.945313,0.23645
1470242765465325,-0.017334,0.223938,-0.945251,0.236816
1470242765482471,-0.0174561,0.224182,-0.945129,0.237061
1470242765504862,-0.0177002,0.224915,-0.944824,0.237488
1470242765525379,-0.0180054,0.225952,-0.944458,0.237976
1470242765541919,-0.0180054,0.226379,-0.944275,0.238281
1470242765564441,-0.0177002,0.226074,-0.944275,0.238586
1470242765585434,-0.0174561,0.225647,-0.944275,0.239014
1470242765601985,-0.017395,0.225525,-0.944214,0.239441
1470242765624578,-0.017395,0.225403,-0.944153,0.239868
1470242765645487,-0.0174561,0.225464,-0.944031,0.240173
1470242765662029,-0.0175171,0.225525,-0.943909,0.240601
1470242765684553,-0.0175781,0.225464,-0.943848,0.240967
1470242765705543,-0.0175781,0.225281,-0.943848,0.241211
1470242765720554,-0.0175781,0.225159,-0.943787,0.241333
1470242765743577,-0.0177612,0.225159,-0.943787,0.241455
1470242765764595,-0.0181274,0.225159,-0.943726,0.241577
1470242765780610,-0.0184326,0.225037,-0.943726,0.241638
1470242765803631,-0.0186157,0.224792,-0.943787,0.241699
1470242765826151,-0.0186157,0.224792,-0.943787,0.241699
1470242765840662,-0.0186157,0.224792,-0.943787,0.241699
1470242765863683,-0.0186768,0.224792,-0.943787,0.241699
1470242765886205,-0.0186768,0.224854,-0.943787,0.241699
1470242765900734,-0.0186768,0.224854,-0.943787,0.241638
1470242765923745,-0.0187378,0.224731,-0.943848,0.241638
1470242765946258,-0.0187378,0.224426,-0.943909,0.241577
1470242765960272,-0.0187988,0.224243,-0.94397,0.241455
1470242765983790,-0.0188599,0.223816,-0.944092,0.241333
1470242766006310,-0.0187988,0.223328,-0.944275,0.24115
1470242766020324,-0.0187988,0.2229,-0.944397,0.241028
1470242766043846,-0.0188599,0.221985,-0.944641,0.240845
1470242766066364,-0.0187988,0.220947,-0.944946,0.240723
1470242766080377,-0.0187378,0.220337,-0.945068,0.240784
1470242766103913,-0.0187988,0.220337,-0.945068,0.240784
1470242766125932,-0.0189819,0.220215,-0.945129,0.240601
1470242766140431,-0.0189209,0.219788,-0.945251,0.240417
1470242766163482,-0.0186768,0.219482,-0.945374,0.240234
1470242766186479,-0.0187378,0.219849,-0.945374,0.240173
1470242766200488,-0.019104,0.219543,-0.945435,0.23999
1470242766223506,-0.0192261,0.219604,-0.945496,0.239746
1470242766246027,-0.0189819,0.21936,-0.945618,0.239563
1470242766260553,-0.0187378,0.219299,-0.945679,0.239258
1470242766283585,-0.0187378,0.219177,-0.945801,0.239075
1470242766306080,-0.0187378,0.219177,-0.945801,0.238892
1470242766328639,-0.0188599,0.219055,-0.945923,0.238647
1470242766343614,-0.0187378,0.219055,-0.945923,0.238525
1470242766366138,-0.0185547,0.219177,-0.945923,0.238464
1470242766387653,-0.0184937,0.219177,-0.945923,0.238464
1470242766403689,-0.0184326,0.219177,-0.945923,0.238464
1470242766426222,-0.0183105,0.218994,-0.945923,0.238647
1470242766447206,-0.0181274,0.218811,-0.945923,0.238953
1470242766463722,-0.0178833,0.218811,-0.945801,0.23938
1470242766486244,-0.0178223,0.218994,-0.945679,0.239807
1470242766507277,-0.0177002,0.219177,-0.945496,0.240295
1470242766523776,-0.0175781,0.219238,-0.945313,0.240845
1470242766546298,-0.017395,0.219299,-0.94519,0.241394
1470242766567317,-0.0172119,0.219238,-0.945068,0.241882
1470242766583829,-0.0170898,0.219116,-0.945007,0.242249
1470242766606351,-0.0172119,0.21936,-0.944885,0.242493
1470242766627393,-0.0175171,0.219727,-0.944702,0.242859
1470242766643444,-0.0178223,0.220032,-0.944519,0.243286
1470242766665903,-0.0181885,0.220032,-0.944458,0.243347
1470242766687426,-0.0185547,0.220276,-0.944397,0.243591
1470242766703438,-0.0187378,0.220154,-0.944336,0.243774
1470242766725957,-0.0187378,0.220093,-0.944336,0.243774
1470242766748477,-0.0189819,0.220703,-0.944214,0.243896
1470242766763026,-0.0192261,0.221436,-0.94397,0.24408
1470242766786511,-0.0194702,0.221924,-0.943848,0.244141
1470242766808533,-0.0197144,0.222046,-0.943787,0.244263
1470242766823559,-0.0199585,0.221863,-0.943787,0.244324
1470242766846065,-0.0202637,0.22168,-0.943787,0.244324
1470242766868585,-0.0206299,0.221985,-0.943726,0.244385
1470242766883098,-0.0211182,0.222534,-0.943542,0.244446
1470242766906118,-0.0216064,0.222961,-0.94342,0.244446
1470242766928639,-0.0216675,0.222961,-0.94342,0.244446
1470242766943191,-0.0217896,0.222656,-0.943542,0.244385
1470242766966174,-0.0220947,0.222717,-0.943542,0.244202
1470242766988714,-0.0223999,0.223328,-0.94342,0.244202
1470242767003208,-0.0227051,0.223816,-0.943298,0.244202
1470242767026231,-0.0233765,0.223328,-0.94342,0.243958
1470242767048749,-0.0234985,0.221863,-0.943787,0.243958
1470242767063278,-0.0233765,0.220215,-0.944153,0.24408
1470242767086282,-0.0228882,0.219177,-0.944336,0.244385
1470242767108803,-0.022644,0.218628,-0.944336,0.244873
1470242767122816,-0.0224609,0.218323,-0.944214,0.245544
1470242767146335,-0.0221558,0.217285,-0.944336,0.246033
1470242767168854,-0.0217896,0.215759,-0.94458,0.24646
1470242767182893,-0.0216675,0.214478,-0.944763,0.247009
1470242767206390,-0.0219116,0.214111,-0.944641,0.247681
1470242767228909,-0.0222168,0.214355,-0.944397,0.248413
1470242767249958,-0.0224609,0.214478,-0.944153,0.249268
1470242767265942,-0.0223999,0.214478,-0.94397,0.25
1470242767288499,-0.022583,0.213989,-0.943848,0.250793
1470242767309536,-0.022644,0.213989,-0.943542,0.251892
1470242767325997,-0.022583,0.213684,-0.943359,0.25293
1470242767348516,-0.022583,0.213257,-0.943176,0.253784
1470242767370035,-0.0223999,0.212524,-0.943176,0.254639
1470242767386052,-0.0223389,0.211304,-0.943176,0.255493
1470242767408576,-0.0220337,0.209534,-0.943237,0.256653
1470242767429593,-0.0213623,0.207703,-0.943298,0.258179
1470242767446104,-0.0206299,0.205872,-0.943359,0.259399
1470242767468624,-0.0197754,0.203735,-0.943481,0.260803
1470242767489668,-0.0185547,0.202209,-0.943298,0.262573
1470242767506192,-0.0178833,0.201294,-0.942993,0.264465
1470242767528678,-0.0177612,0.20105,-0.942505,0.266418
1470242767549697,-0.0177612,0.201111,-0.942017,0.268127
1470242767566214,-0.0177612,0.200806,-0.94165,0.269531
1470242767588760,-0.0177612,0.200928,-0.941284,0.270752
1470242767609806,-0.0178833,0.20166,-0.940857,0.271667
1470242767626316,-0.0183716,0.202759,-0.94043,0.272339
1470242767654801,-0.0188599,0.204407,-0.93988,0.272949
1470242767669823,-0.0195313,0.206116,-0.939392,0.273254
1470242767686319,-0.0202026,0.207764,-0.939026,0.273254
1470242767716349,-0.0209351,0.209473,-0.93866,0.273132
1470242767731359,-0.0215454,0.211243,-0.938293,0.27301
1470242767746387,-0.0219727,0.21344,-0.937866,0.272827
1470242767768894,-0.0218506,0.21521,-0.9375,0.272644
1470242767790913,-0.0214233,0.216431,-0.937317,0.2724
1470242767806445,-0.0214233,0.217407,-0.937195,0.271973
1470242767828448,-0.0222778,0.218445,-0.937073,0.271484
1470242767851467,-0.0234375,0.219788,-0.936829,0.27124
1470242767865532,-0.0239258,0.221375,-0.93634,0.271545
1470242767888531,-0.0235596,0.221924,-0.936035,0.272156
1470242767911103,-0.0227661,0.220886,-0.936096,0.272888
1470242767933570,-0.0214233,0.218872,-0.936279,0.273926
1470242767948603,-0.0203247,0.216492,-0.936523,0.275024
1470242767971105,-0.0198364,0.214478,-0.936707,0.276001
1470242767985617,-0.0197144,0.213501,-0.936646,0.277039
1470242768008652,-0.0200806,0.213501,-0.93634,0.278137
1470242768031180,-0.0206299,0.21405,-0.935913,0.278931
1470242768045670,-0.0209351,0.2146,-0.935608,0.279663
1470242768076239,-0.020813,0.214783,-0.935364,0.280396
1470242768091213,-0.020752,0.214905,-0.93512,0.281006
1470242768105726,-0.0206299,0.214722,-0.934998,0.281616
1470242768128747,-0.0202637,0.2146,-0.934814,0.282288
1470242768158772,-0.0200195,0.214172,-0.934814,0.282715
1470242768172284,-0.0200195,0.214172,-0.934692,0.283142
1470242768188798,-0.0200195,0.214539,-0.934387,0.283691
1470242768211320,-0.0203247,0.214355,-0.934326,0.284119
1470242768231837,-0.0204468,0.213928,-0.934326,0.284424
1470242768248862,-0.0206909,0.213684,-0.934265,0.284729
1470242768271373,-0.0209351,0.213562,-0.934204,0.284973
1470242768299911,-0.020813,0.213379,-0.934143,0.2854
1470242768308949,-0.020752,0.212952,-0.934143,0.285583
1470242768331427,-0.0211792,0.212769,-0.934143,0.285706
1470242768352476,-0.0213013,0.212952,-0.934021,0.286194
1470242768368460,-0.0206299,0.212341,-0.93396,0.286743
1470242768391480,-0.0199585,0.210632,-0.934326,0.286865
1470242768412499,-0.0196533,0.209412,-0.934509,0.28717
1470242768428514,-0.0194702,0.209045,-0.934387,0.287842
1470242768451034,-0.0196533,0.208557,-0.934448,0.288025
1470242768472553,-0.0201416,0.207825,-0.93457,0.288025
1470242768488568,-0.0202026,0.20752,-0.934509,0.288513
1470242768511589,-0.0189209,0.206543,-0.934509,0.289368
1470242768532614,-0.0176392,0.205688,-0.934204,0.290955
1470242768548660,-0.0174561,0.205994,-0.933838,0.291931
1470242768571142,-0.0175171,0.206787,-0.933655,0.292053
1470242768592211,-0.017334,0.20697,-0.933655,0.291931
1470242768608680,-0.0169678,0.206787,-0.933655,0.291931
1470242768631197,-0.0161133,0.206116,-0.933838,0.291992
1470242768653721,-0.0151367,0.205078,-0.93396,0.292358
1470242768668730,-0.0146484,0.204529,-0.933899,0.292969
1470242768691250,-0.0149536,0.20459,-0.933777,0.293396
1470242768713774,-0.0154419,0.204834,-0.933655,0.293518
1470242768728785,-0.0159302,0.205078,-0.933594,0.293518
1470242768751321,-0.0159912,0.205261,-0.933533,0.293579
1470242768773826,-0.0159302,0.205078,-0.933533,0.293701
1470242768787836,-0.0158691,0.204468,-0.933655,0.29364
1470242768811410,-0.0161743,0.204712,-0.933594,0.29364
1470242768833378,-0.0168457,0.206543,-0.933228,0.293579
1470242768847891,-0.0174561,0.208801,-0.932739,0.293396
1470242768871411,-0.0175781,0.210388,-0.932495,0.293213
1470242768893436,-0.017334,0.211426,-0.93219,0.293335
1470242768907944,-0.0166626,0.211548,-0.932007,0.293762
1470242768931465,-0.015686,0.211304,-0.932007,0.294128
1470242768953485,-0.0152588,0.211609,-0.931824,0.294495
1470242768967998,-0.0152588,0.212341,-0.931519,0.294922
1470242768991040,-0.0153809,0.212769,-0.931274,0.295471
1470242769014065,-0.0152588,0.212219,-0.931213,0.296021
1470242769028052,-0.0150757,0.21106,-0.931274,0.296509
1470242769051073,-0.0149536,0.21051,-0.931335,0.296814
1470242769074094,-0.0149536,0.210022,-0.931274,0.297302
1470242769088106,-0.0147705,0.209656,-0.931274,0.297607
1470242769111127,-0.0141602,0.208862,-0.931335,0.297974
1470242769133650,-0.0134888,0.207642,-0.931519,0.298401
1470242769154802,-0.0131226,0.205994,-0.931824,0.298523
1470242769171180,-0.0128174,0.20459,-0.932068,0.298706
1470242769193702,-0.0127563,0.204224,-0.932068,0.299072
1470242769214827,-0.0129395,0.203735,-0.932129,0.299194
1470242769231235,-0.0133667,0.204285,-0.932007,0.299133
1470242769253755,-0.0135498,0.205017,-0.931885,0.29895
1470242769274775,-0.0134888,0.205139,-0.931824,0.299011
1470242769298797,-0.0132446,0.20575,-0.931763,0.29895
1470242769313810,-0.0126953,0.20636,-0.931519,0.299255
1470242769334828,-0.012146,0.206665,-0.931335,0.299561
1470242769351343,-0.0112305,0.205322,-0.931641,0.299683
1470242769381371,-0.0103149,0.203918,-0.931946,0.299683
1470242769394914,-0.0101318,0.203186,-0.932129,0.299622
1470242769411397,-0.0105591,0.202637,-0.93219,0.299744
1470242769433421,-0.010437,0.20282,-0.932068,0.299988
1470242769454969,-0.00994873,0.202515,-0.932007,0.300537
1470242769471453,-0.00970459,0.202271,-0.931946,0.30072
1470242769493975,-0.00958252,0.201477,-0.932129,0.300842
1470242769514989,-0.00946045,0.201233,-0.93219,0.300842
1470242769531504,-0.00952148,0.201233,-0.93219,0.300781
1470242769553525,-0.00964355,0.201355,-0.932129,0.300842
1470242769576044,-0.00939941,0.201416,-0.932068,0.301025
1470242769590557,-0.00921631,0.201294,-0.932129,0.300903
1470242769613578,-0.00921631,0.201294,-0.932129,0.300903
1470242769636098,-0.00933838,0.201538,-0.932007,0.301086
1470242769651134,-0.00933838,0.201538,-0.932007,0.301025
1470242769673632,-0.00933838,0.201538,-0.932068,0.301025
1470242769696152,-0.00939941,0.201477,-0.932068,0.301025
1470242769711166,-0.00939941,0.201477,-0.932068,0.301025
1470242769733686,-0.00939941,0.201477,-0.932068,0.301025
1470242769756206,-0.00933838,0.20166,-0.932007,0.301147
1470242769770720,-0.00939941,0.20166,-0.932007,0.301147
1470242769793759,-0.00939941,0.201233,-0.932007,0.30127
1470242769816303,-0.00946045,0.201416,-0.932007,0.30127
1470242769830276,-0.00897217,0.201782,-0.931824,0.301514
1470242769853793,-0.0090332,0.201843,-0.931824,0.301514
1470242769876316,-0.00872803,0.201477,-0.931824,0.301758
1470242769890332,-0.00921631,0.201111,-0.931946,0.301575
1470242769913850,-0.00860596,0.201111,-0.931824,0.302002
1470242769936367,-0.0078125,0.200439,-0.931763,0.302673
1470242769950380,-0.00708008,0.200317,-0.931763,0.302856
1470242769973934,-0.00689697,0.200134,-0.931702,0.30304
1470242769996421,-0.00683594,0.200317,-0.93158,0.303345
1470242770010434,-0.00646973,0.199768,-0.931396,0.304199
1470242770033955,-0.00653076,0.200867,-0.93103,0.304749
1470242770056475,-0.00720215,0.20282,-0.930481,0.305054
1470242770077494,-0.00769043,0.203796,-0.930237,0.305115
1470242770093509,-0.00726318,0.203369,-0.930359,0.305054
1470242770116074,-0.00671387,0.202332,-0.930664,0.30481
1470242770137549,-0.0067749,0.201965,-0.930786,0.304626
1470242770153563,-0.00714111,0.202332,-0.930786,0.304382
1470242770176089,-0.00775146,0.203247,-0.930664,0.30426
1470242770197603,-0.00823975,0.204041,-0.930481,0.30426
1470242770213619,-0.00823975,0.204041,-0.930481,0.30426
1470242770236142,-0.00836182,0.204041,-0.930481,0.304199
1470242770257156,-0.00854492,0.203552,-0.930603,0.304138
1470242770273671,-0.00872803,0.203186,-0.930725,0.304016
1470242770296192,-0.00860596,0.202942,-0.930725,0.304199
1470242770317227,-0.00909424,0.203735,-0.930481,0.304321
1470242770333727,-0.00891113,0.204102,-0.93042,0.30426
1470242770356245,-0.00891113,0.204163,-0.93042,0.30426
1470242770377277,-0.00878906,0.204102,-0.93042,0.304321
1470242770393792,-0.00848389,0.203735,-0.930542,0.30426
1470242770416301,-0.00817871,0.203064,-0.930603,0.304443
1470242770437334,-0.0078125,0.202698,-0.930542,0.304932
1470242770453837,-0.00744629,0.201965,-0.930542,0.305481
1470242770476357,-0.00695801,0.20105,-0.930603,0.305847
1470242770497389,-0.00665283,0.200073,-0.930603,0.306519
1470242770513889,-0.00744629,0.200439,-0.930481,0.30658
1470242770536461,-0.0067749,0.201477,-0.930176,0.306824
1470242770558926,-0.0067749,0.201172,-0.93042,0.306396
1470242770573940,-0.00701904,0.201111,-0.93042,0.306335
1470242770596461,-0.00817871,0.201538,-0.930359,0.306274
1470242770618481,-0.0108032,0.201904,-0.930176,0.306519
1470242770633494,-0.0136719,0.202942,-0.930237,0.30542
1470242770656016,-0.015625,0.203918,-0.930664,0.303345
1470242770678536,-0.0172119,0.204163,-0.931335,0.301147
1470242770693047,-0.0175171,0.203125,-0.93219,0.299072
1470242770716097,-0.0170288,0.202393,-0.932983,0.297241
1470242770738594,-0.0169067,0.203735,-0.933411,0.294983
1470242770759662,-0.0178223,0.20636,-0.933777,0.291931
1470242770776131,-0.0194092,0.209534,-0.934021,0.288757
1470242770798642,-0.0213623,0.213806,-0.933594,0.286804
1470242770819661,-0.024231,0.217468,-0.933105,0.285522
1470242770836179,-0.0267334,0.218567,-0.933228,0.283875
1470242770858730,-0.0283813,0.217468,-0.934082,0.28186
1470242770864253,-0.0301514,0.216736,-0.934814,0.279724
1470242770886722,-0.0317993,0.217102,-0.935425,0.277283
1470242770904774,-0.0335693,0.21936,-0.935608,0.274658
1470242770924256,-0.0354004,0.222412,-0.935669,0.27179
1470242770946775,-0.036438,0.225586,-0.93573,0.268799
1470242770961856,-0.0365601,0.228455,-0.935913,0.265564
1470242770984350,-0.0361938,0.231201,-0.936157,0.262512
1470242771015370,-0.0358276,0.233154,-0.93634,0.26001
1470242771021843,-0.0352783,0.235657,-0.936279,0.258179
1470242771046865,-0.0354004,0.239136,-0.935791,0.256653
1470242771066889,-0.0351563,0.241699,-0.935486,0.25531
1470242771081896,-0.034668,0.242676,-0.935669,0.254028
1470242771104417,-0.0339966,0.241638,-0.936279,0.252747
1470242771126937,-0.032959,0.240173,-0.93689,0.251953
1470242771141955,-0.0315552,0.238831,-0.937317,0.251831
1470242771164556,-0.0293579,0.236206,-0.937805,0.252686
1470242771186991,-0.0265503,0.231934,-0.938538,0.254211
1470242771202004,-0.0259399,0.227356,-0.939392,0.255371
1470242771224025,-0.0270996,0.225891,-0.939331,0.256836
1470242771246544,-0.0284424,0.227112,-0.938477,0.258728
1470242771261616,-0.0291138,0.227112,-0.938049,0.260193
1470242771284144,-0.0284424,0.225708,-0.937988,0.261658
1470242771302153,-0.0272827,0.224304,-0.937927,0.263184
1470242771324615,-0.0263062,0.223328,-0.937805,0.264587
1470242771344160,-0.0259399,0.222778,-0.937622,0.265747
1470242771360646,-0.026123,0.222473,-0.9375,0.266357
1470242771381665,-0.0264893,0.222778,-0.937317,0.266785
1470242771404203,-0.0265503,0.223389,-0.936951,0.267395
1470242771420700,-0.0264282,0.223938,-0.936707,0.267883
1470242771441737,-0.026123,0.223999,-0.936584,0.268372
1470242771464240,-0.0258179,0.223755,-0.936523,0.268799
1470242771482255,-0.0258179,0.223572,-0.936462,0.269165
1470242771501794,-0.026123,0.223755,-0.936279,0.269531
1470242771524293,-0.0266113,0.224548,-0.935974,0.269958
1470242771542310,-0.0269775,0.225464,-0.935608,0.270264
1470242771561841,-0.0273438,0.226318,-0.935425,0.270325
1470242771584348,-0.0275879,0.226807,-0.935364,0.27002
1470242771602408,-0.0276489,0.226807,-0.935364,0.27002
1470242771621881,-0.0276489,0.226807,-0.935364,0.27002
1470242771644401,-0.0275879,0.226807,-0.935364,0.27002
1470242771661917,-0.0275879,0.226746,-0.935364,0.270081
1470242771681934,-0.02771,0.226746,-0.935303,0.270203
1470242771703972,-0.0280151,0.22699,-0.935242,0.270264
1470242771722004,-0.0282593,0.227417,-0.93512,0.270264
1470242771741544,-0.0283203,0.227722,-0.935059,0.270264
1470242771764011,-0.0283203,0.227783,-0.935059,0.270264
1470242771782068,-0.0283203,0.227783,-0.935059,0.270264
1470242771802063,-0.0281372,0.227783,-0.934998,0.270447
1470242771824107,-0.0281372,0.227905,-0.934875,0.270691
1470242771842079,-0.0279541,0.227722,-0.934875,0.270935
1470242771861597,-0.02771,0.227417,-0.934875,0.271118
1470242771884143,-0.0274658,0.227295,-0.934875,0.271301
1470242771902138,-0.0273438,0.227356,-0.934814,0.271484
1470242771921676,-0.0273438,0.227539,-0.934753,0.271667
1470242771944188,-0.0272827,0.227783,-0.934631,0.271851
1470242771962228,-0.0272827,0.227844,-0.934509,0.272095
1470242771981720,-0.0273438,0.227844,-0.934448,0.272217
1470242772004285,-0.0272217,0.227844,-0.934448,0.272339
1470242772022242,-0.0270386,0.227905,-0.934387,0.272522
1470242772041845,-0.0272217,0.228577,-0.934204,0.272583
1470242772064303,-0.0275269,0.229004,-0.934082,0.272583
1470242772081794,-0.0274658,0.228882,-0.934143,0.272583
1470242772102815,-0.0275269,0.228455,-0.934265,0.272522
1470242772124332,-0.0274658,0.227905,-0.934326,0.272705
1470242772142378,-0.0274048,0.227844,-0.934326,0.272705
1470242772163367,-0.0275879,0.228088,-0.934265,0.272644
1470242772184388,-0.0275879,0.228088,-0.934265,0.272644
1470242772209910,-0.0275879,0.228088,-0.934265,0.272644
1470242772222925,-0.0275879,0.228088,-0.934265,0.272644
1470242772244564,-0.0275879,0.228088,-0.934265,0.272644
1470242772262459,-0.0275879,0.228088,-0.934265,0.272644
1470242772282976,-0.0275879,0.228088,-0.934265,0.272644
1470242772304572,-0.0275269,0.228088,-0.934265,0.272644
1470242772322066,-0.0275269,0.228088,-0.934265,0.272644
1470242772343030,-0.0275269,0.228088,-0.934265,0.272644
1470242772364059,-0.0275269,0.228088,-0.934326,0.272522
1470242772382098,-0.02771,0.228455,-0.934265,0.272339
1470242772403084,-0.0279541,0.228943,-0.934204,0.272278
1470242772424134,-0.0281372,0.229309,-0.934143,0.272156
1470242772442209,-0.0281982,0.229309,-0.934143,0.272156
1470242772464673,-0.0280151,0.229126,-0.934143,0.272156
1470242772484188,-0.0280151,0.229065,-0.934204,0.272156
1470242772502172,-0.0279541,0.229065,-0.934204,0.272156
1470242772524693,-0.0279541,0.229065,-0.934204,0.272156
1470242772544253,-0.0278931,0.229065,-0.934204,0.272217
1470242772562308,-0.0278931,0.229065,-0.934204,0.272217
1470242772584757,-0.0278931,0.229126,-0.934143,0.272217
1470242772604354,-0.0278931,0.229126,-0.934143,0.272156
1470242772622279,-0.0279541,0.229065,-0.934204,0.272156
1470242772645301,-0.0278931,0.229065,-0.934204,0.272156
1470242772664329,-0.0280151,0.229248,-0.934143,0.272217
1470242772682350,-0.0281982,0.229492,-0.934082,0.272156
1470242772704356,-0.0281982,0.229492,-0.934082,0.272156
1470242772724372,-0.0281982,0.229492,-0.934082,0.272156
1470242772742387,-0.0281982,0.229492,-0.934082,0.272156
1470242772764408,-0.0281982,0.229492,-0.934082,0.272156
1470242772784425,-0.0281982,0.229492,-0.934082,0.272156
1470242772801941,-0.0281982,0.229492,-0.934082,0.272156
1470242772825088,-0.0281982,0.229492,-0.934082,0.272156
1470242772843978,-0.0281982,0.229492,-0.934082,0.272156
1470242772862004,-0.0281982,0.229492,-0.934082,0.272156
1470242772884515,-0.0281982,0.229553,-0.934082,0.272156
1470242772904032,-0.0281982,0.229553,-0.934082,0.272156
1470242772922049,-0.0280762,0.229431,-0.934082,0.272156
1470242772944569,-0.0280762,0.22937,-0.934082,0.272156
1470242772964087,-0.0280762,0.22937,-0.934082,0.272156
1470242772982172,-0.0280762,0.22937,-0.934082,0.272156
1470242773004639,-0.0280762,0.22937,-0.934082,0.272156
1470242773025643,-0.0280762,0.22937,-0.934082,0.272156
1470242773042191,-0.0280762,0.22937,-0.934082,0.272156
1470242773064679,-0.0279541,0.229187,-0.934143,0.272156
1470242773085696,-0.0278931,0.228882,-0.934204,0.272156
1470242773102237,-0.0278931,0.228882,-0.934204,0.272156
1470242773124744,-0.0278931,0.228882,-0.934204,0.272156
1470242773145752,-0.0278931,0.228882,-0.934204,0.272156
1470242773162266,-0.0278931,0.228882,-0.934204,0.272156
1470242773184843,-0.0278931,0.228882,-0.934204,0.272156
1470242773205803,-0.0278931,0.228882,-0.934204,0.272156
1470242773222317,-0.0278931,0.228882,-0.934204,0.272156
1470242773244838,-0.0278931,0.228882,-0.934204,0.272156
1470242773265857,-0.0278931,0.228882,-0.934204,0.272156
1470242773282373,-0.0276489,0.228516,-0.934326,0.272217
1470242773304892,-0.0274658,0.228333,-0.934387,0.272278
1470242773324910,-0.0274658,0.228333,-0.934387,0.272278
1470242773340424,-0.0274658,0.228271,-0.934387,0.272278
1470242773363945,-0.0274658,0.228271,-0.934387,0.272217
1470242773386466,-0.0274658,0.228333,-0.934387,0.272278
1470242773400478,-0.0274658,0.228271,-0.934387,0.272278
1470242773423999,-0.0274658,0.228271,-0.934387,0.272278
1470242773446019,-0.0275269,0.228455,-0.934326,0.272339
1470242773460532,-0.0275269,0.228455,-0.934326,0.272339
1470242773484054,-0.0275269,0.228455,-0.934326,0.272339
1470242773506075,-0.0275269,0.228455,-0.934326,0.272339
1470242773520587,-0.0275269,0.228455,-0.934326,0.272339
1470242773543649,-0.0274658,0.22821,-0.934387,0.272339
1470242773566129,-0.0274658,0.22821,-0.934387,0.272339
1470242773580641,-0.0274658,0.22821,-0.934387,0.272339
1470242773603661,-0.0275269,0.228394,-0.934326,0.272339
1470242773626204,-0.0275879,0.228394,-0.934326,0.272339
1470242773640707,-0.0275879,0.228394,-0.934326,0.272339
1470242773663729,-0.0275269,0.228394,-0.934326,0.272339
1470242773686241,-0.0275269,0.228333,-0.934326,0.272339
1470242773700749,-0.0276489,0.228455,-0.934265,0.272339
1470242773723768,-0.02771,0.228638,-0.934265,0.272339
1470242773746289,-0.02771,0.228638,-0.934265,0.272339
1470242773760802,-0.0276489,0.228638,-0.934265,0.272339
1470242773791329,-0.0276489,0.228638,-0.934265,0.272339
1470242773806343,-0.02771,0.228699,-0.934265,0.272339
1470242773820870,-0.0276489,0.228577,-0.934265,0.272278
1470242773843919,-0.0275879,0.22821,-0.934387,0.272156
1470242773866397,-0.0275879,0.22821,-0.934387,0.272217
1470242773887440,-0.0275879,0.22821,-0.934387,0.272217
1470242773903930,-0.0275879,0.22821,-0.934387,0.272156
1470242773926451,-0.027771,0.228149,-0.934448,0.272034
1470242773947487,-0.0278931,0.228027,-0.93457,0.27179
1470242773963983,-0.0279541,0.227966,-0.934631,0.271606
1470242773986504,-0.0279541,0.227905,-0.934631,0.271606
1470242774007546,-0.0279541,0.227905,-0.934631,0.271606
1470242774023538,-0.0279541,0.227905,-0.934631,0.271606
1470242774046058,-0.027832,0.227722,-0.934692,0.271545
1470242774067579,-0.0276489,0.227356,-0.934814,0.271545
1470242774083593,-0.0274048,0.227112,-0.934875,0.271545
1470242774106113,-0.0273438,0.227112,-0.934875,0.271606
1470242774127189,-0.0273438,0.227051,-0.934875,0.271606
1470242774143645,-0.0273438,0.227051,-0.934875,0.271606
1470242774166167,-0.0273438,0.227112,-0.934875,0.271606
1470242774187238,-0.0273438,0.227112,-0.934875,0.271606
1470242774209739,-0.0272827,0.226868,-0.934937,0.271484
1470242774226219,-0.0271606,0.226624,-0.934998,0.271484
1470242774247251,-0.0271606,0.226624,-0.934998,0.271484
1470242774263253,-0.0271606,0.226685,-0.934998,0.271484
1470242774286327,-0.0271606,0.226685,-0.934998,0.271484
1470242774314871,-0.0271606,0.226685,-0.934998,0.271484
1470242774323846,-0.0270996,0.226624,-0.934998,0.271484
1470242774346330,-0.0270996,0.226624,-0.934998,0.271484
1470242774368850,-0.0270996,0.226624,-0.934998,0.271484
1470242774383871,-0.0270996,0.226624,-0.934998,0.271484
1470242774406383,-0.0270996,0.226624,-0.934998,0.271484
1470242774428901,-0.0270996,0.226624,-0.934998,0.271484
1470242774443919,-0.0270996,0.226563,-0.934998,0.271484
1470242774466435,-0.0271606,0.226501,-0.934998,0.271484
1470242774488955,-0.0270996,0.226501,-0.935059,0.271484
1470242774503468,-0.0271606,0.226807,-0.934937,0.271606
1470242774526489,-0.0272217,0.227356,-0.934753,0.271729
1470242774548510,-0.0272827,0.227783,-0.934631,0.27179
1470242774563022,-0.0271606,0.227661,-0.934631,0.27179
1470242774586063,-0.0269165,0.227112,-0.934814,0.27179
1470242774608562,-0.0266113,0.226379,-0.934998,0.27179
1470242774623114,-0.0263672,0.226074,-0.935059,0.271851
1470242774646097,-0.0264893,0.226135,-0.934998,0.271851
1470242774668618,-0.0264893,0.226196,-0.934998,0.271851
1470242774683132,-0.0264893,0.226196,-0.934998,0.271851
1470242774706175,-0.0265503,0.226196,-0.934998,0.271851
1470242774728670,-0.0265503,0.226196,-0.934998,0.271851
1470242774743188,-0.0265503,0.226135,-0.934998,0.271851
1470242774766204,-0.0264893,0.226135,-0.934998,0.271851
1470242774788725,-0.0264893,0.226135,-0.935059,0.271851
1470242774803262,-0.0264893,0.226074,-0.935059,0.271851
1470242774826265,-0.0264282,0.226074,-0.935059,0.271851
1470242774848817,-0.0264282,0.226074,-0.935059,0.271851
1470242774870297,-0.0264893,0.226074,-0.935059,0.271851
1470242774886312,-0.0264282,0.226013,-0.935059,0.271912
1470242774908841,-0.0264282,0.226013,-0.935059,0.271912
1470242774929853,-0.0264282,0.226013,-0.935059,0.271912
1470242774946367,-0.0265503,0.226196,-0.934998,0.271973
1470242774968886,-0.0267334,0.22644,-0.934937,0.271973
1470242774989974,-0.0267334,0.226501,-0.934875,0.271973
1470242775006421,-0.0266113,0.226318,-0.934937,0.272034
1470242775028940,-0.0264893,0.226013,-0.934998,0.272095
1470242775050001,-0.0264893,0.226013,-0.934998,0.272095
1470242775066474,-0.0264893,0.225952,-0.934998,0.272095
1470242775088495,-0.0264893,0.226135,-0.934937,0.272156
1470242775110013,-0.0264893,0.226135,-0.934937,0.272156
1470242775126027,-0.0264893,0.226135,-0.934937,0.272156
1470242775148547,-0.0264893,0.226135,-0.934937,0.272156
1470242775170067,-0.0264893,0.226135,-0.934937,0.272156
1470242775186125,-0.0264893,0.226135,-0.934937,0.272156
1470242775208656,-0.0264893,0.226196,-0.934937,0.272156
1470242775230150,-0.0264893,0.226196,-0.934937,0.272156
1470242775246135,-0.0264282,0.226135,-0.934937,0.272156
1470242775268656,-0.0264282,0.226135,-0.934937,0.272156
1470242775291175,-0.0263062,0.225952,-0.934998,0.272156
1470242775306207,-0.0261841,0.225769,-0.935059,0.272156
1470242775329277,-0.0261841,0.225708,-0.935059,0.272156
1470242775351229,-0.0261841,0.225708,-0.935059,0.272156
1470242775366244,-0.0261841,0.225708,-0.935059,0.272156
1470242775388763,-0.0261841,0.225708,-0.935059,0.272156
1470242775411283,-0.026123,0.225464,-0.93512,0.272156
1470242775425797,-0.026123,0.225464,-0.93512,0.272156
1470242775448817,-0.026123,0.225464,-0.93512,0.272156
1470242775471337,-0.026123,0.225403,-0.93512,0.272156
1470242775485350,-0.026123,0.225403,-0.93512,0.272156
1470242775508874,-0.026123,0.225403,-0.93512,0.272156
1470242775531392,-0.026123,0.225403,-0.93512,0.272156
1470242775545404,-0.026123,0.225403,-0.93512,0.272156
1470242775568925,-0.0258789,0.225159,-0.935181,0.272217
1470242775591445,-0.0258179,0.225159,-0.935181,0.272217
1470242775605458,-0.0258179,0.225159,-0.935181,0.272217
1470242775628479,-0.0258179,0.225159,-0.935181,0.272217
1470242775650999,-0.0257568,0.225098,-0.935181,0.272278
1470242775665513,-0.0257568,0.225281,-0.93512,0.272339
1470242775689035,-0.0257568,0.225281,-0.93512,0.272339
1470242775711054,-0.0256958,0.225281,-0.93512,0.272339
1470242775725569,-0.0256958,0.225281,-0.93512,0.272339
1470242775748586,-0.0256958,0.225281,-0.93512,0.272339
1470242775771107,-0.0256958,0.225281,-0.93512,0.272339
1470242775792552,-0.0256958,0.225281,-0.93512,0.272339
1470242775808545,-0.0256958,0.225342,-0.93512,0.272339
1470242775831566,-0.0256348,0.225342,-0.93512,0.272339
1470242775852584,-0.0255737,0.225098,-0.93512,0.2724
1470242775869099,-0.0253296,0.224548,-0.935303,0.272461
1470242775891119,-0.0250244,0.223816,-0.935425,0.272522
1470242775912639,-0.0249023,0.223206,-0.935608,0.272461
1470242775928654,-0.0249023,0.223206,-0.935608,0.272461
1470242775951176,-0.0248413,0.223206,-0.935608,0.272461
1470242775972211,-0.0248413,0.223206,-0.935608,0.272461
1470242775989208,-0.0248413,0.223145,-0.935608,0.272461
1470242776011270,-0.0248413,0.223145,-0.935608,0.272461
1470242776032274,-0.0248413,0.223083,-0.935608,0.272461
1470242776048761,-0.0248413,0.223083,-0.935608,0.272461
1470242776071283,-0.0247803,0.223083,-0.935608,0.272461
1470242776092341,-0.0248413,0.223206,-0.935608,0.272522
1470242776108815,-0.0249023,0.223389,-0.935547,0.272583
1470242776131335,-0.0249023,0.223389,-0.935547,0.272583
1470242776152367,-0.0250244,0.223633,-0.935486,0.272461
1470242776168871,-0.0252075,0.223877,-0.935486,0.2724
1470242776191410,-0.0252686,0.22406,-0.935425,0.272339
1470242776212908,-0.0253906,0.224365,-0.935364,0.272339
1470242776228925,-0.0253906,0.224548,-0.935303,0.272339
1470242776251442,-0.0253906,0.224548,-0.935303,0.272339
1470242776273963,-0.0253906,0.224548,-0.935303,0.272339
1470242776289008,-0.0253906,0.224548,-0.935303,0.272339
1470242776311521,-0.0253906,0.224609,-0.935303,0.272339
1470242776334039,-0.0253906,0.224609,-0.935303,0.272339
1470242776349036,-0.0253906,0.224609,-0.935303,0.272339
1470242776371050,-0.0253906,0.224609,-0.935303,0.272339
1470242776394070,-0.0253906,0.224609,-0.935303,0.272339
1470242776408084,-0.0253296,0.224609,-0.935303,0.272339
1470242776431106,-0.0253296,0.224609,-0.935303,0.272339
1470242776453627,-0.0253296,0.224609,-0.935303,0.272339
1470242776468139,-0.0253296,0.224548,-0.935303,0.272339
1470242776491673,-0.0253296,0.224609,-0.935303,0.272339
1470242776513678,-0.0253296,0.224548,-0.935303,0.272339
1470242776528191,-0.0252686,0.224548,-0.935303,0.272339
1470242776551214,-0.0252686,0.224548,-0.935303,0.2724
1470242776573732,-0.0252686,0.224548,-0.935303,0.2724
1470242776588262,-0.0251465,0.224365,-0.935364,0.272339
1470242776611272,-0.0251465,0.224304,-0.935364,0.272339
1470242776633786,-0.0251465,0.224304,-0.935364,0.272339
1470242776648301,-0.0251465,0.224304,-0.935364,0.272339
1470242776671322,-0.0251465,0.224243,-0.935364,0.272339
1470242776693840,-0.0251465,0.224243,-0.935364,0.272339
1470242776708358,-0.0250854,0.224243,-0.935364,0.272339
1470242776731389,-0.0250854,0.224243,-0.935364,0.272339
1470242776753896,-0.0250854,0.224243,-0.935364,0.272339
1470242776774978,-0.0250854,0.224243,-0.935364,0.272339
1470242776791447,-0.0252075,0.224365,-0.935364,0.272339
1470242776813948,-0.0252686,0.224487,-0.935303,0.272339
1470242776834983,-0.0252686,0.224487,-0.935303,0.272339
1470242776851484,-0.0252686,0.224487,-0.935303,0.272339
1470242776873541,-0.0252686,0.224548,-0.935303,0.272339
1470242776895070,-0.0252686,0.224548,-0.935303,0.272339
1470242776911535,-0.0252686,0.224487,-0.935303,0.272339
1470242776934055,-0.0252075,0.224487,-0.935303,0.272339
1470242776962582,-0.0252075,0.224487,-0.935303,0.272339
1470242776971142,-0.0252075,0.224487,-0.935303,0.272339
1470242776994139,-0.0252075,0.224487,-0.935303,0.272339
1470242777015128,-0.0252075,0.224487,-0.935303,0.272339
1470242777031645,-0.0252075,0.224487,-0.935303,0.272339
1470242777053665,-0.0252075,0.224487,-0.935303,0.272339
1470242777075269,-0.0252075,0.224487,-0.935303,0.272339
1470242777091197,-0.0251465,0.224487,-0.935303,0.272339
1470242777113719,-0.0251465,0.224487,-0.935303,0.272339
1470242777134747,-0.0251465,0.224487,-0.935303,0.272339
1470242777151251,-0.0251465,0.224487,-0.935303,0.272339
1470242777173771,-0.0251465,0.224487,-0.935303,0.272339
1470242777196292,-0.0251465,0.224426,-0.935303,0.272339
1470242777211304,-0.0251465,0.224426,-0.935303,0.272339
1470242777233826,-0.0251465,0.224426,-0.935303,0.272339
1470242777256345,-0.0251465,0.224426,-0.935364,0.272339
1470242777271359,-0.0251465,0.224426,-0.935364,0.272339
1470242777293879,-0.0251465,0.224426,-0.935364,0.272339
1470242777316401,-0.0251465,0.224426,-0.935364,0.272339
1470242777330412,-0.0251465,0.224426,-0.935364,0.272339
1470242777353935,-0.0250854,0.224426,-0.935364,0.272339
1470242777376468,-0.0250854,0.224365,-0.935364,0.272339
1470242777390498,-0.0250854,0.224365,-0.935364,0.272339
1470242777413986,-0.0250854,0.224365,-0.935364,0.272339
1470242777436533,-0.0250854,0.224365,-0.935364,0.2724
1470242777450519,-0.0250854,0.224365,-0.935364,0.2724
1470242777474040,-0.0250854,0.224304,-0.935364,0.2724
1470242777496561,-0.0250854,0.224304,-0.935364,0.2724
1470242777510573,-0.0250854,0.224304,-0.935364,0.2724
1470242777534094,-0.0250244,0.224304,-0.935364,0.2724
1470242777563623,-0.0250244,0.224304,-0.935364,0.2724
1470242777570627,-0.0250244,0.224304,-0.935364,0.2724
1470242777594148,-0.0250244,0.224304,-0.935364,0.2724
1470242777616223,-0.0250244,0.224304,-0.935364,0.2724
1470242777630734,-0.0250244,0.224304,-0.935364,0.2724
1470242777653719,-0.0250244,0.224304,-0.935364,0.2724
1470242777676724,-0.0250244,0.224243,-0.935364,0.2724
1470242777697242,-0.0249634,0.224243,-0.935364,0.2724
1470242777713756,-0.0249634,0.224243,-0.935364,0.2724
1470242777736276,-0.0249634,0.224243,-0.935364,0.2724
1470242777757803,-0.0249634,0.224243,-0.935364,0.2724
1470242777773810,-0.0249634,0.224243,-0.935364,0.2724
1470242777796337,-0.0249634,0.224243,-0.935364,0.2724
1470242777817405,-0.0249023,0.224243,-0.935364,0.2724
1470242777833363,-0.0249023,0.224243,-0.935364,0.2724
1470242777856434,-0.0249023,0.224243,-0.935364,0.2724
1470242777877420,-0.0249023,0.224243,-0.935364,0.2724
1470242777893918,-0.0249023,0.224243,-0.935364,0.2724
1470242777916442,-0.0248413,0.224243,-0.935364,0.2724
1470242777937501,-0.0248413,0.224243,-0.935364,0.2724
1470242777953974,-0.0248413,0.224243,-0.935364,0.272461
1470242777984048,-0.0248413,0.224243,-0.935364,0.272461
1470242777997569,-0.0248413,0.224243,-0.935364,0.272461
1470242778014029,-0.0247803,0.224243,-0.935364,0.272461
1470242778036563,-0.0247803,0.224243,-0.935364,0.272461
1470242778057584,-0.0247803,0.224243,-0.935364,0.272461
1470242778074599,-0.0247803,0.224243,-0.935364,0.272461
1470242778096599,-0.0247803,0.224182,-0.935364,0.272461
1470242778118620,-0.0247192,0.224182,-0.935364,0.272461
1470242778133633,-0.0247192,0.224182,-0.935364,0.272461
1470242778156153,-0.0247192,0.224182,-0.935364,0.272461
1470242778178673,-0.0246582,0.224182,-0.935364,0.272461
1470242778193721,-0.0246582,0.224182,-0.935364,0.272461
1470242778216209,-0.0246582,0.224182,-0.935364,0.272461
1470242778238747,-0.0246582,0.224182,-0.935364,0.272461
1470242778253745,-0.0246582,0.224182,-0.935364,0.272461
1470242778276277,-0.0246582,0.224182,-0.935364,0.272461
1470242778298813,-0.0246582,0.224182,-0.935364,0.272461
1470242778319800,-0.0246582,0.224182,-0.935364,0.272461
1470242778336317,-0.0246582,0.224182,-0.935364,0.272461
1470242778358845,-0.0245972,0.224182,-0.935364,0.272461
1470242778373353,-0.0245972,0.224182,-0.935364,0.272461
1470242778396369,-0.0245972,0.224182,-0.935364,0.272522
1470242778418902,-0.0245361,0.224182,-0.935364,0.272522
1470242778433402,-0.0245361,0.224182,-0.935364,0.272522
1470242778456437,-0.0245361,0.224182,-0.935364,0.272522
1470242778461961,-0.0245361,0.224182,-0.935364,0.272522
1470242778484449,-0.0245361,0.224182,-0.935364,0.272522
1470242778500962,-0.0244751,0.224182,-0.935364,0.272522
1470242778522084,-0.0246582,0.224304,-0.935303,0.272522
1470242778544501,-0.0245972,0.224304,-0.935303,0.272522
1470242778560520,-0.0245972,0.224304,-0.935303,0.272522
1470242778581581,-0.0245972,0.224304,-0.935303,0.272522
1470242778604108,-0.0245972,0.224304,-0.935364,0.272522
1470242778628079,-0.0245972,0.224243,-0.935364,0.272522
1470242778642163,-0.0245972,0.224243,-0.935364,0.272522
1470242778664167,-0.0245972,0.224243,-0.935364,0.272522
1470242778680674,-0.0245972,0.224243,-0.935364,0.272522
1470242778701645,-0.0245361,0.224243,-0.935364,0.272522
1470242778724164,-0.0245361,0.224243,-0.935364,0.272522
1470242778740680,-0.0245361,0.224243,-0.935364,0.272522
1470242778761731,-0.0245361,0.224243,-0.935364,0.272522
1470242778784242,-0.0245361,0.224243,-0.935364,0.272522
1470242778800732,-0.0245361,0.224243,-0.935364,0.272522
1470242778821796,-0.0245361,0.224243,-0.935364,0.272522
1470242778844280,-0.0244751,0.224243,-0.935364,0.272522
1470242778868294,-0.0244751,0.224243,-0.935364,0.272583
1470242778881845,-0.0244751,0.224243,-0.935364,0.272583
1470242778904352,-0.0244751,0.224182,-0.935364,0.272583
1470242778920883,-0.0244751,0.224182,-0.935364,0.272583
1470242778941877,-0.0244751,0.224182,-0.935364,0.272583
1470242778964379,-0.0244141,0.224182,-0.935364,0.272583
1470242778980894,-0.0244141,0.224182,-0.935364,0.272583
1470242779001912,-0.0244141,0.224182,-0.935364,0.272583
1470242779024435,-0.0244141,0.224182,-0.935364,0.272583
1470242779040447,-0.0244141,0.224182,-0.935364,0.272583
1470242779061966,-0.0244141,0.224182,-0.935364,0.272583
1470242779084487,-0.0244141,0.224182,-0.935364,0.272583
1470242779102540,-0.0244141,0.224182,-0.935364,0.272583
1470242779122165,-0.0244141,0.224121,-0.935364,0.272583
1470242779144540,-0.024353,0.224121,-0.935364,0.272583
1470242779162057,-0.024353,0.224121,-0.935364,0.272583
1470242779181579,-0.024353,0.224121,-0.935364,0.272583
1470242779204223,-0.024353,0.224121,-0.935364,0.272583
1470242779222180,-0.024353,0.224121,-0.935364,0.272583
1470242779241752,-0.024353,0.224121,-0.935364,0.272583
1470242779264272,-0.024353,0.224121,-0.935364,0.272583
1470242779282235,-0.024353,0.224121,-0.935364,0.272583
1470242779301783,-0.024292,0.224121,-0.935364,0.272583
1470242779324315,-0.024292,0.224121,-0.935364,0.272583
1470242779342353,-0.024292,0.224121,-0.935364,0.272583
1470242779361804,-0.024292,0.224121,-0.935364,0.272583
1470242779384325,-0.0241089,0.223816,-0.935486,0.2724
1470242779402377,-0.0238647,0.223633,-0.935608,0.272217
1470242779421880,-0.0238037,0.223633,-0.935608,0.272217
1470242779444410,-0.0238037,0.223633,-0.935608,0.272217
1470242779462396,-0.0236206,0.223572,-0.935608,0.272278
1470242779481929,-0.0234375,0.223328,-0.935669,0.272339
1470242779504431,-0.0234375,0.223328,-0.935669,0.272339
1470242779522448,-0.0234375,0.223328,-0.935669,0.272339
1470242779541968,-0.0233765,0.223328,-0.935669,0.272339
1470242779564487,-0.0233765,0.223328,-0.935669,0.272339
1470242779582003,-0.0233765,0.223328,-0.935669,0.272339
1470242779604522,-0.0233765,0.223328,-0.935669,0.272339
1470242779624579,-0.0233154,0.223328,-0.935669,0.272339
1470242779642665,-0.0233154,0.223328,-0.935669,0.272339
1470242779661629,-0.0233154,0.223328,-0.935669,0.272339
1470242779684149,-0.0233765,0.223267,-0.935669,0.272339
1470242779702702,-0.0233154,0.223267,-0.935669,0.272339
1470242779723131,-0.0233154,0.223267,-0.935669,0.272339
1470242779744174,-0.0233154,0.223267,-0.935669,0.272339
1470242779762164,-0.0233154,0.223328,-0.935669,0.272339
1470242779783184,-0.0233154,0.223267,-0.935669,0.272339
1470242779804221,-0.0233154,0.223267,-0.935669,0.272339
1470242779822218,-0.0233154,0.223267,-0.935669,0.2724
1470242779844766,-0.0232544,0.223206,-0.935669,0.2724
1470242779864255,-0.0233765,0.223511,-0.935608,0.272339
1470242779882289,-0.0233765,0.223511,-0.935608,0.272339
1470242779903295,-0.0233765,0.223511,-0.935608,0.272339
1470242779924349,-0.0233765,0.223511,-0.935608,0.272339
1470242779942424,-0.0233765,0.22345,-0.935608,0.272339
1470242779963362,-0.0234375,0.223511,-0.935608,0.272339
1470242779984424,-0.0234985,0.223633,-0.935547,0.272461
1470242780002436,-0.0236816,0.223877,-0.935486,0.272461
1470242780024940,-0.0238037,0.224121,-0.935425,0.272461
1470242780044417,-0.0238647,0.224304,-0.935364,0.272461
1470242780062437,-0.0238647,0.224304,-0.935364,0.272461
1470242780085006,-0.0238647,0.224365,-0.935364,0.272461
1470242780104572,-0.0238647,0.224365,-0.935364,0.272461
1470242780122628,-0.0239258,0.224487,-0.935303,0.272461
1470242780145155,-0.0240479,0.22467,-0.935242,0.272522
1470242780164524,-0.0241089,0.22467,-0.935242,0.272522
1470242780182657,-0.0240479,0.22467,-0.935242,0.272522
1470242780204594,-0.0240479,0.22467,-0.935242,0.272522
1470242780224083,-0.0240479,0.22467,-0.935242,0.272522
1470242780242095,-0.0240479,0.22467,-0.935242,0.272522
1470242780264614,-0.0240479,0.22467,-0.935242,0.272522
1470242780284149,-0.0240479,0.22467,-0.935242,0.272522
1470242780302148,-0.0240479,0.22467,-0.935242,0.272522
1470242780324711,-0.0239868,0.22467,-0.935242,0.272522
1470242780344281,-0.0239868,0.22467,-0.935242,0.272522
1470242780362250,-0.0239868,0.22467,-0.935242,0.272522
1470242780384782,-0.0239868,0.22467,-0.935242,0.272522
1470242780404245,-0.0239868,0.22467,-0.935242,0.272522
1470242780422316,-0.0239868,0.22467,-0.935242,0.272522
1470242780444776,-0.0239868,0.22467,-0.935242,0.272522
1470242780464327,-0.0239868,0.224609,-0.935242,0.272522
1470242780482327,-0.0239868,0.224609,-0.935242,0.272522
1470242780504858,-0.0239868,0.224609,-0.935303,0.272522
1470242780524364,-0.0239868,0.224609,-0.935303,0.272522
1470242780542428,-0.0239258,0.224609,-0.935303,0.272522
1470242780564961,-0.0239258,0.224548,-0.935303,0.272522
1470242780584426,-0.0239258,0.224548,-0.935303,0.272522
1470242780602443,-0.0239258,0.224548,-0.935303,0.272522
1470242780624438,-0.0239258,0.224548,-0.935303,0.272522
1470242780645979,-0.0239258,0.224548,-0.935303,0.272522
1470242780661975,-0.0238647,0.224548,-0.935303,0.272522
1470242780684491,-0.0239258,0.22467,-0.935242,0.272522
1470242780705533,-0.0240479,0.224854,-0.935181,0.272583
1470242780722644,-0.0239868,0.224854,-0.935181,0.272583
1470242780744548,-0.0239868,0.224854,-0.935181,0.272583
1470242780765565,-0.0239868,0.224854,-0.935181,0.272583
1470242780787099,-0.0239868,0.224854,-0.935181,0.272583
1470242780809604,-0.0239868,0.224854,-0.935181,0.272583
1470242780825620,-0.0239868,0.224854,-0.935181,0.272583
1470242780842176,-0.0240479,0.224915,-0.935181,0.272583
1470242780864691,-0.024231,0.22522,-0.93512,0.272583
1470242780885677,-0.0244141,0.225586,-0.934998,0.272583
1470242780902187,-0.024353,0.225647,-0.934998,0.272583
1470242780923707,-0.024353,0.225647,-0.934998,0.272644
1470242780945226,-0.024353,0.225586,-0.934998,0.272644
1470242780960744,-0.024353,0.225586,-0.934998,0.272644
1470242780983761,-0.024353,0.225586,-0.934998,0.272644
1470242781006305,-0.024353,0.225586,-0.934998,0.272644
1470242781020794,-0.024353,0.225586,-0.934998,0.272644
1470242781043816,-0.024292,0.225586,-0.934998,0.272644
1470242781066337,-0.024292,0.225586,-0.934998,0.272644
1470242781080849,-0.024292,0.225586,-0.934998,0.272644
1470242781103868,-0.024292,0.225586,-0.934998,0.272644
1470242781126390,-0.024292,0.225586,-0.934998,0.272644
1470242781140901,-0.024292,0.225586,-0.934998,0.272644
1470242781163922,-0.024292,0.225525,-0.934998,0.272644
1470242781186480,-0.024292,0.225525,-0.934998,0.272644
1470242781200457,-0.024292,0.225525,-0.934998,0.272644
1470242781223992,-0.024231,0.225525,-0.934998,0.272644
1470242781246496,-0.0244751,0.225647,-0.934998,0.272583
1470242781260509,-0.0244751,0.225647,-0.934998,0.272583
1470242781284030,-0.0244141,0.225647,-0.934998,0.272583
1470242781306550,-0.0244141,0.225647,-0.934998,0.272644
1470242781320563,-0.0244141,0.225586,-0.934998,0.272644
1470242781343584,-0.0244141,0.225586,-0.934998,0.272644
1470242781366104,-0.0244141,0.225586,-0.934998,0.272644
1470242781380619,-0.0244141,0.225586,-0.934998,0.272644
1470242781403689,-0.024353,0.225525,-0.934998,0.272644
1470242781426208,-0.0245361,0.225708,-0.934998,0.272583
1470242781440670,-0.0245361,0.225647,-0.934998,0.272644
1470242781463693,-0.0245361,0.225647,-0.934998,0.272644
1470242781486214,-0.0244751,0.225647,-0.934998,0.272644
1470242781507731,-0.0244751,0.225647,-0.934998,0.272644
1470242781523745,-0.0244751,0.225647,-0.934998,0.272644
1470242781546274,-0.0244751,0.225647,-0.934998,0.272644
1470242781567300,-0.0244751,0.225647,-0.934998,0.272644
1470242781583799,-0.0244751,0.225586,-0.934998,0.272644
1470242781606333,-0.0244751,0.225586,-0.934998,0.272644
1470242781627394,-0.0245361,0.225769,-0.934937,0.272644
1470242781643853,-0.0245361,0.225769,-0.934937,0.272644
1470242781666374,-0.0245361,0.225769,-0.934937,0.272644
1470242781687436,-0.0245361,0.225769,-0.934937,0.272644
1470242781703927,-0.0245361,0.225769,-0.934937,0.272644
1470242781726427,-0.0245361,0.225769,-0.934937,0.272644
1470242781747447,-0.0245361,0.225769,-0.934937,0.272644
1470242781763961,-0.0245361,0.225708,-0.934937,0.272644
1470242781786482,-0.0245361,0.225708,-0.934937,0.272644
1470242781807559,-0.0244751,0.225708,-0.934937,0.272644
1470242781824015,-0.0244751,0.225708,-0.934937,0.272644
1470242781846536,-0.0245361,0.225708,-0.934937,0.272644
1470242781869055,-0.0244751,0.225708,-0.934937,0.272644
1470242781884091,-0.0244751,0.225647,-0.934937,0.272644
1470242781906106,-0.0244751,0.225647,-0.934937,0.272644
1470242781928610,-0.0244751,0.225647,-0.934998,0.272644
1470242781943624,-0.0244751,0.225647,-0.934998,0.272644
1470242781966143,-0.0244751,0.225586,-0.934998,0.272644
1470242781988664,-0.0244751,0.225586,-0.934998,0.272644
1470242782003676,-0.0244751,0.225586,-0.934998,0.272644
1470242782026236,-0.0244751,0.225586,-0.934998,0.272644
1470242782048735,-0.0244751,0.225586,-0.934998,0.272644
1470242782063230,-0.0244141,0.225525,-0.934998,0.272705
1470242782086253,-0.0244141,0.225525,-0.934998,0.272705
1470242782108771,-0.0244141,0.225525,-0.934998,0.272705
1470242782123315,-0.0244141,0.225525,-0.934998,0.272705
1470242782146304,-0.0244141,0.225525,-0.934998,0.272705
1470242782168871,-0.0244141,0.225464,-0.934998,0.272705
1470242782183339,-0.0245361,0.225586,-0.934998,0.272705
1470242782206359,-0.0245361,0.225586,-0.934998,0.272705
1470242782228878,-0.0244751,0.225586,-0.934998,0.272705
1470242782243397,-0.0244751,0.225586,-0.934998,0.272705
1470242782266414,-0.0244751,0.225586,-0.934998,0.272705
1470242782288934,-0.0244751,0.225525,-0.934998,0.272705
1470242782302954,-0.0244751,0.225525,-0.934998,0.272705
1470242782326524,-0.0244751,0.225525,-0.934998,0.272705
1470242782348987,-0.0244751,0.225525,-0.934998,0.272705
1470242782362998,-0.0245972,0.225708,-0.934937,0.272705
1470242782386556,-0.0245972,0.225708,-0.934937,0.272705
1470242782409040,-0.0245972,0.225708,-0.934937,0.272705
1470242782430059,-0.0245972,0.225708,-0.934937,0.272766
1470242782446574,-0.0245361,0.225708,-0.934937,0.272766
1470242782468598,-0.0245361,0.225708,-0.934937,0.272766
1470242782490196,-0.0245972,0.225647,-0.934937,0.272766
1470242782506129,-0.0245972,0.225647,-0.934937,0.272766
1470242782529148,-0.0245361,0.225647,-0.934937,0.272766
1470242782550186,-0.0245361,0.225647,-0.934937,0.272766
1470242782566182,-0.0245972,0.225647,-0.934937,0.272766
1470242782588757,-0.0245361,0.225647,-0.934937,0.272766
1470242782610247,-0.0245361,0.225647,-0.934937,0.272766
1470242782626237,-0.0245361,0.225586,-0.934937,0.272766
1470242782648757,-0.0245361,0.225586,-0.934937,0.272766
1470242782670275,-0.0245361,0.225525,-0.934937,0.272766
1470242782686291,-0.0245361,0.225525,-0.934998,0.272766
1470242782708809,-0.0245361,0.225525,-0.934998,0.272766
1470242782729862,-0.0245361,0.225525,-0.934998,0.272766
1470242782746343,-0.0245361,0.225525,-0.934998,0.272766
1470242782768864,-0.0245361,0.225525,-0.934998,0.272766
1470242782791387,-0.0245361,0.225464,-0.934998,0.272766
1470242782806397,-0.0244751,0.225464,-0.934998,0.272766
1470242782828920,-0.0244751,0.225464,-0.934998,0.272766
1470242782849936,-0.0244751,0.225403,-0.934998,0.272766
1470242782866452,-0.0244751,0.225464,-0.934998,0.272766
1470242782888973,-0.0244751,0.225464,-0.934998,0.272766
1470242782911491,-0.0244751,0.225464,-0.934998,0.272766
1470242782925525,-0.0244751,0.225403,-0.934998,0.272766
1470242782949030,-0.0245361,0.225525,-0.934937,0.272766
1470242782971545,-0.0245361,0.225525,-0.934998,0.272766
1470242782986558,-0.0245361,0.225525,-0.934937,0.272766
1470242783009084,-0.0245361,0.225525,-0.934937,0.272766
1470242783031100,-0.0245361,0.225525,-0.934998,0.272766
1470242783045620,-0.0245361,0.225525,-0.934998,0.272766
1470242783069132,-0.0245361,0.225525,-0.934998,0.272766
1470242783091153,-0.0244751,0.225464,-0.934998,0.272766
1470242783105676,-0.0245361,0.225525,-0.934998,0.272766
1470242783128686,-0.0244751,0.225525,-0.934998,0.272766
1470242783151707,-0.0244751,0.225525,-0.934998,0.272766
1470242783165738,-0.0244751,0.225525,-0.934937,0.272766
1470242783188740,-0.0244751,0.225525,-0.934937,0.272766
1470242783211762,-0.0244751,0.225525,-0.934937,0.272766
1470242783226276,-0.0244751,0.225525,-0.934937,0.272766
1470242783248794,-0.0244751,0.225525,-0.934937,0.272766
1470242783271316,-0.0244751,0.225464,-0.934998,0.272766
1470242783285829,-0.0244141,0.225464,-0.934998,0.272766
1470242783308848,-0.0244141,0.225464,-0.934998,0.272766
1470242783331370,-0.0244141,0.225464,-0.934998,0.272766
1470242783345889,-0.0244141,0.225464,-0.934998,0.272827
1470242783368902,-0.0244141,0.225464,-0.934998,0.272827
1470242783391424,-0.0244141,0.225403,-0.934998,0.272827
1470242783412466,-0.0244141,0.225403,-0.934998,0.272827
1470242783428957,-0.0244141,0.225403,-0.934998,0.272827
1470242783451478,-0.0244141,0.225403,-0.934998,0.272827
1470242783472555,-0.0244141,0.225403,-0.934998,0.272827
1470242783489012,-0.0244141,0.225403,-0.934998,0.272827
1470242783511531,-0.0244141,0.225403,-0.934998,0.272827
1470242783532549,-0.0244141,0.225403,-0.934998,0.272827
1470242783549064,-0.0244141,0.225403,-0.934998,0.272827
1470242783571588,-0.0244141,0.225342,-0.934998,0.272827
1470242783592616,-0.0241089,0.225159,-0.935059,0.272827
1470242783609117,-0.0241089,0.225159,-0.935059,0.272827
1470242783631640,-0.0241089,0.225159,-0.935059,0.272827
1470242783652662,-0.0241089,0.225159,-0.935059,0.272827
1470242783668671,-0.0241089,0.225159,-0.935059,0.272827
1470242783691226,-0.0240479,0.225159,-0.935059,0.272827
1470242783712711,-0.0240479,0.225098,-0.935059,0.272827
1470242783728726,-0.0241089,0.22522,-0.935059,0.272827
1470242783751247,-0.0241089,0.225342,-0.934998,0.272888
1470242783772283,-0.0241089,0.225342,-0.934998,0.272888
1470242783788813,-0.0241089,0.225403,-0.934998,0.272888
1470242783811301,-0.0239258,0.225159,-0.934998,0.272949
1470242783833819,-0.0239258,0.225159,-0.935059,0.272949
1470242783848833,-0.0240479,0.225281,-0.934998,0.272888
1470242783871381,-0.0240479,0.225281,-0.934998,0.272888
1470242783899909,-0.0240479,0.225281,-0.934998,0.272888
1470242783908887,-0.0239868,0.225281,-0.934998,0.272888
1470242783931407,-0.0239868,0.225281,-0.934998,0.272949
1470242783953934,-0.0239868,0.225281,-0.934998,0.272949
1470242783967941,-0.0239868,0.225281,-0.934998,0.272949
1470242783991468,-0.0239868,0.225281,-0.934998,0.272949
1470242784013983,-0.0239258,0.225281,-0.934998,0.272949
1470242784028494,-0.0239258,0.22522,-0.934998,0.272949
1470242784051517,-0.0239258,0.22522,-0.934998,0.272949
1470242784074037,-0.0239258,0.22522,-0.934998,0.272949
1470242784088549,-0.0239258,0.22522,-0.934998,0.272949
1470242784111569,-0.0239258,0.22522,-0.934998,0.272949
1470242784134090,-0.0239258,0.22522,-0.934998,0.272949
1470242784148102,-0.0239258,0.225159,-0.934998,0.272949
1470242784179132,-0.0238647,0.225159,-0.934998,0.272949
1470242784194143,-0.0238647,0.225159,-0.934998,0.272949
1470242784208165,-0.0238647,0.225159,-0.934998,0.272949
1470242784231677,-0.0238647,0.225159,-0.934998,0.272949
1470242784254196,-0.0238647,0.225159,-0.934998,0.272949
1470242784268268,-0.0238647,0.225098,-0.935059,0.272949
1470242784291230,-0.0238037,0.225098,-0.935059,0.272949
1470242784313750,-0.0239868,0.225342,-0.934998,0.272949
1470242784336305,-0.0239868,0.225342,-0.934998,0.272949
1470242784351287,-0.0239868,0.225342,-0.934998,0.272949
1470242784373804,-0.0239258,0.225281,-0.934998,0.272949
1470242784395402,-0.0239868,0.225464,-0.934937,0.272949
1470242784411338,-0.0241089,0.225647,-0.934937,0.272888
1470242784433858,-0.0241089,0.225647,-0.934937,0.272888
1470242784455379,-0.0240479,0.225464,-0.934937,0.272888
1470242784471425,-0.0240479,0.225464,-0.934937,0.272949
1470242784493917,-0.0240479,0.225464,-0.934937,0.272949
1470242784514948,-0.0241699,0.225586,-0.934937,0.272888
1470242784531446,-0.0241699,0.225525,-0.934937,0.272888
1470242784553966,-0.0241089,0.225525,-0.934937,0.272888
1470242784575031,-0.0241089,0.225525,-0.934937,0.272888
1470242784591501,-0.0241089,0.225525,-0.934937,0.272888
1470242784614020,-0.0241089,0.225525,-0.934937,0.272888
1470242784642603,-0.0241089,0.225464,-0.934937,0.272949
1470242784651556,-0.0241089,0.225464,-0.934937,0.272949
1470242784674076,-0.0241089,0.225464,-0.934937,0.272949
1470242784695185,-0.0241089,0.225464,-0.934937,0.272949
1470242784711618,-0.0241089,0.225464,-0.934937,0.272949
1470242784734128,-0.0241089,0.225464,-0.934937,0.272949
1470242784755151,-0.0240479,0.225464,-0.934937,0.272949
1470242784771661,-0.0240479,0.225464,-0.934937,0.272949
1470242784793681,-0.0240479,0.225464,-0.934937,0.272949
1470242784816203,-0.0240479,0.225464,-0.934937,0.272949
1470242784831222,-0.0240479,0.225403,-0.934937,0.272949
1470242784853770,-0.0240479,0.225403,-0.934937,0.272949
1470242784876260,-0.0239868,0.225403,-0.934937,0.272949
1470242784891268,-0.0240479,0.225403,-0.934937,0.272949
1470242784913807,-0.0239868,0.225403,-0.934937,0.272949
1470242784936326,-0.0239868,0.225403,-0.934937,0.272949
1470242784950832,-0.0239868,0.225403,-0.934937,0.272949
1470242784973881,-0.0239868,0.225342,-0.934937,0.272949
1470242785002371,-0.0239868,0.225342,-0.934937,0.272949
1470242785010876,-0.0239258,0.225342,-0.934998,0.272949
1470242785033898,-0.0239868,0.225342,-0.934998,0.272949
1470242785056419,-0.0239868,0.225342,-0.934998,0.272949
1470242785070430,-0.0239868,0.225281,-0.934998,0.272949
1470242785093959,-0.0239868,0.225342,-0.934998,0.272949
1470242785116473,-0.0239868,0.225342,-0.934998,0.272949
1470242785130484,-0.0239868,0.225342,-0.934998,0.272949
1470242785154037,-0.0239868,0.225281,-0.934998,0.272949
1470242785176558,-0.0239258,0.225281,-0.934998,0.272949
1470242785191038,-0.0239258,0.225281,-0.934998,0.272949
1470242785214060,-0.0239258,0.225281,-0.934998,0.272949
1470242785236579,-0.0239258,0.225281,-0.934998,0.272949
1470242785251103,-0.0239258,0.225281,-0.934998,0.272949
1470242785274134,-0.0239258,0.225281,-0.934998,0.272949
1470242785296633,-0.0239258,0.225281,-0.934998,0.272949
1470242785317654,-0.0240479,0.225403,-0.934937,0.27301
1470242785334167,-0.0240479,0.225342,-0.934937,0.27301
1470242785356711,-0.0240479,0.225403,-0.934937,0.27301
1470242785377723,-0.0240479,0.225403,-0.934937,0.27301
1470242785393735,-0.0240479,0.225342,-0.934937,0.27301
1470242785416273,-0.0240479,0.225342,-0.934937,0.27301
1470242785437259,-0.0240479,0.225342,-0.934937,0.27301
1470242785453776,-0.0240479,0.225281,-0.934998,0.27301
1470242785476296,-0.0240479,0.225342,-0.934937,0.27301
1470242785497328,-0.0240479,0.225342,-0.934937,0.27301
1470242785513828,-0.0240479,0.225342,-0.934937,0.27301
1470242785536348,-0.0239258,0.225098,-0.934998,0.27301
1470242785557410,-0.0239258,0.225098,-0.934998,0.27301
1470242785573914,-0.0239258,0.225098,-0.934998,0.27301
1470242785596412,-0.0239258,0.225098,-0.934998,0.27301
1470242785617440,-0.0239258,0.225098,-0.934998,0.27301
1470242785633936,-0.0239868,0.225098,-0.934998,0.27301
1470242785656458,-0.0239258,0.225098,-0.934998,0.27301
1470242785677492,-0.0239258,0.225098,-0.934998,0.27301
1470242785694030,-0.0239258,0.225098,-0.934998,0.27301
1470242785716512,-0.0239868,0.225098,-0.934998,0.27301
1470242785739084,-0.0239868,0.225098,-0.934998,0.27301
1470242785753543,-0.0239258,0.225098,-0.934998,0.27301
1470242785776595,-0.0239258,0.225098,-0.934998,0.27301
1470242785799114,-0.0239258,0.225098,-0.934998,0.27301
1470242785814126,-0.0239868,0.225098,-0.934998,0.27301
1470242785836618,-0.0239258,0.225098,-0.934998,0.27301
1470242785859146,-0.0239258,0.225098,-0.934998,0.27301
1470242785873151,-0.0239258,0.225098,-0.934998,0.27301
1470242785896671,-0.0239258,0.225098,-0.934998,0.27301
1470242785919192,-0.0239258,0.225098,-0.934998,0.27301
1470242785933206,-0.0239258,0.225098,-0.934998,0.27301
1470242785956269,-0.0239258,0.225098,-0.934998,0.27301
1470242785978748,-0.0239258,0.225037,-0.935059,0.27301
1470242785993260,-0.0239868,0.225098,-0.935059,0.27301
1470242786016279,-0.0239868,0.225098,-0.934998,0.272949
1470242786038799,-0.0239868,0.225098,-0.935059,0.27301
1470242786053345,-0.0239868,0.225037,-0.935059,0.272949
1470242786060821,-0.0239868,0.225037,-0.935059,0.27301
1470242786081893,-0.0239868,0.225037,-0.935059,0.27301
1470242786104373,-0.0239868,0.225037,-0.935059,0.27301
1470242786120873,-0.0239258,0.225037,-0.935059,0.27301
1470242786141933,-0.0239258,0.225037,-0.935059,0.27301
1470242786164466,-0.0239258,0.225037,-0.935059,0.27301
1470242786180958,-0.0239258,0.225037,-0.935059,0.27301
1470242786201996,-0.0239258,0.225037,-0.935059,0.27301
1470242786224560,-0.0239258,0.225037,-0.935059,0.27301
1470242786241003,-0.0239258,0.225037,-0.935059,0.27301
1470242786262035,-0.0239258,0.225037,-0.935059,0.27301
1470242786284547,-0.0239258,0.225098,-0.934998,0.27301
1470242786308041,-0.0239258,0.225098,-0.934998,0.27301
1470242786322101,-0.0239258,0.225098,-0.934998,0.27301
1470242786344574,-0.0239258,0.225098,-0.934998,0.27301
1470242786361088,-0.0239258,0.225098,-0.934998,0.27301
1470242786382139,-0.0239258,0.225098,-0.934998,0.27301
1470242786404629,-0.0239258,0.225098,-0.934998,0.27301
1470242786420642,-0.0239258,0.225098,-0.934998,0.27301
1470242786441679,-0.0239258,0.225098,-0.934998,0.27301
1470242786464682,-0.0239868,0.225098,-0.934998,0.272949
1470242786480698,-0.0239868,0.225098,-0.934998,0.27301
1470242786502252,-0.0239258,0.225098,-0.934998,0.27301
1470242786524266,-0.0239258,0.225098,-0.934998,0.27301
1470242786540750,-0.0239868,0.225098,-0.934998,0.272949
1470242786561769,-0.0239868,0.225098,-0.934998,0.272949
1470242786584309,-0.0239868,0.225098,-0.934998,0.272949
1470242786600805,-0.0239868,0.225098,-0.934998,0.272949
1470242786621889,-0.0239868,0.225098,-0.934998,0.272949
1470242786644406,-0.0239868,0.225098,-0.934998,0.272949
1470242786662388,-0.0239868,0.225098,-0.934998,0.272949
1470242786681919,-0.0239868,0.225098,-0.934998,0.272949
1470242786704428,-0.0239868,0.225098,-0.934998,0.272949
1470242786722457,-0.0239868,0.225098,-0.934998,0.272949
1470242786741974,-0.0239868,0.225098,-0.934998,0.272949
1470242786764453,-0.0239868,0.225098,-0.934998,0.272949
1470242786782481,-0.0239868,0.225098,-0.934998,0.272949
1470242786802020,-0.0239868,0.225098,-0.934998,0.272949
1470242786824505,-0.0239868,0.225098,-0.934998,0.272949
1470242786842643,-0.0240479,0.225098,-0.934998,0.272949
1470242786862043,-0.0240479,0.225098,-0.934998,0.272949
1470242786884559,-0.0239868,0.225098,-0.934998,0.272949
1470242786902575,-0.0241089,0.22522,-0.934998,0.27301
1470242786922123,-0.0241089,0.225281,-0.934998,0.27301
1470242786953153,-0.0241089,0.225281,-0.934998,0.27301
1470242786962129,-0.0241089,0.225281,-0.934998,0.27301
1470242786982146,-0.0241089,0.225281,-0.934998,0.27301
1470242787004666,-0.0241089,0.225281,-0.934998,0.27301
1470242787022771,-0.0241089,0.225281,-0.934998,0.27301
1470242787041726,-0.0241089,0.225281,-0.934998,0.27301
1470242787064222,-0.0241089,0.225281,-0.934998,0.27301
1470242787082241,-0.0241089,0.225281,-0.934998,0.27301
1470242787101782,-0.0241089,0.225281,-0.934998,0.27301
1470242787124274,-0.0241089,0.225281,-0.934998,0.27301
1470242787142335,-0.0239868,0.225098,-0.934998,0.27301
1470242787161863,-0.0239868,0.225098,-0.934998,0.27301
1470242787184358,-0.0239868,0.225098,-0.934998,0.27301
1470242787202361,-0.0239868,0.225098,-0.934998,0.272949
1470242787221879,-0.0239868,0.225098,-0.934998,0.27301
1470242787244408,-0.0239868,0.225098,-0.934998,0.272949
1470242787262416,-0.0239868,0.225098,-0.934998,0.27301
1470242787283419,-0.0239868,0.225098,-0.934998,0.272949
1470242787304453,-0.0239868,0.225159,-0.934998,0.272949
1470242787322538,-0.0239868,0.225098,-0.934998,0.272949
1470242787343517,-0.0239868,0.225098,-0.934998,0.272949
1470242787364513,-0.0239868,0.225098,-0.934998,0.272949
1470242787382506,-0.0239868,0.225098,-0.934998,0.272949
1470242787403525,-0.0239868,0.225098,-0.934998,0.272949
1470242787424543,-0.0239868,0.225098,-0.934998,0.27301
1470242787442559,-0.0239868,0.225098,-0.934998,0.27301
1470242787463582,-0.0239868,0.225098,-0.934998,0.27301
1470242787484597,-0.0239868,0.225098,-0.934998,0.272949
1470242787510120,-0.0239868,0.225098,-0.934998,0.272949
1470242787523132,-0.0239868,0.225098,-0.934998,0.272949
1470242787544206,-0.0239868,0.225098,-0.934998,0.272949
1470242787562198,-0.0239868,0.225098,-0.934998,0.272949
1470242787583186,-0.0239868,0.225098,-0.934998,0.27301
1470242787604206,-0.0239868,0.225098,-0.934998,0.27301
1470242787622244,-0.0239868,0.225098,-0.934998,0.27301
1470242787644819,-0.0239868,0.225098,-0.934998,0.27301
1470242787664261,-0.0239868,0.225159,-0.934998,0.272949
1470242787682277,-0.0239258,0.224915,-0.935059,0.272949
1470242787704851,-0.0237427,0.224609,-0.93512,0.27301
1470242787724334,-0.0237427,0.224609,-0.93512,0.27301
1470242787742360,-0.0237427,0.224609,-0.93512,0.27301
1470242787764869,-0.0236816,0.224609,-0.93512,0.27301
1470242787787413,-0.0236816,0.224609,-0.93512,0.27301
1470242787802385,-0.0237427,0.224609,-0.93512,0.27301
1470242787824945,-0.0237427,0.224609,-0.93512,0.27301
1470242787844446,-0.0237427,0.224609,-0.93512,0.27301
1470242787862496,-0.0237427,0.224609,-0.93512,0.27301
1470242787885047,-0.0237427,0.224609,-0.93512,0.27301
1470242787904510,-0.0237427,0.224609,-0.93512,0.27301
1470242787927041,-0.0236816,0.224609,-0.93512,0.27301
1470242787945031,-0.0236816,0.224609,-0.93512,0.27301
1470242787972035,-0.0237427,0.224609,-0.93512,0.27301
1470242787982587,-0.0236816,0.224609,-0.93512,0.27301
1470242788005066,-0.0236816,0.224609,-0.93512,0.27301
1470242788024616,-0.0237427,0.224609,-0.93512,0.27301
1470242788042634,-0.0237427,0.224609,-0.935181,0.27301
1470242788064619,-0.0237427,0.224609,-0.93512,0.27301
1470242788084673,-0.0236816,0.224609,-0.93512,0.27301
1470242788102783,-0.0237427,0.224609,-0.935181,0.27301
1470242788124718,-0.0237427,0.224609,-0.93512,0.27301
1470242788144245,-0.0237427,0.224609,-0.93512,0.27301
1470242788162249,-0.0237427,0.224609,-0.93512,0.27301
1470242788184767,-0.0237427,0.224609,-0.93512,0.27301
1470242788204256,-0.0237427,0.224609,-0.93512,0.27301
1470242788222315,-0.0237427,0.224609,-0.93512,0.27301
1470242788244847,-0.0237427,0.224609,-0.93512,0.27301
1470242788265813,-0.0237427,0.224609,-0.93512,0.27301
1470242788282314,-0.0237427,0.224609,-0.93512,0.27301
1470242788304862,-0.0237427,0.224609,-0.93512,0.27301
1470242788325856,-0.0237427,0.224609,-0.93512,0.27301
1470242788342400,-0.0237427,0.22467,-0.93512,0.27301
1470242788364930,-0.0237427,0.22467,-0.93512,0.272949
1470242788385908,-0.0237427,0.22467,-0.93512,0.272949
1470242788402491,-0.0237427,0.22467,-0.93512,0.272949
1470242788425044,-0.0237427,0.22467,-0.93512,0.272949
1470242788447515,-0.0237427,0.22467,-0.93512,0.272949
1470242788462554,-0.0237427,0.22467,-0.93512,0.272949
1470242788485002,-0.0237427,0.22467,-0.93512,0.272949
1470242788506014,-0.0237427,0.22467,-0.93512,0.272949
1470242788521028,-0.0237427,0.22467,-0.93512,0.272949
1470242788544052,-0.0238647,0.224792,-0.93512,0.272949
1470242788566571,-0.0238647,0.224792,-0.93512,0.272949
1470242788581082,-0.0238647,0.224792,-0.93512,0.272949
1470242788604103,-0.0239258,0.224792,-0.93512,0.272949
1470242788626624,-0.0239258,0.224792,-0.93512,0.272949
1470242788640635,-0.0239258,0.224792,-0.93512,0.272949
1470242788664156,-0.0239258,0.224792,-0.93512,0.272949
1470242788686191,-0.0239258,0.224792,-0.93512,0.272949
1470242788700691,-0.0238647,0.224792,-0.93512,0.272949
1470242788723709,-0.0238647,0.224792,-0.93512,0.272949
1470242788746730,-0.0238647,0.224792,-0.93512,0.272949
1470242788760743,-0.0238647,0.224854,-0.93512,0.272949
1470242788783764,-0.0238647,0.224792,-0.93512,0.272949
1470242788806286,-0.0238647,0.224792,-0.93512,0.272949
1470242788820797,-0.0238647,0.224792,-0.93512,0.272949
1470242788843820,-0.0239258,0.224792,-0.93512,0.272949
1470242788866338,-0.0239258,0.224792,-0.93512,0.272949
1470242788880870,-0.0238647,0.224792,-0.93512,0.272949
1470242788903872,-0.0238647,0.224854,-0.93512,0.272949
1470242788926392,-0.0238647,0.224854,-0.93512,0.272949
1470242788940904,-0.0238647,0.224792,-0.93512,0.272949
1470242788963926,-0.0238647,0.224792,-0.93512,0.272949
1470242788986445,-0.0238647,0.224792,-0.93512,0.272949
1470242789000980,-0.0238647,0.224792,-0.93512,0.272949
1470242789023982,-0.0238647,0.224792,-0.93512,0.272949
1470242789046502,-0.0238647,0.224792,-0.93512,0.272949
1470242789067587,-0.0238647,0.224792,-0.93512,0.272949
1470242789084033,-0.0238647,0.224792,-0.93512,0.272949
1470242789106556,-0.0238647,0.224792,-0.93512,0.272949
1470242789127572,-0.0238647,0.224792,-0.93512,0.272949
1470242789144088,-0.0238647,0.224792,-0.93512,0.272949
1470242789166607,-0.0238647,0.224792,-0.93512,0.272949
1470242789187680,-0.0239258,0.224792,-0.93512,0.272949
1470242789204141,-0.0238647,0.224792,-0.93512,0.272949
1470242789226676,-0.0238647,0.224792,-0.93512,0.272949
1470242789247735,-0.0238647,0.224792,-0.93512,0.272949
1470242789264195,-0.0238647,0.224792,-0.93512,0.272949
1470242789286741,-0.0238647,0.224792,-0.93512,0.272949
1470242789307743,-0.0238647,0.224792,-0.93512,0.272949
1470242789323748,-0.0238647,0.224792,-0.93512,0.27301
1470242789346269,-0.0238037,0.224792,-0.93512,0.27301
1470242789367788,-0.0239868,0.225037,-0.934998,0.27301
1470242789384303,-0.0239868,0.225098,-0.934998,0.27301
1470242789406345,-0.0239868,0.225037,-0.934998,0.27301
1470242789427342,-0.0239258,0.225037,-0.934998,0.27301
1470242789451363,-0.0239258,0.225037,-0.935059,0.27301
1470242789466379,-0.0239258,0.225037,-0.934998,0.27301
1470242789487451,-0.0239258,0.225037,-0.934998,0.27301
1470242789503910,-0.0239258,0.225098,-0.934998,0.27301
1470242789526454,-0.0239258,0.225098,-0.934998,0.27301
1470242789548953,-0.0239258,0.225098,-0.934998,0.27301
1470242789563966,-0.0239258,0.225098,-0.934998,0.27301
1470242789586485,-0.0239258,0.225098,-0.934998,0.27301
1470242789609005,-0.0239258,0.225098,-0.934998,0.27301
1470242789624018,-0.0239258,0.225037,-0.934998,0.27301
1470242789646541,-0.0239258,0.225098,-0.934998,0.27301
1470242789669061,-0.0239258,0.225098,-0.934998,0.27301
1470242789683072,-0.0239258,0.225098,-0.934998,0.27301
1470242789706628,-0.0239258,0.225037,-0.934998,0.27301
1470242789729112,-0.0238647,0.225037,-0.934998,0.27301
1470242789743125,-0.0239258,0.225037,-0.934998,0.27301
1470242789766649,-0.0239258,0.225037,-0.934998,0.27301
1470242789788713,-0.0239258,0.225037,-0.935059,0.27301
1470242789803180,-0.0239258,0.225037,-0.935059,0.27301
1470242789826206,-0.0239258,0.225037,-0.935059,0.27301
1470242789849239,-0.0239258,0.225037,-0.935059,0.27301
1470242789863233,-0.0239258,0.225037,-0.935059,0.27301
1470242789886281,-0.0238647,0.225037,-0.935059,0.27301
1470242789909275,-0.0238647,0.225037,-0.935059,0.27301
1470242789923313,-0.0238647,0.225037,-0.935059,0.27301
1470242789946815,-0.0238647,0.225037,-0.935059,0.27301
1470242789968849,-0.0238647,0.225037,-0.935059,0.27301
1470242789983343,-0.0238647,0.225037,-0.935059,0.27301
1470242790006363,-0.0238647,0.225037,-0.935059,0.27301
1470242790028882,-0.0238647,0.225037,-0.935059,0.27301
1470242790049915,-0.0238647,0.225037,-0.935059,0.27301
1470242790066416,-0.0238647,0.225037,-0.935059,0.27301
1470242790088937,-0.0238647,0.225037,-0.935059,0.27301
1470242790109969,-0.0238647,0.225037,-0.935059,0.27301
1470242790126469,-0.0238647,0.225037,-0.935059,0.27301
1470242790148991,-0.0238647,0.225037,-0.935059,0.27301
1470242790170010,-0.0238037,0.225037,-0.935059,0.27301
1470242790186524,-0.0238647,0.22522,-0.934998,0.273071
1470242790209046,-0.0238647,0.22522,-0.934998,0.273071
1470242790230062,-0.0238647,0.22522,-0.934998,0.273071
1470242790246578,-0.0238647,0.22522,-0.934998,0.273071
1470242790275104,-0.0238647,0.22522,-0.934998,0.273071
1470242790290117,-0.0239258,0.225403,-0.934937,0.273132
1470242790306631,-0.0239258,0.225403,-0.934937,0.273132
1470242790329152,-0.0239258,0.225403,-0.934937,0.273132
1470242790351172,-0.0238647,0.225403,-0.934937,0.273132
1470242790366184,-0.0238647,0.225403,-0.934875,0.273132
1470242790389205,-0.0238647,0.225464,-0.934875,0.273132
1470242790410253,-0.0238647,0.225403,-0.934875,0.273132
1470242790426739,-0.0238647,0.225403,-0.934875,0.273132
1470242790449259,-0.0238647,0.225403,-0.934937,0.273132
1470242790471802,-0.0238647,0.225403,-0.934937,0.273132
1470242790486306,-0.0238647,0.225403,-0.934937,0.273132
1470242790509314,-0.0238647,0.225342,-0.934937,0.273132
1470242790531335,-0.0238647,0.225342,-0.934937,0.273132
1470242790546347,-0.0238647,0.225342,-0.934937,0.273132
1470242790568886,-0.0238037,0.225342,-0.934937,0.273132
1470242790591389,-0.0238647,0.225342,-0.934937,0.273132
1470242790606400,-0.0238647,0.225342,-0.934937,0.273132
1470242790628920,-0.0238037,0.225342,-0.934937,0.273132
1470242790651442,-0.0238037,0.225342,-0.934937,0.273132
1470242790665954,-0.0238037,0.225342,-0.934937,0.273132
1470242790688974,-0.0238037,0.225342,-0.934937,0.273132
1470242790717553,-0.0238037,0.225342,-0.934937,0.273132
1470242790726008,-0.0238037,0.225342,-0.934937,0.273132
1470242790749029,-0.0238037,0.225281,-0.934937,0.273132
1470242790771552,-0.0238037,0.225464,-0.934875,0.273193
1470242790785562,-0.0238037,0.225464,-0.934875,0.273193
1470242790809122,-0.0238037,0.225464,-0.934875,0.273193
1470242790831602,-0.0238037,0.225464,-0.934875,0.273193
1470242790846115,-0.0238037,0.225464,-0.934875,0.273193
1470242790869137,-0.0238037,0.225464,-0.934875,0.273193
1470242790891659,-0.0238037,0.225464,-0.934875,0.273193
1470242790905669,-0.0238037,0.225464,-0.934875,0.273193
1470242790929192,-0.0238037,0.225464,-0.934875,0.273193
1470242790951742,-0.0238037,0.225464,-0.934875,0.273193
1470242790972732,-0.0238037,0.225464,-0.934875,0.273193
1470242790988753,-0.0238037,0.225525,-0.934875,0.273193
1470242791011764,-0.0237427,0.225525,-0.934875,0.273193
1470242791032784,-0.0237427,0.225525,-0.934875,0.273193
1470242791048855,-0.0237427,0.225525,-0.934875,0.273193
1470242791071318,-0.0238037,0.225525,-0.934875,0.273193
1470242791092837,-0.0237427,0.225525,-0.934875,0.273193
1470242791116372,-0.0237427,0.225525,-0.934875,0.273193
1470242791131372,-0.0237427,0.225525,-0.934875,0.273193
1470242791152994,-0.0237427,0.225586,-0.934875,0.273193
1470242791169505,-0.0237427,0.225525,-0.934875,0.273193
1470242791191524,-0.0237427,0.225586,-0.934875,0.273193
1470242791212631,-0.0237427,0.225586,-0.934875,0.273193
1470242791229058,-0.0237427,0.225525,-0.934875,0.273193
1470242791251578,-0.0237427,0.225525,-0.934875,0.273193
1470242791272622,-0.0237427,0.225525,-0.934875,0.273193
1470242791289109,-0.0237427,0.225525,-0.934875,0.273193
1470242791311641,-0.0236816,0.225525,-0.934875,0.273193
1470242791332648,-0.0236816,0.225586,-0.934875,0.273193
1470242791356670,-0.0236816,0.225525,-0.934875,0.273193
1470242791371736,-0.0236816,0.225525,-0.934875,0.273193
1470242791392791,-0.0236816,0.225525,-0.934875,0.273193
1470242791408218,-0.0236816,0.225525,-0.934875,0.273193
1470242791431737,-0.0236816,0.225525,-0.934875,0.273193
1470242791454257,-0.0236816,0.225525,-0.934875,0.273193
1470242791469271,-0.0236816,0.225525,-0.934875,0.273193
1470242791491300,-0.0236816,0.225525,-0.934875,0.273193
1470242791514312,-0.0236816,0.225525,-0.934875,0.273193
1470242791528825,-0.0236816,0.225525,-0.934875,0.273193
1470242791551345,-0.0236816,0.225525,-0.934875,0.273193
1470242791573865,-0.0236816,0.225525,-0.934875,0.273193
1470242791588378,-0.0236816,0.225647,-0.934814,0.273193
1470242791611411,-0.0238647,0.226013,-0.934753,0.273132
1470242791633921,-0.0238647,0.226013,-0.934753,0.273132
1470242791648442,-0.0238647,0.226013,-0.934753,0.273132
1470242791671953,-0.0238037,0.226013,-0.934753,0.273132
1470242791694001,-0.0238037,0.226013,-0.934753,0.273132
1470242791708491,-0.0238037,0.226013,-0.934753,0.273132
1470242791731508,-0.0238647,0.226074,-0.934753,0.273132
1470242791754045,-0.0238647,0.226074,-0.934753,0.273132
1470242791768540,-0.0238037,0.226013,-0.934753,0.273132
1470242791791602,-0.0238037,0.226013,-0.934753,0.273132
1470242791814083,-0.0238647,0.226013,-0.934753,0.273132
1470242791828094,-0.0238037,0.226013,-0.934753,0.273132
1470242791851615,-0.0238037,0.226013,-0.934753,0.273132
1470242791874135,-0.0238037,0.226013,-0.934753,0.273132
1470242791888649,-0.0238037,0.226013,-0.934753,0.273132
1470242791911670,-0.0238037,0.226013,-0.934753,0.273132
1470242791934191,-0.0238037,0.226013,-0.934753,0.273132
1470242791955207,-0.0238037,0.226013,-0.934753,0.273132
1470242791971222,-0.0238037,0.226013,-0.934753,0.273193
1470242791994248,-0.0238037,0.225952,-0.934753,0.273193
1470242792015266,-0.0238037,0.226013,-0.934753,0.273193
1470242792031796,-0.0238037,0.225952,-0.934753,0.273193
1470242792054296,-0.0237427,0.225952,-0.934753,0.273193
1470242792075316,-0.0237427,0.225952,-0.934753,0.273193
1470242792091832,-0.0237427,0.225952,-0.934753,0.273193
1470242792113850,-0.0237427,0.225952,-0.934753,0.273193
1470242792134869,-0.0237427,0.225952,-0.934753,0.273193
1470242792151432,-0.0237427,0.225952,-0.934753,0.273193
1470242792173906,-0.0237427,0.225952,-0.934753,0.273193
1470242792195423,-0.0237427,0.225952,-0.934753,0.273193
1470242792211438,-0.0237427,0.225952,-0.934753,0.273193
1470242792233958,-0.0237427,0.225952,-0.934753,0.273193
1470242792255019,-0.0237427,0.225952,-0.934753,0.273193
1470242792271498,-0.0237427,0.225952,-0.934753,0.273193
1470242792294014,-0.0237427,0.225952,-0.934753,0.273193
1470242792315084,-0.0237427,0.225952,-0.934753,0.273193
1470242792331559,-0.0237427,0.225952,-0.934753,0.273193
1470242792354110,-0.0236816,0.22583,-0.934814,0.273132
1470242792376588,-0.0236816,0.225464,-0.934875,0.273071
1470242792391636,-0.0234985,0.225159,-0.934998,0.273071
1470242792414120,-0.0234985,0.225159,-0.934998,0.273071
1470242792436657,-0.0237427,0.225342,-0.934998,0.272949
1470242792451655,-0.0237427,0.225342,-0.934998,0.272949
1470242792474178,-0.0236206,0.225098,-0.935059,0.272888
1470242792504203,-0.0236206,0.225098,-0.935059,0.272949
1470242792511208,-0.0236206,0.225098,-0.935059,0.272949
1470242792534227,-0.0236206,0.225098,-0.935059,0.272949
1470242792556763,-0.0236206,0.225098,-0.935059,0.272888
1470242792570760,-0.0236206,0.225037,-0.935059,0.272949
1470242792594281,-0.0236206,0.224976,-0.935059,0.272949
1470242792616820,-0.0236816,0.225159,-0.934998,0.272949
1470242792630815,-0.0238037,0.225403,-0.934937,0.27301
1470242792653885,-0.0238037,0.225403,-0.934937,0.27301
1470242792676355,-0.0237427,0.225403,-0.934937,0.27301
1470242792697901,-0.0237427,0.225403,-0.934937,0.27301
1470242792713891,-0.0237427,0.225403,-0.934937,0.27301
1470242792736438,-0.0237427,0.225342,-0.934937,0.27301
1470242792750927,-0.0237427,0.225586,-0.934875,0.273132
1470242792773945,-0.0236206,0.225769,-0.934814,0.273254
1470242792796463,-0.0236206,0.226074,-0.934692,0.273315
1470242792810978,-0.0236206,0.226257,-0.934631,0.273376
1470242792833997,-0.0236206,0.226318,-0.934631,0.273376
1470242792856519,-0.0236206,0.226318,-0.934631,0.273376
1470242792877561,-0.0236206,0.226318,-0.934631,0.273376
1470242792894052,-0.0236206,0.226318,-0.934631,0.273376
1470242792916571,-0.0236206,0.226318,-0.934631,0.273376
1470242792937619,-0.0236206,0.226318,-0.934631,0.273376
1470242792954106,-0.0236206,0.226379,-0.934631,0.273376
1470242792976661,-0.0236206,0.226318,-0.934631,0.273376
1470242792997702,-0.0236206,0.226318,-0.934631,0.273376
1470242793014190,-0.0236206,0.226318,-0.934631,0.273376
1470242793036678,-0.0236206,0.226318,-0.934631,0.273376
1470242793059199,-0.0236206,0.226318,-0.934631,0.273376
1470242793074225,-0.0236206,0.226318,-0.934631,0.273376
1470242793096733,-0.0236206,0.226379,-0.934631,0.273376
1470242793117753,-0.0236206,0.226379,-0.93457,0.273376
1470242793134267,-0.0234985,0.226074,-0.934692,0.273376
1470242793156380,-0.0233765,0.225708,-0.934814,0.273315
1470242793177443,-0.0233765,0.225708,-0.934814,0.273315
1470242793194414,-0.0233765,0.225708,-0.934814,0.273315
1470242793216434,-0.0233765,0.225708,-0.934814,0.273315
1470242793237455,-0.0233154,0.225464,-0.934875,0.273193
1470242793253968,-0.0232544,0.22522,-0.934998,0.273071
1470242793276490,-0.0232544,0.22522,-0.934998,0.273132
1470242793297508,-0.0232544,0.22522,-0.934998,0.273132
1470242793314022,-0.0232544,0.22522,-0.934998,0.273132
1470242793337044,-0.0232544,0.22522,-0.934998,0.273132
1470242793359064,-0.0232544,0.22522,-0.934998,0.273132
1470242793374076,-0.0232544,0.22522,-0.934998,0.273132
1470242793396598,-0.0232544,0.22522,-0.934998,0.273132
1470242793409622,-0.0232544,0.225159,-0.934998,0.273132
1470242793434132,-0.0232544,0.225159,-0.934998,0.273132
1470242793456685,-0.0231934,0.225159,-0.934998,0.273132
1470242793479171,-0.0231934,0.225159,-0.934998,0.273132
1470242793493183,-0.0232544,0.225159,-0.934998,0.273132
1470242793516727,-0.0232544,0.225159,-0.934998,0.273132
1470242793539224,-0.0231934,0.225159,-0.934998,0.273132
1470242793553238,-0.0231934,0.225159,-0.934998,0.273132
1470242793576757,-0.0231934,0.225159,-0.934998,0.273132
1470242793599286,-0.0231934,0.225159,-0.934998,0.273132
1470242793613791,-0.0231934,0.225159,-0.934998,0.273132
1470242793642818,-0.0231934,0.225159,-0.934998,0.273132
1470242793658836,-0.0231934,0.225159,-0.934998,0.273132
1470242793664861,-0.0231934,0.225159,-0.934998,0.273132
1470242793680851,-0.0231934,0.225159,-0.934998,0.273132
1470242793701889,-0.0231323,0.225159,-0.934998,0.273132
1470242793724403,-0.0231934,0.225159,-0.934998,0.273132
1470242793740908,-0.0231323,0.225159,-0.934998,0.273132
1470242793769447,-0.0231934,0.225159,-0.934998,0.273132
1470242793784488,-0.0231934,0.225159,-0.934998,0.273132
1470242793800997,-0.0231934,0.225159,-0.934998,0.273132
1470242793822022,-0.0231934,0.225159,-0.934998,0.273132
1470242793844567,-0.0231934,0.225159,-0.934998,0.273132
1470242793861015,-0.0231934,0.225159,-0.934998,0.273132
1470242793883535,-0.0231934,0.225159,-0.934998,0.273132
1470242793904554,-0.0231934,0.225159,-0.934998,0.273132
1470242793921067,-0.0231934,0.225159,-0.934998,0.273132
1470242793942116,-0.0231934,0.225159,-0.934998,0.273132
1470242793964607,-0.0231934,0.225159,-0.934998,0.273132
1470242793982623,-0.0231323,0.225159,-0.934998,0.273132
1470242794002141,-0.0231934,0.225159,-0.934998,0.273132
1470242794024660,-0.0231323,0.225159,-0.934998,0.273132
1470242794047180,-0.0231323,0.225159,-0.934998,0.273132
1470242794062283,-0.0231323,0.225159,-0.934998,0.273132
1470242794084730,-0.0231323,0.225159,-0.934998,0.273132
1470242794100728,-0.0231323,0.225159,-0.934998,0.273132
1470242794121800,-0.0231323,0.225159,-0.934998,0.273132
1470242794144267,-0.0231323,0.225159,-0.934998,0.273132
1470242794160782,-0.0231323,0.225159,-0.934998,0.273132
1470242794182302,-0.0231934,0.225342,-0.934937,0.273132
1470242794204826,-0.0231934,0.225342,-0.934937,0.273132
1470242794220844,-0.0230713,0.225098,-0.934998,0.273132
1470242794241857,-0.0230713,0.225037,-0.934998,0.273132
1470242794264375,-0.0230713,0.225037,-0.934998,0.273132
1470242794282392,-0.0230713,0.225037,-0.934998,0.273132
1470242794301911,-0.0230713,0.225098,-0.934998,0.273132
1470242794324454,-0.0230713,0.225098,-0.934998,0.273132
1470242794342446,-0.0230713,0.225098,-0.934998,0.273132
1470242794361963,-0.0230713,0.225037,-0.934998,0.273132
1470242794384483,-0.0230713,0.225037,-0.934998,0.273132
1470242794402507,-0.0230713,0.225037,-0.934998,0.273132
1470242794422034,-0.0230713,0.225037,-0.934998,0.273132
1470242794444538,-0.0230713,0.225037,-0.934998,0.273132
1470242794462644,-0.0230713,0.225037,-0.934998,0.273132
1470242794482071,-0.0230103,0.224854,-0.935059,0.273132
1470242794504590,-0.0230103,0.224854,-0.935059,0.273132
1470242794522607,-0.0229492,0.224792,-0.935059,0.273132
1470242794542143,-0.0230103,0.225037,-0.934998,0.273193
1470242794564645,-0.0230713,0.225159,-0.934937,0.273254
1470242794582661,-0.0230713,0.225159,-0.934937,0.273254
1470242794602179,-0.0230713,0.225159,-0.934937,0.273254
1470242794624774,-0.0230713,0.225159,-0.934937,0.273254
1470242794642229,-0.0230713,0.225159,-0.934937,0.273254
1470242794662291,-0.0231323,0.225281,-0.934875,0.273315
1470242794684254,-0.0231934,0.225464,-0.934814,0.273376
1470242794702268,-0.0231934,0.225464,-0.934814,0.273376
1470242794722296,-0.0231934,0.225525,-0.934814,0.273376
1470242794744840,-0.0231934,0.225525,-0.934814,0.273376
1470242794762444,-0.0231934,0.225464,-0.934814,0.273376
1470242794781840,-0.0231323,0.225464,-0.934814,0.273376
1470242794804363,-0.0231934,0.225464,-0.934814,0.273376
1470242794822378,-0.0231934,0.225464,-0.934814,0.273376
1470242794841895,-0.0231934,0.225464,-0.934814,0.273376
1470242794864416,-0.0231323,0.225464,-0.934814,0.273376
1470242794882431,-0.0231323,0.225464,-0.934814,0.273376
1470242794903449,-0.0231323,0.225464,-0.934814,0.273376
1470242794924483,-0.0231323,0.225464,-0.934814,0.273376
1470242794942502,-0.0231323,0.225464,-0.934814,0.273376
1470242794963557,-0.0230713,0.22522,-0.934875,0.273376
1470242794984540,-0.0230103,0.22522,-0.934875,0.273376
1470242795003041,-0.0232544,0.225403,-0.934875,0.273376
1470242795023563,-0.0232544,0.225342,-0.934875,0.273376
1470242795044656,-0.0232544,0.225342,-0.934875,0.273376
1470242795062640,-0.0232544,0.225342,-0.934875,0.273376
1470242795083610,-0.0232544,0.225342,-0.934875,0.273376
1470242795107696,-0.0232544,0.225342,-0.934875,0.273376
1470242795122646,-0.0232544,0.225281,-0.934875,0.273376
1470242795143665,-0.0232544,0.225281,-0.934875,0.273376
1470242795164687,-0.0232544,0.225281,-0.934875,0.273376
1470242795190228,-0.0231934,0.225281,-0.934875,0.273376
1470242795204720,-0.0232544,0.225281,-0.934875,0.273376
1470242795224858,-0.0231934,0.225281,-0.934875,0.273376
1470242795242278,-0.0231934,0.225281,-0.934875,0.273376
1470242795264774,-0.0231934,0.225281,-0.934875,0.273376
1470242795284381,-0.0231934,0.225281,-0.934875,0.273376
1470242795302377,-0.0231934,0.22522,-0.934875,0.273376
1470242795324829,-0.0231934,0.22522,-0.934875,0.273376
1470242795344362,-0.0231934,0.22522,-0.934875,0.273376
1470242795362421,-0.0231323,0.22522,-0.934875,0.273376
1470242795384929,-0.0231934,0.22522,-0.934875,0.273376
1470242795404401,-0.0231934,0.22522,-0.934875,0.273376
1470242795422418,-0.0231934,0.22522,-0.934875,0.273376
1470242795444935,-0.0231934,0.22522,-0.934875,0.273376
1470242795464454,-0.0231323,0.22522,-0.934875,0.273376
1470242795482471,-0.0231323,0.22522,-0.934875,0.273376
1470242795505019,-0.0231323,0.22522,-0.934875,0.273376
1470242795524563,-0.0231323,0.22522,-0.934875,0.273376
1470242795542619,-0.0231323,0.22522,-0.934875,0.273376
1470242795565043,-0.0231323,0.225159,-0.934875,0.273376
1470242795584621,-0.0231323,0.225159,-0.934875,0.273376
1470242795602609,-0.0231323,0.225159,-0.934875,0.273438
1470242795625129,-0.0231323,0.225159,-0.934875,0.273376
1470242795644614,-0.0231323,0.225159,-0.934875,0.273438
1470242795662632,-0.0231323,0.225159,-0.934937,0.273438
1470242795685151,-0.0230713,0.225098,-0.934937,0.273438
1470242795704668,-0.0230713,0.225098,-0.934937,0.273438
1470242795722685,-0.0231323,0.225098,-0.934937,0.273438
1470242795745229,-0.0231323,0.225098,-0.934937,0.273438
1470242795767225,-0.0231323,0.225098,-0.934937,0.273438
1470242795782278,-0.0230713,0.225098,-0.934937,0.273438
1470242795804768,-0.0232544,0.225281,-0.934875,0.273438
1470242795833286,-0.0233765,0.225403,-0.934814,0.273438
1470242795842841,-0.0233154,0.225403,-0.934814,0.273438
1470242795864813,-0.0233154,0.225403,-0.934814,0.273438
1470242795885831,-0.0233154,0.225403,-0.934814,0.273438
1470242795902347,-0.0233154,0.225403,-0.934814,0.273438
1470242795924925,-0.0233154,0.225342,-0.934814,0.273438
1470242795945885,-0.0233154,0.225342,-0.934814,0.273438
1470242795962453,-0.0233154,0.225342,-0.934814,0.273438
1470242795984978,-0.0233154,0.225342,-0.934814,0.273438
1470242796005939,-0.0233154,0.225403,-0.934814,0.273438
1470242796022497,-0.0233154,0.225342,-0.934814,0.273438
1470242796044983,-0.0233154,0.225342,-0.934814,0.273438
1470242796067496,-0.0233154,0.225342,-0.934814,0.273438
1470242796082508,-0.0233154,0.225342,-0.934814,0.273438
1470242796112535,-0.0233154,0.225342,-0.934814,0.273438
1470242796126050,-0.0233765,0.225342,-0.934814,0.273438
1470242796141060,-0.0233154,0.225342,-0.934814,0.273438
1470242796164081,-0.0233154,0.225342,-0.934814,0.273438
1470242796186601,-0.0233154,0.225342,-0.934814,0.273438
1470242796201114,-0.0233765,0.225342,-0.934814,0.273438
1470242796224137,-0.0233765,0.225342,-0.934814,0.273438
1470242796246677,-0.0233154,0.225342,-0.934814,0.273438
1470242796267763,-0.0233154,0.225342,-0.934814,0.273438
1470242796284191,-0.0233154,0.225342,-0.934814,0.273438
1470242796306709,-0.0233154,0.225342,-0.934814,0.273438
1470242796320722,-0.0233154,0.225342,-0.934814,0.273438
1470242796344245,-0.0233154,0.225342,-0.934875,0.273438
1470242796366765,-0.0233154,0.225342,-0.934875,0.273438
1470242796380775,-0.0233154,0.225281,-0.934875,0.273438
1470242796404301,-0.0233154,0.225281,-0.934875,0.273438
1470242796434325,-0.0233154,0.225281,-0.934875,0.273438
1470242796440830,-0.0233154,0.225281,-0.934875,0.273438
1470242796464351,-0.0233154,0.225281,-0.934875,0.273438
1470242796494378,-0.0233154,0.225342,-0.934875,0.273438
1470242796500885,-0.0233154,0.225281,-0.934875,0.273438
1470242796524405,-0.0233154,0.225281,-0.934875,0.273438
1470242796546425,-0.0232544,0.225281,-0.934875,0.273438
1470242796561438,-0.0232544,0.225281,-0.934875,0.273438
1470242796583960,-0.0233154,0.225281,-0.934875,0.273438
1470242796606480,-0.0232544,0.225281,-0.934875,0.273438
1470242796620991,-0.0232544,0.225281,-0.934875,0.273438
1470242796644012,-0.0233154,0.225342,-0.934814,0.273499
1470242796666532,-0.0233154,0.225342,-0.934814,0.273499
1470242796688102,-0.0233154,0.225342,-0.934814,0.273499
1470242796704068,-0.0233154,0.225342,-0.934814,0.273499
1470242796726586,-0.0233154,0.225342,-0.934814,0.273499
1470242796747605,-0.0233154,0.225342,-0.934814,0.273499
1470242796764620,-0.0233154,0.225342,-0.934814,0.273499
1470242796786654,-0.0233154,0.225342,-0.934814,0.273499
1470242796807749,-0.0233154,0.225342,-0.934814,0.273499
1470242796824176,-0.0233154,0.225342,-0.934814,0.273499
1470242796854203,-0.0233154,0.225342,-0.934814,0.273499
1470242796867730,-0.0233154,0.225281,-0.934814,0.273499
1470242796884264,-0.0232544,0.225281,-0.934814,0.273499
1470242796906750,-0.0232544,0.225281,-0.934814,0.273499
1470242796928270,-0.0233765,0.225464,-0.934814,0.273499
1470242796944782,-0.0234375,0.225464,-0.934814,0.273499
1470242796966804,-0.0234375,0.225464,-0.934814,0.273499
1470242796987859,-0.0233765,0.225403,-0.934814,0.273499
1470242797004336,-0.0233765,0.225403,-0.934814,0.273499
1470242797026855,-0.0233765,0.225403,-0.934814,0.273499
1470242797049376,-0.0233765,0.225403,-0.934814,0.273499
1470242797064389,-0.0233765,0.225403,-0.934814,0.273499
1470242797086909,-0.0233765,0.225403,-0.934814,0.273499
1470242797108967,-0.0233765,0.225403,-0.934814,0.273499
1470242797131450,-0.0233765,0.225403,-0.934814,0.273499
1470242797146464,-0.0233765,0.225403,-0.934814,0.273499
1470242797168984,-0.0233765,0.225342,-0.934814,0.273499
1470242797183997,-0.0233765,0.225342,-0.934814,0.273499
1470242797206517,-0.0233765,0.225342,-0.934814,0.27356
1470242797229037,-0.0233154,0.225342,-0.934814,0.27356
1470242797244051,-0.0233765,0.225342,-0.934814,0.27356
1470242797266571,-0.0233765,0.225342,-0.934814,0.27356
1470242797289120,-0.0233154,0.225342,-0.934814,0.27356
1470242797303604,-0.0233154,0.225342,-0.934814,0.27356
1470242797326668,-0.0233154,0.225342,-0.934814,0.27356
1470242797349145,-0.0231934,0.22522,-0.934875,0.273499
1470242797363658,-0.0230103,0.224976,-0.934937,0.273499
1470242797386679,-0.0230103,0.224976,-0.934937,0.273499
1470242797409201,-0.0230713,0.224976,-0.934937,0.273499
1470242797423212,-0.0230713,0.224915,-0.934937,0.273499
1470242797446738,-0.0230713,0.224915,-0.934937,0.273499
1470242797469254,-0.0230103,0.224915,-0.934937,0.273499
1470242797490343,-0.0230103,0.224915,-0.934937,0.273499
1470242797506788,-0.0230103,0.224915,-0.934937,0.273499
1470242797529340,-0.0230103,0.224915,-0.934937,0.273499
1470242797543319,-0.0230103,0.224915,-0.934937,0.273499
1470242797566842,-0.0230103,0.224915,-0.934937,0.273499
1470242797589360,-0.0230103,0.224915,-0.934937,0.273499
1470242797610379,-0.0228882,0.22467,-0.934998,0.273499
1470242797626394,-0.022644,0.224426,-0.935059,0.273621
1470242797656438,-0.0223389,0.224182,-0.935059,0.273682
1470242797670434,-0.0223389,0.224182,-0.935059,0.273682
1470242797686449,-0.0223389,0.224182,-0.935059,0.273682
1470242797709009,-0.0223389,0.224182,-0.935059,0.273682
1470242797729986,-0.0223389,0.224121,-0.935059,0.273682
1470242797746543,-0.0223389,0.224121,-0.935059,0.273682
1470242797769024,-0.0222778,0.224121,-0.935059,0.273682
1470242797790096,-0.0222778,0.224121,-0.935059,0.273682
1470242797806556,-0.0222168,0.224304,-0.934998,0.273804
1470242797829076,-0.0222168,0.224304,-0.934998,0.273804
1470242797850095,-0.0222168,0.224304,-0.934998,0.273804
1470242797866610,-0.0221558,0.224304,-0.934998,0.273865
1470242797889130,-0.0221558,0.224243,-0.934998,0.273865
1470242797910172,-0.0221558,0.224243,-0.934998,0.273865
1470242797926685,-0.0219116,0.224182,-0.935059,0.273804
1470242797949184,-0.0215454,0.224121,-0.93512,0.273743
1470242797970205,-0.0210571,0.223816,-0.935181,0.273682
1470242797986717,-0.0205688,0.223816,-0.935242,0.273499
1470242798009259,-0.0201416,0.223877,-0.935242,0.27356
1470242798030277,-0.0198975,0.223877,-0.935242,0.273499
1470242798046798,-0.0196533,0.223572,-0.935364,0.273376
1470242798069309,-0.0194092,0.223572,-0.935425,0.273193
1470242798091812,-0.0193481,0.223755,-0.935425,0.273132
1470242798106838,-0.0192871,0.223938,-0.935364,0.273132
1470242798128925,-0.0193481,0.224182,-0.935303,0.273132
1470242798151448,-0.0194702,0.224365,-0.935242,0.273132
1470242798166461,-0.0195923,0.224609,-0.935181,0.273254
1470242798188979,-0.0197754,0.224731,-0.93512,0.273376
1470242798211500,-0.0198975,0.224731,-0.935059,0.273438
1470242798226012,-0.0198975,0.224731,-0.935059,0.273438
1470242798249035,-0.0198975,0.224731,-0.935059,0.273438
1470242798271553,-0.0198975,0.224731,-0.935059,0.273438
1470242798286068,-0.0198975,0.224731,-0.935059,0.273438
1470242798309087,-0.0198975,0.224731,-0.935059,0.273438
1470242798332110,-0.0198975,0.224731,-0.935059,0.273438
1470242798345655,-0.0198975,0.224731,-0.935059,0.273438
1470242798368646,-0.0198975,0.224731,-0.935059,0.273438
1470242798391661,-0.0198975,0.224731,-0.935059,0.273438
1470242798406174,-0.0198975,0.224731,-0.935059,0.273438
1470242798429195,-0.0199585,0.224976,-0.934998,0.273438
1470242798451717,-0.0200195,0.22522,-0.934937,0.273376
1470242798466228,-0.0200195,0.22522,-0.934937,0.273376
1470242798489249,-0.0200195,0.22522,-0.934937,0.273376
1470242798511770,-0.0200806,0.225403,-0.934937,0.273438
1470242798525783,-0.0202026,0.225586,-0.934875,0.273438
1470242798549330,-0.0202026,0.225586,-0.934875,0.273438
1470242798571823,-0.0202026,0.225586,-0.934875,0.273438
1470242798592882,-0.0202026,0.225586,-0.934875,0.273438
1470242798609356,-0.0201416,0.225586,-0.934875,0.273438
1470242798631877,-0.0201416,0.225586,-0.934875,0.273438
1470242798652896,-0.0201416,0.225647,-0.934814,0.273438
1470242798669430,-0.0201416,0.225647,-0.934814,0.273438
1470242798691930,-0.0201416,0.225647,-0.934814,0.273438
1470242798712950,-0.0201416,0.225647,-0.934814,0.273438
1470242798728966,-0.0201416,0.225647,-0.934814,0.273438
1470242798751484,-0.0201416,0.225647,-0.934814,0.273438
1470242798772504,-0.0201416,0.225647,-0.934814,0.273438
1470242798789018,-0.0200806,0.225525,-0.934875,0.273499
1470242798811540,-0.0200195,0.225403,-0.934875,0.27356
1470242798832556,-0.0198975,0.225159,-0.934937,0.273621
1470242798849072,-0.0197754,0.224915,-0.934937,0.273682
1470242798871592,-0.0197754,0.224915,-0.934937,0.273682
1470242798892611,-0.0197144,0.225037,-0.934875,0.273865
1470242798909125,-0.0197754,0.22522,-0.934753,0.274048
1470242798931647,-0.0197754,0.22522,-0.934753,0.274048
1470242798952664,-0.0197754,0.22522,-0.934753,0.274048
1470242798969180,-0.0197754,0.22522,-0.934814,0.274048
1470242798991700,-0.0198364,0.225525,-0.934692,0.274048
1470242799014220,-0.0198364,0.225464,-0.934692,0.273987
1470242799029234,-0.0198364,0.225464,-0.934692,0.274048
1470242799051754,-0.0200195,0.22583,-0.934631,0.273987
1470242799074274,-0.0200195,0.22583,-0.934631,0.273987
1470242799089288,-0.0200195,0.22583,-0.934631,0.273987
1470242799111807,-0.0201416,0.225952,-0.934631,0.273987
1470242799134328,-0.0201416,0.225952,-0.934631,0.273987
1470242799149842,-0.0200806,0.225952,-0.934631,0.273987
1470242799171861,-0.0200806,0.225952,-0.934631,0.273987
1470242799193881,-0.0200806,0.225952,-0.934631,0.273987
1470242799208394,-0.0200806,0.225952,-0.934631,0.273987
1470242799231415,-0.0200806,0.225952,-0.934631,0.273987
1470242799253935,-0.0200806,0.225952,-0.934631,0.273987
1470242799268449,-0.0200806,0.225952,-0.934631,0.273987
1470242799291470,-0.0200806,0.225952,-0.934631,0.273987
1470242799313989,-0.0200806,0.225952,-0.934631,0.273987
1470242799328504,-0.0200806,0.225952,-0.934631,0.273987
1470242799351524,-0.0200806,0.225952,-0.934631,0.273987
1470242799374043,-0.0201416,0.225952,-0.934631,0.273987
1470242799388556,-0.0200806,0.225952,-0.934631,0.273987
1470242799411577,-0.0200806,0.225952,-0.934631,0.273987
1470242799441604,-0.0200806,0.225952,-0.934631,0.273987
1470242799448610,-0.0200806,0.225952,-0.934631,0.273987
1470242799471631,-0.0200806,0.225952,-0.934631,0.273987
1470242799494151,-0.0200806,0.225952,-0.934631,0.273987
1470242799515169,-0.0200806,0.225952,-0.934631,0.273987
1470242799531684,-0.0200806,0.225952,-0.934631,0.273987
1470242799554205,-0.0200806,0.225952,-0.934631,0.273987
1470242799575224,-0.0200806,0.225952,-0.934631,0.273987
1470242799591739,-0.0200806,0.225952,-0.934631,0.273987
1470242799614259,-0.0200806,0.225952,-0.934631,0.273987
1470242799635278,-0.0200806,0.225952,-0.934631,0.273987
1470242799651792,-0.0202026,0.226135,-0.93457,0.273926
1470242799680317,-0.0203857,0.226379,-0.934509,0.273926
1470242799695331,-0.0203857,0.226379,-0.934509,0.273926
1470242799711846,-0.0203857,0.226379,-0.934509,0.273926
1470242799734366,-0.0203247,0.226379,-0.934509,0.273926
1470242799755385,-0.0203247,0.226379,-0.934509,0.273926
1470242799771400,-0.0203247,0.226379,-0.934509,0.273926
1470242799793920,-0.0203247,0.226379,-0.934509,0.273926
1470242799815439,-0.0203247,0.226379,-0.934509,0.273926
1470242799831454,-0.0203857,0.226379,-0.934509,0.273926
1470242799853974,-0.0204468,0.226624,-0.934448,0.273926
1470242799874993,-0.0204468,0.226807,-0.934448,0.273926
1470242799891508,-0.0205688,0.22699,-0.934387,0.273987
1470242799914028,-0.0205688,0.22699,-0.934326,0.273987
1470242799935047,-0.0205688,0.22699,-0.934387,0.273987
1470242799951563,-0.0205688,0.226929,-0.934387,0.273987
1470242799974083,-0.0205688,0.226929,-0.934387,0.273987
1470242799996603,-0.0205688,0.226929,-0.934387,0.273987
1470242800011115,-0.0205688,0.226929,-0.934387,0.273987
1470242800034136,-0.0205688,0.226929,-0.934387,0.273987
1470242800056656,-0.0205688,0.22699,-0.934387,0.273987
1470242800071669,-0.0205078,0.226807,-0.934387,0.273926
1470242800094190,-0.0204468,0.226624,-0.934448,0.273926
1470242800116710,-0.0204468,0.226624,-0.934448,0.273926
1470242800137730,-0.0204468,0.226624,-0.934448,0.273926
1470242800154244,-0.0204468,0.226624,-0.934448,0.273926
1470242800176764,-0.0204468,0.226624,-0.934448,0.273926
1470242800190777,-0.0204468,0.226624,-0.934448,0.273926
1470242800214298,-0.0204468,0.226624,-0.934448,0.273926
1470242800236818,-0.0204468,0.226624,-0.934448,0.273926
1470242800250831,-0.0204468,0.226624,-0.934448,0.273926
1470242800274352,-0.0202026,0.226563,-0.934509,0.273865
1470242800296372,-0.0200195,0.226501,-0.934509,0.273804
1470242800310884,-0.0197754,0.226501,-0.93457,0.273682
1470242800333905,-0.0195313,0.226929,-0.934509,0.27356
1470242800356426,-0.0195313,0.227356,-0.934448,0.273499
1470242800370938,-0.0195313,0.227539,-0.934387,0.273438
1470242800393960,-0.0195313,0.2276,-0.934387,0.273438
1470242800416479,-0.0194092,0.227295,-0.934448,0.273438
1470242800430993,-0.0194092,0.227051,-0.934509,0.273438
1470242800454013,-0.0194092,0.227051,-0.934509,0.273438
1470242800476533,-0.0193481,0.227051,-0.934509,0.273438
1470242800497552,-0.0193481,0.227051,-0.934509,0.273438
1470242800514066,-0.0194092,0.227051,-0.934509,0.273438
1470242800537087,-0.0193481,0.227051,-0.934509,0.273438
1470242800557605,-0.0193481,0.227051,-0.934509,0.273438
1470242800574120,-0.0194702,0.227234,-0.934448,0.273438
1470242800596641,-0.0194702,0.227234,-0.934448,0.273438
1470242800617660,-0.0194702,0.227234,-0.934448,0.273438
1470242800634175,-0.0194702,0.227234,-0.934448,0.273438
1470242800656695,-0.0194702,0.227295,-0.934448,0.273438
1470242800677713,-0.0194702,0.227295,-0.934448,0.273438
1470242800694229,-0.0194702,0.227295,-0.934448,0.273438
1470242800716750,-0.0194702,0.227295,-0.934448,0.273438
1470242800737767,-0.0194702,0.227295,-0.934448,0.273438
1470242800754283,-0.0195313,0.227295,-0.934448,0.273438
1470242800776802,-0.0195313,0.227295,-0.934448,0.273438
1470242800797822,-0.0195313,0.227295,-0.934448,0.273438
1470242800814336,-0.0195313,0.227356,-0.934448,0.273438
1470242800836856,-0.0195313,0.227356,-0.934448,0.273438
1470242800857875,-0.0195313,0.227356,-0.934448,0.273438
1470242800873890,-0.0195313,0.227356,-0.934448,0.273438
1470242800896410,-0.0195313,0.227356,-0.934448,0.273376
1470242800918930,-0.0195313,0.227356,-0.934448,0.273376
1470242800934444,-0.0195313,0.227417,-0.934448,0.273376
1470242800956464,-0.0195313,0.227417,-0.934448,0.273376
1470242800978984,-0.0195923,0.227356,-0.934448,0.273376
1470242800993997,-0.0195923,0.227417,-0.934448,0.273376
1470242801016518,-0.0195923,0.227417,-0.934448,0.273376
1470242801039038,-0.0195923,0.227417,-0.934448,0.273376
1470242801053552,-0.0195923,0.227417,-0.934448,0.273376
1470242801076572,-0.0195923,0.227417,-0.934448,0.273376
1470242801099093,-0.0195923,0.227417,-0.934448,0.273376
1470242801113607,-0.0195923,0.227478,-0.934448,0.273376
1470242801136628,-0.0195923,0.227478,-0.934448,0.273376
1470242801159147,-0.0195923,0.227478,-0.934448,0.273376
1470242801173681,-0.0195923,0.227478,-0.934448,0.273376
1470242801196687,-0.0195923,0.227478,-0.934448,0.273376
1470242801219203,-0.0196533,0.227539,-0.934448,0.273376
1470242801233712,-0.0196533,0.227539,-0.934387,0.273376
1470242801256733,-0.0196533,0.227539,-0.934387,0.273376
1470242801279254,-0.0196533,0.227539,-0.934387,0.273376
1470242801284759,-0.0196533,0.227539,-0.934387,0.273376
1470242801301292,-0.0196533,0.227539,-0.934387,0.273376
1470242801322382,-0.0196533,0.227539,-0.934387,0.273376
1470242801346318,-0.0196533,0.227539,-0.934387,0.273376
1470242801360847,-0.0196533,0.2276,-0.934387,0.273376
1470242801382368,-0.0196533,0.2276,-0.934387,0.273376
1470242801404369,-0.0196533,0.2276,-0.934387,0.273376
1470242801420881,-0.0196533,0.2276,-0.934387,0.273376
1470242801442400,-0.0196533,0.2276,-0.934387,0.273376
1470242801464420,-0.0197144,0.2276,-0.934387,0.273376
1470242801480935,-0.0197144,0.2276,-0.934387,0.273376
1470242801501969,-0.0197144,0.227661,-0.934387,0.273376
1470242801524985,-0.0197144,0.227661,-0.934387,0.273376
1470242801540991,-0.0197144,0.227661,-0.934387,0.273376
1470242801562063,-0.0197144,0.227661,-0.934387,0.273376
1470242801584583,-0.0197144,0.227661,-0.934387,0.273376
1470242801601044,-0.0197144,0.227661,-0.934387,0.273376
1470242801622104,-0.0197144,0.227722,-0.934387,0.273376
1470242801644625,-0.0197144,0.227722,-0.934387,0.273376
1470242801662599,-0.0197144,0.227722,-0.934387,0.273315
1470242801682118,-0.0197754,0.227722,-0.934387,0.273315
1470242801704649,-0.0197754,0.227722,-0.934387,0.273315
1470242801721152,-0.0197754,0.227783,-0.934387,0.273315
1470242801742250,-0.0197754,0.227783,-0.934387,0.273315
1470242801764689,-0.0197754,0.227844,-0.934387,0.273315
1470242801781204,-0.0197754,0.227844,-0.934326,0.273315
1470242801802724,-0.0197754,0.227844,-0.934326,0.273315
1470242801824745,-0.0198364,0.227844,-0.934326,0.273315
1470242801842261,-0.0198364,0.227844,-0.934326,0.273315
1470242801862277,-0.0200195,0.228149,-0.934265,0.273315
1470242801884803,-0.0200195,0.228149,-0.934265,0.273315
1470242801902315,-0.0200195,0.228149,-0.934265,0.273315
1470242801929338,-0.0200195,0.228149,-0.934265,0.273315
1470242801944851,-0.0200195,0.22821,-0.934265,0.273315
1470242801962392,-0.0200195,0.22821,-0.934265,0.273315
1470242801981887,-0.0200195,0.22821,-0.934265,0.273315
1470242802004461,-0.0200806,0.22821,-0.934265,0.273315
1470242802022467,-0.0200806,0.22821,-0.934265,0.273315
1470242802042573,-0.0200806,0.228271,-0.934265,0.273315
1470242802064459,-0.0201416,0.228271,-0.934265,0.273315
1470242802082520,-0.0201416,0.228271,-0.934265,0.273315
1470242802102082,-0.0201416,0.228333,-0.934265,0.273315
1470242802124513,-0.0201416,0.228333,-0.934204,0.273315
1470242802142529,-0.0201416,0.228333,-0.934204,0.273315
1470242802162151,-0.0202026,0.228394,-0.934204,0.273315
