timestamp,roll,pitch,yaw
1470345934556873,-0.578,0.200809,0.629714
1470345934575890,-0.567257,0.185601,0.64311
1470345934598924,-0.556438,0.168821,0.653367
1470345934616940,-0.54561,0.15177,0.659219
1470345934635958,-0.529598,0.137863,0.660465
1470345934658977,-0.48907,0.142028,0.657513
1470345934675993,-0.450211,0.144299,0.657965
1470345934696020,-0.431538,0.148834,0.661663
1470345934719042,-0.434791,0.151104,0.664022
1470345934737057,-0.440655,0.152359,0.664319
1470345934756077,-0.438897,0.153613,0.663391
1470345934779096,-0.434419,0.155069,0.660306
1470345934801129,-0.429321,0.156084,0.654677
1470345934816143,-0.426477,0.156757,0.648581
1470345934838162,-0.42488,0.157608,0.644012
1470345934856178,-0.424336,0.159035,0.641516
1470345934876196,-0.423514,0.160343,0.640455
1470345934898231,-0.421469,0.161426,0.639759
1470345934916246,-0.418744,0.163295,0.639418
1470345934936266,-0.415267,0.165159,0.639148
1470345934958285,-0.412202,0.166825,0.638988
1470345934976300,-0.410326,0.16856,0.639097
1470345934996324,-0.408957,0.170429,0.639065
1470345935018350,-0.408073,0.172402,0.638721
1470345935036367,-0.408717,0.173745,0.63847
1470345935056385,-0.408774,0.174358,0.638744
1470345935078405,-0.407887,0.175092,0.639315
1470345935096427,-0.406337,0.175712,0.639739
1470345935116451,-0.404372,0.175999,0.640521
1470345935138472,-0.403388,0.175715,0.641937
1470345935156487,-0.401373,0.174796,0.644389
1470345935179507,-0.398629,0.174029,0.647481
1470345935199058,-0.395906,0.173321,0.650342
1470345935217075,-0.392894,0.173004,0.652415
1470345935237095,-0.391358,0.173209,0.65403
1470345935259114,-0.389947,0.172901,0.655405
1470345935277131,-0.388233,0.172817,0.657202
1470345935297218,-0.385125,0.172788,0.659636
1470345935318236,-0.382019,0.172778,0.662214
1470345935336251,-0.379351,0.172713,0.663871
1470345935357269,-0.377864,0.172395,0.664911
1470345935378289,-0.377405,0.172126,0.665624
1470345935396814,-0.376702,0.172222,0.666022
1470345935417839,-0.376088,0.172448,0.666261
1470345935438858,-0.376088,0.172448,0.666261
1470345935456874,-0.375365,0.172201,0.666304
1470345935477892,-0.37524,0.17216,0.666306
1470345935498919,-0.375517,0.17173,0.66692
1470345935516935,-0.37511,0.171729,0.667598
1470345935537954,-0.373944,0.171569,0.668161
1470345935558973,-0.372545,0.171393,0.668495
1470345935576993,-0.372316,0.170863,0.66885
1470345935598011,-0.372688,0.170513,0.669021
1470345935619029,-0.373318,0.170181,0.669456
1470345935637047,-0.37279,0.169797,0.669813
1470345935659571,-0.372028,0.169688,0.669981
1470345935679093,-0.371107,0.169626,0.669992
1470345935701128,-0.370983,0.169584,0.669994
1470345935719129,-0.370413,0.169678,0.670798
1470345935738148,-0.370151,0.169583,0.672007
1470345935756668,-0.370496,0.169282,0.672429
1470345935779193,-0.369846,0.168855,0.672788
1470345935798211,-0.36847,0.168993,0.673336
1470345935816227,-0.368433,0.169107,0.67332
1470345935839252,-0.369095,0.1695,0.674058
1470345935858817,-0.368964,0.169372,0.674843
1470345935876337,-0.366223,0.169128,0.676526
1470345935899357,-0.362292,0.168913,0.677979
1470345935918437,-0.358727,0.167986,0.679795
1470345935936391,-0.357697,0.166214,0.681265
1470345935959482,-0.359041,0.16258,0.683535
1470345935979039,-0.361979,0.158507,0.686496
1470345936001058,-0.3666,0.153492,0.69016
1470345936019034,-0.374538,0.144723,0.694431
1470345936039051,-0.383555,0.134286,0.700726
1470345936061667,-0.391362,0.125991,0.708475
1470345936079230,-0.391175,0.120193,0.717396
1470345936098311,-0.385617,0.112787,0.726763
1470345936121308,-0.379757,0.106372,0.736057
1470345936139284,-0.373735,0.10379,0.746566
1470345936158822,-0.366806,0.102938,0.758486
1470345936180988,-0.358731,0.101662,0.771164
1470345936198939,-0.349685,0.100721,0.783354
1470345936219005,-0.338981,0.101184,0.795995
1470345936241032,-0.328962,0.102893,0.809479
1470345936259551,-0.320048,0.105083,0.824968
1470345936280604,-0.313984,0.106589,0.841511
1470345936301654,-0.305485,0.107969,0.85957
1470345936318639,-0.292424,0.110833,0.878445
1470345936339665,-0.275612,0.114702,0.898556
1470345936361232,-0.258635,0.119029,0.920412
1470345936378798,-0.243353,0.123169,0.943949
1470345936399815,-0.228855,0.126683,0.968173
1470345936420835,-0.21444,0.129888,0.993075
1470345936438851,-0.199463,0.132661,1.01837
1470345936460374,-0.183845,0.136119,1.0446
1470345936480924,-0.168694,0.139749,1.07167
1470345936498926,-0.15284,0.143591,1.09864
1470345936519944,-0.137382,0.146755,1.12566
1470345936540977,-0.121445,0.149327,1.15201
1470345936559500,-0.106921,0.151116,1.17786
1470345936581031,-0.092547,0.15235,1.20342
1470345936602108,-0.0763764,0.152823,1.22826
1470345936618121,-0.0590833,0.151929,1.251
1470345936641085,-0.0440443,0.1491,1.27151
1470345936662171,-0.0317942,0.146565,1.29066
1470345936678275,-0.0216999,0.14467,1.30767
1470345936701263,-0.0115748,0.140017,1.32358
1470345936722330,-0.000644693,0.130982,1.33754
1470345936738296,0.0109271,0.118439,1.34951
1470345936761366,0.0236138,0.105206,1.36136
1470345936783434,0.0335563,0.0938144,1.37428
1470345936798447,0.0402369,0.0821821,1.38717
1470345936820467,0.0510985,0.0701798,1.39924
1470345936841539,0.0684552,0.0593104,1.4105
1470345936858564,0.0889077,0.0490479,1.4209
1470345936880683,0.105798,0.0385014,1.43128
1470345936901657,0.115401,0.0248383,1.44085
1470345936918673,0.122873,0.0099416,1.45008
1470345936940726,0.131382,-0.00263316,1.45942
1470345936962271,0.140957,-0.0129039,1.46885
1470345936977831,0.151508,-0.0235145,1.47753
1470345937000854,0.160454,-0.0351844,1.48659
1470345937021948,0.165548,-0.047104,1.49698
1470345937037894,0.169806,-0.0584678,1.50812
1470345937060961,0.175013,-0.0687746,1.51963
1470345937082028,0.180807,-0.0774527,1.53272
1470345937097997,0.186163,-0.0857368,1.54713
1470345937121017,0.191801,-0.0936112,1.56274
1470345937142080,0.197183,-0.0998849,1.57963
1470345937158562,0.202404,-0.104834,1.59781
1470345937180703,0.207588,-0.109588,1.61728
1470345937201773,0.212171,-0.114955,1.63674
1470345937217788,0.218779,-0.118643,1.65572
1470345937240775,0.224499,-0.120841,1.67384
1470345937262284,0.228987,-0.122485,1.69063
1470345937277867,0.232423,-0.123047,1.70569
1470345937300887,0.23607,-0.123213,1.71903
1470345937321950,0.240249,-0.123354,1.73063
1470345937337922,0.245207,-0.123523,1.73948
1470345937361003,0.249454,-0.123325,1.74566
1470345937381589,0.251922,-0.123571,1.74839
1470345937404609,0.254441,-0.124029,1.74802
1470345937420621,0.258186,-0.124076,1.74505
1470345937441641,0.261409,-0.124672,1.73951
1470345937457727,0.261958,-0.125778,1.73255
1470345937481269,0.263274,-0.126177,1.72499
1470345937502289,0.266384,-0.125641,1.7167
1470345937517315,0.269227,-0.124562,1.70733
1470345937541324,0.269522,-0.121879,1.69603
1470345937563890,0.268178,-0.118878,1.68332
1470345937577892,0.263837,-0.115848,1.67011
1470345937600912,0.257377,-0.111527,1.65601
1470345937622934,0.253047,-0.106454,1.63936
1470345937637945,0.247206,-0.10142,1.61989
1470345937661027,0.237078,-0.0971649,1.59797
1470345937683614,0.22543,-0.0932209,1.57361
1470345937697626,0.213215,-0.0891062,1.5472
1470345937721646,0.202271,-0.0852705,1.51872
1470345937743666,0.192512,-0.0823176,1.4882
1470345937757740,0.184947,-0.0797309,1.4566
1470345937781264,0.179471,-0.0771553,1.42377
1470345937803283,0.178774,-0.0761731,1.38769
1470345937824357,0.175435,-0.0766998,1.34898
1470345937840359,0.172215,-0.0769084,1.3098
1470345937863423,0.171601,-0.077587,1.27053
1470345937884032,0.172918,-0.0790467,1.22879
1470345937901046,0.174285,-0.0800899,1.18412
1470345937923066,0.17468,-0.0807637,1.1388
1470345937944085,0.175986,-0.0818213,1.09368
1470345937961196,0.178396,-0.0828893,1.04761
1470345937983721,0.180957,-0.082845,1.00097
1470345938004778,0.182415,-0.0828925,0.955149
1470345938020761,0.184208,-0.0835698,0.910518
1470345938043775,0.188826,-0.0836473,0.866565
1470345938064806,0.194723,-0.0823547,0.823803
1470345938080877,0.201523,-0.0803238,0.783606
1470345938102883,0.210252,-0.0788998,0.745309
1470345938124904,0.214749,-0.074085,0.709688
1470345938140964,0.216382,-0.0710688,0.676602
1470345938163499,0.21433,-0.0677075,0.645839
1470345938184064,0.212496,-0.063208,0.617182
1470345938201051,0.212521,-0.0595652,0.591259
1470345938223058,0.212102,-0.0568966,0.569209
1470345938244079,0.209608,-0.052891,0.551557
1470345938261156,0.208142,-0.0473488,0.537534
1470345938283746,0.209058,-0.041381,0.527315
1470345938304769,0.208946,-0.0358557,0.520122
1470345938320778,0.206935,-0.0308373,0.517422
1470345938343799,0.204418,-0.0255331,0.519182
1470345938364847,0.202477,-0.0198289,0.525431
1470345938380378,0.200826,-0.0140048,0.536149
1470345938403398,0.199567,-0.00922057,0.551374
1470345938424448,0.200279,-0.00569904,0.569992
1470345938440434,0.199939,-0.0038225,0.592964
1470345938463466,0.200168,-0.00239072,0.620109
1470345938486049,0.202845,-0.000458866,0.651011
1470345938500062,0.206537,0.00182612,0.684631
1470345938523080,0.212088,0.00197507,0.721208
1470345938546101,0.217353,0.00347883,0.759403
1470345938561121,0.223845,0.00464531,0.799394
1470345938583670,0.229843,0.0049399,0.840196
1470345938605689,0.234266,0.00569262,0.881612
1470345938619786,0.237737,0.0072934,0.923687
1470345938643724,0.241214,0.00892886,0.966083
1470345938666289,0.244734,0.0108229,1.00931
1470345938679822,0.248842,0.0126304,1.05352
1470345938703845,0.254526,0.0148311,1.09794
1470345938725865,0.262623,0.0174008,1.14274
1470345938739876,0.2722,0.0191892,1.18651
1470345938763901,0.279146,0.0193912,1.22705
1470345938785927,0.280148,0.0168948,1.26623
1470345938807027,0.27741,0.0136427,1.30454
1470345938822960,0.278523,0.0119056,1.3422
1470345938846017,0.280922,0.00638369,1.37878
1470345938867128,0.28681,-0.000407919,1.41327
1470345938883172,0.291595,-0.00804856,1.44594
1470345938906177,0.291108,-0.0182175,1.47645
1470345938927240,0.286165,-0.0299069,1.5064
1470345938943213,0.282281,-0.0413917,1.53554
1470345938966294,0.284242,-0.0505008,1.56342
1470345938987274,0.289724,-0.0570131,1.59072
1470345939003290,0.292063,-0.064471,1.61618
1470345939025331,0.287628,-0.0748218,1.63891
1470345939047328,0.280917,-0.0868126,1.65999
1470345939063417,0.275613,-0.0977939,1.68029
1470345939085476,0.2756,-0.106957,1.69997
1470345939106551,0.278065,-0.115285,1.71895
1470345939123514,0.280923,-0.124323,1.7355
1470345939145543,0.280134,-0.133875,1.74974
1470345939167058,0.276765,-0.142302,1.763
1470345939183580,0.275848,-0.148792,1.77444
1470345939205601,0.278223,-0.154033,1.78376
1470345939226623,0.280283,-0.158723,1.79118
1470345939243634,0.279895,-0.162195,1.79704
1470345939266244,0.278433,-0.165101,1.80124
1470345939287311,0.277026,-0.167536,1.80404
1470345939303325,0.275957,-0.169137,1.8057
1470345939326346,0.275741,-0.169962,1.80609
1470345939347399,0.275991,-0.170519,1.80548
1470345939363428,0.275562,-0.170449,1.80422
1470345939385607,0.27469,-0.170174,1.80192
1470345939406628,0.274201,-0.169536,1.79865
1470345939423641,0.272481,-0.169159,1.79451
1470345939445672,0.269845,-0.168735,1.79024
1470345939468698,0.267146,-0.168014,1.78564
1470345939483243,0.264599,-0.167005,1.78067
1470345939506261,0.261558,-0.165752,1.7755
1470345939528283,0.25768,-0.1639,1.77031
1470345939543296,0.253586,-0.161478,1.76551
1470345939565928,0.249463,-0.158422,1.76038
1470345939588444,0.244579,-0.154878,1.75524
1470345939602455,0.23998,-0.150578,1.7492
1470345939625475,0.235056,-0.146043,1.74262
1470345939648496,0.229528,-0.141683,1.73545
1470345939663070,0.225319,-0.137609,1.72646
1470345939685648,0.22118,-0.134843,1.71544
1470345939709669,0.214553,-0.133418,1.70356
1470345939729743,0.202903,-0.131723,1.69155
1470345939745701,0.187341,-0.13117,1.67877
1470345939768358,0.170252,-0.131844,1.66455
1470345939789518,0.155498,-0.132987,1.64849
1470345939805479,0.142675,-0.134611,1.63223
1470345939828502,0.128651,-0.137497,1.61785
1470345939849575,0.114079,-0.140629,1.60571
1470345939866045,0.10028,-0.14303,1.59572
1470345939888174,0.0924762,-0.146231,1.5872
1470345939909205,0.0892583,-0.15081,1.58008
1470345939926169,0.0838325,-0.153416,1.57511
1470345939956194,0.0751175,-0.153572,1.57126
1470345939969799,0.0641785,-0.151393,1.56919
1470345939985781,0.0544689,-0.150055,1.56819
1470345940008802,0.0486896,-0.149028,1.56895
1470345940029821,0.046787,-0.147985,1.57246
1470345940045840,0.0495964,-0.146363,1.57659
1470345940068361,0.0529991,-0.145604,1.57987
1470345940089386,0.055313,-0.145033,1.58375
1470345940107412,0.0529441,-0.149328,1.58967
1470345940128420,0.0503039,-0.148461,1.59396
1470345940149494,0.0544113,-0.147827,1.5911
1470345940166016,0.0546596,-0.150854,1.59089
1470345940188579,0.0479331,-0.153066,1.59257
1470345940209653,0.0351723,-0.15626,1.59593
1470345940225612,0.0199957,-0.160586,1.5988
1470345940248634,0.00686409,-0.164219,1.60199
1470345940269658,0.00256711,-0.164073,1.60479
1470345940285677,0.00306742,-0.160702,1.60464
1470345940308699,0.00721424,-0.157823,1.60321
1470345940329717,0.0126432,-0.154355,1.60202
1470345940345735,0.0176931,-0.149324,1.6015
1470345940368769,0.020371,-0.143651,1.60148
1470345940390792,0.0222647,-0.139264,1.60127
1470345940406807,0.0253722,-0.135937,1.6009
1470345940427827,0.0305447,-0.132983,1.60046
1470345940450850,0.0364129,-0.130391,1.60004
1470345940465867,0.0400199,-0.128443,1.59943
1470345940487893,0.0428023,-0.12699,1.59819
1470345940510914,0.0467039,-0.125633,1.59692
1470345940524926,0.0494532,-0.124179,1.59606
1470345940547946,0.050033,-0.123131,1.5953
1470345940570988,0.0504375,-0.122592,1.59438
1470345940585019,0.0530228,-0.121825,1.59339
1470345940608041,0.0557576,-0.120709,1.59256
1470345940631063,0.0576957,-0.119682,1.59211
1470345940645078,0.0584907,-0.11874,1.59206
1470345940668598,0.0589371,-0.117968,1.59202
1470345940691126,0.0586145,-0.117086,1.59165
1470345940705138,0.0588305,-0.116208,1.5911
1470345940728157,0.0594823,-0.115413,1.59035
1470345940751178,0.060132,-0.114453,1.58978
1470345940765207,0.0609472,-0.113492,1.58921
1470345940788804,0.0617424,-0.112542,1.58899
1470345940810820,0.0613188,-0.111759,1.58898
1470345940825832,0.0600461,-0.110957,1.58864
1470345940847905,0.0595834,-0.11006,1.58775
1470345940870945,0.0589447,-0.110369,1.58673
1470345940899028,0.0518733,-0.111931,1.58942
1470345940908035,0.0531058,-0.110379,1.58916
1470345940931056,0.0540466,-0.108933,1.58961
1470345940952130,0.0527761,-0.107785,1.58927
1470345940968650,0.0492263,-0.108003,1.5892
1470345940991214,0.0467276,-0.107715,1.58909
1470345941012308,0.0470758,-0.107032,1.58923
1470345941028301,0.0469905,-0.106771,1.58923
1470345941051266,0.0469042,-0.106683,1.58923
1470345941072342,0.0469144,-0.106506,1.58905
1470345941088417,0.0481381,-0.106514,1.58883
1470345941110434,0.0505707,-0.106359,1.58859
1470345941131454,0.0521425,-0.106197,1.58836
1470345941148469,0.0503658,-0.10573,1.5877
1470345941171001,0.0497688,-0.10546,1.58754
1470345941191621,0.0483412,-0.104478,1.58685
1470345941208578,0.0482548,-0.10439,1.58685
1470345941230652,0.0487961,-0.103694,1.58646
1470345941251661,0.0484588,-0.103513,1.58629
1470345941268715,0.0473382,-0.103418,1.58632
1470345941290398,0.0462982,-0.103236,1.58635
1470345941313429,0.0447273,-0.102885,1.58673
1470345941328433,0.0440592,-0.102527,1.58639
1470345941350452,0.0440592,-0.102527,1.58639
1470345941373506,0.0431169,-0.101909,1.58622
1470345941388023,0.0431169,-0.101909,1.58622
1470345941411045,0.044159,-0.101571,1.58618
1470345941433071,0.0451124,-0.101666,1.58616
1470345941448081,0.0445043,-0.101921,1.58618
1470345941471129,0.0429339,-0.102084,1.58641
1470345941493179,0.0429339,-0.102084,1.58641
1470345941507231,0.0434645,-0.101738,1.58621
1470345941531211,0.0443426,-0.101222,1.58599
1470345941553232,0.0443426,-0.101222,1.58599
1470345941567753,0.0442563,-0.101135,1.58599
1470345941591276,0.0442563,-0.101135,1.58599
1470345941613300,0.0448867,-0.101221,1.58563
1470345941627308,0.0460161,-0.101311,1.58542
1470345941650349,0.046537,-0.101143,1.58541
1470345941673354,0.046537,-0.101143,1.58541
1470345941687386,0.0465377,-0.100969,1.5854
1470345941711406,0.0465377,-0.100969,1.5854
1470345941733426,0.0464513,-0.100882,1.5854
1470345941747438,0.0468069,-0.100881,1.58522
1470345941770967,0.0475012,-0.100713,1.58519
1470345941793493,0.048195,-0.100719,1.58518
1470345941815511,0.0489752,-0.100812,1.58516
1470345941816512,0.0489752,-0.100812,1.58516
1470345941843536,0.048361,-0.100378,1.58534
1470345941858549,0.0471403,-0.0998526,1.58553
1470345941876070,0.0469676,-0.0996779,1.58553
1470345941896222,0.0472294,-0.0992471,1.58551
1470345941918242,0.0474092,-0.0992508,1.5855
1470345941936258,0.0482857,-0.099594,1.58514
1470345941956276,0.0493263,-0.0996027,1.58512
1470345941979372,0.0494127,-0.0996901,1.58512
1470345941996389,0.0494997,-0.0996042,1.58511
1470345942016405,0.048893,-0.0995125,1.58513
1470345942038424,0.0488045,-0.0994316,1.5853
1470345942056441,0.0487181,-0.0993443,1.5853
1470345942083643,0.0487181,-0.0993443,1.5853
1470345942098656,0.0494139,-0.0993437,1.58511
1470345942116672,0.0506285,-0.0991807,1.58507
1470345942136690,0.0505421,-0.0990933,1.58507
1470345942158711,0.0500212,-0.0992622,1.58509
1470345942183950,0.0499348,-0.0991748,1.58509
1470345942195963,0.0500218,-0.099089,1.58509
1470345942218982,0.0495028,-0.0987382,1.58509
1470345942237000,0.0495028,-0.0987382,1.58509
1470345942256016,0.0502756,-0.0984894,1.58524
1470345942278596,0.050282,-0.0984914,1.58524
1470345942296586,0.0499287,-0.0984864,1.58525
1470345942316654,0.0494085,-0.098482,1.58526
1470345942338650,0.0494085,-0.098482,1.58526
1470345942356640,0.0493221,-0.0983947,1.58526
1470345942376718,0.0493221,-0.0983947,1.58526
1470345942398525,0.0504581,-0.0983132,1.58506
1470345942416541,0.0513258,-0.0981473,1.58503
1470345942436560,0.0513258,-0.0981473,1.58503
1470345942458613,0.0513258,-0.0981473,1.58503
1470345942477107,0.0514128,-0.0980615,1.58503
1470345942496632,0.0507183,-0.0977157,1.58521
1470345942518681,0.0506319,-0.0976284,1.58521
1470345942536667,0.0510658,-0.0975455,1.5852
1470345942556685,0.0510658,-0.0975455,1.5852
1470345942578526,0.051414,-0.0977151,1.58502
1470345942596502,0.0515874,-0.0977166,1.58502
1470345942619523,0.0516744,-0.0976307,1.58501
1470345942638566,0.0508846,-0.0973753,1.58537
1470345942656557,0.0501916,-0.0971962,1.58538
1470345942676598,0.0501916,-0.0971962,1.58538
1470345942699159,0.0505306,-0.0970304,1.58555
1470345942717179,0.0508864,-0.0968557,1.58536
1470345942736230,0.051328,-0.0969415,1.58518
1470345942759215,0.0521087,-0.0968615,1.58516
1470345942776737,0.0521957,-0.0967757,1.58516
1470345942795835,0.0521087,-0.0968615,1.58516
1470345942818934,0.0521957,-0.0967757,1.58516
1470345942836869,0.0521957,-0.0967757,1.58516
1470345942855887,0.051676,-0.0965981,1.58516
1470345942879421,0.0515896,-0.0965108,1.58516
1470345942896431,0.052017,-0.096426,1.58515
1470345942917450,0.052017,-0.096426,1.58515
1470345942938559,0.052104,-0.0963402,1.58515
1470345942956487,0.0516683,-0.0964295,1.58533
1470345942978070,0.0508877,-0.0965094,1.58535
1470345942999111,0.0508877,-0.0965094,1.58535
1470345943017149,0.0509747,-0.0964236,1.58535
1470345943038147,0.0509747,-0.0964236,1.58535
1470345943059220,0.0509747,-0.0964236,1.58535
1470345943076743,0.0510617,-0.0963377,1.58535
1470345943097770,0.0509754,-0.0962504,1.58535
1470345943118841,0.0516683,-0.0964295,1.58533
1470345943136859,0.0517636,-0.0963391,1.58515
1470345943157841,0.0511488,-0.0962519,1.58534
1470345943178960,0.0504532,-0.0962523,1.58553
1470345943196974,0.0504532,-0.0962523,1.58553
1470345943218993,0.0507143,-0.0959948,1.58552
1470345943239064,0.0508013,-0.095909,1.58551
1470345943257029,0.0508013,-0.095909,1.58551
1470345943279076,0.0508877,-0.0959963,1.58551
1470345943299099,0.0508877,-0.0959963,1.58551
1470345943317116,0.0508877,-0.0959963,1.58551
1470345943339138,0.0508877,-0.0959963,1.58551
1470345943359158,0.0509747,-0.0959105,1.58551
1470345943377206,0.0508884,-0.0958231,1.58551
1470345943399279,0.0508884,-0.0958231,1.58551
1470345943419295,0.051756,-0.0956574,1.58549
1470345943436311,0.051756,-0.0956574,1.58549
1470345943459333,0.051756,-0.0956574,1.58549
1470345943478917,0.051756,-0.0956574,1.58549
1470345943497176,0.051843,-0.0955716,1.58548
1470345943519146,0.051843,-0.0955716,1.58548
1470345943539165,0.051843,-0.0955716,1.58548
1470345943564720,0.05193,-0.0954857,1.58548
1470345943579207,0.0520164,-0.0955731,1.58548
1470345943598746,0.0521034,-0.0954872,1.58548
1470345943616747,0.0517566,-0.0954842,1.58548
1470345943638766,0.0517566,-0.0954842,1.58548
1470345943658828,0.0517566,-0.0954842,1.58548
1470345943676817,0.0517566,-0.0954842,1.58548
1470345943699569,0.0517566,-0.0954842,1.58548
1470345943718584,0.0518436,-0.0953984,1.58548
1470345943736601,0.0518436,-0.0953984,1.58548
1470345943761622,0.0518436,-0.0953984,1.58548
1470345943782170,0.0519306,-0.0953126,1.58548
1470345943797189,0.0516651,-0.0950488,1.58548
1470345943819205,0.0515788,-0.0949615,1.58548
1470345943840281,0.0515788,-0.0949615,1.58548
1470345943857307,0.0517585,-0.0949648,1.58547
1470345943879895,0.0528019,-0.094621,1.58527
1470345943900157,0.0528889,-0.0945352,1.58527
1470345943916173,0.0528889,-0.0945352,1.58527
1470345943939193,0.0528889,-0.0945352,1.58527
1470345943960218,0.0529759,-0.0944494,1.58526
1470345943976734,0.0528889,-0.0945352,1.58527
1470345943999261,0.0530623,-0.0945367,1.58526
1470345944020288,0.0529759,-0.0944494,1.58526
1470345944041324,0.0530623,-0.0945367,1.58526
1470345944059376,0.0531493,-0.0944509,1.58526
1470345944081418,0.0535807,-0.0945476,1.58543
1470345944096432,0.0536677,-0.0944617,1.58542
1470345944119507,0.0536677,-0.0944617,1.58542
1470345944140470,0.0536677,-0.0944617,1.58542
1470345944156486,0.0537547,-0.0943759,1.58542
1470345944179579,0.0537564,-0.0943695,1.58524
1470345944202154,0.0539298,-0.094371,1.58524
1470345944221202,0.0539298,-0.094371,1.58524
1470345944239157,0.0534015,-0.0943712,1.58543
1470345944262178,0.0526142,-0.0941094,1.58561
1470345944276780,0.0526205,-0.0941111,1.58561
1470345944298855,0.0526205,-0.0941111,1.58561
1470345944321877,0.0531407,-0.0941157,1.5856
1470345944341894,0.0533141,-0.0941172,1.5856
1470345944358909,0.0533141,-0.0941172,1.5856
1470345944380936,0.0533141,-0.0941172,1.5856
1470345944401959,0.0533141,-0.0941172,1.5856
1470345944417976,0.0534011,-0.0940313,1.58559
1470345944440995,0.0534011,-0.0940313,1.58559
1470345944462013,0.0534881,-0.0939455,1.58559
1470345944478532,0.0535745,-0.0940328,1.58559
1470345944500784,0.0535745,-0.0940328,1.58559
1470345944514822,0.0535745,-0.0940328,1.58559
1470345944538819,0.0536615,-0.093947,1.58559
1470345944560838,0.0537478,-0.0940344,1.58559
1470345944582433,0.0537478,-0.0940344,1.58559
1470345944598433,0.0538349,-0.0939485,1.58558
1470345944620537,0.0538349,-0.0939485,1.58558
1470345944642473,0.0539212,-0.0940359,1.58558
1470345944658508,0.0538349,-0.0939485,1.58558
1470345944680589,0.0547116,-0.0939448,1.58522
1470345944701881,0.0554122,-0.0937792,1.5852
1470345944718870,0.0555856,-0.0937807,1.5852
1470345944740890,0.0555856,-0.0937807,1.5852
1470345944761960,0.0555856,-0.0937807,1.5852
1470345944778967,0.0556726,-0.0936949,1.58519
1470345944801031,0.0556726,-0.0936949,1.58519
1470345944822015,0.055759,-0.0937822,1.58519
1470345944838026,0.055846,-0.0936963,1.58519
1470345944861047,0.055846,-0.0936963,1.58519
1470345944882125,0.0560194,-0.0936978,1.58519
1470345944898187,0.0558476,-0.0936899,1.58502
1470345944921202,0.055241,-0.0935982,1.58503
1470345944942223,0.0548072,-0.0936811,1.58504
1470345944959184,0.0548072,-0.0936811,1.58504
1470345944980827,0.0557692,-0.0935977,1.58484
1470345945002034,0.0566362,-0.0936049,1.58483
1470345945018046,0.0567232,-0.0935191,1.58482
1470345945041066,0.0564709,-0.0935985,1.58465
1470345945062135,0.0564709,-0.0935985,1.58465
1470345945078737,0.0565578,-0.0935127,1.58465
1470345945100943,0.056487,-0.0935887,1.5843
1470345945123964,0.0564315,-0.094001,1.58362
1470345945138978,0.0564242,-0.0949032,1.58189
1470345945160998,0.0571554,-0.0959515,1.57912
1470345945183642,0.0606828,-0.0977186,1.57405
1470345945197650,0.0328454,-0.105529,1.58058
1470345945220672,-0.0110488,-0.112659,1.57806
1470345945243692,-0.0180883,-0.114819,1.57553
1470345945257705,-0.0313632,-0.118398,1.57759
1470345945281234,-0.0488903,-0.121616,1.58255
1470345945303619,-0.0532322,-0.122777,1.58686
1470345945324651,-0.0397438,-0.12368,1.58962
1470345945340652,0.00082129,-0.107098,1.59412
1470345945363673,0.0308453,-0.0980618,1.59557
1470345945384708,0.037885,-0.0931865,1.59783
1470345945400724,0.029242,-0.0862354,1.59787
1470345945423745,0.0163987,-0.0764111,1.59147
1470345945444764,0.00721251,-0.0632152,1.57743
1470345945460776,0.000956575,-0.0479022,1.55599
1470345945482856,-0.00555298,-0.0326789,1.52486
1470345945504879,-0.0140556,-0.0180797,1.48164
1470345945520897,-0.0298626,-0.00594952,1.4276
1470345945543906,-0.0524784,0.00393579,1.36419
1470345945564924,-0.0788718,0.0128042,1.29128
1470345945580946,-0.106199,0.0213702,1.20795
1470345945603049,-0.133206,0.0298762,1.11743
1470345945624986,-0.156996,0.0390216,1.02941
1470345945641110,-0.176427,0.0474699,0.946491
1470345945663022,-0.194196,0.0531825,0.867584
1470345945684151,-0.209628,0.0589082,0.791705
1470345945701125,-0.22268,0.066006,0.721951
1470345945723216,-0.232658,0.0728899,0.661119
1470345945744206,-0.244885,0.0772592,0.607617
1470345945761180,-0.262564,0.0744875,0.561719
1470345945783294,-0.28267,0.0676181,0.522419
1470345945804364,-0.304422,0.0688801,0.488989
1470345945820296,-0.315579,0.0726315,0.461858
1470345945843320,-0.324144,0.0775794,0.441774
1470345945864333,-0.339573,0.0809621,0.429494
1470345945880354,-0.358266,0.0822681,0.422239
1470345945903007,-0.370548,0.0800816,0.417895
1470345945926021,-0.372346,0.0743939,0.415994
1470345945940032,-0.363798,0.0689281,0.415037
1470345945963052,-0.351538,0.0661005,0.41407
1470345945985691,-0.336839,0.0704707,0.413837
1470345946000697,-0.318402,0.0812799,0.416117
1470345946023718,-0.309022,0.0896904,0.419736
1470345946045740,-0.313128,0.0929697,0.423404
1470345946067347,-0.321662,0.0933466,0.42413
1470345946083485,-0.324656,0.0930698,0.421588
1470345946105506,-0.321145,0.0926764,0.41575
1470345946126549,-0.318959,0.091271,0.410286
1470345946143540,-0.321662,0.08991,0.407027
1470345946165558,-0.327669,0.0897764,0.404706
1470345946186768,-0.332132,0.0910711,0.401664
1470345946203772,-0.332659,0.0937679,0.398446
1470345946226823,-0.33024,0.0980244,0.395411
1470345946239839,-0.32707,0.102298,0.391879
1470345946263825,-0.324635,0.106234,0.388424
1470345946286429,-0.324331,0.109551,0.385391
1470345946300452,-0.325316,0.112055,0.382703
1470345946323466,-0.325512,0.114036,0.380108
1470345946346483,-0.325277,0.115768,0.37733
1470345946360495,-0.324563,0.117309,0.374712
1470345946383073,-0.324764,0.118618,0.372609
1470345946413418,-0.325852,0.119198,0.371112
1470345946420424,-0.326928,0.119616,0.370116
1470345946443444,-0.326971,0.120251,0.369394
1470345946465482,-0.326865,0.12088,0.368781
1470345946480490,-0.326666,0.121412,0.368465
1470345946503532,-0.32718,0.122099,0.368214
1470345946525551,-0.327778,0.123067,0.368053
1470345946540564,-0.328041,0.123707,0.367808
1470345946563585,-0.328408,0.12451,0.36767
1470345946585634,-0.329263,0.125504,0.367373
1470345946606683,-0.329889,0.126311,0.366973
1470345946623665,-0.330028,0.12705,0.366735
1470345946645683,-0.330001,0.12788,0.366463
1470345946666753,-0.330563,0.129086,0.366266
1470345946683316,-0.331377,0.130216,0.366056
1470345946705706,-0.331964,0.131282,0.365747
1470345946726722,-0.332937,0.13224,0.365822
1470345946743738,-0.334202,0.133007,0.365922
1470345946765767,-0.335329,0.133827,0.365753
1470345946786814,-0.336232,0.134438,0.365353
1470345946803806,-0.337971,0.134713,0.364998
1470345946839885,-0.339857,0.134892,0.364656
1470345946846844,-0.340791,0.135308,0.364546
1470345946863862,-0.34068,0.135999,0.364313
1470345946885982,-0.340176,0.136841,0.363952
1470345946907032,-0.340104,0.137449,0.363231
1470345946923005,-0.34107,0.137833,0.36223
1470345946946026,-0.342068,0.138147,0.361523
1470345946967043,-0.342555,0.138389,0.360961
1470345946983567,-0.34253,0.13856,0.360543
1470345947006125,-0.342295,0.138549,0.360045
1470345947028112,-0.34283,0.138478,0.359791
1470345947043125,-0.343533,0.138171,0.35944
1470345947066146,-0.34396,0.137958,0.359207
1470345947088235,-0.344087,0.137981,0.359203
1470345947103234,-0.344068,0.1381,0.359185
1470345947126258,-0.343941,0.138076,0.35919
1470345947148318,-0.343941,0.138076,0.35919
1470345947169892,-0.344068,0.1381,0.359185
1470345947186412,-0.343654,0.138092,0.359559
1470345947208432,-0.342381,0.138152,0.359864
1470345947222443,-0.341528,0.137898,0.36006
1470345947246465,-0.341805,0.13765,0.360466
1470345947268524,-0.342607,0.137375,0.360872
1470345947283041,-0.342607,0.137375,0.360872
1470345947306430,-0.342589,0.137493,0.360854
1470345947335547,-0.342193,0.137521,0.360722
1470345947342475,-0.342193,0.137521,0.360722
1470345947365508,-0.342784,0.137773,0.360789
1470345947388173,-0.343243,0.138025,0.360989
1470345947403188,-0.343351,0.138167,0.360967
1470345947426210,-0.343636,0.138707,0.360862
1470345947448228,-0.343636,0.138707,0.360862
1470345947469769,-0.343509,0.138684,0.360866
1470345947486370,-0.343996,0.138772,0.360828
1470345947508392,-0.344358,0.138961,0.360798
1470345947529433,-0.344358,0.138961,0.360798
1470345947545471,-0.344466,0.139103,0.360776
1470345947568443,-0.344339,0.13908,0.36078
1470345947589508,-0.344466,0.139103,0.360776
1470345947605522,-0.344466,0.139103,0.360776
1470345947628544,-0.344443,0.139244,0.360886
1470345947649577,-0.344443,0.139244,0.360886
1470345947672119,-0.344527,0.139557,0.360446
1470345947688148,-0.344835,0.139957,0.360231
1470345947710222,-0.344708,0.139933,0.360235
1470345947726183,-0.344729,0.139938,0.360257
1470345947748202,-0.34471,0.140057,0.360239
1470345947777278,-0.344583,0.140034,0.360243
1470345947786280,-0.344583,0.140034,0.360243
1470345947808342,-0.344583,0.140034,0.360243
1470345947829385,-0.34467,0.140171,0.3602
1470345947846334,-0.34467,0.140171,0.3602
1470345947868388,-0.34467,0.140171,0.3602
1470345947889403,-0.34467,0.140171,0.3602
1470345947906401,-0.345024,0.140404,0.360425
1470345947928419,-0.345024,0.140404,0.360425
1470345947949496,-0.344878,0.1405,0.360411
1470345947965498,-0.344878,0.1405,0.360411
1470345947989031,-0.344857,0.140495,0.36039
1470345948011049,-0.344878,0.1405,0.360411
1470345948026062,-0.344878,0.1405,0.360411
1470345948048164,-0.344751,0.140477,0.360416
1470345948071111,-0.345051,0.140921,0.360456
1470345948086246,-0.345369,0.141246,0.360514
1470345948108267,-0.345369,0.141246,0.360514
1470345948131286,-0.345369,0.141246,0.360514
1470345948145300,-0.345242,0.141223,0.360518
1470345948168384,-0.345732,0.141435,0.360483
1470345948191381,-0.346073,0.141618,0.36043
1470345948205393,-0.346054,0.141737,0.360413
1470345948228414,-0.346054,0.141737,0.360413
1470345948250525,-0.346031,0.141879,0.360523
1470345948265450,-0.346321,0.142397,0.36029
1470345948288017,-0.346506,0.142897,0.360083
1470345948311039,-0.346713,0.143255,0.359766
1470345948325051,-0.346913,0.143512,0.359572
1470345948348071,-0.347285,0.143655,0.359286
1470345948371143,-0.347544,0.143679,0.359149
1470345948385654,-0.348032,0.143767,0.359109
1470345948408065,-0.347904,0.143744,0.359114
1470345948431086,-0.348032,0.143767,0.359109
1470345948452148,-0.348013,0.143886,0.359092
1470345948468212,-0.348066,0.144385,0.359016
1470345948491182,-0.348207,0.145021,0.358897
1470345948512218,-0.348607,0.145681,0.358641
1470345948528215,-0.348915,0.146226,0.358556
1470345948551237,-0.34898,0.146505,0.358622
1470345948572317,-0.349204,0.146592,0.358847
1470345948588403,-0.34935,0.146496,0.35886
1470345948611381,-0.34935,0.146496,0.35886
1470345948633444,-0.34935,0.146496,0.35886
1470345948648417,-0.34935,0.146496,0.35886
1470345948671012,-0.349345,0.146519,0.358988
1470345948692561,-0.349345,0.146519,0.358988
1470345948708576,-0.349327,0.146638,0.35897
1470345948730595,-0.349658,0.147041,0.358775
1470345948751686,-0.349658,0.147041,0.358775
1470345948768630,-0.349598,0.147449,0.358321
1470345948790417,-0.349324,0.147697,0.357916
1470345948812436,-0.349197,0.147674,0.357921
1470345948835459,-0.349301,0.147839,0.358026
1470345948850489,-0.349777,0.147848,0.358237
1470345948872100,-0.349759,0.147967,0.358219
1470345948888662,-0.349777,0.147848,0.358237
1470345948910657,-0.349759,0.147967,0.358219
1470345948933678,-0.349759,0.147967,0.358219
1470345948948691,-0.350154,0.14794,0.358351
1470345948971215,-0.350369,0.1481,0.358302
1470345948993538,-0.351531,0.148065,0.358273
1470345949008550,-0.352543,0.148003,0.358228
1470345949030636,-0.352982,0.148425,0.358006
1470345949053591,-0.353583,0.148806,0.357419
1470345949067603,-0.353893,0.149378,0.356804
1470345949090561,-0.354236,0.149735,0.356353
1470345949113539,-0.354191,0.150046,0.356044
1470345949127546,-0.354542,0.15033,0.355866
1470345949150565,-0.354524,0.150449,0.355848
1470345949173685,-0.354644,0.150371,0.355967
1470345949187748,-0.355479,0.150592,0.356273
1470345949210768,-0.355479,0.150592,0.356273
1470345949233790,-0.355245,0.150725,0.355907
1470345949247805,-0.355484,0.150917,0.355351
1470345949271361,-0.356229,0.151076,0.354772
1470345949293538,-0.35722,0.151328,0.354439
1470345949307550,-0.358092,0.151484,0.354383
1470345949330618,-0.358722,0.151498,0.354483
1470345949353591,-0.358722,0.151498,0.354483
1470345949367633,-0.358581,0.15157,0.354342
1470345949391141,-0.358555,0.151762,0.354051
1470345949413162,-0.359256,0.152205,0.35369
1470345949434180,-0.360113,0.152505,0.353088
1470345949451195,-0.360695,0.153025,0.352607
1470345949473842,-0.361168,0.153404,0.35215
1470345949502310,-0.361914,0.153536,0.352099
1470345949511239,-0.362527,0.153521,0.352049
1470345949533258,-0.362527,0.153521,0.352049
1470345949554332,-0.362549,0.153526,0.352071
1470345949571292,-0.362378,0.153813,0.351766
1470345949593379,-0.362644,0.153812,0.351501
1470345949614356,-0.363148,0.153975,0.351208
1470345949631372,-0.363497,0.154134,0.351025
1470345949636431,-0.363497,0.154134,0.351025
1470345949659397,-0.363515,0.154015,0.351044
1470345949681522,-0.363515,0.154015,0.351044
1470345949696539,-0.363515,0.154015,0.351044
1470345949718612,-0.363364,0.154135,0.351158
1470345949741578,-0.363236,0.154112,0.351163
1470345949756590,-0.363236,0.154112,0.351163
1470345949779163,-0.363091,0.154208,0.351149
1470345949801742,-0.363724,0.154173,0.35165
1470345949816757,-0.363677,0.154286,0.352265
1470345949838775,-0.362907,0.154123,0.352824
1470345949861795,-0.36185,0.154277,0.353358
1470345949876816,-0.361077,0.15431,0.353647
1470345949898765,-0.360428,0.154242,0.353927
1470345949921748,-0.35985,0.153845,0.354411
1470345949936757,-0.359393,0.153321,0.355415
1470345949958832,-0.358704,0.152435,0.356716
1470345949981860,-0.35735,0.151745,0.35841
1470345949996484,-0.355874,0.151154,0.360112
1470345950018501,-0.354698,0.1502,0.361581
1470345950041543,-0.352867,0.149392,0.363187
1470345950056501,-0.350332,0.148889,0.365146
1470345950079030,-0.348282,0.148494,0.367192
1470345950101127,-0.346862,0.147455,0.369197
1470345950116172,-0.345741,0.146049,0.371624
1470345950139166,-0.344124,0.144646,0.373945
1470345950161142,-0.343056,0.143128,0.375752
1470345950176749,-0.342401,0.141518,0.377306
1470345950199348,-0.341505,0.140604,0.378102
1470345950224349,-0.340804,0.140217,0.378842
1470345950236362,-0.340321,0.139971,0.379406
1470345950258459,-0.33918,0.139744,0.380102
1470345950281450,-0.337902,0.13968,0.381192
1470345950296428,-0.336529,0.139274,0.382572
1470345950318472,-0.335071,0.138604,0.38399
1470345950341517,-0.332996,0.137857,0.385707
1470345950356531,-0.330359,0.136594,0.388024
1470345950379046,-0.327846,0.135271,0.390587
1470345950401562,-0.323765,0.133493,0.393921
1470345950416575,-0.317974,0.131139,0.398253
1470345950438594,-0.312503,0.128659,0.402354
1470345950461628,-0.307106,0.125863,0.406092
1470345950478152,-0.300939,0.123111,0.410475
1470345950498525,-0.295943,0.120144,0.415198
1470345950521614,-0.292189,0.116797,0.419938
1470345950537559,-0.287957,0.113283,0.425193
1470345950558640,-0.283674,0.110141,0.430658
1470345950581674,-0.278753,0.107196,0.435213
1470345950597492,-0.273437,0.104485,0.43872
1470345950618532,-0.269096,0.101939,0.441894
1470345950641581,-0.266201,0.0998447,0.445129
1470345950657579,-0.264384,0.0981433,0.447664
1470345950679114,-0.263326,0.0964337,0.449783
1470345950701607,-0.262193,0.0950579,0.452634
1470345950719623,-0.260047,0.094208,0.455549
1470345950738642,-0.256948,0.0937694,0.457688
1470345950761696,-0.253155,0.0936083,0.459419
1470345950779749,-0.250209,0.0936063,0.460852
1470345950798835,-0.24852,0.0937356,0.462018
1470345950821858,-0.247653,0.0936161,0.462687
1470345950839901,-0.247626,0.0937342,0.462674
1470345950858890,-0.24867,0.0941052,0.462594
1470345950881546,-0.250346,0.0945886,0.462267
1470345950899063,-0.2518,0.0954667,0.461498
1470345950919082,-0.253004,0.0963744,0.460482
1470345950941102,-0.253782,0.0975196,0.459197
1470345950959118,-0.254953,0.0987017,0.457538
1470345950979186,-0.25711,0.099935,0.45543
1470345951001989,-0.260505,0.101358,0.45355
1470345951019004,-0.263953,0.103089,0.452006
1470345951039078,-0.266587,0.104504,0.450514
1470345951061047,-0.26768,0.105973,0.449295
1470345951079598,-0.26723,0.107517,0.448483
1470345951115214,-0.266233,0.108688,0.447736
1470345951121201,-0.266038,0.109582,0.447238
1470345951139181,-0.266083,0.110052,0.446947
1470345951159222,-0.266761,0.109815,0.446817
1470345951181823,-0.268053,0.109736,0.446806
1470345951199311,-0.268155,0.109194,0.447239
1470345951220331,-0.268699,0.109,0.447636
1470345951241353,-0.268298,0.109069,0.447892
1470345951259366,-0.268029,0.109115,0.447753
1470345951281947,-0.267109,0.109329,0.447245
1470345951301511,-0.267011,0.109183,0.447261
1470345951319527,-0.267883,0.109256,0.447231
1470345951338599,-0.269369,0.109418,0.447699
1470345951361569,-0.269618,0.109921,0.448124
1470345951379631,-0.269261,0.110322,0.448849
1470345951398659,-0.267635,0.110701,0.44973
1470345951421677,-0.266635,0.110495,0.450786
1470345951439697,-0.265607,0.109839,0.452289
1470345951460712,-0.264482,0.109035,0.453809
1470345951481771,-0.262661,0.108477,0.455563
1470345951499909,-0.261292,0.10763,0.457218
1470345951519854,-0.26032,0.106748,0.458879
1470345951541926,-0.259801,0.106131,0.459847
1470345951559853,-0.258981,0.105779,0.460546
1470345951580378,-0.258588,0.105742,0.460921
1470345951608520,-0.258063,0.105796,0.461312
1470345951619569,-0.258063,0.105796,0.461312
1470345951640532,-0.258063,0.105796,0.461312
1470345951661640,-0.258256,0.10609,0.461281
1470345951679575,-0.259047,0.106523,0.461214
1470345951700120,-0.259571,0.106984,0.460875
1470345951721172,-0.25976,0.107365,0.460595
1470345951739155,-0.25954,0.107758,0.460153
1470345951762176,-0.259435,0.107785,0.459669
1470345951781702,-0.259419,0.107836,0.459131
1470345951799223,-0.260217,0.10772,0.458748
1470345951822244,-0.26163,0.107745,0.458353
1470345951841319,-0.263251,0.107856,0.458165
1470345951859277,-0.263975,0.108007,0.457993
1470345951881859,-0.263767,0.108437,0.457838
1470345951901436,-0.26349,0.10917,0.457251
1470345951919447,-0.263969,0.1099,0.456243
1470345951941466,-0.265657,0.110499,0.455013
1470345951961492,-0.26753,0.110766,0.453795
1470345951979546,-0.269459,0.111293,0.452523
1470345952001572,-0.270854,0.111998,0.451653
1470345952021644,-0.271977,0.112696,0.451155
1470345952039606,-0.272106,0.11329,0.45069
1470345952061626,-0.271738,0.113857,0.449986
1470345952081712,-0.271985,0.113982,0.4496
1470345952099758,-0.272615,0.11405,0.449063
1470345952121709,-0.27312,0.114091,0.448528
1470345952141741,-0.274114,0.114279,0.448245
1470345952166746,-0.275268,0.114237,0.44783
1470345952181265,-0.276293,0.114203,0.447679
1470345952201867,-0.276914,0.114324,0.447535
1470345952218842,-0.277037,0.114352,0.447532
1470345952240865,-0.27662,0.114554,0.447001
1470345952261883,-0.276997,0.114602,0.446732
1470345952278964,-0.278022,0.114567,0.446581
1470345952300989,-0.279044,0.11455,0.446562
1470345952322063,-0.279794,0.114596,0.446534
1470345952339024,-0.279794,0.114596,0.446534
1470345952361067,-0.279024,0.114565,0.446667
1470345952382610,-0.279024,0.114565,0.446667
1470345952398102,-0.2789,0.114538,0.44667
1470345952421125,-0.2789,0.114538,0.44667
1470345952442175,-0.278892,0.114659,0.446681
1470345952458157,-0.279492,0.114194,0.446845
1470345952481189,-0.279817,0.113811,0.447132
1470345952502244,-0.279817,0.113811,0.447132
1470345952518266,-0.279817,0.113811,0.447132
1470345952541261,-0.279693,0.113783,0.447134
1470345952562281,-0.279693,0.113783,0.447134
1470345952578858,-0.27957,0.113755,0.447137
1470345952601420,-0.279545,0.113873,0.447123
1470345952622439,-0.279786,0.113965,0.447379
1470345952638494,-0.279786,0.113965,0.447379
1470345952661475,-0.279786,0.113965,0.447379
1470345952684001,-0.279786,0.113965,0.447379
1470345952699115,-0.279663,0.113937,0.447382
1470345952721138,-0.279539,0.113909,0.447384
1470345952743153,-0.279539,0.113909,0.447384
1470345952765188,-0.279415,0.113881,0.447387
1470345952781714,-0.279415,0.113881,0.447387
1470345952803519,-0.279415,0.113881,0.447387
1470345952818533,-0.279415,0.113881,0.447387
1470345952840586,-0.279292,0.113854,0.44739
1470345952863615,-0.279292,0.113854,0.44739
1470345952878141,-0.279168,0.113826,0.447392
1470345952900667,-0.279168,0.113826,0.447392
1470345952923689,-0.279044,0.113798,0.447395
1470345952937701,-0.279036,0.113919,0.447406
1470345952960738,-0.278913,0.113891,0.447409
1470345952983747,-0.278913,0.113891,0.447409
1470345952997766,-0.27869,0.11365,0.447809
1470345953020834,-0.278285,0.113138,0.448398
1470345953043807,-0.278206,0.112242,0.449273
1470345953057820,-0.28035,0.109373,0.450368
1470345953081410,-0.285984,0.104344,0.452546
1470345953103966,-0.295208,0.096885,0.456311
1470345953124984,-0.306596,0.0868444,0.46195
1470345953140999,-0.31609,0.076481,0.469679
1470345953163073,-0.318986,0.0691304,0.479831
1470345953185137,-0.316568,0.0637385,0.494547
1470345953201159,-0.314133,0.0614451,0.513661
1470345953223179,-0.31137,0.0613097,0.535979
1470345953244201,-0.308319,0.0619154,0.561306
1470345953261213,-0.303125,0.0624975,0.589389
1470345953283750,-0.294457,0.0627493,0.620178
1470345953304370,-0.283727,0.0626409,0.65334
1470345953321343,-0.27313,0.0610315,0.687384
1470345953343361,-0.26169,0.0592362,0.722195
1470345953364435,-0.249958,0.0566906,0.758657
1470345953381401,-0.235744,0.0533387,0.79437
1470345953403424,-0.220184,0.0487542,0.829563
1470345953424498,-0.204007,0.0431818,0.864233
1470345953441460,-0.187183,0.0369327,0.897729
1470345953463528,-0.171612,0.0303225,0.929425
1470345953485015,-0.158951,0.0236284,0.959148
1470345953501206,-0.148742,0.0167385,0.986486
1470345953523241,-0.139327,0.00920005,1.01194
1470345953552253,-0.129542,0.00213593,1.03606
1470345953560260,-0.119054,-0.00491229,1.05885
1470345953583871,-0.108844,-0.0115067,1.08003
1470345953604429,-0.100577,-0.0175581,1.10006
1470345953620479,-0.0937608,-0.0226739,1.11977
1470345953643505,-0.0861531,-0.0272082,1.13924
1470345953666468,-0.0782941,-0.0314075,1.15789
1470345953680543,-0.0711066,-0.0358414,1.17506
1470345953703616,-0.0609819,-0.0410632,1.18679
1470345953725635,-0.0509491,-0.0464683,1.20537
1470345953740649,-0.0493464,-0.0537081,1.22077
1470345953763670,-0.0537257,-0.0624913,1.23902
1470345953786210,-0.0550139,-0.0717573,1.25384
1470345953800727,-0.0463158,-0.0787359,1.26674
1470345953823747,-0.039875,-0.0873956,1.27835
1470345953845768,-0.0345789,-0.095303,1.28729
1470345953860785,-0.027979,-0.10347,1.29373
1470345953883830,-0.0138497,-0.108871,1.29652
1470345953905896,-0.00430568,-0.115803,1.30042
1470345953926918,-0.000249127,-0.123876,1.30193
1470345953942976,0.000624981,-0.133603,1.30468
1470345953965952,0.00179007,-0.143379,1.30664
1470345953987477,0.00532535,-0.152331,1.30796
1470345954003999,0.00890116,-0.161196,1.30959
1470345954026037,0.00959832,-0.167726,1.31145
1470345954047039,0.0104006,-0.170236,1.31199
1470345954063136,0.011173,-0.16839,1.31244
1470345954086129,0.0128022,-0.164597,1.31318
1470345954100159,0.0141726,-0.162934,1.31407
1470345954123176,0.0174777,-0.163381,1.31493
1470345954146198,0.0230638,-0.164239,1.31626
1470345954167258,0.0298486,-0.164087,1.31839
1470345954183737,0.0345286,-0.162465,1.32047
1470345954205864,0.0355887,-0.160701,1.32298
1470345954226905,0.0366711,-0.159706,1.32518
1470345954243867,0.040863,-0.158348,1.32734
1470345954265897,0.0448748,-0.156662,1.32905
1470345954287501,0.0485883,-0.154657,1.32968
1470345954303148,0.0546506,-0.152101,1.32957
1470345954326131,0.0608439,-0.149538,1.32994
1470345954347201,0.06467,-0.147251,1.32984
1470345954363255,0.0685792,-0.144679,1.32928
1470345954386234,0.0736925,-0.142144,1.32901
1470345954406756,0.0796822,-0.139676,1.32871
1470345954423770,0.0843849,-0.137275,1.32836
1470345954445789,0.0881597,-0.135067,1.3279
1470345954466824,0.092218,-0.133259,1.32758
1470345954483828,0.0967137,-0.131505,1.32761
1470345954513878,0.10012,-0.130145,1.32769
1470345954526904,0.102204,-0.129276,1.32747
1470345954543901,0.103198,-0.128799,1.32728
1470345954573929,0.104645,-0.128358,1.3271
1470345954588960,0.106008,-0.128012,1.32691
1470345954604001,0.107001,-0.127535,1.32673
1470345954626021,0.107497,-0.127301,1.32672
1470345954648045,0.107757,-0.127176,1.32656
1470345954664058,0.108599,-0.126901,1.32655
1470345954686114,0.108599,-0.126901,1.32655
1470345954708139,0.10901,-0.126574,1.32622
1470345954723238,0.10963,-0.126389,1.32574
1470345954746173,0.110855,-0.126038,1.3251
1470345954768243,0.112391,-0.125481,1.32461
1470345954783228,0.114214,-0.124547,1.32427
1470345954806221,0.115205,-0.123889,1.32396
1470345954829244,0.11584,-0.123271,1.32363
1470345954843255,0.11719,-0.122931,1.3236
1470345954866275,0.118303,-0.12271,1.3236
1470345954888818,0.118378,-0.122614,1.3236
1470345954903200,0.117857,-0.122876,1.32408
1470345954926248,0.116905,-0.123275,1.32454
1470345954948243,0.116817,-0.12358,1.32516
1470345954963254,0.116209,-0.123946,1.32579
1470345954986326,0.114847,-0.124482,1.32628
1470345955008234,0.113753,-0.125083,1.32693
1470345955023249,0.112413,-0.125791,1.32742
1470345955046270,0.111743,-0.126233,1.32773
1470345955068290,0.111938,-0.126574,1.32804
1470345955083309,0.112145,-0.126906,1.32819
1470345955106278,0.111537,-0.127082,1.32852
1470345955128297,0.111203,-0.127293,1.3285
1470345955149359,0.111203,-0.127293,1.3285
1470345955166353,0.110747,-0.127087,1.32853
1470345955188917,0.110747,-0.127087,1.32853
1470345955209297,0.110747,-0.127087,1.32853
1470345955226257,0.11077,-0.12726,1.32853
1470345955248277,0.107268,-0.12772,1.32954
1470345955269360,0.103664,-0.128705,1.33039
1470345955286376,0.104993,-0.12904,1.32959
1470345955308248,0.105114,-0.128257,1.33004
1470345955329246,0.103041,-0.129116,1.3301
1470345955346227,0.100848,-0.129726,1.33016
1470345955368250,0.101852,-0.129617,1.33043
1470345955389824,0.103476,-0.128743,1.33071
1470345955406239,0.103476,-0.128743,1.33071
1470345955428258,0.103243,-0.128842,1.3304
1470345955449280,0.102713,-0.128723,1.33025
1470345955466295,0.102872,-0.127511,1.33088
1470345955488822,0.10384,-0.127279,1.33022
1470345955509312,0.106984,-0.126503,1.32892
1470345955526262,0.108711,-0.125497,1.32857
1470345955548281,0.108915,-0.124659,1.32796
1470345955571302,0.110578,-0.12374,1.32746
1470345955585854,0.114057,-0.12269,1.32694
1470345955608251,0.115921,-0.121497,1.32676
1470345955631270,0.115385,-0.120585,1.32646
1470345955646284,0.115149,-0.120314,1.3257
1470345955668303,0.117387,-0.119656,1.32489
1470345955691390,0.11963,-0.118584,1.32457
1470345955705410,0.120473,-0.117908,1.32362
1470345955728431,0.122303,-0.116582,1.32255
1470345955751450,0.12441,-0.114877,1.32161
1470345955765495,0.126699,-0.113141,1.32054
1470345955788989,0.130256,-0.111578,1.31915
1470345955811516,0.134987,-0.109691,1.31778
1470345955825530,0.139056,-0.10783,1.31703
1470345955848550,0.140761,-0.10663,1.3166
1470345955870605,0.1412,-0.106254,1.31567
1470345955885663,0.142591,-0.105868,1.31508
1470345955908740,0.144629,-0.105246,1.31481
1470345955930708,0.145504,-0.105116,1.3145
1470345955945723,0.145283,-0.104795,1.31451
1470345955968744,0.144552,-0.104526,1.31435
1470345955991271,0.145528,-0.10386,1.31406
1470345956005566,0.14723,-0.103269,1.31363
1470345956028587,0.14868,-0.102588,1.31274
1470345956050605,0.149807,-0.102111,1.31166
1470345956072646,0.151346,-0.101526,1.31108
1470345956088731,0.153628,-0.100759,1.3105
1470345956110909,0.155004,-0.099387,1.31089
1470345956131930,0.153928,-0.0983667,1.31184
1470345956148943,0.155006,-0.0981769,1.3111
1470345956170967,0.159174,-0.0975626,1.30991
1470345956192492,0.161852,-0.0970921,1.30934
1470345956208548,0.161131,-0.0974332,1.30918
1470345956230599,0.160222,-0.0974078,1.30962
1470345956252658,0.161459,-0.0966235,1.31061
1470345956268635,0.163888,-0.0952844,1.31086
1470345956291181,0.166492,-0.0943007,1.31033
1470345956312631,0.168561,-0.0938069,1.3096
1470345956328692,0.167845,-0.0937345,1.30975
1470345956350686,0.165512,-0.0947604,1.31012
1470345956372720,0.165437,-0.0948569,1.31012
1470345956388754,0.167599,-0.0942734,1.31065
1470345956411435,0.167649,-0.0940057,1.31066
1470345956432453,0.166195,-0.0940765,1.31032
1470345956448472,0.164889,-0.0945651,1.30998
1470345956471489,0.165442,-0.0946463,1.30967
1470345956492590,0.167452,-0.0944331,1.30909
1470345956508166,0.169473,-0.0942173,1.30853
1470345956531132,0.169547,-0.0941207,1.30853
1470345956553206,0.168392,-0.0942274,1.30913
1470345956569128,0.168367,-0.0940562,1.30913
1470345956591228,0.169834,-0.0937481,1.30871
1470345956613215,0.170857,-0.0934204,1.30844
1470345956628227,0.170067,-0.093445,1.30858
1470345956651264,0.169285,-0.0940545,1.30837
1470345956673268,0.169637,-0.0942089,1.30868
1470345956688320,0.1706,-0.0941624,1.30855
1470345956711081,0.1706,-0.0941624,1.30855
1470345956733115,0.170675,-0.0940659,1.30855
1470345956748123,0.170675,-0.0940659,1.30855
1470345956771134,0.170823,-0.0938729,1.30857
1470345956793662,0.170823,-0.0938729,1.30857
1470345956808604,0.170922,-0.0939475,1.30857
1470345956830624,0.169934,-0.0944329,1.30868
1470345956853644,0.169193,-0.0947998,1.30881
1470345956874689,0.169875,-0.0947141,1.30882
1470345956891221,0.170853,-0.0942424,1.30886
1470345956913792,0.170927,-0.0941459,1.30886
1470345956927785,0.170486,-0.093903,1.3084
1470345956950806,0.171112,-0.0938749,1.30794
1470345956973827,0.172333,-0.0936959,1.30767
1470345956987899,0.173272,-0.0934778,1.30754
1470345957010982,0.173346,-0.0933813,1.30755
1470345957034000,0.173346,-0.0933813,1.30755
1470345957055021,0.173346,-0.0933813,1.30755
1470345957071036,0.17342,-0.0932847,1.30756
1470345957093606,0.17342,-0.0932847,1.30756
1470345957115189,0.17342,-0.0932847,1.30756
1470345957131204,0.173009,-0.0934114,1.30738
1470345957153262,0.173009,-0.0934114,1.30738
1470345957174246,0.173967,-0.0931654,1.30696
1470345957191359,0.175409,-0.0926839,1.30654
1470345957213466,0.175582,-0.0926619,1.30655
1470345957234489,0.175483,-0.0925873,1.30655
1470345957251472,0.175557,-0.0924908,1.30656
1470345957273491,0.175657,-0.0925653,1.30656
1470345957295036,0.175657,-0.0925653,1.30656
1470345957310594,0.175731,-0.0924688,1.30657
1470345957333562,0.17583,-0.0925433,1.30657
1470345957354637,0.17583,-0.0925433,1.30657
1470345957370636,0.175731,-0.0924688,1.30657
1470345957393647,0.176243,-0.0921915,1.30613
1470345957414339,0.176317,-0.0920949,1.30613
1470345957431352,0.176417,-0.0921694,1.30613
1470345957436389,0.176417,-0.0921694,1.30613
1470345957459443,0.176491,-0.0920729,1.30614
1470345957490424,0.17659,-0.0921474,1.30614
1470345957496930,0.176689,-0.0922219,1.30614
1470345957519014,0.176382,-0.0920124,1.30629
1470345957542036,0.176382,-0.0920124,1.30629
1470345957556991,0.177249,-0.0919022,1.30633
1470345957579010,0.177321,-0.0917936,1.30617
1470345957601138,0.176976,-0.0918497,1.30632
1470345957616140,0.176976,-0.0918497,1.30632
1470345957639150,0.176976,-0.0918497,1.30632
1470345957661140,0.177073,-0.0919122,1.30615
1470345957676153,0.177073,-0.0919122,1.30615
1470345957698793,0.177147,-0.0918157,1.30616
1470345957721812,0.177221,-0.0917191,1.30617
1470345957736825,0.177221,-0.0917191,1.30617
1470345957766908,0.177221,-0.0917191,1.30617
1470345957781895,0.177221,-0.0917191,1.30617
1470345957796891,0.177395,-0.0916971,1.30617
1470345957820010,0.177395,-0.0916971,1.30617
1470345957842025,0.177395,-0.0916971,1.30617
1470345957856089,0.177899,-0.0914456,1.30606
1470345957879077,0.178326,-0.0912666,1.30559
1470345957901555,0.178528,-0.0912017,1.30515
1470345957916602,0.178602,-0.0911051,1.30516
1470345957939670,0.178701,-0.0911796,1.30516
1470345957961611,0.179541,-0.0908858,1.30504
1470345957976668,0.180281,-0.0905174,1.30492
1470345957999372,0.180381,-0.0905919,1.30492
1470345958021392,0.180381,-0.0905919,1.30492
1470345958036360,0.180455,-0.0904953,1.30492
1470345958059381,0.180529,-0.0903987,1.30493
1470345958081453,0.180526,-0.0903866,1.30476
1470345958104998,0.180626,-0.090461,1.30476
1470345958119047,0.18123,-0.0902834,1.30465
1470345958141011,0.181831,-0.0900936,1.30436
1470345958158088,0.182951,-0.0898248,1.30393
1470345958179093,0.183691,-0.089456,1.30381
1470345958201230,0.183765,-0.0893594,1.30382
1470345958218221,0.183939,-0.0893372,1.30383
1470345958239270,0.184605,-0.089065,1.3037
1470345958261269,0.184778,-0.0890428,1.30371
1470345958278275,0.184778,-0.0890428,1.30371
1470345958298894,0.184778,-0.0890428,1.30371
1470345958321207,0.184952,-0.0890206,1.30372
1470345958338219,0.184952,-0.0890206,1.30372
1470345958359238,0.184952,-0.0890206,1.30372
1470345958381317,0.184952,-0.0890206,1.30372
1470345958399281,0.185727,-0.0888078,1.30345
1470345958419336,0.186434,-0.0882952,1.30365
1470345958441356,0.186534,-0.0883696,1.30365
1470345958459339,0.186608,-0.088273,1.30366
1470345958479357,0.186608,-0.088273,1.30366
1470345958501530,0.186782,-0.0882507,1.30367
1470345958519491,0.186251,-0.0883324,1.30379
1470345958539512,0.186251,-0.0883324,1.30379
1470345958561529,0.186747,-0.0880948,1.30383
1470345958579547,0.186821,-0.0879982,1.30384
1470345958599115,0.187226,-0.0876712,1.30372
1470345958621414,0.187325,-0.0877455,1.30372
1470345958639398,0.187397,-0.0876366,1.30356
1470345958659418,0.187496,-0.0877109,1.30356
1470345958681490,0.18757,-0.0876144,1.30357
1470345958698999,0.18757,-0.0876144,1.30357
1470345958719239,0.187644,-0.0875178,1.30358
1470345958741274,0.188262,-0.087513,1.30344
1470345958759246,0.188928,-0.0872406,1.30332
1470345958779264,0.189101,-0.0872183,1.30333
1470345958801229,0.189101,-0.0872183,1.30333
1470345958820208,0.189101,-0.0872183,1.30333
1470345958839222,0.189948,-0.086896,1.30289
1470345958861241,0.190809,-0.0865829,1.30265
1470345958879258,0.192018,-0.0864016,1.30238
1470345958901952,0.192018,-0.0864016,1.30238
1470345958921970,0.192093,-0.086305,1.30239
1470345958938987,0.192266,-0.0862827,1.3024
1470345958959059,0.192266,-0.0862827,1.3024
1470345958981028,0.192266,-0.0862827,1.3024
1470345958999048,0.19244,-0.0862603,1.30241
1470345959020511,0.192932,-0.0860099,1.30228
1470345959049537,0.193106,-0.0859876,1.30229
1470345959059546,0.19318,-0.085891,1.3023
1470345959080569,0.19318,-0.085891,1.3023
1470345959101652,0.193353,-0.0858686,1.30231
1470345959119643,0.193353,-0.0858686,1.30231
1470345959140663,0.193427,-0.085772,1.30232
1470345959161724,0.193601,-0.0857497,1.30233
1470345959179697,0.193701,-0.0858239,1.30233
1470345959200852,0.193316,-0.0857008,1.3023
1470345959221872,0.19339,-0.0856042,1.30231
1470345959239886,0.193489,-0.0856784,1.30231
1470345959260954,0.194068,-0.0853284,1.3022
1470345959281979,0.194242,-0.085306,1.30221
1470345959299492,0.194734,-0.0850555,1.30208
1470345959319925,0.194834,-0.0851298,1.30209
1470345959341911,0.194834,-0.0851298,1.30209
1470345959359961,0.195592,-0.0847288,1.30168
1470345959381912,0.195592,-0.0847288,1.30168
1470345959401614,0.195766,-0.0847064,1.30169
1470345959419597,0.19584,-0.0846098,1.3017
1470345959441616,0.19584,-0.0846098,1.3017
1470345959461636,0.196606,-0.0844109,1.30158
1470345959479652,0.197268,-0.0841251,1.30129
1470345959502313,0.197368,-0.0841993,1.30129
1470345959521260,0.197442,-0.0841027,1.3013
1470345959539253,0.197442,-0.0841027,1.3013
1470345959562352,0.197442,-0.0841027,1.3013
1470345959581332,0.198291,-0.0837911,1.30105
1470345959599914,0.198291,-0.0837911,1.30105
1470345959622187,0.198465,-0.0837687,1.30106
1470345959641152,0.198539,-0.0836721,1.30107
1470345959659170,0.198639,-0.0837462,1.30107
1470345959682215,0.198713,-0.0836496,1.30108
1470345959701801,0.198713,-0.0836496,1.30108
1470345959725822,0.198713,-0.0836496,1.30108
1470345959741837,0.198787,-0.083553,1.30109
1470345959761886,0.19896,-0.0835306,1.3011
1470345959779877,0.19896,-0.0835306,1.3011
1470345959802008,0.19896,-0.0835306,1.3011
1470345959822025,0.19896,-0.0835306,1.3011
1470345959840089,0.199723,-0.0833187,1.30081
1470345959862061,0.200801,-0.0829201,1.30088
1470345959881077,0.200875,-0.0828235,1.30089
1470345959899702,0.200457,-0.0829777,1.30102
1470345959921835,0.200557,-0.0830519,1.30102
1470345959941853,0.200631,-0.0829553,1.30103
1470345959959869,0.200631,-0.0829553,1.30103
1470345959980932,0.20073,-0.0830295,1.30104
1470345960002074,0.200804,-0.0829329,1.30105
1470345960019088,0.201123,-0.0827044,1.30091
1470345960041108,0.201963,-0.0824086,1.3008
1470345960062127,0.202136,-0.0823862,1.30081
1470345960078141,0.20231,-0.0823637,1.30083
1470345960101168,0.20231,-0.0823637,1.30083
1470345960122692,0.20231,-0.0823637,1.30083
1470345960138706,0.202384,-0.0822672,1.30084
1470345960160726,0.202484,-0.0823413,1.30084
1470345960182754,0.202558,-0.0822447,1.30085
1470345960198268,0.202558,-0.0822447,1.30085
1470345960220794,0.202728,-0.0822094,1.30069
1470345960241837,0.202802,-0.0821128,1.3007
1470345960258827,0.202802,-0.0821128,1.3007
1470345960280846,0.202802,-0.0821128,1.3007
1470345960303960,0.202976,-0.0820903,1.30071
1470345960318974,0.202976,-0.0820903,1.30071
1470345960340992,0.20305,-0.0819938,1.30072
1470345960364013,0.20315,-0.0820679,1.30072
1470345960379027,0.203224,-0.0819713,1.30073
1470345960401619,0.203398,-0.0819488,1.30074
1470345960423909,0.202951,-0.0819196,1.30072
1470345960438922,0.20305,-0.0819938,1.30072
1470345960460943,0.203124,-0.0818972,1.30073
1470345960483962,0.203124,-0.0818972,1.30073
1470345960498483,0.203124,-0.0818972,1.30073
1470345960521104,0.203198,-0.0818006,1.30074
1470345960544081,0.203198,-0.0818006,1.30074
1470345960558094,0.204138,-0.0815788,1.30064
1470345960581150,0.204312,-0.0815563,1.30065
1470345960603219,0.204482,-0.0815209,1.30049
1470345960618228,0.203955,-0.0816178,1.30078
1470345960641248,0.203537,-0.0817722,1.30091
1470345960663267,0.203041,-0.0820102,1.30087
1470345960678281,0.202623,-0.0821645,1.30101
1470345960701389,0.202623,-0.0821645,1.30101
1470345960723414,0.202797,-0.0821421,1.30102
1470345960738427,0.202797,-0.0821421,1.30102
1470345960768454,0.202797,-0.0821421,1.30102
1470345960783500,0.202971,-0.0821196,1.30103
1470345960804686,0.202971,-0.0821196,1.30103
1470345960826703,0.203144,-0.0820972,1.30104
1470345960843695,0.203045,-0.0820231,1.30104
1470345960864716,0.20254,-0.0822775,1.30114
1470345960880729,0.202196,-0.0823352,1.30129
1470345960903838,0.202369,-0.0823128,1.3013
1470345960924883,0.202369,-0.0823128,1.3013
1470345960940878,0.202443,-0.0822162,1.30131
1470345960963893,0.20244,-0.0822033,1.30114
1470345960984935,0.202614,-0.0821809,1.30115
1470345961001514,0.202614,-0.0821809,1.30115
1470345961023716,0.202688,-0.0820844,1.30116
1470345961044785,0.202688,-0.0820844,1.30116
1470345961060750,0.202788,-0.0821585,1.30117
1470345961083770,0.202543,-0.0822904,1.30131
1470345961105439,0.202395,-0.0824835,1.30129
1470345961121378,0.202469,-0.0823869,1.3013
1470345961143403,0.202121,-0.0824318,1.30128
1470345961164437,0.202121,-0.0824318,1.30128
1470345961181433,0.202221,-0.0825059,1.30128
1470345961203461,0.202295,-0.0824093,1.30129
1470345961224535,0.202295,-0.0824093,1.30129
1470345961241495,0.202395,-0.0824835,1.30129
1470345961263540,0.202395,-0.0824835,1.30129
1470345961286535,0.202565,-0.0824482,1.30114
1470345961301558,0.202565,-0.0824482,1.30114
1470345961323166,0.20264,-0.0823516,1.30115
1470345961346147,0.20264,-0.0823516,1.30115
1470345961360157,0.20264,-0.0823516,1.30115
1470345961383178,0.202357,-0.0823163,1.30128
1470345961406712,0.2017,-0.0825731,1.30125
1470345961420726,0.2018,-0.0826473,1.30125
1470345961443745,0.2018,-0.0826473,1.30125
1470345961465764,0.202475,-0.0823577,1.30099
1470345961480780,0.203141,-0.0820843,1.30087
1470345961503331,0.203315,-0.0820619,1.30088
1470345961525687,0.204016,-0.0819426,1.30061
1470345961548692,0.204116,-0.0820168,1.30061
1470345961563706,0.203942,-0.0820392,1.3006
1470345961585726,0.204116,-0.0820168,1.30061
1470345961600748,0.204116,-0.0820168,1.30061
1470345961623570,0.204116,-0.0820168,1.30061
1470345961646591,0.204676,-0.0816987,1.30081
1470345961660659,0.20475,-0.0816021,1.30082
1470345961683623,0.204393,-0.0816636,1.30095
1470345961705711,0.203762,-0.0820911,1.30091
1470345961720725,0.203167,-0.082255,1.30086
1470345961743818,0.202719,-0.0826439,1.30068
1470345961765765,0.202863,-0.0830336,1.30033
1470345961786832,0.202589,-0.0834001,1.30016
1470345961803346,0.200163,-0.0853516,1.29977
1470345961826512,0.195916,-0.0886994,1.29957
1470345961847556,0.190338,-0.0931811,1.29927
1470345961863565,0.184194,-0.0986515,1.29945
1470345961886565,0.174369,-0.10509,1.30017
1470345961907198,0.15892,-0.113233,1.30109
1470345961923160,0.139888,-0.121991,1.30318
1470345961953202,0.122184,-0.128089,1.307
1470345961967241,0.106676,-0.130209,1.31164
1470345961983216,0.089011,-0.128619,1.31663
1470345962006339,0.0668743,-0.124356,1.32121
1470345962027361,0.0547331,-0.112422,1.32533
1470345962043373,0.0454981,-0.104014,1.32845
1470345962066394,0.0385426,-0.0932513,1.33332
1470345962087468,0.0198494,-0.0850582,1.3403
1470345962103933,-0.00307401,-0.0711457,1.34795
1470345962126460,-0.00507575,-0.0479909,1.34882
1470345962147537,0.011509,-0.0250514,1.35291
1470345962162517,0.022222,0.00244489,1.35931
1470345962186515,0.0216353,0.0302428,1.36671
1470345962208611,0.0145025,0.0566681,1.37587
1470345962222620,0.00937695,0.0834981,1.3866
1470345962245641,0.00987935,0.112158,1.39781
1470345962268663,0.013931,0.142747,1.40888
1470345962282674,0.017749,0.174333,1.42014
1470345962306258,0.0199652,0.204799,1.43255
1470345962328295,0.0231076,0.234535,1.44541
1470345962343291,0.028242,0.262534,1.45977
1470345962366311,0.0333806,0.289611,1.47445
1470345962388330,0.0386364,0.316458,1.48774
1470345962403350,0.0445663,0.343349,1.49958
1470345962433883,0.0487851,0.368268,1.51146
1470345962448897,0.0495361,0.390576,1.52526
1470345962469916,0.047424,0.410684,1.53847
1470345962485932,0.0464212,0.429848,1.55062
1470345962508535,0.0459537,0.448224,1.56176
1470345962529553,0.0427118,0.464418,1.57348
1470345962546570,0.03908,0.480078,1.58623
1470345962568588,0.0398249,0.496424,1.59895
1470345962590114,0.0428415,0.511942,1.61162
1470345962606144,0.0453007,0.52761,1.6252
1470345962629152,0.0472813,0.541298,1.63961
1470345962657208,0.0524721,0.552758,1.65623
1470345962666185,0.0636534,0.559973,1.67379
1470345962689206,0.0743013,0.563502,1.6898
1470345962710249,0.0829253,0.572643,1.70246
1470345962726265,0.091832,0.583381,1.71265
1470345962748284,0.104373,0.593661,1.72497
1470345962771306,0.117637,0.604464,1.73873
1470345962786318,0.128774,0.614892,1.75306
1470345962816368,0.135384,0.625072,1.76824
1470345962829444,0.138988,0.634639,1.78355
1470345962846397,0.143382,0.643939,1.79795
1470345962868415,0.150666,0.65472,1.81124
1470345962889967,0.162682,0.666282,1.82504
1470345962906537,0.175764,0.677213,1.83859
1470345962928558,0.185089,0.685764,1.85213
1470345962949579,0.187564,0.691778,1.86241
1470345962965619,0.189062,0.697384,1.87041
1470345962988612,0.18986,0.702391,1.87616
1470345963009683,0.188394,0.705527,1.87979
1470345963032716,0.185545,0.707245,1.88151
1470345963048704,0.18097,0.708211,1.88075
1470345963069724,0.17486,0.709143,1.87819
1470345963085795,0.168528,0.709331,1.87432
1470345963108876,0.161894,0.709162,1.87026
1470345963129914,0.156253,0.707802,1.86718
1470345963145909,0.152135,0.704804,1.86614
1470345963168930,0.149781,0.700827,1.86632
1470345963191506,0.14901,0.697845,1.86747
1470345963205518,0.148425,0.695228,1.86848
1470345963228646,0.147669,0.692192,1.8701
1470345963250683,0.146946,0.689122,1.87177
1470345963265679,0.146884,0.686303,1.87401
1470345963288700,0.147119,0.682962,1.87654
1470345963311292,0.147217,0.680053,1.87859
1470345963325294,0.147148,0.67691,1.88011
1470345963348317,0.14711,0.674039,1.88127
1470345963371336,0.146246,0.671204,1.88199
1470345963385349,0.143813,0.668263,1.88318
1470345963408386,0.142065,0.665399,1.88412
1470345963431406,0.141581,0.662695,1.88583
1470345963445418,0.141318,0.659689,1.8876
1470345963468440,0.141201,0.6567,1.89044
1470345963491468,0.141177,0.653335,1.89271
1470345963505479,0.139055,0.649585,1.89355
1470345963529202,0.136379,0.645589,1.89463
1470345963551223,0.134935,0.642364,1.89514
1470345963565235,0.134244,0.639764,1.89588
1470345963595269,0.132939,0.637345,1.89604
1470345963610840,0.130958,0.634895,1.89543
1470345963625854,0.128982,0.63266,1.89482
1470345963648876,0.126124,0.630207,1.89393
1470345963670895,0.124027,0.628284,1.89364
1470345963692545,0.123849,0.626753,1.89427
1470345963708497,0.124135,0.625422,1.89478
1470345963731519,0.124355,0.624092,1.89507
1470345963752551,0.12482,0.622913,1.89489
1470345963768551,0.125418,0.621427,1.89442
1470345963791579,0.126305,0.620034,1.89405
1470345963819614,0.126525,0.61854,1.89276
1470345963828620,0.124785,0.616312,1.89119
1470345963850640,0.124087,0.614679,1.88969
1470345963872688,0.124794,0.613208,1.88903
1470345963888675,0.126307,0.612263,1.88915
1470345963911322,0.128828,0.611793,1.88952
1470345963932395,0.130332,0.61094,1.88927
1470345963948353,0.13007,0.610227,1.88822
1470345963971374,0.130144,0.610065,1.88687
1470345963992455,0.131161,0.609845,1.88589
1470345964008976,0.131521,0.609175,1.88485
1470345964030995,0.132897,0.608614,1.88429
1470345964052072,0.133314,0.608035,1.8831
1470345964069029,0.132066,0.607155,1.88089
1470345964091588,0.130845,0.606333,1.87835
1470345964114166,0.130098,0.605269,1.87691
1470345964129179,0.130183,0.604418,1.87615
1470345964151202,0.130407,0.603609,1.87538
1470345964174219,0.129307,0.602472,1.87422
1470345964188314,0.127349,0.601459,1.8732
1470345964211125,0.126429,0.60068,1.87247
1470345964234148,0.125926,0.599649,1.87201
1470345964249159,0.125267,0.598427,1.87226
1470345964271180,0.125485,0.597849,1.87331
1470345964293754,0.126162,0.597474,1.87423
1470345964314997,0.126528,0.596948,1.87538
1470345964330962,0.126466,0.5966,1.87601
1470345964353982,0.12706,0.596429,1.87657
1470345964376002,0.128205,0.596425,1.87725
1470345964391037,0.129384,0.59645,1.87811
1470345964413548,0.129408,0.595973,1.87813
1470345964427560,0.129408,0.595973,1.87813
1470345964451583,0.130156,0.596114,1.87831
1470345964473602,0.130846,0.59632,1.87843
1470345964487615,0.130741,0.596127,1.87813
1470345964511649,0.12973,0.595756,1.87813
1470345964533670,0.129165,0.595359,1.87796
1470345964547682,0.129951,0.595253,1.87821
1470345964571702,0.13089,0.594923,1.87844
1470345964594285,0.130167,0.594306,1.87827
1470345964614686,0.128383,0.593335,1.878
1470345964630688,0.127898,0.593073,1.87847
1470345964653687,0.128916,0.593259,1.8792
1470345964674723,0.128267,0.593435,1.87966
1470345964690721,0.12718,0.593025,1.87991
1470345964713464,0.125027,0.593228,1.87961
1470345964734482,0.121102,0.593417,1.87924
1470345964751499,0.119429,0.593722,1.87982
1470345964773518,0.120581,0.594355,1.88225
1470345964795084,0.122354,0.595782,1.88555
1470345964824625,0.122214,0.59821,1.88911
1470345964833651,0.12227,0.600235,1.89292
1470345964854696,0.125471,0.602883,1.89752
1470345964870711,0.130065,0.60535,1.90205
1470345964894193,0.131885,0.605955,1.90564
1470345964915257,0.128742,0.60429,1.90682
1470345964931273,0.124101,0.602782,1.90578
1470345964953331,0.121353,0.60208,1.90441
1470345964975318,0.119571,0.602458,1.9041
1470345964991327,0.117717,0.603141,1.90431
1470345965013911,0.116462,0.603222,1.90517
1470345965034976,0.115527,0.602872,1.90726
1470345965051018,0.114856,0.60269,1.91015
1470345965073964,0.11518,0.603365,1.91363
1470345965096494,0.115493,0.604577,1.91611
1470345965111024,0.115796,0.606388,1.91774
1470345965134046,0.115606,0.607819,1.91834
1470345965156118,0.115323,0.609501,1.91866
1470345965171086,0.115213,0.611101,1.91939
1470345965194107,0.115902,0.613108,1.92001
1470345965216154,0.116479,0.615348,1.92022
1470345965230203,0.116033,0.617434,1.91981
1470345965260185,0.115771,0.619323,1.91957
1470345965276241,0.116822,0.621391,1.91991
1470345965281243,0.117604,0.622893,1.92017
1470345965298279,0.117604,0.623853,1.92081
1470345965319343,0.117304,0.624531,1.92085
1470345965341365,0.117249,0.625378,1.92103
1470345965358378,0.117791,0.62613,1.9214
1470345965379426,0.118346,0.627049,1.92167
1470345965401977,0.118538,0.628034,1.92138
1470345965417500,0.118773,0.628938,1.92104
1470345965439542,0.119423,0.630229,1.92086
1470345965461536,0.119974,0.631487,1.92027
1470345965477570,0.12007,0.632792,1.91985
1470345965499576,0.120633,0.634287,1.91931
1470345965521643,0.121521,0.635838,1.91891
1470345965537718,0.122455,0.637523,1.91846
1470345965559675,0.122482,0.638833,1.91782
1470345965581669,0.121599,0.639697,1.91684
1470345965598229,0.12082,0.639941,1.91639
1470345965618870,0.12082,0.639941,1.91639
1470345965649877,0.12024,0.639832,1.91634
1470345965657886,0.119084,0.639645,1.91686
1470345965678907,0.118667,0.639618,1.91754
1470345965701926,0.117844,0.63937,1.91796
1470345965718001,0.116871,0.638704,1.91851
1470345965739018,0.11607,0.638257,1.91907
1470345965762036,0.115983,0.637917,1.92015
1470345965779054,0.115028,0.637705,1.92074
1470345965799587,0.115244,0.637552,1.92166
1470345965821211,0.115039,0.637665,1.92231
1470345965838203,0.114545,0.637759,1.92301
1470345965859212,0.112525,0.636442,1.92279
1470345965881307,0.110147,0.634755,1.92212
1470345965898349,0.107964,0.633155,1.92175
1470345965926394,0.106468,0.632477,1.92101
1470345965944354,0.104679,0.632396,1.9196
1470345965958369,0.102359,0.632658,1.91773
1470345965979389,0.100584,0.633272,1.91586
1470345966001920,0.0996299,0.634194,1.9148
1470345966019491,0.0994328,0.635291,1.91403
1470345966039510,0.0998179,0.637098,1.9142
1470345966061534,0.0997697,0.638401,1.91441
1470345966079547,0.0999497,0.640043,1.9151
1470345966099575,0.100143,0.641319,1.91604
1470345966122177,0.100899,0.642868,1.91737
1470345966156208,0.10203,0.644673,1.91892
1470345966160212,0.101222,0.645826,1.91942
1470345966181230,0.100938,0.647249,1.91963
1470345966199763,0.101087,0.648893,1.91966
1470345966218682,0.100842,0.651175,1.91986
1470345966241691,0.101311,0.653529,1.91993
1470345966259705,0.10103,0.655692,1.91921
1470345966278721,0.100288,0.657837,1.91852
1470345966301748,0.101137,0.660335,1.91859
1470345966319769,0.101805,0.663252,1.9185
1470345966338786,0.102711,0.665841,1.91843
1470345966361822,0.103369,0.66826,1.91822
1470345966379912,0.103148,0.670149,1.9176
1470345966399378,0.103843,0.672538,1.91744
1470345966428885,0.104547,0.675217,1.91742
1470345966439892,0.105126,0.677813,1.91733
1470345966458910,0.106724,0.680493,1.91809
1470345966488936,0.108256,0.683549,1.91794
1470345966499949,0.108556,0.68627,1.91673
1470345966519023,0.108699,0.689068,1.91521
1470345966543033,0.109484,0.692571,1.91421
1470345966560034,0.109781,0.695719,1.91342
1470345966579052,0.109742,0.698692,1.91222
1470345966602140,0.109908,0.701638,1.91111
1470345966619201,0.110475,0.704478,1.91049
1470345966640219,0.110476,0.706833,1.90959
1470345966661238,0.110804,0.709,1.9088
1470345966680255,0.111658,0.711699,1.90826
1470345966700862,0.112433,0.7144,1.90749
1470345966722424,0.112066,0.716967,1.90595
1470345966739437,0.112542,0.719419,1.90427
1470345966760461,0.112937,0.722162,1.90296
1470345966781532,0.112839,0.724416,1.90158
1470345966799535,0.112868,0.726764,1.9003
1470345966821154,0.113105,0.729085,1.8991
1470345966842173,0.112865,0.731256,1.89765
1470345966859188,0.112319,0.733411,1.89622
1470345966880207,0.111578,0.735206,1.89539
1470345966901830,0.110816,0.736526,1.89495
1470345966925858,0.110019,0.737035,1.89464
1470345966940874,0.109118,0.737066,1.89447
1470345966961925,0.10818,0.737186,1.89391
1470345966986914,0.10737,0.737266,1.89364
1470345967002437,0.105851,0.736833,1.89357
1470345967022082,0.103929,0.735912,1.89324
1470345967039008,0.102351,0.734679,1.89231
1470345967062029,0.100704,0.733995,1.89137
1470345967082093,0.0991922,0.733319,1.89036
1470345967099573,0.0977812,0.733242,1.88946
1470345967122099,0.0960338,0.733275,1.88829
1470345967142116,0.0953143,0.733493,1.88762
1470345967160133,0.094845,0.733468,1.88717
1470345967182153,0.0943784,0.733611,1.88707
1470345967201686,0.0945915,0.733581,1.88715
1470345967219821,0.0964008,0.734273,1.88856
1470345967241839,0.0984659,0.734851,1.89001
1470345967261861,0.0998855,0.735099,1.89081
1470345967279873,0.101256,0.735215,1.89168
1470345967302405,0.102931,0.735474,1.89277
1470345967321487,0.104764,0.735316,1.89394
1470345967339445,0.105476,0.734924,1.8947
1470345967362465,0.105056,0.734087,1.89508
1470345967381572,0.104899,0.73335,1.89548
1470345967399550,0.104871,0.732581,1.89571
1470345967421576,0.104617,0.731625,1.89631
1470345967441593,0.10423,0.730453,1.89658
1470345967459611,0.103255,0.729464,1.89646
1470345967481629,0.103125,0.729373,1.89637
1470345967504656,0.102869,0.729319,1.896
1470345967519674,0.101793,0.729006,1.89555
1470345967541693,0.101793,0.729006,1.89555
1470345967562713,0.101505,0.729205,1.89513
1470345967579728,0.101505,0.729205,1.89513
1470345967602257,0.101505,0.729205,1.89513
1470345967623572,0.102417,0.729763,1.8956
1470345967639585,0.103234,0.729893,1.89586
1470345967661604,0.103714,0.730217,1.89602
1470345967682624,0.104442,0.730298,1.8964
1470345967699673,0.10504,0.730412,1.89694
1470345967721596,0.10504,0.730412,1.89694
1470345967742619,0.10504,0.730412,1.89694
1470345967759631,0.105816,0.730707,1.89742
1470345967782652,0.105898,0.730584,1.89741
1470345967809181,0.106517,0.731046,1.8973
1470345967819453,0.10675,0.731488,1.89699
1470345967841474,0.106792,0.731448,1.89703
1470345967869515,0.106792,0.731448,1.89703
1470345967878513,0.106923,0.731539,1.89712
1470345967901537,0.106923,0.731539,1.89712
1470345967923807,0.106897,0.732047,1.89714
1470345967937903,0.10694,0.732007,1.89718
1470345967960833,0.10694,0.732007,1.89718
1470345967983855,0.10694,0.732007,1.89718
1470345967998932,0.10694,0.732007,1.89718
1470345968020951,0.107152,0.731976,1.89726
1470345968043962,0.10707,0.732098,1.89727
1470345968064981,0.108105,0.732446,1.89813
1470345968081038,0.109181,0.732629,1.89877
1470345968104062,0.109221,0.732671,1.89897
1470345968118093,0.109712,0.733167,1.89904
1470345968141144,0.110412,0.733501,1.89937
1470345968164136,0.111627,0.73403,1.90017
1470345968178148,0.113106,0.734534,1.90074
1470345968201748,0.113977,0.734878,1.90112
1470345968223981,0.113853,0.735042,1.90109
1470345968237993,0.114471,0.735374,1.90119
1470345968261047,0.115436,0.735891,1.90171
1470345968284035,0.116236,0.73653,1.90201
1470345968298097,0.116684,0.736936,1.90223
1470345968320911,0.117229,0.737647,1.90241
1470345968343920,0.117806,0.738021,1.90247
1470345968365941,0.117995,0.738376,1.90232
1470345968380956,0.118576,0.738875,1.90264
1470345968403981,0.119413,0.7393,1.90308
1470345968424509,0.120672,0.739616,1.90403
1470345968447529,0.122175,0.740416,1.90478
1470345968463541,0.12228,0.740771,1.90439
1470345968484574,0.121345,0.741028,1.90363
1470345968501595,0.120582,0.74121,1.90276
1470345968523556,0.120086,0.741692,1.90277
1470345968544627,0.120327,0.742169,1.90301
1470345968561586,0.120246,0.742292,1.90303
1470345968591611,0.120327,0.742169,1.90301
1470345968605172,0.12046,0.742261,1.90311
1470345968621225,0.12046,0.742261,1.90311
1470345968643243,0.12046,0.742261,1.90311
1470345968665263,0.121124,0.742637,1.90342
1470345968681277,0.121053,0.742942,1.90289
1470345968703848,0.12081,0.743236,1.90232
1470345968724654,0.121189,0.743949,1.90202
1470345968741650,0.121135,0.74459,1.90175
1470345968763670,0.120183,0.745541,1.90048
1470345968784708,0.117037,0.745657,1.8974
1470345968801290,0.112885,0.745453,1.89409
1470345968823815,0.110836,0.746129,1.89199
1470345968844883,0.110231,0.74735,1.89089
1470345968874903,0.110233,0.748688,1.89034
1470345968883893,0.110105,0.74998,1.88933
1470345968906467,0.110574,0.751044,1.88908
1470345968920608,0.111309,0.752296,1.88902
1470345968943674,0.112443,0.753608,1.88927
1470345968966649,0.114802,0.755115,1.89055
1470345968981662,0.117288,0.756281,1.89197
1470345969003773,0.118351,0.756683,1.8925
1470345969042917,0.118051,0.756701,1.89262
1470345969046921,0.117533,0.756838,1.89282
1470345969063935,0.117194,0.756937,1.893
1470345969085953,0.117233,0.756661,1.89393
1470345969101000,0.117069,0.755681,1.89521
1470345969123632,0.116709,0.754081,1.89656
1470345969146587,0.115703,0.751758,1.89835
1470345969160599,0.114887,0.748719,1.90018
1470345969183669,0.114594,0.745932,1.90215
1470345969206694,0.114672,0.743862,1.90381
1470345969220740,0.114272,0.741775,1.90502
1470345969243758,0.113618,0.73981,1.90575
1470345969266779,0.112946,0.738279,1.90591
1470345969280792,0.112936,0.738107,1.906
1470345969303818,0.112936,0.738107,1.906
1470345969326494,0.112583,0.737882,1.90548
1470345969340508,0.112665,0.737758,1.90547
1470345969363541,0.113085,0.738423,1.9052
1470345969386552,0.113038,0.739319,1.90499
1470345969407579,0.11312,0.739195,1.90498
1470345969424101,0.112665,0.739518,1.90433
1470345969446121,0.112665,0.739518,1.90433
1470345969467139,0.112665,0.739518,1.90433
1470345969484156,0.112062,0.739531,1.90403
1470345969506696,0.111247,0.739574,1.90366
1470345969527218,0.110799,0.740063,1.90337
1470345969543232,0.110664,0.74095,1.90336
1470345969566254,0.110603,0.741543,1.90344
1470345969595280,0.110585,0.742088,1.904
1470345969603796,0.110811,0.742348,1.90469
1470345969626318,0.111016,0.742139,1.90532
1470345969647340,0.110879,0.742001,1.90558
1470345969663352,0.110879,0.742001,1.90558
1470345969686373,0.110797,0.742125,1.90559
1470345969707419,0.110879,0.742001,1.90558
1470345969723316,0.110879,0.742001,1.90558
1470345969746336,0.110785,0.741827,1.90543
1470345969767463,0.110508,0.741346,1.90508
1470345969783371,0.109931,0.740974,1.90503
1470345969806426,0.109931,0.740974,1.90503
1470345969828434,0.110173,0.740683,1.9056
1470345969843447,0.109681,0.740314,1.90578
1470345969866467,0.109732,0.739544,1.90625
1470345969888488,0.109381,0.738455,1.9068
1470345969904012,0.109252,0.737506,1.90733
1470345969926549,0.108835,0.736969,1.90785
1470345969948576,0.108894,0.736373,1.90823
1470345969963582,0.108975,0.73625,1.90821
1470345969986604,0.109097,0.73617,1.9084
1470345970008760,0.109107,0.736341,1.90831
1470345970022792,0.109899,0.736805,1.9087
1470345970045847,0.110526,0.73739,1.90886
1470345970068894,0.110526,0.73739,1.90886
1470345970082850,0.111031,0.738055,1.90883
1470345970106427,0.1107,0.738298,1.90837
1470345970129006,0.1107,0.738298,1.90837
1470345970143020,0.1107,0.738298,1.90837
1470345970166084,0.110831,0.738389,1.90846
1470345970189061,0.110223,0.738146,1.90811
1470345970203163,0.110223,0.738146,1.90811
1470345970226205,0.110264,0.73819,1.90831
1470345970249226,0.110264,0.73819,1.90831
1470345970263239,0.110223,0.738146,1.90811
1470345970286296,0.111598,0.738249,1.90943
1470345970308804,0.112617,0.738115,1.91114
1470345970330340,0.112428,0.73788,1.91245
1470345970346354,0.113255,0.738126,1.91343
1470345970369375,0.113315,0.737655,1.91406
1470345970390391,0.113465,0.737232,1.91458
1470345970407469,0.113465,0.737232,1.91458
1470345970428492,0.113447,0.737015,1.91503
1470345970449511,0.113528,0.736891,1.91501
1470345970466527,0.113528,0.736891,1.91501
1470345970488617,0.113528,0.736891,1.91501
1470345970510157,0.113528,0.736891,1.91501
1470345970526206,0.113528,0.736891,1.91501
1470345970548315,0.113528,0.736891,1.91501
1470345970570245,0.113528,0.736891,1.91501
1470345970586260,0.113571,0.73685,1.91505
1470345970608786,0.113528,0.736891,1.91501
1470345970629861,0.113703,0.736941,1.91515
1470345970645897,0.113703,0.736941,1.91515
1470345970668917,0.113703,0.736941,1.91515
1470345970689956,0.113703,0.736941,1.91515
1470345970706463,0.114483,0.737102,1.91583
1470345970728998,0.11497,0.737418,1.91645
1470345970751018,0.116159,0.738022,1.91732
1470345970766032,0.116292,0.738114,1.91741
1470345970789054,0.116292,0.738114,1.91741
1470345970812084,0.116372,0.73799,1.9174
1470345970826064,0.116372,0.73799,1.9174
1470345970849122,0.116372,0.73799,1.9174
1470345970871130,0.117037,0.73836,1.9177
1470345970886163,0.11725,0.738328,1.91778
1470345970909159,0.11725,0.738328,1.91778
1470345970931224,0.117856,0.738438,1.91833
1470345970945281,0.118808,0.738606,1.91905
1470345970968299,0.118808,0.738606,1.91905
1470345970991281,0.118851,0.738564,1.91909
1470345971005828,0.118851,0.738564,1.91909
1470345971028433,0.119678,0.738687,1.91937
1470345971051399,0.120593,0.738937,1.92015
1470345971065468,0.121887,0.739031,1.92124
1470345971088432,0.122615,0.73906,1.92198
1470345971111534,0.122615,0.73906,1.92198
1470345971125160,0.123558,0.73897,1.92264
1470345971149182,0.124299,0.739169,1.92329
1470345971171206,0.125247,0.739211,1.92376
1470345971185214,0.125247,0.739211,1.92376
1470345971210281,0.12453,0.738751,1.9236
1470345971230798,0.12453,0.738751,1.9236
1470345971245809,0.125514,0.739393,1.92395
1470345971268828,0.125514,0.739393,1.92395
1470345971290940,0.125424,0.739266,1.92344
1470345971312474,0.12483,0.739342,1.92189
1470345971328984,0.124508,0.739725,1.92079
1470345971351003,0.124903,0.740478,1.92014
1470345971372067,0.125004,0.741395,1.91897
1470345971389038,0.124542,0.742364,1.91817
1470345971411598,0.124862,0.743282,1.91763
1470345971432125,0.126059,0.744572,1.91845
1470345971449140,0.126699,0.745151,1.91908
1470345971471159,0.127676,0.745539,1.91937
1470345971492192,0.127866,0.745162,1.91964
1470345971508700,0.126488,0.744491,1.91952
1470345971531224,0.125964,0.744376,1.91965
1470345971552268,0.125776,0.744147,1.92006
1470345971569262,0.124205,0.743125,1.92009
1470345971591283,0.122633,0.741377,1.92054
1470345971612821,0.120835,0.738765,1.92143
1470345971629393,0.119633,0.736013,1.92282
1470345971651413,0.119083,0.733465,1.92461
1470345971673432,0.118445,0.730921,1.92617
1470345971688445,0.117754,0.728851,1.9271
1470345971711474,0.118318,0.727769,1.928
1470345971734221,0.118397,0.727646,1.92799
1470345971756248,0.118516,0.727565,1.92817
1470345971771254,0.117652,0.727278,1.92745
1470345971794274,0.117284,0.726881,1.92747
1470345971816376,0.116364,0.725784,1.92732
1470345971831377,0.114105,0.723743,1.92704
1470345971853429,0.112367,0.721727,1.92691
1470345971868412,0.111242,0.720118,1.92748
1470345971891467,0.110535,0.719118,1.92813
1470345971913960,0.109703,0.718031,1.92824
1470345971928476,0.108483,0.716803,1.92835
1470345971951497,0.108055,0.716028,1.92838
1470345971973533,0.108055,0.716028,1.92838
1470345971988530,0.107859,0.716357,1.92846
1470345972011558,0.108978,0.717286,1.9284
1470345972034160,0.108881,0.717787,1.92818
1470345972048172,0.108747,0.718372,1.92801
1470345972071194,0.109589,0.71908,1.92859
1470345972093213,0.111173,0.720281,1.92995
1470345972108278,0.112718,0.721313,1.93087
1470345972131804,0.113175,0.721837,1.93089
1470345972153828,0.112643,0.722112,1.93035
1470345972167837,0.112825,0.722881,1.93006
1470345972190934,0.113471,0.72375,1.93037
1470345972213929,0.113866,0.724611,1.93041
1470345972234959,0.11377,0.725115,1.93019
1470345972250934,0.113882,0.725459,1.92979
1470345972273976,0.113882,0.725459,1.92979
1470345972295026,0.113253,0.725686,1.92982
1470345972311547,0.112672,0.725199,1.92951
1470345972333616,0.111546,0.724265,1.92955
1470345972354644,0.110431,0.723377,1.92924
1470345972371648,0.110065,0.722982,1.92927
1470345972393685,0.110275,0.722948,1.92935
1470345972415691,0.110275,0.722948,1.92935
1470345972431213,0.110112,0.722942,1.92886
1470345972454234,0.110196,0.722819,1.9284
1470345972476263,0.110073,0.722856,1.92811
1470345972491272,0.11009,0.723026,1.92756
1470345972513847,0.11009,0.723026,1.92756
1470345972535448,0.110169,0.722903,1.92755
1470345972551451,0.110773,0.723137,1.92789
1470345972573468,0.110773,0.723137,1.92789
1470345972594553,0.110773,0.723137,1.92789
1470345972611563,0.111508,0.723253,1.92791
1470345972633261,0.111548,0.723295,1.92811
1470345972656227,0.111508,0.723253,1.92791
1470345972671250,0.111508,0.723253,1.92791
1470345972694262,0.111679,0.723385,1.9282
1470345972716787,0.112563,0.72321,1.92854
1470345972731808,0.113515,0.723543,1.92915
1470345972753842,0.114546,0.723753,1.92975
1470345972775846,0.115288,0.72412,1.93029
1470345972790942,0.115288,0.72412,1.93029
1470345972813934,0.11603,0.724486,1.93082
1470345972835982,0.116849,0.724604,1.93109
1470345972850995,0.117707,0.724764,1.93155
1470345972874015,0.117839,0.724853,1.93164
1470345972896035,0.117747,0.724806,1.93175
1470345972911100,0.117839,0.724853,1.93164
1470345972933203,0.118506,0.724792,1.93252
1470345972956219,0.119721,0.724542,1.93369
1470345972971207,0.120256,0.723839,1.9348
1470345972994229,0.12028,0.722526,1.93605
1470345973016757,0.121333,0.721421,1.93789
1470345973030321,0.122035,0.720218,1.93946
1470345973053427,0.122324,0.719005,1.94028
1470345973076398,0.122201,0.717987,1.94075
1470345973090405,0.122578,0.716904,1.94161
1470345973098377,0.123323,0.716213,1.94244
1470345973119465,0.124394,0.716336,1.94253
1470345973141515,0.125575,0.717306,1.94224
1470345973158499,0.126278,0.718559,1.94157
1470345973179526,0.126947,0.720528,1.94079
1470345973201594,0.127779,0.722381,1.93979
1470345973218600,0.129658,0.724063,1.93963
1470345973239685,0.131531,0.725619,1.93968
1470345973261648,0.132729,0.726768,1.93977
1470345973278659,0.132413,0.727567,1.939
1470345973299678,0.131846,0.727928,1.93852
1470345973321881,0.131846,0.727928,1.93852
1470345973337806,0.132237,0.728067,1.939
1470345973358880,0.133014,0.728219,1.93968
1470345973381911,0.133174,0.727548,1.93977
1470345973397860,0.133174,0.727548,1.93977
1470345973419470,0.13301,0.726998,1.93915
1470345973442028,0.133087,0.726875,1.93914
1470345973458010,0.133087,0.726875,1.93914
1470345973479030,0.133939,0.727416,1.93939
1470345973502115,0.133995,0.727629,1.93949
1470345973519636,0.13346,0.727903,1.93941
1470345973539112,0.133225,0.727637,1.93962
1470345973562078,0.133084,0.726989,1.9403
1470345973580186,0.132482,0.725392,1.94107
1470345973599193,0.131787,0.723239,1.94238
1470345973621868,0.130881,0.720578,1.94348
1470345973639885,0.130393,0.7184,1.94487
1470345973658935,0.129797,0.716434,1.94588
1470345973681953,0.129495,0.714987,1.94689
1470345973699972,0.128075,0.713212,1.94727
1470345973719518,0.127852,0.712151,1.94784
1470345973741655,0.127797,0.71194,1.94774
1470345973759613,0.127797,0.71194,1.94774
1470345973779636,0.127152,0.711751,1.94735
1470345973809681,0.12599,0.711964,1.9467
1470345973819691,0.125153,0.711979,1.94615
1470345973839073,0.124141,0.711523,1.94604
1470345973862076,0.122936,0.710769,1.9462
1470345973880096,0.121414,0.709333,1.94693
1470345973899157,0.119478,0.706925,1.94782
1470345973922205,0.117907,0.704368,1.94903
1470345973939223,0.116633,0.701908,1.95035
1470345973959281,0.115535,0.699919,1.95123
1470345973982264,0.11518,0.698413,1.95243
1470345974000282,0.114356,0.696647,1.95314
1470345974019386,0.113821,0.695345,1.95372
1470345974042181,0.113132,0.694163,1.95408
1470345974060233,0.112506,0.69373,1.95421
1470345974079229,0.112639,0.693988,1.95465
1470345974102329,0.112725,0.694656,1.95481
1470345974119873,0.113615,0.695433,1.95521
1470345974139203,0.114335,0.696037,1.95523
1470345974162199,0.114394,0.696614,1.95464
1470345974180212,0.114937,0.697544,1.95429
1470345974201231,0.115745,0.698693,1.95423
1470345974222397,0.1158,0.699818,1.95376
1470345974239373,0.115594,0.70077,1.95312
1470345974260391,0.114433,0.701359,1.95224
1470345974281434,0.113296,0.701741,1.9515
1470345974299425,0.112245,0.701627,1.95099
1470345974319999,0.111098,0.700846,1.95077
1470345974341393,0.110146,0.700356,1.95028
1470345974359359,0.108843,0.699773,1.94999
1470345974380408,0.107571,0.6994,1.94925
1470345974401482,0.106936,0.699214,1.94888
1470345974419915,0.107065,0.6993,1.94896
1470345974440438,0.107065,0.6993,1.94896
1470345974461459,0.107195,0.699387,1.94905
1470345974479474,0.107143,0.699178,1.94895
1470345974500492,0.107793,0.699533,1.94922
1470345974521594,0.107793,0.699533,1.94922
1470345974539541,0.10722,0.699182,1.94919
1470345974562561,0.10661,0.698916,1.94922
1470345974589589,0.106042,0.699106,1.94885
1470345974599595,0.106119,0.698984,1.94884
1470345974622481,0.106119,0.698984,1.94884
1470345974641526,0.106119,0.698984,1.94884
1470345974659489,0.10581,0.699221,1.94838
1470345974682541,0.105747,0.699386,1.94805
1470345974701527,0.10614,0.700186,1.94796
1470345974720085,0.10665,0.700828,1.94791
1470345974742743,0.105952,0.701183,1.94797
1470345974761647,0.105228,0.700998,1.94781
1470345974779645,0.105228,0.700998,1.94781
1470345974801664,0.105305,0.700876,1.9478
1470345974821785,0.105305,0.700876,1.9478
1470345974839756,0.105305,0.700876,1.9478
1470345974861776,0.105305,0.700876,1.9478
1470345974881838,0.105305,0.700876,1.9478
1470345974899862,0.105709,0.701304,1.94795
1470345974922466,0.106933,0.70201,1.94826
1470345974941486,0.108808,0.702655,1.94943
1470345974959500,0.108901,0.702826,1.94958
1470345974982528,0.10855,0.702733,1.94977
1470345975001592,0.10855,0.702733,1.94977
1470345975020167,0.109944,0.703071,1.9508
1470345975041738,0.111795,0.703425,1.95227
1470345975062758,0.113155,0.703847,1.95337
1470345975086779,0.113286,0.703934,1.95345
1470345975101792,0.113614,0.703988,1.95407
1470345975121378,0.114967,0.704111,1.95455
1470345975139394,0.116461,0.704072,1.9556
1470345975162414,0.117713,0.704152,1.95665
1470345975183434,0.119062,0.704774,1.95716
1470345975199448,0.119103,0.704736,1.9572
1470345975222159,0.118577,0.704469,1.95701
1470345975243177,0.118577,0.704469,1.95701
1470345975260192,0.118577,0.704469,1.95701
1470345975282226,0.117358,0.70448,1.95672
1470345975310772,0.115837,0.704356,1.95621
1470345975319781,0.114852,0.70425,1.95639
1470345975341807,0.114341,0.703782,1.95679
1470345975364832,0.114232,0.70312,1.95754
1470345975379842,0.114472,0.702629,1.95825
1470345975401862,0.114281,0.702044,1.9589
1470345975422891,0.114578,0.701684,1.95956
1470345975439908,0.114578,0.701684,1.95956
1470345975461927,0.114415,0.701387,1.95992
1470345975482945,0.1143,0.701227,1.96069
1470345975499963,0.114626,0.701281,1.9613
1470345975529999,0.114106,0.701063,1.96122
1470345975545012,0.113379,0.700882,1.96106
1470345975560026,0.113071,0.701121,1.96061
1470345975582045,0.112428,0.701437,1.96025
1470345975605066,0.111742,0.701664,1.9596
1470345975620086,0.11164,0.701866,1.95921
1470345975641119,0.111424,0.70215,1.95865
1470345975664132,0.111169,0.702597,1.9583
1470345975685192,0.111302,0.702605,1.95823
1470345975701163,0.11147,0.702732,1.95851
1470345975724260,0.111433,0.702691,1.95832
1470345975745272,0.111563,0.702777,1.9584
1470345975761283,0.111563,0.702777,1.9584
1470345975783347,0.111487,0.7029,1.95842
1470345975798317,0.111563,0.702777,1.9584
1470345975821345,0.111563,0.702777,1.9584
1470345975843413,0.112185,0.702794,1.95887
1470345975865391,0.112936,0.70277,1.95917
1470345975881405,0.112936,0.70277,1.95917
1470345975903477,0.114593,0.70315,1.96012
1470345975926214,0.116684,0.70375,1.96138
1470345975941227,0.117974,0.703664,1.96221
1470345975964247,0.118241,0.703462,1.96262
1470345975978260,0.118116,0.703002,1.96277
1470345976001309,0.119142,0.702948,1.96384
1470345976023716,0.121391,0.702925,1.96531
1470345976044733,0.12219,0.702613,1.96614
1470345976061752,0.121851,0.702143,1.96611
1470345976083769,0.122065,0.701977,1.96547
1470345976104857,0.123449,0.702884,1.96568
1470345976121349,0.124989,0.704093,1.96599
1470345976143701,0.127099,0.705608,1.96671
1470345976164773,0.129053,0.706699,1.96707
1470345976181734,0.13017,0.707267,1.96676
1470345976203759,0.130272,0.707311,1.96619
1470345976224950,0.13108,0.707873,1.96637
1470345976240925,0.131794,0.708687,1.96628
1470345976263945,0.132051,0.709112,1.96597
1470345976284963,0.132092,0.709073,1.96602
1470345976301062,0.131851,0.708646,1.96541
1470345976324143,0.13109,0.708123,1.96497
1470345976345169,0.130185,0.707389,1.96464
1470345976361173,0.130185,0.707389,1.96464
1470345976384161,0.131037,0.707537,1.9651
1470345976406180,0.131027,0.706866,1.96471
1470345976421700,0.129835,0.705746,1.96419
1470345976443978,0.128569,0.705251,1.96371
1470345976465998,0.128363,0.704786,1.96361
1470345976481012,0.128256,0.704618,1.96392
1470345976504034,0.127828,0.704647,1.96413
1470345976526085,0.126966,0.704377,1.96388
1470345976549108,0.125646,0.703673,1.9633
1470345976564120,0.123614,0.702408,1.96235
1470345976586215,0.121312,0.701052,1.96183
1470345976601153,0.118987,0.699456,1.96173
1470345976624262,0.116726,0.697698,1.96197
1470345976646285,0.114914,0.695467,1.9631
1470345976660294,0.113387,0.69346,1.96506
1470345976683331,0.112794,0.691698,1.96746
1470345976706337,0.111711,0.689468,1.96937
1470345976721858,0.11037,0.687757,1.97007
1470345976744144,0.109002,0.686321,1.96978
1470345976772190,0.107654,0.685052,1.96939
1470345976780249,0.105842,0.684148,1.9688
1470345976804193,0.104325,0.683746,1.96817
1470345976826302,0.10369,0.68406,1.96783
1470345976840310,0.10396,0.684764,1.96765
1470345976863360,0.104214,0.685176,1.96732
1470345976886373,0.10424,0.685828,1.96677
1470345976900365,0.103863,0.68606,1.96608
1470345976923439,0.103395,0.686423,1.96586
1470345976946460,0.102798,0.686828,1.96582
1470345976967521,0.102405,0.687196,1.96584
1470345976983492,0.101463,0.686892,1.96573
1470345977006512,0.100483,0.686498,1.96532
1470345977027281,0.0990811,0.685936,1.96473
1470345977044258,0.0974695,0.68531,1.96386
1470345977066326,0.0967257,0.68516,1.96321
1470345977087333,0.0959089,0.685183,1.96269
1470345977103367,0.0953098,0.685284,1.96203
1470345977125861,0.0947636,0.685464,1.96121
1470345977147877,0.0944762,0.685864,1.96066
1470345977163890,0.0945114,0.685905,1.96086
1470345977185910,0.0945114,0.685905,1.96086
1470345977207931,0.0940155,0.685732,1.96043
1470345977223541,0.0933085,0.685799,1.96035
1470345977253835,0.0933485,0.685764,1.96039
1470345977267931,0.0928462,0.685794,1.96037
1470345977283863,0.0928462,0.685794,1.96037
1470345977305918,0.0930509,0.685757,1.96044
1470345977326946,0.0930509,0.685757,1.96044
1470345977343962,0.0930509,0.685757,1.96044
1470345977365992,0.0931277,0.685635,1.96042
1470345977387042,0.0935947,0.686428,1.96056
1470345977403017,0.0935947,0.686428,1.96056
1470345977426098,0.0935947,0.686428,1.96056
1470345977449119,0.0937227,0.686513,1.96064
1470345977471138,0.0945213,0.686617,1.96087
1470345977486152,0.0945613,0.686582,1.96092
1470345977509256,0.0946893,0.686667,1.961
1470345977523767,0.0957031,0.687102,1.9616
1470345977545969,0.0957031,0.687102,1.9616
1470345977568989,0.0962207,0.687366,1.96177
1470345977583050,0.0968668,0.687714,1.96203
1470345977606037,0.0975888,0.688066,1.96253
1470345977629171,0.0975888,0.688066,1.96253
1470345977643208,0.0983721,0.688003,1.96286
1470345977666214,0.0993948,0.68807,1.96371
1470345977689225,0.100422,0.68806,1.96441
1470345977703256,0.101555,0.688337,1.96504
1470345977726590,0.102203,0.688685,1.96531
1470345977748609,0.102203,0.688685,1.96531
1470345977763624,0.1026,0.68862,1.9659
1470345977786648,0.1026,0.68862,1.9659
1470345977808665,0.103303,0.688628,1.96614
1470345977823187,0.104216,0.688649,1.96655
1470345977846766,0.103539,0.688874,1.96591
1470345977868801,0.103328,0.689155,1.96534
1470345977889801,0.10378,0.690026,1.96509
1470345977906828,0.103861,0.690937,1.96475
1470345977928592,0.104018,0.691726,1.9644
1470345977949652,0.104135,0.692678,1.96426
1470345977966627,0.104272,0.693721,1.96387
1470345977988658,0.104295,0.694502,1.96358
1470345978010173,0.104964,0.695019,1.96375
1470345978026743,0.105017,0.695226,1.96385
1470345978048779,0.105146,0.695312,1.96393
1470345978069814,0.104928,0.695231,1.96407
1470345978086798,0.105004,0.695109,1.96405
1470345978108866,0.105004,0.695109,1.96405
1470345978130913,0.105004,0.695109,1.96405
1470345978145947,0.105134,0.695194,1.96414
1470345978168923,0.105992,0.695632,1.96473
1470345978189948,0.10698,0.696029,1.96515
1470345978206017,0.108009,0.696389,1.96562
1470345978229119,0.109053,0.696994,1.96615
1470345978250151,0.11085,0.697621,1.96707
1470345978266247,0.112234,0.698069,1.96735
1470345978289174,0.113391,0.698466,1.9678
1470345978310256,0.114229,0.698856,1.96775
1470345978326790,0.115122,0.699455,1.9678
1470345978348810,0.116916,0.700407,1.96839
1470345978371831,0.117851,0.700969,1.96849
1470345978386845,0.118974,0.701327,1.96876
1470345978408866,0.119721,0.701674,1.96882
1470345978430897,0.119893,0.701722,1.96896
1470345978446912,0.119893,0.701722,1.96896
1470345978468931,0.119893,0.701722,1.96896
1470345978490965,0.120336,0.701936,1.9688
1470345978505963,0.120987,0.702112,1.96872
1470345978529024,0.12039,0.702018,1.96865
1470345978551045,0.120912,0.702235,1.96873
1470345978566058,0.121681,0.702377,1.96894
1470345978589078,0.122372,0.702516,1.9689
1470345978611648,0.122991,0.702905,1.96914
1470345978626162,0.123198,0.702867,1.96921
1470345978649188,0.123273,0.702744,1.9692
1470345978671208,0.125216,0.702958,1.97021
1470345978692239,0.126835,0.703244,1.97087
1470345978710283,0.128272,0.703486,1.97186
1470345978731875,0.128758,0.703663,1.97175
1470345978752918,0.128833,0.70354,1.97174
1470345978768908,0.129408,0.703342,1.97165
1470345978790983,0.129625,0.703302,1.97126
1470345978805941,0.129766,0.703385,1.97089
1470345978829138,0.129747,0.703217,1.97098
1470345978859166,0.130459,0.703526,1.97086
1470345978872193,0.131033,0.703703,1.97054
1470345978889194,0.130469,0.703351,1.96958
1470345978911717,0.129967,0.702752,1.9688
1470345978932825,0.130217,0.702129,1.96833
1470345978948820,0.130176,0.701667,1.96826
1470345978971816,0.130317,0.701252,1.96786
1470345978992881,0.129534,0.700392,1.96715
1470345979008894,0.128835,0.699581,1.9668
1470345979031967,0.128703,0.699495,1.96671
1470345979052985,0.128703,0.699495,1.96671
1470345979069013,0.129322,0.699385,1.96692
1470345979091039,0.130273,0.699574,1.96681
1470345979112594,0.130399,0.699115,1.96676
1470345979129108,0.130399,0.699115,1.96676
1470345979151161,0.130399,0.699115,1.96676
1470345979172198,0.131456,0.69927,1.96739
1470345979189177,0.132608,0.699673,1.96832
1470345979211688,0.133495,0.69978,1.96881
1470345979232241,0.133193,0.699271,1.96882
1470345979249256,0.131611,0.698399,1.96808
1470345979271285,0.130686,0.697831,1.96751
1470345979300304,0.130191,0.697358,1.967
1470345979309310,0.130438,0.696909,1.96735
1470345979331365,0.130613,0.696706,1.96797
1470345979354384,0.130412,0.696492,1.96838
1470345979368425,0.130451,0.696454,1.96843
1470345979391459,0.131097,0.696805,1.96917
1470345979414447,0.132458,0.697216,1.97027
1470345979428461,0.132496,0.697256,1.97046
1470345979451482,0.132192,0.697872,1.96978
1470345979473503,0.132253,0.698206,1.96869
1470345979488516,0.132507,0.69888,1.96789
1470345979511536,0.132553,0.699669,1.96716
1470345979534579,0.131827,0.700112,1.96583
1470345979548591,0.130628,0.700576,1.96454
1470345979578618,0.129879,0.700725,1.96304
1470345979593631,0.129207,0.700955,1.96193
1470345979608644,0.127862,0.700708,1.96074
1470345979631793,0.126849,0.700137,1.96039
1470345979653812,0.125944,0.699531,1.96078
1470345979667895,0.125078,0.699512,1.9615
1470345979690893,0.124905,0.699761,1.96244
1470345979713923,0.125143,0.700234,1.96315
1470345979727464,0.124616,0.700267,1.96402
1470345979751936,0.124284,0.700267,1.96543
1470345979773955,0.123882,0.699939,1.96694
1470345979787966,0.12378,0.700323,1.96884
1470345979810991,0.123995,0.70076,1.97036
1470345979834034,0.124246,0.701112,1.97181
1470345979855141,0.124181,0.701211,1.97326
1470345979871070,0.124336,0.701394,1.97457
1470345979894086,0.124652,0.701825,1.97541
1470345979915183,0.124394,0.70228,1.97552
1470345979931200,0.123239,0.701879,1.97459
1470345979954222,0.121047,0.70112,1.97318
1470345979975242,0.119574,0.700417,1.97214
1470345979991256,0.118821,0.699718,1.97088
1470345980014364,0.118609,0.698778,1.96935
1470345980035427,0.117898,0.697495,1.96801
1470345980051437,0.116172,0.6962,1.96694
1470345980073475,0.114239,0.694498,1.96635
1470345980095465,0.112925,0.693435,1.9665
1470345980111502,0.112443,0.693261,1.96661
1470345980134326,0.112514,0.69351,1.96636
1470345980155347,0.111704,0.693652,1.96562
1470345980171354,0.110112,0.693905,1.96466
1470345980194374,0.108404,0.694317,1.96366
1470345980215400,0.106734,0.694691,1.96271
1470345980231429,0.104805,0.694895,1.96159
1470345980253448,0.103583,0.695235,1.96097
1470345980276469,0.102613,0.69513,1.96071
1470345980291485,0.102044,0.694834,1.96079
1470345980314008,0.101793,0.69442,1.96112
1470345980336548,0.10197,0.694225,1.96175
1470345980351560,0.101841,0.69414,1.96166
1470345980373579,0.101841,0.69414,1.96166
1470345980396602,0.102508,0.694656,1.96183
1470345980410614,0.10353,0.694968,1.96219
1470345980433644,0.103659,0.695053,1.96227
1470345980456666,0.10313,0.695159,1.96185
1470345980470678,0.102901,0.695274,1.96138
1470345980493699,0.102601,0.695013,1.96091
1470345980531741,0.102157,0.694753,1.96097
1470345980533744,0.102157,0.694753,1.96097
1470345980553762,0.102157,0.694753,1.96097
1470345980576783,0.102217,0.694463,1.96106
1470345980590794,0.102576,0.694181,1.9611
1470345980614324,0.103681,0.694,1.96168
1470345980636851,0.104176,0.693433,1.96205
1470345980650864,0.103762,0.692472,1.96223
1470345980673883,0.10301,0.691415,1.96216
1470345980696904,0.102017,0.690355,1.96183
1470345980711918,0.101727,0.689725,1.96161
1470345980739761,0.101804,0.689603,1.9616
1470345980756776,0.101225,0.689628,1.96133
1470345980777794,0.099955,0.689633,1.96037
1470345980793810,0.0988355,0.689344,1.95928
1470345980816835,0.097868,0.689063,1.95866
1470345980837388,0.0972136,0.689083,1.95816
1470345980854404,0.0964151,0.688851,1.95767
1470345980876423,0.0956202,0.68867,1.95729
1470345980897441,0.0947697,0.688357,1.95697
1470345980904447,0.0934339,0.688113,1.95627
1470345980919468,0.0919556,0.687618,1.95559
1470345980941993,0.0906233,0.687247,1.95464
1470345980964013,0.0898172,0.687382,1.95391
1470345980979025,0.0898523,0.687422,1.9541
1470345981002062,0.0898925,0.687387,1.95415
1470345981027590,0.090353,0.687521,1.95438
1470345981039090,0.0905208,0.68757,1.95451
1470345981062112,0.0914166,0.687428,1.95501
1470345981084132,0.0922751,0.687373,1.95558
1470345981102149,0.0924802,0.687336,1.95565
1470345981122171,0.0934202,0.68782,1.95611
1470345981144040,0.0948468,0.688235,1.95695
1470345981159068,0.0950519,0.688199,1.95702
1470345981189094,0.0956059,0.688377,1.95714
1470345981204085,0.0965078,0.688896,1.95756
1470345981219600,0.0968558,0.689238,1.95786
1470345981249819,0.0973874,0.689492,1.95758
1470345981264833,0.0975473,0.689911,1.95747
1470345981279847,0.0977186,0.690573,1.9574
1470345981304870,0.0983167,0.691329,1.95737
1470345981324407,0.0991085,0.691931,1.95762
1470345981339413,0.0991085,0.691931,1.95762
1470345981361431,0.0991855,0.691809,1.95761
1470345981384454,0.0991855,0.691809,1.95761
1470345981399482,0.100321,0.69209,1.95825
1470345981421991,0.100244,0.692212,1.95826
1470345981444054,0.100321,0.69209,1.95825
1470345981459065,0.100321,0.69209,1.95825
1470345981482074,0.101259,0.692037,1.95906
1470345981504093,0.101259,0.692037,1.95906
1470345981519616,0.102044,0.691975,1.9594
1470345981541400,0.103011,0.692206,1.95991
1470345981564421,0.104095,0.692405,1.96071
1470345981580405,0.104095,0.692405,1.96071
1470345981602435,0.105139,0.692513,1.96121
1470345981641553,0.105268,0.692598,1.96129
1470345981643552,0.105268,0.692598,1.96129
1470345981661567,0.105308,0.692562,1.96134
1470345981684589,0.105308,0.692562,1.96134
1470345981699601,0.105437,0.692647,1.96142
1470345981722141,0.105115,0.692717,1.96107
1470345981754285,0.104881,0.692343,1.96104
1470345981760308,0.10501,0.692428,1.96113
1470345981782311,0.10501,0.692428,1.96113
1470345981804358,0.104864,0.692176,1.96114
1470345981820926,0.104864,0.692176,1.96114
1470345981842495,0.104864,0.692176,1.96114
1470345981864524,0.104606,0.692005,1.96098
1470345981880481,0.104642,0.692045,1.96117
1470345981901501,0.104642,0.692045,1.96117
1470345981924508,0.10442,0.691789,1.96094
1470345981941338,0.10442,0.691789,1.96094
1470345981961356,0.10442,0.691789,1.96094
1470345981984402,0.104589,0.691838,1.96107
1470345982000389,0.104109,0.691537,1.96094
1470345982021930,0.104109,0.691537,1.96094
1470345982044147,0.104543,0.691386,1.96147
1470345982061147,0.105053,0.691113,1.96199
1470345982083192,0.105258,0.691202,1.96232
1470345982104189,0.105258,0.691202,1.96232
1470345982121207,0.105222,0.691162,1.96212
1470345982141752,0.105258,0.691202,1.96232
1470345982164768,0.106119,0.691143,1.96289
1470345982188790,0.1065,0.69091,1.96358
1470345982201846,0.1065,0.69091,1.96358
1470345982224829,0.1065,0.69091,1.96358
1470345982242898,0.105882,0.691441,1.96324
1470345982261920,0.105952,0.691942,1.9635
1470345982283910,0.106003,0.692569,1.96346
1470345982301924,0.105774,0.692684,1.963
1470345982322054,0.105412,0.69279,1.96259
1470345982344121,0.104683,0.692857,1.96195
1470345982362095,0.104606,0.692979,1.96197
1470345982382115,0.104736,0.693064,1.96205
1470345982404133,0.104325,0.693139,1.96191
1470345982422730,0.103844,0.692838,1.96177
1470345982442211,0.103973,0.692923,1.96186
1470345982464231,0.103456,0.692709,1.96178
1470345982482246,0.102847,0.69245,1.96182
1470345982502264,0.102847,0.69245,1.96182
1470345982525810,0.102847,0.69245,1.96182
1470345982542381,0.102847,0.69245,1.96182
1470345982561454,0.103569,0.692627,1.96196
1470345982584418,0.103609,0.692591,1.96201
1470345982602437,0.103609,0.692591,1.96201
1470345982638482,0.103738,0.692676,1.96209
1470345982644488,0.103738,0.692676,1.96209
1470345982662513,0.103738,0.692676,1.96209
1470345982681545,0.104806,0.69258,1.96273
1470345982704539,0.105944,0.692985,1.96363
1470345982722593,0.107288,0.693226,1.96435
1470345982743164,0.108748,0.693308,1.9651
1470345982764163,0.10946,0.693073,1.96583
1470345982782179,0.110456,0.693021,1.96635
1470345982803197,0.112977,0.693579,1.96791
1470345982824760,0.115578,0.694433,1.96933
1470345982842315,0.116116,0.694815,1.96932
1470345982863333,0.114974,0.694538,1.96867
1470345982884378,0.114916,0.694828,1.96859
1470345982902368,0.115927,0.695517,1.96918
1470345982923394,0.11679,0.696374,1.96965
1470345982944521,0.116921,0.69646,1.96973
1470345982962482,0.117051,0.696545,1.96982
1470345982983502,0.117091,0.696508,1.96987
1470345983004521,0.117222,0.696593,1.96995
1470345983022614,0.117935,0.696651,1.97031
1470345983042944,0.119708,0.696809,1.97072
1470345983063965,0.121167,0.696715,1.97111
1470345983081979,0.121969,0.69677,1.97125
1470345983105003,0.12357,0.696756,1.97128
1470345983124628,0.125117,0.696661,1.97146
1470345983142146,0.12749,0.696541,1.97218
1470345983165168,0.129805,0.696588,1.97257
1470345983192275,0.131256,0.696325,1.97261
1470345983202201,0.132704,0.695939,1.97239
1470345983225228,0.132322,0.695463,1.97074
1470345983247197,0.130318,0.694203,1.96888
1470345983262210,0.129483,0.693512,1.96785
1470345983285252,0.13041,0.693409,1.96757
1470345983304262,0.129975,0.693145,1.96716
1470345983322840,0.128845,0.692864,1.96605
1470345983344974,0.128112,0.692886,1.96529
1470345983363991,0.127981,0.692801,1.96521
1470345983382007,0.128621,0.693527,1.96571
1470345983406030,0.129901,0.694559,1.96684
1470345983424559,0.130338,0.695322,1.96728
1470345983441574,0.130312,0.6957,1.96796
1470345983463593,0.130918,0.69609,1.96865
1470345983484614,0.131089,0.696137,1.96878
1470345983501627,0.130282,0.696032,1.96853
1470345983524178,0.128954,0.695709,1.96819
1470345983544739,0.128397,0.695575,1.96816
1470345983561737,0.128397,0.695575,1.96816
1470345983583761,0.127535,0.695262,1.96781
1470345983604832,0.126692,0.695117,1.96737
1470345983621853,0.127049,0.695458,1.96768
1470345983643884,0.127858,0.696186,1.96821
1470345983664896,0.127916,0.696814,1.96819
1470345983680930,0.127217,0.697173,1.96725
1470345983703930,0.126707,0.697949,1.96675
1470345983725456,0.127678,0.698929,1.96682
1470345983740974,0.128593,0.699202,1.96676
1470345983763996,0.128724,0.699288,1.96685
1470345983785070,0.128724,0.699288,1.96685
1470345983801033,0.128984,0.699335,1.96677
1470345983824144,0.130634,0.699541,1.96736
1470345983845253,0.132137,0.699913,1.96784
1470345983861224,0.132775,0.699971,1.96797
1470345983884247,0.132775,0.699971,1.96797
1470345983905319,0.132775,0.699971,1.96797
1470345983921800,0.132775,0.699971,1.96797
1470345983943404,0.132906,0.700057,1.96805
1470345983966399,0.131891,0.699988,1.96772
1470345983981458,0.131891,0.699988,1.96772
1470345984003450,0.131891,0.699988,1.96772
1470345984025509,0.131877,0.699866,1.96792
1470345984041602,0.131708,0.699443,1.96802
1470345984063602,0.131747,0.699404,1.96807
1470345984086625,0.131879,0.69949,1.96816
1470345984101637,0.131879,0.69949,1.96816
1470345984124208,0.133181,0.699648,1.96905
1470345984146757,0.133853,0.699622,1.96911
1470345984160775,0.132231,0.698788,1.96832
1470345984183789,0.130506,0.698206,1.96771
1470345984206810,0.130735,0.698087,1.96818
1470345984220849,0.130867,0.698173,1.96827
1470345984243522,0.130589,0.697583,1.96867
1470345984266542,0.130274,0.696953,1.96889
1470345984280525,0.129787,0.696651,1.96874
1470345984303634,0.129055,0.696423,1.96847
1470345984326570,0.128009,0.695567,1.96842
1470345984341103,0.128009,0.695567,1.96842
1470345984364125,0.12885,0.695588,1.96861
1470345984386143,0.128701,0.695832,1.96864
1470345984401157,0.12788,0.695108,1.96856
1470345984424184,0.127287,0.694265,1.96896
1470345984446845,0.128038,0.69399,1.96974
1470345984460856,0.128662,0.693676,1.97055
1470345984483879,0.129361,0.693364,1.9716
1470345984505910,0.130224,0.692555,1.97264
1470345984528952,0.131409,0.692169,1.97407
1470345984543486,0.133659,0.691682,1.97615
1470345984573559,0.137216,0.691016,1.979
1470345984587577,0.141927,0.690113,1.98303
1470345984603591,0.147972,0.688731,1.98835
1470345984626559,0.15495,0.686356,1.99475
1470345984647630,0.160828,0.682701,2.00071
1470345984663649,0.164177,0.676738,2.00464
1470345984686653,0.162926,0.667813,2.00446
1470345984707642,0.157802,0.656493,2.00138
1470345984724188,0.149795,0.643635,1.99555
1470345984746729,0.140311,0.630009,1.9873
1470345984767814,0.131087,0.614234,1.97834
1470345984783759,0.120755,0.595522,1.96838
1470345984806781,0.107081,0.57377,1.95653
1470345984827905,0.0911475,0.550281,1.94504
1470345984857933,0.0759892,0.526901,1.93485
1470345984865992,0.0638084,0.504147,1.92524
1470345984888050,0.0548808,0.480996,1.91723
1470345984903974,0.0460599,0.456579,1.91009
1470345984927044,0.0361736,0.430687,1.90342
1470345984947592,0.0263601,0.404346,1.89808
1470345984963603,0.0193395,0.378205,1.89417
1470345984986624,0.0145295,0.351964,1.89184
1470345985008644,0.0116264,0.325784,1.89044
1470345985023718,0.010302,0.299594,1.88877
1470345985046101,0.00749562,0.270872,1.88781
1470345985069122,0.00232616,0.240751,1.88716
1470345985083135,-0.00108437,0.210301,1.8858
1470345985106155,-0.0017798,0.180287,1.88524
1470345985129231,-0.00399034,0.150214,1.88542
1470345985143278,-0.00615459,0.120687,1.88507
1470345985166296,-0.00838517,0.0912762,1.88441
1470345985189315,-0.0103093,0.0614957,1.88393
1470345985210381,-0.010979,0.0329266,1.88335
1470345985226397,-0.00817113,0.00582698,1.88233
1470345985249448,-0.00280867,-0.02079,1.88042
1470345985270523,0.0146691,-0.0440655,1.87364
1470345985286504,0.0245075,-0.0684031,1.87069
1470345985309502,0.0324199,-0.0903796,1.86993
1470345985330577,0.0426367,-0.109345,1.8677
1470345985347397,0.0492794,-0.128829,1.86619
1470345985368415,0.0524882,-0.146773,1.86522
1470345985390434,0.0637097,-0.159522,1.86595
1470345985406450,0.0793612,-0.168061,1.86836
1470345985429479,0.0895135,-0.177789,1.87168
1470345985450501,0.0979242,-0.18869,1.87357
1470345985466518,0.107483,-0.199851,1.87487
1470345985488553,0.118511,-0.210135,1.87729
1470345985510556,0.128183,-0.218817,1.87952
1470345985526602,0.132247,-0.225964,1.88027
1470345985548424,0.126302,-0.23167,1.88011
1470345985570476,0.117419,-0.23655,1.88115
1470345985586436,0.11095,-0.241056,1.88253
1470345985608456,0.102878,-0.247866,1.88542
1470345985630481,0.092632,-0.256346,1.88859
1470345985646514,0.0838745,-0.264342,1.89157
1470345985668552,0.0752601,-0.27229,1.89516
1470345985690554,0.0713331,-0.280148,1.89737
1470345985706568,0.0736242,-0.287606,1.90031
1470345985729107,0.085808,-0.293866,1.903
1470345985749685,0.105757,-0.299088,1.90266
1470345985766660,0.123554,-0.305858,1.90369
1470345985788679,0.138253,-0.311811,1.90433
1470345985809699,0.149765,-0.317737,1.90566
1470345985826718,0.155112,-0.324195,1.90722
1470345985856771,0.158407,-0.330731,1.90872
1470345985869816,0.162855,-0.33661,1.9103
1470345985885823,0.169327,-0.342347,1.91111
1470345985908832,0.176708,-0.347333,1.91153
1470345985930402,0.183152,-0.351726,1.91281
1470345985945914,0.187932,-0.355882,1.91461
1470345985968987,0.191805,-0.359943,1.91619
1470345985991955,0.194207,-0.363161,1.91752
1470345986005968,0.196535,-0.365367,1.91869
1470345986029536,0.199253,-0.36747,1.91981
1470345986051129,0.20171,-0.369314,1.92066
1470345986066131,0.203415,-0.371048,1.92112
1470345986089153,0.203647,-0.372101,1.92132
1470345986111135,0.203299,-0.372519,1.92094
1470345986132760,0.203342,-0.372497,1.92007
1470345986149311,0.203279,-0.372574,1.91939
1470345986171300,0.201912,-0.372766,1.91881
1470345986185362,0.200245,-0.372233,1.91793
1470345986209329,0.19867,-0.371504,1.9174
1470345986231854,0.197547,-0.370924,1.91666
1470345986245401,0.196025,-0.370761,1.91563
1470345986269423,0.194655,-0.370231,1.91424
1470345986291451,0.194778,-0.369563,1.91238
1470345986305454,0.196597,-0.369602,1.91136
1470345986329556,0.19875,-0.370436,1.91053
1470345986351267,0.200172,-0.37101,1.90948
1470345986366282,0.200959,-0.371281,1.90836
1470345986389301,0.201513,-0.371719,1.90749
1470345986411370,0.200852,-0.372786,1.90709
1470345986425847,0.199676,-0.373328,1.90676
1470345986448871,0.198789,-0.372891,1.90606
1470345986471892,0.197984,-0.372231,1.90492
1470345986492912,0.196325,-0.37141,1.9044
1470345986508925,0.195003,-0.37035,1.90362
1470345986531485,0.193804,-0.369041,1.90282
1470345986553022,0.192404,-0.36727,1.90213
1470345986569036,0.19111,-0.365402,1.90125
1470345986591136,0.189298,-0.363624,1.90037
1470345986613076,0.186719,-0.361438,1.89949
1470345986629642,0.18466,-0.359051,1.89835
1470345986651166,0.182274,-0.357063,1.89727
1470345986673187,0.179862,-0.354959,1.89594
1470345986689203,0.177326,-0.352785,1.89422
1470345986711223,0.174586,-0.350766,1.89254
1470345986732759,0.172415,-0.348993,1.89123
1470345986749276,0.170919,-0.3473,1.8904
1470345986771351,0.169706,-0.345428,1.88909
1470345986792362,0.167059,-0.3432,1.88759
1470345986809329,0.164116,-0.340567,1.88605
1470345986831853,0.161036,-0.338483,1.88485
1470345986853054,0.157581,-0.336818,1.88395
1470345986869015,0.154539,-0.335024,1.8828
1470345986891034,0.1517,-0.332346,1.88126
1470345986914054,0.148661,-0.329957,1.8802
1470345986929574,0.144214,-0.328268,1.87877
1470345986951228,0.138725,-0.326314,1.87711
1470345986974244,0.132884,-0.323591,1.87432
1470345986988260,0.128699,-0.32027,1.87159
1470345987011324,0.12463,-0.318227,1.86988
1470345987034334,0.120072,-0.316136,1.86737
1470345987048866,0.115418,-0.312835,1.86303
1470345987071891,0.111051,-0.307781,1.85902
1470345987093906,0.10545,-0.303721,1.85634
1470345987107976,0.100522,-0.300568,1.85358
1470345987132005,0.0959472,-0.296908,1.8501
1470345987154032,0.0903097,-0.291185,1.84539
1470345987175106,0.0855683,-0.285072,1.84157
1470345987191158,0.079622,-0.280551,1.839
1470345987214086,0.0733529,-0.27664,1.8365
1470345987235190,0.0664932,-0.271373,1.8329
1470345987251784,0.061358,-0.264339,1.82913
1470345987273810,0.0549303,-0.258543,1.82669
1470345987294816,0.0473908,-0.253767,1.82432
1470345987311804,0.0406094,-0.248767,1.82183
1470345987334335,0.0358535,-0.243589,1.81919
1470345987355413,0.0322151,-0.238951,1.81708
1470345987371371,0.0277262,-0.234646,1.81494
1470345987394393,0.0229928,-0.230413,1.81263
1470345987415413,0.0197064,-0.226449,1.81024
1470345987431533,0.0166823,-0.223945,1.80862
1470345987461128,0.0130913,-0.221735,1.8071
1470345987475142,0.0101415,-0.219172,1.80566
1470345987491158,0.0086551,-0.216526,1.80448
1470345987521187,0.00587695,-0.215492,1.80383
1470345987535222,0.00237242,-0.215502,1.80303
1470345987552296,-0.000517932,-0.215338,1.80251
1470345987574314,-0.00370965,-0.215227,1.80225
1470345987595362,-0.00858109,-0.216398,1.80078
1470345987611364,-0.0156774,-0.217841,1.79707
1470345987634408,-0.0315805,-0.221127,1.79523
1470345987654997,-0.0464441,-0.222632,1.79532
1470345987670969,-0.0519985,-0.221323,1.79472
1470345987694040,-0.051485,-0.219218,1.79312
1470345987715009,-0.0529566,-0.218728,1.79111
1470345987731538,-0.0597307,-0.219143,1.79117
1470345987754066,-0.0668722,-0.218083,1.79282
1470345987775083,-0.0682412,-0.214388,1.79477
1470345987791099,-0.0621778,-0.208722,1.79648
1470345987814118,-0.0549702,-0.201787,1.79871
1470345987836648,-0.0523776,-0.194344,1.80253
1470345987851163,-0.0520248,-0.185313,1.80729
1470345987874185,-0.0468338,-0.174317,1.81285
1470345987896204,-0.0357373,-0.161623,1.81994
1470345987911217,-0.0221156,-0.148904,1.82835
1470345987934294,-0.0103958,-0.136839,1.83802
1470345987956408,-0.000616672,-0.126203,1.84955
1470345987971419,0.00891932,-0.116799,1.86296
1470345987994442,0.0212709,-0.107193,1.87779
1470345988016459,0.0368017,-0.0973619,1.89448
1470345988030991,0.0535882,-0.0880736,1.91346
1470345988053597,0.0682075,-0.0800069,1.93465
1470345988076563,0.0824949,-0.0729124,1.95676
1470345988097657,0.101106,-0.0678181,1.97906
1470345988113595,0.123707,-0.0649251,2.00192
1470345988136664,0.147834,-0.0631857,2.0261
1470345988157722,0.171729,-0.062986,2.05073
1470345988174687,0.19685,-0.065461,2.07415
1470345988202757,0.220795,-0.0689522,2.09614
1470345988217722,0.239194,-0.0766649,2.11683
1470345988234296,0.251752,-0.087112,2.13519
1470345988256821,0.2641,-0.0990217,2.15136
1470345988277868,0.277138,-0.110794,2.16692
1470345988293912,0.287659,-0.120998,2.18293
1470345988316874,0.295388,-0.128224,2.19848
1470345988337973,0.298809,-0.136816,2.21033
1470345988354491,0.294887,-0.1497,2.21981
1470345988376512,0.291103,-0.162204,2.22845
1470345988397547,0.295904,-0.1715,2.23702
1470345988414546,0.307899,-0.178866,2.24467
1470345988437071,0.318394,-0.184207,2.25072
1470345988459123,0.319053,-0.190422,2.25432
1470345988474109,0.315221,-0.196137,2.25615
1470345988496129,0.315415,-0.199465,2.25574
1470345988519151,0.320404,-0.199765,2.25306
1470345988534238,0.325376,-0.198564,2.24709
1470345988556318,0.325362,-0.197313,2.23753
1470345988577375,0.317389,-0.197325,2.22515
1470345988594340,0.302699,-0.197633,2.21246
1470345988616403,0.291863,-0.194861,2.19988
1470345988637934,0.28724,-0.188981,2.18618
1470345988654034,0.283635,-0.181902,2.16937
1470345988676093,0.269827,-0.176774,2.15149
1470345988683140,0.250559,-0.171285,2.13478
1470345988704078,0.233086,-0.165206,2.11903
1470345988719169,0.220914,-0.159224,2.1026
1470345988741689,0.212175,-0.152073,2.08469
1470345988764762,0.203857,-0.143235,2.06724
1470345988779702,0.200457,-0.13353,2.04931
1470345988801760,0.197772,-0.126067,2.03051
1470345988824806,0.185458,-0.12251,2.01235
1470345988839258,0.165604,-0.119557,1.9958
1470345988862356,0.154764,-0.114097,1.97831
1470345988884466,0.153287,-0.108602,1.96056
1470345988900433,0.152624,-0.105586,1.94464
1470345988922410,0.143506,-0.105092,1.93211
1470345988944997,0.133818,-0.10442,1.92154
1470345988962013,0.129609,-0.103177,1.91147
1470345988982086,0.130818,-0.100969,1.90132
1470345989004104,0.132356,-0.0985399,1.89228
1470345989021066,0.129939,-0.0965918,1.88546
1470345989042215,0.128311,-0.0938016,1.87954
1470345989064210,0.130855,-0.0888574,1.87343
1470345989081231,0.136639,-0.0824162,1.86776
1470345989102308,0.141363,-0.0761357,1.86318
1470345989132852,0.144503,-0.0695323,1.85999
1470345989141354,0.148781,-0.0613272,1.85768
1470345989162389,0.155227,-0.0526841,1.85495
