timestamp,x,y,z,w
1470263018295485,-0.216553,0.226563,-0.56012,0.766846
1470263018318005,-0.21698,0.2276,-0.559814,0.766602
1470263018339524,-0.217041,0.228333,-0.559509,0.766602
1470263018363045,-0.216858,0.228882,-0.559143,0.766785
1470263018378059,-0.216797,0.229492,-0.558899,0.766785
1470263018399078,-0.216675,0.230225,-0.558716,0.766724
1470263018415593,-0.217285,0.231323,-0.558472,0.766418
1470263018438113,-0.218628,0.232788,-0.558228,0.765747
1470263018466638,-0.219421,0.233704,-0.557983,0.765442
1470263018475647,-0.219727,0.234314,-0.557739,0.76532
1470263018498167,-0.219788,0.234741,-0.557556,0.76532
1470263018519186,-0.219849,0.235046,-0.557617,0.765198
1470263018535700,-0.219849,0.235535,-0.557617,0.765015
1470263018558221,-0.220947,0.23645,-0.557312,0.764648
1470263018579240,-0.221985,0.237244,-0.557129,0.764221
1470263018595754,-0.222473,0.237976,-0.557007,0.763977
1470263018618274,-0.222473,0.238403,-0.557007,0.763794
1470263018639293,-0.222656,0.239136,-0.557007,0.76355
1470263018655808,-0.22345,0.240173,-0.556885,0.763062
1470263018678328,-0.224243,0.24115,-0.556824,0.762573
1470263018700849,-0.224854,0.242126,-0.556763,0.762146
1470263018715862,-0.225342,0.243408,-0.556641,0.761658
1470263018744388,-0.225769,0.244568,-0.55658,0.761169
1470263018760402,-0.226196,0.245422,-0.556641,0.760742
1470263018775915,-0.226746,0.246155,-0.55658,0.760376
1470263018797936,-0.227356,0.246704,-0.556641,0.76001
1470263018820957,-0.228027,0.247009,-0.556641,0.759644
1470263018835970,-0.228516,0.24707,-0.556824,0.759399
1470263018857990,-0.229187,0.247009,-0.557068,0.759033
1470263018880510,-0.229553,0.246643,-0.557495,0.758728
1470263018895023,-0.22998,0.24646,-0.557922,0.758362
1470263018918044,-0.230042,0.246033,-0.558472,0.758057
1470263018940564,-0.229797,0.245544,-0.559387,0.757629
1470263018955077,-0.229797,0.245117,-0.560486,0.756958
1470263018978099,-0.23053,0.244934,-0.561707,0.755859
1470263019000618,-0.231812,0.245056,-0.562866,0.754578
1470263019015130,-0.233032,0.2453,-0.563904,0.753357
1470263019038151,-0.233887,0.24585,-0.564575,0.75238
1470263019060672,-0.233643,0.246338,-0.565125,0.751892
1470263019075184,-0.233276,0.246643,-0.565552,0.751587
1470263019098205,-0.232971,0.246765,-0.566101,0.751221
1470263019120726,-0.231628,0.24646,-0.567017,0.751099
1470263019134738,-0.229858,0.246033,-0.56781,0.75116
1470263019158259,-0.228821,0.245911,-0.568237,0.751221
1470263019180780,-0.228821,0.245911,-0.568176,0.751221
1470263019201799,-0.22876,0.245911,-0.568176,0.751221
1470263019218314,-0.228455,0.24585,-0.56842,0.75116
1470263019240834,-0.227783,0.245605,-0.568665,0.751221
1470263019261852,-0.226746,0.2453,-0.56897,0.751465
1470263019278367,-0.225708,0.244995,-0.569336,0.751587
1470263019300387,-0.224976,0.244873,-0.56958,0.751648
1470263019321906,-0.224304,0.244629,-0.569763,0.75177
1470263019338421,-0.224243,0.24469,-0.569763,0.75177
1470263019366947,-0.224243,0.24469,-0.569763,0.75177
1470263019381960,-0.224243,0.24469,-0.569763,0.75177
1470263019397975,-0.224243,0.24469,-0.569763,0.75177
1470263019420495,-0.224182,0.24469,-0.569763,0.75177
1470263019442013,-0.224182,0.244751,-0.569763,0.751831
1470263019458028,-0.224121,0.244751,-0.569763,0.751831
1470263019480549,-0.224121,0.244751,-0.569763,0.751831
1470263019501568,-0.223816,0.244568,-0.569824,0.751892
1470263019508574,-0.223755,0.244568,-0.569885,0.751892
1470263019523587,-0.223755,0.244568,-0.569885,0.751892
1470263019546107,-0.223755,0.244568,-0.569824,0.751892
1470263019568627,-0.223389,0.244507,-0.569885,0.752014
1470263019583641,-0.223389,0.244507,-0.569885,0.752014
1470263019606162,-0.223145,0.244324,-0.569885,0.752136
1470263019628682,-0.223206,0.244141,-0.569885,0.752197
1470263019643695,-0.223083,0.243896,-0.569946,0.752258
1470263019666216,-0.222656,0.243713,-0.570068,0.75238
1470263019688736,-0.222168,0.243408,-0.57019,0.752502
1470263019703749,-0.22168,0.243103,-0.570313,0.752625
1470263019726269,-0.221069,0.242798,-0.570435,0.752808
1470263019748789,-0.220642,0.242493,-0.570496,0.752991
1470263019763802,-0.220276,0.242249,-0.570557,0.753174
1470263019786322,-0.219788,0.242004,-0.570618,0.753296
1470263019808843,-0.219177,0.241638,-0.57074,0.75354
1470263019823856,-0.218811,0.241394,-0.570801,0.753662
1470263019846377,-0.218445,0.24115,-0.570801,0.753845
1470263019868397,-0.218079,0.240906,-0.570862,0.754028
1470263019883410,-0.217957,0.240723,-0.570801,0.75415
1470263019905931,-0.217896,0.240723,-0.570801,0.75415
1470263019928451,-0.218018,0.240784,-0.570801,0.754089
1470263019943465,-0.218018,0.240784,-0.570801,0.75415
1470263019966001,-0.218201,0.240723,-0.57074,0.75415
1470263019988531,-0.218628,0.240723,-0.570618,0.754089
1470263020005019,-0.219177,0.240845,-0.570374,0.754028
1470263020026040,-0.219177,0.240845,-0.570374,0.754028
1470263020048560,-0.219177,0.240845,-0.570374,0.754028
1470263020063572,-0.219177,0.240845,-0.570374,0.754028
1470263020086105,-0.218933,0.240723,-0.570374,0.75415
1470263020108685,-0.218872,0.240723,-0.570374,0.75415
1470263020131134,-0.218872,0.240723,-0.570374,0.754211
1470263020146146,-0.218811,0.240723,-0.570374,0.754211
1470263020170168,-0.218811,0.240723,-0.570374,0.754211
1470263020183680,-0.218689,0.240601,-0.570374,0.754272
1470263020206200,-0.218262,0.240417,-0.570496,0.754395
1470263020228720,-0.217834,0.240295,-0.570557,0.754456
1470263020245235,-0.217407,0.240112,-0.570679,0.754578
1470263020266253,-0.21698,0.239807,-0.570801,0.7547
1470263020288774,-0.216492,0.239563,-0.570862,0.754883
1470263020305289,-0.216309,0.23938,-0.570923,0.754944
1470263020326308,-0.216248,0.239441,-0.570923,0.754944
1470263020348828,-0.216309,0.239319,-0.570801,0.755066
1470263020364843,-0.216309,0.239319,-0.570801,0.755066
1470263020386363,-0.216309,0.239319,-0.570801,0.755066
1470263020408382,-0.215942,0.239136,-0.570923,0.755127
1470263020424896,-0.215698,0.238953,-0.571045,0.755188
1470263020445916,-0.215515,0.23877,-0.571106,0.755188
1470263020468956,-0.21521,0.238647,-0.571228,0.755249
1470263020484950,-0.21521,0.238647,-0.571167,0.75531
1470263020505985,-0.214966,0.238464,-0.571228,0.755371
1470263020528489,-0.214783,0.23822,-0.571228,0.755493
1470263020545005,-0.214722,0.23822,-0.571228,0.755493
1470263020566023,-0.214722,0.23822,-0.571289,0.755493
1470263020588544,-0.214722,0.23822,-0.571289,0.755554
1470263020606561,-0.214661,0.23822,-0.571289,0.755554
1470263020626076,-0.214661,0.238159,-0.571289,0.755554
1470263020648610,-0.214661,0.238159,-0.571289,0.755554
1470263020666620,-0.214661,0.238159,-0.571289,0.755554
1470263020686147,-0.214355,0.238098,-0.57135,0.755615
1470263020708681,-0.214294,0.238098,-0.57135,0.755615
1470263020726668,-0.214294,0.238098,-0.57135,0.755615
1470263020746236,-0.214294,0.238098,-0.57135,0.755615
1470263020768705,-0.214233,0.238098,-0.57135,0.755615
1470263020787722,-0.214172,0.238098,-0.57135,0.755676
1470263020806239,-0.214172,0.238098,-0.57135,0.755676
1470263020828758,-0.214172,0.238098,-0.57135,0.755676
1470263020846275,-0.214111,0.238098,-0.57135,0.755676
1470263020866292,-0.214111,0.238098,-0.571289,0.755676
1470263020888812,-0.213806,0.237976,-0.571411,0.755737
1470263020906329,-0.213745,0.237976,-0.571411,0.755737
1470263020926346,-0.213745,0.237976,-0.571411,0.755737
1470263020948867,-0.213745,0.237976,-0.571411,0.755798
1470263020966385,-0.213684,0.237976,-0.571411,0.755798
1470263020986400,-0.213684,0.237976,-0.571411,0.755798
1470263021008420,-0.213623,0.237976,-0.571411,0.755798
1470263021026436,-0.213623,0.237976,-0.571411,0.755798
1470263021045955,-0.213623,0.237976,-0.57135,0.755798
1470263021068477,-0.213562,0.237976,-0.57135,0.755798
1470263021086492,-0.213501,0.237976,-0.571411,0.755859
1470263021106009,-0.213623,0.237976,-0.57135,0.755859
1470263021128529,-0.213989,0.238159,-0.571167,0.755798
1470263021146545,-0.214661,0.238281,-0.571045,0.755676
1470263021166062,-0.215454,0.238281,-0.570862,0.755615
1470263021188584,-0.216797,0.238281,-0.570557,0.755432
1470263021206601,-0.219421,0.238831,-0.569824,0.755066
1470263021227618,-0.223755,0.239929,-0.568604,0.754333
1470263021248639,-0.22998,0.241638,-0.566772,0.753296
1470263021266656,-0.237061,0.245239,-0.564697,0.751526
1470263021287673,-0.244324,0.251038,-0.5625,0.748901
1470263021308715,-0.250671,0.257996,-0.560791,0.745728
1470263021326706,-0.255554,0.266663,-0.559692,0.741821
1470263021349296,-0.250916,0.271851,-0.563049,0.739014
1470263021368826,-0.236084,0.27771,-0.567261,0.738464
1470263021386788,-0.220764,0.288147,-0.570435,0.736755
1470263021407778,-0.205627,0.301758,-0.575073,0.732056
1470263021428798,-0.1922,0.320068,-0.57782,0.725769
1470263021446815,-0.17749,0.341064,-0.577576,0.720093
1470263021467833,-0.160339,0.362549,-0.578369,0.713013
1470263021488852,-0.138306,0.382813,-0.580017,0.705566
1470263021506371,-0.112244,0.4021,-0.582764,0.697205
1470263021527387,-0.0844727,0.421692,-0.58551,0.687195
1470263021549045,-0.0574951,0.442688,-0.58667,0.675659
1470263021567026,-0.0326538,0.464966,-0.585571,0.663208
1470263021589519,-0.010376,0.487915,-0.582214,0.650269
1470263021608474,0.00970459,0.511047,-0.577087,0.636902
1470263021626475,0.0281982,0.533142,-0.571289,0.623352
1470263021648996,0.0459595,0.553589,-0.565918,0.609192
1470263021668512,0.0630493,0.572266,-0.561157,0.594604
1470263021694102,0.0786743,0.588745,-0.557007,0.580444
1470263021709050,0.0900269,0.60199,-0.554199,0.567749
1470263021728585,0.100708,0.609497,-0.553833,0.558228
1470263021746639,0.110352,0.614075,-0.553711,0.551453
1470263021769104,0.115479,0.619202,-0.552673,0.545654
1470263021796129,0.119019,0.624573,-0.551086,0.540405
1470263021806636,0.12262,0.628723,-0.550598,0.535217
1470263021829177,0.126953,0.631775,-0.55127,0.529907
1470263021848734,0.131531,0.634155,-0.552612,0.524536
1470263021865690,0.135742,0.636169,-0.55365,0.519897
1470263021888214,0.13916,0.638245,-0.553833,0.516296
1470263021909243,0.141418,0.640564,-0.552979,0.513672
1470263021925744,0.142578,0.642822,-0.551697,0.511902
1470263021948277,0.143066,0.644348,-0.551025,0.510559
1470263021969282,0.14325,0.644775,-0.551208,0.509827
1470263021985797,0.143188,0.644287,-0.551819,0.509644
1470263022008318,0.1427,0.643616,-0.552368,0.510132
1470263022029443,0.141602,0.643127,-0.552429,0.510986
1470263022045852,0.139771,0.642761,-0.552612,0.51178
1470263022068372,0.138123,0.641907,-0.553345,0.512451
1470263022089391,0.137146,0.640686,-0.554443,0.513123
1470263022105906,0.13623,0.639343,-0.555359,0.513977
1470263022128426,0.135315,0.638306,-0.555847,0.515076
1470263022149449,0.134216,0.637695,-0.55603,0.515869
1470263022165461,0.133301,0.636963,-0.556519,0.516479
1470263022187979,0.133057,0.636047,-0.557312,0.516785
1470263022209498,0.133118,0.635132,-0.558167,0.516968
1470263022225513,0.133362,0.63446,-0.558777,0.51709
1470263022248034,0.133362,0.633972,-0.559082,0.517334
1470263022269052,0.133301,0.633911,-0.559143,0.517395
1470263022285568,0.133362,0.633545,-0.559326,0.517578
1470263022308088,0.133545,0.632996,-0.559692,0.517822
1470263022329106,0.133728,0.632446,-0.560059,0.518127
1470263022345621,0.13385,0.63208,-0.560181,0.518372
1470263022368141,0.134033,0.631897,-0.560181,0.518555
1470263022393664,0.134033,0.631836,-0.560181,0.518555
1470263022407178,0.134155,0.631714,-0.560181,0.518738
1470263022428195,0.134338,0.631714,-0.559937,0.518921
1470263022449213,0.134338,0.631836,-0.559814,0.518921
1470263022465228,0.134644,0.631775,-0.559326,0.519409
1470263022488249,0.133118,0.630859,-0.559998,0.520203
1470263022510790,0.134033,0.630493,-0.559875,0.520569
1470263022526283,0.134033,0.630859,-0.559875,0.520142
1470263022548303,0.134155,0.630371,-0.56012,0.520447
1470263022570823,0.134949,0.630066,-0.560181,0.520508
1470263022585837,0.136047,0.630432,-0.560486,0.519531
1470263022608357,0.138245,0.631714,-0.559692,0.518188
1470263022630876,0.137939,0.631653,-0.559937,0.518066
1470263022645891,0.139343,0.632019,-0.55957,0.517639
1470263022668411,0.138,0.631836,-0.560547,0.517212
1470263022690930,0.139587,0.632507,-0.560059,0.516479
1470263022713451,0.139893,0.63269,-0.560242,0.51593
1470263022727964,0.140137,0.632751,-0.560303,0.515747
1470263022750985,0.140076,0.632751,-0.560303,0.515747
1470263022765498,0.140076,0.632629,-0.560608,0.515625
1470263022788018,0.140015,0.632385,-0.560913,0.515625
1470263022810540,0.139893,0.632324,-0.560913,0.515747
1470263022825051,0.139648,0.632263,-0.560852,0.51593
1470263022848072,0.139404,0.63208,-0.560852,0.516235
1470263022870592,0.139221,0.631836,-0.560852,0.516479
1470263022885105,0.139038,0.631592,-0.560913,0.516846
1470263022908127,0.138794,0.631287,-0.560974,0.517151
1470263022930646,0.13855,0.630981,-0.561035,0.517578
1470263022945160,0.138428,0.630676,-0.560974,0.518005
1470263022975687,0.138306,0.630371,-0.560974,0.518372
1470263022990700,0.138123,0.630066,-0.561035,0.518799
1470263023005213,0.138062,0.6297,-0.561096,0.519165
1470263023028267,0.138062,0.629517,-0.561035,0.51947
1470263023050754,0.138,0.629517,-0.561096,0.51947
1470263023072273,0.138245,0.629272,-0.561218,0.519531
1470263023089289,0.13855,0.62915,-0.56134,0.51947
1470263023110309,0.138794,0.62915,-0.56134,0.519409
1470263023131827,0.138977,0.629211,-0.56134,0.519226
1470263023148342,0.139099,0.629211,-0.561523,0.518982
1470263023170862,0.139282,0.62915,-0.561707,0.518799
1470263023191883,0.139343,0.629272,-0.561768,0.518677
1470263023208395,0.139343,0.629272,-0.561768,0.518677
1470263023230915,0.139343,0.629272,-0.561768,0.518677
1470263023251936,0.139343,0.629272,-0.561768,0.518677
1470263023268449,0.139343,0.629272,-0.561768,0.518677
1470263023290469,0.139282,0.628967,-0.56189,0.51886
1470263023311988,0.13916,0.628784,-0.56189,0.519165
1470263023328003,0.138794,0.628662,-0.561768,0.51947
1470263023358030,0.13855,0.62854,-0.561646,0.519897
1470263023372049,0.138245,0.628479,-0.561584,0.520081
1470263023394563,0.138062,0.628357,-0.561768,0.520081
1470263023410577,0.137878,0.628174,-0.56189,0.520203
1470263023432098,0.137634,0.627991,-0.562012,0.520386
1470263023448112,0.137207,0.627808,-0.562134,0.520569
1470263023470631,0.136719,0.627747,-0.562195,0.520691
1470263023493683,0.136292,0.627563,-0.562439,0.520752
1470263023508165,0.135925,0.627563,-0.562622,0.52063
1470263023530685,0.13562,0.627441,-0.562927,0.520569
1470263023553206,0.135376,0.627258,-0.56311,0.52063
1470263023568220,0.13501,0.627136,-0.563049,0.520935
1470263023598248,0.134521,0.627136,-0.562927,0.52124
1470263023613300,0.134338,0.626953,-0.562866,0.521484
1470263023627780,0.134216,0.62677,-0.562866,0.52179
1470263023650803,0.134155,0.626587,-0.562866,0.522034
1470263023673321,0.134094,0.626404,-0.562866,0.522339
1470263023687334,0.134094,0.62616,-0.562744,0.522705
1470263023710873,0.133972,0.625977,-0.562622,0.523071
1470263023733375,0.133789,0.625732,-0.562561,0.523438
1470263023754410,0.133606,0.625488,-0.562622,0.523804
1470263023770909,0.133362,0.625305,-0.562622,0.523987
1470263023793428,0.133118,0.625122,-0.562744,0.524231
1470263023807441,0.132813,0.624939,-0.562744,0.524475
1470263023830462,0.132446,0.624817,-0.562744,0.524719
1470263023852983,0.132019,0.624634,-0.562683,0.525085
1470263023867497,0.131592,0.624512,-0.562683,0.52533
1470263023890516,0.131226,0.624268,-0.562805,0.525574
1470263023913038,0.130737,0.623962,-0.562866,0.526001
1470263023927551,0.129944,0.623779,-0.562683,0.526611
1470263023950570,0.12854,0.623596,-0.562317,0.527588
1470263023973090,0.126526,0.623413,-0.561707,0.528992
1470263023994145,0.123596,0.622925,-0.560852,0.531189
1470263024018152,0.119507,0.621887,-0.559692,0.534424
1470263024033146,0.114136,0.620056,-0.558472,0.539063
1470263024054164,0.106995,0.617249,-0.557129,0.545105
1470263024070678,0.0979614,0.613098,-0.555908,0.552673
1470263024094199,0.0872803,0.607605,-0.554565,0.561768
1470263024121724,0.0748291,0.599915,-0.55365,0.572693
1470263024132233,0.0609741,0.590698,-0.552673,0.584656
1470263024153252,0.0458374,0.5802,-0.551697,0.597351
1470263024174297,0.0293579,0.568604,-0.550537,0.610474
1470263024190787,0.0119629,0.556274,-0.549133,0.623596
1470263024213308,-0.00598145,0.543396,-0.547241,0.636536
1470263024234325,-0.0241699,0.530029,-0.544983,0.64917
1470263024265353,-0.0415649,0.517151,-0.542297,0.660889
1470263024274862,-0.057312,0.503723,-0.5401,0.671753
1470263024293879,-0.0722656,0.489136,-0.538635,0.68219
1470263024310893,-0.0878906,0.473755,-0.536682,0.692627
1470263024333413,-0.104553,0.458191,-0.533752,0.703003
1470263024354433,-0.12085,0.443237,-0.530334,0.712524
1470263024370447,-0.136597,0.428101,-0.527222,0.721191
1470263024392967,-0.152344,0.411926,-0.523865,0.729797
1470263024415487,-0.169189,0.394958,-0.519653,0.738464
1470263024430001,-0.185608,0.378845,-0.514587,0.74646
1470263024453521,-0.198914,0.363708,-0.510315,0.753479
1470263024475542,-0.207703,0.348389,-0.50769,0.760071
1470263024490054,-0.21521,0.333191,-0.5047,0.766785
1470263024513075,-0.22406,0.318726,-0.500122,0.773315
1470263024535597,-0.234558,0.306213,-0.495483,0.778259
1470263024550109,-0.242798,0.294617,-0.491943,0.78241
1470263024573630,-0.246338,0.283081,-0.489868,0.786926
1470263024595650,-0.248169,0.272705,-0.487366,0.791504
1470263024610162,-0.252197,0.264343,-0.484131,0.795044
1470263024633183,-0.257385,0.257446,-0.481384,0.797302
1470263024655704,-0.261108,0.251282,-0.479614,0.799133
1470263024676722,-0.263,0.245361,-0.478699,0.800903
1470263024708250,-0.265015,0.240479,-0.478271,0.802002
1470263024715757,-0.267334,0.236572,-0.47821,0.802429
1470263024759297,-0.269409,0.234009,-0.477722,0.802734
1470263024783819,-0.269897,0.232605,-0.477234,0.803284
1470263024786320,-0.268555,0.232056,-0.477661,0.80365
1470263024796830,-0.268066,0.232849,-0.477844,0.803467
1470263024813346,-0.269226,0.234314,-0.477661,0.802795
1470263024835865,-0.26947,0.235229,-0.477783,0.802368
1470263024849877,-0.269226,0.235474,-0.478149,0.802185
1470263024896420,-0.269592,0.235718,-0.477966,0.802063
1470263024898921,-0.269897,0.235962,-0.4776,0.802124
1470263024918439,-0.269287,0.236145,-0.477173,0.80249
1470263024933452,-0.268616,0.236267,-0.476685,0.802979
1470263024955472,-0.267944,0.236328,-0.476318,0.803406
1470263024978495,-0.26709,0.236267,-0.476196,0.803772
1470263025000513,-0.266235,0.236084,-0.476196,0.804138
1470263025023533,-0.265991,0.236084,-0.476013,0.804321
1470263025037047,-0.26593,0.236145,-0.475952,0.804321
1470263025061069,-0.26593,0.236145,-0.475952,0.804321
1470263025075580,-0.265503,0.23645,-0.47583,0.804443
1470263025098102,-0.265076,0.236755,-0.475708,0.804565
1470263025113115,-0.265076,0.236816,-0.475647,0.804626
1470263025135634,-0.265015,0.236938,-0.475647,0.804626
1470263025164161,-0.264954,0.237,-0.475403,0.804749
1470263025173168,-0.264709,0.237,-0.47522,0.804932
1470263025195689,-0.264465,0.237,-0.475037,0.805115
1470263025233722,-0.264404,0.237,-0.474854,0.805237
1470263025236224,-0.264404,0.236938,-0.47467,0.805359
1470263025263249,-0.264343,0.236938,-0.474609,0.80542
1470263025276762,-0.264282,0.237,-0.474609,0.80542
1470263025293276,-0.264282,0.237061,-0.474548,0.80542
1470263025323802,-0.264282,0.237122,-0.474548,0.805481
1470263025338316,-0.264221,0.237122,-0.474548,0.805481
1470263025353332,-0.263916,0.237366,-0.474548,0.805481
1470263025383357,-0.26355,0.237549,-0.474426,0.805603
1470263025405878,-0.263489,0.237671,-0.474426,0.805603
1470263025413384,-0.263489,0.237671,-0.474426,0.805603
1470263025441910,-0.263184,0.237732,-0.474365,0.805725
1470263025458423,-0.262878,0.237732,-0.474243,0.805908
1470263025473437,-0.262817,0.237793,-0.474243,0.805908
1470263025495958,-0.262817,0.237854,-0.474182,0.805908
1470263025518491,-0.262756,0.237915,-0.474182,0.805908
1470263025532490,-0.262695,0.237854,-0.47406,0.80603
1470263025555511,-0.26239,0.237732,-0.473938,0.806213
1470263025578533,-0.262085,0.23761,-0.473816,0.806458
1470263025600578,-0.262024,0.237671,-0.473816,0.806458
1470263025623072,-0.261963,0.237732,-0.473816,0.806458
1470263025638086,-0.261963,0.237793,-0.473755,0.806458
1470263025652598,-0.261902,0.237793,-0.473755,0.806458
1470263025689631,-0.261902,0.237854,-0.473755,0.806458
1470263025705646,-0.261902,0.237915,-0.473694,0.806458
1470263025720660,-0.261841,0.237915,-0.473694,0.806458
1470263025735673,-0.26178,0.237976,-0.473694,0.806519
1470263025758193,-0.26178,0.238037,-0.473633,0.806519
1470263025772706,-0.261719,0.238098,-0.473633,0.806519
1470263025795727,-0.26178,0.238159,-0.473511,0.80658
1470263025825754,-0.26178,0.238159,-0.473511,0.80658
1470263025832761,-0.261719,0.23822,-0.473511,0.80658
1470263025855781,-0.261658,0.238281,-0.47345,0.80658
1470263025878301,-0.261658,0.238281,-0.47345,0.80658
1470263025899319,-0.261597,0.238342,-0.47345,0.80658
1470263025921840,-0.261536,0.238342,-0.473389,0.806641
1470263025945862,-0.261536,0.238403,-0.473389,0.806641
1470263025960375,-0.261536,0.238464,-0.473389,0.806641
1470263025977891,-0.261475,0.238464,-0.473389,0.806641
1470263025998409,-0.261475,0.238525,-0.473328,0.806641
1470263026020929,-0.261414,0.238525,-0.473328,0.806641
1470263026035442,-0.261353,0.238586,-0.473328,0.806641
1470263026058462,-0.261353,0.238586,-0.473328,0.806702
1470263026079482,-0.261292,0.238647,-0.473267,0.806702
1470263026109512,-0.261292,0.238647,-0.473267,0.806702
1470263026119017,-0.261292,0.238708,-0.473267,0.806702
1470263026139536,-0.26123,0.23877,-0.473267,0.806702
1470263026156050,-0.26123,0.23877,-0.473206,0.806702
1470263026178070,-0.261169,0.238831,-0.473206,0.806702
1470263026200590,-0.261169,0.238831,-0.473206,0.806702
1470263026215604,-0.261108,0.238892,-0.473206,0.806763
1470263026238124,-0.261108,0.238892,-0.473206,0.806763
1470263026268150,-0.261108,0.238953,-0.473022,0.806824
1470263026275658,-0.261169,0.238892,-0.472839,0.806885
1470263026305685,-0.261108,0.238831,-0.472717,0.807007
1470263026335712,-0.260925,0.238708,-0.472656,0.80719
1470263026344720,-0.260864,0.238586,-0.472534,0.807312
1470263026358231,-0.260803,0.238586,-0.472473,0.807312
1470263026388260,-0.260742,0.238586,-0.47229,0.807495
1470263026395766,-0.260803,0.238586,-0.472046,0.807617
1470263026418285,-0.260803,0.238586,-0.471924,0.807678
1470263026447813,-0.260803,0.238586,-0.471863,0.807678
1470263026457323,-0.260742,0.238586,-0.471863,0.807678
1470263026478340,-0.260742,0.238647,-0.471863,0.807739
1470263026508366,-0.260681,0.238647,-0.471863,0.807739
1470263026515373,-0.260681,0.238647,-0.471863,0.807739
1470263026538394,-0.26062,0.238708,-0.471863,0.807739
1470263026560915,-0.26062,0.238708,-0.471802,0.807739
1470263026581933,-0.26062,0.23877,-0.471802,0.807739
1470263026605955,-0.26062,0.23877,-0.471802,0.807739
1470263026620969,-0.260559,0.23877,-0.471802,0.807739
1470263026634982,-0.26062,0.238708,-0.47168,0.807861
1470263026664508,-0.260681,0.238647,-0.471497,0.807922
1470263026680521,-0.26062,0.238586,-0.471313,0.808044
1470263026710548,-0.260681,0.238586,-0.471069,0.808167
1470263026725562,-0.260742,0.238647,-0.470764,0.80835
1470263026740575,-0.260681,0.238525,-0.470398,0.808655
1470263026755088,-0.260559,0.238281,-0.469971,0.809021
1470263026778109,-0.260437,0.237976,-0.469421,0.809387
1470263026800629,-0.260437,0.237671,-0.468811,0.809875
1470263026830655,-0.259705,0.237183,-0.468018,0.810669
1470263026838163,-0.258301,0.236206,-0.467224,0.81189
1470263026866726,-0.255737,0.23407,-0.466431,0.813782
1470263026882241,-0.252014,0.230408,-0.465332,0.816589
1470263026898255,-0.246216,0.225037,-0.463867,0.820679
1470263026928282,-0.239624,0.218018,-0.462158,0.8255
1470263026943296,-0.232788,0.209229,-0.459717,0.831055
1470263026965817,-0.225098,0.199219,-0.456665,0.83728
1470263026980830,-0.216125,0.188599,-0.453186,0.843994
1470263027003349,-0.205994,0.177551,-0.448914,0.851196
1470263027018362,-0.194519,0.165894,-0.44397,0.858765
1470263027040883,-0.182312,0.153748,-0.438477,0.866516
1470263027072411,-0.169617,0.140076,-0.432922,0.874146
1470263027076415,-0.156738,0.126526,-0.427002,0.881531
1470263027085424,-0.144775,0.112976,-0.421021,0.888245
1470263027108945,-0.134033,0.0996094,-0.414978,0.894348
1470263027128962,-0.123291,0.0862427,-0.408691,0.900146
1470263027144977,-0.112732,0.072998,-0.402344,0.905579
1470263027175004,-0.103943,0.0599976,-0.395874,0.9104
1470263027191518,-0.0985107,0.0476685,-0.389648,0.914429
1470263027203529,-0.0952148,0.0356445,-0.384094,0.917664
1470263027226050,-0.0932007,0.0239868,-0.379395,0.920227
1470263027248570,-0.0915527,0.0126953,-0.375122,0.922363
1470263027263583,-0.0893555,0.00195313,-0.371155,0.924255
1470263027286103,-0.0869751,-0.00805664,-0.367432,0.925903
1470263027308624,-0.085022,-0.0175781,-0.36377,0.927429
1470263027323637,-0.0838623,-0.0264893,-0.360107,0.928711
1470263027346158,-0.0830688,-0.03479,-0.356445,0.929932
1470263027368677,-0.0820923,-0.0429077,-0.353149,0.930969
1470263027383691,-0.0803833,-0.050415,-0.349976,0.931946
1470263027406211,-0.0770874,-0.057373,-0.346802,0.932983
1470263027428732,-0.0736694,-0.0631714,-0.344177,0.933838
1470263027443773,-0.0717163,-0.067688,-0.342224,0.934387
1470263027466293,-0.071106,-0.071106,-0.340576,0.934814
1470263027488784,-0.0704956,-0.0734253,-0.3396,0.935059
1470263027503805,-0.0697632,-0.074707,-0.339111,0.935181
1470263027526319,-0.0691528,-0.0754395,-0.33905,0.935181
1470263027548965,-0.0687866,-0.0761108,-0.33905,0.93512
1470263027563856,-0.0686646,-0.0769043,-0.33905,0.935059
1470263027587875,-0.0684814,-0.0776978,-0.338989,0.935059
1470263027608896,-0.067688,-0.0784912,-0.338806,0.93512
1470263027623911,-0.0667725,-0.0792236,-0.338684,0.935181
1470263027646427,-0.0663452,-0.0795898,-0.338562,0.935181
1470263027668447,-0.0662842,-0.0795898,-0.338562,0.935181
1470263027683961,-0.0666504,-0.0792236,-0.338989,0.935059
1470263027706480,-0.0673218,-0.0784912,-0.339539,0.934875
1470263027729063,-0.0678711,-0.0772095,-0.340271,0.934692
1470263027744063,-0.0682373,-0.0755615,-0.341187,0.934448
1470263027766534,-0.0689087,-0.0731812,-0.342651,0.934082
1470263027788554,-0.0706177,-0.069397,-0.344299,0.933594
1470263027803584,-0.072876,-0.0641479,-0.346252,0.933105
1470263027826090,-0.0740967,-0.057312,-0.348083,0.932739
1470263027849138,-0.0744629,-0.0490723,-0.350037,0.932495
1470263027866624,-0.0740356,-0.0394897,-0.352051,0.93219
1470263027886142,-0.0731812,-0.0280762,-0.354004,0.931946
1470263027908711,-0.0718384,-0.0143433,-0.355957,0.931641
1470263027925177,-0.067688,0.00231934,-0.358704,0.930969
1470263027946231,-0.0603027,0.0214844,-0.362549,0.929749
1470263027968760,-0.0516357,0.0430908,-0.367371,0.927612
1470263027985231,-0.0427856,0.0669556,-0.372986,0.924438
1470263028006250,-0.0334473,0.0926514,-0.378967,0.920105
1470263028028771,-0.0237427,0.120056,-0.385559,0.91449
1470263028052792,-0.0133667,0.149109,-0.392212,0.907593
1470263028066305,-0.00219727,0.179382,-0.398438,0.899475
1470263028088826,0.00915527,0.210388,-0.404358,0.890015
1470263028106340,0.0211182,0.241394,-0.410095,0.879211
1470263028126357,0.0340576,0.270874,-0.415283,0.867737
1470263028148882,0.0462036,0.297913,-0.419739,0.856079
1470263028181407,0.0571289,0.32312,-0.423767,0.844238
1470263028186411,0.0666504,0.347412,-0.42749,0.831909
1470263028209933,0.0753784,0.370605,-0.431274,0.819092
1470263028226448,0.0831299,0.391907,-0.435242,0.806213
1470263028248969,0.0894165,0.411621,-0.438843,0.793701
1470263028268487,0.0940552,0.43103,-0.4422,0.780884
1470263028286506,0.0983887,0.449951,-0.44574,0.767517
1470263028314026,0.102295,0.467712,-0.449585,0.754089
1470263028330045,0.105286,0.484375,-0.453064,0.740906
1470263028354091,0.107544,0.500793,-0.456177,0.727661
1470263028366108,0.109314,0.516174,-0.458984,0.714722
1470263028391598,0.111694,0.531799,-0.461243,0.701355
1470263028406609,0.110291,0.542175,-0.464844,0.691223
1470263028426127,0.112305,0.555908,-0.467224,0.678223
1470263028448665,0.112,0.56604,-0.470276,0.667725
1470263028466665,0.111389,0.575195,-0.473877,0.65741
1470263028493688,0.109741,0.582703,-0.477478,0.648376
1470263028508727,0.106201,0.589172,-0.480469,0.640869
1470263028526733,0.101318,0.594788,-0.48291,0.634583
1470263028546261,0.0953979,0.599731,-0.485168,0.629089
1470263028568784,0.088623,0.603821,-0.487732,0.624207
1470263028586824,0.0814819,0.606812,-0.490845,0.619812
1470263028609315,0.0737915,0.609131,-0.494629,0.615417
1470263028628825,0.0656128,0.611084,-0.499268,0.610718
1470263028646916,0.057251,0.612366,-0.5047,0.605774
1470263028666343,0.0487061,0.613098,-0.510376,0.600952
1470263028688862,0.0396729,0.613464,-0.516235,0.596252
1470263028706379,0.0307617,0.613586,-0.522156,0.591492
1470263028726397,0.0220947,0.613281,-0.528503,0.586548
1470263028748917,0.0136108,0.612671,-0.534851,0.581665
1470263028766433,0.00482178,0.611755,-0.541199,0.576904
1470263028786450,-0.00408936,0.610474,-0.547302,0.572449
1470263028808971,-0.0131226,0.609253,-0.552979,0.568176
1470263028826488,-0.0224609,0.608215,-0.558289,0.563782
1470263028847510,-0.0316162,0.6073,-0.563782,0.558838
1470263028871527,-0.0403442,0.60614,-0.569824,0.553406
1470263028886542,-0.050354,0.608398,-0.573608,0.546143
1470263028908060,-0.055542,0.609863,-0.574768,0.542847
1470263028929084,-0.0657959,0.605591,-0.582764,0.537903
1470263028946595,-0.0684204,0.60675,-0.580627,0.538574
1470263028967653,-0.0723877,0.609131,-0.580322,0.535645
1470263028990134,-0.0760498,0.610229,-0.581238,0.532837
1470263029006674,-0.0767212,0.609741,-0.583984,0.530396
1470263029027667,-0.0740967,0.611816,-0.581604,0.530884
1470263029048688,-0.0751953,0.614868,-0.579041,0.53009
1470263029066734,-0.0762939,0.617126,-0.577026,0.529419
1470263029089224,-0.0773926,0.619263,-0.57489,0.529175
1470263029108740,-0.0778198,0.620422,-0.574158,0.528503
1470263029126757,-0.0779419,0.619812,-0.575562,0.52771
1470263029153781,-0.0764771,0.618713,-0.576965,0.527649
1470263029168795,-0.0759888,0.617493,-0.578552,0.527405
1470263029186812,-0.0750732,0.616394,-0.579468,0.527832
1470263029209330,-0.0741577,0.615417,-0.580139,0.528442
1470263029228847,-0.072937,0.614807,-0.5802,0.529175
1470263029246363,-0.0723877,0.614624,-0.579712,0.529968
1470263029269384,-0.0722046,0.614807,-0.578857,0.530762
1470263029288902,-0.0720215,0.615173,-0.577576,0.531738
1470263029306918,-0.0723267,0.615662,-0.576416,0.532349
1470263029328937,-0.0725708,0.616272,-0.575012,0.533142
1470263029348955,-0.0727539,0.616821,-0.573669,0.533936
1470263029367059,-0.0723877,0.617493,-0.572266,0.534729
1470263029388992,-0.0721436,0.618103,-0.570618,0.535828
1470263029409527,-0.0714111,0.618774,-0.568481,0.537354
1470263029425529,-0.0705566,0.61969,-0.56604,0.539063
1470263029448047,-0.0681763,0.619568,-0.564697,0.540894
1470263029469565,-0.0632324,0.618652,-0.564148,0.543152
1470263029485578,-0.0559082,0.617676,-0.562744,0.546448
1470263029508099,-0.0479126,0.615845,-0.562134,0.549927
1470263029530619,-0.0396729,0.614685,-0.55957,0.554504
1470263029545632,-0.0327759,0.614868,-0.554138,0.560181
1470263029568153,-0.0264282,0.615479,-0.547729,0.566101
1470263029590673,-0.0192261,0.615356,-0.541992,0.57196
1470263029605686,-0.0106812,0.614502,-0.536987,0.57782
1470263029628206,-0.000976563,0.61322,-0.532166,0.58374
1470263029649244,0.00891113,0.612,-0.526917,0.589661
1470263029665739,0.019104,0.610718,-0.521484,0.595581
1470263029688260,0.0293579,0.609253,-0.515625,0.601685
1470263029709279,0.0392456,0.607666,-0.509766,0.607727
1470263029727295,0.0487671,0.605713,-0.504089,0.613708
1470263029748314,0.0580444,0.603271,-0.498901,0.619507
1470263029769334,0.0670166,0.600159,-0.494751,0.624878
1470263029785848,0.0750122,0.595581,-0.491333,0.631042
1470263029808368,0.0844116,0.592957,-0.486938,0.635681
1470263029829402,0.0903931,0.588501,-0.483521,0.641602
1470263029845902,0.0966187,0.585754,-0.479248,0.646362
1470263029868421,0.0998535,0.582153,-0.476074,0.651489
1470263029889479,0.103455,0.579834,-0.473877,0.654602
1470263029905956,0.107178,0.578308,-0.473145,0.655884
1470263029928475,0.110718,0.57782,-0.472778,0.655945
1470263029951028,0.113281,0.578369,-0.472229,0.655457
1470263029966009,0.120056,0.57489,-0.4729,0.656799
1470263029988030,0.134155,0.57428,-0.468628,0.657654
1470263030009549,0.137817,0.576477,-0.463928,0.658386
1470263030025563,0.13501,0.579285,-0.461182,0.658386
1470263030048096,0.139893,0.581299,-0.460327,0.656189
1470263030069102,0.147705,0.581848,-0.459229,0.654785
1470263030085617,0.152588,0.582642,-0.457642,0.654053
1470263030108637,0.155884,0.583862,-0.455444,0.653687
1470263030130658,0.157166,0.585144,-0.453369,0.653687
1470263030145672,0.157654,0.585999,-0.451721,0.653931
1470263030168192,0.158203,0.585876,-0.451172,0.654297
1470263030190711,0.158325,0.585449,-0.451538,0.654419
1470263030205725,0.158325,0.584961,-0.452209,0.654358
1470263030228245,0.157959,0.584473,-0.453003,0.654358
1470263030258272,0.15741,0.583984,-0.453674,0.65448
1470263030273285,0.156433,0.583679,-0.454102,0.654663
1470263030288299,0.155151,0.583618,-0.454224,0.654907
1470263030310819,0.153809,0.583557,-0.454407,0.655151
1470263030325333,0.152588,0.583374,-0.454834,0.655334
1470263030348853,0.151917,0.583008,-0.455383,0.655457
1470263030370873,0.151428,0.582581,-0.455872,0.655579
1470263030385386,0.150818,0.582275,-0.456177,0.655762
1470263030408407,0.150146,0.581909,-0.456482,0.656067
1470263030430927,0.149597,0.581604,-0.456848,0.656189
1470263030444940,0.149353,0.581238,-0.457153,0.656372
1470263030468462,0.149353,0.581177,-0.457153,0.656372
1470263030490981,0.149109,0.581299,-0.457153,0.656372
1470263030504993,0.149292,0.58136,-0.457214,0.65625
1470263030528014,0.149658,0.581299,-0.457153,0.656189
1470263030551035,0.149719,0.58136,-0.457031,0.656189
1470263030565085,0.149658,0.581482,-0.456909,0.65625
1470263030588568,0.149658,0.581482,-0.456787,0.656311
1470263030611092,0.149658,0.581482,-0.456787,0.656372
1470263030632108,0.149597,0.581299,-0.456604,0.656616
1470263030648124,0.149109,0.581238,-0.456299,0.656982
1470263030678189,0.14856,0.581177,-0.456055,0.657349
1470263030692161,0.14801,0.580994,-0.455872,0.657776
1470263030708175,0.147583,0.580872,-0.455505,0.658203
1470263030730715,0.147156,0.58075,-0.455078,0.658691
1470263030751760,0.147095,0.580566,-0.454529,0.659302
1470263030768730,0.1474,0.580322,-0.453552,0.660156
1470263030790773,0.148499,0.579651,-0.452148,0.661438
1470263030812302,0.150391,0.57843,-0.450073,0.663452
1470263030828284,0.151733,0.577515,-0.446899,0.666077
1470263030850830,0.152954,0.577393,-0.442505,0.668823
1470263030871822,0.156982,0.57605,-0.438965,0.671387
1470263030888842,0.164673,0.573975,-0.435852,0.67334
1470263030910857,0.172668,0.572327,-0.430542,0.676147
1470263030933378,0.180481,0.57074,-0.42395,0.679626
1470263030948391,0.189514,0.568604,-0.417236,0.683105
1470263030970912,0.200073,0.565857,-0.410156,0.686646
1470263030991955,0.211365,0.562744,-0.402222,0.690552
1470263031007465,0.22345,0.559326,-0.393555,0.694458
1470263031030966,0.236206,0.556091,-0.384338,0.697998
1470263031052016,0.249695,0.552917,-0.374939,0.700928
1470263031067499,0.263855,0.549927,-0.365234,0.703186
1470263031091520,0.27771,0.547302,-0.355164,0.705078
1470263031113540,0.291077,0.545349,-0.344604,0.706421
1470263031127552,0.30365,0.543823,-0.333496,0.707642
1470263031151091,0.315002,0.542664,-0.321777,0.708984
1470263031173093,0.325806,0.541565,-0.309814,0.710327
1470263031187607,0.335938,0.540222,-0.297363,0.711853
1470263031210627,0.345032,0.538818,-0.284912,0.713684
1470263031233648,0.353516,0.53772,-0.2724,0.715271
1470263031254668,0.361267,0.536926,-0.260132,0.716553
1470263031270680,0.36792,0.536194,-0.248657,0.717773
1470263031293201,0.374023,0.535706,-0.238953,0.718323
1470263031316221,0.380005,0.535645,-0.230957,0.717834
1470263031331235,0.384033,0.535217,-0.2229,0.718506
1470263031353264,0.384827,0.534546,-0.213745,0.721375
1470263031374805,0.38269,0.534607,-0.20459,0.725098
1470263031390789,0.378113,0.535583,-0.196838,0.728943
1470263031413314,0.372131,0.536743,-0.190491,0.732849
1470263031441880,0.364746,0.537781,-0.18512,0.737122
1470263031450843,0.355957,0.539001,-0.181396,0.741455
1470263031473394,0.3479,0.539551,-0.179321,0.745361
1470263031494445,0.339661,0.540344,-0.178223,0.748901
1470263031510897,0.332947,0.541626,-0.176575,0.751343
1470263031533417,0.329468,0.54248,-0.175354,0.752563
1470263031554436,0.328796,0.542847,-0.173584,0.752991
1470263031578457,0.329102,0.542908,-0.17157,0.753296
1470263031593470,0.3302,0.542664,-0.169556,0.753418
1470263031615993,0.332458,0.542358,-0.167969,0.753052
1470263031638511,0.335083,0.542114,-0.166992,0.752258
1470263031661031,0.336975,0.542175,-0.16687,0.751404
1470263031674598,0.338074,0.542419,-0.16748,0.750549
1470263031691058,0.338684,0.542725,-0.168518,0.749817
1470263031721085,0.33844,0.542969,-0.169678,0.749512
1470263031734597,0.33728,0.543152,-0.170593,0.749695
1470263031751112,0.336121,0.543518,-0.171631,0.749695
1470263031773132,0.33551,0.543823,-0.172546,0.749573
1470263031794651,0.335205,0.543945,-0.172791,0.749573
1470263031810667,0.334167,0.544006,-0.172729,0.75
1470263031833185,0.333008,0.544006,-0.172363,0.750549
1470263031854705,0.331909,0.544189,-0.17218,0.750977
1470263031870728,0.330688,0.544617,-0.171875,0.751282
1470263031893258,0.32959,0.545105,-0.171509,0.751465
1470263031915760,0.328186,0.54541,-0.171204,0.751953
1470263031937322,0.325623,0.545227,-0.171631,0.753113
1470263031953794,0.32196,0.545105,-0.173401,0.754333
1470263031982363,0.318604,0.545471,-0.174805,0.755188
1470263031990327,0.315979,0.545959,-0.17572,0.755737
1470263032013387,0.314453,0.546204,-0.176086,0.756104
1470263032035868,0.313171,0.546448,-0.176086,0.75647
1470263032050381,0.31189,0.546814,-0.175903,0.756775
1470263032073402,0.310364,0.546936,-0.175659,0.757324
1470263032095940,0.309082,0.546875,-0.174805,0.758118
1470263032110940,0.308167,0.546692,-0.173645,0.758911
1470263032133455,0.307678,0.546448,-0.172363,0.759583
1470263032155976,0.307312,0.546265,-0.171204,0.760132
1470263032169988,0.307007,0.546082,-0.169861,0.760681
1470263032193510,0.306519,0.545776,-0.168396,0.761414
1470263032215529,0.306091,0.545471,-0.166931,0.762146
1470263032230042,0.305847,0.545044,-0.165527,0.762817
1470263032253563,0.305786,0.544678,-0.164307,0.763428
1470263032275583,0.305725,0.544128,-0.162964,0.764099
1470263032290096,0.305603,0.543701,-0.161743,0.764709
1470263032313119,0.305664,0.543457,-0.160583,0.765076
1470263032343144,0.306213,0.543274,-0.159729,0.765198
1470263032351651,0.306702,0.543274,-0.159058,0.765137
1470263032373171,0.30719,0.543457,-0.158691,0.764832
1470263032403199,0.307922,0.543823,-0.158569,0.764343
1470263032410204,0.308655,0.54425,-0.158569,0.763733
1470263032433225,0.309326,0.544617,-0.158569,0.763184
1470263032455747,0.310181,0.544922,-0.158691,0.762634
1470263032470276,0.310791,0.545166,-0.158813,0.762146
1470263032493280,0.311157,0.54541,-0.158752,0.761902
1470263032515801,0.311584,0.545471,-0.15863,0.761658
1470263032536850,0.311584,0.545471,-0.158691,0.761658
1470263032553333,0.311584,0.545532,-0.158691,0.761597
1470263032575855,0.31134,0.545532,-0.158569,0.761719
1470263032596873,0.310669,0.545532,-0.158447,0.762024
1470263032613388,0.310364,0.545593,-0.158386,0.762146
1470263032635907,0.309998,0.545715,-0.158264,0.762207
1470263032656975,0.309509,0.545776,-0.157959,0.762451
1470263032680947,0.309082,0.545837,-0.157593,0.762634
1470263032695961,0.308838,0.545959,-0.157288,0.762695
1470263032717024,0.308838,0.546143,-0.156921,0.762634
1470263032733496,0.308899,0.546265,-0.156738,0.762573
1470263032756014,0.309021,0.546448,-0.156494,0.762451
1470263032777035,0.309326,0.546631,-0.15625,0.762268
1470263032793549,0.309753,0.546692,-0.156006,0.762085
1470263032816068,0.310303,0.546692,-0.155945,0.761841
1470263032837087,0.31073,0.546753,-0.155823,0.761719
1470263032853601,0.311096,0.546814,-0.155884,0.761475
1470263032876122,0.311401,0.546753,-0.155884,0.761353
1470263032897141,0.311401,0.546753,-0.155884,0.761353
1470263032914161,0.311707,0.546692,-0.155823,0.761292
1470263032935677,0.312073,0.546753,-0.155701,0.761169
1470263032958196,0.312073,0.546814,-0.155701,0.761108
1470263032973209,0.312134,0.546814,-0.155701,0.761108
1470263032995730,0.312134,0.546814,-0.15564,0.761108
1470263033018266,0.312134,0.546814,-0.15564,0.761047
1470263033033266,0.312561,0.546875,-0.155518,0.760925
1470263033055784,0.313354,0.546936,-0.155396,0.760559
1470263033078304,0.314697,0.547058,-0.155396,0.759888
1470263033093317,0.316956,0.547058,-0.155518,0.758972
1470263033115838,0.320313,0.546997,-0.155762,0.757507
1470263033138358,0.325317,0.546631,-0.156311,0.755554
1470263033152871,0.331055,0.545959,-0.15741,0.753296
1470263033175893,0.336487,0.545349,-0.159485,0.750916
1470263033198411,0.341064,0.545288,-0.163086,0.748108
1470263033212929,0.344604,0.545776,-0.16803,0.744995
1470263033235947,0.346924,0.546631,-0.173828,0.741943
1470263033258465,0.347412,0.548218,-0.180542,0.738953
1470263033279485,0.346497,0.550293,-0.188232,0.735962
1470263033296000,0.344177,0.55249,-0.196899,0.733093
1470263033326026,0.341003,0.554749,-0.20636,0.730286
1470263033339038,0.337036,0.556946,-0.216187,0.7276
1470263033356053,0.332153,0.559326,-0.226318,0.724915
1470263033378574,0.326172,0.56189,-0.236572,0.722412
1470263033399593,0.319153,0.564575,-0.246704,0.720032
1470263033416107,0.311462,0.567505,-0.256592,0.717651
1470263033438627,0.303101,0.570496,-0.266357,0.715271
1470263033459646,0.294312,0.573547,-0.276001,0.712891
1470263033476180,0.285278,0.576599,-0.285522,0.710327
1470263033498681,0.276062,0.579651,-0.294922,0.707642
1470263033528207,0.266846,0.582642,-0.304199,0.704773
1470263033535715,0.25769,0.585388,-0.313416,0.701904
1470263033558239,0.248474,0.58783,-0.32251,0.699036
1470263033579849,0.239014,0.590088,-0.33136,0.696228
1470263033603292,0.229248,0.592224,-0.34021,0.693481
1470263033625795,0.219482,0.594055,-0.349243,0.690552
1470263033646846,0.209656,0.595581,-0.358398,0.687622
1470263033655823,0.19928,0.596924,-0.367371,0.684814
1470263033678343,0.188416,0.598145,-0.376282,0.681946
1470263033699485,0.177429,0.599304,-0.38501,0.679016
1470263033715999,0.16626,0.600525,-0.393799,0.67572
1470263033738519,0.155457,0.601746,-0.402649,0.671936
1470263033759598,0.145447,0.602661,-0.41156,0.667969
1470263033776053,0.135803,0.603516,-0.42041,0.663757
1470263033798572,0.126038,0.604004,-0.429077,0.659668
1470263033821093,0.116028,0.604248,-0.437073,0.656006
1470263033836106,0.108093,0.605225,-0.442383,0.652893
1470263033858153,0.0968018,0.60614,-0.449768,0.648743
1470263033879646,0.0853882,0.606628,-0.457642,0.644409
1470263033895160,0.0770874,0.606934,-0.464355,0.64032
1470263033918681,0.0706177,0.606934,-0.470581,0.636475
1470263033940730,0.0641479,0.606873,-0.476807,0.632629
1470263033955215,0.0566406,0.606689,-0.483215,0.628601
1470263033978235,0.0484619,0.606628,-0.489197,0.624756
1470263034000754,0.0408325,0.606384,-0.494751,0.621155
1470263034021806,0.0336914,0.605896,-0.500061,0.617798
1470263034038288,0.0259399,0.605225,-0.505005,0.614807
1470263034060810,0.0175171,0.604675,-0.509888,0.611633
1470263034075323,0.00982666,0.603821,-0.515137,0.608215
1470263034098343,0.00323486,0.602539,-0.520935,0.604614
1470263034120863,-0.00335693,0.601013,-0.52655,0.601196
1470263034135376,-0.0102539,0.59967,-0.531677,0.597961
1470263034159898,-0.0175781,0.598328,-0.536804,0.594604
1470263034180917,-0.0247192,0.597046,-0.541809,0.591003
1470263034201936,-0.0308228,0.595764,-0.546631,0.587585
1470263034224456,-0.0362549,0.594238,-0.551514,0.584229
1470263034240970,-0.0419922,0.59314,-0.555603,0.581116
1470263034261988,-0.0481567,0.59259,-0.558777,0.578125
1470263034284510,-0.053833,0.592224,-0.561523,0.575378
1470263034301024,-0.0583496,0.591248,-0.564575,0.572937
1470263034322043,-0.0626221,0.589844,-0.567627,0.570862
1470263034338558,-0.0671387,0.588257,-0.570618,0.569031
1470263034361077,-0.0715332,0.586609,-0.573792,0.567017
1470263034389604,-0.0753784,0.584595,-0.577393,0.564941
1470263034398612,-0.0791626,0.582397,-0.580933,0.56311
1470263034420633,-0.083313,0.580444,-0.583862,0.561401
1470263034442155,-0.0876465,0.578613,-0.586487,0.559937
1470263034458665,-0.0918579,0.576782,-0.588806,0.558655
1470263034480707,-0.0962524,0.574951,-0.591064,0.557495
1470263034502212,-0.100281,0.572754,-0.593201,0.556824
1470263034518219,-0.103821,0.569946,-0.595215,0.556824
1470263034540739,-0.107056,0.56665,-0.596985,0.557739
1470263034561758,-0.109985,0.562866,-0.59845,0.559387
1470263034578273,-0.112427,0.558105,-0.600098,0.56189
1470263034600794,-0.113831,0.552429,-0.601807,0.565369
1470263034622312,-0.114197,0.54657,-0.603088,0.569641
1470263034638327,-0.114319,0.540649,-0.603943,0.574341
1470263034643848,-0.114563,0.53418,-0.604614,0.57959
1470263034666411,-0.114929,0.526733,-0.605164,0.585693
1470263034688906,-0.115234,0.518921,-0.605652,0.592163
1470263034703886,-0.114807,0.510742,-0.606079,0.598816
1470263034726422,-0.113831,0.50177,-0.607056,0.605591
1470263034748940,-0.112671,0.491821,-0.608459,0.612488
1470263034765440,-0.111694,0.481445,-0.609558,0.619751
1470263034786461,-0.111023,0.471436,-0.610107,0.627014
1470263034808984,-0.110962,0.462219,-0.610229,0.633728
1470263034823994,-0.111511,0.453613,-0.610352,0.639771
1470263034846514,-0.111877,0.44458,-0.610779,0.645569
1470263034877556,-0.111755,0.43512,-0.611389,0.651428
1470263034884048,-0.111023,0.426392,-0.611511,0.657166
1470263034909570,-0.110535,0.418701,-0.61145,0.662231
1470263034929162,-0.110413,0.411316,-0.61145,0.66687
1470263034944219,-0.110291,0.404053,-0.611328,0.671448
1470263034966121,-0.109741,0.397522,-0.611206,0.675537
1470263034988643,-0.108826,0.391846,-0.611389,0.678833
1470263035011681,-0.107544,0.386108,-0.612,0.681763
1470263035026175,-0.106384,0.380493,-0.612671,0.684448
1470263035049196,-0.106201,0.375977,-0.613159,0.686584
1470263035066726,-0.106323,0.371948,-0.614014,0.687988
1470263035086272,-0.106506,0.368164,-0.615417,0.688721
1470263035108820,-0.107361,0.365112,-0.616577,0.689209
1470263035123763,-0.109253,0.363586,-0.617065,0.689209
1470263035146283,-0.110474,0.36377,-0.617676,0.688416
1470263035168860,-0.109863,0.365479,-0.618652,0.686768
1470263035183835,-0.107788,0.368713,-0.619812,0.684265
1470263035206338,-0.105591,0.375,-0.620361,0.680664
1470263035228858,-0.104431,0.384888,-0.619385,0.676208
1470263035243873,-0.10376,0.396729,-0.617371,0.671326
1470263035266392,-0.102966,0.409485,-0.614868,0.666016
1470263035288911,-0.102112,0.422913,-0.612061,0.660339
1470263035305426,-0.100769,0.435608,-0.609741,0.654419
1470263035326513,-0.0992432,0.447327,-0.607971,0.648376
1470263035348999,-0.0977783,0.457886,-0.606812,0.642334
1470263035363983,-0.0968018,0.46759,-0.606201,0.635986
1470263035386499,-0.0962524,0.476746,-0.606079,0.629395
1470263035409019,-0.0960693,0.485168,-0.606262,0.622742
1470263035424032,-0.0964355,0.493042,-0.606628,0.616089
1470263035446572,-0.0975342,0.500061,-0.606873,0.609985
1470263035469090,-0.0994263,0.50708,-0.606506,0.604248
1470263035492618,-0.101685,0.514038,-0.605896,0.598633
1470263035506696,-0.102905,0.520386,-0.605042,0.59375
1470263035529196,-0.101379,0.525818,-0.604065,0.59021
1470263035545141,-0.0984497,0.530945,-0.602356,0.58783
1470263035566192,-0.0953369,0.536316,-0.599548,0.586365
1470263035589182,-0.0913086,0.541992,-0.59552,0.585815
1470263035605196,-0.0864258,0.547241,-0.591248,0.586121
1470263035626249,-0.081543,0.551697,-0.586853,0.586975
1470263035648734,-0.0758057,0.55542,-0.582214,0.588928
1470263035671255,-0.0693359,0.558594,-0.577148,0.591675
1470263035686317,-0.0632324,0.561401,-0.571167,0.595459
1470263035708811,-0.057312,0.563965,-0.564148,0.600281
1470263035725304,-0.0500488,0.566101,-0.556335,0.60614
1470263035746366,-0.0403442,0.567932,-0.547607,0.613098
1470263035768859,-0.0276489,0.569092,-0.53772,0.62146
1470263035785392,-0.0139771,0.57019,-0.526428,0.630493
1470263035807879,-0.000244141,0.571167,-0.513733,0.640137
1470263035828922,0.0137939,0.571655,-0.500671,0.649841
1470263035846927,0.0286865,0.571167,-0.487915,0.659485
1470263035866430,0.0441284,0.569458,-0.475769,0.668884
1470263035888949,0.0582275,0.567139,-0.463684,0.678162
1470263035914472,0.0709229,0.565063,-0.45105,0.687134
1470263035926484,0.083313,0.563354,-0.438049,0.695557
1470263035949004,0.095459,0.560425,-0.425171,0.704285
1470263035967521,0.104126,0.557495,-0.409912,0.714355
1470263035986542,0.115479,0.555054,-0.394409,0.723145
1470263036016565,0.127563,0.55188,-0.376221,0.733154
1470263036034582,0.14447,0.548828,-0.357727,0.741516
1470263036046091,0.163086,0.546021,-0.338257,0.74884
1470263036068611,0.182312,0.543152,-0.31842,0.755188
1470263036086628,0.202576,0.53949,-0.29895,0.76062
1470263036106159,0.223389,0.534729,-0.279907,0.76532
1470263036128667,0.243103,0.529053,-0.260925,0.769958
1470263036151186,0.259277,0.523254,-0.241516,0.774963
1470263036166199,0.270569,0.518005,-0.221741,0.780518
1470263036191722,0.277771,0.513,-0.202454,0.786499
1470263036206737,0.281921,0.508789,-0.184875,0.792053
1470263036229256,0.283386,0.505798,-0.168396,0.797119
1470263036248773,0.283997,0.504761,-0.155823,0.80011
1470263036266789,0.285461,0.506714,-0.150513,0.799377
1470263036286307,0.283936,0.510742,-0.15332,0.796814
1470263036308827,0.277954,0.515015,-0.160706,0.794678
1470263036326843,0.270142,0.520264,-0.169861,0.792114
1470263036346361,0.263306,0.525818,-0.177734,0.789001
1470263036368881,0.258545,0.529541,-0.181824,0.78717
1470263036386397,0.256348,0.532166,-0.1828,0.785889
1470263036413975,0.256714,0.533081,-0.180969,0.785522
1470263036428988,0.258301,0.532227,-0.175842,0.786804
1470263036446974,0.259277,0.529785,-0.168945,0.789612
1470263036467970,0.259338,0.526917,-0.162842,0.792786
1470263036488988,0.260071,0.524414,-0.160217,0.794739
1470263036507005,0.259949,0.523499,-0.16217,0.794983
1470263036528024,0.258606,0.523804,-0.166443,0.794312
1470263036549042,0.256836,0.524719,-0.170471,0.793457
1470263036566558,0.253662,0.525574,-0.172852,0.793396
1470263036589079,0.250244,0.526184,-0.173096,0.794006
1470263036609120,0.247253,0.526245,-0.171448,0.795288
1470263036627160,0.245605,0.525879,-0.168335,0.796692
1470263036647680,0.244629,0.525269,-0.165161,0.798035
1470263036669196,0.243591,0.524658,-0.162842,0.799255
1470263036686666,0.243469,0.524292,-0.162231,0.799622
1470263036707685,0.243713,0.524231,-0.162964,0.799438
1470263036728704,0.242798,0.524292,-0.164124,0.799438
1470263036746720,0.240967,0.524414,-0.164551,0.799866
1470263036769240,0.239319,0.524353,-0.164124,0.800476
1470263036788758,0.237671,0.524048,-0.162903,0.801392
1470263036806776,0.236206,0.523499,-0.161133,0.802551
1470263036829294,0.234741,0.52301,-0.159668,0.803589
1470263036851922,0.234131,0.522583,-0.158997,0.804199
1470263036866864,0.234497,0.5224,-0.15918,0.804199
1470263036889348,0.234741,0.522217,-0.159912,0.804077
1470263036908891,0.233521,0.521973,-0.161011,0.804321
1470263036926882,0.232361,0.521851,-0.16156,0.804688
1470263036956909,0.231018,0.521606,-0.161743,0.805176
1470263036968951,0.229309,0.521362,-0.161682,0.805786
1470263036986989,0.227905,0.520996,-0.161377,0.806519
1470263037009472,0.22699,0.520569,-0.161011,0.807129
1470263037028975,0.226807,0.520325,-0.160828,0.807373
1470263037045989,0.226379,0.520203,-0.16095,0.807556
1470263037068510,0.22583,0.52002,-0.16095,0.8078
1470263037089528,0.225342,0.519897,-0.160706,0.808105
1470263037106043,0.224548,0.519653,-0.160583,0.808472
1470263037128563,0.222778,0.519165,-0.160461,0.809326
1470263037150083,0.220459,0.51825,-0.160583,0.810547
1470263037166096,0.218628,0.517517,-0.160828,0.811401
1470263037188617,0.217285,0.517212,-0.160889,0.811951
1470263037209636,0.216736,0.516846,-0.161072,0.812317
1470263037226152,0.216248,0.516541,-0.161255,0.812561
1470263037248172,0.214783,0.516174,-0.161438,0.813232
1470263037271193,0.213135,0.515747,-0.161011,0.813965
1470263037286208,0.211975,0.515137,-0.160217,0.814819
1470263037308226,0.211243,0.514526,-0.159363,0.815552
1470263037329744,0.210999,0.514282,-0.158936,0.815857
1470263037345760,0.211182,0.51416,-0.158508,0.815979
1470263037368279,0.211487,0.514282,-0.158203,0.815918
1470263037389818,0.211975,0.514404,-0.157837,0.815735
1470263037405812,0.212158,0.514404,-0.157471,0.815735
1470263037428332,0.212097,0.514526,-0.157166,0.815796
1470263037449959,0.212341,0.514587,-0.156677,0.815796
1470263037465866,0.21283,0.514465,-0.156067,0.815857
1470263037488387,0.213196,0.514282,-0.155396,0.815979
1470263037509404,0.213013,0.514038,-0.154907,0.816284
1470263037525920,0.212585,0.513916,-0.154724,0.816528
1470263037548440,0.212036,0.513672,-0.154602,0.816833
1470263037569461,0.211365,0.513428,-0.154236,0.817261
1470263037585974,0.210632,0.513184,-0.153748,0.817627
1470263037608494,0.209229,0.512939,-0.153381,0.818237
1470263037629538,0.207703,0.513062,-0.153076,0.818604
1470263037646027,0.20575,0.513428,-0.153015,0.818848
1470263037668548,0.203735,0.513855,-0.153137,0.819092
1470263037689602,0.201355,0.51416,-0.153381,0.819458
1470263037706082,0.198975,0.514282,-0.152832,0.820007
1470263037728602,0.197693,0.514343,-0.15155,0.820557
1470263037751122,0.197693,0.514465,-0.149963,0.820801
1470263037766136,0.198486,0.514343,-0.14856,0.820923
1470263037788155,0.199524,0.514099,-0.147339,0.821045
1470263037811176,0.200684,0.513672,-0.146362,0.821167
1470263037826189,0.201111,0.513184,-0.146301,0.821411
1470263037848209,0.201294,0.512756,-0.147034,0.821472
1470263037872231,0.202087,0.512512,-0.148315,0.821228
1470263037885742,0.203857,0.512146,-0.14978,0.82074
1470263037908263,0.205933,0.511597,-0.151489,0.820251
1470263037931284,0.208374,0.510986,-0.153076,0.819763
1470263037945296,0.213501,0.510315,-0.155029,0.818481
1470263037968317,0.222229,0.51001,-0.157776,0.815796
1470263037997343,0.23053,0.503296,-0.162598,0.816711
1470263038012399,0.239014,0.500549,-0.1745,0.813477
1470263038028371,0.248291,0.491821,-0.188904,0.812805
1470263038050893,0.250977,0.483337,-0.20813,0.812378
1470263038072411,0.248108,0.474548,-0.230957,0.812256
1470263038088425,0.241516,0.464417,-0.25647,0.8125
1470263038110949,0.233459,0.453613,-0.285278,0.81134
1470263038131964,0.224792,0.441833,-0.318054,0.808105
1470263038148478,0.214294,0.427795,-0.35321,0.803894
1470263038171001,0.199036,0.412109,-0.390381,0.798828
1470263038209037,0.178467,0.396118,-0.427917,0.79248
1470263038211565,0.153748,0.380493,-0.463501,0.785278
1470263038231068,0.12439,0.367004,-0.496216,0.776855
1470263038252073,0.0944214,0.355164,-0.52832,0.765381
1470263038268588,0.0682373,0.343567,-0.559937,0.750854
1470263038291109,0.0474854,0.332031,-0.588928,0.735291
1470263038312127,0.0302734,0.321533,-0.613586,0.72052
1470263038328640,0.0134277,0.314209,-0.634705,0.705872
1470263038351161,-0.00341797,0.312988,-0.652344,0.690247
1470263038372183,-0.0153809,0.314331,-0.667175,0.67511
1470263038388695,-0.0239258,0.314636,-0.680664,0.661133
1470263038411214,-0.0309448,0.312317,-0.693909,0.648071
1470263038432233,-0.0400391,0.310303,-0.706177,0.635132
1470263038448748,-0.0495605,0.311096,-0.71582,0.623169
1470263038470768,-0.0577393,0.31427,-0.722107,0.613586
1470263038492288,-0.0631104,0.317017,-0.726379,0.606506
1470263038508301,-0.0673828,0.319092,-0.730042,0.600586
1470263038530823,-0.0723877,0.320618,-0.733521,0.59491
1470263038551842,-0.0766602,0.320679,-0.736694,0.590393
1470263038575863,-0.0790405,0.319397,-0.739258,0.587524
1470263038596881,-0.0805664,0.318481,-0.740906,0.585754
1470263038612395,-0.0825195,0.318542,-0.74176,0.584412
1470263038627910,-0.085144,0.319092,-0.742371,0.582947
1470263038650930,-0.0875854,0.31958,-0.743164,0.581299
1470263038673452,-0.0877075,0.319702,-0.744141,0.579956
1470263038687963,-0.0849609,0.319397,-0.7453,0.579041
1470263038710984,-0.081543,0.319092,-0.746155,0.578613
1470263038733505,-0.0797729,0.319397,-0.746277,0.578552
1470263038749519,-0.0802612,0.32074,-0.745361,0.578857
1470263038771538,-0.0804443,0.321838,-0.744446,0.579407
1470263038793560,-0.0787964,0.321533,-0.744751,0.579468
1470263038807571,-0.0759277,0.319641,-0.746094,0.579163
1470263038831092,-0.0734863,0.317566,-0.747498,0.578796
1470263038853616,-0.0719604,0.31604,-0.748596,0.578369
1470263038867625,-0.0714722,0.315857,-0.749023,0.578003
1470263038891646,-0.0717163,0.316711,-0.748901,0.577698
1470263038913165,-0.0720215,0.31781,-0.748474,0.577576
1470263038927693,-0.0718994,0.318054,-0.748474,0.577454
1470263038951199,-0.071106,0.317444,-0.748962,0.577271
1470263038973720,-0.0700684,0.316467,-0.749634,0.577026
1470263038987746,-0.0692749,0.31604,-0.750183,0.576721
1470263039010753,-0.0687256,0.31604,-0.750366,0.576477
1470263039033291,-0.0684204,0.316345,-0.750427,0.576294
1470263039047786,-0.0684204,0.316711,-0.750366,0.576172
1470263039072808,-0.0684204,0.316711,-0.750366,0.576172
1470263039093327,-0.0684204,0.316772,-0.750366,0.576172
1470263039107841,-0.0681152,0.316772,-0.750427,0.576111
1470263039130861,-0.0679321,0.316956,-0.750427,0.575989
1470263039153382,-0.0679932,0.317383,-0.750305,0.575867
1470263039174400,-0.0680542,0.31781,-0.750183,0.575867
1470263039190914,-0.0679932,0.318176,-0.749939,0.575989
1470263039213435,-0.0680542,0.318481,-0.749695,0.576111
1470263039241960,-0.0679321,0.318481,-0.749573,0.576294
1470263039250969,-0.067627,0.318176,-0.749512,0.576538
1470263039279494,-0.0674438,0.317688,-0.749451,0.576904
1470263039294508,-0.0673828,0.3172,-0.749329,0.577393
1470263039311023,-0.0674438,0.316589,-0.749146,0.577942
1470263039333544,-0.0675659,0.315918,-0.748901,0.578552
1470263039354562,-0.0673828,0.314575,-0.748962,0.579285
1470263039371077,-0.0668335,0.31311,-0.749084,0.580017
1470263039393597,-0.0669556,0.312378,-0.74884,0.580688
1470263039414615,-0.0685425,0.312805,-0.748169,0.581116
1470263039431130,-0.0727539,0.314697,-0.746765,0.581421
1470263039453152,-0.0808105,0.319458,-0.743652,0.581665
1470263039474750,-0.0910645,0.329346,-0.738525,0.581238
1470263039491184,-0.0994263,0.340759,-0.732544,0.580811
1470263039513704,-0.101685,0.349487,-0.726868,0.582397
1470263039534765,-0.0941772,0.353516,-0.722046,0.587158
1470263039550238,-0.0791626,0.35553,-0.717285,0.593994
1470263039573759,-0.0621948,0.360291,-0.709351,0.6026
1470263039594777,-0.0474854,0.371216,-0.696411,0.612305
1470263039610293,-0.0334473,0.385437,-0.680542,0.622253
1470263039633812,-0.0158081,0.397034,-0.664063,0.633362
1470263039655832,0.00622559,0.40509,-0.64801,0.644958
1470263039670346,0.0304565,0.411072,-0.63208,0.656128
1470263039693366,0.0551758,0.416199,-0.615295,0.667175
1470263039715886,0.0801392,0.420044,-0.598267,0.677612
1470263039730401,0.104797,0.422424,-0.581177,0.687561
1470263039753420,0.127258,0.423828,-0.564209,0.697021
1470263039775940,0.146545,0.424622,-0.547729,0.705811
1470263039790452,0.163269,0.424133,-0.532593,0.713928
1470263039813488,0.17804,0.421875,-0.519592,0.721313
1470263039835994,0.190186,0.418579,-0.509033,0.727661
1470263039850006,0.199829,0.414001,-0.500244,0.733765
1470263039873528,0.206238,0.408447,-0.49292,0.740051
1470263039896048,0.208069,0.402893,-0.486877,0.746521
1470263039917112,0.204468,0.398438,-0.482056,0.752991
1470263039933581,0.197449,0.394958,-0.478516,0.758972
1470263039956102,0.190063,0.391479,-0.476929,0.763611
1470263039977120,0.183716,0.388,-0.477295,0.766724
1470263039993636,0.178162,0.385132,-0.478516,0.768677
1470263040016156,0.172852,0.383301,-0.480042,0.769897
1470263040037179,0.167725,0.382507,-0.481812,0.770264
1470263040053689,0.162903,0.382507,-0.483765,0.770081
1470263040077210,0.159424,0.382629,-0.485718,0.769531
1470263040097229,0.158142,0.382568,-0.487671,0.768616
1470263040113743,0.158752,0.38269,-0.489258,0.767456
1470263040136764,0.159363,0.383362,-0.490051,0.766479
1470263040157282,0.159241,0.384583,-0.490112,0.765808
1470263040180804,0.159119,0.385925,-0.489929,0.76532
1470263040195817,0.159851,0.386841,-0.489868,0.764709
1470263040217336,0.161194,0.387268,-0.489807,0.764221
1470263040241358,0.162476,0.387634,-0.489868,0.763794
1470263040263878,0.163879,0.387878,-0.489929,0.763306
1470263040276889,0.165222,0.388245,-0.489929,0.762817
1470263040293905,0.166321,0.388611,-0.489807,0.762451
1470263040315925,0.167297,0.389099,-0.489624,0.762085
1470263040336945,0.168457,0.389526,-0.489685,0.761597
1470263040353459,0.169373,0.389832,-0.489929,0.761108
1470263040375979,0.169739,0.390381,-0.490234,0.760498
1470263040396997,0.170105,0.390869,-0.490601,0.759949
1470263040413513,0.170471,0.391357,-0.491028,0.759338
1470263040436033,0.170959,0.391907,-0.491577,0.758606
1470263040457051,0.171448,0.392334,-0.492249,0.757874
1470263040474069,0.171753,0.392578,-0.493286,0.756958
1470263040496087,0.171875,0.3927,-0.494812,0.755859
1470263040517106,0.171631,0.392456,-0.497009,0.754578
1470263040532619,0.170837,0.392029,-0.500122,0.752991
1470263040556142,0.169067,0.391296,-0.504272,0.750977
1470263040578662,0.16571,0.390564,-0.509644,0.748474
1470263040592677,0.161804,0.389038,-0.516663,0.7453
1470263040616194,0.157715,0.38623,-0.525635,0.741394
1470263040638716,0.151672,0.38269,-0.536194,0.736877
1470263040653729,0.142761,0.378479,-0.548584,0.731689
1470263040676248,0.130371,0.373535,-0.562927,0.725647
1470263040698768,0.115173,0.368103,-0.578247,0.718872
1470263040712781,0.0960083,0.363281,-0.593506,0.71167
1470263040735802,0.0734863,0.359924,-0.608154,0.703674
1470263040758322,0.052063,0.356628,-0.622559,0.694641
1470263040772835,0.0339966,0.352417,-0.637268,0.684509
1470263040803362,0.0168457,0.34668,-0.652466,0.673645
1470263040818376,-0.00140381,0.342163,-0.666321,0.662537
1470263040840897,-0.0192261,0.339417,-0.67804,0.651672
1470263040855910,-0.0343628,0.337708,-0.688293,0.641113
1470263040878430,-0.0462646,0.335266,-0.698547,0.630432
1470263040899951,-0.0534058,0.33136,-0.708435,0.62085
1470263040915963,-0.0588989,0.328491,-0.71637,0.612671
1470263040938484,-0.0638428,0.327576,-0.722229,0.605774
1470263040959502,-0.0679932,0.327637,-0.726807,0.599854
1470263040976019,-0.0718384,0.328186,-0.73053,0.594543
1470263040998538,-0.0760498,0.329163,-0.733276,0.590088
1470263041019558,-0.0806274,0.330811,-0.735291,0.585938
1470263041036072,-0.0847168,0.332825,-0.736694,0.58252
1470263041058592,-0.0876465,0.3349,-0.737305,0.580139
1470263041080111,-0.0891113,0.337341,-0.737305,0.578491
1470263041096125,-0.0892334,0.339905,-0.736877,0.577454
1470263041118646,-0.0888672,0.342468,-0.736206,0.576843
1470263041139665,-0.0888672,0.34491,-0.735413,0.576477
1470263041156178,-0.0892334,0.346863,-0.734741,0.576111
1470263041184705,-0.0898438,0.348145,-0.734375,0.575623
1470263041199723,-0.0899048,0.34845,-0.73468,0.575134
1470263041215732,-0.0895386,0.347778,-0.735107,0.575012
1470263041238753,-0.0889282,0.346741,-0.735596,0.575073
1470263041259772,-0.0880737,0.345459,-0.736084,0.575317
1470263041275787,-0.086731,0.344055,-0.736572,0.575806
1470263041298807,-0.0852051,0.342407,-0.736816,0.576721
1470263041319325,-0.0839233,0.341125,-0.736877,0.577515
1470263041350854,-0.0825195,0.340088,-0.737061,0.578125
1470263041358361,-0.0808105,0.338745,-0.737671,0.578369
1470263041379408,-0.0788574,0.337036,-0.738708,0.578308
1470263041395895,-0.0774536,0.335876,-0.739563,0.578125
1470263041418425,-0.0769653,0.335388,-0.740112,0.57782
1470263041439435,-0.0773315,0.335388,-0.740356,0.577332
1470263041455449,-0.0778198,0.335388,-0.740601,0.577026
1470263041478469,-0.078064,0.335083,-0.740845,0.576843
1470263041499487,-0.0779419,0.334595,-0.741089,0.576904
1470263041516002,-0.0775146,0.333923,-0.741272,0.577026
1470263041538525,-0.0767212,0.33313,-0.741577,0.577271
1470263041561043,-0.0758667,0.332581,-0.74176,0.577454
1470263041576057,-0.0748901,0.332092,-0.741882,0.577698
1470263041598576,-0.0739746,0.331726,-0.741882,0.578003
1470263041621097,-0.072937,0.33136,-0.741943,0.578308
1470263041636110,-0.0718384,0.330933,-0.742004,0.578613
1470263041658630,-0.0707397,0.330566,-0.742065,0.578796
1470263041681152,-0.0698853,0.330383,-0.742126,0.578979
1470263041695163,-0.0692139,0.330322,-0.742065,0.579163
1470263041718686,-0.0684814,0.330078,-0.742065,0.579346
1470263041741204,-0.0680542,0.329834,-0.742126,0.579468
1470263041755232,-0.067688,0.32959,-0.742126,0.579712
1470263041778737,-0.0673828,0.329468,-0.742004,0.579956
1470263041801259,-0.0670776,0.32959,-0.741821,0.580139
1470263041815271,-0.0668335,0.329773,-0.741638,0.580261
1470263041838292,-0.0667114,0.330017,-0.741455,0.580383
1470263041860812,-0.0665283,0.330078,-0.741394,0.580505
1470263041875325,-0.0662842,0.330017,-0.741272,0.580688
1470263041898345,-0.065979,0.329773,-0.741211,0.580933
1470263041928373,-0.0657349,0.32959,-0.741211,0.581116
1470263041935379,-0.0656738,0.329529,-0.741211,0.581116
1470263041958400,-0.0656738,0.329529,-0.741211,0.581116
1470263041988427,-0.0656738,0.329712,-0.74115,0.581116
1470263041995433,-0.0657349,0.329834,-0.741089,0.581116
1470263042018453,-0.0657349,0.329834,-0.741089,0.581116
1470263042040974,-0.0657349,0.329834,-0.741089,0.581116
1470263042061995,-0.0656738,0.329834,-0.741089,0.581116
1470263042078507,-0.0656738,0.329834,-0.741089,0.581116
1470263042101029,-0.0656738,0.329834,-0.741089,0.581116
1470263042122047,-0.0656128,0.329834,-0.741089,0.581116
1470263042138561,-0.0656128,0.329834,-0.741089,0.581116
1470263042161081,-0.0656128,0.329834,-0.741028,0.581116
1470263042182190,-0.0655518,0.329834,-0.741028,0.581177
1470263042198615,-0.0655518,0.329834,-0.741028,0.581177
1470263042228642,-0.0655518,0.329834,-0.741028,0.581177
1470263042242185,-0.0655518,0.329834,-0.741028,0.581177
1470263042249170,-0.0654907,0.329895,-0.741028,0.581177
1470263042264174,-0.0654907,0.329895,-0.741028,0.581177
1470263042286207,-0.0654907,0.329895,-0.741028,0.581177
1470263042309214,-0.0654297,0.329834,-0.741028,0.581177
1470263042331266,-0.0655518,0.330017,-0.740967,0.581177
1470263042346278,-0.0654907,0.330017,-0.740967,0.581177
1470263042369311,-0.0654907,0.329956,-0.740967,0.581238
1470263042384303,-0.0654907,0.329956,-0.740967,0.581238
1470263042406302,-0.0654907,0.330017,-0.741089,0.580994
1470263042428823,-0.0656128,0.330383,-0.74115,0.580688
1470263042443837,-0.0658569,0.330811,-0.741028,0.580627
1470263042466385,-0.0658569,0.330872,-0.741028,0.580627
1470263042488876,-0.0656128,0.33075,-0.741028,0.580627
1470263042503910,-0.0653687,0.330505,-0.741028,0.580811
1470263042526428,-0.0651245,0.3302,-0.74115,0.580933
1470263042548973,-0.0649414,0.329895,-0.741211,0.580994
1470263042564028,-0.0649414,0.329834,-0.741211,0.580994
1470263042586493,-0.0648804,0.329834,-0.741211,0.580994
1470263042609017,-0.0646973,0.329712,-0.741333,0.580994
1470263042623999,-0.0646362,0.329712,-0.741333,0.580994
1470263042646519,-0.0646362,0.329712,-0.741333,0.580994
1470263042669048,-0.0646362,0.329712,-0.741333,0.580994
1470263042684102,-0.0646973,0.329895,-0.74115,0.581116
