timestamp,roll,pitch,yaw
1470345171734824,-0.484971,-0.0881358,-0.832357
1470345171748835,-0.484326,-0.0880847,-0.83274
1470345171772363,-0.484873,-0.0881085,-0.832898
1470345171794383,-0.485564,-0.0884473,-0.833006
1470345171808395,-0.485564,-0.0884473,-0.833006
1470345171832418,-0.48557,-0.0884764,-0.833152
1470345171854457,-0.485265,-0.0881553,-0.83291
1470345171868469,-0.48485,-0.087843,-0.832954
1470345171892491,-0.484652,-0.0873346,-0.832917
1470345171914510,-0.484354,-0.0870426,-0.83282
1470345171928523,-0.483822,-0.08671,-0.833005
1470345171952076,-0.483945,-0.0867592,-0.833009
1470345171975096,-0.484787,-0.0867735,-0.833208
1470345171989110,-0.485506,-0.0867387,-0.833402
1470345172012128,-0.48598,-0.0866055,-0.833586
1470345172034658,-0.48598,-0.0866055,-0.833586
1470345172055682,-0.48598,-0.0866055,-0.833586
1470345172071696,-0.486575,-0.0868881,-0.833723
1470345172094719,-0.487131,-0.0871199,-0.833535
1470345172115737,-0.487157,-0.0871127,-0.833569
1470345172131751,-0.487157,-0.0871127,-0.833569
1470345172154785,-0.487131,-0.0871199,-0.833535
1470345172175803,-0.487226,-0.0868446,-0.832937
1470345172191819,-0.487869,-0.0864697,-0.831949
1470345172214841,-0.489298,-0.0861567,-0.830473
1470345172235866,-0.490322,-0.0866779,-0.82861
1470345172251887,-0.489321,-0.087569,-0.827519
1470345172274908,-0.486854,-0.0877547,-0.827155
1470345172295927,-0.485708,-0.0882141,-0.827268
1470345172311941,-0.487179,-0.0889799,-0.827201
1470345172334972,-0.488755,-0.0894643,-0.827302
1470345172355564,-0.488742,-0.0895299,-0.82756
1470345172371578,-0.487845,-0.0894478,-0.827824
1470345172394600,-0.487845,-0.0894478,-0.827824
1470345172415619,-0.488495,-0.0895559,-0.828099
1470345172431632,-0.489115,-0.0897361,-0.828232
1470345172454081,-0.489238,-0.0897852,-0.828237
1470345172475099,-0.488299,-0.0895924,-0.827519
1470345172492116,-0.487487,-0.0890529,-0.826346
1470345172515137,-0.487396,-0.0882045,-0.825455
1470345172537161,-0.48713,-0.0876883,-0.824442
1470345172551751,-0.486853,-0.0869652,-0.823775
1470345172574772,-0.487721,-0.0864785,-0.823512
1470345172596791,-0.490106,-0.0864989,-0.824216
1470345172611805,-0.49295,-0.0870916,-0.825222
1470345172634827,-0.494701,-0.0876415,-0.82591
1470345172657358,-0.495278,-0.0879593,-0.826159
1470345172671372,-0.494577,-0.087718,-0.826453
1470345172694392,-0.49412,-0.0869061,-0.826755
1470345172718413,-0.493457,-0.0864974,-0.826789
1470345172731426,-0.493383,-0.0863403,-0.826815
1470345172754955,-0.493346,-0.0865074,-0.827074
1470345172777476,-0.492733,-0.0869311,-0.827052
1470345172791487,-0.491999,-0.0873996,-0.82706
1470345172815008,-0.491999,-0.0873996,-0.82706
1470345172836603,-0.49276,-0.0877396,-0.82645
1470345172851617,-0.49297,-0.0878794,-0.826171
1470345172874636,-0.49175,-0.0878159,-0.82636
1470345172896657,-0.49113,-0.0877606,-0.826774
1470345172911670,-0.49113,-0.0877606,-0.826774
1470345172934201,-0.49206,-0.0872564,-0.827345
1470345172957221,-0.493361,-0.0868998,-0.827933
1470345172971233,-0.493702,-0.086511,-0.828461
1470345172994259,-0.494006,-0.0861642,-0.828701
1470345173017306,-0.494006,-0.0861642,-0.828701
1470345173038124,-0.493656,-0.0861056,-0.829122
1470345173054127,-0.493526,-0.0860272,-0.828972
1470345173077081,-0.493699,-0.085968,-0.829007
1470345173098103,-0.492589,-0.0862593,-0.828854
1470345173114132,-0.491088,-0.086232,-0.828779
1470345173137172,-0.490318,-0.086376,-0.828554
1470345173159191,-0.490114,-0.0865069,-0.828376
1470345173174205,-0.490114,-0.0865069,-0.828376
1470345173197226,-0.490438,-0.0866976,-0.828469
1470345173218251,-0.491225,-0.0867896,-0.828494
1470345173234268,-0.492088,-0.0867663,-0.828582
1470345173257289,-0.492211,-0.0868152,-0.828587
1470345173278309,-0.492211,-0.0868152,-0.828587
1470345173294321,-0.492185,-0.0868225,-0.828554
1470345173317349,-0.492308,-0.0868715,-0.828559
1470345173338376,-0.492308,-0.0868715,-0.828559
1470345173354388,-0.492308,-0.0868715,-0.828559
1470345173377410,-0.492308,-0.0868715,-0.828559
1470345173398486,-0.492308,-0.0868715,-0.828559
1470345173414480,-0.492151,-0.086592,-0.828355
1470345173436616,-0.49138,-0.0867361,-0.828129
1470345173459589,-0.490837,-0.0870147,-0.828025
1470345173473601,-0.490831,-0.0869854,-0.82788
1470345173496675,-0.491004,-0.0869262,-0.827915
1470345173519650,-0.491328,-0.0871168,-0.828009
1470345173534484,-0.491954,-0.0873267,-0.828289
1470345173557504,-0.491954,-0.0873267,-0.828289
1470345173579526,-0.492077,-0.0873756,-0.828293
1470345173600544,-0.492077,-0.0873756,-0.828293
1470345173617621,-0.492077,-0.0873756,-0.828293
1470345173639645,-0.4922,-0.0874246,-0.828298
1470345173653658,-0.4922,-0.0874246,-0.828298
1470345173676681,-0.4922,-0.0874246,-0.828298
1470345173699704,-0.4922,-0.0874246,-0.828298
1470345173713753,-0.491807,-0.0873786,-0.828286
1470345173736844,-0.491284,-0.0872543,-0.828124
1470345173766851,-0.491284,-0.0872543,-0.828124
1470345173773855,-0.491284,-0.0872543,-0.828124
1470345173796884,-0.491007,-0.0872281,-0.827971
1470345173819938,-0.491007,-0.0872281,-0.827971
1470345173834008,-0.49113,-0.087277,-0.827976
1470345173857027,-0.49113,-0.087277,-0.827976
1470345173879075,-0.491253,-0.087326,-0.827981
1470345173894061,-0.491253,-0.087326,-0.827981
1470345173917086,-0.491253,-0.087326,-0.827981
1470345173939155,-0.491351,-0.0873822,-0.827953
1470345173961176,-0.491351,-0.0873822,-0.827953
1470345173977190,-0.491351,-0.0873822,-0.827953
1470345174000211,-0.491351,-0.0873822,-0.827953
1470345174021241,-0.491351,-0.0873822,-0.827953
1470345174044386,-0.49105,-0.0874569,-0.827803
1470345174059360,-0.490717,-0.0875095,-0.827475
1470345174080396,-0.490514,-0.0876405,-0.827297
1470345174097362,-0.490364,-0.0879652,-0.827206
1470345174119890,-0.490364,-0.0879652,-0.827206
1470345174140385,-0.490414,-0.0878569,-0.827236
1470345174157342,-0.49109,-0.0879582,-0.827546
1470345174179363,-0.491593,-0.0881189,-0.82782
1470345174200381,-0.491716,-0.0881679,-0.827825
1470345174217407,-0.491716,-0.0881679,-0.827825
1470345174239473,-0.49169,-0.0881751,-0.827792
1470345174260494,-0.491814,-0.088224,-0.827797
1470345174277481,-0.491737,-0.0887058,-0.82768
1470345174299484,-0.491614,-0.0886568,-0.827675
1470345174322544,-0.49109,-0.088899,-0.82746
1470345174337344,-0.490611,-0.0890039,-0.82713
1470345174359360,-0.490097,-0.0885123,-0.826654
1470345174381380,-0.488498,-0.0868168,-0.824996
1470345174397394,-0.48818,-0.0857105,-0.823438
1470345174420925,-0.488345,-0.0849236,-0.822814
1470345174441952,-0.488468,-0.0849723,-0.822819
1470345174456966,-0.48904,-0.0846201,-0.823065
1470345174479983,-0.489736,-0.0843168,-0.823316
1470345174502018,-0.491292,-0.0842607,-0.823567
1470345174517526,-0.493358,-0.0836951,-0.823726
1470345174540049,-0.495812,-0.0827797,-0.823811
1470345174562069,-0.497977,-0.0822711,-0.823949
1470345174576082,-0.499042,-0.0823881,-0.82413
1470345174600105,-0.498548,-0.0825591,-0.824053
1470345174622631,-0.497039,-0.0825051,-0.823828
1470345174636149,-0.495848,-0.0829782,-0.823497
1470345174659173,-0.49459,-0.0835652,-0.822737
1470345174682190,-0.493359,-0.0834138,-0.822121
1470345174696214,-0.491939,-0.0830871,-0.821671
1470345174719730,-0.491098,-0.0828042,-0.821559
1470345174741920,-0.491091,-0.082775,-0.821415
1470345174756935,-0.491214,-0.0828235,-0.82142
1470345174779955,-0.490851,-0.0829491,-0.820949
1470345174801991,-0.490069,-0.0834041,-0.820379
1470345174825001,-0.488645,-0.0841148,-0.820246
1470345174839521,-0.487918,-0.0848877,-0.820311
1470345174861591,-0.487868,-0.0849962,-0.82028
1470345174876553,-0.488784,-0.0851624,-0.820454
1470345174901577,-0.489719,-0.0849259,-0.820569
1470345174922606,-0.490272,-0.0849762,-0.820874
1470345174943630,-0.489749,-0.084854,-0.820712
1470345174959649,-0.488503,-0.0844692,-0.820299
1470345174982673,-0.487315,-0.0836097,-0.819605
1470345175003685,-0.487576,-0.0828786,-0.818954
1470345175019766,-0.487872,-0.0827434,-0.818448
1470345175041762,-0.487872,-0.0827434,-0.818448
1470345175062810,-0.488044,-0.0826833,-0.818484
1470345175079796,-0.488044,-0.0826833,-0.818484
1470345175101818,-0.488044,-0.0826833,-0.818484
1470345175123363,-0.488781,-0.0828796,-0.818478
1470345175139481,-0.488781,-0.0828796,-0.818478
1470345175162500,-0.489112,-0.0834641,-0.818663
1470345175183519,-0.489096,-0.0844412,-0.818688
1470345175199533,-0.48808,-0.0852554,-0.818857
1470345175222057,-0.488203,-0.0853039,-0.818862
1470345175243114,-0.487773,-0.085303,-0.818563
1470345175259096,-0.488425,-0.0850116,-0.818381
1470345175282116,-0.488548,-0.08506,-0.818386
1470345175303137,-0.488548,-0.08506,-0.818386
1470345175319677,-0.48856,-0.0853908,-0.818587
1470345175342204,-0.487478,-0.0853146,-0.818523
1470345175364225,-0.487092,-0.0845371,-0.818252
1470345175379306,-0.487371,-0.0841656,-0.817946
1470345175402261,-0.488448,-0.0838161,-0.817409
1470345175430793,-0.489175,-0.0834088,-0.817291
1470345175439338,-0.489175,-0.0834088,-0.817291
1470345175462325,-0.489728,-0.083458,-0.817596
1470345175484345,-0.490876,-0.0839338,-0.817401
1470345175499358,-0.491898,-0.0844258,-0.817093
1470345175522467,-0.492143,-0.0854337,-0.81687
1470345175544159,-0.491939,-0.086477,-0.81646
1470345175559173,-0.491282,-0.0871065,-0.816443
1470345175582194,-0.490096,-0.0868222,-0.815718
1470345175604252,-0.490664,-0.0864087,-0.815308
1470345175619328,-0.490837,-0.0863485,-0.815343
1470345175641856,-0.490724,-0.0859922,-0.815681
1470345175647870,-0.490864,-0.0860342,-0.816084
1470345175669880,-0.490821,-0.086172,-0.816198
1470345175686896,-0.490648,-0.0855931,-0.816306
1470345175707914,-0.490841,-0.0848576,-0.816372
1470345175730440,-0.491089,-0.0839183,-0.816069
1470345175745977,-0.491372,-0.0838478,-0.81582
1470345175767986,-0.491372,-0.0838478,-0.81582
1470345175790006,-0.491489,-0.0838667,-0.81568
1470345175806020,-0.491489,-0.0838667,-0.81568
1470345175828197,-0.491539,-0.0837582,-0.815711
1470345175850193,-0.491539,-0.0837582,-0.815711
1470345175866165,-0.491158,-0.0836489,-0.815442
1470345175887240,-0.490833,-0.083733,-0.81526
1470345175910222,-0.491312,-0.0841397,-0.814901
1470345175926757,-0.491435,-0.0848268,-0.814763
1470345175947282,-0.491225,-0.0853266,-0.814897
1470345175970347,-0.491176,-0.0854351,-0.814866
1470345175995326,-0.492081,-0.0852682,-0.81484
1470345176007427,-0.492254,-0.0852079,-0.814876
1470345176030439,-0.492093,-0.0846881,-0.815273
1470345176046507,-0.492534,-0.0850201,-0.815772
1470345176067526,-0.492459,-0.0851358,-0.815708
1470345176090546,-0.491949,-0.0850734,-0.815835
1470345176106561,-0.49126,-0.0847695,-0.815872
1470345176128099,-0.490726,-0.0843175,-0.81551
1470345176149618,-0.490772,-0.0835106,-0.815029
1470345176166630,-0.490571,-0.0832462,-0.814396
1470345176187730,-0.48965,-0.0832959,-0.813478
1470345176209701,-0.489098,-0.0829755,-0.813264
1470345176226693,-0.489092,-0.0829463,-0.813119
1470345176247560,-0.490236,-0.0828455,-0.812959
1470345176269600,-0.491016,-0.082902,-0.81284
1470345176286560,-0.492117,-0.0825724,-0.812848
1470345176307579,-0.493212,-0.082977,-0.813114
1470345176330193,-0.493809,-0.0835264,-0.81316
1470345176347675,-0.493808,-0.0839238,-0.813616
1470345176367749,-0.493144,-0.0838858,-0.813595
1470345176389717,-0.493882,-0.0840804,-0.81359
1470345176407729,-0.493882,-0.0840804,-0.81359
1470345176427877,-0.493641,-0.0840137,-0.813724
1470345176450475,-0.493001,-0.0838743,-0.813702
1470345176467490,-0.493001,-0.0838743,-0.813702
1470345176487570,-0.492675,-0.0839585,-0.813519
1470345176510529,-0.492074,-0.083746,-0.813274
1470345176528053,-0.491619,-0.0834806,-0.813031
1470345176548075,-0.49077,-0.0828058,-0.81283
1470345176570121,-0.491417,-0.0819385,-0.812685
1470345176588114,-0.492272,-0.081879,-0.81263
1470345176609131,-0.492014,-0.0820908,-0.812277
1470345176630218,-0.492014,-0.0820908,-0.812277
1470345176648324,-0.492063,-0.0819822,-0.812307
1470345176667309,-0.492617,-0.0820305,-0.812612
1470345176690301,-0.493546,-0.0824,-0.812442
1470345176708293,-0.493669,-0.082448,-0.812447
1470345176727870,-0.493224,-0.0825446,-0.812912
1470345176750444,-0.493581,-0.0827549,-0.813183
1470345176768461,-0.493754,-0.0833331,-0.813075
1470345176787519,-0.493533,-0.0841408,-0.812864
1470345176817507,-0.492598,-0.0846529,-0.812658
1470345176828091,-0.491227,-0.0849879,-0.812643
1470345176847711,-0.491079,-0.0853136,-0.812552
1470345176877738,-0.492035,-0.085676,-0.812413
1470345176887692,-0.492473,-0.0862198,-0.812169
1470345176908711,-0.492473,-0.0862198,-0.812169
1470345176930318,-0.492473,-0.0862198,-0.812169
1470345176947846,-0.493156,-0.0864929,-0.811987
1470345176968905,-0.493156,-0.0864929,-0.811987
1470345176989927,-0.493279,-0.086541,-0.811992
1470345177007900,-0.493279,-0.086541,-0.811992
1470345177029427,-0.493403,-0.0865891,-0.811997
1470345177049974,-0.493403,-0.0865891,-0.811997
1470345177067989,-0.493452,-0.0864806,-0.812028
1470345177089011,-0.493328,-0.0864325,-0.812023
1470345177110067,-0.493328,-0.0864325,-0.812023
1470345177128105,-0.49277,-0.0860825,-0.811664
1470345177149170,-0.492585,-0.0858119,-0.811429
1470345177170244,-0.492634,-0.0857033,-0.81146
1470345177188250,-0.492758,-0.0857514,-0.811465
1470345177209224,-0.493416,-0.0854869,-0.811429
1470345177230259,-0.493416,-0.0854869,-0.811429
1470345177248280,-0.493957,-0.0852039,-0.811534
1470345177270298,-0.494394,-0.0848362,-0.811522
1470345177290331,-0.494394,-0.0848362,-0.811522
1470345177308360,-0.494818,-0.0845348,-0.811766
1470345177330891,-0.494792,-0.0845421,-0.811733
1470345177350179,-0.494792,-0.0845421,-0.811733
1470345177368138,-0.494792,-0.0845421,-0.811733
1470345177390159,-0.494818,-0.0845348,-0.811766
1470345177410177,-0.494535,-0.0844811,-0.81147
1470345177428257,-0.494031,-0.0843243,-0.811197
1470345177450374,-0.493748,-0.0842707,-0.8109
1470345177470392,-0.493693,-0.0840775,-0.810815
1470345177488408,-0.493816,-0.0841255,-0.81082
1470345177510428,-0.494357,-0.0838424,-0.810925
1470345177530451,-0.495377,-0.0834512,-0.81136
1470345177548562,-0.495553,-0.0834517,-0.81205
1470345177570551,-0.494851,-0.0832153,-0.812341
1470345177589562,-0.49485,-0.0825767,-0.812486
1470345177608605,-0.495632,-0.0823606,-0.812457
1470345177630615,-0.495632,-0.0823606,-0.812457
1470345177650177,-0.495632,-0.0823606,-0.812457
1470345177668154,-0.494907,-0.0821,-0.812206
1470345177690172,-0.494286,-0.0817993,-0.811528
1470345177710190,-0.494182,-0.0813172,-0.810957
1470345177728214,-0.49401,-0.0809804,-0.810467
1470345177750271,-0.494041,-0.0805113,-0.810155
1470345177770287,-0.494164,-0.0805592,-0.81016
1470345177788323,-0.494213,-0.0804506,-0.810191
1470345177810323,-0.494337,-0.0804985,-0.810196
1470345177830403,-0.494816,-0.0803901,-0.810527
1470345177848124,-0.495751,-0.0801495,-0.810647
1470345177870117,-0.496324,-0.0804334,-0.810751
1470345177891135,-0.496558,-0.0805956,-0.811017
1470345177908149,-0.496674,-0.081012,-0.811332
1470345177930781,-0.496822,-0.0815973,-0.811189
1470345177951329,-0.496822,-0.0815973,-0.811189
1470345177968380,-0.496822,-0.0815973,-0.811189
1470345177990364,-0.497531,-0.0818627,-0.811043
1470345178011417,-0.49758,-0.0817542,-0.811074
1470345178028462,-0.497057,-0.0813616,-0.811001
1470345178056667,-0.497106,-0.0812531,-0.811032
1470345178071678,-0.497181,-0.0814096,-0.811006
1470345178087692,-0.496989,-0.0812348,-0.811172
1470345178110713,-0.497038,-0.0811263,-0.811203
1470345178131736,-0.497598,-0.0804405,-0.811254
1470345178146846,-0.498152,-0.0794528,-0.811253
1470345178169864,-0.498533,-0.079164,-0.811069
1470345178190899,-0.49801,-0.0787713,-0.810996
1470345178206897,-0.497917,-0.0782539,-0.81068
1470345178229955,-0.49809,-0.0781932,-0.810717
1470345178252510,-0.49809,-0.0781932,-0.810717
1470345178266524,-0.498213,-0.0782411,-0.810722
1470345178289568,-0.498263,-0.0781326,-0.810754
1470345178312567,-0.497499,-0.0785846,-0.810577
1470345178333616,-0.497345,-0.0786082,-0.810429
1470345178349246,-0.497599,-0.079246,-0.809894
1470345178372248,-0.497765,-0.0800664,-0.80955
1470345178394271,-0.497601,-0.080795,-0.809512
1470345178409268,-0.496776,-0.0811502,-0.809652
1470345178432362,-0.496727,-0.0812588,-0.809621
1470345178446910,-0.497662,-0.081018,-0.809741
1470345178469928,-0.497835,-0.0809573,-0.809778
1470345178491993,-0.497495,-0.0804699,-0.809995
1470345178506010,-0.497924,-0.0798323,-0.810441
1470345178530019,-0.498897,-0.0795504,-0.81085
1470345178552045,-0.499223,-0.0794664,-0.811034
1470345178567059,-0.498632,-0.078947,-0.811132
1470345178589110,-0.498311,-0.0782966,-0.810694
1470345178612100,-0.49838,-0.0777525,-0.810162
1470345178626619,-0.498176,-0.0777588,-0.809439
1470345178649760,-0.497043,-0.0780358,-0.808739
1470345178671784,-0.495944,-0.0783355,-0.808216
1470345178686795,-0.494941,-0.0783252,-0.807722
1470345178710874,-0.495181,-0.0783912,-0.807588
1470345178732360,-0.496307,-0.0785963,-0.807454
1470345178753428,-0.497385,-0.0787631,-0.807923
1470345178769437,-0.497994,-0.0790044,-0.808313
1470345178792457,-0.498671,-0.0793727,-0.808534
1470345178813534,-0.499108,-0.0794029,-0.808978
1470345178830010,-0.499239,-0.0794803,-0.809127
1470345178851629,-0.499239,-0.0794803,-0.809127
1470345178873644,-0.499232,-0.0794506,-0.808983
1470345178889655,-0.499423,-0.0800236,-0.809271
1470345178911675,-0.499233,-0.0804873,-0.80929
1470345178933676,-0.498476,-0.0809694,-0.809258
1470345178949751,-0.497805,-0.0809029,-0.809092
1470345178971793,-0.497467,-0.0806559,-0.80871
1470345178992787,-0.49746,-0.0806263,-0.808566
1470345179009802,-0.49732,-0.0807092,-0.808707
1470345179032340,-0.49746,-0.0806263,-0.808566
1470345179052930,-0.497584,-0.0806741,-0.808571
1470345179069891,-0.497584,-0.0806741,-0.808571
1470345179091923,-0.497584,-0.0806741,-0.808571
1470345179112985,-0.497584,-0.0806741,-0.808571
1470345179130006,-0.497584,-0.0806741,-0.808571
1470345179151885,-0.497756,-0.0806133,-0.808608
1470345179174897,-0.497622,-0.0812705,-0.808712
1470345179189911,-0.497622,-0.0812705,-0.808712
1470345179211934,-0.497573,-0.081379,-0.808681
1470345179234958,-0.497622,-0.0812705,-0.808712
1470345179249975,-0.497622,-0.0812705,-0.808712
1470345179271994,-0.49753,-0.0811191,-0.808341
1470345179294036,-0.49742,-0.0810047,-0.80808
1470345179309066,-0.497051,-0.0812275,-0.80801
1470345179332641,-0.497025,-0.0812349,-0.807977
1470345179354293,-0.497699,-0.081667,-0.808087
1470345179369264,-0.497823,-0.0817148,-0.808092
1470345179392254,-0.497823,-0.0817148,-0.808092
1470345179414277,-0.49792,-0.0817699,-0.808064
1470345179429300,-0.49792,-0.0817699,-0.808064
1470345179452323,-0.49792,-0.0817699,-0.808064
1470345179474346,-0.498044,-0.0818177,-0.808069
1470345179489357,-0.497995,-0.0819263,-0.808038
1470345179512376,-0.497477,-0.0818364,-0.80802
1470345179541519,-0.497526,-0.0817278,-0.808051
1470345179548580,-0.497526,-0.0817278,-0.808051
1470345179572548,-0.497102,-0.0820297,-0.807805
1470345179600630,-0.496395,-0.0824038,-0.807807
1470345179608663,-0.495854,-0.0826876,-0.807701
1470345179632610,-0.495616,-0.082988,-0.80778
1470345179654333,-0.49559,-0.0829952,-0.807747
1470345179675354,-0.495714,-0.083043,-0.807752
1470345179692375,-0.495714,-0.083043,-0.807752
1470345179720447,-0.495548,-0.0831334,-0.80786
1470345179735967,-0.495085,-0.0832368,-0.807927
1470345179752529,-0.495085,-0.0832368,-0.807927
1470345179774547,-0.495209,-0.0832845,-0.807932
1470345179795568,-0.494854,-0.0838389,-0.808062
1470345179818592,-0.49486,-0.0838684,-0.808206
1470345179835133,-0.494264,-0.0842314,-0.807926
1470345179855718,-0.493792,-0.08437,-0.807741
1470345179871730,-0.493265,-0.0845881,-0.807381
1470345179894729,-0.492713,-0.0848134,-0.806988
1470345179915788,-0.492518,-0.0849759,-0.806955
1470345179932348,-0.492518,-0.0849759,-0.806955
1470345179954913,-0.492641,-0.0850237,-0.80696
1470345179975931,-0.492739,-0.0850785,-0.806932
1470345179991985,-0.493217,-0.0849689,-0.807261
1470345180014967,-0.493812,-0.0846057,-0.80754
1470345180036020,-0.494069,-0.0843937,-0.807892
1470345180052022,-0.494251,-0.0840253,-0.808271
1470345180075041,-0.494401,-0.0836347,-0.808472
1470345180096090,-0.494782,-0.0834708,-0.80883
1470345180112076,-0.494782,-0.0834708,-0.80883
1470345180135100,-0.494739,-0.0836089,-0.808943
1470345180157126,-0.494739,-0.0836089,-0.808943
1470345180172137,-0.494733,-0.0835794,-0.808799
1470345180195157,-0.494376,-0.0830974,-0.808618
1470345180217178,-0.494548,-0.0830366,-0.808654
1470345180232195,-0.494522,-0.0830439,-0.808621
1470345180254767,-0.494646,-0.0830917,-0.808626
1470345180276787,-0.494646,-0.0830917,-0.808626
1470345180291801,-0.49477,-0.0831395,-0.808631
1470345180314821,-0.49477,-0.0831395,-0.808631
1470345180337369,-0.49477,-0.0831395,-0.808631
1470345180351985,-0.49477,-0.0831395,-0.808631
1470345180375006,-0.494893,-0.0831873,-0.808636
1470345180397026,-0.494893,-0.0831873,-0.808636
1470345180418074,-0.494893,-0.0831873,-0.808636
1470345180435120,-0.494893,-0.0831873,-0.808636
1470345180457696,-0.494893,-0.0831873,-0.808636
1470345180471709,-0.494893,-0.0831873,-0.808636
1470345180494760,-0.494874,-0.0828266,-0.808293
1470345180517751,-0.494783,-0.0826758,-0.807922
1470345180531808,-0.494783,-0.0826758,-0.807922
1470345180554833,-0.494783,-0.0826758,-0.807922
1470345180576862,-0.495386,-0.0824893,-0.807714
1470345180597914,-0.49551,-0.082537,-0.807719
1470345180614886,-0.495558,-0.0824284,-0.80775
1470345180637415,-0.495682,-0.0824762,-0.807755
1470345180658032,-0.496327,-0.082277,-0.807977
1470345180675004,-0.496943,-0.0821497,-0.808057
1470345180697029,-0.497066,-0.0821974,-0.808062
1470345180718047,-0.497109,-0.0820593,-0.807949
1470345180735088,-0.497109,-0.0820593,-0.807949
1470345180757032,-0.497109,-0.0820593,-0.807949
1470345180778051,-0.4968,-0.0817409,-0.80771
1470345180795066,-0.496461,-0.0814943,-0.807329
1470345180817085,-0.496198,-0.0811318,-0.807011
1470345180838666,-0.495785,-0.0807291,-0.806656
1470345180854752,-0.495925,-0.0803738,-0.806605
1470345180876772,-0.495925,-0.0803738,-0.806605
1470345180897846,-0.496049,-0.0804214,-0.80661
1470345180914806,-0.496098,-0.0803128,-0.806641
1470345180937388,-0.496222,-0.0803605,-0.806646
1470345180958500,-0.496222,-0.0803605,-0.806646
1470345180980522,-0.496222,-0.0803605,-0.806646
1470345180997534,-0.496368,-0.0803069,-0.80665
1470345181018603,-0.496368,-0.0803069,-0.80665
1470345181034139,-0.496492,-0.0803546,-0.806655
1470345181056762,-0.496492,-0.0803546,-0.806655
1470345181079755,-0.496485,-0.0803251,-0.806511
1470345181094757,-0.496085,-0.0799815,-0.806443
1470345181116773,-0.49587,-0.0797829,-0.806067
1470345181139857,-0.49574,-0.0797058,-0.805918
1470345181154887,-0.495593,-0.0797594,-0.805915
1470345181176907,-0.495691,-0.0798144,-0.805887
1470345181199928,-0.495691,-0.0798144,-0.805887
1470345181213941,-0.495815,-0.079862,-0.805892
1470345181237464,-0.495815,-0.079862,-0.805892
1470345181260002,-0.495815,-0.079862,-0.805892
1470345181274014,-0.495987,-0.079801,-0.805928
1470345181297036,-0.496111,-0.0798486,-0.805933
1470345181320094,-0.496111,-0.0798486,-0.805933
1470345181334159,-0.496111,-0.0798486,-0.805933
1470345181356783,-0.496235,-0.0798962,-0.805939
1470345181379818,-0.496209,-0.0799037,-0.805906
1470345181393817,-0.496375,-0.0798132,-0.805798
1470345181416871,-0.496375,-0.0798132,-0.805798
1470345181439866,-0.496375,-0.0798132,-0.805798
1470345181453982,-0.496498,-0.0798608,-0.805803
1470345181477952,-0.496547,-0.0797521,-0.805834
1470345181499975,-0.496547,-0.0797521,-0.805834
1470345181513985,-0.497231,-0.0797508,-0.805746
1470345181537529,-0.497231,-0.0797508,-0.805746
1470345181559216,-0.497355,-0.0797984,-0.805751
1470345181588224,-0.497452,-0.0798535,-0.805723
1470345181597208,-0.497452,-0.0798535,-0.805723
1470345181619236,-0.497625,-0.0797924,-0.805759
1470345181641286,-0.497749,-0.07984,-0.805764
1470345181657504,-0.497749,-0.07984,-0.805764
1470345181679524,-0.497749,-0.07984,-0.805764
1470345181700542,-0.497749,-0.07984,-0.805764
1470345181717559,-0.497798,-0.0797314,-0.805796
1470345181740135,-0.497638,-0.0797258,-0.805504
1470345181760711,-0.497306,-0.079509,-0.805267
1470345181776767,-0.49698,-0.0795942,-0.805083
1470345181799748,-0.49698,-0.0795942,-0.805083
1470345181820816,-0.497029,-0.0794855,-0.805115
1470345181837342,-0.497126,-0.0795406,-0.805087
1470345181859737,-0.497126,-0.0795406,-0.805087
1470345181880736,-0.49725,-0.0795881,-0.805092
1470345181896746,-0.497299,-0.0794795,-0.805123
1470345181919822,-0.497423,-0.0795271,-0.805128
1470345181940891,-0.497546,-0.0795746,-0.805134
1470345181956866,-0.497208,-0.0797263,-0.805205
1470345181979887,-0.497208,-0.0797263,-0.805205
1470345182001918,-0.497201,-0.0796968,-0.805061
1470345182016962,-0.497165,-0.0797389,-0.804775
1470345182040045,-0.496742,-0.0800414,-0.804529
1470345182062066,-0.496276,-0.0804823,-0.804396
1470345182077119,-0.495736,-0.0804948,-0.804379
1470345182100099,-0.49571,-0.0805021,-0.804346
1470345182122118,-0.495833,-0.0805497,-0.804352
1470345182143657,-0.495833,-0.0805497,-0.804352
1470345182159859,-0.495833,-0.0805497,-0.804352
1470345182181881,-0.495957,-0.0805972,-0.804357
1470345182204893,-0.495957,-0.0805972,-0.804357
1470345182219906,-0.495957,-0.0805972,-0.804357
1470345182242491,-0.495957,-0.0805972,-0.804357
1470345182257010,-0.496081,-0.0806448,-0.804362
1470345182280031,-0.496081,-0.0806448,-0.804362
1470345182302080,-0.496081,-0.0806448,-0.804362
1470345182316098,-0.496081,-0.0806448,-0.804362
1470345182340109,-0.496081,-0.0806448,-0.804362
1470345182362202,-0.496253,-0.0805836,-0.804398
1470345182376203,-0.496019,-0.0804222,-0.804133
1470345182399246,-0.496019,-0.0804222,-0.804133
1470345182422246,-0.496068,-0.0803135,-0.804164
1470345182436818,-0.49693,-0.0805522,-0.804165
1470345182459357,-0.49767,-0.0807436,-0.804161
1470345182482421,-0.497793,-0.0807911,-0.804166
1470345182503400,-0.498429,-0.0808978,-0.804046
1470345182519413,-0.498429,-0.0808978,-0.804046
1470345182542493,-0.498429,-0.0808978,-0.804046
1470345182563600,-0.498601,-0.0808367,-0.804082
1470345182579558,-0.498601,-0.0808367,-0.804082
1470345182602557,-0.498207,-0.0810676,-0.803978
1470345182623603,-0.497882,-0.0811529,-0.803795
1470345182640135,-0.497882,-0.0811529,-0.803795
1470345182661739,-0.497527,-0.0813099,-0.80347
1470345182683730,-0.496973,-0.0812634,-0.803165
1470345182699745,-0.496834,-0.0812213,-0.802764
1470345182721765,-0.496882,-0.0811126,-0.802795
1470345182743296,-0.49698,-0.0811674,-0.802767
1470345182759375,-0.497208,-0.081027,-0.802978
1470345182782396,-0.497032,-0.0804498,-0.803087
1470345182803447,-0.497034,-0.0798409,-0.803376
1470345182819468,-0.497086,-0.0793957,-0.803607
1470345182842533,-0.497393,-0.079075,-0.803992
1470345182863759,-0.497527,-0.0788156,-0.80434
1470345182879799,-0.497527,-0.0788156,-0.80434
1470345182901765,-0.497527,-0.0788156,-0.80434
1470345182922839,-0.497403,-0.0787681,-0.804335
1470345182939876,-0.497403,-0.0787681,-0.804335
1470345182962563,-0.497452,-0.0786594,-0.804366
1470345182984584,-0.497575,-0.0787069,-0.804372
1470345182999596,-0.49739,-0.0784367,-0.804138
1470345183022615,-0.49739,-0.0784367,-0.804138
1470345183051275,-0.497513,-0.0784842,-0.804143
1470345183060275,-0.498351,-0.0781858,-0.804293
1470345183082245,-0.498768,-0.0778538,-0.804396
1470345183104239,-0.499185,-0.0775218,-0.804499
1470345183119252,-0.499362,-0.0771245,-0.804736
1470345183142381,-0.499854,-0.0769488,-0.804814
1470345183164452,-0.500297,-0.0768817,-0.80486
1470345183179448,-0.500421,-0.0769292,-0.804865
1470345183202468,-0.500421,-0.0769292,-0.804865
1470345183224488,-0.500169,-0.0771702,-0.804654
1470345183239511,-0.500133,-0.0774842,-0.804278
1470345183262536,-0.500133,-0.0774842,-0.804278
1470345183284557,-0.499992,-0.0774412,-0.803875
1470345183298672,-0.499757,-0.0772794,-0.80361
1470345183322624,-0.499529,-0.0771473,-0.803489
1470345183344680,-0.499653,-0.0771947,-0.803494
1470345183358694,-0.499653,-0.0771947,-0.803494
1470345183381773,-0.499653,-0.0771947,-0.803494
1470345183405737,-0.499412,-0.0771295,-0.803627
1470345183418749,-0.499412,-0.0771295,-0.803627
1470345183442308,-0.499412,-0.0771295,-0.803627
1470345183472870,-0.499536,-0.0771769,-0.803633
1470345183474921,-0.499536,-0.0771769,-0.803633
1470345183487881,-0.499611,-0.077333,-0.803606
1470345183507960,-0.499487,-0.0772856,-0.803601
1470345183529918,-0.499536,-0.0771769,-0.803633
1470345183547738,-0.499659,-0.0772244,-0.803638
1470345183567758,-0.499382,-0.0772009,-0.803485
1470345183589817,-0.498864,-0.0771122,-0.803465
1470345183607791,-0.498907,-0.076974,-0.803353
1470345183627810,-0.498907,-0.076974,-0.803353
1470345183649907,-0.49903,-0.0770214,-0.803358
1470345183667921,-0.49903,-0.0770214,-0.803358
1470345183687979,-0.49903,-0.0770214,-0.803358
1470345183711070,-0.499079,-0.0769128,-0.80339
1470345183727973,-0.499203,-0.0769602,-0.803395
1470345183748160,-0.499203,-0.0769602,-0.803395
1470345183770132,-0.499327,-0.0770076,-0.803401
1470345183788149,-0.499327,-0.0770076,-0.803401
1470345183808166,-0.499282,-0.0767801,-0.803569
1470345183830198,-0.499823,-0.0764954,-0.803678
1470345183847977,-0.499823,-0.0764954,-0.803678
1470345183867997,-0.499112,-0.0758344,-0.803372
1470345183890031,-0.49902,-0.075683,-0.803001
1470345183908032,-0.499238,-0.074749,-0.802676
1470345183928051,-0.499557,-0.0742357,-0.802266
1470345183949770,-0.499784,-0.0739692,-0.801937
1470345183967786,-0.499838,-0.0734916,-0.801662
1470345183987806,-0.499838,-0.0734916,-0.801662
1470345184009847,-0.500434,-0.0732737,-0.801316
1470345184027844,-0.500557,-0.0733209,-0.801321
1470345184047942,-0.500557,-0.0733209,-0.801321
1470345184070021,-0.50073,-0.0732595,-0.801359
1470345184087955,-0.501032,-0.0731486,-0.801004
1470345184107989,-0.502405,-0.0730455,-0.800436
1470345184130035,-0.504278,-0.0730672,-0.800001
1470345184147881,-0.504109,-0.073494,-0.799905
1470345184167943,-0.502648,-0.0733489,-0.799705
1470345184189919,-0.501969,-0.0732556,-0.799393
1470345184207935,-0.502093,-0.0733027,-0.799399
1470345184227991,-0.501823,-0.0735817,-0.799297
1470345184250092,-0.501878,-0.073775,-0.799382
1470345184268057,-0.501719,-0.0738959,-0.799631
1470345184288074,-0.501805,-0.074018,-0.799857
1470345184311095,-0.501929,-0.0740652,-0.799863
1470345184328114,-0.501929,-0.0740652,-0.799863
1470345184348173,-0.501978,-0.0739565,-0.799895
1470345184373199,-0.502101,-0.0740037,-0.7999
1470345184388211,-0.502101,-0.0740037,-0.7999
1470345184407227,-0.502101,-0.0740037,-0.7999
1470345184430253,-0.502101,-0.0740037,-0.7999
1470345184448278,-0.501367,-0.0737171,-0.799504
1470345184467384,-0.500687,-0.0732254,-0.798743
1470345184490316,-0.500656,-0.0728982,-0.798151
1470345184512337,-0.500905,-0.0725301,-0.797822
1470345184529351,-0.501078,-0.0724684,-0.797859
1470345184550456,-0.500801,-0.0724457,-0.797706
1470345184568481,-0.500455,-0.0722968,-0.797723
1470345184590493,-0.501048,-0.0725397,-0.797717
1470345184610566,-0.501022,-0.0725476,-0.797684
1470345184628526,-0.501195,-0.0724858,-0.797722
1470345184648724,-0.501146,-0.0725946,-0.79769
1470345184669732,-0.501015,-0.0722456,-0.797632
1470345184687712,-0.501064,-0.0721368,-0.797664
1470345184709760,-0.501064,-0.0721368,-0.797664
1470345184729750,-0.501064,-0.0721368,-0.797664
1470345184748658,-0.500794,-0.0724161,-0.797563
1470345184768655,-0.500501,-0.0727964,-0.797463
1470345184790710,-0.499844,-0.0730652,-0.79749
1470345184807687,-0.499247,-0.0731584,-0.797296
1470345184828846,-0.498831,-0.0734918,-0.797191
1470345184849861,-0.498471,-0.0740184,-0.797171
1470345184867864,-0.498471,-0.0740184,-0.797171
1470345184890882,-0.498471,-0.0740184,-0.797171
1470345184909941,-0.499419,-0.0741034,-0.797492
1470345184927915,-0.500195,-0.0742504,-0.797775
1470345184950975,-0.500195,-0.0742504,-0.797775
1470345184969992,-0.500053,-0.0743668,-0.798421
1470345184988009,-0.50038,-0.074407,-0.799146
1470345185011058,-0.501684,-0.0743364,-0.799795
1470345185030134,-0.503442,-0.0744671,-0.800037
1470345185048066,-0.504058,-0.0746099,-0.80003
1470345185071149,-0.503201,-0.0744025,-0.800169
1470345185090126,-0.502021,-0.0739447,-0.800324
1470345185108125,-0.501428,-0.0737009,-0.80033
1470345185130145,-0.501477,-0.0735922,-0.800362
1470345185150306,-0.502072,-0.0731013,-0.800107
1470345185168220,-0.502723,-0.0725313,-0.800029
1470345185205272,-0.503397,-0.0715881,-0.800041
1470345185210256,-0.503756,-0.070697,-0.800123
1470345185228275,-0.504186,-0.0697866,-0.800667
1470345185250338,-0.504726,-0.068864,-0.80093
1470345185271356,-0.50549,-0.068409,-0.801115
1470345185288416,-0.506123,-0.0678771,-0.801151
1470345185310392,-0.506196,-0.0673956,-0.801275
1470345185330409,-0.50632,-0.0674427,-0.801281
1470345185348540,-0.50632,-0.0674427,-0.801281
1470345185370559,-0.506184,-0.0679733,-0.800838
1470345185390577,-0.504871,-0.0681386,-0.800579
1470345185408594,-0.504413,-0.068147,-0.800244
1470345185430614,-0.504845,-0.0683846,-0.799947
1470345185451195,-0.505774,-0.068348,-0.799336
1470345185483224,-0.507193,-0.068469,-0.798605
1470345185490229,-0.50784,-0.0685057,-0.798237
1470345185511248,-0.508013,-0.068444,-0.798275
1470345185528280,-0.507807,-0.0682115,-0.798153
1470345185550793,-0.507931,-0.0682585,-0.798159
1470345185571813,-0.508055,-0.0683055,-0.798165
1470345185587828,-0.507758,-0.0683202,-0.798121
1470345185610874,-0.507494,-0.0683566,-0.798252
1470345185631866,-0.507543,-0.0682479,-0.798285
1470345185648500,-0.507419,-0.068201,-0.798279
1470345185670732,-0.5069,-0.0681135,-0.798257
1470345185691720,-0.506258,-0.0679792,-0.798228
1470345185707732,-0.505634,-0.0678069,-0.79809
1470345185730796,-0.505029,-0.0678694,-0.797749
1470345185751909,-0.504593,-0.0682056,-0.797244
1470345185767925,-0.504132,-0.0685501,-0.796708
1470345185791037,-0.503885,-0.0686946,-0.796098
1470345185812966,-0.50404,-0.0689087,-0.795648
1470345185827979,-0.50404,-0.0689087,-0.795648
1470345185850067,-0.50404,-0.0689087,-0.795648
1470345185873088,-0.505063,-0.0690226,-0.795407
1470345185893146,-0.505063,-0.0690226,-0.795407
1470345185916184,-0.505112,-0.0689139,-0.795439
1470345185933144,-0.505112,-0.0689139,-0.795439
1470345185953133,-0.50497,-0.0688704,-0.795038
1470345185970144,-0.505369,-0.0685403,-0.79475
1470345185993164,-0.505175,-0.0682407,-0.794375
1470345186013217,-0.505077,-0.0674511,-0.794156
1470345186030198,-0.505201,-0.0674978,-0.794162
1470345186052140,-0.505325,-0.0675446,-0.794168
1470345186073158,-0.505374,-0.0674358,-0.7942
1470345186089294,-0.505374,-0.0674358,-0.7942
1470345186112195,-0.505655,-0.0671232,-0.794556
1470345186133727,-0.505666,-0.0668178,-0.794901
1470345186150156,-0.505666,-0.0668178,-0.794901
1470345186172177,-0.505279,-0.0668078,-0.795027
1470345186193236,-0.504651,-0.0670063,-0.795193
1470345186210209,-0.504702,-0.067297,-0.795672
1470345186232229,-0.505043,-0.0675429,-0.796053
1470345186253086,-0.504761,-0.0676174,-0.796295
1470345186270103,-0.503965,-0.0675078,-0.796119
1470345186292136,-0.502898,-0.0674053,-0.795932
1470345186313141,-0.502158,-0.0672168,-0.795931
1470345186329156,-0.502151,-0.0671873,-0.795788
1470345186352166,-0.502455,-0.0674742,-0.795883
1470345186373184,-0.502826,-0.0678873,-0.795808
1470345186390199,-0.502875,-0.0677785,-0.795841
1470345186412219,-0.502875,-0.0677785,-0.795841
1470345186433747,-0.502875,-0.0677785,-0.795841
1470345186450132,-0.503081,-0.0682831,-0.795871
1470345186472153,-0.503393,-0.0688722,-0.796017
1470345186493170,-0.503538,-0.069553,-0.796269
1470345186509240,-0.503827,-0.070243,-0.796416
1470345186532254,-0.504489,-0.0706115,-0.796241
1470345186553881,-0.50435,-0.0702327,-0.796041
1470345186569886,-0.504088,-0.0698071,-0.795835
1470345186591906,-0.50503,-0.0704361,-0.795217
1470345186612925,-0.50845,-0.0726321,-0.794367
1470345186629941,-0.514126,-0.0753147,-0.792901
1470345186652056,-0.520027,-0.0770904,-0.791624
1470345186673102,-0.523726,-0.0780583,-0.79098
1470345186690088,-0.524346,-0.0785324,-0.790772
1470345186713109,-0.523658,-0.0785393,-0.790853
1470345186733672,-0.523782,-0.078586,-0.790859
1470345186749765,-0.523796,-0.0781826,-0.79081
1470345186771851,-0.523621,-0.0776393,-0.791068
1470345186794806,-0.522709,-0.0769394,-0.791468
1470345186809817,-0.521374,-0.0762077,-0.791818
1470345186831837,-0.520233,-0.075375,-0.792096
1470345186854387,-0.51926,-0.0747214,-0.792177
1470345186869403,-0.518599,-0.0739833,-0.792049
1470345186892419,-0.517729,-0.0730127,-0.7918
1470345186914441,-0.516895,-0.0723369,-0.791633
1470345186929453,-0.516436,-0.0720732,-0.791391
1470345186952574,-0.516484,-0.0719646,-0.791424
1470345186974594,-0.516484,-0.0719646,-0.791424
1470345186989606,-0.517281,-0.0719435,-0.791063
1470345187011682,-0.519543,-0.0730027,-0.79041
1470345187035208,-0.524422,-0.0753264,-0.788976
1470345187055729,-0.530888,-0.0777368,-0.787328
1470345187072728,-0.536138,-0.0791238,-0.785847
1470345187094749,-0.538135,-0.07941,-0.784803
1470345187115804,-0.536833,-0.0788018,-0.784191
1470345187132783,-0.535314,-0.0780649,-0.783854
1470345187154431,-0.534712,-0.0767128,-0.783323
1470345187169424,-0.534457,-0.0752363,-0.782872
1470345187192445,-0.533107,-0.0733683,-0.782543
1470345187214511,-0.530984,-0.0711868,-0.782807
1470345187229479,-0.52922,-0.0691827,-0.783197
1470345187252665,-0.5287,-0.0677881,-0.783378
1470345187274684,-0.52797,-0.0664942,-0.783233
1470345187295780,-0.526164,-0.0652032,-0.783287
1470345187312719,-0.523885,-0.0640525,-0.783144
1470345187335251,-0.522052,-0.0634368,-0.782755
1470345187355979,-0.520235,-0.0632967,-0.781927
1470345187371994,-0.518537,-0.0633652,-0.781389
1470345187395011,-0.517168,-0.0636198,-0.780947
1470345187416033,-0.516118,-0.0637573,-0.780552
1470345187432057,-0.515666,-0.064133,-0.780155
1470345187454744,-0.515711,-0.0642287,-0.77945
1470345187475778,-0.516512,-0.0641038,-0.7787
1470345187491822,-0.517976,-0.0634619,-0.77817
1470345187514798,-0.519207,-0.0630607,-0.777819
1470345187536325,-0.519255,-0.0629518,-0.777853
1470345187552347,-0.518395,-0.0630263,-0.77789
1470345187574365,-0.517417,-0.0628133,-0.778158
1470345187596430,-0.517021,-0.0624427,-0.778342
1470345187612399,-0.517021,-0.0624427,-0.778342
1470345187634965,-0.516674,-0.062297,-0.778357
1470345187655557,-0.516124,-0.0622849,-0.778189
1470345187672531,-0.515438,-0.062296,-0.778267
1470345187694534,-0.514621,-0.0622311,-0.778197
1470345187717544,-0.513877,-0.0620489,-0.778193
1470345187732557,-0.513454,-0.0617485,-0.778235
1470345187754702,-0.512586,-0.0615205,-0.778225
1470345187777719,-0.511855,-0.0612699,-0.77797
1470345187791774,-0.511577,-0.0612492,-0.777816
1470345187814771,-0.510779,-0.0611463,-0.777637
1470345187837371,-0.510364,-0.0614829,-0.777525
1470345187857905,-0.510366,-0.0620899,-0.77723
1470345187874909,-0.510366,-0.0620899,-0.77723
1470345187896952,-0.51049,-0.0621356,-0.777236
1470345187911942,-0.51049,-0.0621356,-0.777236
1470345187934962,-0.51049,-0.0621356,-0.777236
1470345187957044,-0.510615,-0.0621813,-0.777242
1470345187972058,-0.510574,-0.0623204,-0.777351
1470345187995079,-0.510574,-0.0623204,-0.777351
1470345188017098,-0.510317,-0.0625338,-0.776995
1470345188038692,-0.510193,-0.0624881,-0.776989
1470345188055242,-0.509867,-0.0625767,-0.776802
1470345188077262,-0.509146,-0.0626293,-0.776598
1470345188091274,-0.508674,-0.0627733,-0.776405
1470345188114346,-0.508571,-0.0629617,-0.776197
1470345188144858,-0.508377,-0.0631262,-0.776159
1470345188150914,-0.508087,-0.0631739,-0.776256
1470345188175243,-0.508087,-0.0631739,-0.776256
1470345188197264,-0.508135,-0.0630647,-0.776289
1470345188218286,-0.50826,-0.0631104,-0.776295
1470345188234296,-0.508188,-0.0633553,-0.776764
1470345188256863,-0.508018,-0.0635463,-0.777261
1470345188277897,-0.507987,-0.0636522,-0.777622
1470345188294897,-0.508112,-0.063698,-0.777627
1470345188316917,-0.508112,-0.063698,-0.777627
1470345188340005,-0.507454,-0.0633657,-0.777942
1470345188354580,-0.506734,-0.0630829,-0.777939
1470345188377598,-0.506289,-0.0628835,-0.777981
1470345188398617,-0.505762,-0.0627716,-0.777816
1470345188414632,-0.505368,-0.0627353,-0.777799
1470345188437656,-0.504865,-0.0629848,-0.777968
1470345188458681,-0.504865,-0.0629848,-0.777968
1470345188474695,-0.50499,-0.0630306,-0.777973
1470345188497715,-0.505697,-0.0633811,-0.778227
1470345188518736,-0.506255,-0.063694,-0.778442
1470345188534749,-0.506722,-0.0639829,-0.778826
1470345188556890,-0.507298,-0.0642582,-0.778932
1470345188578829,-0.507987,-0.0646473,-0.779295
1470345188594840,-0.508655,-0.0651376,-0.779658
1470345188616908,-0.508901,-0.0655995,-0.779971
1470345188639887,-0.50914,-0.0660315,-0.780142
1470345188654557,-0.509463,-0.0666485,-0.780428
1470345188677573,-0.51003,-0.0675997,-0.780491
1470345188699593,-0.510977,-0.0683841,-0.780915
1470345188714611,-0.512611,-0.0691591,-0.781258
1470345188737722,-0.514099,-0.069655,-0.781797
1470345188759386,-0.515523,-0.0695936,-0.782315
1470345188774400,-0.516946,-0.0692611,-0.782927
1470345188797424,-0.518007,-0.068722,-0.783271
1470345188819459,-0.518776,-0.0682922,-0.783603
1470345188834454,-0.519588,-0.0679952,-0.783734
1470345188865014,-0.520109,-0.0680792,-0.783758
1470345188880027,-0.520083,-0.0680874,-0.783725
1470345188894082,-0.520207,-0.0681336,-0.783731
1470345188917059,-0.520332,-0.0681797,-0.783737
1470345188940129,-0.520332,-0.0681797,-0.783737
1470345188954203,-0.520332,-0.0681797,-0.783737
1470345188977248,-0.520041,-0.0676212,-0.784131
1470345189000245,-0.520162,-0.0671002,-0.784939
1470345189014269,-0.521762,-0.0667087,-0.785596
1470345189037383,-0.523436,-0.0669468,-0.785392
1470345189059454,-0.52495,-0.0677821,-0.784598
1470345189074432,-0.527069,-0.0690867,-0.783203
1470345189097452,-0.529429,-0.0704183,-0.781536
1470345189119471,-0.531068,-0.0712634,-0.780606
1470345189141053,-0.531734,-0.0712196,-0.779993
1470345189157573,-0.531675,-0.0708917,-0.779377
1470345189179642,-0.531766,-0.070269,-0.779005
1470345189200651,-0.531807,-0.0692891,-0.77827
1470345189217626,-0.531324,-0.0680883,-0.778139
1470345189240154,-0.530422,-0.0666185,-0.778193
1470345189261275,-0.529841,-0.0650311,-0.778294
1470345189277289,-0.528857,-0.0630433,-0.778439
1470345189299310,-0.527439,-0.0607849,-0.778373
1470345189321329,-0.526169,-0.0584723,-0.778315
1470345189337348,-0.525482,-0.0566683,-0.777766
1470345189359885,-0.524808,-0.0550671,-0.776873
1470345189381926,-0.52382,-0.0539477,-0.775866
1470345189396904,-0.520413,-0.0533966,-0.775042
1470345189419890,-0.518411,-0.0533595,-0.773917
1470345189441059,-0.519915,-0.0537855,-0.772693
1470345189457111,-0.524261,-0.0559533,-0.771129
1470345189480132,-0.52796,-0.0587659,-0.769871
1470345189501151,-0.52926,-0.0607993,-0.768895
1470345189517166,-0.528865,-0.0618027,-0.76876
1470345189540200,-0.529776,-0.0622605,-0.768962
1470345189561120,-0.533807,-0.0628671,-0.769137
1470345189577141,-0.537888,-0.0630344,-0.769557
1470345189600151,-0.540093,-0.0628119,-0.770338
1470345189622170,-0.540785,-0.0618954,-0.770918
1470345189637699,-0.540179,-0.06059,-0.772058
1470345189659339,-0.538916,-0.0595008,-0.773317
1470345189682356,-0.539151,-0.0581265,-0.774395
1470345189697338,-0.540907,-0.0569723,-0.774996
1470345189719357,-0.542414,-0.0563309,-0.775281
1470345189742383,-0.542471,-0.0559233,-0.775666
1470345189756399,-0.541421,-0.0554869,-0.775703
1470345189779425,-0.540428,-0.0559517,-0.775906
1470345189802441,-0.540436,-0.0559832,-0.776047
1470345189816473,-0.540051,-0.0567491,-0.775373
1470345189840043,-0.539567,-0.0571886,-0.774821
1470345189862328,-0.538085,-0.0573562,-0.774248
1470345189876430,-0.536477,-0.0571481,-0.773876
1470345189899416,-0.535545,-0.0571018,-0.774075
1470345189922389,-0.535671,-0.0571471,-0.774082
1470345189936395,-0.535711,-0.0573385,-0.773768
1470345189959933,-0.533586,-0.057515,-0.773695
1470345189981951,-0.530078,-0.0573549,-0.773834
1470345189996997,-0.527608,-0.0570545,-0.773985
1470345190019986,-0.525807,-0.0571134,-0.773967
1470345190042509,-0.524238,-0.0573026,-0.774072
1470345190056682,-0.523076,-0.0578306,-0.774245
1470345190079703,-0.521808,-0.0582736,-0.774305
1470345190102723,-0.5209,-0.0587921,-0.774101
1470345190123742,-0.519723,-0.0595925,-0.773791
1470345190139851,-0.518632,-0.0605782,-0.773596
1470345190162361,-0.518333,-0.0616356,-0.773441
1470345190200396,-0.51842,-0.0631319,-0.773353
1470345190202398,-0.51869,-0.0648672,-0.773354
1470345190222414,-0.518905,-0.0663472,-0.773383
1470345190243470,-0.51883,-0.0673625,-0.773838
1470345190260143,-0.518479,-0.0682949,-0.774249
1470345190282164,-0.517779,-0.0690821,-0.774676
1470345190303197,-0.517044,-0.069909,-0.77482
1470345190320197,-0.516464,-0.0710454,-0.774911
1470345190342720,-0.515989,-0.072266,-0.775117
1470345190363351,-0.517799,-0.0735495,-0.77506
1470345190379339,-0.519825,-0.0749643,-0.774729
1470345190402361,-0.520513,-0.0762328,-0.774308
1470345190423390,-0.520355,-0.0776387,-0.774215
1470345190439905,-0.520305,-0.0787572,-0.773937
1470345190461958,-0.520043,-0.080079,-0.773731
1470345190482977,-0.520497,-0.0813177,-0.773584
1470345190499974,-0.520628,-0.0823409,-0.773596
1470345190521994,-0.52002,-0.0832145,-0.773752
1470345190545077,-0.518937,-0.0838974,-0.773922
1470345190559765,-0.517412,-0.0843493,-0.774388
1470345190582732,-0.5168,-0.0849514,-0.774639
1470345190604751,-0.516774,-0.0856646,-0.774708
1470345190619766,-0.516656,-0.0863557,-0.774947
1470345190642380,-0.516914,-0.0871207,-0.77531
1470345190664497,-0.518012,-0.0879129,-0.775624
1470345190679419,-0.518815,-0.0882873,-0.775703
1470345190702439,-0.518838,-0.0886515,-0.776038
1470345190724476,-0.518312,-0.0889405,-0.776322
1470345190739475,-0.518437,-0.0889866,-0.776327
1470345190762095,-0.518539,-0.089506,-0.776635
1470345190785119,-0.518342,-0.0900421,-0.776902
1470345190807136,-0.51792,-0.0904149,-0.7773
1470345190822149,-0.517421,-0.0906965,-0.777617
1470345190845179,-0.516415,-0.0908263,-0.777664
1470345190858714,-0.51495,-0.0906959,-0.777473
1470345190882732,-0.513279,-0.0904945,-0.777841
1470345190904750,-0.513398,-0.0905099,-0.777703
1470345190918788,-0.513371,-0.0905167,-0.777671
1470345190942378,-0.513371,-0.0905167,-0.777671
1470345190964545,-0.513095,-0.0904958,-0.77752
1470345190979567,-0.512303,-0.0904231,-0.777493
1470345191002579,-0.511784,-0.0901002,-0.777709
1470345191024598,-0.511784,-0.0901002,-0.777709
1470345191046221,-0.511757,-0.090107,-0.777676
1470345191062200,-0.512357,-0.0900397,-0.778009
1470345191084237,-0.512357,-0.0900397,-0.778009
1470345191106282,-0.511936,-0.0897696,-0.778197
1470345191122301,-0.511186,-0.089557,-0.778059
1470345191144879,-0.510093,-0.0892297,-0.778083
1470345191165502,-0.508531,-0.088982,-0.77803
1470345191182473,-0.50773,-0.0886077,-0.777952
1470345191204494,-0.507501,-0.0884781,-0.777832
1470345191225511,-0.5071,-0.0884115,-0.777677
1470345191242533,-0.506897,-0.0882099,-0.777698
1470345191264557,-0.506897,-0.0882099,-0.777698
1470345191285576,-0.507583,-0.0881989,-0.77761
1470345191292583,-0.508363,-0.0879696,-0.777584
1470345191307627,-0.508488,-0.0880158,-0.777588
1470345191330616,-0.508488,-0.0880158,-0.777588
1470345191353178,-0.508613,-0.088062,-0.777593
1470345191367775,-0.50866,-0.0879529,-0.777625
1470345191389812,-0.50866,-0.0879529,-0.777625
1470345191412834,-0.508134,-0.08784,-0.777464
1470345191427801,-0.507125,-0.0879398,-0.777371
1470345191450837,-0.505741,-0.0879665,-0.777156
1470345191472858,-0.504732,-0.0880667,-0.777063
1470345191487873,-0.504732,-0.0880667,-0.777063
1470345191510957,-0.505428,-0.0883571,-0.777026
1470345191532995,-0.50639,-0.0883662,-0.777088
1470345191548045,-0.507201,-0.0884012,-0.777004
1470345191570099,-0.5073,-0.0884541,-0.776975
1470345191593078,-0.5073,-0.0884541,-0.776975
1470345191608090,-0.507425,-0.0885002,-0.77698
1470345191630163,-0.507425,-0.0885002,-0.77698
1470345191653195,-0.507597,-0.0884372,-0.777016
1470345191667251,-0.507187,-0.0884688,-0.777256
1470345191690273,-0.506547,-0.0883707,-0.777376
1470345191712292,-0.505356,-0.0882321,-0.777195
1470345191727305,-0.504186,-0.0880568,-0.776905
1470345191750352,-0.503233,-0.0879507,-0.77645
1470345191772397,-0.50264,-0.0880504,-0.776261
1470345191787492,-0.501647,-0.0880844,-0.775918
1470345191810474,-0.501142,-0.0879358,-0.775649
1470345191832481,-0.501136,-0.0879057,-0.775506
1470345191848033,-0.50194,-0.08791,-0.775279
1470345191870171,-0.502626,-0.0878983,-0.775189
1470345191893139,-0.502626,-0.0878983,-0.775189
1470345191908149,-0.502704,-0.0880536,-0.775163
1470345191931201,-0.503587,-0.0879063,-0.775249
1470345191953240,-0.504409,-0.0879356,-0.775557
1470345191968758,-0.505258,-0.0879584,-0.775898
1470345191990777,-0.505663,-0.0875901,-0.775857
1470345192012839,-0.505663,-0.0875901,-0.775857
1470345192027853,-0.505277,-0.0871503,-0.77579
1470345192050423,-0.504747,-0.0867669,-0.77572
1470345192072987,-0.504919,-0.0867038,-0.775756
1470345192088959,-0.505552,-0.0867711,-0.775494
1470345192110022,-0.506606,-0.0868671,-0.775278
1470345192133055,-0.507115,-0.0868881,-0.775011
1470345192155580,-0.507696,-0.086793,-0.774808
1470345192170195,-0.507743,-0.0866838,-0.774839
1470345192193215,-0.507868,-0.0867298,-0.774844
1470345192209179,-0.507915,-0.0866205,-0.774876
1470345192230250,-0.507743,-0.0866838,-0.774839
1470345192253275,-0.507358,-0.0869498,-0.774878
1470345192269297,-0.507219,-0.0870365,-0.775017
1470345192290375,-0.507213,-0.0870061,-0.774875
1470345192313336,-0.506261,-0.0865941,-0.774759
1470345192329349,-0.505178,-0.0861712,-0.774388
1470345192350404,-0.504438,-0.0856223,-0.77409
1470345192372497,-0.503835,-0.0853555,-0.773956
1470345192389464,-0.503835,-0.0853555,-0.773956
1470345192410517,-0.504473,-0.0854525,-0.773836
1470345192432562,-0.504551,-0.0856078,-0.77381
1470345192451042,-0.50437,-0.0860751,-0.773827
1470345192470562,-0.504057,-0.0857608,-0.773592
1470345192492630,-0.504057,-0.0857608,-0.773592
1470345192510598,-0.504103,-0.0856515,-0.773623
1470345192530618,-0.504375,-0.0853998,-0.773864
1470345192553184,-0.504297,-0.0852446,-0.77389
1470345192570284,-0.504022,-0.0849184,-0.77408
1470345192590358,-0.503613,-0.0849501,-0.774319
1470345192612368,-0.502786,-0.0845846,-0.774208
1470345192630338,-0.502058,-0.0843376,-0.773961
1470345192650386,-0.501724,-0.0841261,-0.773728
1470345192672986,-0.501796,-0.0842513,-0.773559
1470345192690959,-0.501977,-0.0847963,-0.773307
1470345192710033,-0.50168,-0.0851208,-0.772927
1470345192732997,-0.501403,-0.0854087,-0.772437
1470345192751074,-0.501832,-0.0855813,-0.771856
1470345192770101,-0.502127,-0.0858706,-0.771557
1470345192800139,-0.502028,-0.0860592,-0.771352
1470345192811240,-0.501499,-0.0863827,-0.77139
1470345192830173,-0.500889,-0.0869189,-0.771758
1470345192853320,-0.501014,-0.0869648,-0.771762
1470345192870253,-0.500967,-0.0870742,-0.771731
1470345192890270,-0.500967,-0.0870742,-0.771731
1470345192913290,-0.49967,-0.0872251,-0.771743
1470345192931310,-0.498588,-0.0868056,-0.771374
1470345192950843,-0.497516,-0.0859825,-0.77095
1470345192973387,-0.497094,-0.0856238,-0.770351
1470345192990386,-0.497636,-0.0855416,-0.769722
1470345193010403,-0.498735,-0.0857672,-0.769303
1470345193032537,-0.498735,-0.0857672,-0.769303
1470345193050963,-0.49886,-0.0858129,-0.769308
1470345193072034,-0.499382,-0.0857665,-0.768789
1470345193093097,-0.499507,-0.0858122,-0.768794
1470345193111068,-0.499373,-0.0861705,-0.768844
1470345193139138,-0.499498,-0.0862162,-0.768848
1470345193153218,-0.499452,-0.0863257,-0.768818
1470345193170727,-0.499576,-0.0863714,-0.768822
1470345193192747,-0.499576,-0.0863714,-0.768822
1470345193212766,-0.498956,-0.0857753,-0.768494
1470345193230783,-0.499002,-0.0856658,-0.768525
1470345193253311,-0.499002,-0.0856658,-0.768525
1470345193272858,-0.498355,-0.0859743,-0.768701
1470345193290861,-0.497424,-0.0866019,-0.768889
1470345193311880,-0.497549,-0.0866476,-0.768894
1470345193332898,-0.497595,-0.0865381,-0.768925
1470345193350923,-0.497981,-0.086145,-0.768348
1470345193371942,-0.498681,-0.0860646,-0.768006
1470345193392962,-0.4988,-0.0860803,-0.767868
1470345193410978,-0.497999,-0.0859526,-0.76756
1470345193432997,-0.497497,-0.0859626,-0.76797
1470345193453021,-0.497622,-0.0860083,-0.767975
1470345193471040,-0.497596,-0.0860148,-0.767942
1470345193493061,-0.497721,-0.0860605,-0.767947
1470345193513078,-0.497141,-0.0864646,-0.767812
1470345193531095,-0.496619,-0.0868189,-0.767994
1470345193553624,-0.495778,-0.0868308,-0.767798
1470345193573174,-0.495292,-0.087016,-0.767726
1470345193590182,-0.495332,-0.0868767,-0.767614
1470345193613202,-0.496199,-0.0870996,-0.767611
1470345193633220,-0.496245,-0.0869901,-0.767641
1470345193650801,-0.496492,-0.0874485,-0.767955
1470345193673339,-0.496825,-0.0876582,-0.768188
1470345193693355,-0.496903,-0.0878134,-0.768162
1470345193710370,-0.496877,-0.0875785,-0.768361
1470345193733392,-0.496885,-0.0871744,-0.768305
1470345193752918,-0.497091,-0.0867,-0.768318
1470345193770154,-0.496815,-0.0863738,-0.768507
1470345193793175,-0.496642,-0.0857325,-0.768364
1470345193813250,-0.49621,-0.0851625,-0.768497
1470345193830208,-0.495715,-0.0846127,-0.768174
1470345193852738,-0.495153,-0.0839674,-0.76816
1470345193873779,-0.494675,-0.0837486,-0.768032
1470345193889779,-0.494843,-0.0832881,-0.76762
1470345193912798,-0.494921,-0.0834432,-0.767595
1470345193933817,-0.495535,-0.08287,-0.767475
1470345193950381,-0.496353,-0.0824974,-0.767336
1470345193972789,-0.497202,-0.0823894,-0.76714
1470345193993815,-0.497202,-0.0823894,-0.76714
1470345194009824,-0.497327,-0.0824349,-0.767145
1470345194031889,-0.496727,-0.0823261,-0.767689
1470345194053924,-0.496545,-0.081781,-0.76794
1470345194069717,-0.497244,-0.0813928,-0.767938
1470345194092739,-0.49696,-0.08064,-0.767539
1470345194113844,-0.496459,-0.0798192,-0.767305
1470345194129770,-0.495741,-0.0791721,-0.767005
1470345194152792,-0.495358,-0.0783675,-0.766634
1470345194173856,-0.494442,-0.0778583,-0.766157
1470345194189922,-0.4935,-0.0773564,-0.765647
1470345194211971,-0.49398,-0.0772076,-0.765473
1470345194233910,-0.495454,-0.0768263,-0.765215
1470345194249957,-0.497841,-0.076623,-0.764884
1470345194271981,-0.497966,-0.0766683,-0.764889
1470345194294000,-0.498263,-0.0763417,-0.76527
1470345194310017,-0.499,-0.0761812,-0.765464
1470345194332115,-0.500242,-0.076232,-0.765821
1470345194355077,-0.501341,-0.0762749,-0.766282
1470345194370109,-0.5022,-0.0765943,-0.766677
1470345194392178,-0.501738,-0.0768334,-0.767275
1470345194415151,-0.501613,-0.076788,-0.76727
1470345194430165,-0.501489,-0.0767426,-0.767265
1470345194452688,-0.501535,-0.0766331,-0.767296
1470345194475151,-0.500949,-0.0767655,-0.767247
1470345194489211,-0.500283,-0.0769847,-0.766992
1470345194512235,-0.500039,-0.0772309,-0.766784
1470345194535200,-0.500039,-0.0772309,-0.766784
1470345194549306,-0.500812,-0.0776725,-0.766723
1470345194572424,-0.500937,-0.0777179,-0.766728
1470345194594460,-0.500937,-0.0777179,-0.766728
1470345194609432,-0.500937,-0.0777179,-0.766728
1470345194632462,-0.501062,-0.0777633,-0.766733
1470345194655005,-0.50085,-0.0779667,-0.766807
1470345194669219,-0.500572,-0.0783165,-0.766959
1470345194692244,-0.500572,-0.0783165,-0.766959
1470345194715263,-0.500618,-0.078207,-0.766991
1470345194729275,-0.500395,-0.078109,-0.767013
1470345194752815,-0.499876,-0.0780297,-0.766995
1470345194774893,-0.499252,-0.0778681,-0.766862
1470345194788879,-0.499101,-0.0778954,-0.766716
1470345194811946,-0.498811,-0.0779438,-0.766817
1470345194834950,-0.498811,-0.0779438,-0.766817
1470345194856025,-0.499585,-0.0783854,-0.766756
1470345194880097,-0.499538,-0.0784949,-0.766724
1470345194895111,-0.499538,-0.0784949,-0.766724
1470345194916162,-0.499709,-0.0784309,-0.766761
1470345194932178,-0.499709,-0.0784309,-0.766761
1470345194955173,-0.499834,-0.0784763,-0.766766
1470345194976239,-0.499959,-0.0785218,-0.766771
1470345194992249,-0.499933,-0.0785288,-0.766738
1470345195022236,-0.499933,-0.0785288,-0.766738
1470345195036293,-0.499933,-0.0785288,-0.766738
1470345195052822,-0.49975,-0.0782916,-0.76665
1470345195075348,-0.49908,-0.0782396,-0.766486
1470345195096366,-0.498763,-0.0783608,-0.766446
1470345195112425,-0.498116,-0.0789114,-0.766387
1470345195134436,-0.498122,-0.0789411,-0.766529
1470345195156428,-0.499641,-0.0791919,-0.76616
1470345195172450,-0.501192,-0.0797066,-0.765734
1470345195194468,-0.502046,-0.080176,-0.765111
1470345195216497,-0.501353,-0.080595,-0.765251
1470345195232503,-0.500636,-0.0806529,-0.765057
1470345195255043,-0.501036,-0.0798846,-0.764572
1470345195276129,-0.502286,-0.0798385,-0.764535
1470345195292129,-0.50197,-0.0796529,-0.764835
1470345195315149,-0.501176,-0.0792489,-0.765005
1470345195337208,-0.501077,-0.0791965,-0.765033
1470345195352746,-0.501645,-0.0787322,-0.764888
1470345195374825,-0.500978,-0.0780055,-0.764761
1470345195396868,-0.500282,-0.0777194,-0.764796
1470345195418866,-0.499768,-0.0779121,-0.764687
1470345195434880,-0.499057,-0.0780001,-0.764634
1470345195457431,-0.499057,-0.0780001,-0.764634
1470345195471571,-0.500385,-0.0781089,-0.76457
1470345195494596,-0.501537,-0.0782519,-0.76433
1470345195517612,-0.502346,-0.0782818,-0.764248
1470345195531675,-0.502346,-0.0782818,-0.764248
1470345195555206,-0.502511,-0.0781876,-0.764143
1470345195577287,-0.503194,-0.0785404,-0.764359
1470345195591296,-0.503319,-0.0785857,-0.764364
1470345195615318,-0.503319,-0.0785857,-0.764364
1470345195637376,-0.503365,-0.0784762,-0.764395
1470345195651882,-0.502404,-0.0784736,-0.764331
1470345195674456,-0.501327,-0.078329,-0.763869
1470345195697479,-0.500493,-0.078004,-0.763508
1470345195711497,-0.500211,-0.0779565,-0.763216
1470345195734510,-0.499863,-0.0778137,-0.763234
1470345195757582,-0.499909,-0.0777042,-0.763265
1470345195771458,-0.500408,-0.0781267,-0.763053
1470345195794449,-0.500216,-0.0788425,-0.762448
1470345195817470,-0.501503,-0.0800717,-0.762118
1470345195838534,-0.501737,-0.0809041,-0.762342
1470345195855029,-0.500715,-0.0807715,-0.762839
1470345195877566,-0.499894,-0.0801335,-0.763208
1470345195898589,-0.502393,-0.0798595,-0.764007
1470345195915606,-0.503051,-0.0810516,-0.764829
1470345195937623,-0.50127,-0.0815491,-0.765436
1470345195958673,-0.499387,-0.0803911,-0.765435
1470345195974706,-0.498304,-0.0799753,-0.765064
1470345195997788,-0.498333,-0.0798425,-0.764562
1470345196018758,-0.498117,-0.0796488,-0.764192
1470345196034760,-0.497001,-0.0796447,-0.763843
1470345196057372,-0.496122,-0.0796722,-0.763221
1470345196078594,-0.496516,-0.0800133,-0.762896
1470345196094635,-0.497536,-0.0801469,-0.762399
1470345196117620,-0.497854,-0.0798991,-0.761903
1470345196138606,-0.497619,-0.0795008,-0.761874
1470345196155181,-0.497572,-0.0793026,-0.762182
1470345196177377,-0.498085,-0.0790432,-0.762397
1470345196198430,-0.499347,-0.0787478,-0.762981
1470345196214436,-0.500038,-0.0784544,-0.763375
1470345196237407,-0.499795,-0.0780863,-0.763846
1470345196259972,-0.499717,-0.0779314,-0.763872
1470345196274956,-0.499717,-0.0779314,-0.763872
1470345196296988,-0.499008,-0.0775863,-0.763624
1470345196319996,-0.49868,-0.0774068,-0.763532
1470345196335010,-0.498399,-0.0773595,-0.76324
1470345196357580,-0.498523,-0.0774047,-0.763245
1470345196379968,-0.498523,-0.0774047,-0.763245
1470345196393980,-0.499004,-0.0771889,-0.763179
1470345196418002,-0.499735,-0.0770636,-0.763124
1470345196440056,-0.499735,-0.0770636,-0.763124
1470345196454586,-0.49986,-0.0771088,-0.763129
1470345196477112,-0.499984,-0.077154,-0.763134
1470345196500134,-0.499938,-0.0772636,-0.763103
1470345196514146,-0.50082,-0.0771107,-0.763193
1470345196537166,-0.502531,-0.0771918,-0.762862
1470345196560190,-0.504051,-0.0777459,-0.762156
1470345196574208,-0.502697,-0.0790915,-0.762143
1470345196597228,-0.499294,-0.0794427,-0.76213
1470345196620249,-0.498976,-0.0787337,-0.761451
1470345196634263,-0.500315,-0.0786175,-0.760462
1470345196657814,-0.500284,-0.0782928,-0.759878
1470345196679358,-0.499229,-0.0774393,-0.759345
1470345196694369,-0.498515,-0.076391,-0.758993
1470345196717390,-0.498853,-0.0752491,-0.759299
1470345196739408,-0.500103,-0.0748923,-0.759603
1470345196761477,-0.499083,-0.0747608,-0.760097
1470345196777481,-0.499901,-0.0740779,-0.760303
1470345196799515,-0.501598,-0.0739819,-0.760456
1470345196820565,-0.503271,-0.0750937,-0.761515
1470345196837534,-0.502948,-0.0765127,-0.762805
1470345196860093,-0.503341,-0.0769143,-0.763121
1470345196880616,-0.504124,-0.0772573,-0.762668
1470345196897632,-0.50337,-0.0781605,-0.762685
1470345196919653,-0.500788,-0.078841,-0.762639
1470345196940688,-0.500617,-0.0789054,-0.762603
1470345196957706,-0.50171,-0.0791627,-0.761939
1470345196979766,-0.502527,-0.0800769,-0.761089
1470345197000766,-0.503266,-0.0798537,-0.760641
1470345197017780,-0.504346,-0.0798696,-0.760568
1470345197039812,-0.504274,-0.079311,-0.760542
1470345197061368,-0.505137,-0.0792599,-0.760634
1470345197076938,-0.504689,-0.0790001,-0.760787
1470345197099960,-0.504689,-0.0784523,-0.761359
1470345197120979,-0.506001,-0.0781621,-0.761213
1470345197137083,-0.505551,-0.0783362,-0.761559
1470345197160091,-0.505551,-0.0783362,-0.761559
1470345197181204,-0.50596,-0.0783018,-0.761323
1470345197197164,-0.506106,-0.0785508,-0.760987
1470345197220184,-0.505908,-0.0786875,-0.76081
1470345197242204,-0.505854,-0.079201,-0.76083
1470345197263729,-0.505683,-0.0792654,-0.760794
1470345197280252,-0.505808,-0.0793105,-0.760799
1470345197302271,-0.506612,-0.0793087,-0.760576
1470345197317285,-0.507338,-0.0791521,-0.760381
1470345197340305,-0.507332,-0.0791219,-0.760239
1470345197362833,-0.507029,-0.0788701,-0.760288
1470345197376348,-0.507075,-0.0787605,-0.76032
1470345197399396,-0.507201,-0.0788056,-0.760325
1470345197428397,-0.507154,-0.0789151,-0.760294
1470345197436402,-0.506534,-0.0791541,-0.760603
1470345197459979,-0.505566,-0.0788818,-0.760629
1470345197482273,-0.505811,-0.0785077,-0.760304
1470345197496285,-0.507145,-0.0781167,-0.759409
1470345197520308,-0.506881,-0.0790755,-0.75927
1470345197542327,-0.5035,-0.0797923,-0.759585
1470345197556863,-0.502698,-0.0793603,-0.759614
1470345197580230,-0.504662,-0.0791598,-0.758991
1470345197602303,-0.505073,-0.0789974,-0.758222
1470345197616317,-0.504752,-0.0784145,-0.758078
1470345197640285,-0.504798,-0.0783049,-0.75811
1470345197662865,-0.504686,-0.0778862,-0.758194
1470345197676434,-0.505304,-0.0774678,-0.758757
1470345197699456,-0.505882,-0.0774305,-0.759199
1470345197722517,-0.505564,-0.0776802,-0.759691
1470345197744585,-0.504787,-0.0776099,-0.760053
1470345197760081,-0.503825,-0.0773025,-0.760328
1470345197790226,-0.503872,-0.0771929,-0.76036
1470345197803270,-0.503286,-0.0773273,-0.76031
1470345197820252,-0.502746,-0.0775935,-0.76006
1470345197842314,-0.501772,-0.0779669,-0.759907
1470345197863896,-0.501225,-0.0786372,-0.759711
1470345197879447,-0.501743,-0.0793899,-0.759692
1470345197902459,-0.503414,-0.0800416,-0.759664
1470345197923494,-0.50502,-0.0804057,-0.75952
1470345197939562,-0.505764,-0.0805804,-0.759516
1470345197962558,-0.505764,-0.0805804,-0.759516
1470345197983185,-0.505644,-0.080259,-0.759992
1470345198000147,-0.506143,-0.0798266,-0.760692
1470345198022220,-0.506274,-0.0792893,-0.761518
1470345198043212,-0.506147,-0.0787593,-0.762727
1470345198060294,-0.506047,-0.0784633,-0.763737
1470345198082365,-0.50633,-0.0778994,-0.76471
1470345198103413,-0.507261,-0.0773323,-0.765175
1470345198119398,-0.508171,-0.0771738,-0.765301
1470345198142419,-0.507982,-0.0769061,-0.765072
1470345198164962,-0.506989,-0.0763326,-0.765404
1470345198179464,-0.507885,-0.0765477,-0.76544
1470345198202485,-0.508766,-0.0769433,-0.76496
1470345198224506,-0.508969,-0.0771433,-0.764939
1470345198239530,-0.508613,-0.0772757,-0.764473
1470345198262542,-0.506875,-0.0771379,-0.764126
1470345198284566,-0.505896,-0.0764973,-0.764208
1470345198299581,-0.506951,-0.0762812,-0.764338
1470345198322601,-0.50707,-0.0762963,-0.764202
1470345198344620,-0.506905,-0.0760847,-0.764647
1470345198359637,-0.506253,-0.0760581,-0.765014
1470345198382447,-0.505588,-0.076036,-0.76499
1470345198405469,-0.504482,-0.0760899,-0.76492
1470345198419482,-0.503574,-0.0758804,-0.764493
1470345198442500,-0.502667,-0.0756712,-0.764066
1470345198465042,-0.502633,-0.0760206,-0.763444
1470345198479173,-0.503087,-0.0764256,-0.762667
1470345198502185,-0.503343,-0.0767256,-0.761946
1470345198525206,-0.502745,-0.0767997,-0.761613
1470345198539272,-0.502745,-0.0767997,-0.761613
1470345198562744,-0.503792,-0.0768586,-0.761259
1470345198584771,-0.504813,-0.0766831,-0.761106
1470345198598816,-0.504912,-0.0767354,-0.761078
1470345198622805,-0.503957,-0.0767642,-0.761154
1470345198644825,-0.502759,-0.0767327,-0.761362
1470345198666400,-0.502634,-0.0766876,-0.761357
1470345198681747,-0.503246,-0.0765464,-0.761439
1470345198704723,-0.503286,-0.0764069,-0.761329
1470345198725743,-0.5024,-0.0758553,-0.761134
1470345198742758,-0.501467,-0.0754136,-0.760908
1470345198764827,-0.501514,-0.075304,-0.760939
1470345198793410,-0.50214,-0.0750957,-0.760772
1470345198802403,-0.5032,-0.0747805,-0.760508
1470345198825422,-0.503214,-0.0747135,-0.760258
1470345198846439,-0.502372,-0.074728,-0.760056
1470345198862966,-0.502017,-0.0745559,-0.759932
1470345198884989,-0.502011,-0.0745261,-0.75979
1470345198906012,-0.502873,-0.0744744,-0.759883
1470345198922054,-0.502972,-0.0745265,-0.759856
1470345198945077,-0.502327,-0.074404,-0.759831
1470345198966137,-0.501065,-0.0741518,-0.759814
1470345198982910,-0.500258,-0.0734486,-0.759932
1470345199004973,-0.501153,-0.0732277,-0.759774
1470345199025950,-0.502174,-0.0730515,-0.759621
1470345199042965,-0.502174,-0.0730515,-0.759621
1470345199065013,-0.501549,-0.0728921,-0.759487
1470345199087051,-0.501549,-0.0728921,-0.759487
1470345199093044,-0.501549,-0.0728921,-0.759487
1470345199108107,-0.501596,-0.0727825,-0.759519
1470345199130098,-0.50172,-0.0728274,-0.759524
1470345199153155,-0.50141,-0.073221,-0.759392
1470345199167761,-0.501376,-0.0736319,-0.759412
1470345199190805,-0.501809,-0.0739584,-0.75951
1470345199212821,-0.502447,-0.0740509,-0.759394
1470345199227843,-0.502572,-0.0740959,-0.759399
1470345199250814,-0.501907,-0.074076,-0.759375
1470345199273350,-0.501138,-0.0739087,-0.759345
1470345199288364,-0.501138,-0.0739087,-0.759345
1470345199310383,-0.501263,-0.0739536,-0.75935
1470345199333481,-0.501434,-0.0738889,-0.759387
1470345199348489,-0.501231,-0.0736894,-0.759408
1470345199370143,-0.501231,-0.0736894,-0.759408
1470345199393151,-0.501231,-0.0736894,-0.759408
1470345199409148,-0.501231,-0.0736894,-0.759408
1470345199430231,-0.501231,-0.0736894,-0.759408
1470345199453333,-0.501231,-0.0736894,-0.759408
1470345199467258,-0.501277,-0.0735797,-0.759439
1470345199490655,-0.501277,-0.0735797,-0.759439
1470345199512646,-0.501114,-0.0735479,-0.759011
1470345199527700,-0.500864,-0.0735235,-0.758893
1470345199550676,-0.500463,-0.0734615,-0.758737
1470345199572743,-0.500068,-0.0734292,-0.758722
1470345199587778,-0.500167,-0.0734813,-0.758695
1470345199610835,-0.500247,-0.0729608,-0.758707
1470345199632839,-0.499901,-0.0723855,-0.75853
1470345199647819,-0.499711,-0.0718777,-0.758533
1470345199670684,-0.498631,-0.0703574,-0.758005
1470345199692664,-0.498385,-0.0690995,-0.757199
1470345199709675,-0.498578,-0.0681316,-0.756741
1470345199730723,-0.498703,-0.0681764,-0.756746
1470345199753221,-0.498749,-0.0680666,-0.756778
1470345199768755,-0.498539,-0.0682709,-0.75685
1470345199790897,-0.498237,-0.0680195,-0.756898
1470345199812833,-0.498362,-0.0680643,-0.756904
1470345199828845,-0.498486,-0.068109,-0.756909
1470345199849868,-0.49846,-0.0681164,-0.756877
1470345199872957,-0.498349,-0.0681307,-0.757154
1470345199888928,-0.498349,-0.0681307,-0.757154
1470345199910954,-0.498243,-0.0680491,-0.75704
1470345199932969,-0.497362,-0.0682048,-0.756946
1470345199948985,-0.496264,-0.0685355,-0.756785
1470345199970019,-0.49461,-0.0681293,-0.75622
1470345199993065,-0.49425,-0.0675625,-0.755652
1470345200009075,-0.495636,-0.0670565,-0.755182
1470345200030071,-0.49766,-0.0667663,-0.75513
1470345200053193,-0.498986,-0.0668685,-0.755073
1470345200070848,-0.498921,-0.0670153,-0.75515
1470345200090864,-0.498396,-0.067035,-0.75552
1470345200112929,-0.498961,-0.0670015,-0.755572
1470345200130901,-0.500532,-0.0670985,-0.755493
1470345200149919,-0.501498,-0.0671265,-0.755703
1470345200172512,-0.501545,-0.0670167,-0.755735
1470345200190491,-0.501072,-0.0668306,-0.755746
1470345200210555,-0.501021,-0.0662357,-0.755612
1470345200232530,-0.501291,-0.0658547,-0.755323
1470345200250546,-0.502139,-0.0657414,-0.755137
1470345200270586,-0.502139,-0.0657414,-0.755137
1470345200292605,-0.501462,-0.0657896,-0.75536
1470345200310621,-0.501462,-0.0657896,-0.75536
1470345200330701,-0.501561,-0.0658417,-0.755333
1470345200353167,-0.501685,-0.0658863,-0.755339
1470345200370687,-0.501586,-0.0662023,-0.755666
1470345200390704,-0.501586,-0.0662023,-0.755666
1470345200412739,-0.50158,-0.0661726,-0.755525
1470345200430740,-0.50158,-0.0661726,-0.755525
1470345200450766,-0.501626,-0.0660629,-0.755557
1470345200472961,-0.501317,-0.0662152,-0.755655
1470345200490918,-0.501441,-0.0662598,-0.755661
1470345200510936,-0.501415,-0.0662674,-0.755628
1470345200532957,-0.501462,-0.0661577,-0.75566
1470345200550974,-0.501441,-0.0662598,-0.755661
1470345200570675,-0.501994,-0.0661671,-0.755432
1470345200592696,-0.502118,-0.0662117,-0.755437
1470345200610711,-0.501803,-0.0659013,-0.755203
1470345200630728,-0.501803,-0.0659013,-0.755203
1470345200653299,-0.501803,-0.0659013,-0.755203
1470345200670323,-0.501928,-0.0659459,-0.755209
1470345200693357,-0.501928,-0.0659459,-0.755209
1470345200712360,-0.501928,-0.0659459,-0.755209
1470345200735385,-0.502099,-0.0658808,-0.755246
1470345200751445,-0.502099,-0.0658808,-0.755246
1470345200772550,-0.502099,-0.0658808,-0.755246
1470345200790556,-0.502198,-0.0659329,-0.755219
1470345200811530,-0.501935,-0.0659756,-0.75535
1470345200832549,-0.501639,-0.0659961,-0.755307
1470345200850564,-0.501639,-0.0659961,-0.755307
1470345200871673,-0.501639,-0.0659961,-0.755307
1470345200892690,-0.501639,-0.0659961,-0.755307
1470345200910679,-0.501008,-0.0658084,-0.75503
1470345200931718,-0.499548,-0.0656973,-0.754831
1470345200952806,-0.498884,-0.0656789,-0.754806
1470345200970563,-0.498983,-0.065731,-0.754778
1470345200993594,-0.498983,-0.065731,-0.754778
1470345201012601,-0.498983,-0.065731,-0.754778
1470345201030617,-0.499107,-0.0657756,-0.754784
1470345201053637,-0.499107,-0.0657756,-0.754784
1470345201072742,-0.499272,-0.0656809,-0.75468
1470345201090724,-0.498726,-0.0656776,-0.754519
1470345201113763,-0.498726,-0.0656776,-0.754519
1470345201132807,-0.498726,-0.0656776,-0.754519
1470345201150778,-0.498825,-0.0657297,-0.754492
1470345201172975,-0.498825,-0.0657297,-0.754492
1470345201193082,-0.498995,-0.0656645,-0.754529
1470345201211009,-0.498995,-0.0656645,-0.754529
1470345201233029,-0.498995,-0.0656645,-0.754529
1470345201253054,-0.498995,-0.0656645,-0.754529
1470345201271076,-0.499548,-0.0656973,-0.754831
1470345201293095,-0.499548,-0.0656973,-0.754831
1470345201313113,-0.499069,-0.0656075,-0.755233
1470345201331141,-0.498519,-0.0652671,-0.75527
1470345201353150,-0.498519,-0.0652671,-0.75527
1470345201373183,-0.498643,-0.0653117,-0.755275
1470345201391198,-0.49869,-0.065202,-0.755307
1470345201413218,-0.498215,-0.0653235,-0.754978
1470345201433238,-0.49765,-0.0653573,-0.754925
1470345201451253,-0.498071,-0.0653159,-0.755081
1470345201473294,-0.499326,-0.0652932,-0.755193
1470345201500317,-0.499668,-0.0655307,-0.755567
1470345201510327,-0.499668,-0.0655307,-0.755567
1470345201533347,-0.498919,-0.0653282,-0.755426
1470345201553366,-0.498124,-0.0652356,-0.755254
1470345201570887,-0.498124,-0.0652356,-0.755254
1470345201593407,-0.499202,-0.0652487,-0.755187
1470345201614430,-0.499202,-0.0652487,-0.755187
1470345201630443,-0.498945,-0.0655628,-0.755227
1470345201652462,-0.498991,-0.0654531,-0.755259
1470345201673497,-0.498991,-0.0654531,-0.755259
1470345201690003,-0.499116,-0.0654977,-0.755265
1470345201713530,-0.49924,-0.0655423,-0.75527
1470345201733547,-0.499234,-0.0655128,-0.755129
1470345201749561,-0.499234,-0.0655128,-0.755129
1470345201772582,-0.499234,-0.0655128,-0.755129
1470345201793651,-0.499101,-0.0658716,-0.755175
1470345201809656,-0.499192,-0.0663271,-0.755199
1470345201832678,-0.499526,-0.0668423,-0.755093
1470345201853736,-0.499242,-0.0672294,-0.754993
1470345201869720,-0.498525,-0.0672913,-0.754795
1470345201892796,-0.498196,-0.0673552,-0.754471
1470345201913707,-0.498229,-0.0672519,-0.754113
1470345201929641,-0.498203,-0.0672593,-0.75408
1470345201952662,-0.4988,-0.0674896,-0.754075
1470345201974682,-0.498925,-0.0675342,-0.75408
1470345201990235,-0.498925,-0.0675342,-0.75408
1470345202012735,-0.498984,-0.0673579,-0.753862
1470345202034755,-0.498026,-0.0665602,-0.753302
1470345202049771,-0.496853,-0.0650805,-0.753582
1470345202072787,-0.497458,-0.0653997,-0.754357
1470345202095345,-0.505889,-0.0684315,-0.753519
1470345202108862,-0.523966,-0.0749375,-0.7478
1470345202132884,-0.541297,-0.0845179,-0.741026
1470345202154904,-0.549833,-0.091922,-0.734415
1470345202168915,-0.544238,-0.0982604,-0.725852
1470345202192508,-0.529884,-0.0970048,-0.705957
1470345202214598,-0.518333,-0.0919312,-0.674377
1470345202235641,-0.520112,-0.0895687,-0.637102
1470345202252632,-0.538502,-0.0884143,-0.589518
1470345202274651,-0.556938,-0.0839371,-0.54699
1470345202296224,-0.564236,-0.0770256,-0.511121
1470345202312833,-0.563441,-0.0668891,-0.480015
1470345202334853,-0.563838,-0.059372,-0.454787
1470345202355948,-0.568747,-0.056266,-0.431678
1470345202372885,-0.566653,-0.0537951,-0.413535
1470345202395444,-0.557412,-0.0503605,-0.404193
1470345202416470,-0.549168,-0.0472305,-0.399338
1470345202432487,-0.548907,-0.0464363,-0.3945
1470345202454542,-0.552034,-0.0475076,-0.389257
1470345202476527,-0.550216,-0.0496046,-0.38525
1470345202492591,-0.547024,-0.0523355,-0.382579
1470345202514615,-0.54692,-0.0569867,-0.380926
1470345202535635,-0.548611,-0.062221,-0.379505
1470345202552652,-0.549729,-0.067905,-0.37655
1470345202574670,-0.549243,-0.071066,-0.373989
1470345202596254,-0.544708,-0.0689465,-0.374227
1470345202612742,-0.536674,-0.0627946,-0.375863
1470345202634762,-0.539258,-0.0571843,-0.375643
1470345202655836,-0.547591,-0.0568631,-0.376821
1470345202672797,-0.551299,-0.0578369,-0.3817
1470345202695402,-0.550919,-0.0573159,-0.387799
1470345202716045,-0.543761,-0.055018,-0.399357
1470345202731972,-0.534722,-0.0509376,-0.415616
1470345202754991,-0.530063,-0.0480428,-0.435944
1470345202776012,-0.524158,-0.0467375,-0.460758
1470345202792621,-0.519081,-0.0494895,-0.489781
1470345202815103,-0.520549,-0.0594298,-0.522437
1470345202836175,-0.522174,-0.0707434,-0.552819
1470345202852133,-0.519164,-0.078034,-0.581085
1470345202875186,-0.522894,-0.0895645,-0.60735
1470345202897726,-0.532018,-0.108187,-0.629639
1470345202912241,-0.539441,-0.124907,-0.644907
1470345202935265,-0.532842,-0.126016,-0.647918
1470345202957285,-0.520714,-0.120487,-0.645341
1470345202972296,-0.515929,-0.118384,-0.642359
1470345202995323,-0.513555,-0.122218,-0.638696
1470345203017379,-0.51117,-0.125318,-0.636137
1470345203032361,-0.508895,-0.126382,-0.63852
1470345203055396,-0.504206,-0.126991,-0.641728
1470345203077402,-0.499037,-0.124812,-0.643188
1470345203091982,-0.497529,-0.122038,-0.643674
1470345203114536,-0.49984,-0.119906,-0.644116
1470345203137555,-0.50188,-0.118516,-0.644605
1470345203151621,-0.502123,-0.11825,-0.64483
1470345203174642,-0.500925,-0.118572,-0.644566
1470345203197661,-0.500409,-0.118929,-0.643693
1470345203211680,-0.499918,-0.119099,-0.642951
1470345203234701,-0.499079,-0.11888,-0.643272
1470345203257721,-0.498389,-0.118984,-0.644022
1470345203271733,-0.49939,-0.11921,-0.644519
1470345203295260,-0.499556,-0.119137,-0.64455
1470345203317797,-0.498284,-0.118487,-0.644268
1470345203331809,-0.497588,-0.117726,-0.64429
1470345203354830,-0.497498,-0.117575,-0.644316
1470345203377851,-0.49876,-0.117831,-0.644168
1470345203391930,-0.498925,-0.117758,-0.644198
1470345203414968,-0.496986,-0.117148,-0.644423
1470345203437078,-0.494705,-0.116762,-0.644454
1470345203459007,-0.494875,-0.117444,-0.64429
1470345203475022,-0.496252,-0.118512,-0.64354
1470345203497573,-0.497398,-0.119466,-0.64268
1470345203519142,-0.496355,-0.119686,-0.641393
1470345203535136,-0.49327,-0.119336,-0.64115
1470345203557155,-0.491402,-0.118442,-0.64116
1470345203579260,-0.492116,-0.117912,-0.640791
1470345203595193,-0.492058,-0.117587,-0.640571
1470345203617229,-0.491657,-0.116824,-0.640762
1470345203638248,-0.491075,-0.116528,-0.641322
1470345203655265,-0.491524,-0.116405,-0.64176
1470345203677284,-0.492663,-0.116288,-0.642372
1470345203698807,-0.493709,-0.115989,-0.642872
1470345203715331,-0.493002,-0.115685,-0.643568
1470345203737347,-0.492006,-0.115175,-0.644484
1470345203758367,-0.491628,-0.114693,-0.645103
1470345203781387,-0.491352,-0.114408,-0.645457
1470345203797905,-0.489819,-0.114167,-0.64598
1470345203818482,-0.488158,-0.113585,-0.64648
1470345203834488,-0.486658,-0.112869,-0.646736
1470345203857491,-0.484801,-0.112457,-0.646665
1470345203879521,-0.482832,-0.111927,-0.646725
1470345203895059,-0.480991,-0.111437,-0.646788
1470345203917599,-0.47963,-0.111077,-0.646691
1470345203939686,-0.478179,-0.111064,-0.647058
1470345203954632,-0.47812,-0.111696,-0.647062
1470345203977662,-0.479941,-0.112206,-0.64659
1470345204000235,-0.481083,-0.112801,-0.646359
1470345204014771,-0.481055,-0.113231,-0.645978
1470345204037793,-0.48066,-0.113649,-0.645625
1470345204059832,-0.480435,-0.114324,-0.645462
1470345204074825,-0.480748,-0.114497,-0.645135
1470345204097858,-0.481463,-0.113471,-0.644326
1470345204119898,-0.484619,-0.110986,-0.642322
1470345204133910,-0.490432,-0.109763,-0.640632
1470345204156963,-0.498254,-0.109322,-0.63882
1470345204179952,-0.509583,-0.111181,-0.635762
1470345204201620,-0.526499,-0.117199,-0.63294
1470345204218068,-0.552106,-0.123165,-0.62798
1470345204240147,-0.571847,-0.12746,-0.616796
1470345204261162,-0.577858,-0.123222,-0.596106
1470345204277120,-0.575508,-0.113881,-0.56695
1470345204300148,-0.57935,-0.10606,-0.530935
1470345204321203,-0.593014,-0.0967202,-0.487525
1470345204337186,-0.616014,-0.0861898,-0.447393
1470345204360222,-0.63284,-0.073938,-0.41053
1470345204381292,-0.642417,-0.0596608,-0.379193
1470345204397747,-0.633291,-0.052226,-0.349726
1470345204420272,-0.633541,-0.0506838,-0.319042
1470345204441338,-0.645918,-0.0488652,-0.293256
1470345204457304,-0.651299,-0.04435,-0.275997
1470345204480325,-0.64694,-0.0365184,-0.263934
1470345204501475,-0.643373,-0.0294078,-0.253465
1470345204517490,-0.650603,-0.026665,-0.244844
1470345204540509,-0.662314,-0.0284908,-0.237928
1470345204561552,-0.669956,-0.0296333,-0.232133
1470345204577544,-0.670636,-0.0284792,-0.227867
1470345204600127,-0.670311,-0.0252234,-0.222732
1470345204621306,-0.67508,-0.0202821,-0.215994
1470345204637282,-0.682105,-0.0151416,-0.210327
1470345204660294,-0.688982,-0.010377,-0.206241
1470345204681367,-0.692946,-0.00717692,-0.201653
1470345204697862,-0.699526,-0.00589911,-0.195933
1470345204721489,-0.703118,-0.00618737,-0.190073
1470345204741507,-0.707583,-0.00627491,-0.183122
1470345204756520,-0.712445,-0.00521572,-0.176603
1470345204779570,-0.714734,-0.00314127,-0.172609
1470345204802667,-0.716694,-0.000117555,-0.168958
1470345204817214,-0.720052,0.00340588,-0.165815
1470345204840238,-0.723843,0.00772526,-0.163251
1470345204862257,-0.727541,0.0121379,-0.160871
1470345204877267,-0.731275,0.0161954,-0.15771
1470345204900349,-0.734191,0.0201574,-0.153317
1470345204922100,-0.738914,0.0242387,-0.148656
1470345204937072,-0.741966,0.0272779,-0.143664
1470345204960095,-0.744227,0.0305876,-0.138486
1470345204982111,-0.745124,0.0350011,-0.133424
1470345204997134,-0.746482,0.0398304,-0.128946
1470345205019680,-0.74777,0.0436695,-0.125653
1470345205042694,-0.748465,0.0443085,-0.122261
1470345205056710,-0.748094,0.0442006,-0.11721
1470345205079727,-0.752376,0.0457064,-0.111165
1470345205102803,-0.758283,0.0468188,-0.106349
1470345205123887,-0.762164,0.0481977,-0.103127
1470345205139902,-0.765473,0.0503245,-0.100445
1470345205162919,-0.769284,0.0516607,-0.0983925
1470345205176931,-0.774047,0.0532993,-0.0965096
1470345205199992,-0.779229,0.0553768,-0.0948314
1470345205222020,-0.783538,0.0582579,-0.0929234
1470345205237038,-0.785086,0.0610701,-0.0911242
1470345205260035,-0.786395,0.0626205,-0.0891883
1470345205282053,-0.791448,0.0634519,-0.0864787
1470345205303577,-0.799706,0.0646627,-0.083027
1470345205320116,-0.809085,0.0664209,-0.0798649
1470345205350169,-0.817015,0.0670507,-0.0785422
1470345205371212,-0.822678,0.0654653,-0.0788015
1470345205380168,-0.827247,0.0642125,-0.0783457
1470345205402696,-0.82959,0.064055,-0.0770565
1470345205423223,-0.830165,0.0643691,-0.0750881
1470345205440237,-0.831185,0.065687,-0.0726496
1470345205462256,-0.833049,0.068168,-0.0699672
1470345205484275,-0.834768,0.0708672,-0.0671103
1470345205500296,-0.837681,0.0731611,-0.0645373
1470345205522344,-0.844304,0.0744688,-0.0619826
1470345205543386,-0.850063,0.0733788,-0.0597699
1470345205560367,-0.855142,0.0728007,-0.0573458
1470345205582403,-0.858034,0.0714232,-0.0549789
1470345205604013,-0.862318,0.0702431,-0.0527596
1470345205626529,-0.866172,0.0692267,-0.0499152
1470345205642500,-0.869552,0.070124,-0.0461781
1470345205663560,-0.873059,0.0717231,-0.0418292
1470345205679574,-0.872047,0.079961,-0.0365974
1470345205703109,-0.863219,0.0848972,-0.0319951
1470345205723742,-0.853918,0.0907888,-0.0272363
1470345205739690,-0.849488,0.0936307,-0.0226619
1470345205762714,-0.84625,0.0943944,-0.0188146
1470345205784735,-0.841975,0.0955283,-0.016161
1470345205799796,-0.83699,0.098152,-0.0137264
1470345205822510,-0.832977,0.101444,-0.0097665
1470345205844530,-0.830127,0.100645,-0.0063205
1470345205859566,-0.825486,0.100088,-0.00250646
1470345205882588,-0.823481,0.0994061,0.000297128
1470345205905189,-0.823731,0.097604,0.00226919
1470345205919284,-0.826004,0.0955366,0.0041327
1470345205942289,-0.826793,0.0930712,0.00637864
1470345205965286,-0.825902,0.0911765,0.00818684
1470345205979298,-0.825395,0.0892791,0.0099733
1470345206009961,-0.827398,0.0870566,0.011793
1470345206024964,-0.828266,0.085346,0.013313
1470345206039016,-0.827241,0.0839539,0.014762
1470345206062979,-0.826144,0.0831991,0.0155371
1470345206084999,-0.825741,0.0817832,0.0153728
1470345206099566,-0.824535,0.0803868,0.014692
1470345206122195,-0.821504,0.0794794,0.0140031
1470345206145125,-0.817389,0.0799274,0.0134256
1470345206159138,-0.815182,0.081289,0.0123878
1470345206182158,-0.813586,0.0844577,0.0133461
1470345206205189,-0.810897,0.0863348,0.0147756
1470345206219935,-0.807713,0.0872421,0.0149147
1470345206242934,-0.800602,0.088141,0.0130925
1470345206264954,-0.794898,0.0907206,0.0110552
1470345206285973,-0.792973,0.0912987,0.00970303
1470345206302995,-0.789549,0.0894318,0.00891115
1470345206325021,-0.781644,0.0865369,0.00713789
1470345206348041,-0.772285,0.0834266,0.00549431
1470345206363054,-0.764677,0.0809091,0.00418479
1470345206385077,-0.757549,0.0795822,0.000521956
1470345206406611,-0.749866,0.080582,-0.00429461
1470345206422850,-0.747044,0.0804181,-0.00830817
1470345206444870,-0.749113,0.0776192,-0.0128106
1470345206465914,-0.752144,0.0712204,-0.0164476
1470345206482904,-0.752273,0.0642982,-0.0200176
1470345206505430,-0.747094,0.0619065,-0.0244044
1470345206525953,-0.742811,0.0611934,-0.0296081
1470345206542972,-0.737283,0.0624096,-0.0349832
1470345206572995,-0.732223,0.0647,-0.0410333
1470345206586008,-0.72949,0.0668521,-0.0454056
1470345206603045,-0.726171,0.0676347,-0.046871
1470345206625095,-0.718757,0.0700256,-0.0483678
1470345206646147,-0.712858,0.0718525,-0.0520483
1470345206662128,-0.713202,0.0731722,-0.0551628
1470345206685150,-0.717554,0.0723218,-0.0572659
1470345206708182,-0.718343,0.0712997,-0.0582227
1470345206722193,-0.715084,0.0700227,-0.0596797
1470345206745214,-0.712329,0.0691202,-0.0601283
1470345206767234,-0.712688,0.0672532,-0.0612729
1470345206782247,-0.71427,0.0655244,-0.0630438
1470345206805286,-0.714907,0.0637476,-0.0646237
1470345206828038,-0.714351,0.0618926,-0.0661222
1470345206842051,-0.713458,0.059958,-0.0682282
1470345206865076,-0.711957,0.0591176,-0.0705876
1470345206887181,-0.710198,0.0583764,-0.0727122
1470345206902144,-0.7095,0.0575877,-0.0752554
1470345206909157,-0.708897,0.0567628,-0.0775287
1470345206930177,-0.708302,0.056054,-0.0798455
1470345206953208,-0.706903,0.0547087,-0.0825432
1470345206969210,-0.706411,0.0531444,-0.0850689
1470345206990278,-0.709321,0.0495153,-0.0872322
1470345207013074,-0.715156,0.0432244,-0.0885059
1470345207029061,-0.723163,0.0362032,-0.0890251
1470345207051082,-0.730644,0.0285281,-0.0898785
1470345207073130,-0.736151,0.0194805,-0.0920589
1470345207089146,-0.739825,0.00988749,-0.0957762
1470345207110300,-0.744388,0.00284189,-0.0991656
1470345207133300,-0.749003,-0.00045827,-0.101642
1470345207149269,-0.752298,-0.00158954,-0.103761
1470345207170287,-0.753638,-0.0017424,-0.106616
1470345207193421,-0.753213,-0.000735395,-0.108453
1470345207209456,-0.754048,-0.00434948,-0.113485
1470345207230463,-0.752145,-0.00640932,-0.116314
1470345207253482,-0.752219,-0.00864701,-0.119641
1470345207269498,-0.754013,-0.0102223,-0.122995
1470345207293583,-0.754172,-0.0110829,-0.126475
1470345207312643,-0.753784,-0.0124969,-0.130779
1470345207329623,-0.751925,-0.014173,-0.135999
1470345207350700,-0.751152,-0.0149445,-0.140411
1470345207372669,-0.751052,-0.0142331,-0.144642
1470345207389677,-0.749449,-0.012208,-0.148825
1470345207410299,-0.746878,-0.0064268,-0.155366
1470345207433360,-0.743114,0.00113253,-0.159652
1470345207451335,-0.741997,0.00803081,-0.160723
1470345207470357,-0.743909,0.0124631,-0.159763
1470345207493409,-0.743757,0.0140838,-0.158685
1470345207510991,-0.739443,0.0150462,-0.157057
1470345207531015,-0.73555,0.0166666,-0.155301
1470345207553023,-0.736185,0.0166988,-0.154421
1470345207570038,-0.742464,0.0148907,-0.153828
1470345207591054,-0.745841,0.0117092,-0.152577
1470345207613132,-0.744606,0.00997423,-0.151851
1470345207631126,-0.739171,0.0122405,-0.152804
1470345207651144,-0.737269,0.016275,-0.152594
1470345207673199,-0.743279,0.0183238,-0.151255
1470345207691232,-0.746524,0.0182525,-0.150824
1470345207710838,-0.744638,0.0177567,-0.150427
1470345207735849,-0.741636,0.0195085,-0.15021
1470345207750863,-0.74205,0.0214546,-0.150196
1470345207770880,-0.745307,0.0212076,-0.150229
1470345207793409,-0.74574,0.0201501,-0.149833
1470345207810429,-0.74307,0.0214836,-0.14959
1470345207830472,-0.739228,0.0252668,-0.151037
1470345207853467,-0.7414,0.0304114,-0.151952
1470345207870485,-0.746179,0.0312706,-0.151583
1470345207890516,-0.750844,0.0295861,-0.152711
1470345207913191,-0.752884,0.0277839,-0.152216
1470345207931208,-0.754109,0.0284181,-0.151733
1470345207950225,-0.749985,0.0317895,-0.153276
1470345207973242,-0.751781,0.0370463,-0.153993
1470345207991206,-0.756704,0.036705,-0.153307
1470345208013764,-0.759415,0.0347453,-0.152787
1470345208032813,-0.758099,0.0351835,-0.152239
1470345208050797,-0.754296,0.0390558,-0.153467
1470345208070817,-0.753543,0.0430325,-0.155533
1470345208093341,-0.759499,0.0442328,-0.156459
1470345208110868,-0.761596,0.0424794,-0.159163
1470345208131885,-0.758828,0.0435471,-0.162604
1470345208152922,-0.756139,0.04506,-0.165962
1470345208170922,-0.753447,0.045459,-0.16913
1470345208190939,-0.754442,0.0449994,-0.171111
1470345208213008,-0.754702,0.0431348,-0.172095
1470345208231023,-0.748334,0.0428126,-0.176221
1470345208252040,-0.7388,0.0443855,-0.181946
1470345208273059,-0.736255,0.0443546,-0.185337
1470345208291076,-0.739365,0.0426957,-0.185526
1470345208312104,-0.736544,0.0398974,-0.184545
1470345208333147,-0.731634,0.0392792,-0.186923
1470345208351139,-0.724678,0.0382641,-0.191521
1470345208372160,-0.725646,0.0363667,-0.198066
1470345208393267,-0.725789,0.0327101,-0.207699
1470345208411279,-0.717745,0.0303798,-0.223411
1470345208432299,-0.7052,0.0318059,-0.245347
1470345208460335,-0.696053,0.0313696,-0.27133
1470345208471352,-0.687822,0.0286003,-0.301606
1470345208491377,-0.676349,0.0253068,-0.337657
1470345208513411,-0.660603,0.0220429,-0.377595
1470345208531427,-0.644965,0.0154264,-0.418927
1470345208551524,-0.634593,0.0029111,-0.46019
1470345208573465,-0.632894,-0.0145802,-0.501838
1470345208590502,-0.630919,-0.0272103,-0.538558
1470345208613557,-0.630879,-0.0367766,-0.563951
1470345208632575,-0.636368,-0.0446453,-0.577787
1470345208650590,-0.643093,-0.0518948,-0.586044
1470345208673611,-0.642924,-0.0554151,-0.588659
1470345208692629,-0.636633,-0.056696,-0.585476
1470345208713316,-0.626546,-0.0602947,-0.582847
1470345208733333,-0.621856,-0.0618418,-0.579761
1470345208753351,-0.61884,-0.0629246,-0.57735
1470345208771372,-0.609925,-0.062995,-0.576885
1470345208799441,-0.596805,-0.0597619,-0.578929
1470345208812623,-0.587594,-0.0571285,-0.581685
1470345208830584,-0.587343,-0.0557612,-0.582192
1470345208853604,-0.590377,-0.0542245,-0.582469
1470345208872620,-0.590169,-0.0537868,-0.583769
1470345208891644,-0.59034,-0.0537523,-0.584316
1470345208918234,-0.587344,-0.0537154,-0.585086
1470345208933282,-0.583652,-0.0533077,-0.585785
1470345208957264,-0.581338,-0.052501,-0.585853
1470345208973279,-0.580128,-0.0516506,-0.58602
1470345208993357,-0.578008,-0.0507252,-0.586026
1470345209011061,-0.575267,-0.050065,-0.586163
1470345209033035,-0.573018,-0.0501009,-0.586419
1470345209053054,-0.571903,-0.0502158,-0.586182
1470345209071203,-0.571605,-0.0496705,-0.585504
1470345209094150,-0.572423,-0.047741,-0.584932
1470345209112757,-0.573633,-0.0473647,-0.585514
1470345209130755,-0.575574,-0.047389,-0.586705
1470345209153817,-0.578696,-0.0470106,-0.587949
1470345209172848,-0.581413,-0.0471867,-0.589292
1470345209190809,-0.582757,-0.0474488,-0.590887
1470345209213592,-0.582216,-0.0482948,-0.592477
1470345209234611,-0.580964,-0.0492845,-0.593985
1470345209250626,-0.580533,-0.0496145,-0.595058
1470345209273647,-0.580697,-0.0496888,-0.595973
1470345209294665,-0.581254,-0.0498691,-0.596908
1470345209311187,-0.582229,-0.049982,-0.598009
1470345209339218,-0.583254,-0.0507666,-0.599041
1470345209362238,-0.585092,-0.0515844,-0.599883
1470345209371250,-0.591138,-0.0532186,-0.599794
1470345209393267,-0.601188,-0.0570564,-0.598925
1470345209414295,-0.614774,-0.063239,-0.596864
1470345209436316,-0.629625,-0.0700958,-0.593674
1470345209460337,-0.643448,-0.0760414,-0.585787
1470345209473350,-0.64713,-0.0781866,-0.572357
1470345209496410,-0.641005,-0.0745013,-0.548727
1470345209512276,-0.637354,-0.0679701,-0.514504
1470345209535299,-0.642812,-0.0624645,-0.472921
1470345209556315,-0.655503,-0.0545139,-0.427407
1470345209572357,-0.66802,-0.0455327,-0.385198
1470345209595353,-0.679906,-0.0366504,-0.347303
1470345209609870,-0.684932,-0.0308274,-0.313544
1470345209632441,-0.684213,-0.0272705,-0.281986
1470345209655457,-0.684764,-0.0254587,-0.25334
1470345209676559,-0.68401,-0.0225399,-0.230841
1470345209692553,-0.681264,-0.0189978,-0.213365
1470345209714620,-0.680961,-0.0169067,-0.199509
1470345209729636,-0.683068,-0.0179896,-0.189156
1470345209752657,-0.685255,-0.0222667,-0.18196
1470345209774706,-0.68549,-0.025772,-0.17642
1470345209796310,-0.682978,-0.0282226,-0.170821
1470345209812858,-0.67861,-0.0298236,-0.164731
1470345209834843,-0.676252,-0.0306635,-0.159592
1470345209855941,-0.674762,-0.0312164,-0.156011
1470345209872878,-0.672325,-0.0315468,-0.151966
1470345209894898,-0.668842,-0.0309085,-0.147617
1470345209909917,-0.665258,-0.0296723,-0.144119
1470345209932997,-0.66587,-0.029719,-0.141128
1470345209955018,-0.667366,-0.0301421,-0.138662
1470345209969030,-0.666319,-0.0299653,-0.136511
1470345209993050,-0.663261,-0.0293898,-0.135135
1470345210015093,-0.662115,-0.0286482,-0.134339
1470345210036116,-0.662206,-0.0276067,-0.134315
1470345210052128,-0.662933,-0.0277573,-0.13271
1470345210075148,-0.66404,-0.0289406,-0.131801
1470345210096181,-0.663194,-0.0298068,-0.131105
1470345210112216,-0.662382,-0.0302397,-0.129528
1470345210135237,-0.662741,-0.0304738,-0.127508
1470345210156258,-0.662714,-0.0305013,-0.126459
1470345210172273,-0.660528,-0.0306246,-0.125762
1470345210195296,-0.657347,-0.0298813,-0.125739
1470345210216382,-0.655012,-0.0274548,-0.125895
1470345210232367,-0.653747,-0.0248618,-0.126117
1470345210255388,-0.65536,-0.0238425,-0.126219
1470345210276407,-0.659689,-0.0246958,-0.125966
1470345210292428,-0.663012,-0.0276835,-0.125361
1470345210315454,-0.664879,-0.029137,-0.123973
1470345210336496,-0.660322,-0.0293259,-0.124649
1470345210352485,-0.658123,-0.0272505,-0.12431
1470345210375506,-0.660862,-0.02459,-0.123561
1470345210396525,-0.663711,-0.0200543,-0.12411
1470345210412042,-0.667282,-0.0167646,-0.124772
1470345210435210,-0.671239,-0.0151959,-0.124719
1470345210456255,-0.675446,-0.0160975,-0.123556
1470345210472355,-0.678991,-0.0197078,-0.122851
1470345210495288,-0.68434,-0.0258772,-0.120982
1470345210517156,-0.690084,-0.0321062,-0.117758
1470345210532145,-0.694565,-0.0337066,-0.117077
1470345210555208,-0.694135,-0.0296784,-0.119308
1470345210577229,-0.695138,-0.0233445,-0.121731
1470345210592199,-0.698754,-0.017693,-0.123438
1470345210614972,-0.699782,-0.0115024,-0.125184
1470345210637992,-0.69843,-0.00671596,-0.127294
1470345210652005,-0.700112,-0.003986,-0.130929
1470345210675029,-0.704635,-0.00364971,-0.133111
1470345210697627,-0.707589,-0.00383767,-0.132714
1470345210712640,-0.70526,-0.00352874,-0.131606
1470345210734697,-0.703715,-0.00236771,-0.129779
1470345210757686,-0.70776,-0.00179347,-0.127868
1470345210771698,-0.711893,-0.0022459,-0.127662
1470345210794801,-0.713706,-0.00267509,-0.127806
1470345210817491,-0.716133,-0.00364561,-0.127891
1470345210840511,-0.719046,-0.00483612,-0.127767
1470345210855523,-0.721746,-0.00555315,-0.127816
1470345210877543,-0.725655,-0.00587298,-0.12765
1470345210891582,-0.729882,-0.00661416,-0.126797
1470345210914803,-0.73273,-0.00737077,-0.125917
1470345210937748,-0.734855,-0.0084911,-0.125395
1470345210951776,-0.737416,-0.00972008,-0.125106
1470345210974756,-0.73906,-0.0105472,-0.125601
1470345210997776,-0.740255,-0.0112586,-0.127582
1470345211018331,-0.740543,-0.0115443,-0.130624
1470345211035348,-0.742574,-0.0117847,-0.133594
1470345211063416,-0.745653,-0.01172,-0.136571
1470345211078467,-0.747686,-0.0115919,-0.139554
1470345211095400,-0.748292,-0.0113452,-0.142163
1470345211117555,-0.748675,-0.0104045,-0.144383
1470345211138617,-0.750091,-0.00967833,-0.146281
1470345211155579,-0.751332,-0.00919654,-0.147813
1470345211177599,-0.752572,-0.00862692,-0.148463
1470345211198669,-0.752216,-0.00819016,-0.148758
1470345211214788,-0.751357,-0.00751036,-0.148875
1470345211237769,-0.750235,-0.00696818,-0.149063
1470345211258789,-0.7493,-0.00669959,-0.148876
1470345211274800,-0.747892,-0.00643249,-0.148816
1470345211297822,-0.746426,-0.00630629,-0.14843
1470345211318849,-0.745081,-0.00666231,-0.148255
1470345211334863,-0.74401,-0.00710484,-0.147928
1470345211357889,-0.743897,-0.00671436,-0.147291
1470345211378955,-0.744736,-0.00544342,-0.146882
1470345211403022,-0.74313,-0.00434206,-0.147402
1470345211418045,-0.742284,-0.00354888,-0.147559
1470345211440064,-0.743524,-0.00297612,-0.14821
1470345211455077,-0.744113,-0.00269001,-0.149391
1470345211477099,-0.744291,-0.00177517,-0.149355
1470345211500190,-0.742228,-0.00103621,-0.148534
1470345211514815,-0.738728,-0.000325397,-0.148055
1470345211537881,-0.735918,0.000921004,-0.147407
1470345211559855,-0.733402,0.00326393,-0.14587
1470345211574868,-0.731723,0.00312659,-0.146557
1470345211605446,-0.735885,0.00288272,-0.146062
1470345211620516,-0.738662,0.00163087,-0.14605
1470345211634530,-0.741222,0.000688791,-0.144977
1470345211657550,-0.74221,-0.000111677,-0.144826
1470345211680571,-0.742546,-0.000527292,-0.1448
1470345211694583,-0.743061,-0.000992164,-0.144899
1470345211717618,-0.74343,-0.00111169,-0.145122
1470345211739706,-0.744306,-0.000216037,-0.145367
1470345211754650,-0.745938,0.000462383,-0.145678
1470345211777715,-0.747265,0.000884481,-0.145354
1470345211800255,-0.745385,0.000718489,-0.144446
1470345211814280,-0.743767,0.000398576,-0.143881
1470345211837660,-0.74401,-2.48328e-05,-0.144248
1470345211860650,-0.744608,-0.000594936,-0.143909
1470345211874663,-0.746445,-0.000547774,-0.143454
1470345211897685,-0.746187,-0.000776522,-0.143101
1470345211919767,-0.745404,-0.000650384,-0.143912
1470345211941789,-0.746528,-0.000265621,-0.145409
1470345211957802,-0.747686,0.000748627,-0.146628
1470345211979821,-0.74661,0.00174351,-0.146991
1470345212001374,-0.745727,0.00262167,-0.146909
1470345212024004,-0.746452,0.00312046,-0.147523
1470345212039963,-0.746254,0.00366301,-0.147863
1470345212061025,-0.745491,0.00435069,-0.14758
1470345212077997,-0.744856,0.00500504,-0.147026
1470345212100568,-0.743967,0.00534227,-0.146346
1470345212121114,-0.74171,0.0054776,-0.146061
1470345212137125,-0.740957,0.00603178,-0.14612
1470345212160132,-0.741416,0.00672866,-0.146276
1470345212181204,-0.741562,0.00696624,-0.14598
1470345212198164,-0.74079,0.00720213,-0.145524
1470345212220291,-0.739183,0.0073323,-0.145125
1470345212241309,-0.738136,0.00735993,-0.14458
1470345212258294,-0.73887,0.00711379,-0.14372
1470345212280314,-0.74273,0.00641818,-0.142783
1470345212301842,-0.74584,0.00459449,-0.141508
1470345212317371,-0.744778,0.00295684,-0.140182
1470345212340392,-0.741102,0.00172055,-0.138285
1470345212361414,-0.737009,0.00012362,-0.137028
1470345212377426,-0.734238,-0.00154126,-0.13605
1470345212400458,-0.733746,-0.00298393,-0.136138
1470345212422588,-0.736218,-0.00371216,-0.136578
1470345212437552,-0.737359,-0.0043982,-0.137127
1470345212460576,-0.737819,-0.00500321,-0.136901
1470345212482591,-0.737195,-0.0065746,-0.136675
1470345212496627,-0.737154,-0.00902496,-0.136906
1470345212520240,-0.737569,-0.0131108,-0.137571
1470345212542285,-0.73965,-0.0175626,-0.138513
1470345212557274,-0.741247,-0.0218406,-0.139776
1470345212580295,-0.741405,-0.0260501,-0.143134
1470345212602845,-0.742598,-0.0293281,-0.150288
1470345212616864,-0.74212,-0.0292888,-0.161732
1470345212639964,-0.739395,-0.0297402,-0.179395
1470345212662903,-0.728993,-0.0291005,-0.206352
1470345212683978,-0.713625,-0.0255624,-0.238516
1470345212700442,-0.702329,-0.0223528,-0.278164
1470345212723029,-0.691454,-0.0196371,-0.320329
1470345212744104,-0.680395,-0.0178901,-0.363002
1470345212760063,-0.666667,-0.0195246,-0.403822
1470345212782084,-0.652923,-0.0232021,-0.441201
1470345212804132,-0.639426,-0.0290769,-0.473975
1470345212819812,-0.63009,-0.0365806,-0.501284
1470345212857885,-0.62666,-0.0454111,-0.522038
1470345212863881,-0.623437,-0.0541107,-0.539447
1470345212879867,-0.618235,-0.0608544,-0.553731
1470345212902937,-0.612585,-0.0664763,-0.564194
1470345212923503,-0.60901,-0.0718287,-0.56973
1470345212940467,-0.605762,-0.076587,-0.571845
1470345212962487,-0.604356,-0.07708,-0.572716
1470345212983506,-0.607187,-0.0735351,-0.572184
1470345213000520,-0.610752,-0.070004,-0.570245
1470345213022553,-0.610174,-0.0680614,-0.56895
1470345213043637,-0.602255,-0.065724,-0.56904
1470345213067593,-0.589739,-0.0619389,-0.57159
1470345213082606,-0.581541,-0.0588108,-0.573363
1470345213104160,-0.580131,-0.0563014,-0.573472
1470345213119743,-0.581187,-0.0541765,-0.574158
1470345213142766,-0.58251,-0.0515696,-0.574739
1470345213163828,-0.580302,-0.0492496,-0.575795
1470345213179787,-0.576209,-0.0468676,-0.575959
1470345213202827,-0.574166,-0.0453555,-0.576539
1470345213230854,-0.574487,-0.0447243,-0.576735
1470345213239857,-0.576951,-0.0443779,-0.576201
1470345213262879,-0.579407,-0.0445466,-0.57566
1470345213283929,-0.579933,-0.0445437,-0.575563
1470345213299912,-0.57871,-0.0443599,-0.576212
1470345213322544,-0.577538,-0.0439929,-0.577038
1470345213345522,-0.577486,-0.0433622,-0.57761
1470345213359535,-0.578386,-0.0425468,-0.577887
1470345213382574,-0.578994,-0.0415366,-0.578371
1470345213406126,-0.578747,-0.0407186,-0.578997
1470345213420145,-0.576509,-0.0398398,-0.579624
1470345213450171,-0.574258,-0.0390302,-0.580111
1470345213465232,-0.57265,-0.0383276,-0.580741
1470345213479196,-0.572757,-0.0375504,-0.581094
1470345213502755,-0.57424,-0.0371313,-0.581331
1470345213525280,-0.575546,-0.0371684,-0.581393
1470345213547304,-0.576035,-0.0370105,-0.581757
1470345213562312,-0.576208,-0.0363828,-0.581679
1470345213585337,-0.576672,-0.035821,-0.582017
1470345213599376,-0.577633,-0.0352663,-0.582231
1470345213622959,-0.577988,-0.0346287,-0.582461
1470345213644978,-0.578055,-0.0345146,-0.5829
1470345213658993,-0.577627,-0.0342556,-0.583341
1470345213689019,-0.577852,-0.0344419,-0.583691
1470345213705541,-0.579975,-0.0353989,-0.583828
1470345213726562,-0.585774,-0.0377163,-0.583037
1470345213742577,-0.602007,-0.0436685,-0.580662
1470345213765598,-0.626153,-0.0545763,-0.576433
1470345213786620,-0.650598,-0.0651009,-0.568641
1470345213803141,-0.660847,-0.072946,-0.558874
1470345213831682,-0.655609,-0.0765765,-0.541606
1470345213846695,-0.649914,-0.0781521,-0.517854
1470345213862712,-0.656152,-0.0738047,-0.48446
1470345213884730,-0.68107,-0.0677443,-0.446907
1470345213906795,-0.706775,-0.059834,-0.405893
1470345213922824,-0.729461,-0.0479566,-0.367942
1470345213944844,-0.740904,-0.0363573,-0.334981
1470345213965907,-0.744663,-0.0248464,-0.309067
1470345213982878,-0.747023,-0.0148829,-0.286806
1470345214005430,-0.746437,-0.00806035,-0.263891
1470345214026628,-0.745552,-0.004303,-0.243768
1470345214042623,-0.745694,-0.00113588,-0.229572
1470345214065641,-0.745615,-0.000224054,-0.219504
1470345214086659,-0.74609,-0.00142607,-0.211673
1470345214102736,-0.743083,-0.00451998,-0.206922
1470345214125024,-0.737834,-0.00732948,-0.204713
1470345214146063,-0.734525,-0.00971496,-0.203936
1470345214163011,-0.732753,-0.0120298,-0.20431
1470345214185030,-0.731709,-0.0142355,-0.20382
1470345214206647,-0.730036,-0.0164415,-0.203191
1470345214223034,-0.726193,-0.0179285,-0.20264
1470345214245081,-0.720441,-0.0185778,-0.201436
1470345214266072,-0.713912,-0.0180444,-0.199752
1470345214282088,-0.710203,-0.0184794,-0.200527
1470345214305616,-0.716599,-0.0192066,-0.20175
1470345214328140,-0.718002,-0.0219064,-0.204717
1470345214343166,-0.714597,-0.0238431,-0.207698
1470345214365174,-0.706276,-0.0236949,-0.214335
1470345214387248,-0.694274,-0.0218442,-0.226954
1470345214402207,-0.684791,-0.0197228,-0.245312
1470345214425139,-0.676005,-0.0169167,-0.269764
1470345214448159,-0.663945,-0.0138229,-0.299189
1470345214462172,-0.650366,-0.0137896,-0.331883
1470345214485195,-0.639101,-0.0174875,-0.367588
1470345214507720,-0.626886,-0.0207151,-0.404642
1470345214522238,-0.615599,-0.0234386,-0.439346
1470345214545264,-0.613035,-0.0305128,-0.469849
1470345214567279,-0.613553,-0.0411598,-0.496553
1470345214589299,-0.612062,-0.0514364,-0.517777
1470345214612824,-0.610419,-0.0585425,-0.533031
1470345214627987,-0.612924,-0.062022,-0.543714
1470345214649046,-0.617665,-0.0639731,-0.5499
1470345214665044,-0.617837,-0.0659754,-0.553032
1470345214688040,-0.614396,-0.067044,-0.554106
1470345214709071,-0.6101,-0.0663771,-0.55514
1470345214724591,-0.607083,-0.0645822,-0.556847
1470345214730595,-0.607175,-0.0643376,-0.559343
1470345214752615,-0.60816,-0.0647194,-0.562086
1470345214770629,-0.609059,-0.0623878,-0.563925
1470345214790681,-0.605348,-0.0592526,-0.56545
1470345214813230,-0.602056,-0.0564752,-0.56649
1470345214829745,-0.598063,-0.0542159,-0.566933
1470345214850766,-0.591364,-0.0505452,-0.56706
1470345214872873,-0.586578,-0.0451824,-0.565965
1470345214895832,-0.588215,-0.0423534,-0.564639
1470345214910827,-0.592161,-0.042865,-0.564211
1470345214932846,-0.595455,-0.0429721,-0.564009
1470345214950863,-0.595587,-0.0430054,-0.564016
1470345214970924,-0.593815,-0.0427694,-0.564494
1470345214992934,-0.592544,-0.0428557,-0.565592
1470345215009558,-0.59227,-0.0434525,-0.566059
1470345215030739,-0.593457,-0.044445,-0.566359
1470345215052784,-0.595805,-0.0456067,-0.566566
1470345215070720,-0.5973,-0.0465906,-0.567045
1470345215090786,-0.596407,-0.0467159,-0.568276
1470345215113350,-0.594322,-0.0458103,-0.569079
1470345215131399,-0.593971,-0.0448525,-0.569739
1470345215150474,-0.595616,-0.0448747,-0.570384
1470345215173435,-0.599097,-0.0454409,-0.570985
1470345215190451,-0.602129,-0.0460531,-0.571258
1470345215211026,-0.603327,-0.0463084,-0.572202
1470345215233364,-0.602825,-0.0465012,-0.573322
1470345215251452,-0.602774,-0.046877,-0.57414
1470345215278430,-0.603535,-0.0475102,-0.574517
1470345215300393,-0.603576,-0.0483978,-0.574795
1470345215311407,-0.603727,-0.0493626,-0.575181
1470345215330455,-0.60369,-0.0494742,-0.575143
1470345215353462,-0.603028,-0.0494442,-0.575232
1470345215371551,-0.602035,-0.0487811,-0.575375
1470345215390496,-0.600814,-0.0479383,-0.575543
1470345215413553,-0.60064,-0.0457911,-0.575647
1470345215431259,-0.601487,-0.0437026,-0.575022
1470345215451251,-0.603123,-0.0425118,-0.57468
1470345215473261,-0.606126,-0.0422674,-0.574442
1470345215491269,-0.60933,-0.0422094,-0.574154
1470345215510888,-0.610596,-0.0420235,-0.574426
1470345215533662,-0.609884,-0.0419605,-0.575337
1470345215550594,-0.608752,-0.0419785,-0.576449
1470345215570614,-0.609076,-0.0425023,-0.577389
1470345215592635,-0.610238,-0.0426887,-0.577675
1470345215611154,-0.610976,-0.0424962,-0.577666
1470345215630877,-0.61007,-0.041954,-0.578018
1470345215652942,-0.60949,-0.0413241,-0.57832
1470345215670903,-0.60949,-0.0413241,-0.57832
1470345215690965,-0.610242,-0.0410643,-0.578453
1470345215713454,-0.610242,-0.0410643,-0.578453
1470345215731145,-0.610123,-0.041102,-0.578707
1470345215750162,-0.609732,-0.041036,-0.578817
1470345215780221,-0.609443,-0.0411511,-0.579026
1470345215791197,-0.60935,-0.0420052,-0.579292
1470345215810766,-0.609494,-0.0425231,-0.579553
1470345215840758,-0.609494,-0.0425231,-0.579553
1470345215850777,-0.609112,-0.0420803,-0.579801
1470345215871785,-0.60759,-0.041418,-0.580035
1470345215895805,-0.606715,-0.0398668,-0.580179
1470345215911326,-0.607177,-0.0377238,-0.580049
1470345215931757,-0.608125,-0.0357927,-0.579781
1470345215952777,-0.609322,-0.0352696,-0.579494
1470345215970792,-0.610746,-0.0349254,-0.579183
1470345215999818,-0.610783,-0.0348139,-0.579223
1470345216013416,-0.609788,-0.0349613,-0.57897
1470345216030934,-0.609137,-0.0354144,-0.579307
1470345216051953,-0.609542,-0.0364125,-0.579572
1470345216073014,-0.611119,-0.0374829,-0.579763
1470345216090988,-0.612697,-0.0385537,-0.579954
1470345216112069,-0.614028,-0.0390774,-0.58028
1470345216133191,-0.61483,-0.0391921,-0.580707
1470345216151150,-0.615935,-0.0392639,-0.581187
1470345216172171,-0.616332,-0.03938,-0.581582
1470345216193212,-0.616427,-0.0395394,-0.581923
1470345216211269,-0.61701,-0.0394978,-0.582132
1470345216233293,-0.618422,-0.0392354,-0.582055
1470345216253311,-0.61992,-0.0394944,-0.581805
1470345216271327,-0.622473,-0.0402624,-0.581352
1470345216293345,-0.630402,-0.0429501,-0.579362
1470345216313420,-0.643348,-0.0494763,-0.574722
1470345216335395,-0.661222,-0.057027,-0.568545
1470345216353409,-0.673726,-0.0623652,-0.560209
1470345216373468,-0.672632,-0.0632487,-0.547817
1470345216395475,-0.662896,-0.0577799,-0.526977
1470345216413475,-0.658845,-0.0503218,-0.496201
1470345216433142,-0.669999,-0.0428532,-0.458117
1470345216456110,-0.689544,-0.0349245,-0.415689
1470345216473122,-0.707639,-0.0271011,-0.374436
1470345216493142,-0.720365,-0.0179885,-0.336142
1470345216515747,-0.726962,-0.00935727,-0.300485
1470345216533843,-0.731057,-0.00383389,-0.26478
1470345216552845,-0.738953,-0.000529945,-0.230693
1470345216575870,-0.747866,0.0027706,-0.20219
1470345216593877,-0.752922,0.00627821,-0.17834
1470345216613441,-0.756796,0.00853736,-0.157502
1470345216635685,-0.759969,0.00825751,-0.142088
1470345216653656,-0.761943,0.00695733,-0.132799
1470345216672729,-0.762572,0.00659904,-0.128324
1470345216695693,-0.762668,0.00836752,-0.127193
1470345216715719,-0.763582,0.0108948,-0.126651
1470345216733239,-0.769707,0.0125327,-0.125261
1470345216755289,-0.776048,0.0131046,-0.123586
1470345216781313,-0.775592,0.015254,-0.121939
1470345216802301,-0.773193,0.0183299,-0.118629
1470345216815925,-0.772658,0.0206809,-0.113893
1470345216833417,-0.773772,0.022185,-0.109395
1470345216854439,-0.775721,0.0221274,-0.105078
1470345216871530,-0.776072,0.0211209,-0.100719
1470345216893472,-0.774171,0.0198319,-0.0969662
1470345216914999,-0.772001,0.0176628,-0.0937783
1470345216930535,-0.770192,0.0149386,-0.0915654
1470345216953555,-0.768087,0.012794,-0.0902489
1470345216974576,-0.76513,0.0117025,-0.09
1470345216990587,-0.761163,0.0110421,-0.0904307
1470345217013688,-0.757335,0.0107159,-0.0909985
1470345217034682,-0.753919,0.0107358,-0.0913201
1470345217050697,-0.750134,0.0109556,-0.0911884
1470345217073718,-0.745317,0.0119873,-0.0904306
1470345217094735,-0.739221,0.0141578,-0.0895545
1470345217115822,-0.732146,0.0172033,-0.088197
1470345217133841,-0.726979,0.0195649,-0.0870027
1470345217155861,-0.725163,0.0207574,-0.0844045
1470345217175880,-0.724843,0.0211677,-0.0812859
1470345217193929,-0.723238,0.0225539,-0.0781111
1470345217223666,-0.719314,0.0238808,-0.0756376
1470345217230671,-0.715861,0.0253988,-0.0757248
1470345217253693,-0.714826,0.0280425,-0.076425
1470345217275713,-0.71495,0.0303549,-0.0775536
1470345217296730,-0.714056,0.0328943,-0.0788666
1470345217312764,-0.713107,0.0356746,-0.0777888
1470345217335792,-0.709801,0.0369468,-0.0746371
1470345217356809,-0.705193,0.0369077,-0.0726525
1470345217372823,-0.700261,0.0367805,-0.0737491
1470345217394842,-0.698723,0.0361381,-0.0752856
1470345217416369,-0.702789,0.0357667,-0.0763202
1470345217432888,-0.709006,0.0354972,-0.0761579
1470345217454907,-0.714068,0.0346058,-0.076378
1470345217469924,-0.714643,0.0344024,-0.078276
1470345217492959,-0.71448,0.0339155,-0.082391
1470345217515485,-0.715229,0.0353962,-0.0867521
1470345217530003,-0.713587,0.0383549,-0.0915822
1470345217553024,-0.711962,0.0412075,-0.0963665
1470345217575043,-0.710482,0.0434222,-0.0983068
1470345217589059,-0.709008,0.043999,-0.0968975
1470345217613084,-0.705633,0.0444895,-0.0962934
1470345217635108,-0.703135,0.0460872,-0.0971707
1470345217656130,-0.709693,0.0445418,-0.0996038
1470345217673146,-0.720348,0.0420892,-0.0993738
1470345217695168,-0.725737,0.0394663,-0.0974139
1470345217716719,-0.725211,0.038567,-0.0953527
1470345217732253,-0.723828,0.0376375,-0.0941655
1470345217755274,-0.726835,0.0371129,-0.0921137
1470345217776295,-0.733138,0.0356224,-0.090592
1470345217792308,-0.737073,0.0342434,-0.0890187
1470345217815332,-0.738032,0.0333923,-0.0880664
1470345217836416,-0.736581,0.0332971,-0.0881112
1470345217852396,-0.736128,0.0341628,-0.0883005
1470345217875425,-0.738124,0.0346444,-0.0885552
1470345217896411,-0.741515,0.0346734,-0.0888132
1470345217912990,-0.744404,0.0346804,-0.0885233
1470345217942612,-0.743988,0.0347162,-0.088129
1470345217956630,-0.741,0.0352786,-0.0879828
1470345217972603,-0.737251,0.0361277,-0.0881813
1470345217995621,-0.736117,0.0365234,-0.0882954
1470345218016666,-0.737394,0.035878,-0.0884834
1470345218032754,-0.738756,0.0344315,-0.0883631
1470345218054792,-0.74009,0.0322402,-0.0884747
1470345218075829,-0.741221,0.0290552,-0.0884515
1470345218092808,-0.744871,0.0232437,-0.0885239
1470345218115382,-0.749914,0.0156952,-0.0888487
1470345218137471,-0.75306,0.00952295,-0.0895089
1470345218152440,-0.756674,0.00505083,-0.0904408
1470345218175460,-0.759683,0.00119463,-0.0918576
1470345218197480,-0.762378,-0.00138041,-0.0940375
1470345218213028,-0.764231,-0.00437981,-0.0966822
1470345218235055,-0.766321,-0.0102155,-0.103069
1470345218258074,-0.763735,-0.0131747,-0.106848
1470345218272088,-0.765199,-0.0163775,-0.111642
1470345218295122,-0.769307,-0.0193483,-0.115117
1470345218318148,-0.772382,-0.0219483,-0.117802
1470345218332164,-0.771433,-0.0253192,-0.121042
1470345218355190,-0.768478,-0.0291995,-0.124586
1470345218377237,-0.766073,-0.0328073,-0.12773
1470345218392218,-0.765928,-0.0357612,-0.1305
1470345218415302,-0.766536,-0.0390854,-0.13339
1470345218437378,-0.766909,-0.0421464,-0.136651
1470345218452342,-0.765544,-0.0451783,-0.139515
1470345218475362,-0.763793,-0.0482218,-0.141853
1470345218497381,-0.762734,-0.0506983,-0.144293
1470345218512404,-0.762071,-0.0527952,-0.147014
1470345218535442,-0.761159,-0.0549398,-0.15025
1470345218558464,-0.759888,-0.0582158,-0.153429
1470345218572475,-0.758535,-0.061251,-0.15606
1470345218595509,-0.756817,-0.0630521,-0.157322
1470345218618046,-0.755193,-0.0636745,-0.158265
1470345218639346,-0.753511,-0.0632218,-0.15884
1470345218655361,-0.753919,-0.0630948,-0.158759
1470345218677380,-0.754152,-0.0635455,-0.158845
1470345218698400,-0.752441,-0.063455,-0.159012
1470345218715424,-0.751808,-0.0628379,-0.158591
1470345218737444,-0.752112,-0.0621819,-0.157529
1470345218758494,-0.751249,-0.0616131,-0.156968
1470345218775480,-0.749714,-0.0608567,-0.156735
1470345218797505,-0.747255,-0.0602556,-0.156443
1470345218819116,-0.743849,-0.0596526,-0.156011
1470345218835617,-0.741879,-0.0581566,-0.155678
1470345218857656,-0.739297,-0.0568675,-0.155635
1470345218878711,-0.736347,-0.0559704,-0.156372
1470345218894671,-0.73402,-0.0554893,-0.156683
1470345218918205,-0.732875,-0.0548624,-0.156
1470345218938733,-0.732921,-0.0541519,-0.154827
1470345218955745,-0.73207,-0.0530222,-0.154467
1470345218977785,-0.729961,-0.051442,-0.154934
1470345218998838,-0.72666,-0.0495597,-0.155889
1470345219015362,-0.724772,-0.0487403,-0.156588
1470345219037948,-0.724772,-0.0487403,-0.156588
1470345219059948,-0.725395,-0.049046,-0.156211
1470345219074962,-0.725537,-0.0489691,-0.15598
1470345219097982,-0.724405,-0.0484055,-0.155797
1470345219120520,-0.722444,-0.048069,-0.156038
1470345219134745,-0.722064,-0.0482224,-0.155855
1470345219157778,-0.72309,-0.0483582,-0.155282
1470345219179815,-0.724417,-0.0482422,-0.154681
1470345219194793,-0.724417,-0.0482422,-0.154681
1470345219217868,-0.723247,-0.0479672,-0.154906
1470345219239944,-0.722489,-0.0474513,-0.155094
1470345219254957,-0.721991,-0.0472534,-0.155038
1470345219277980,-0.722101,-0.0472639,-0.155029
1470345219299998,-0.722101,-0.0472639,-0.155029
1470345219314563,-0.722093,-0.0473777,-0.154986
1470345219337132,-0.721225,-0.046808,-0.155067
1470345219360153,-0.719441,-0.0458969,-0.155132
1470345219374248,-0.716689,-0.0442055,-0.155095
1470345219397188,-0.715189,-0.039859,-0.156053
1470345219420245,-0.712305,-0.0380717,-0.15786
1470345219434295,-0.715495,-0.0373209,-0.157911
1470345219457357,-0.720816,-0.0384177,-0.159265
1470345219480352,-0.723697,-0.0401152,-0.159962
1470345219494349,-0.724252,-0.0398854,-0.159928
1470345219517886,-0.724268,-0.0395279,-0.159668
1470345219540081,-0.723708,-0.0401685,-0.159424
1470345219561130,-0.724737,-0.040062,-0.158552
1470345219578111,-0.724975,-0.0405206,-0.157992
1470345219600166,-0.722447,-0.0408077,-0.157593
1470345219621748,-0.719073,-0.0403403,-0.157475
1470345219637784,-0.717309,-0.0396542,-0.157458
1470345219659788,-0.715162,-0.0383259,-0.157534
1470345219681773,-0.715099,-0.0372887,-0.156873
1470345219697784,-0.715729,-0.0376535,-0.157006
1470345219720811,-0.717482,-0.0389105,-0.157864
1470345219741844,-0.71992,-0.0398906,-0.158181
1470345219757840,-0.722088,-0.0403649,-0.157887
1470345219779859,-0.72349,-0.0408899,-0.157572
1470345219800881,-0.7241,-0.0418508,-0.157223
1470345219817901,-0.723685,-0.0419179,-0.156797
1470345219839965,-0.72214,-0.0414268,-0.157227
1470345219861009,-0.720443,-0.0397865,-0.15744
1470345219877994,-0.718707,-0.0382611,-0.157597
1470345219900025,-0.716125,-0.0376433,-0.157928
1470345219921578,-0.716157,-0.0376421,-0.157937
1470345219937791,-0.718083,-0.0394887,-0.157521
1470345219960811,-0.721662,-0.0410868,-0.157487
1470345219982833,-0.72407,-0.0419818,-0.15756
1470345220004905,-0.72407,-0.0419818,-0.15756
1470345220020405,-0.723644,-0.0403692,-0.156851
1470345220042511,-0.725227,-0.0387844,-0.156818
1470345220057442,-0.726701,-0.0383549,-0.156735
1470345220080465,-0.727638,-0.037972,-0.156888
1470345220102539,-0.726556,-0.0381789,-0.157315
1470345220118057,-0.724689,-0.0368704,-0.157397
1470345220140621,-0.722913,-0.0324577,-0.157208
1470345220162674,-0.722557,-0.026453,-0.156976
1470345220176687,-0.722216,-0.022095,-0.156257
1470345220199679,-0.721771,-0.021117,-0.156878
1470345220223203,-0.72117,-0.0206636,-0.15652
1470345220236722,-0.720742,-0.0212607,-0.156811
1470345220260741,-0.719113,-0.022155,-0.158142
1470345220282762,-0.723134,-0.0227615,-0.158513
1470345220303780,-0.730842,-0.0247631,-0.158287
1470345220320315,-0.736282,-0.0272756,-0.157157
1470345220342375,-0.737837,-0.0309944,-0.156928
1470345220363452,-0.738795,-0.0361402,-0.1568
1470345220380410,-0.742853,-0.041785,-0.156236
1470345220402429,-0.748645,-0.0473582,-0.155428
1470345220423955,-0.755467,-0.051664,-0.156147
1470345220439977,-0.760092,-0.0556906,-0.158269
1470345220463000,-0.76348,-0.0584691,-0.160477
1470345220484041,-0.767079,-0.0601341,-0.162466
1470345220500080,-0.770126,-0.0598719,-0.164031
1470345220523090,-0.771314,-0.0580929,-0.165547
1470345220544192,-0.771437,-0.0563869,-0.167161
1470345220560216,-0.770221,-0.0553281,-0.167458
1470345220583221,-0.770716,-0.0551068,-0.165157
1470345220611785,-0.771891,-0.0550854,-0.161599
1470345220620294,-0.769634,-0.0533835,-0.159237
1470345220642348,-0.767769,-0.0496811,-0.158336
1470345220664369,-0.765717,-0.0449197,-0.157457
1470345220680385,-0.766812,-0.0397636,-0.154248
1470345220703404,-0.765848,-0.0343068,-0.150755
1470345220723972,-0.759353,-0.0284056,-0.148534
1470345220740190,-0.75239,-0.0218932,-0.14678
1470345220770211,-0.748269,-0.0157467,-0.143327
1470345220784229,-0.745008,-0.00798543,-0.137883
1470345220800233,-0.743742,-0.00193277,-0.134041
1470345220822809,-0.736292,0.00392846,-0.130346
1470345220850906,-0.72618,0.0116719,-0.124777
1470345220859862,-0.720786,0.0207736,-0.118119
1470345220882882,-0.714462,0.0294772,-0.112164
1470345220903903,-0.707701,0.0355177,-0.106601
1470345220919954,-0.701154,0.0400741,-0.101392
1470345220943020,-0.690566,0.0448598,-0.096218
1470345220965082,-0.680168,0.0498444,-0.0891503
1470345220980096,-0.673577,0.0529834,-0.0819597
1470345221003076,-0.667706,0.0547618,-0.0754858
1470345221025690,-0.658714,0.0561082,-0.0688716
1470345221039251,-0.649211,0.056562,-0.062848
1470345221063270,-0.641501,0.0549768,-0.0588039
1470345221085290,-0.639012,0.0524959,-0.0559589
1470345221099301,-0.640912,0.0516993,-0.0528021
1470345221122874,-0.646533,0.0513228,-0.0482342
1470345221146413,-0.652949,0.0468662,-0.0432008
1470345221167511,-0.656612,0.0378486,-0.0399802
1470345221182512,-0.660023,0.0319315,-0.0375231
1470345221205467,-0.657345,0.0278071,-0.0379906
1470345221226572,-0.658574,0.0262371,-0.0379946
1470345221242604,-0.660129,0.0267521,-0.0375565
1470345221272630,-0.659325,0.0285368,-0.0387971
1470345221279634,-0.658951,0.0296576,-0.0393017
1470345221302655,-0.660361,0.0294741,-0.0393981
1470345221325682,-0.664992,0.0274809,-0.0404882
1470345221346706,-0.67122,0.0220379,-0.0424675
1470345221362720,-0.67706,0.0161524,-0.0430915
1470345221385742,-0.679145,0.0107564,-0.0443249
1470345221406760,-0.679706,0.00638804,-0.046025
1470345221422793,-0.682549,0.000526637,-0.0481205
1470345221444909,-0.686468,-0.00506224,-0.0504384
1470345221466887,-0.690089,-0.0105579,-0.0535459
1470345221482903,-0.693242,-0.0152757,-0.0580902
1470345221504922,-0.69807,-0.019727,-0.0616844
1470345221526496,-0.702274,-0.0225212,-0.0628776
1470345221543022,-0.70125,-0.0224917,-0.0643207
1470345221565038,-0.699631,-0.0199288,-0.0670738
1470345221586135,-0.700352,-0.0180358,-0.0689377
1470345221603070,-0.700728,-0.0181669,-0.0703199
1470345221625652,-0.699736,-0.0170372,-0.0712494
1470345221646177,-0.698334,-0.015998,-0.0731794
1470345221663192,-0.699968,-0.0146599,-0.0743292
1470345221685214,-0.704437,-0.0131493,-0.0750408
1470345221706285,-0.708709,-0.0142302,-0.0771469
1470345221722780,-0.711952,-0.0157045,-0.0804048
1470345221745309,-0.71152,-0.0174163,-0.0868025
1470345221766328,-0.706781,-0.0180565,-0.0976081
1470345221783434,-0.702519,-0.0176552,-0.11308
1470345221805391,-0.697176,-0.0160228,-0.133783
1470345221834136,-0.689895,-0.0137041,-0.159475
1470345221842104,-0.68069,-0.0105004,-0.190707
1470345221865149,-0.669992,-0.00682967,-0.226771
1470345221888146,-0.66009,-0.00429442,-0.267081
1470345221902158,-0.652684,-0.00361602,-0.309189
1470345221925741,-0.646826,-0.00510546,-0.350935
1470345221948320,-0.639655,-0.00727404,-0.391295
1470345221962333,-0.629148,-0.00791028,-0.427821
1470345221985352,-0.619338,-0.00860366,-0.457577
1470345222013934,-0.615335,-0.0132353,-0.481658
1470345222022426,-0.614421,-0.0230445,-0.501482
1470345222045482,-0.611255,-0.0338645,-0.518949
1470345222067504,-0.605199,-0.0418809,-0.531856
1470345222082514,-0.599398,-0.0499542,-0.539527
