timestamp,x,y,z,w
1470243735447896,-0.214355,0.200134,-0.66626,0.685608
1470243735462409,-0.214294,0.200195,-0.66626,0.685608
1470243735485432,-0.214478,0.200317,-0.666138,0.685669
1470243735507950,-0.214722,0.200439,-0.665955,0.68573
1470243735522462,-0.214722,0.200378,-0.665833,0.685913
1470243735545484,-0.214539,0.200134,-0.665833,0.686035
1470243735568005,-0.214539,0.200134,-0.665771,0.686035
1470243735582517,-0.214539,0.200195,-0.665771,0.686035
1470243735605539,-0.214661,0.200317,-0.665649,0.686096
1470243735628059,-0.214905,0.200378,-0.665466,0.686157
1470243735649077,-0.215149,0.200439,-0.665344,0.686157
1470243735665591,-0.215149,0.200439,-0.665344,0.686157
1470243735688113,-0.215149,0.200439,-0.665344,0.686157
1470243735709131,-0.215149,0.200439,-0.665344,0.686157
1470243735725645,-0.215271,0.200623,-0.665222,0.686157
1470243735748166,-0.215454,0.200806,-0.665161,0.686157
1470243735769185,-0.215454,0.200806,-0.665161,0.686157
1470243735785700,-0.215454,0.200867,-0.665161,0.686157
1470243735807719,-0.215454,0.200867,-0.665161,0.686157
1470243735829739,-0.215454,0.200867,-0.665161,0.686157
1470243735845253,-0.215698,0.20105,-0.6651,0.686096
1470243735867773,-0.215698,0.20105,-0.6651,0.686096
1470243735889292,-0.215698,0.20105,-0.6651,0.686096
1470243735905307,-0.215698,0.20105,-0.6651,0.686096
1470243735927828,-0.215698,0.201111,-0.6651,0.686096
1470243735949347,-0.215698,0.201111,-0.6651,0.686096
1470243735965361,-0.215637,0.201172,-0.665039,0.686096
1470243735988382,-0.215637,0.201172,-0.665039,0.686096
1470243736008901,-0.215637,0.201172,-0.665039,0.686096
1470243736025415,-0.215637,0.201172,-0.665039,0.686096
1470243736047935,-0.215698,0.201233,-0.665039,0.686096
1470243736070456,-0.215698,0.201233,-0.665039,0.686096
1470243736085475,-0.215698,0.201233,-0.665039,0.686096
1470243736115496,-0.215881,0.201416,-0.6651,0.685913
1470243736130510,-0.215942,0.201477,-0.665222,0.685791
1470243736146525,-0.216064,0.201599,-0.665344,0.685547
1470243736168046,-0.216064,0.201782,-0.665527,0.685303
1470243736190563,-0.216187,0.201965,-0.665833,0.684937
1470243736205079,-0.216187,0.202148,-0.666199,0.68457
1470243736228097,-0.21637,0.202637,-0.666382,0.684143
1470243736250617,-0.216431,0.202942,-0.666626,0.683777
1470243736264629,-0.216431,0.20343,-0.66687,0.683472
1470243736295657,-0.21637,0.203918,-0.667053,0.683105
1470243736310170,-0.216064,0.204346,-0.667358,0.6828
1470243736324684,-0.215942,0.204834,-0.667664,0.682373
1470243736347704,-0.215759,0.205261,-0.667969,0.682007
1470243736370726,-0.215698,0.205627,-0.668213,0.681641
1470243736384738,-0.215698,0.205994,-0.668518,0.681274
1470243736408258,-0.215576,0.206238,-0.668701,0.68103
1470243736430279,-0.215393,0.206299,-0.669006,0.680786
1470243736444791,-0.215454,0.206543,-0.669189,0.680542
1470243736467812,-0.215515,0.206604,-0.669373,0.680298
1470243736490334,-0.215454,0.206543,-0.669556,0.680176
1470243736504847,-0.215332,0.206421,-0.669678,0.680115
1470243736527866,-0.215332,0.206299,-0.6698,0.679993
1470243736550387,-0.215332,0.20636,-0.6698,0.679993
1470243736571905,-0.215332,0.20636,-0.6698,0.679993
1470243736587920,-0.215637,0.206482,-0.669861,0.67981
1470243736610440,-0.215942,0.206421,-0.669983,0.679626
1470243736631459,-0.216309,0.206421,-0.670105,0.679382
1470243736647974,-0.216492,0.206421,-0.670227,0.679199
1470243736670496,-0.216675,0.20636,-0.67041,0.679016
1470243736691513,-0.216797,0.206238,-0.670532,0.678833
1470243736708028,-0.216919,0.206177,-0.670715,0.67865
1470243736730548,-0.21698,0.206238,-0.670898,0.678467
1470243736751567,-0.217163,0.206421,-0.671082,0.678162
1470243736768081,-0.217346,0.206543,-0.671326,0.677856
1470243736791602,-0.217407,0.206665,-0.67157,0.677551
1470243736811621,-0.217468,0.206787,-0.671814,0.677185
1470243736828136,-0.217529,0.20697,-0.672119,0.676819
1470243736850656,-0.217651,0.207153,-0.672485,0.676392
1470243736871675,-0.217834,0.207458,-0.672729,0.675964
1470243736887689,-0.21814,0.207764,-0.673035,0.675476
1470243736910709,-0.218323,0.208008,-0.673401,0.674988
1470243736931728,-0.218506,0.208191,-0.673889,0.674377
1470243736947242,-0.218872,0.208435,-0.674255,0.673828
1470243736970764,-0.219116,0.208618,-0.674683,0.673218
1470243736991782,-0.219543,0.208923,-0.675049,0.672668
1470243737007797,-0.219849,0.209106,-0.675476,0.672058
1470243737030317,-0.21991,0.209167,-0.675903,0.67157
1470243737053339,-0.220032,0.209412,-0.67627,0.671143
1470243737067851,-0.220093,0.209534,-0.676697,0.670654
1470243737090871,-0.220215,0.209839,-0.677063,0.670105
1470243737112891,-0.220337,0.210022,-0.677429,0.669617
1470243737128406,-0.220398,0.210205,-0.677734,0.66925
1470243737150425,-0.220337,0.210327,-0.678101,0.668884
1470243737172947,-0.220276,0.210327,-0.678406,0.668579
1470243737187458,-0.220398,0.21051,-0.67865,0.668213
1470243737210479,-0.22052,0.210571,-0.678894,0.667908
1470243737233000,-0.22052,0.210632,-0.679138,0.667725
1470243737247512,-0.220337,0.210754,-0.679321,0.667542
1470243737270532,-0.220215,0.210693,-0.679443,0.667419
1470243737276037,-0.220215,0.210693,-0.679443,0.667419
1470243737298558,-0.219971,0.210571,-0.679565,0.66748
1470243737315073,-0.219604,0.210449,-0.679688,0.66748
1470243737336093,-0.219421,0.210327,-0.679749,0.667542
1470243737358112,-0.21936,0.210327,-0.679749,0.667542
1470243737374626,-0.21936,0.210327,-0.679749,0.667542
1470243737396145,-0.21936,0.210327,-0.679749,0.667542
1470243737418666,-0.219055,0.210083,-0.679688,0.667725
1470243737436182,-0.218933,0.209839,-0.679688,0.667908
1470243737456200,-0.218811,0.209717,-0.679565,0.668091
1470243737478720,-0.218567,0.209534,-0.679443,0.668274
1470243737494735,-0.218445,0.209412,-0.679321,0.668518
1470243737515753,-0.218445,0.209473,-0.679138,0.668701
1470243737541276,-0.218445,0.209473,-0.679138,0.668701
1470243737556290,-0.218445,0.209229,-0.679138,0.668762
1470243737575807,-0.218323,0.208923,-0.679138,0.668945
1470243737598828,-0.21814,0.208923,-0.679138,0.669006
1470243737614846,-0.217957,0.208923,-0.679077,0.669128
1470243737636363,-0.217957,0.208923,-0.679077,0.669128
1470243737658382,-0.218018,0.208923,-0.679077,0.669067
1470243737674896,-0.218018,0.208923,-0.679077,0.669067
1470243737695914,-0.217896,0.208862,-0.679199,0.669006
1470243737718435,-0.217896,0.208862,-0.679199,0.669006
1470243737734949,-0.217896,0.208862,-0.679199,0.669006
1470243737755970,-0.217896,0.208862,-0.679199,0.669006
1470243737778489,-0.217896,0.208801,-0.679382,0.668884
1470243737795003,-0.217834,0.20874,-0.679565,0.668762
1470243737816023,-0.217712,0.20874,-0.679749,0.668579
1470243737838543,-0.217529,0.208679,-0.679993,0.668457
1470243737856559,-0.217407,0.208801,-0.680054,0.668335
1470243737878579,-0.217285,0.208862,-0.680237,0.668213
1470243737898599,-0.217102,0.208862,-0.68042,0.66803
1470243737915612,-0.216858,0.208801,-0.680664,0.667908
1470243737936130,-0.216492,0.208679,-0.680908,0.667786
1470243737958650,-0.216492,0.208801,-0.68103,0.667603
1470243737976168,-0.21637,0.208923,-0.681152,0.66748
1470243737996186,-0.216125,0.208923,-0.681274,0.667419
1470243738018705,-0.216064,0.208923,-0.681335,0.667419
1470243738036722,-0.216003,0.208862,-0.681458,0.667358
1470243738056738,-0.215759,0.208679,-0.681641,0.667297
1470243738078258,-0.215393,0.208435,-0.681824,0.667297
1470243738096275,-0.215271,0.208252,-0.681763,0.667419
1470243738115792,-0.21521,0.208252,-0.681763,0.667419
1470243738138312,-0.21521,0.207947,-0.681824,0.667542
1470243738156329,-0.215271,0.207703,-0.681824,0.667542
1470243738176347,-0.215149,0.207397,-0.681946,0.667603
1470243738198366,-0.215027,0.207336,-0.681885,0.667725
1470243738216382,-0.214844,0.207153,-0.681824,0.667847
1470243738236400,-0.214844,0.207214,-0.681824,0.667847
1470243738265927,-0.214844,0.207214,-0.681824,0.667847
1470243738276436,-0.214844,0.207214,-0.681824,0.667847
1470243738298957,-0.214905,0.207214,-0.681824,0.667847
1470243738318473,-0.214905,0.207214,-0.681824,0.667847
1470243738336489,-0.214844,0.207214,-0.681824,0.667847
1470243738356007,-0.214905,0.207214,-0.681824,0.667847
1470243738378528,-0.214844,0.207214,-0.681824,0.667847
1470243738401047,-0.214844,0.207214,-0.681824,0.667847
1470243738416061,-0.214844,0.207214,-0.681824,0.667847
1470243738438581,-0.214844,0.207214,-0.681824,0.667847
1470243738456598,-0.214783,0.207214,-0.681824,0.667847
1470243738476115,-0.214783,0.207214,-0.681824,0.667847
1470243738498635,-0.214783,0.207214,-0.681824,0.667847
1470243738516151,-0.214783,0.207153,-0.681824,0.667908
1470243738536169,-0.214783,0.207214,-0.681824,0.667908
1470243738561192,-0.214783,0.206909,-0.681824,0.667969
1470243738576205,-0.214783,0.206909,-0.681824,0.667969
1470243738597224,-0.214783,0.206787,-0.681763,0.668091
1470243738618745,-0.214783,0.206787,-0.681763,0.668091
1470243738636760,-0.214966,0.206726,-0.681641,0.668152
1470243738657278,-0.214966,0.206726,-0.681641,0.668152
1470243738678296,-0.214844,0.206543,-0.681641,0.668213
1470243738696313,-0.214844,0.206543,-0.681641,0.668213
1470243738717331,-0.214844,0.206543,-0.681641,0.668213
1470243738738351,-0.214844,0.206543,-0.681641,0.668213
1470243738756368,-0.214844,0.206543,-0.681641,0.668213
1470243738777385,-0.214844,0.206482,-0.681641,0.668274
1470243738798404,-0.214783,0.206482,-0.681641,0.668274
1470243738816421,-0.214722,0.20636,-0.68158,0.668396
1470243738837441,-0.214539,0.206116,-0.681641,0.668457
1470243738858459,-0.214539,0.206055,-0.681641,0.668457
1470243738876474,-0.214539,0.206055,-0.681641,0.668457
1470243738898995,-0.214539,0.206055,-0.681641,0.668457
1470243738918513,-0.214539,0.206055,-0.681641,0.668457
1470243738936529,-0.214539,0.206055,-0.681641,0.668457
1470243738959048,-0.214478,0.206055,-0.681763,0.668457
1470243738978566,-0.214478,0.206055,-0.681702,0.668457
1470243738996083,-0.214478,0.206055,-0.681702,0.668457
1470243739026109,-0.214478,0.206055,-0.681702,0.668457
1470243739038621,-0.214111,0.205872,-0.681885,0.668457
1470243739056137,-0.213684,0.205627,-0.682068,0.668457
1470243739078656,-0.213684,0.205627,-0.682068,0.668457
1470243739098674,-0.213684,0.205627,-0.682068,0.668457
1470243739116190,-0.213684,0.205627,-0.682068,0.668457
1470243739146217,-0.213501,0.205383,-0.682312,0.668335
1470243739158729,-0.213196,0.205078,-0.682617,0.668213
1470243739176244,-0.213013,0.204895,-0.6828,0.668152
1470243739199765,-0.213013,0.204895,-0.6828,0.668152
1470243739218282,-0.213013,0.204895,-0.6828,0.668152
1470243739236300,-0.21283,0.204834,-0.682861,0.668213
1470243739258818,-0.21283,0.204773,-0.682861,0.668213
1470243739278335,-0.21283,0.204773,-0.682861,0.668213
1470243739296353,-0.212769,0.204773,-0.682861,0.668213
1470243739318873,-0.212769,0.204834,-0.682861,0.668213
1470243739338389,-0.212769,0.204773,-0.682861,0.668213
1470243739356406,-0.212769,0.204773,-0.682861,0.668213
1470243739378925,-0.212769,0.204773,-0.682861,0.668213
1470243739398443,-0.212769,0.204773,-0.682861,0.668213
1470243739416461,-0.212769,0.204773,-0.682861,0.668213
1470243739438980,-0.212891,0.204895,-0.682861,0.668152
1470243739458498,-0.212891,0.204895,-0.682861,0.668152
1470243739476513,-0.212891,0.204895,-0.682861,0.668152
1470243739499034,-0.212891,0.204895,-0.682861,0.668152
1470243739520054,-0.212952,0.205017,-0.682861,0.668091
1470243739536568,-0.212952,0.205017,-0.682861,0.668091
1470243739558587,-0.212952,0.205017,-0.682861,0.668091
1470243739580106,-0.212891,0.205017,-0.682861,0.668091
1470243739596121,-0.212891,0.205017,-0.682861,0.668091
1470243739619141,-0.212891,0.205017,-0.682861,0.668091
1470243739640160,-0.212891,0.205017,-0.682861,0.668091
1470243739656176,-0.212891,0.205017,-0.682861,0.668091
1470243739678695,-0.212891,0.205017,-0.682861,0.668091
1470243739699714,-0.213074,0.205139,-0.6828,0.66803
1470243739716229,-0.213074,0.205139,-0.6828,0.66803
1470243739738750,-0.213074,0.205139,-0.6828,0.66803
1470243739759266,-0.213074,0.205139,-0.6828,0.66803
1470243739774783,-0.213074,0.205139,-0.6828,0.66803
1470243739797802,-0.213074,0.205139,-0.6828,0.66803
1470243739819322,-0.213074,0.205139,-0.6828,0.66803
1470243739834835,-0.213074,0.205139,-0.6828,0.66803
1470243739857856,-0.213013,0.205139,-0.6828,0.66803
1470243739880376,-0.213013,0.205139,-0.6828,0.66803
1470243739894889,-0.213013,0.205139,-0.6828,0.66803
1470243739917910,-0.213013,0.205139,-0.6828,0.66803
1470243739940430,-0.213013,0.205139,-0.6828,0.66803
1470243739954944,-0.213013,0.205139,-0.6828,0.66803
1470243739977964,-0.213013,0.205139,-0.6828,0.66803
1470243740000484,-0.213013,0.205139,-0.6828,0.66803
1470243740014997,-0.213013,0.205139,-0.6828,0.66803
1470243740038018,-0.213013,0.205139,-0.6828,0.66803
1470243740068046,-0.213013,0.205139,-0.6828,0.668091
1470243740075052,-0.213013,0.205139,-0.6828,0.668091
1470243740098074,-0.213013,0.205139,-0.6828,0.668091
1470243740120596,-0.213013,0.205139,-0.6828,0.668091
1470243740135104,-0.212952,0.205139,-0.6828,0.668091
1470243740158126,-0.212952,0.205078,-0.6828,0.668091
1470243740180645,-0.212952,0.205078,-0.682861,0.668091
1470243740195659,-0.212952,0.205078,-0.682861,0.668091
1470243740218182,-0.212952,0.205078,-0.682861,0.668091
1470243740240701,-0.212952,0.205078,-0.682861,0.668091
1470243740255213,-0.212952,0.205078,-0.682861,0.668091
1470243740278233,-0.213135,0.2052,-0.6828,0.66803
1470243740300755,-0.213135,0.2052,-0.6828,0.66803
1470243740314765,-0.213135,0.2052,-0.6828,0.66803
1470243740338287,-0.213074,0.2052,-0.6828,0.66803
1470243740360307,-0.213135,0.205139,-0.6828,0.66803
1470243740381826,-0.213135,0.205139,-0.6828,0.66803
1470243740397841,-0.213135,0.205139,-0.6828,0.66803
1470243740420361,-0.213135,0.205139,-0.6828,0.66803
1470243740449386,-0.213135,0.205139,-0.6828,0.66803
1470243740457895,-0.213135,0.205139,-0.6828,0.66803
1470243740480916,-0.213135,0.205139,-0.6828,0.66803
1470243740501933,-0.213135,0.205139,-0.6828,0.66803
1470243740525456,-0.213135,0.205139,-0.6828,0.66803
1470243740540971,-0.213135,0.205139,-0.6828,0.66803
1470243740561487,-0.213013,0.204956,-0.6828,0.668152
1470243740578003,-0.213013,0.204651,-0.6828,0.668213
1470243740600522,-0.213013,0.204407,-0.682739,0.668335
1470243740621541,-0.213013,0.204041,-0.682739,0.668457
1470243740638557,-0.213135,0.203796,-0.682678,0.668579
1470243740660576,-0.213196,0.203247,-0.682739,0.668701
1470243740681596,-0.213257,0.202759,-0.682678,0.668823
1470243740698110,-0.213379,0.202271,-0.682617,0.669006
1470243740721631,-0.213318,0.201782,-0.682495,0.669312
1470243740741650,-0.213013,0.200989,-0.682373,0.669739
1470243740758164,-0.212708,0.200134,-0.682251,0.670227
1470243740781685,-0.212341,0.199036,-0.682129,0.670776
1470243740803205,-0.211914,0.197754,-0.681946,0.671509
1470243740818219,-0.211609,0.196411,-0.681641,0.672302
1470243740840738,-0.211243,0.194763,-0.681396,0.673157
1470243740862758,-0.210999,0.192932,-0.681152,0.674011
1470243740877772,-0.210754,0.19104,-0.680786,0.674988
1470243740900291,-0.210876,0.189392,-0.680298,0.675903
1470243740923313,-0.211182,0.187805,-0.679749,0.676758
1470243740937827,-0.211487,0.18634,-0.67926,0.677612
1470243740960345,-0.211609,0.184875,-0.678833,0.678467
1470243740982866,-0.211853,0.183533,-0.678345,0.679199
1470243741003887,-0.212219,0.182434,-0.677917,0.679749
1470243741020901,-0.212402,0.181396,-0.677612,0.680359
1470243741042920,-0.212402,0.180359,-0.677307,0.680908
1470243741063938,-0.212524,0.179382,-0.677063,0.681396
1470243741080454,-0.212585,0.178467,-0.676941,0.681702
1470243741102975,-0.212646,0.177734,-0.676941,0.681885
1470243741117487,-0.212891,0.177063,-0.676941,0.681946
1470243741140508,-0.213257,0.176514,-0.676941,0.681946
1470243741163027,-0.213562,0.176086,-0.677002,0.681946
1470243741177540,-0.213989,0.175537,-0.677063,0.681885
1470243741200561,-0.214233,0.174988,-0.677246,0.681763
1470243741223083,-0.214417,0.174438,-0.677429,0.681702
1470243741237595,-0.2146,0.17395,-0.677551,0.681641
1470243741260615,-0.214722,0.17334,-0.677673,0.681641
1470243741283135,-0.214722,0.172546,-0.677856,0.681641
1470243741304155,-0.214722,0.171814,-0.677979,0.681702
1470243741320670,-0.214661,0.171021,-0.678162,0.681763
1470243741343189,-0.214539,0.170105,-0.678223,0.681946
1470243741364207,-0.2146,0.16925,-0.678162,0.68219
1470243741380722,-0.214233,0.16803,-0.678223,0.682556
1470243741403243,-0.213745,0.166443,-0.678223,0.683105
1470243741424262,-0.212952,0.164429,-0.678284,0.683777
1470243741446782,-0.211975,0.161987,-0.678223,0.684753
1470243741462797,-0.210571,0.158752,-0.677979,0.686157
1470243741484316,-0.209045,0.154846,-0.677673,0.687805
1470243741500331,-0.207458,0.150513,-0.677185,0.689758
1470243741522850,-0.205933,0.145386,-0.676392,0.692078
1470243741543869,-0.204407,0.139587,-0.675232,0.694824
1470243741559884,-0.202881,0.133301,-0.673706,0.697998
1470243741588909,-0.201233,0.12616,-0.671875,0.701538
1470243741604425,-0.199463,0.118103,-0.669861,0.705383
1470243741620438,-0.197571,0.109375,-0.667358,0.709656
1470243741642959,-0.195862,0.10022,-0.664673,0.713989
1470243741671984,-0.194214,0.090332,-0.661377,0.718811
1470243741681492,-0.191589,0.0791626,-0.657471,0.724426
1470243741703014,-0.18866,0.067627,-0.65332,0.730103
1470243741724031,-0.18573,0.0565186,-0.649353,0.735291
1470243741740047,-0.182678,0.0455933,-0.645203,0.740479
1470243741763066,-0.179688,0.0344849,-0.640442,0.745911
1470243741785588,-0.177063,0.0234375,-0.635498,0.75116
1470243741808609,-0.174377,0.0128174,-0.630615,0.756165
1470243741823120,-0.17157,0.00256348,-0.625549,0.761108
1470243741845641,-0.169067,-0.00756836,-0.620605,0.765625
1470243741866660,-0.166809,-0.0172729,-0.616028,0.769653
1470243741883176,-0.164673,-0.0263062,-0.611938,0.773132
1470243741905695,-0.162659,-0.03479,-0.607666,0.77655
1470243741926713,-0.160889,-0.0428467,-0.603333,0.779907
1470243741943228,-0.158936,-0.0508423,-0.599548,0.782776
1470243741965748,-0.157288,-0.0582886,-0.596252,0.785095
1470243741987270,-0.156311,-0.0648804,-0.593384,0.786926
1470243742003285,-0.155701,-0.0705566,-0.59082,0.788513
1470243742025802,-0.154968,-0.0755005,-0.588562,0.789856
1470243742046822,-0.154541,-0.079834,-0.58667,0.790955
1470243742062836,-0.154236,-0.0836182,-0.5849,0.79187
1470243742086357,-0.153503,-0.0870972,-0.583618,0.792603
1470243742114382,-0.152954,-0.0900879,-0.582581,0.793152
1470243742122890,-0.152161,-0.0925293,-0.581665,0.793701
1470243742145410,-0.151367,-0.0946045,-0.581177,0.794006
1470243742166428,-0.150879,-0.0962524,-0.580872,0.794067
1470243742182943,-0.150818,-0.0973511,-0.580872,0.793945
1470243742205979,-0.150696,-0.0979614,-0.580933,0.793823
1470243742219991,-0.150574,-0.0985718,-0.581055,0.793762
1470243742243011,-0.150208,-0.0991821,-0.581116,0.793701
1470243742265533,-0.149658,-0.0997925,-0.58136,0.793457
1470243742287052,-0.14917,-0.100464,-0.581604,0.793335
1470243742303064,-0.148499,-0.101074,-0.581726,0.793335
1470243742325585,-0.148071,-0.101563,-0.581787,0.793274
1470243742346604,-0.147644,-0.102173,-0.581787,0.793274
1470243742363119,-0.147217,-0.102722,-0.581787,0.793274
1470243742385641,-0.146912,-0.103394,-0.581665,0.793335
1470243742406658,-0.14679,-0.103882,-0.581604,0.793396
1470243742423173,-0.146362,-0.104492,-0.581482,0.793457
1470243742445694,-0.145874,-0.105164,-0.581238,0.79364
1470243742466712,-0.145447,-0.105835,-0.580933,0.793823
1470243742483226,-0.145203,-0.106445,-0.580688,0.794006
1470243742505747,-0.14502,-0.106934,-0.580444,0.794128
1470243742526765,-0.144958,-0.1073,-0.580139,0.794312
1470243742543280,-0.144714,-0.107727,-0.579773,0.794556
1470243742565800,-0.144653,-0.10791,-0.579529,0.794739
1470243742586821,-0.144592,-0.108093,-0.579285,0.794861
1470243742603836,-0.144287,-0.108276,-0.579102,0.795044
1470243742625354,-0.144043,-0.108215,-0.578918,0.795227
1470243742646873,-0.143982,-0.108154,-0.578735,0.79541
1470243742662888,-0.143982,-0.108154,-0.578735,0.79541
1470243742685408,-0.143921,-0.108032,-0.578552,0.795532
1470243742707929,-0.143799,-0.10791,-0.578369,0.795715
1470243742723442,-0.14386,-0.107727,-0.578186,0.795837
1470243742745461,-0.143921,-0.107666,-0.578186,0.795837
1470243742775488,-0.143921,-0.1073,-0.578247,0.795898
1470243742782996,-0.144043,-0.10675,-0.578186,0.795959
1470243742805517,-0.144165,-0.106262,-0.578247,0.795959
1470243742828036,-0.144226,-0.105774,-0.578247,0.796021
1470243742843049,-0.144348,-0.105408,-0.578308,0.796021
1470243742865570,-0.144592,-0.10498,-0.578491,0.795898
1470243742888091,-0.144775,-0.104309,-0.578674,0.795776
1470243742902605,-0.14502,-0.103699,-0.578857,0.795654
1470243742925624,-0.145508,-0.102783,-0.579224,0.795471
1470243742948144,-0.146118,-0.101746,-0.579773,0.795105
1470243742962157,-0.146851,-0.100525,-0.580444,0.794617
1470243742986179,-0.147522,-0.098999,-0.581421,0.794006
1470243743008198,-0.148315,-0.0969849,-0.582397,0.793335
1470243743023212,-0.148926,-0.0949097,-0.583618,0.792603
1470243743045731,-0.149658,-0.0927124,-0.5849,0.791809
1470243743068253,-0.151123,-0.090271,-0.58667,0.790466
1470243743089271,-0.153992,-0.086853,-0.589111,0.788452
1470243743105787,-0.15863,-0.0817261,-0.592102,0.785828
1470243743129306,-0.164978,-0.0750732,-0.595215,0.782837
1470243743149324,-0.172607,-0.0672607,-0.598572,0.779358
1470243743165339,-0.180237,-0.0582886,-0.602783,0.775085
1470243743195365,-0.185181,-0.0487671,-0.607544,0.770874
1470243743209380,-0.188477,-0.0396729,-0.612183,0.766907
1470243743225893,-0.190247,-0.031311,-0.617065,0.762939
1470243743247913,-0.190735,-0.0234375,-0.62207,0.759033
1470243743269433,-0.190002,-0.0160522,-0.627075,0.755249
1470243743285947,-0.189697,-0.00909424,-0.631531,0.751709
1470243743307969,-0.190552,-0.0020752,-0.635864,0.747864
1470243743329487,-0.192749,0.00518799,-0.640381,0.743469
1470243743345502,-0.194397,0.0126343,-0.644836,0.739075
1470243743368021,-0.195923,0.0198364,-0.648376,0.735413
1470243743389541,-0.198486,0.0270386,-0.651855,0.731384
1470243743405555,-0.202393,0.03479,-0.65564,0.726624
1470243743428075,-0.206909,0.0432129,-0.65979,0.72113
1470243743449094,-0.209595,0.0510254,-0.663208,0.716675
1470243743465108,-0.210754,0.0575562,-0.666016,0.713196
1470243743488130,-0.211182,0.0628662,-0.668945,0.7099
1470243743509147,-0.211975,0.0680542,-0.672119,0.706177
1470243743525663,-0.213806,0.0739136,-0.675293,0.701965
1470243743548183,-0.215515,0.0793457,-0.677795,0.698486
1470243743569705,-0.217285,0.0844116,-0.679932,0.695251
1470243743584716,-0.219482,0.0895386,-0.68219,0.691711
1470243743608237,-0.22168,0.0950317,-0.684692,0.687744
1470243743629255,-0.222839,0.100281,-0.687012,0.684326
1470243743644770,-0.223083,0.104431,-0.689026,0.681641
1470243743668290,-0.222961,0.107666,-0.69104,0.679077
1470243743690810,-0.223328,0.110962,-0.693237,0.676147
1470243743704824,-0.224548,0.114746,-0.695435,0.672913
1470243743728345,-0.225952,0.11908,-0.697388,0.669617
1470243743750864,-0.2276,0.123718,-0.699158,0.666443
1470243743764878,-0.229126,0.12854,-0.700867,0.663147
1470243743788899,-0.229797,0.132874,-0.703003,0.65979
1470243743810418,-0.229858,0.136963,-0.705444,0.656311
1470243743831438,-0.229004,0.141541,-0.708374,0.652527
1470243743847952,-0.226807,0.146851,-0.711548,0.648621
1470243743871472,-0.225403,0.15271,-0.714172,0.644836
1470243743892992,-0.225098,0.157349,-0.71582,0.641968
1470243743908511,-0.225037,0.160645,-0.717285,0.639587
1470243743930527,-0.224609,0.163147,-0.718872,0.637329
1470243743951545,-0.224182,0.164673,-0.720093,0.635681
1470243743968059,-0.224609,0.16626,-0.720703,0.634399
1470243743990580,-0.225708,0.167847,-0.720703,0.633606
1470243744011599,-0.226379,0.168579,-0.720642,0.63324
1470243744028114,-0.226563,0.168579,-0.720642,0.633179
1470243744050634,-0.226868,0.16864,-0.720703,0.633057
1470243744064646,-0.227051,0.168701,-0.720886,0.632751
1470243744088170,-0.227112,0.169006,-0.721069,0.632385
1470243744110689,-0.227234,0.169128,-0.721191,0.632141
1470243744124700,-0.227539,0.169434,-0.721252,0.631897
1470243744148221,-0.228027,0.170105,-0.721558,0.631226
1470243744170742,-0.228516,0.171021,-0.721863,0.630432
1470243744191761,-0.229065,0.171814,-0.722046,0.629822
1470243744208275,-0.229736,0.172668,-0.722107,0.629211
1470243744230795,-0.230347,0.173523,-0.722229,0.628662
1470243744251814,-0.230713,0.174255,-0.722351,0.628174
1470243744268329,-0.230835,0.174744,-0.722351,0.627991
1470243744290849,-0.230774,0.174927,-0.722473,0.627869
1470243744311868,-0.230713,0.174866,-0.722473,0.627869
1470243744328383,-0.230591,0.174988,-0.722534,0.627808
1470243744350403,-0.23053,0.174927,-0.722534,0.627808
1470243744371922,-0.23053,0.174927,-0.722534,0.627808
1470243744387937,-0.23053,0.174866,-0.722595,0.627808
1470243744410457,-0.23053,0.174866,-0.722595,0.627808
1470243744431977,-0.23053,0.174866,-0.722595,0.627808
1470243744447990,-0.230469,0.174744,-0.722473,0.628052
1470243744470512,-0.230408,0.174683,-0.722473,0.628052
1470243744492030,-0.230469,0.174744,-0.722473,0.628052
1470243744515551,-0.230469,0.174683,-0.722473,0.628052
1470243744530565,-0.230469,0.174683,-0.722473,0.628052
1470243744551584,-0.230652,0.174622,-0.722351,0.628113
1470243744568099,-0.230835,0.174622,-0.722168,0.628235
1470243744590619,-0.230957,0.174561,-0.722046,0.628357
1470243744613639,-0.230957,0.1745,-0.722107,0.628357
1470243744628153,-0.230957,0.1745,-0.722107,0.628357
1470243744650673,-0.230957,0.1745,-0.722107,0.628357
1470243744673196,-0.231079,0.174438,-0.721924,0.628479
1470243744688206,-0.231262,0.174438,-0.721741,0.628601
1470243744710726,-0.231384,0.174316,-0.721619,0.628784
1470243744733247,-0.231506,0.174194,-0.721497,0.628906
1470243744747259,-0.231628,0.174133,-0.721313,0.629089
1470243744778287,-0.23175,0.174011,-0.721191,0.629211
1470243744793300,-0.23175,0.174011,-0.721191,0.629211
1470243744807314,-0.23175,0.173767,-0.72113,0.629395
1470243744830834,-0.231812,0.173523,-0.721069,0.629456
1470243744853355,-0.231934,0.173401,-0.720947,0.629639
1470243744867367,-0.232117,0.173279,-0.720825,0.6297
1470243744890889,-0.232117,0.17334,-0.720764,0.6297
1470243744912908,-0.231995,0.173096,-0.720703,0.629944
1470243744927421,-0.231934,0.172852,-0.720581,0.630127
1470243744950442,-0.232056,0.172791,-0.720459,0.630249
1470243744972963,-0.232056,0.172729,-0.720459,0.630249
1470243744987477,-0.232056,0.172791,-0.720459,0.630249
1470243745010496,-0.232117,0.172791,-0.720459,0.630249
1470243745033016,-0.232117,0.172729,-0.720459,0.630249
1470243745046527,-0.232117,0.172791,-0.720459,0.630249
1470243745055037,-0.232117,0.172729,-0.720459,0.630249
1470243745076054,-0.232117,0.172729,-0.720459,0.630249
1470243745098575,-0.232117,0.172729,-0.720459,0.630249
1470243745115090,-0.232117,0.172729,-0.720459,0.630249
1470243745136613,-0.232117,0.172729,-0.720459,0.630249
1470243745158628,-0.232117,0.172729,-0.720459,0.630249
1470243745176145,-0.232117,0.172729,-0.720459,0.630249
1470243745196162,-0.232117,0.172729,-0.720459,0.630249
1470243745218682,-0.232117,0.172791,-0.720459,0.630249
1470243745234698,-0.232178,0.172791,-0.720459,0.630249
1470243745265224,-0.232178,0.172791,-0.720459,0.630249
1470243745278737,-0.232178,0.172791,-0.720459,0.630249
1470243745295251,-0.2323,0.173096,-0.72052,0.630005
1470243745316270,-0.232361,0.17334,-0.720581,0.629883
1470243745338790,-0.232178,0.173462,-0.720703,0.629761
1470243745354807,-0.232056,0.173584,-0.720764,0.6297
1470243745375823,-0.232117,0.173889,-0.720764,0.629578
1470243745398844,-0.231934,0.174072,-0.720825,0.629517
1470243745414859,-0.231934,0.174011,-0.720825,0.629517
1470243745436880,-0.232056,0.174316,-0.720825,0.629456
1470243745458399,-0.231995,0.174316,-0.720825,0.629456
1470243745474913,-0.231995,0.174316,-0.720825,0.629456
1470243745495931,-0.231995,0.174316,-0.720825,0.629456
1470243745518452,-0.231995,0.174316,-0.720825,0.629456
1470243745537473,-0.231934,0.174255,-0.720825,0.629456
1470243745555986,-0.231934,0.174316,-0.720825,0.629456
1470243745578506,-0.231934,0.174316,-0.720825,0.629456
1470243745596523,-0.231934,0.174255,-0.720825,0.629456
1470243745619042,-0.231934,0.174255,-0.720825,0.629456
1470243745638559,-0.231934,0.174255,-0.720825,0.629456
1470243745656575,-0.231934,0.174316,-0.720825,0.629456
1470243745676093,-0.231934,0.174316,-0.720825,0.629456
1470243745698615,-0.231934,0.174316,-0.720825,0.629456
1470243745716630,-0.231934,0.174316,-0.720825,0.629456
1470243745736649,-0.232178,0.174377,-0.720642,0.629578
1470243745758668,-0.232544,0.1745,-0.720398,0.6297
1470243745776683,-0.232849,0.1745,-0.720215,0.629822
1470243745796201,-0.233154,0.174438,-0.720032,0.629944
1470243745818720,-0.233398,0.174377,-0.719849,0.630066
1470243745841242,-0.233398,0.174377,-0.719849,0.630066
1470243745856255,-0.233398,0.174377,-0.719849,0.630066
1470243745878775,-0.233398,0.174377,-0.719849,0.630066
1470243745896291,-0.233337,0.174377,-0.719849,0.630066
1470243745915809,-0.233337,0.174377,-0.719849,0.630066
1470243745938829,-0.233337,0.174377,-0.719849,0.630066
1470243745956345,-0.233337,0.174377,-0.719849,0.630066
1470243745975862,-0.233337,0.174377,-0.719849,0.630066
1470243745998884,-0.233337,0.174377,-0.719849,0.630066
1470243746016399,-0.233215,0.174194,-0.719849,0.630188
1470243746036417,-0.233215,0.174194,-0.719849,0.630188
1470243746058936,-0.233215,0.174194,-0.719849,0.630188
1470243746076453,-0.233276,0.174133,-0.719727,0.630249
1470243746095970,-0.233276,0.174133,-0.719727,0.630249
1470243746119992,-0.233154,0.173828,-0.719604,0.630554
1470243746136508,-0.233154,0.173584,-0.719421,0.630798
1470243746159030,-0.233154,0.17334,-0.719299,0.631042
1470243746178546,-0.233154,0.173096,-0.719238,0.631165
1470243746197561,-0.233154,0.173096,-0.719238,0.631165
1470243746217579,-0.233215,0.173096,-0.719238,0.631165
1470243746238598,-0.233215,0.173096,-0.719238,0.631165
1470243746256615,-0.233215,0.173096,-0.719238,0.631165
1470243746277633,-0.233276,0.173279,-0.719177,0.631165
1470243746298652,-0.233521,0.173523,-0.718994,0.631165
1470243746316668,-0.233521,0.173523,-0.718994,0.631165
1470243746337688,-0.233276,0.173218,-0.719116,0.631226
1470243746358706,-0.232788,0.172791,-0.719238,0.631409
1470243746376722,-0.232239,0.172485,-0.719238,0.631653
1470243746397741,-0.231689,0.172363,-0.719299,0.631897
1470243746418760,-0.231079,0.172119,-0.719177,0.632263
1470243746436778,-0.230591,0.171631,-0.719116,0.63269
1470243746458796,-0.229858,0.170837,-0.718994,0.63324
1470243746478315,-0.228943,0.169617,-0.718994,0.633972
1470243746496330,-0.227966,0.168274,-0.719055,0.634583
1470243746518850,-0.227234,0.166992,-0.719055,0.635193
1470243746538368,-0.226685,0.166138,-0.718994,0.635681
1470243746556385,-0.226196,0.165649,-0.718933,0.636047
1470243746578904,-0.225769,0.165283,-0.718933,0.636292
1470243746598420,-0.225342,0.164978,-0.718872,0.636597
1470243746616437,-0.224731,0.164246,-0.718811,0.637024
1470243746638957,-0.224121,0.163391,-0.718811,0.637512
1470243746658478,-0.22345,0.162476,-0.718811,0.637939
1470243746676492,-0.222717,0.161621,-0.718872,0.638367
1470243746699012,-0.222229,0.161072,-0.718811,0.638733
1470243746718529,-0.221924,0.160645,-0.71875,0.639038
1470243746736545,-0.22168,0.160095,-0.71875,0.639282
1470243746759065,-0.221558,0.159729,-0.718689,0.639404
1470243746778583,-0.221558,0.159729,-0.71875,0.639404
1470243746796600,-0.221497,0.159668,-0.71875,0.639404
1470243746819119,-0.22168,0.159851,-0.718689,0.639343
1470243746838637,-0.22168,0.159851,-0.718689,0.639343
1470243746856154,-0.22168,0.159851,-0.718689,0.639343
1470243746879674,-0.22168,0.159912,-0.718689,0.639343
1470243746898691,-0.22168,0.159912,-0.718689,0.639343
1470243746916707,-0.22168,0.159668,-0.718689,0.639404
1470243746938728,-0.221619,0.159485,-0.718689,0.639465
1470243746959746,-0.221619,0.159485,-0.718689,0.639465
1470243746976261,-0.221619,0.159485,-0.718689,0.639465
1470243747003786,-0.221619,0.159424,-0.71875,0.639465
1470243747018798,-0.221619,0.159485,-0.718689,0.639465
1470243747036815,-0.221619,0.159485,-0.718689,0.639465
1470243747058834,-0.221619,0.159485,-0.718689,0.639465
1470243747078853,-0.221619,0.159485,-0.718689,0.639465
1470243747096368,-0.221619,0.159485,-0.718689,0.639465
1470243747119892,-0.221619,0.159485,-0.718689,0.639465
1470243747139908,-0.221802,0.159424,-0.718628,0.639465
1470243747156422,-0.221802,0.159485,-0.718628,0.639465
1470243747178943,-0.221802,0.159424,-0.718628,0.639465
1470243747199961,-0.221802,0.159424,-0.718628,0.639465
1470243747216476,-0.221802,0.159424,-0.718628,0.639465
1470243747238997,-0.221985,0.159607,-0.718567,0.639465
1470243747260016,-0.222229,0.15979,-0.718445,0.639404
1470243747277531,-0.222473,0.159973,-0.718384,0.639465
1470243747299051,-0.222473,0.159973,-0.718384,0.639404
1470243747321072,-0.222473,0.159973,-0.718384,0.639404
1470243747336585,-0.222473,0.159973,-0.718384,0.639404
1470243747359104,-0.222473,0.159973,-0.718384,0.639465
1470243747380123,-0.222473,0.159973,-0.718384,0.639465
1470243747396638,-0.222473,0.160034,-0.718323,0.639465
1470243747418658,-0.222473,0.160034,-0.718323,0.639465
1470243747440177,-0.222473,0.160034,-0.718323,0.639465
1470243747456692,-0.222473,0.159973,-0.718384,0.639465
1470243747479212,-0.222473,0.159973,-0.718384,0.639404
1470243747501233,-0.222534,0.159973,-0.718384,0.639404
1470243747516247,-0.222534,0.159973,-0.718323,0.639404
1470243747538766,-0.222534,0.159973,-0.718323,0.639404
1470243747560786,-0.222717,0.160217,-0.718201,0.639465
1470243747581804,-0.222717,0.160217,-0.718201,0.639465
1470243747599320,-0.222717,0.160217,-0.718201,0.639465
1470243747620842,-0.222656,0.160461,-0.718079,0.639526
1470243747641858,-0.222473,0.160767,-0.717896,0.639771
1470243747658373,-0.222229,0.161072,-0.717651,0.640015
1470243747680392,-0.222107,0.161194,-0.717468,0.640259
1470243747701912,-0.222046,0.161377,-0.717224,0.640564
1470243747717927,-0.222473,0.161255,-0.716736,0.64093
1470243747747955,-0.223267,0.16095,-0.716248,0.641296
1470243747754961,-0.223938,0.160339,-0.715942,0.641541
1470243747777980,-0.223694,0.15918,-0.715881,0.641968
1470243747800501,-0.223389,0.158264,-0.715698,0.642517
1470243747815014,-0.223389,0.157898,-0.715515,0.642822
1470243747838534,-0.223755,0.157471,-0.715271,0.643066
1470243747861055,-0.223999,0.157043,-0.715088,0.64325
1470243747875068,-0.223633,0.156494,-0.715088,0.643555
1470243747898088,-0.22345,0.156067,-0.715027,0.643799
1470243747921110,-0.223267,0.155701,-0.714905,0.644043
1470243747935122,-0.223145,0.155457,-0.714844,0.644226
1470243747958142,-0.222961,0.155151,-0.714783,0.644409
1470243747980662,-0.222778,0.154785,-0.714722,0.644653
1470243748001682,-0.222778,0.154785,-0.714722,0.644653
1470243748018196,-0.222534,0.154541,-0.714661,0.644897
1470243748040716,-0.222473,0.154297,-0.714539,0.645081
1470243748061735,-0.222534,0.153931,-0.714478,0.645203
1470243748078250,-0.222534,0.153564,-0.714417,0.645386
1470243748101271,-0.222351,0.153076,-0.714355,0.64563
1470243748121792,-0.222229,0.152588,-0.714233,0.645935
1470243748138304,-0.221985,0.152161,-0.714233,0.646118
1470243748160824,-0.221924,0.151917,-0.714172,0.646301
1470243748181843,-0.221741,0.151672,-0.71405,0.646484
1470243748198358,-0.221497,0.151367,-0.71405,0.646667
1470243748220878,-0.221375,0.151001,-0.71405,0.64679
1470243748241898,-0.221252,0.15033,-0.713989,0.647034
1470243748257911,-0.220825,0.149475,-0.714111,0.647278
1470243748280432,-0.219971,0.14856,-0.714111,0.647766
1470243748301950,-0.218933,0.147705,-0.714172,0.648254
1470243748317965,-0.218323,0.147339,-0.714111,0.648621
1470243748340985,-0.217651,0.147156,-0.714111,0.648865
1470243748362005,-0.216492,0.14679,-0.714233,0.649231
1470243748378019,-0.215393,0.146545,-0.714294,0.649597
1470243748401541,-0.214844,0.146301,-0.713989,0.650146
1470243748423560,-0.214355,0.145508,-0.713745,0.650696
1470243748438075,-0.214355,0.145081,-0.713562,0.651001
1470243748460593,-0.214355,0.145081,-0.713562,0.651001
1470243748483113,-0.214661,0.145508,-0.713562,0.650818
1470243748497627,-0.215332,0.146362,-0.713501,0.650452
1470243748520648,-0.21637,0.147583,-0.713379,0.649963
1470243748543167,-0.217407,0.148804,-0.713318,0.649414
1470243748557680,-0.21814,0.149597,-0.713379,0.648926
1470243748580701,-0.218567,0.150146,-0.713501,0.648499
1470243748603223,-0.218994,0.150574,-0.713623,0.648132
1470243748617234,-0.219299,0.15094,-0.713684,0.647888
1470243748641255,-0.219543,0.151123,-0.713806,0.647644
1470243748663276,-0.219849,0.151367,-0.713867,0.647461
1470243748677288,-0.220276,0.151733,-0.713867,0.647156
1470243748700809,-0.220703,0.152039,-0.713928,0.646912
1470243748730836,-0.221313,0.152283,-0.713806,0.64679
1470243748737343,-0.221985,0.15271,-0.713623,0.646667
1470243748760863,-0.222595,0.153015,-0.713562,0.646484
1470243748782883,-0.222595,0.153015,-0.713562,0.646484
1470243748797396,-0.222595,0.153015,-0.713562,0.646484
1470243748820916,-0.222717,0.153259,-0.713501,0.646423
1470243748842938,-0.223022,0.153625,-0.71344,0.64624
1470243748857449,-0.223022,0.153625,-0.71344,0.64624
1470243748880970,-0.223022,0.153625,-0.71344,0.64624
1470243748903491,-0.223022,0.153625,-0.71344,0.64624
1470243748924512,-0.223022,0.153625,-0.71344,0.64624
1470243748941025,-0.223022,0.153625,-0.71344,0.64624
1470243748963045,-0.223022,0.153625,-0.71344,0.64624
1470243748984063,-0.223022,0.153625,-0.71344,0.64624
1470243749000578,-0.223022,0.153625,-0.71344,0.64624
1470243749023100,-0.223145,0.153748,-0.713379,0.64624
1470243749044117,-0.223145,0.153748,-0.713379,0.64624
1470243749060632,-0.223206,0.153809,-0.713379,0.64624
1470243749083153,-0.223206,0.153809,-0.713379,0.64624
1470243749104672,-0.223206,0.153809,-0.713379,0.64624
1470243749120688,-0.223206,0.153809,-0.713379,0.64624
1470243749143707,-0.223206,0.153809,-0.713379,0.64624
1470243749164225,-0.223206,0.153809,-0.713379,0.64624
1470243749180740,-0.223206,0.153809,-0.713379,0.64624
1470243749203262,-0.223206,0.153809,-0.713379,0.64624
1470243749224280,-0.223206,0.153809,-0.713379,0.64624
1470243749240795,-0.223145,0.153809,-0.713379,0.64624
1470243749263313,-0.223206,0.153809,-0.713379,0.64624
1470243749284334,-0.2229,0.153748,-0.713379,0.646362
1470243749300848,-0.2229,0.153748,-0.713379,0.646362
1470243749322867,-0.2229,0.153748,-0.713379,0.646362
1470243749345890,-0.2229,0.153748,-0.713379,0.646362
1470243749360902,-0.2229,0.153809,-0.713379,0.646362
1470243749383425,-0.222839,0.153809,-0.713379,0.646362
1470243749405942,-0.222839,0.153809,-0.713379,0.646362
1470243749420956,-0.222839,0.153809,-0.713379,0.646362
1470243749442975,-0.222839,0.153809,-0.713379,0.646362
1470243749465495,-0.222839,0.153809,-0.713379,0.646362
1470243749480509,-0.222839,0.153809,-0.713379,0.646362
1470243749503531,-0.222839,0.153809,-0.713379,0.646362
1470243749525550,-0.222839,0.15387,-0.713318,0.646362
1470243749540063,-0.222839,0.15387,-0.713379,0.646423
1470243749563084,-0.222778,0.15387,-0.713379,0.646423
1470243749585604,-0.222778,0.15387,-0.713379,0.646423
1470243749600116,-0.222778,0.15387,-0.713379,0.646423
1470243749623137,-0.222778,0.15387,-0.713379,0.646423
1470243749645658,-0.222778,0.15387,-0.713379,0.646423
1470243749660170,-0.222778,0.15387,-0.713379,0.646423
1470243749683191,-0.222778,0.15387,-0.713318,0.646423
1470243749705712,-0.222778,0.15387,-0.713318,0.646423
1470243749720226,-0.222778,0.15387,-0.713318,0.646423
1470243749743245,-0.222778,0.15387,-0.713318,0.646423
1470243749765765,-0.222778,0.15387,-0.713318,0.646423
1470243749779778,-0.222839,0.15387,-0.713379,0.646423
1470243749803301,-0.222778,0.15387,-0.713379,0.646423
1470243749825819,-0.222839,0.154114,-0.713318,0.646362
1470243749846838,-0.222839,0.154175,-0.713318,0.646362
1470243749863352,-0.222839,0.154175,-0.713318,0.646362
1470243749885873,-0.222839,0.154175,-0.713318,0.646362
1470243749906894,-0.222778,0.153931,-0.713379,0.646362
1470243749923407,-0.2229,0.153809,-0.713379,0.646362
1470243749945927,-0.223083,0.153687,-0.71344,0.64624
1470243749966945,-0.223083,0.153687,-0.71344,0.64624
1470243749983460,-0.223083,0.153687,-0.71344,0.64624
1470243750005981,-0.223145,0.153687,-0.71344,0.64624
1470243750027000,-0.223145,0.153687,-0.71344,0.64624
1470243750043014,-0.223083,0.153687,-0.71344,0.64624
1470243750065534,-0.223206,0.15387,-0.713379,0.64624
1470243750087056,-0.223206,0.15387,-0.713379,0.64624
1470243750103071,-0.223206,0.153931,-0.713379,0.64624
1470243750125588,-0.223206,0.15387,-0.713379,0.64624
1470243750146607,-0.223206,0.153931,-0.713379,0.64624
1470243750163122,-0.223206,0.15387,-0.713379,0.64624
1470243750185642,-0.223206,0.153931,-0.713379,0.64624
1470243750206663,-0.223206,0.153931,-0.713379,0.64624
1470243750223179,-0.223206,0.153931,-0.713379,0.64624
1470243750253207,-0.223206,0.153931,-0.713379,0.64624
1470243750266715,-0.223206,0.153931,-0.713379,0.64624
1470243750283231,-0.223145,0.153931,-0.713379,0.64624
1470243750305899,-0.223145,0.153931,-0.713379,0.64624
1470243750328419,-0.223145,0.153931,-0.713379,0.64624
1470243750342932,-0.223145,0.153931,-0.713379,0.64624
1470243750365952,-0.223145,0.153992,-0.713379,0.64624
1470243750387974,-0.223145,0.153992,-0.713318,0.64624
1470243750404489,-0.223145,0.153992,-0.713318,0.64624
1470243750425507,-0.223145,0.153992,-0.713318,0.64624
1470243750448026,-0.223145,0.153992,-0.713318,0.64624
1470243750462539,-0.223145,0.153992,-0.713318,0.64624
1470243750486061,-0.223145,0.153992,-0.713379,0.64624
1470243750508081,-0.223145,0.153992,-0.713318,0.64624
1470243750522595,-0.223145,0.153992,-0.713318,0.64624
1470243750545615,-0.223145,0.153992,-0.713318,0.64624
1470243750568136,-0.223145,0.153992,-0.713318,0.64624
1470243750582646,-0.223145,0.153992,-0.713318,0.64624
1470243750605668,-0.223145,0.153992,-0.713318,0.64624
1470243750628189,-0.223145,0.153992,-0.713318,0.64624
1470243750642700,-0.223083,0.153992,-0.713318,0.64624
1470243750665722,-0.223083,0.153992,-0.713318,0.64624
1470243750688243,-0.223083,0.153992,-0.713318,0.646301
1470243750702756,-0.2229,0.153931,-0.713318,0.646362
1470243750725776,-0.2229,0.153931,-0.713318,0.646362
1470243750748296,-0.2229,0.153931,-0.713318,0.646362
1470243750762809,-0.2229,0.153931,-0.713318,0.646362
1470243750785829,-0.2229,0.153809,-0.713257,0.646484
1470243750808350,-0.222839,0.153625,-0.713257,0.646545
1470243750829369,-0.223083,0.153625,-0.713196,0.646545
1470243750845884,-0.22345,0.153687,-0.713074,0.646545
1470243750867903,-0.22345,0.153748,-0.713074,0.646545
1470243750889424,-0.223328,0.153564,-0.713135,0.646545
1470243750905937,-0.223267,0.153564,-0.713135,0.646545
1470243750928457,-0.223267,0.153564,-0.713135,0.646545
1470243750949476,-0.223267,0.153564,-0.713135,0.646545
1470243750965991,-0.223267,0.153564,-0.713135,0.646545
1470243750988013,-0.223267,0.153564,-0.713135,0.646545
1470243751009530,-0.223267,0.153625,-0.713074,0.646545
1470243751025545,-0.223267,0.153625,-0.713074,0.646545
1470243751048065,-0.223267,0.153625,-0.713074,0.646545
1470243751069586,-0.223267,0.153625,-0.713074,0.646545
1470243751085599,-0.223267,0.153625,-0.713074,0.646545
1470243751108120,-0.223267,0.153625,-0.713074,0.646545
1470243751129640,-0.223206,0.153564,-0.713135,0.646606
1470243751145653,-0.223206,0.153625,-0.713135,0.646606
1470243751168173,-0.223206,0.153625,-0.713135,0.646606
1470243751189192,-0.223206,0.153564,-0.713135,0.646606
1470243751205708,-0.223206,0.153625,-0.713074,0.646606
1470243751228227,-0.223145,0.15332,-0.713135,0.646667
1470243751250748,-0.223145,0.15332,-0.713135,0.646667
1470243751265762,-0.223145,0.15332,-0.713135,0.646667
1470243751288283,-0.223145,0.153381,-0.713135,0.646667
1470243751310801,-0.223206,0.15332,-0.713135,0.646606
1470243751331820,-0.223206,0.15332,-0.713135,0.646606
1470243751348337,-0.223145,0.153381,-0.713135,0.646667
1470243751370862,-0.223145,0.153381,-0.713135,0.646667
1470243751385368,-0.223206,0.153381,-0.713135,0.646606
1470243751407890,-0.223206,0.153381,-0.713135,0.646606
1470243751430909,-0.223206,0.153381,-0.713135,0.646606
1470243751444921,-0.223206,0.153381,-0.713135,0.646606
1470243751468442,-0.223206,0.153381,-0.713135,0.646606
1470243751490964,-0.223206,0.153381,-0.713135,0.646606
1470243751504975,-0.223206,0.153748,-0.713074,0.646606
1470243751527996,-0.223083,0.154053,-0.713074,0.646545
1470243751550517,-0.222839,0.154236,-0.713074,0.646545
1470243751565031,-0.222717,0.154419,-0.713135,0.646545
1470243751588551,-0.222717,0.154419,-0.713135,0.646545
1470243751610570,-0.222717,0.154419,-0.713135,0.646545
1470243751625083,-0.222717,0.154419,-0.713135,0.646545
1470243751648106,-0.222717,0.154419,-0.713135,0.646545
1470243751671125,-0.222717,0.154419,-0.713135,0.646545
1470243751685137,-0.222717,0.154419,-0.713135,0.646545
1470243751708158,-0.222717,0.15448,-0.713135,0.646545
1470243751730678,-0.222717,0.15448,-0.713135,0.646545
1470243751753700,-0.222717,0.15448,-0.713135,0.646545
1470243751768212,-0.222717,0.15448,-0.713135,0.646545
1470243751790733,-0.222656,0.154541,-0.713135,0.646545
1470243751811751,-0.222656,0.154541,-0.713135,0.646545
1470243751828266,-0.222656,0.154541,-0.713135,0.646545
1470243751850285,-0.222656,0.154785,-0.713013,0.646606
1470243751871807,-0.222656,0.154785,-0.713013,0.646606
1470243751888322,-0.222656,0.154785,-0.713013,0.646606
1470243751910840,-0.222656,0.154785,-0.713013,0.646606
1470243751931858,-0.222595,0.154846,-0.713013,0.646606
1470243751948373,-0.222656,0.154785,-0.71283,0.64679
1470243751970893,-0.223083,0.154968,-0.712524,0.646973
1470243751991912,-0.223633,0.155273,-0.712158,0.647095
1470243752008427,-0.223877,0.155273,-0.711853,0.647339
1470243752030947,-0.223816,0.155151,-0.711609,0.647705
1470243752051967,-0.223694,0.154907,-0.711426,0.647949
1470243752068481,-0.223633,0.154602,-0.711304,0.648193
1470243752091001,-0.223938,0.154541,-0.71106,0.648315
1470243752119527,-0.224365,0.154968,-0.710815,0.648376
1470243752128035,-0.22467,0.155334,-0.710632,0.648376
1470243752150555,-0.22467,0.155334,-0.710632,0.648376
1470243752172075,-0.224548,0.155334,-0.710754,0.648254
1470243752188089,-0.224304,0.155334,-0.710876,0.648254
1470243752210609,-0.22406,0.155334,-0.710876,0.648315
1470243752233129,-0.223938,0.155396,-0.710999,0.648193
1470243752248144,-0.223938,0.155396,-0.710999,0.648193
1470243752271663,-0.223938,0.155396,-0.710999,0.648193
1470243752293183,-0.223938,0.155457,-0.710999,0.648193
1470243752308197,-0.223755,0.155396,-0.711121,0.648193
1470243752330718,-0.223755,0.155396,-0.711121,0.648193
1470243752353240,-0.223755,0.155396,-0.711121,0.648193
1470243752367249,-0.223511,0.155334,-0.711121,0.648193
1470243752390772,-0.223145,0.155334,-0.711182,0.648254
1470243752413316,-0.223145,0.155396,-0.711182,0.648254
1470243752427832,-0.223145,0.155396,-0.711182,0.648254
1470243752450850,-0.223145,0.155396,-0.711182,0.648254
1470243752473370,-0.223145,0.155396,-0.711182,0.648254
1470243752487885,-0.223145,0.155396,-0.711182,0.648254
1470243752510903,-0.223145,0.155396,-0.711182,0.648254
1470243752533423,-0.223328,0.155579,-0.711121,0.648254
1470243752547436,-0.223328,0.155579,-0.711121,0.648254
1470243752570958,-0.223328,0.155579,-0.711121,0.648254
1470243752593478,-0.223328,0.155579,-0.711121,0.648254
1470243752614497,-0.223328,0.15564,-0.711121,0.648254
1470243752631012,-0.223328,0.15564,-0.711121,0.648254
1470243752653532,-0.223328,0.15564,-0.711121,0.648254
1470243752667544,-0.223328,0.15564,-0.711121,0.648254
1470243752690565,-0.223328,0.15564,-0.711121,0.648254
1470243752713089,-0.223328,0.155701,-0.711121,0.648254
1470243752734103,-0.223022,0.155518,-0.711121,0.648376
1470243752750619,-0.223022,0.155518,-0.711121,0.648376
1470243752773139,-0.223022,0.155457,-0.711121,0.648376
1470243752794158,-0.222961,0.155518,-0.711121,0.648376
1470243752801164,-0.223145,0.15564,-0.71106,0.648376
1470243752816179,-0.223145,0.15564,-0.71106,0.648376
1470243752838699,-0.223145,0.15564,-0.71106,0.648376
1470243752861218,-0.223145,0.15564,-0.71106,0.648376
1470243752876239,-0.223145,0.15564,-0.71106,0.648376
1470243752898753,-0.223083,0.155334,-0.71106,0.648438
1470243752923774,-0.223083,0.155029,-0.71106,0.648499
1470243752936285,-0.223145,0.154541,-0.711182,0.648499
1470243752966312,-0.223206,0.154114,-0.711182,0.648621
1470243752981325,-0.222595,0.153442,-0.711182,0.648926
1470243752996339,-0.221375,0.153198,-0.711304,0.649292
1470243753018860,-0.219971,0.153381,-0.711365,0.649658
1470243753041379,-0.220154,0.154114,-0.711121,0.649719
1470243753056393,-0.22052,0.154419,-0.710876,0.649719
1470243753078414,-0.220032,0.154297,-0.710999,0.649841
1470243753100933,-0.219177,0.154175,-0.711182,0.649902
1470243753115946,-0.218933,0.154602,-0.711304,0.649841
1470243753138468,-0.219116,0.155457,-0.711243,0.649536
1470243753160988,-0.219421,0.155945,-0.711304,0.649292
1470243753176001,-0.219543,0.15625,-0.711365,0.649109
1470243753198521,-0.219727,0.156494,-0.711487,0.648865
1470243753221543,-0.219604,0.156311,-0.71167,0.648804
1470243753236557,-0.219604,0.15625,-0.71167,0.648804
1470243753258574,-0.219604,0.15625,-0.71167,0.648743
1470243753284097,-0.21991,0.156189,-0.711609,0.648743
1470243753296109,-0.219971,0.156189,-0.711609,0.648743
1470243753318629,-0.219971,0.156189,-0.711609,0.648743
1470243753341148,-0.219971,0.15625,-0.711609,0.648743
1470243753356162,-0.219971,0.15625,-0.711609,0.648743
1470243753381685,-0.220154,0.156311,-0.711548,0.648682
1470243753401202,-0.220154,0.156311,-0.711548,0.648682
1470243753416217,-0.220093,0.156372,-0.711487,0.648743
1470243753438738,-0.219482,0.156189,-0.71167,0.648804
1470243753461259,-0.219055,0.156067,-0.711731,0.648926
1470243753476270,-0.219055,0.156067,-0.711731,0.648926
1470243753499290,-0.219055,0.156067,-0.711731,0.648926
1470243753521310,-0.219177,0.156006,-0.711792,0.648865
1470243753536325,-0.21936,0.155884,-0.711853,0.648743
1470243753558844,-0.219849,0.155945,-0.711853,0.64856
1470243753590373,-0.220398,0.155762,-0.711853,0.648376
1470243753596378,-0.221069,0.155212,-0.711975,0.648193
1470243753618897,-0.221069,0.155151,-0.711975,0.648193
1470243753641419,-0.220581,0.155518,-0.711792,0.648499
1470243753656432,-0.219788,0.155518,-0.71167,0.648926
1470243753678452,-0.219604,0.155762,-0.711487,0.649109
1470243753700973,-0.219666,0.155701,-0.711487,0.649048
1470243753715985,-0.219666,0.15564,-0.711609,0.648987
1470243753738506,-0.219543,0.155579,-0.711609,0.648987
1470243753761025,-0.21991,0.155518,-0.71167,0.648865
1470243753777541,-0.220337,0.155457,-0.71167,0.648682
1470243753798559,-0.220459,0.155151,-0.711731,0.648682
1470243753821081,-0.220459,0.155151,-0.711731,0.648682
1470243753838098,-0.220459,0.155151,-0.711731,0.648682
1470243753858614,-0.220459,0.155212,-0.711731,0.648682
1470243753881134,-0.220459,0.155151,-0.711731,0.648682
1470243753899150,-0.220642,0.154968,-0.711731,0.648621
1470243753918668,-0.220642,0.154968,-0.711731,0.648621
1470243753941190,-0.220642,0.154968,-0.711731,0.648621
1470243753957703,-0.220642,0.154968,-0.711731,0.648621
1470243753978722,-0.220825,0.154846,-0.711609,0.648743
1470243754001242,-0.221191,0.154419,-0.711609,0.648682
1470243754017757,-0.221191,0.154419,-0.711609,0.648682
1470243754038775,-0.220703,0.154602,-0.711426,0.649048
1470243754061296,-0.21991,0.154724,-0.711304,0.649414
1470243754077810,-0.219666,0.15509,-0.71106,0.649719
1470243754098830,-0.219421,0.155029,-0.710938,0.649963
1470243754121349,-0.219238,0.154846,-0.710938,0.650024
1470243754138865,-0.219482,0.155029,-0.710815,0.650024
1470243754158883,-0.219666,0.155273,-0.710693,0.650024
1470243754181403,-0.219727,0.155273,-0.710693,0.650024
1470243754198920,-0.219727,0.155273,-0.710693,0.650024
1470243754218937,-0.219788,0.155273,-0.710693,0.650024
1470243754240958,-0.219788,0.155334,-0.710693,0.649963
1470243754264979,-0.219788,0.155273,-0.710693,0.649963
1470243754279992,-0.220032,0.155396,-0.710693,0.649902
1470243754301011,-0.220398,0.155579,-0.710571,0.649902
1470243754319027,-0.220459,0.155579,-0.710571,0.649902
1470243754338545,-0.220459,0.155518,-0.710571,0.649902
1470243754361067,-0.220459,0.155518,-0.710571,0.649902
1470243754379082,-0.220581,0.155945,-0.71051,0.64978
1470243754398599,-0.220581,0.156128,-0.71051,0.64978
1470243754422620,-0.220581,0.156128,-0.71051,0.649719
1470243754439136,-0.220703,0.156433,-0.71051,0.649597
1470243754458652,-0.220825,0.156677,-0.71051,0.649475
1470243754481172,-0.220886,0.15686,-0.710632,0.649353
1470243754499189,-0.220825,0.15686,-0.710632,0.649353
1470243754518706,-0.220703,0.156982,-0.710632,0.649292
1470243754541228,-0.220703,0.157043,-0.710632,0.649292
1470243754559243,-0.220703,0.156982,-0.710632,0.649292
1470243754581763,-0.220703,0.156982,-0.710632,0.649353
1470243754601280,-0.220703,0.157043,-0.710632,0.649353
1470243754618796,-0.220703,0.157043,-0.710632,0.649353
1470243754638814,-0.220703,0.157043,-0.710632,0.649353
1470243754661334,-0.220703,0.157043,-0.710632,0.649292
1470243754679851,-0.220703,0.157043,-0.710632,0.649353
1470243754700369,-0.220703,0.157043,-0.710632,0.649292
1470243754721389,-0.220703,0.157043,-0.710632,0.649292
1470243754738904,-0.220703,0.157043,-0.710632,0.649292
1470243754767435,-0.220764,0.157104,-0.710632,0.649292
1470243754781442,-0.22052,0.157043,-0.710693,0.649353
1470243754798958,-0.220276,0.157043,-0.710754,0.649353
1470243754820478,-0.220276,0.157043,-0.710754,0.649353
1470243754840995,-0.220276,0.157104,-0.710754,0.649353
1470243754859012,-0.220276,0.157104,-0.710754,0.649353
1470243754887539,-0.220276,0.157104,-0.710754,0.649353
1470243754901050,-0.220276,0.157104,-0.710754,0.649353
1470243754919066,-0.220276,0.157104,-0.710754,0.649353
1470243754947591,-0.220276,0.157104,-0.710754,0.649353
1470243754961103,-0.220276,0.157104,-0.710754,0.649353
1470243754979120,-0.220276,0.157104,-0.710754,0.649353
1470243755000138,-0.220276,0.157104,-0.710754,0.649353
1470243755024160,-0.220337,0.157104,-0.710754,0.649353
1470243755039175,-0.220337,0.157104,-0.710754,0.649353
1470243755061694,-0.220337,0.157166,-0.710693,0.649353
1470243755081212,-0.220337,0.157166,-0.710754,0.649353
1470243755098727,-0.220337,0.157166,-0.710693,0.649353
1470243755121752,-0.220337,0.157166,-0.710693,0.649353
1470243755141266,-0.220337,0.157166,-0.710693,0.649353
1470243755159281,-0.220337,0.157166,-0.710693,0.649353
1470243755180801,-0.220337,0.157166,-0.710693,0.649353
1470243755201319,-0.220398,0.157166,-0.710693,0.649353
1470243755218835,-0.220398,0.157166,-0.710693,0.649353
1470243755241355,-0.220398,0.157227,-0.710693,0.649353
1470243755261374,-0.220337,0.157227,-0.710693,0.649353
1470243755278888,-0.220398,0.157227,-0.710693,0.649353
1470243755301409,-0.220398,0.157227,-0.710693,0.649353
1470243755321928,-0.220398,0.157227,-0.710693,0.649353
1470243755338442,-0.220398,0.157227,-0.710693,0.649353
1470243755360462,-0.220398,0.157227,-0.710693,0.649353
1470243755381980,-0.220337,0.157227,-0.710693,0.649353
1470243755397995,-0.220398,0.157227,-0.710693,0.649353
1470243755421017,-0.220398,0.157288,-0.710693,0.649353
1470243755442035,-0.220398,0.157288,-0.710693,0.649353
1470243755459051,-0.220398,0.157288,-0.710693,0.649353
1470243755480570,-0.220398,0.157288,-0.710693,0.649353
1470243755502090,-0.220398,0.157288,-0.710693,0.649353
1470243755518105,-0.220398,0.157227,-0.710693,0.649353
1470243755540626,-0.220398,0.157288,-0.710693,0.649353
1470243755562145,-0.220398,0.157288,-0.710693,0.649353
1470243755578158,-0.220398,0.157288,-0.710693,0.649353
1470243755608185,-0.220215,0.157349,-0.710693,0.649353
1470243755621697,-0.219971,0.157227,-0.710754,0.649414
1470243755638212,-0.219971,0.157166,-0.710754,0.649414
1470243755660732,-0.220093,0.157349,-0.710693,0.649353
1470243755682251,-0.220093,0.15741,-0.710693,0.649353
1470243755698266,-0.220154,0.15741,-0.710693,0.649353
1470243755720788,-0.220093,0.15741,-0.710693,0.649353
1470243755741805,-0.220093,0.15741,-0.710693,0.649353
1470243755758320,-0.220154,0.15741,-0.710693,0.649353
1470243755780840,-0.220154,0.15741,-0.710693,0.649353
1470243755802859,-0.220154,0.15741,-0.710693,0.649353
1470243755818373,-0.220154,0.15741,-0.710693,0.649353
1470243755840894,-0.220154,0.15741,-0.710693,0.649353
1470243755861912,-0.220154,0.15741,-0.710693,0.649353
1470243755878427,-0.220154,0.15741,-0.710693,0.649353
1470243755900948,-0.220154,0.157471,-0.710693,0.649353
1470243755921966,-0.220215,0.157471,-0.710693,0.649353
1470243755937481,-0.220215,0.157471,-0.710693,0.649353
1470243755961002,-0.220215,0.157471,-0.710693,0.649353
1470243755982020,-0.220154,0.157471,-0.710693,0.649353
1470243755998034,-0.220154,0.157532,-0.710693,0.649353
1470243756020556,-0.220154,0.157532,-0.710693,0.649353
1470243756043075,-0.220154,0.157532,-0.710693,0.649353
1470243756058589,-0.220154,0.157532,-0.710693,0.649353
1470243756080608,-0.220154,0.157532,-0.710632,0.649353
1470243756103630,-0.220215,0.157532,-0.710632,0.649353
1470243756118143,-0.220215,0.157593,-0.710632,0.649353
1470243756140663,-0.220215,0.157593,-0.710632,0.649353
1470243756163183,-0.220337,0.157776,-0.710632,0.649292
1470243756177696,-0.220337,0.157837,-0.710632,0.649231
1470243756200717,-0.220337,0.157837,-0.710632,0.649292
1470243756223237,-0.220337,0.157837,-0.710632,0.649292
1470243756237752,-0.220337,0.157837,-0.710632,0.649292
1470243756260770,-0.220276,0.157837,-0.710632,0.649292
1470243756283291,-0.220276,0.157837,-0.710632,0.649292
1470243756297803,-0.220276,0.157837,-0.710632,0.649292
1470243756320828,-0.220276,0.157837,-0.710632,0.649292
1470243756350851,-0.220276,0.157837,-0.710632,0.649292
1470243756357357,-0.220154,0.15802,-0.710449,0.649475
1470243756380879,-0.220032,0.158203,-0.710327,0.649597
1470243756403399,-0.219971,0.158325,-0.710266,0.649658
1470243756417911,-0.219971,0.158325,-0.710266,0.649658
1470243756440932,-0.219971,0.158325,-0.710266,0.649658
1470243756462952,-0.219971,0.158325,-0.710266,0.649658
1470243756477465,-0.219971,0.158325,-0.710266,0.649658
1470243756500986,-0.21991,0.158325,-0.710266,0.649658
1470243756523506,-0.21991,0.158325,-0.710266,0.649658
1470243756544524,-0.21991,0.158386,-0.710266,0.649658
1470243756561040,-0.220093,0.158264,-0.710144,0.64978
1470243756583060,-0.220276,0.158081,-0.710083,0.64978
1470243756605080,-0.220215,0.157776,-0.710022,0.650024
1470243756621095,-0.220215,0.157471,-0.7099,0.650208
1470243756643614,-0.220093,0.15741,-0.709717,0.650452
1470243756664132,-0.220093,0.15741,-0.709717,0.650452
1470243756687153,-0.21991,0.157593,-0.709595,0.650574
1470243756704670,-0.21991,0.157593,-0.709595,0.650574
1470243756724686,-0.219971,0.157898,-0.709595,0.650513
1470243756740702,-0.219971,0.157959,-0.709595,0.650513
1470243756763222,-0.219238,0.158142,-0.709473,0.650818
1470243756784240,-0.218506,0.158508,-0.70929,0.651245
1470243756800756,-0.218079,0.158813,-0.709167,0.651367
1470243756823276,-0.218201,0.159302,-0.709167,0.651245
1470243756844293,-0.218689,0.159851,-0.709167,0.65094
1470243756860809,-0.218811,0.160095,-0.709229,0.650818
1470243756883329,-0.218811,0.15979,-0.709351,0.650696
1470243756904850,-0.218994,0.159485,-0.709412,0.650696
1470243756920863,-0.21936,0.159302,-0.709473,0.650574
1470243756943383,-0.219666,0.15918,-0.709595,0.65033
1470243756965903,-0.219666,0.15918,-0.709595,0.65033
1470243756980916,-0.219666,0.15918,-0.709595,0.65033
1470243757003439,-0.219666,0.15918,-0.709595,0.65033
1470243757025958,-0.219666,0.15918,-0.709595,0.65033
1470243757040972,-0.219604,0.158875,-0.709534,0.650452
1470243757063491,-0.219604,0.158691,-0.709595,0.650452
1470243757086011,-0.219543,0.158691,-0.709595,0.650452
1470243757100024,-0.219604,0.158691,-0.709595,0.650452
1470243757123545,-0.219604,0.158691,-0.709595,0.650452
1470243757145565,-0.219604,0.158691,-0.709595,0.650452
1470243757160078,-0.219238,0.158691,-0.709595,0.650574
1470243757183098,-0.218811,0.158691,-0.709534,0.650757
1470243757206119,-0.218384,0.158813,-0.709351,0.651062
1470243757220135,-0.216736,0.158447,-0.709412,0.651672
1470243757243152,-0.214905,0.158264,-0.709534,0.652161
1470243757265673,-0.213562,0.158508,-0.708984,0.653137
1470243757280185,-0.212524,0.158569,-0.708618,0.65387
1470243757303708,-0.210815,0.157654,-0.708496,0.654785
1470243757325727,-0.208252,0.156677,-0.70874,0.655518
1470243757340239,-0.206299,0.156189,-0.70874,0.656311
1470243757363261,-0.205688,0.156616,-0.708618,0.656494
1470243757385781,-0.205811,0.157043,-0.70874,0.65625
1470243757400294,-0.20636,0.15741,-0.708862,0.655884
1470243757423314,-0.207153,0.157593,-0.708923,0.655518
1470243757445834,-0.208252,0.157715,-0.708984,0.65509
1470243757466853,-0.209229,0.157654,-0.709045,0.654663
1470243757483368,-0.210144,0.157593,-0.708984,0.65448
1470243757505889,-0.211121,0.157654,-0.708984,0.654175
1470243757526907,-0.212036,0.157837,-0.708923,0.65387
1470243757543423,-0.212769,0.157959,-0.709045,0.653503
1470243757565942,-0.213318,0.158325,-0.709106,0.653137
1470243757587465,-0.213928,0.159058,-0.708923,0.652954
1470243757603978,-0.214661,0.160034,-0.708679,0.652771
1470243757625996,-0.214966,0.160767,-0.708618,0.652588
1470243757647014,-0.215332,0.161194,-0.708496,0.652466
1470243757663531,-0.215393,0.161194,-0.708496,0.652466
1470243757686051,-0.21521,0.161072,-0.708679,0.652344
1470243757707068,-0.215271,0.161011,-0.708862,0.6521
1470243757723085,-0.215576,0.161133,-0.708984,0.651855
1470243757745604,-0.216064,0.161316,-0.708984,0.651611
1470243757767122,-0.216064,0.161316,-0.708984,0.651611
1470243757783137,-0.216125,0.161316,-0.708984,0.651611
1470243757805657,-0.216187,0.161194,-0.708984,0.651611
1470243757826677,-0.216431,0.161133,-0.708984,0.65155
1470243757842691,-0.216431,0.161133,-0.708984,0.65155
1470243757865712,-0.216431,0.161133,-0.708984,0.65155
1470243757888232,-0.216431,0.161194,-0.708984,0.65155
1470243757903248,-0.216431,0.161194,-0.708984,0.65155
1470243757925766,-0.216431,0.161133,-0.708984,0.65155
1470243757948286,-0.216431,0.161194,-0.708984,0.65155
1470243757963298,-0.216492,0.161194,-0.708984,0.65155
1470243757991826,-0.216492,0.161194,-0.708984,0.65155
1470243758008339,-0.216492,0.161194,-0.708984,0.65155
1470243758023353,-0.216492,0.161194,-0.708984,0.65155
1470243758051879,-0.216492,0.161255,-0.708984,0.65155
1470243758068895,-0.216492,0.161255,-0.708923,0.65155
1470243758082906,-0.216492,0.161255,-0.708984,0.65155
1470243758105928,-0.216492,0.161255,-0.708984,0.65155
1470243758128448,-0.216736,0.161377,-0.708862,0.65155
1470243758142461,-0.216736,0.161377,-0.708862,0.65155
1470243758165981,-0.216736,0.161377,-0.708862,0.65155
1470243758188502,-0.216736,0.161377,-0.708862,0.65155
1470243758202514,-0.217163,0.16156,-0.708801,0.651428
1470243758226035,-0.217834,0.161682,-0.708618,0.651367
1470243758248555,-0.219604,0.16156,-0.708252,0.651184
1470243758270076,-0.223572,0.162109,-0.707275,0.650818
1470243758292094,-0.228699,0.163757,-0.705627,0.650391
1470243758308609,-0.233582,0.165527,-0.703674,0.650269
1470243758329629,-0.237732,0.166077,-0.702454,0.649963
1470243758359655,-0.242065,0.165955,-0.702026,0.648865
1470243758368162,-0.246948,0.166565,-0.701599,0.647339
1470243758389181,-0.25061,0.167297,-0.701233,0.646179
1470243758405697,-0.252197,0.167114,-0.701172,0.64563
1470243758428718,-0.252563,0.166077,-0.701477,0.645386
1470243758457243,-0.25293,0.165466,-0.701721,0.645142
1470243758465750,-0.253906,0.16571,-0.701416,0.64502
1470243758488273,-0.255493,0.166382,-0.700928,0.644775
1470243758509289,-0.257324,0.167175,-0.700378,0.644409
1470243758525804,-0.25885,0.167664,-0.699768,0.644348
1470243758548324,-0.260132,0.167786,-0.699158,0.64447
1470243758569345,-0.262024,0.168274,-0.698425,0.644348
1470243758585858,-0.264221,0.169373,-0.697632,0.644043
1470243758608379,-0.266846,0.171082,-0.696411,0.64386
1470243758629397,-0.26886,0.172668,-0.694702,0.64447
1470243758645912,-0.270325,0.173889,-0.692749,0.645569
1470243758668432,-0.270264,0.17511,-0.691162,0.646973
1470243758689451,-0.269897,0.177307,-0.689697,0.648071
1470243758705965,-0.269043,0.179565,-0.688477,0.64917
1470243758734491,-0.267273,0.181152,-0.687439,0.650513
1470243758751007,-0.264771,0.182068,-0.686707,0.652039
1470243758766019,-0.262695,0.182983,-0.685791,0.653564
1470243758788540,-0.26123,0.184143,-0.684753,0.654907
1470243758809558,-0.260437,0.185242,-0.683777,0.655945
1470243758826074,-0.259766,0.185669,-0.683228,0.656738
1470243758848594,-0.258789,0.185242,-0.683105,0.657349
1470243758871115,-0.257751,0.184021,-0.683289,0.657898
1470243758885627,-0.25708,0.182617,-0.683655,0.658203
1470243758908647,-0.257629,0.18158,-0.683899,0.657959
1470243758930668,-0.259094,0.180176,-0.684387,0.657288
1470243758945681,-0.260803,0.178284,-0.685059,0.656372
1470243758968202,-0.262512,0.176147,-0.686035,0.655334
1470243758990724,-0.264221,0.174133,-0.687012,0.654114
1470243759005236,-0.26593,0.172424,-0.687927,0.652954
1470243759028256,-0.267883,0.170959,-0.688599,0.651794
1470243759050776,-0.269531,0.169556,-0.68927,0.650757
1470243759065288,-0.270569,0.167908,-0.690186,0.64978
1470243759088310,-0.270325,0.16571,-0.691772,0.648743
1470243759110830,-0.266602,0.16571,-0.693115,0.648865
1470243759131849,-0.259583,0.162048,-0.694031,0.651672
1470243759148363,-0.259277,0.16095,-0.693848,0.652222
1470243759170886,-0.262756,0.163635,-0.69281,0.651306
1470243759191902,-0.261536,0.161621,-0.693298,0.651794
1470243759208418,-0.257019,0.157654,-0.694885,0.652893
1470243759230937,-0.253906,0.155029,-0.69574,0.65387
1470243759251957,-0.252747,0.154053,-0.695801,0.654419
1470243759268471,-0.252319,0.153687,-0.695557,0.654968
1470243759290991,-0.251648,0.153442,-0.695374,0.655457
1470243759312009,-0.25,0.152466,-0.695557,0.656067
1470243759328524,-0.247925,0.151489,-0.695984,0.656677
1470243759351044,-0.245728,0.150635,-0.696167,0.657532
1470243759372064,-0.244263,0.150146,-0.695984,0.658325
1470243759388579,-0.243347,0.150024,-0.695801,0.658936
1470243759410598,-0.242371,0.149658,-0.695618,0.659485
1470243759432117,-0.241211,0.149109,-0.695618,0.660095
1470243759448133,-0.239929,0.148438,-0.695679,0.660583
1470243759471154,-0.238708,0.147888,-0.69574,0.661133
1470243759491671,-0.237976,0.147705,-0.695679,0.661499
1470243759508186,-0.237549,0.147644,-0.695557,0.661804
1470243759531708,-0.237244,0.147705,-0.695435,0.661987
1470243759551726,-0.236816,0.147644,-0.695496,0.662109
1470243759568240,-0.235962,0.147461,-0.69574,0.662231
1470243759590760,-0.235046,0.1474,-0.696045,0.662292
1470243759611779,-0.234375,0.147522,-0.696167,0.662292
1470243759628295,-0.233521,0.147461,-0.696411,0.662354
1470243759650814,-0.232605,0.147339,-0.696594,0.662537
1470243759671835,-0.231567,0.14679,-0.696899,0.662659
1470243759688348,-0.23053,0.146301,-0.697266,0.662781
1470243759710870,-0.229553,0.145813,-0.697571,0.662903
1470243759731887,-0.228699,0.145447,-0.697754,0.663086
1470243759748402,-0.228394,0.145386,-0.697815,0.663147
1470243759770923,-0.228271,0.145569,-0.697876,0.663086
1470243759793446,-0.22821,0.145691,-0.697876,0.663086
1470243759808457,-0.228088,0.145813,-0.697876,0.663086
1470243759831476,-0.227722,0.145935,-0.697876,0.663147
1470243759853499,-0.227478,0.146179,-0.697876,0.663269
1470243759868510,-0.227173,0.146423,-0.697754,0.663452
1470243759891029,-0.227051,0.146729,-0.697632,0.663513
1470243759913550,-0.22699,0.147034,-0.697449,0.663635
1470243759928563,-0.226868,0.147034,-0.697388,0.663757
1470243759950583,-0.226685,0.146912,-0.697266,0.664001
1470243759973104,-0.226318,0.14679,-0.697144,0.664246
1470243759987621,-0.225891,0.146301,-0.69696,0.664734
1470243760010638,-0.225342,0.145813,-0.696777,0.665161
1470243760033158,-0.224854,0.145386,-0.696533,0.66571
1470243760048172,-0.224365,0.144958,-0.69635,0.666138
1470243760071193,-0.22406,0.144714,-0.696106,0.666565
1470243760093211,-0.223816,0.144409,-0.695923,0.66687
1470243760107725,-0.223389,0.144287,-0.695801,0.667236
1470243760130747,-0.223022,0.144043,-0.695618,0.667542
1470243760153267,-0.222961,0.144104,-0.695374,0.667847
1470243760167779,-0.2229,0.143982,-0.695129,0.668152
1470243760191300,-0.222656,0.14386,-0.694946,0.668457
1470243760213320,-0.222473,0.143677,-0.694763,0.668701
1470243760227833,-0.222351,0.143555,-0.694641,0.668884
1470243760250854,-0.222168,0.143433,-0.69458,0.669067
1470243760273375,-0.222168,0.143433,-0.694397,0.66925
1470243760294392,-0.222107,0.143494,-0.694275,0.669434
1470243760310908,-0.222168,0.143433,-0.694092,0.669556
1470243760333428,-0.221985,0.143311,-0.69397,0.669739
1470243760354948,-0.221863,0.143311,-0.693848,0.669983
1470243760370964,-0.221802,0.143433,-0.693665,0.670105
1470243760393482,-0.221741,0.143433,-0.693542,0.670227
1470243760414500,-0.221558,0.143372,-0.693542,0.670349
1470243760431014,-0.221558,0.143372,-0.693542,0.670349
1470243760453535,-0.221619,0.143372,-0.693542,0.670349
1470243760474553,-0.221619,0.143433,-0.693542,0.670349
1470243760491068,-0.221619,0.143433,-0.693542,0.670349
1470243760513088,-0.221619,0.143433,-0.693542,0.670349
1470243760534608,-0.221619,0.143433,-0.693481,0.670349
1470243760550622,-0.221619,0.143433,-0.693481,0.670349
1470243760556128,-0.221619,0.143433,-0.693481,0.670349
1470243760586158,-0.221619,0.143433,-0.693481,0.670349
1470243760601169,-0.22168,0.143555,-0.693542,0.670227
1470243760616181,-0.22168,0.143799,-0.693542,0.670227
1470243760638702,-0.22168,0.143799,-0.693542,0.670227
1470243760661222,-0.22168,0.143799,-0.693542,0.670227
1470243760676234,-0.22168,0.143799,-0.693542,0.670227
1470243760698755,-0.22168,0.143799,-0.693542,0.670227
1470243760722777,-0.221802,0.144043,-0.69342,0.670227
1470243760736290,-0.221924,0.144348,-0.693359,0.670166
1470243760758808,-0.221985,0.144348,-0.693359,0.670166
1470243760781330,-0.222046,0.144714,-0.69342,0.669983
1470243760796342,-0.222168,0.145142,-0.693481,0.6698
1470243760818863,-0.222168,0.145447,-0.693604,0.669617
1470243760841383,-0.222229,0.145752,-0.693726,0.669434
1470243760856397,-0.22229,0.146057,-0.693909,0.669189
1470243760878916,-0.222473,0.146362,-0.693909,0.669006
1470243760901436,-0.222656,0.146606,-0.694031,0.668823
1470243760916451,-0.222778,0.146851,-0.694092,0.66864
1470243760938973,-0.222778,0.146851,-0.694092,0.66864
1470243760960990,-0.222656,0.147034,-0.694214,0.668518
1470243760976504,-0.222412,0.146606,-0.694275,0.668579
1470243760998524,-0.222412,0.146667,-0.694275,0.668579
1470243761021548,-0.222107,0.146912,-0.694397,0.668518
1470243761036059,-0.22168,0.147644,-0.694397,0.668518
1470243761058578,-0.221497,0.148438,-0.694336,0.668457
1470243761081098,-0.221436,0.148865,-0.694336,0.668335
1470243761096113,-0.221191,0.148926,-0.694397,0.668335
1470243761118632,-0.220825,0.148865,-0.694458,0.668396
1470243761141655,-0.220825,0.148865,-0.694458,0.668396
1470243761156167,-0.22113,0.149231,-0.694519,0.668213
1470243761178685,-0.221436,0.149597,-0.69458,0.667969
1470243761201206,-0.221619,0.149841,-0.694641,0.667786
1470243761216219,-0.221741,0.150024,-0.694702,0.667664
1470243761238741,-0.22168,0.150024,-0.694702,0.667664
1470243761262762,-0.221924,0.150146,-0.69458,0.667664
1470243761276275,-0.222168,0.15033,-0.694458,0.667664
1470243761298793,-0.222168,0.150452,-0.694275,0.667847
1470243761321319,-0.222046,0.150391,-0.694153,0.66803
1470243761338330,-0.221985,0.15033,-0.694031,0.668152
1470243761358849,-0.221863,0.150391,-0.693909,0.668335
1470243761382869,-0.221863,0.150452,-0.693726,0.668457
1470243761397882,-0.221802,0.150513,-0.693604,0.66864
1470243761418901,-0.22168,0.150513,-0.693542,0.668762
1470243761441421,-0.221741,0.150635,-0.693359,0.668884
1470243761457436,-0.221741,0.150635,-0.693359,0.668884
1470243761478955,-0.221741,0.150635,-0.693359,0.668884
1470243761501476,-0.221741,0.150635,-0.693359,0.668884
1470243761517490,-0.221741,0.150635,-0.693359,0.668884
1470243761538509,-0.221985,0.150513,-0.693359,0.668762
1470243761561029,-0.222412,0.150391,-0.69342,0.66864
1470243761577546,-0.222839,0.150208,-0.693481,0.668457
1470243761598562,-0.222595,0.150085,-0.693604,0.668457
1470243761621086,-0.222412,0.150146,-0.693359,0.668762
1470243761638099,-0.222412,0.15033,-0.693237,0.668884
1470243761660118,-0.222534,0.150513,-0.693176,0.668884
1470243761681137,-0.222656,0.150574,-0.693237,0.668701
1470243761699153,-0.222595,0.150635,-0.693359,0.66864
1470243761719172,-0.222229,0.150696,-0.69342,0.668579
1470243761741192,-0.222229,0.150757,-0.69342,0.668579
1470243761759207,-0.222229,0.150757,-0.69342,0.668579
1470243761778725,-0.222229,0.150757,-0.69342,0.66864
1470243761801246,-0.222412,0.150818,-0.693481,0.668518
1470243761819262,-0.222412,0.150818,-0.693481,0.668518
1470243761838780,-0.222534,0.150696,-0.693542,0.668457
1470243761861300,-0.222717,0.150513,-0.693604,0.668396
1470243761879315,-0.223083,0.150085,-0.693604,0.668335
1470243761898834,-0.223633,0.149658,-0.693604,0.668213
1470243761921354,-0.223633,0.149597,-0.693665,0.668213
1470243761939368,-0.223267,0.150146,-0.693176,0.668701
1470243761958886,-0.222717,0.150513,-0.692932,0.669067
1470243761981406,-0.222534,0.150879,-0.692749,0.669189
1470243761999422,-0.222412,0.15094,-0.692749,0.669189
1470243762018941,-0.222168,0.15094,-0.692932,0.669128
1470243762041461,-0.222107,0.15094,-0.692932,0.669128
1470243762058977,-0.222351,0.151306,-0.692871,0.669006
1470243762078994,-0.222839,0.151367,-0.69281,0.668884
1470243762101015,-0.2229,0.151184,-0.692932,0.668823
1470243762119030,-0.222778,0.15094,-0.693054,0.668762
1470243762139049,-0.222717,0.150879,-0.693054,0.668762
1470243762161068,-0.222717,0.150879,-0.693054,0.668762
1470243762179084,-0.222717,0.150879,-0.693054,0.668762
1470243762198602,-0.222717,0.150879,-0.693054,0.668762
1470243762221625,-0.222778,0.150879,-0.693054,0.668762
1470243762239141,-0.222778,0.15094,-0.693054,0.668762
1470243762258656,-0.222595,0.15094,-0.693054,0.668823
1470243762281177,-0.22229,0.151062,-0.693054,0.668884
1470243762299192,-0.222107,0.151245,-0.693176,0.668823
1470243762320212,-0.221558,0.151306,-0.693359,0.668762
1470243762341231,-0.220581,0.151306,-0.693665,0.668823
1470243762359247,-0.219238,0.151306,-0.694153,0.668701
1470243762380264,-0.217773,0.151733,-0.694641,0.66864
1470243762401284,-0.216309,0.152344,-0.695007,0.668518
1470243762419300,-0.215027,0.153137,-0.695435,0.668335
1470243762440320,-0.213318,0.154053,-0.696106,0.66803
1470243762461339,-0.21167,0.154907,-0.696533,0.667847
1470243762479353,-0.210876,0.155701,-0.696716,0.667725
1470243762500373,-0.210327,0.156067,-0.696777,0.667786
1470243762521391,-0.209717,0.15625,-0.696777,0.667908
1470243762539909,-0.209351,0.156372,-0.696777,0.667969
1470243762567433,-0.210022,0.156555,-0.696411,0.668091
1470243762581445,-0.211365,0.15741,-0.695923,0.66803
1470243762598962,-0.213013,0.158386,-0.695496,0.667725
1470243762620983,-0.215027,0.159546,-0.694824,0.66748
1470243762641499,-0.217468,0.161011,-0.694092,0.667114
1470243762659015,-0.219421,0.161926,-0.693604,0.666748
1470243762681537,-0.219788,0.162048,-0.693726,0.666504
1470243762701553,-0.219604,0.162231,-0.694153,0.666016
1470243762719069,-0.220215,0.163147,-0.694153,0.665588
1470243762741590,-0.221497,0.164368,-0.693726,0.665344
1470243762761108,-0.2229,0.165527,-0.693237,0.6651
1470243762779123,-0.223694,0.165588,-0.693115,0.664978
1470243762801643,-0.223328,0.164368,-0.693237,0.665283
1470243762821663,-0.222839,0.163086,-0.693359,0.665588
1470243762839177,-0.222839,0.162354,-0.693359,0.665771
1470243762861627,-0.222839,0.161865,-0.693359,0.665894
1470243762881146,-0.222839,0.161865,-0.693359,0.665894
1470243762899161,-0.223083,0.161926,-0.693298,0.665833
1470243762921682,-0.22345,0.162109,-0.693298,0.66571
1470243762942202,-0.223877,0.162354,-0.693176,0.665588
1470243762959217,-0.224121,0.162354,-0.693115,0.665588
1470243762981736,-0.224243,0.162292,-0.693054,0.665649
1470243763001253,-0.224426,0.162109,-0.692993,0.665649
1470243763019269,-0.224731,0.161987,-0.692993,0.665588
1470243763047795,-0.22467,0.161987,-0.692993,0.665588
1470243763061807,-0.224854,0.162354,-0.692871,0.665588
1470243763078322,-0.224792,0.162659,-0.69281,0.665588
1470243763100842,-0.224609,0.16272,-0.692871,0.665588
1470243763122363,-0.224609,0.162659,-0.692871,0.665588
1470243763138378,-0.224609,0.162659,-0.692871,0.665588
1470243763160898,-0.224609,0.16272,-0.692871,0.665588
1470243763181915,-0.224609,0.16272,-0.692871,0.665588
1470243763198430,-0.224121,0.162109,-0.692749,0.666016
1470243763221453,-0.222961,0.161438,-0.692871,0.666443
1470243763241969,-0.221252,0.160217,-0.693298,0.66687
1470243763258484,-0.219238,0.15979,-0.693481,0.66748
1470243763281004,-0.217346,0.159363,-0.693604,0.668091
1470243763302024,-0.215149,0.158813,-0.693726,0.668823
1470243763318538,-0.213135,0.158081,-0.694092,0.66925
1470243763340558,-0.211914,0.157471,-0.694458,0.669312
1470243763362077,-0.211426,0.157349,-0.69458,0.669434
1470243763378091,-0.211975,0.158081,-0.694458,0.669189
1470243763401112,-0.213196,0.159241,-0.694397,0.668579
1470243763422130,-0.214233,0.159851,-0.694275,0.668274
1470243763438646,-0.214905,0.160095,-0.694092,0.668152
1470243763461166,-0.215454,0.160339,-0.69397,0.66803
1470243763481685,-0.21582,0.160461,-0.69397,0.667847
1470243763498199,-0.216248,0.160583,-0.693909,0.667786
1470243763521221,-0.216492,0.160828,-0.693848,0.667725
1470243763542238,-0.216553,0.161133,-0.693848,0.667664
1470243763558253,-0.216553,0.161133,-0.693848,0.667603
1470243763580773,-0.216553,0.161133,-0.693848,0.667603
1470243763603797,-0.216614,0.161133,-0.693848,0.667603
1470243763618307,-0.216919,0.161316,-0.693787,0.667542
1470243763640829,-0.217407,0.161499,-0.693665,0.667419
1470243763663348,-0.218018,0.16156,-0.693604,0.667297
1470243763678362,-0.218506,0.16156,-0.693542,0.667175
1470243763700881,-0.218872,0.161621,-0.693665,0.666931
1470243763723402,-0.218933,0.161987,-0.693604,0.666931
1470243763744420,-0.218933,0.161987,-0.693604,0.66687
1470243763760935,-0.218628,0.161743,-0.693665,0.666992
1470243763783455,-0.218628,0.161682,-0.693665,0.666992
1470243763797968,-0.218811,0.161682,-0.693665,0.666931
1470243763820991,-0.218811,0.161682,-0.693665,0.666931
1470243763843509,-0.218811,0.161743,-0.693665,0.666992
1470243763857523,-0.218811,0.161743,-0.693665,0.666931
1470243763881045,-0.21875,0.16156,-0.693726,0.666931
1470243763903564,-0.218567,0.161438,-0.693787,0.666992
1470243763924582,-0.218567,0.161438,-0.693726,0.666992
1470243763941097,-0.218811,0.161682,-0.693726,0.666931
1470243763963616,-0.218933,0.161804,-0.693665,0.66687
1470243763977629,-0.218933,0.161804,-0.693665,0.66687
1470243764001150,-0.218994,0.161804,-0.693665,0.66687
1470243764023671,-0.218689,0.161682,-0.693726,0.666931
1470243764037685,-0.218689,0.161682,-0.693726,0.666931
1470243764060704,-0.218689,0.161682,-0.693726,0.666931
1470243764083225,-0.218689,0.161682,-0.693726,0.666931
1470243764104746,-0.218689,0.161682,-0.693726,0.666931
1470243764120758,-0.21875,0.161682,-0.693726,0.666931
1470243764143278,-0.21875,0.161682,-0.693726,0.666931
1470243764164297,-0.21875,0.161682,-0.693726,0.666931
1470243764180812,-0.218872,0.161987,-0.693604,0.666931
1470243764203332,-0.219116,0.162231,-0.693542,0.66687
1470243764231858,-0.219177,0.162231,-0.693542,0.66687
1470243764240866,-0.219177,0.162231,-0.693542,0.66687
1470243764263386,-0.219177,0.162231,-0.693542,0.66687
1470243764284409,-0.219177,0.162231,-0.693542,0.66687
1470243764300920,-0.219177,0.162231,-0.693542,0.66687
1470243764323440,-0.219177,0.162231,-0.693542,0.66687
1470243764344460,-0.219177,0.162292,-0.693481,0.666809
1470243764360974,-0.219055,0.162109,-0.693542,0.66687
1470243764383494,-0.218994,0.162109,-0.693542,0.666931
1470243764404514,-0.219177,0.162292,-0.693481,0.66687
1470243764421028,-0.219482,0.162598,-0.693359,0.666809
1470243764443548,-0.219482,0.162598,-0.693359,0.666809
1470243764472080,-0.219482,0.162598,-0.693359,0.666809
1470243764481081,-0.219482,0.162598,-0.693359,0.666809
1470243764503602,-0.219482,0.162598,-0.693359,0.666809
1470243764524623,-0.219482,0.162659,-0.693359,0.666809
1470243764541136,-0.219482,0.162659,-0.693359,0.666809
1470243764563155,-0.219482,0.162659,-0.693359,0.666809
1470243764586177,-0.219482,0.162659,-0.693359,0.666809
1470243764600689,-0.219482,0.162659,-0.693359,0.666809
1470243764623209,-0.219238,0.162231,-0.69342,0.666931
1470243764645730,-0.219238,0.162231,-0.69342,0.666931
1470243764660743,-0.21936,0.162231,-0.693298,0.666992
1470243764683263,-0.219666,0.162231,-0.693176,0.666992
1470243764705784,-0.220032,0.162354,-0.693054,0.666992
1470243764720297,-0.220093,0.162354,-0.693054,0.666992
1470243764743817,-0.220093,0.162354,-0.693054,0.666992
1470243764765837,-0.220093,0.162292,-0.693054,0.666992
1470243764780350,-0.220093,0.162354,-0.693054,0.666992
1470243764803371,-0.220093,0.162354,-0.693054,0.666992
1470243764825891,-0.220093,0.162354,-0.693054,0.666992
1470243764840404,-0.220154,0.162354,-0.693054,0.666992
1470243764863425,-0.220093,0.162354,-0.693054,0.666992
1470243764885945,-0.219971,0.162231,-0.693115,0.667053
1470243764900458,-0.21991,0.162231,-0.693115,0.667053
1470243764930986,-0.21991,0.162231,-0.693115,0.667053
1470243764945999,-0.21991,0.162231,-0.693115,0.667053
1470243764960012,-0.219971,0.162231,-0.693115,0.667053
1470243764983532,-0.219971,0.162231,-0.693115,0.666992
1470243765006053,-0.219971,0.162231,-0.693115,0.666992
1470243765027073,-0.220154,0.162354,-0.693054,0.666992
1470243765043586,-0.220154,0.162415,-0.693054,0.666992
1470243765066106,-0.220154,0.162415,-0.693054,0.666992
1470243765087126,-0.220154,0.162415,-0.692993,0.666992
1470243765103640,-0.220154,0.162415,-0.693054,0.666992
1470243765126161,-0.220337,0.162659,-0.692932,0.666992
1470243765147180,-0.220337,0.162659,-0.692932,0.666992
1470243765163194,-0.220337,0.162659,-0.692932,0.666992
1470243765185714,-0.220398,0.162659,-0.692932,0.666992
1470243765207234,-0.220398,0.162659,-0.692871,0.666992
1470243765223248,-0.220398,0.162659,-0.692871,0.666992
1470243765245768,-0.220398,0.162659,-0.692871,0.666992
1470243765266787,-0.220398,0.162659,-0.692871,0.666992
1470243765283302,-0.220398,0.162659,-0.692871,0.666992
1470243765305824,-0.220398,0.162659,-0.692871,0.666992
1470243765326841,-0.220398,0.162659,-0.692871,0.666992
1470243765343356,-0.220398,0.162659,-0.692871,0.666992
1470243765365877,-0.220398,0.162659,-0.692932,0.666992
1470243765388898,-0.220398,0.162659,-0.692871,0.666992
1470243765404411,-0.220459,0.162659,-0.692871,0.666992
1470243765425934,-0.220459,0.162659,-0.692871,0.666992
1470243765446950,-0.220459,0.162659,-0.692871,0.666992
1470243765463464,-0.220459,0.162659,-0.692871,0.666992
1470243765485984,-0.220459,0.162659,-0.692871,0.666992
1470243765508505,-0.220459,0.162659,-0.692871,0.666992
1470243765523518,-0.220337,0.162476,-0.692932,0.667053
1470243765546038,-0.220337,0.162476,-0.692932,0.667053
1470243765568558,-0.220337,0.162476,-0.692932,0.666992
1470243765583572,-0.220398,0.162476,-0.692932,0.666992
1470243765606092,-0.220398,0.162476,-0.692932,0.666992
1470243765628612,-0.220398,0.162476,-0.692932,0.666992
1470243765642625,-0.220581,0.162354,-0.692871,0.667053
1470243765666145,-0.220581,0.162354,-0.692871,0.667053
1470243765688666,-0.220581,0.162354,-0.692871,0.667053
1470243765702679,-0.220581,0.162354,-0.692871,0.667053
1470243765726200,-0.220642,0.162354,-0.692871,0.666992
1470243765748220,-0.220459,0.162231,-0.692749,0.667236
1470243765762733,-0.220337,0.162292,-0.692627,0.667419
1470243765785754,-0.220337,0.162292,-0.692444,0.667542
1470243765808274,-0.22052,0.162415,-0.692261,0.667664
1470243765822787,-0.220825,0.162659,-0.692078,0.667664
1470243765845808,-0.220886,0.162659,-0.692078,0.667664
1470243765868328,-0.220886,0.162659,-0.692078,0.667664
1470243765882840,-0.220886,0.162659,-0.692078,0.667664
1470243765905861,-0.220886,0.162659,-0.692078,0.667664
1470243765928381,-0.221008,0.162964,-0.692017,0.667603
1470243765942894,-0.221008,0.162964,-0.692017,0.667603
1470243765965914,-0.221008,0.162964,-0.692017,0.667603
1470243765995942,-0.221008,0.163025,-0.692017,0.667603
1470243766009454,-0.221008,0.163025,-0.692017,0.667603
1470243766025969,-0.221008,0.163025,-0.692017,0.667603
1470243766048489,-0.221008,0.163025,-0.692017,0.667603
1470243766069508,-0.221008,0.163025,-0.692017,0.667603
1470243766086022,-0.221069,0.163025,-0.692017,0.667603
1470243766108544,-0.221069,0.163025,-0.692017,0.667603
1470243766129562,-0.221069,0.163025,-0.692017,0.667603
1470243766146078,-0.221069,0.163025,-0.692017,0.667603
1470243766168596,-0.221069,0.163025,-0.692017,0.667603
1470243766189616,-0.22113,0.163025,-0.692017,0.667603
1470243766206130,-0.22113,0.163025,-0.692017,0.667603
1470243766228650,-0.221069,0.162903,-0.692078,0.667542
1470243766257176,-0.221069,0.162903,-0.692078,0.667542
1470243766266185,-0.221069,0.162903,-0.692078,0.667542
1470243766288207,-0.221008,0.162903,-0.692078,0.667542
1470243766309724,-0.221069,0.162842,-0.692078,0.667542
1470243766326238,-0.221069,0.162842,-0.692078,0.667542
1470243766348258,-0.221069,0.162842,-0.692078,0.667542
1470243766369276,-0.221069,0.162842,-0.692078,0.667542
1470243766385792,-0.221069,0.162842,-0.692078,0.667542
1470243766408312,-0.221069,0.162903,-0.692078,0.667542
1470243766429330,-0.221069,0.162903,-0.692078,0.667542
1470243766445845,-0.221069,0.162903,-0.692078,0.667542
1470243766468368,-0.221252,0.163086,-0.692078,0.667419
1470243766490886,-0.221436,0.16333,-0.692017,0.667358
1470243766505900,-0.221436,0.16333,-0.692017,0.667358
1470243766535927,-0.221313,0.163513,-0.692078,0.667358
1470243766550940,-0.22113,0.163574,-0.692139,0.667297
1470243766565956,-0.220642,0.163757,-0.692322,0.667236
1470243766588476,-0.220154,0.163879,-0.692505,0.667175
1470243766610994,-0.220032,0.164307,-0.692627,0.666931
1470243766625507,-0.220154,0.164673,-0.692566,0.66687
1470243766648528,-0.220703,0.1651,-0.692383,0.666809
1470243766671049,-0.22113,0.16571,-0.6922,0.666687
1470243766685061,-0.221313,0.166321,-0.692139,0.666565
1470243766708581,-0.221313,0.166687,-0.6922,0.666382
1470243766731102,-0.221558,0.167114,-0.692261,0.666199
1470243766745115,-0.221924,0.167786,-0.6922,0.665955
1470243766768636,-0.222168,0.168152,-0.6922,0.665771
1470243766791156,-0.222412,0.168457,-0.692139,0.665649
1470243766805169,-0.222412,0.168457,-0.692139,0.665649
1470243766828190,-0.222412,0.168457,-0.692139,0.665649
1470243766850709,-0.222412,0.168518,-0.692139,0.665649
1470243766865222,-0.222412,0.168518,-0.692139,0.665649
1470243766888743,-0.222412,0.168518,-0.692139,0.665649
1470243766910763,-0.222412,0.168457,-0.692139,0.665649
1470243766925279,-0.222351,0.168518,-0.692139,0.665649
1470243766948297,-0.222351,0.168518,-0.692139,0.665649
1470243766971318,-0.222168,0.168518,-0.692139,0.66571
1470243766991838,-0.221924,0.168457,-0.692261,0.66571
1470243767008352,-0.221924,0.168457,-0.692261,0.66571
1470243767030871,-0.221924,0.168518,-0.692261,0.66571
1470243767051889,-0.221924,0.168396,-0.692139,0.665833
1470243767068405,-0.22168,0.167847,-0.6922,0.666016
1470243767090925,-0.22113,0.167236,-0.692383,0.666138
1470243767111943,-0.22052,0.166931,-0.692505,0.666321
1470243767128459,-0.220337,0.16687,-0.692444,0.666443
1470243767150979,-0.220215,0.166809,-0.692505,0.666443
1470243767171999,-0.220215,0.166809,-0.692505,0.666443
1470243767188513,-0.21991,0.166748,-0.692505,0.666565
1470243767211034,-0.219604,0.166565,-0.692505,0.666687
1470243767232052,-0.218994,0.16626,-0.692566,0.66687
1470243767248067,-0.218384,0.166016,-0.692627,0.667114
1470243767271088,-0.217712,0.165955,-0.692688,0.667236
1470243767292105,-0.217102,0.166016,-0.69281,0.667358
1470243767308620,-0.216675,0.166199,-0.692749,0.66748
1470243767331140,-0.216675,0.166199,-0.692749,0.66748
1470243767352159,-0.21637,0.16626,-0.69281,0.66748
1470243767368174,-0.215942,0.166016,-0.692871,0.667603
1470243767391695,-0.215576,0.165771,-0.692932,0.667786
1470243767413715,-0.215393,0.165588,-0.692871,0.667908
1470243767428227,-0.215149,0.165527,-0.692749,0.668091
1470243767450748,-0.214905,0.165405,-0.692688,0.668335
1470243767473768,-0.214783,0.165283,-0.692566,0.668518
1470243767487783,-0.2146,0.165039,-0.692444,0.668762
1470243767510803,-0.214417,0.164856,-0.692322,0.669006
1470243767533322,-0.214233,0.164551,-0.6922,0.669189
1470243767548336,-0.21405,0.164124,-0.692078,0.669495
1470243767570857,-0.213684,0.163513,-0.692078,0.6698
1470243767593375,-0.213318,0.163025,-0.692139,0.669983
1470243767607890,-0.213135,0.162964,-0.6922,0.669983
1470243767630909,-0.213135,0.162964,-0.6922,0.669983
1470243767653430,-0.213196,0.162781,-0.692017,0.670166
1470243767667943,-0.213196,0.162476,-0.691956,0.670349
1470243767690963,-0.212952,0.16217,-0.691956,0.670532
1470243767713484,-0.212646,0.161926,-0.691895,0.670715
1470243767727997,-0.212646,0.161926,-0.691895,0.670715
1470243767751018,-0.21283,0.16217,-0.691711,0.670776
1470243767773538,-0.21283,0.162231,-0.69165,0.670776
1470243767788052,-0.212524,0.162048,-0.69165,0.670959
1470243767811071,-0.212219,0.161926,-0.69165,0.671082
1470243767833591,-0.211853,0.161682,-0.691711,0.671204
1470243767854612,-0.211487,0.16156,-0.691711,0.671326
1470243767871125,-0.211487,0.161499,-0.691711,0.671326
1470243767893645,-0.211548,0.161499,-0.691711,0.671326
1470243767914668,-0.211426,0.161316,-0.691711,0.671387
1470243767930680,-0.211365,0.161133,-0.691772,0.671448
1470243767953701,-0.211365,0.161133,-0.691772,0.671448
1470243767974718,-0.211365,0.161133,-0.691772,0.671448
1470243767990735,-0.211365,0.161133,-0.691772,0.671448
1470243768013253,-0.211243,0.161011,-0.691711,0.671509
1470243768034272,-0.211121,0.160889,-0.691711,0.671631
1470243768050786,-0.21106,0.160706,-0.69165,0.671753
1470243768073307,-0.21106,0.160706,-0.69165,0.671753
1470243768094326,-0.210754,0.160522,-0.691711,0.671814
1470243768110842,-0.210754,0.160522,-0.691711,0.671814
1470243768133361,-0.210754,0.160522,-0.691711,0.671814
1470243768154881,-0.210754,0.160522,-0.691711,0.671814
1470243768170896,-0.210693,0.160583,-0.691711,0.671814
1470243768193414,-0.210754,0.160583,-0.691711,0.671814
1470243768214434,-0.210388,0.160339,-0.691833,0.671875
1470243768230949,-0.210022,0.160339,-0.692017,0.671753
1470243768253972,-0.210083,0.160583,-0.692078,0.671631
1470243768275989,-0.210266,0.160828,-0.692139,0.671448
1470243768291003,-0.210327,0.161194,-0.692139,0.671326
1470243768313523,-0.210266,0.161377,-0.692322,0.671143
1470243768319028,-0.210205,0.161499,-0.692444,0.671021
1470243768341547,-0.210144,0.161438,-0.692627,0.670837
1470243768356561,-0.210083,0.161682,-0.692749,0.670715
1470243768379082,-0.210022,0.161682,-0.692993,0.670471
1470243768401101,-0.210083,0.161926,-0.693176,0.670227
1470243768416114,-0.210266,0.16217,-0.693237,0.670044
1470243768438637,-0.210571,0.162231,-0.693115,0.669983
1470243768461156,-0.21106,0.162292,-0.692932,0.670105
1470243768476668,-0.21167,0.162781,-0.692627,0.670044
1470243768498690,-0.211975,0.163086,-0.692566,0.669922
1470243768521709,-0.211975,0.163452,-0.692505,0.669922
1470243768536723,-0.211975,0.163452,-0.692505,0.669922
1470243768559243,-0.212158,0.163696,-0.692444,0.669861
1470243768581263,-0.21228,0.16394,-0.692383,0.669861
1470243768596278,-0.21228,0.164124,-0.692383,0.6698
1470243768629307,-0.21228,0.164185,-0.692383,0.6698
1470243768641317,-0.21228,0.164124,-0.692383,0.6698
1470243768656330,-0.212463,0.164368,-0.6922,0.669861
1470243768678851,-0.212524,0.164368,-0.692078,0.669983
1470243768701370,-0.212524,0.164368,-0.692078,0.669983
1470243768716384,-0.212341,0.164612,-0.692139,0.669922
1470243768738905,-0.212036,0.165039,-0.692017,0.669983
1470243768761424,-0.212219,0.165344,-0.691711,0.670166
1470243768777939,-0.212891,0.165588,-0.691406,0.670227
1470243768798959,-0.21344,0.165649,-0.691223,0.670227
1470243768821479,-0.213623,0.165894,-0.69104,0.670288
1470243768836491,-0.213745,0.166382,-0.690857,0.670288
1470243768859011,-0.213745,0.166687,-0.690735,0.67041
1470243768881532,-0.213318,0.166748,-0.690613,0.670654
1470243768896545,-0.213257,0.166748,-0.690613,0.670654
1470243768919066,-0.213135,0.166992,-0.690613,0.670654
1470243768941586,-0.213074,0.167175,-0.690613,0.670593
1470243768957601,-0.212891,0.167297,-0.690613,0.670654
1470243768979123,-0.213074,0.167175,-0.690369,0.670898
1470243769001140,-0.21344,0.166687,-0.690063,0.671143
1470243769017655,-0.213562,0.165894,-0.690002,0.671387
1470243769039174,-0.213379,0.164917,-0.690002,0.671692
1470243769061694,-0.213684,0.164368,-0.689758,0.671997
1470243769077708,-0.214722,0.164185,-0.689331,0.672119
1470243769098728,-0.215942,0.163452,-0.688904,0.672363
1470243769121749,-0.217102,0.162537,-0.688416,0.672668
1470243769137764,-0.217468,0.161987,-0.688049,0.673096
1470243769158782,-0.217529,0.161865,-0.687561,0.673645
1470243769181302,-0.217712,0.161865,-0.687012,0.674072
1470243769197817,-0.217468,0.16156,-0.686707,0.674561
1470243769218836,-0.216736,0.161072,-0.68634,0.675293
1470243769241356,-0.21637,0.160706,-0.685669,0.676208
1470243769259372,-0.216797,0.160645,-0.684875,0.67688
1470243769278889,-0.21698,0.160278,-0.684143,0.677612
1470243769308917,-0.216797,0.159668,-0.683411,0.678589
1470243769319426,-0.216248,0.15863,-0.6828,0.679565
1470243769338943,-0.215881,0.157593,-0.682251,0.680481
1470243769361463,-0.215637,0.156433,-0.681641,0.681458
1470243769379479,-0.214905,0.154907,-0.681213,0.682495
1470243769398996,-0.214417,0.15387,-0.680603,0.683472
1470243769421519,-0.214233,0.153137,-0.679871,0.684387
1470243769439533,-0.213928,0.152283,-0.679077,0.685486
1470243769459050,-0.21344,0.151306,-0.678406,0.686523
1470243769481571,-0.212891,0.150269,-0.677979,0.687378
1470243769499087,-0.21228,0.149536,-0.677429,0.688232
1470243769518605,-0.212097,0.149231,-0.676697,0.689087
1470243769541625,-0.211914,0.14917,-0.676086,0.689697
1470243769559140,-0.211853,0.149353,-0.675354,0.69043
1470243769578659,-0.211548,0.149414,-0.674744,0.691101
1470243769601178,-0.211426,0.149475,-0.674194,0.691711
1470243769619195,-0.211304,0.149414,-0.673462,0.692444
1470243769639215,-0.211243,0.14917,-0.672852,0.693115
1470243769661233,-0.211243,0.148621,-0.672241,0.693848
1470243769679249,-0.211365,0.147583,-0.671814,0.694397
1470243769698767,-0.211426,0.14624,-0.671509,0.695007
1470243769721288,-0.211731,0.144653,-0.671143,0.695618
1470243769739305,-0.212891,0.143127,-0.670715,0.695923
1470243769758821,-0.214172,0.141602,-0.67041,0.696167
1470243769781340,-0.215149,0.140625,-0.6698,0.696655
1470243769799356,-0.215698,0.139648,-0.66925,0.697205
1470243769818874,-0.215942,0.138855,-0.668579,0.697937
1470243769841894,-0.216431,0.138367,-0.667664,0.69873
1470243769866917,-0.21698,0.138123,-0.666748,0.699463
1470243769878928,-0.21698,0.137756,-0.665955,0.700317
1470243769901448,-0.217041,0.137695,-0.665161,0.70105
1470243769919465,-0.217163,0.138062,-0.664429,0.70166
1470243769940484,-0.217346,0.138916,-0.663818,0.702026
1470243769961502,-0.217529,0.140015,-0.66333,0.702148
1470243769979518,-0.217346,0.141479,-0.662964,0.702271
1470243770007545,-0.216797,0.143066,-0.662659,0.702454
1470243770022058,-0.216492,0.14447,-0.662292,0.702637
1470243770040073,-0.216125,0.145508,-0.661926,0.70282
1470243770060591,-0.215576,0.146179,-0.661865,0.702942
1470243770081609,-0.215088,0.146973,-0.661743,0.703064
1470243770099127,-0.215088,0.147705,-0.661377,0.703247
1470243770120646,-0.215149,0.148376,-0.660767,0.703613
1470243770141665,-0.214966,0.148804,-0.660156,0.704102
1470243770159179,-0.214478,0.148865,-0.659424,0.705017
1470243770180199,-0.214172,0.148865,-0.658508,0.705933
1470243770201218,-0.21405,0.149048,-0.65741,0.70697
1470243770219734,-0.213989,0.149109,-0.656372,0.707947
1470243770241754,-0.213623,0.149231,-0.655212,0.709106
1470243770261271,-0.213318,0.149475,-0.654114,0.710144
1470243770279288,-0.213257,0.149719,-0.653015,0.711121
1470243770301808,-0.213257,0.149902,-0.651917,0.712036
1470243770321326,-0.213013,0.150208,-0.65094,0.713013
1470243770339344,-0.212952,0.150635,-0.649963,0.713806
1470243770369370,-0.213013,0.151245,-0.649048,0.714478
1470243770381380,-0.213074,0.151917,-0.648132,0.715149
1470243770399396,-0.213074,0.152588,-0.647339,0.715698
1470243770421917,-0.212891,0.153137,-0.646606,0.716309
1470243770441432,-0.212585,0.153564,-0.646057,0.716797
1470243770459450,-0.212646,0.154175,-0.645508,0.717163
1470243770481970,-0.213074,0.15509,-0.644958,0.717346
1470243770501486,-0.213562,0.156189,-0.644348,0.717468
1470243770519503,-0.213989,0.157288,-0.64386,0.71759
1470243770541523,-0.21405,0.158142,-0.643494,0.717712
1470243770561540,-0.213806,0.158936,-0.643311,0.717773
1470243770579056,-0.213867,0.1604,-0.643066,0.717651
1470243770601577,-0.21405,0.162048,-0.642883,0.717346
1470243770621595,-0.213989,0.163757,-0.642883,0.717041
1470243770639611,-0.213684,0.165527,-0.642883,0.716736
1470243770669137,-0.212952,0.166992,-0.643005,0.716431
1470243770681648,-0.212219,0.168335,-0.643311,0.716064
1470243770699165,-0.211914,0.169922,-0.643738,0.715393
1470243770722187,-0.211853,0.171326,-0.644226,0.714661
1470243770741702,-0.211853,0.172058,-0.644775,0.713989
1470243770759220,-0.21167,0.172668,-0.644958,0.713745
1470243770786253,-0.211182,0.172974,-0.645203,0.713623
1470243770801268,-0.211121,0.173645,-0.645386,0.713257
1470243770818282,-0.211731,0.174805,-0.64563,0.712585
1470243770847308,-0.211975,0.175903,-0.645813,0.712097
1470243770862321,-0.212158,0.176697,-0.646057,0.711609
1470243770878337,-0.21228,0.177124,-0.646179,0.711304
1470243770900857,-0.212219,0.177307,-0.64624,0.711304
1470243770922376,-0.212219,0.177429,-0.646118,0.711304
1470243770938391,-0.212219,0.177551,-0.646118,0.711365
1470243770960910,-0.212708,0.177734,-0.645874,0.711365
1470243770981928,-0.213379,0.177979,-0.645142,0.711731
1470243770998445,-0.213928,0.177673,-0.644409,0.712341
1470243771020966,-0.214722,0.17749,-0.643738,0.712769
1470243771042483,-0.215515,0.177795,-0.64325,0.712891
1470243771058500,-0.216064,0.178345,-0.642822,0.712952
1470243771081017,-0.21637,0.178955,-0.642578,0.712952
1470243771102037,-0.216919,0.179688,-0.642517,0.712585
1470243771118552,-0.217285,0.180298,-0.6427,0.712219
1470243771141073,-0.217346,0.180847,-0.643005,0.711731
1470243771162091,-0.217529,0.181335,-0.643433,0.711182
1470243771178605,-0.217896,0.181763,-0.643799,0.710632
1470243771201126,-0.218506,0.181824,-0.644165,0.710083
1470243771223146,-0.219177,0.181396,-0.644531,0.709656
1470243771239662,-0.219482,0.180786,-0.644531,0.709778
1470243771261180,-0.219604,0.179626,-0.644531,0.709961
1470243771283699,-0.21991,0.178589,-0.64447,0.710266
1470243771298213,-0.220215,0.177429,-0.644104,0.710693
1470243771321235,-0.220459,0.176208,-0.64386,0.711182
1470243771343753,-0.220886,0.175537,-0.643433,0.711609
1470243771357767,-0.220825,0.175293,-0.642944,0.712158
1470243771381288,-0.220276,0.17511,-0.642822,0.712463
1470243771403808,-0.220215,0.175232,-0.643066,0.712219
1470243771417821,-0.220032,0.175171,-0.643494,0.711914
1470243771440841,-0.219421,0.174805,-0.643738,0.711975
1470243771463361,-0.21936,0.174805,-0.643738,0.711975
1470243771477874,-0.219788,0.175537,-0.643738,0.71167
1470243771500895,-0.220398,0.176025,-0.643616,0.711487
1470243771523416,-0.220642,0.175964,-0.643433,0.711548
1470243771538429,-0.220947,0.175537,-0.643372,0.71167
1470243771560950,-0.221191,0.174683,-0.643311,0.711853
1470243771583969,-0.221313,0.17334,-0.643188,0.712219
1470243771597982,-0.221741,0.172119,-0.642944,0.712646
1470243771621003,-0.22229,0.171326,-0.642517,0.713013
1470243771643523,-0.223022,0.170837,-0.64209,0.713318
1470243771658037,-0.223999,0.170532,-0.641357,0.713745
1470243771681057,-0.225098,0.170166,-0.640503,0.714233
1470243771703577,-0.225708,0.169739,-0.639648,0.714905
1470243771724597,-0.225769,0.169128,-0.638794,0.71582
1470243771741111,-0.225403,0.168396,-0.637756,0.717041
1470243771763631,-0.224915,0.167969,-0.636597,0.718323
1470243771784650,-0.224304,0.167664,-0.635254,0.719727
1470243771808672,-0.223816,0.167786,-0.63385,0.721069
1470243771823686,-0.223145,0.167847,-0.632629,0.722412
1470243771844703,-0.222412,0.168152,-0.63147,0.723511
1470243771861219,-0.221924,0.168823,-0.630493,0.724365
1470243771883739,-0.221558,0.169617,-0.629761,0.724976
1470243771904757,-0.221619,0.170654,-0.629028,0.725342
1470243771921274,-0.221619,0.171448,-0.628601,0.725525
1470243771943292,-0.221436,0.172119,-0.628357,0.725586
1470243771964811,-0.221558,0.172974,-0.628235,0.725464
1470243771980827,-0.221802,0.173828,-0.628357,0.725098
1470243772004349,-0.222473,0.174683,-0.628479,0.724548
1470243772024867,-0.223206,0.175537,-0.628418,0.724182
1470243772041380,-0.223877,0.176331,-0.62854,0.723694
1470243772071409,-0.223938,0.177002,-0.628723,0.723328
1470243772084420,-0.223999,0.177551,-0.628906,0.723022
1470243772100934,-0.224487,0.17804,-0.629089,0.722595
1470243772123455,-0.225403,0.178528,-0.629272,0.722046
1470243772145974,-0.226074,0.178589,-0.629639,0.721497
1470243772160988,-0.227722,0.179077,-0.629761,0.720764
1470243772183508,-0.229614,0.179626,-0.630005,0.719788
1470243772206029,-0.231628,0.180725,-0.630249,0.718628
1470243772220542,-0.234375,0.182678,-0.629883,0.71759
1470243772243563,-0.237915,0.184814,-0.629211,0.716492
1470243772266082,-0.241699,0.186584,-0.628479,0.715393
1470243772287102,-0.244568,0.187683,-0.62793,0.7146
1470243772303115,-0.245544,0.187927,-0.628113,0.71405
1470243772326136,-0.245422,0.187866,-0.628418,0.713806
1470243772347155,-0.245239,0.187866,-0.628601,0.713745
1470243772364171,-0.245178,0.187927,-0.628601,0.713745
1470243772386191,-0.245117,0.187683,-0.628601,0.713867
1470243772400202,-0.244873,0.187256,-0.628784,0.713867
1470243772423723,-0.244629,0.186829,-0.62915,0.713745
1470243772446744,-0.244629,0.186829,-0.629333,0.713562
1470243772460257,-0.244629,0.186768,-0.629333,0.713562
1470243772483277,-0.244507,0.186707,-0.629211,0.713745
1470243772506298,-0.244568,0.186707,-0.628906,0.713989
1470243772528317,-0.244568,0.186646,-0.628601,0.714294
1470243772543331,-0.244446,0.186829,-0.628235,0.7146
1470243772565851,-0.244202,0.18689,-0.627808,0.715088
1470243772580364,-0.244019,0.18689,-0.627319,0.715576
1470243772603385,-0.243713,0.186768,-0.626831,0.716125
1470243772626406,-0.243286,0.186707,-0.626221,0.716797
1470243772648426,-0.242554,0.186646,-0.625549,0.717651
1470243772671448,-0.241516,0.186523,-0.624939,0.718567
1470243772685959,-0.240723,0.186768,-0.624146,0.719421
1470243772708480,-0.240051,0.18689,-0.623474,0.720276
1470243772723493,-0.239624,0.18689,-0.622925,0.720886
1470243772746014,-0.23938,0.187073,-0.622498,0.721252
1470243772767032,-0.239319,0.187317,-0.622131,0.721558
1470243772783547,-0.239502,0.187378,-0.622009,0.721558
1470243772806068,-0.239746,0.187134,-0.622253,0.721313
1470243772834594,-0.240112,0.186707,-0.622681,0.720947
1470243772843601,-0.241272,0.186462,-0.622925,0.720398
1470243772866124,-0.242615,0.186157,-0.623108,0.719849
1470243772888141,-0.243408,0.185547,-0.623474,0.719482
1470243772903655,-0.243347,0.184692,-0.624023,0.719177
1470243772926175,-0.242371,0.183533,-0.624634,0.719299
1470243772947193,-0.241089,0.182373,-0.625,0.719727
1470243772963708,-0.239929,0.181335,-0.625061,0.720276
1470243772986229,-0.238647,0.180176,-0.625183,0.720947
1470243773007247,-0.237305,0.179199,-0.625244,0.721558
1470243773023762,-0.235901,0.178101,-0.625183,0.722351
1470243773046283,-0.235291,0.177612,-0.625061,0.722778
1470243773067301,-0.235413,0.177246,-0.625061,0.722839
1470243773083818,-0.235962,0.176758,-0.625366,0.722534
1470243773106337,-0.237061,0.176819,-0.625732,0.721802
1470243773128357,-0.238159,0.177063,-0.626038,0.72113
1470243773149875,-0.238831,0.177307,-0.626465,0.720459
1470243773165890,-0.239319,0.177856,-0.627014,0.719727
1470243773188411,-0.239258,0.17804,-0.627869,0.718933
1470243773203424,-0.238708,0.17865,-0.628845,0.718079
1470243773225944,-0.238037,0.179138,-0.629883,0.717285
1470243773248464,-0.237061,0.179443,-0.631104,0.716431
1470243773262977,-0.236206,0.17981,-0.632568,0.715332
1470243773285998,-0.235291,0.179871,-0.634094,0.714294
1470243773308517,-0.234924,0.179993,-0.635559,0.713074
1470243773323033,-0.235474,0.180542,-0.63678,0.71167
1470243773346053,-0.23645,0.18103,-0.637634,0.710449
1470243773368572,-0.237244,0.181274,-0.638367,0.709473
1470243773383085,-0.237305,0.180847,-0.63916,0.708862
1470243773406106,-0.236877,0.180115,-0.639832,0.708557
1470243773428627,-0.23645,0.179321,-0.640198,0.708557
1470243773442639,-0.235779,0.178528,-0.640259,0.708923
1470243773466159,-0.235168,0.177673,-0.640076,0.709534
1470243773488683,-0.23468,0.176697,-0.639771,0.710205
1470243773509699,-0.234375,0.175537,-0.639404,0.710938
1470243773526214,-0.234253,0.174744,-0.638855,0.711609
1470243773548734,-0.234436,0.173889,-0.63855,0.712097
1470243773562747,-0.234863,0.172729,-0.638428,0.71228
1470243773585767,-0.237183,0.171997,-0.638123,0.712036
1470243773608288,-0.241211,0.17218,-0.637268,0.711365
1470243773629305,-0.245422,0.173279,-0.636108,0.710693
1470243773645820,-0.248596,0.174316,-0.63501,0.710327
1470243773668341,-0.249939,0.174561,-0.634583,0.710205
1470243773689361,-0.249329,0.173584,-0.634766,0.710449
1470243773705875,-0.247925,0.172729,-0.634827,0.711121
1470243773728895,-0.24707,0.172791,-0.634399,0.711792
1470243773749415,-0.246277,0.173157,-0.633789,0.712524
1470243773765932,-0.245056,0.173767,-0.633301,0.713257
1470243773788449,-0.243774,0.1745,-0.632874,0.713867
1470243773809969,-0.242554,0.175171,-0.63269,0.714233
1470243773825982,-0.241577,0.176147,-0.63269,0.714355
1470243773848503,-0.240723,0.177002,-0.632813,0.714355
1470243773869522,-0.240295,0.178223,-0.632935,0.71405
1470243773886036,-0.240051,0.179504,-0.633057,0.713745
1470243773908557,-0.239746,0.180664,-0.63324,0.713379
1470243773929576,-0.239441,0.181824,-0.633362,0.713074
1470243773946090,-0.238892,0.182678,-0.633545,0.71283
1470243773968611,-0.238281,0.183411,-0.633728,0.712769
1470243773990130,-0.237732,0.183838,-0.633789,0.712769
1470243774006146,-0.237061,0.18396,-0.63385,0.71283
1470243774028665,-0.236511,0.183777,-0.633911,0.713013
1470243774051186,-0.236511,0.183716,-0.633972,0.713013
1470243774066198,-0.236816,0.183533,-0.633789,0.713135
1470243774088720,-0.237122,0.183289,-0.633606,0.713257
1470243774111239,-0.237488,0.183105,-0.63324,0.713501
1470243774126252,-0.237793,0.182922,-0.632935,0.713745
1470243774148773,-0.237915,0.182678,-0.632507,0.71405
1470243774171293,-0.238098,0.182678,-0.632019,0.714478
1470243774185305,-0.238098,0.1828,-0.63147,0.714966
1470243774208828,-0.237976,0.183167,-0.630737,0.715515
1470243774230846,-0.237671,0.183533,-0.629944,0.716248
1470243774245361,-0.23761,0.184143,-0.629028,0.716919
1470243774268380,-0.237671,0.185059,-0.627991,0.71759
1470243774290902,-0.237671,0.186035,-0.626953,0.718201
1470243774305417,-0.237732,0.187073,-0.625916,0.718811
1470243774328934,-0.237732,0.18811,-0.624939,0.719421
1470243774350955,-0.237854,0.189148,-0.623901,0.719971
1470243774365467,-0.238403,0.190308,-0.622742,0.72052
1470243774388490,-0.239319,0.191406,-0.621521,0.720947
1470243774411009,-0.240173,0.192444,-0.620422,0.721375
1470243774432028,-0.240967,0.193237,-0.619385,0.721802
1470243774448541,-0.24176,0.193848,-0.618408,0.722168
1470243774471563,-0.24231,0.194397,-0.617493,0.722656
1470243774485575,-0.243225,0.195007,-0.616394,0.723145
1470243774508595,-0.24469,0.195923,-0.615112,0.72345
1470243774531116,-0.247742,0.197205,-0.613708,0.723267
1470243774552134,-0.251892,0.198425,-0.612732,0.72229
1470243774568650,-0.255615,0.199768,-0.611938,0.721313
1470243774591170,-0.258301,0.201172,-0.611267,0.72052
1470243774612188,-0.259705,0.202942,-0.610474,0.720215
1470243774628704,-0.259216,0.204773,-0.610107,0.720154
1470243774651223,-0.256836,0.206299,-0.610596,0.720154
1470243774672744,-0.254211,0.207458,-0.611511,0.719971
1470243774688759,-0.253113,0.208984,-0.61261,0.718994
1470243774711277,-0.253479,0.210571,-0.61377,0.717407
1470243774732297,-0.255615,0.211731,-0.615051,0.715271
1470243774748812,-0.260193,0.21228,-0.616089,0.712524
1470243774770832,-0.269409,0.21228,-0.615845,0.70929
1470243774792350,-0.28241,0.212524,-0.615051,0.704834
1470243774807864,-0.296082,0.212952,-0.615295,0.698853
1470243774830886,-0.304871,0.21167,-0.617676,0.693359
1470243774851904,-0.311218,0.20929,-0.621826,0.6875
1470243774867919,-0.314331,0.205933,-0.628052,0.681396
1470243774896944,-0.315674,0.201172,-0.636353,0.6745
1470243774911959,-0.317505,0.197937,-0.645935,0.665405
1470243774927972,-0.318481,0.195251,-0.657349,0.65448
1470243774950993,-0.317444,0.192688,-0.670837,0.641907
1470243774972514,-0.312805,0.190063,-0.685791,0.629089
1470243774988028,-0.304749,0.188538,-0.702332,0.615112
1470243775011047,-0.29303,0.1875,-0.721741,0.59845
1470243775033567,-0.27533,0.184387,-0.744568,0.579468
1470243775048080,-0.252869,0.17926,-0.768982,0.559082
1470243775072103,-0.22998,0.173767,-0.792358,0.53772
1470243775093621,-0.207336,0.167786,-0.813904,0.516113
1470243775116141,-0.186096,0.161072,-0.833313,0.494995
1470243775130654,-0.168091,0.153748,-0.850342,0.474365
1470243775153675,-0.153931,0.145691,-0.86499,0.454834
1470243775174693,-0.143738,0.136475,-0.877014,0.437683
1470243775191209,-0.138,0.129822,-0.885986,0.423218
1470243775213729,-0.13623,0.123901,-0.8927,0.411377
1470243775234747,-0.134277,0.115479,-0.896912,0.405151
1470243775252263,-0.131958,0.105652,-0.899109,0.403809
1470243775273783,-0.131104,0.0975342,-0.899658,0.404846
1470243775294802,-0.132141,0.0905151,-0.899109,0.407349
1470243775310816,-0.135986,0.0862427,-0.897766,0.410095
1470243775333837,-0.140137,0.0847168,-0.896118,0.412537
1470243775354857,-0.142578,0.083252,-0.894714,0.4151
1470243775385884,-0.143372,0.0805054,-0.893982,0.41687
1470243775393390,-0.144653,0.0799561,-0.893372,0.417908
1470243775414909,-0.146912,0.0844727,-0.892639,0.417664
1470243775430923,-0.148315,0.09198,-0.891785,0.417542
1470243775453444,-0.147644,0.0996704,-0.891357,0.41687
1470243775474963,-0.146118,0.107422,-0.890747,0.416809
1470243775498485,-0.146057,0.115417,-0.889526,0.417236
1470243775513498,-0.146301,0.121216,-0.887878,0.419128
1470243775534519,-0.146973,0.126587,-0.885559,0.42218
1470243775551032,-0.147156,0.131104,-0.882874,0.426331
1470243775581058,-0.146423,0.134216,-0.879944,0.431519
1470243775594570,-0.145325,0.135498,-0.877075,0.437378
1470243775611085,-0.144775,0.136414,-0.874023,0.443359
1470243775633605,-0.144531,0.137756,-0.87085,0.44928
1470243775654626,-0.144775,0.139099,-0.867615,0.454956
1470243775671141,-0.145813,0.140198,-0.864685,0.459839
1470243775693660,-0.146484,0.140198,-0.862427,0.463806
1470243775714679,-0.147095,0.139282,-0.860596,0.467285
1470243775730192,-0.148682,0.138489,-0.859009,0.469971
1470243775753714,-0.151855,0.137878,-0.857544,0.471802
1470243775774733,-0.15564,0.136597,-0.856689,0.472473
1470243775790247,-0.15741,0.134583,-0.857056,0.471741
1470243775813767,-0.155823,0.131653,-0.858215,0.471069
1470243775834786,-0.153687,0.129639,-0.859192,0.470459
1470243775850300,-0.152649,0.130432,-0.859985,0.469177
1470243775873821,-0.151062,0.131836,-0.860901,0.46759
1470243775894840,-0.147156,0.131897,-0.862305,0.466248
1470243775910354,-0.141479,0.130188,-0.863953,0.465454
1470243775933876,-0.13562,0.127502,-0.865479,0.465088
1470243775955897,-0.130493,0.124817,-0.866821,0.464844
1470243775977414,-0.126282,0.122314,-0.867981,0.464478
1470243775999935,-0.122925,0.120056,-0.868896,0.464172
1470243776015949,-0.120483,0.118591,-0.869629,0.463867
1470243776030462,-0.118896,0.118164,-0.8703,0.463135
1470243776053483,-0.118103,0.118835,-0.870911,0.462036
1470243776076004,-0.118164,0.120911,-0.871399,0.460571
1470243776081510,-0.118652,0.124023,-0.871765,0.458862
1470243776098023,-0.119141,0.127502,-0.872314,0.456787
1470243776119042,-0.119202,0.130859,-0.873169,0.454163
1470243776141562,-0.118652,0.134155,-0.87439,0.45105
1470243776159578,-0.117859,0.137939,-0.875732,0.447449
1470243776179095,-0.117065,0.142639,-0.877136,0.443359
1470243776201615,-0.116699,0.148621,-0.878479,0.438843
1470243776219632,-0.116394,0.155029,-0.879639,0.434387
1470243776239652,-0.115234,0.160339,-0.88092,0.430176
1470243776261669,-0.113098,0.164429,-0.882324,0.42627
1470243776279686,-0.110168,0.167603,-0.883911,0.422485
1470243776299203,-0.107544,0.170898,-0.885193,0.419128
1470243776321724,-0.105774,0.174744,-0.885925,0.416443
1470243776339740,-0.10437,0.178223,-0.886414,0.414368
1470243776358757,-0.103027,0.180664,-0.88678,0.412781
1470243776381276,-0.101746,0.182007,-0.887207,0.41156
1470243776399294,-0.100525,0.182434,-0.887512,0.411011
1470243776419311,-0.0997314,0.182312,-0.887695,0.41095
1470243776441331,-0.0994263,0.182007,-0.887512,0.411499
1470243776459847,-0.0995483,0.181335,-0.887268,0.412354
1470243776478865,-0.0998535,0.180542,-0.886902,0.413391
1470243776501387,-0.100403,0.179688,-0.886414,0.414551
1470243776517899,-0.101074,0.178894,-0.885986,0.415771
1470243776538922,-0.101685,0.178223,-0.885498,0.416992
1470243776561447,-0.102417,0.177734,-0.88501,0.41803
1470243776577954,-0.103027,0.177368,-0.884521,0.418945
1470243776598973,-0.103577,0.177002,-0.884155,0.419739
1470243776621494,-0.104065,0.176819,-0.883911,0.420288
1470243776638511,-0.104553,0.177063,-0.883667,0.420532
1470243776659027,-0.10498,0.17749,-0.883484,0.420593
1470243776681546,-0.105225,0.177917,-0.883484,0.420471
1470243776698061,-0.105225,0.178345,-0.883545,0.420166
1470243776719080,-0.105103,0.178833,-0.883606,0.419739
1470243776741600,-0.105042,0.179565,-0.883667,0.419312
1470243776758116,-0.104919,0.180237,-0.883789,0.418945
1470243776779134,-0.104675,0.180786,-0.88385,0.418579
1470243776802155,-0.104553,0.181335,-0.883911,0.418213
1470243776818169,-0.104248,0.18158,-0.884094,0.417847
1470243776839188,-0.104004,0.181824,-0.884216,0.41748
1470243776861708,-0.103882,0.181946,-0.884277,0.417297
1470243776879224,-0.103821,0.181885,-0.884277,0.417297
1470243776898742,-0.103821,0.181885,-0.884338,0.417297
1470243776922765,-0.103943,0.181946,-0.884277,0.417358
1470243776939278,-0.104126,0.181946,-0.884216,0.417419
1470243776959296,-0.104248,0.181885,-0.884155,0.41748
1470243776981315,-0.104431,0.181885,-0.884155,0.417542
1470243777005338,-0.104614,0.181885,-0.884094,0.417603
1470243777018849,-0.104614,0.181885,-0.884094,0.417603
1470243777041372,-0.104614,0.181885,-0.884094,0.417603
1470243777059386,-0.104614,0.181946,-0.884094,0.417603
1470243777078904,-0.104614,0.181946,-0.884094,0.417603
1470243777101424,-0.104614,0.181946,-0.884033,0.417603
1470243777119440,-0.104675,0.182068,-0.884094,0.417542
1470243777138958,-0.104797,0.182251,-0.884094,0.417419
1470243777161478,-0.104919,0.182373,-0.884094,0.417297
1470243777179494,-0.104919,0.182373,-0.884094,0.417297
1470243777199011,-0.104919,0.182373,-0.884094,0.417297
1470243777222033,-0.104919,0.182373,-0.884094,0.417297
1470243777239548,-0.104919,0.182373,-0.884094,0.417297
1470243777259067,-0.104919,0.182678,-0.884033,0.417236
1470243777281585,-0.105042,0.183105,-0.883972,0.417236
1470243777299603,-0.105103,0.18335,-0.883911,0.417297
1470243777319120,-0.105103,0.183289,-0.883911,0.417297
1470243777341639,-0.105103,0.183289,-0.883911,0.417297
1470243777359155,-0.105042,0.183289,-0.883911,0.417297
1470243777379173,-0.105103,0.18335,-0.883911,0.417297
1470243777401693,-0.105103,0.18335,-0.88385,0.417297
1470243777420210,-0.104919,0.183289,-0.88385,0.417358
1470243777439227,-0.104919,0.183289,-0.88385,0.417419
1470243777461747,-0.104858,0.183289,-0.88385,0.417419
1470243777479763,-0.104919,0.183472,-0.88385,0.417419
1470243777500282,-0.104919,0.183472,-0.883789,0.417419
1470243777521801,-0.104919,0.183533,-0.883789,0.417419
1470243777539817,-0.104858,0.183167,-0.883911,0.417358
1470243777560335,-0.104858,0.183167,-0.883911,0.417358
1470243777581354,-0.104858,0.183167,-0.883911,0.417358
1470243777599371,-0.104858,0.183167,-0.883911,0.417358
1470243777620390,-0.104858,0.183167,-0.883911,0.417358
1470243777641408,-0.104797,0.182861,-0.883972,0.417419
1470243777659424,-0.104736,0.182678,-0.883972,0.417419
1470243777680443,-0.104736,0.182373,-0.884033,0.417419
1470243777701462,-0.104736,0.18219,-0.884094,0.41748
1470243777719478,-0.104736,0.182251,-0.884033,0.41748
1470243777740499,-0.104736,0.182251,-0.884033,0.41748
1470243777761516,-0.104736,0.182251,-0.884033,0.41748
1470243777779533,-0.104736,0.182251,-0.884033,0.41748
1470243777800552,-0.104736,0.182251,-0.884033,0.41748
1470243777822072,-0.10498,0.18219,-0.884094,0.417358
1470243777839587,-0.105103,0.18219,-0.884094,0.417297
1470243777862106,-0.105286,0.182129,-0.884155,0.417175
1470243777881624,-0.105591,0.182068,-0.884216,0.416992
1470243777899140,-0.105713,0.182007,-0.884277,0.41687
1470243777922162,-0.105896,0.181885,-0.884338,0.416748
1470243777941678,-0.10614,0.181763,-0.884338,0.416687
1470243777959194,-0.106384,0.181702,-0.884399,0.416626
1470243777981714,-0.106689,0.18158,-0.884399,0.416504
1470243778001731,-0.107117,0.181519,-0.884399,0.416443
1470243778019247,-0.107971,0.181519,-0.884277,0.416565
1470243778041768,-0.110107,0.18219,-0.88385,0.416565
1470243778061786,-0.11377,0.184082,-0.882935,0.416626
1470243778079302,-0.117676,0.186768,-0.881714,0.417053
1470243778101822,-0.12262,0.189514,-0.880249,0.41748
1470243778121842,-0.127625,0.191956,-0.878784,0.417908
1470243778143860,-0.131104,0.193848,-0.877625,0.418335
1470243778161875,-0.133545,0.194885,-0.877014,0.418457
1470243778181395,-0.13562,0.195679,-0.876465,0.418457
1470243778206416,-0.138123,0.198181,-0.87561,0.418274
1470243778221935,-0.140442,0.200928,-0.874634,0.418274
1470243778241448,-0.141846,0.202698,-0.873962,0.418335
1470243778259463,-0.142151,0.203308,-0.873962,0.417969
1470243778281983,-0.142273,0.203674,-0.874207,0.417175
1470243778301500,-0.142822,0.205017,-0.874207,0.416321
1470243778319517,-0.143799,0.207153,-0.873718,0.415955
1470243778342038,-0.144775,0.210083,-0.872925,0.415894
1470243778361556,-0.145264,0.21405,-0.871704,0.416199
1470243778380072,-0.143921,0.217773,-0.8703,0.417664
1470243778402091,-0.141296,0.222412,-0.868591,0.419678
1470243778422111,-0.136475,0.228882,-0.866455,0.422119
1470243778445130,-0.127441,0.235413,-0.863464,0.427612
1470243778469151,-0.115601,0.242065,-0.859131,0.435913
1470243778483164,-0.102661,0.250366,-0.853088,0.446045
1470243778504182,-0.088623,0.259888,-0.846069,0.456909
1470243778522199,-0.0725708,0.268738,-0.838623,0.468262
1470243778542221,-0.0564575,0.276917,-0.830872,0.479431
1470243778559233,-0.0391235,0.286011,-0.82196,0.490967
1470243778588763,-0.0197754,0.295044,-0.812134,0.502991
1470243778602272,0.00140381,0.303589,-0.801453,0.515259
1470243778624792,0.0233765,0.311951,-0.789917,0.527405
1470243778641306,0.0453491,0.320557,-0.777649,0.538879
1470243778662324,0.0672607,0.329529,-0.764771,0.549561
1470243778692351,0.0893555,0.338013,-0.751343,0.559631
1470243778701359,0.110474,0.346497,-0.737427,0.569153
1470243778729885,0.130188,0.355774,-0.722961,0.577698
1470243778752405,0.148865,0.36615,-0.707947,0.585205
1470243778761414,0.16687,0.377197,-0.692322,0.592041
1470243778783434,0.183777,0.388855,-0.675903,0.598389
1470243778797947,0.198975,0.401733,-0.658813,0.604126
1470243778820968,0.212036,0.416138,-0.641418,0.608643
1470243778843488,0.223694,0.431519,-0.623962,0.611877
1470243778865007,0.234558,0.446777,-0.606689,0.614258
1470243778881022,0.243835,0.461304,-0.589905,0.616211
1470243778911550,0.250671,0.476074,-0.573792,0.617432
1470243778925062,0.251892,0.488037,-0.559143,0.621033
1470243778941575,0.253845,0.501831,-0.544189,0.622498
1470243778963596,0.251587,0.510559,-0.53186,0.627014
1470243778984614,0.251221,0.520508,-0.519653,0.629211
1470243779001129,0.247925,0.528809,-0.508484,0.632629
1470243779023650,0.243652,0.53595,-0.498901,0.635986
1470243779044668,0.240112,0.541382,-0.491333,0.63855
1470243779061184,0.236816,0.545776,-0.485107,0.640808
1470243779083704,0.232971,0.549255,-0.479309,0.643616
1470243779104725,0.228088,0.552124,-0.475281,0.645935
1470243779121741,0.222656,0.554565,-0.472656,0.647583
1470243779143758,0.217346,0.55658,-0.470032,0.649597
1470243779164776,0.212708,0.558044,-0.467651,0.651611
1470243779181293,0.20813,0.559204,-0.466553,0.652893
1470243779203811,0.203979,0.560242,-0.466675,0.653198
1470243779224829,0.200378,0.561279,-0.46759,0.652771
1470243779241345,0.197327,0.562073,-0.46875,0.652161
1470243779263864,0.194214,0.562744,-0.469788,0.651794
1470243779284885,0.189514,0.563477,-0.47052,0.652039
1470243779308905,0.183411,0.564697,-0.47168,0.651855
1470243779323918,0.177673,0.566101,-0.473877,0.650696
1470243779344937,0.173157,0.567322,-0.475952,0.649292
1470243779360953,0.174561,0.569336,-0.475586,0.6474
1470243779383472,0.171387,0.56958,-0.472229,0.650452
