timestamp,roll,pitch,yaw
1472133406755216,-0.322056,-0.167611,-1.16264
1472133406762723,-0.321922,-0.16735,-1.16251
1472133406785243,-0.321922,-0.16735,-1.16251
1472133406809266,-0.322098,-0.167317,-1.16252
1472133406823778,-0.322162,-0.167194,-1.16237
1472133406845297,-0.322162,-0.167194,-1.16237
1472133406868819,-0.322338,-0.167161,-1.16238
1472133406914360,-0.322338,-0.167161,-1.16238
1472133406916862,-0.322404,-0.16706,-1.1624
1472133406928873,-0.322294,-0.166992,-1.1624
1472133406946388,-0.32236,-0.166891,-1.16241
1472133406966407,-0.322427,-0.166791,-1.16242
1472133406995934,-0.322427,-0.166791,-1.16242
1472133407039973,-0.322273,-0.166553,-1.16243
1472133407049982,-0.322273,-0.166553,-1.16243
1472133407050983,-0.32234,-0.166452,-1.16245
1472133407070501,-0.32234,-0.166452,-1.16245
1472133407085013,-0.322406,-0.166351,-1.16246
1472133407107534,-0.322205,-0.166191,-1.16232
1472133407130054,-0.32174,-0.165992,-1.16219
1472133407145068,-0.321647,-0.165877,-1.16189
1472133407167588,-0.321647,-0.165877,-1.16189
1472133407190109,-0.321926,-0.165694,-1.16164
1472133407205122,-0.321239,-0.165337,-1.16134
1472133407227642,-0.320902,-0.165183,-1.16108
1472133407250163,-0.320675,-0.164807,-1.16065
1472133407266177,-0.320741,-0.164706,-1.16066
1472133407287696,-0.320556,-0.164499,-1.16022
1472133407310217,-0.32011,-0.164276,-1.15995
1472133407326232,-0.319967,-0.164217,-1.15933
1472133407347751,-0.319712,-0.163916,-1.15878
1472133407369771,-0.319548,-0.163707,-1.15836
1472133407386286,-0.319273,-0.163408,-1.15778
1472133407407305,-0.319044,-0.163033,-1.15735
1472133407429826,-0.318926,-0.162726,-1.15692
1472133407446340,-0.318629,-0.162279,-1.15655
1472133407467359,-0.318353,-0.161981,-1.15596
1472133407489879,-0.318209,-0.161481,-1.15541
1472133407506394,-0.318085,-0.160979,-1.15488
1472133407527413,-0.317765,-0.160512,-1.15432
1472133407549933,-0.317115,-0.160111,-1.15375
1472133407566448,-0.316416,-0.159787,-1.15303
1472133407587467,-0.316045,-0.159645,-1.15215
1472133407609988,-0.315719,-0.159405,-1.15126
1472133407626503,-0.315651,-0.159006,-1.15025
1472133407647522,-0.315389,-0.158932,-1.14937
1472133407670042,-0.314749,-0.158713,-1.14818
1472133407688058,-0.314441,-0.15845,-1.14715
1472133407707575,-0.314702,-0.158254,-1.14615
1472133407730096,-0.314504,-0.158059,-1.14513
1472133407747613,-0.314195,-0.157797,-1.1441
1472133407767629,-0.313999,-0.157624,-1.14324
1472133407789376,-0.31396,-0.157173,-1.14252
1472133407807392,-0.314205,-0.156754,-1.14182
1472133407827410,-0.314165,-0.156571,-1.14111
1472133407849431,-0.314321,-0.156083,-1.14044
1472133407867953,-0.314812,-0.155722,-1.13987
1472133407887691,-0.315107,-0.155247,-1.13949
1472133407909710,-0.315107,-0.155247,-1.13949
1472133407927728,-0.315282,-0.155212,-1.1395
1472133407947744,-0.315282,-0.155212,-1.1395
1472133407969771,-0.315282,-0.155212,-1.1395
1472133407987294,-0.315457,-0.155177,-1.13952
1472133408007311,-0.315457,-0.155177,-1.13952
1472133408031333,-0.315522,-0.155076,-1.13953
1472133408047348,-0.315522,-0.155076,-1.13953
1472133408070375,-0.315587,-0.154974,-1.13954
1472133408091394,-0.31565,-0.154851,-1.13939
1472133408107909,-0.31565,-0.154851,-1.13939
1472133408130342,-0.315825,-0.154816,-1.13941
1472133408151361,-0.315825,-0.154816,-1.13941
1472133408167376,-0.31589,-0.154715,-1.13942
1472133408190398,-0.31589,-0.154715,-1.13942
1472133408212923,-0.315955,-0.154613,-1.13944
1472133408232444,-0.31602,-0.154511,-1.13945
1472133408250461,-0.316085,-0.15441,-1.13946
1472133408272481,-0.316085,-0.15441,-1.13946
1472133408292498,-0.316168,-0.154284,-1.13934
1472133408310518,-0.316233,-0.154183,-1.13935
1472133408332542,-0.316343,-0.15425,-1.13935
1472133408352559,-0.316408,-0.154148,-1.13937
1472133408369575,-0.316473,-0.154046,-1.13938
1472133408392596,-0.316649,-0.154012,-1.1394
1472133408412621,-0.316649,-0.154012,-1.1394
1472133408429642,-0.316711,-0.153889,-1.13925
1472133408452665,-0.316886,-0.153854,-1.13926
1472133408472682,-0.316951,-0.153752,-1.13927
1472133408490699,-0.316951,-0.153752,-1.13927
1472133408512723,-0.317126,-0.153717,-1.13929
1472133408531746,-0.317192,-0.153616,-1.1393
1472133408549762,-0.317364,-0.15356,-1.13915
1472133408572783,-0.317364,-0.15356,-1.13915
1472133408591800,-0.317429,-0.153458,-1.13917
1472133408610326,-0.317494,-0.153356,-1.13918
1472133408632814,-0.317604,-0.153423,-1.13918
1472133408651829,-0.317669,-0.153322,-1.1392
1472133408669845,-0.317669,-0.153322,-1.1392
1472133408692866,-0.317735,-0.15322,-1.13921
1472133408712387,-0.3178,-0.153118,-1.13922
1472133408729907,-0.317907,-0.153164,-1.13906
1472133408752930,-0.317972,-0.153062,-1.13908
1472133408771959,-0.318147,-0.153027,-1.13909
1472133408789970,-0.318147,-0.153027,-1.13909
1472133408812998,-0.318213,-0.152926,-1.1391
1472133408834025,-0.318213,-0.152926,-1.1391
1472133408850037,-0.318278,-0.152824,-1.13912
1472133408873057,-0.318453,-0.15279,-1.13913
1472133408894077,-0.318453,-0.15279,-1.13913
1472133408910109,-0.318515,-0.152666,-1.13898
1472133408932168,-0.318515,-0.152666,-1.13898
1472133408954152,-0.31858,-0.152565,-1.139
1472133408970168,-0.31858,-0.152565,-1.139
1472133408992189,-0.318756,-0.15253,-1.13901
1472133409013743,-0.318756,-0.15253,-1.13901
1472133409030264,-0.318931,-0.152495,-1.13903
1472133409052282,-0.318996,-0.152394,-1.13904
1472133409074302,-0.319103,-0.152439,-1.13888
1472133409095335,-0.319168,-0.152337,-1.13889
1472133409111855,-0.319168,-0.152337,-1.13889
1472133409133986,-0.319233,-0.152236,-1.13891
1472133409155006,-0.319233,-0.152236,-1.13891
1472133409172020,-0.319299,-0.152134,-1.13892
1472133409194040,-0.319114,-0.151952,-1.13865
1472133409215609,-0.319019,-0.15184,-1.13834
1472133409231219,-0.319085,-0.151738,-1.13836
1472133409254239,-0.319085,-0.151738,-1.13836
1472133409275261,-0.319257,-0.151682,-1.13821
1472133409292273,-0.319257,-0.151682,-1.13821
1472133409314329,-0.319322,-0.15158,-1.13822
1472133409328859,-0.319432,-0.151647,-1.13823
1472133409351880,-0.319497,-0.151545,-1.13824
1472133409373900,-0.319497,-0.151545,-1.13824
1472133409394918,-0.319672,-0.151511,-1.13825
1472133409411937,-0.319672,-0.151511,-1.13825
1472133409433990,-0.319738,-0.151409,-1.13827
1472133409455011,-0.319847,-0.151476,-1.13827
1472133409472025,-0.31991,-0.151353,-1.13812
1472133409494045,-0.31991,-0.151353,-1.13812
1472133409515571,-0.320085,-0.151318,-1.13814
1472133409532102,-0.32015,-0.151216,-1.13815
1472133409554120,-0.32026,-0.151283,-1.13815
1472133409575153,-0.320325,-0.151181,-1.13816
1472133409592156,-0.320325,-0.151181,-1.13816
1472133409614680,-0.32039,-0.15108,-1.13818
1472133409635216,-0.32039,-0.15108,-1.13818
1472133409652218,-0.320563,-0.151023,-1.13803
1472133409674237,-0.320563,-0.151023,-1.13803
1472133409695270,-0.320628,-0.150922,-1.13804
1472133409712287,-0.320738,-0.150989,-1.13805
1472133409734314,-0.320803,-0.150887,-1.13806
1472133409755346,-0.320868,-0.150785,-1.13807
1472133409771349,-0.320978,-0.150852,-1.13808
1472133409794367,-0.321043,-0.150751,-1.13809
1472133409815904,-0.321043,-0.150751,-1.13809
1472133409831455,-0.321106,-0.150628,-1.13794
1472133409854443,-0.321281,-0.150593,-1.13796
1472133409875464,-0.321281,-0.150593,-1.13796
1472133409891477,-0.321346,-0.150491,-1.13797
1472133409914504,-0.321456,-0.150558,-1.13797
1472133409935542,-0.321521,-0.150456,-1.13799
1472133409951540,-0.321696,-0.150421,-1.138
1472133409974562,-0.321696,-0.150421,-1.138
1472133409995614,-0.321759,-0.150298,-1.13785
1472133410012134,-0.321824,-0.150197,-1.13787
1472133410034209,-0.321934,-0.150263,-1.13787
1472133410055258,-0.321779,-0.150028,-1.13788
1472133410072243,-0.321844,-0.149927,-1.13789
1472133410094265,-0.321844,-0.149927,-1.13789
1472133410117290,-0.322019,-0.149892,-1.13791
1472133410131810,-0.322084,-0.14979,-1.13792
1472133410153842,-0.322192,-0.149836,-1.13776
1472133410176849,-0.321927,-0.149801,-1.13777
1472133410191865,-0.321927,-0.149801,-1.13777
1472133410214420,-0.322296,-0.150126,-1.13744
1472133410236975,-0.321889,-0.150056,-1.137
1472133410250987,-0.320912,-0.150189,-1.13652
1472133410274005,-0.31971,-0.150415,-1.13572
1472133410297026,-0.318106,-0.151013,-1.13442
1472133410311617,-0.314742,-0.151578,-1.13278
1472133410334100,-0.309669,-0.152272,-1.13009
1472133410357121,-0.303119,-0.153399,-1.12613
1472133410378181,-0.296006,-0.155411,-1.12091
1472133410394154,-0.289344,-0.157956,-1.11468
1472133410417215,-0.283541,-0.160635,-1.10851
1472133410438267,-0.27957,-0.163233,-1.1018
1472133410454282,-0.276206,-0.166356,-1.09509
1472133410476334,-0.273294,-0.169013,-1.08814
1472133410498324,-0.270627,-0.172324,-1.08163
1472133410514378,-0.267809,-0.175914,-1.07626
1472133410536973,-0.265451,-0.17853,-1.07188
1472133410558021,-0.264212,-0.180435,-1.06838
1472133410574004,-0.2647,-0.181903,-1.06552
1472133410603031,-0.266475,-0.182878,-1.06355
1472133410618051,-0.26791,-0.183163,-1.06278
1472133410633601,-0.269886,-0.182993,-1.06321
1472133410656588,-0.272697,-0.182103,-1.0647
1472133410677609,-0.276797,-0.180754,-1.06725
1472133410694624,-0.281613,-0.179146,-1.07053
1472133410717185,-0.287131,-0.176891,-1.07493
1472133410738258,-0.293474,-0.174509,-1.08038
1472133410760279,-0.300245,-0.171741,-1.0868
1472133410777293,-0.307058,-0.168469,-1.09388
1472133410798314,-0.313864,-0.165132,-1.10137
1472133410814346,-0.3201,-0.161824,-1.10901
1472133410836883,-0.324983,-0.158453,-1.11629
1472133410857905,-0.328026,-0.15525,-1.12295
1472133410873920,-0.329863,-0.152347,-1.12912
1472133410896939,-0.331389,-0.149438,-1.1341
1472133410917964,-0.332192,-0.147439,-1.13808
1472133410934014,-0.331877,-0.146198,-1.14074
1472133410957034,-0.331202,-0.145447,-1.14199
1472133410978053,-0.329861,-0.145446,-1.14194
1472133410994066,-0.327945,-0.146291,-1.14073
1472133411017093,-0.32604,-0.147581,-1.1389
1472133411039117,-0.32492,-0.149007,-1.13662
1472133411054132,-0.323847,-0.150583,-1.13417
1472133411077152,-0.322782,-0.152184,-1.13189
1472133411099172,-0.321753,-0.153756,-1.13006
1472133411114202,-0.321058,-0.155017,-1.12841
1472133411137126,-0.321031,-0.156206,-1.12724
1472133411159145,-0.321715,-0.156977,-1.12672
1472133411174160,-0.322001,-0.157007,-1.12673
1472133411197181,-0.322846,-0.157072,-1.12717
1472133411219706,-0.323348,-0.157029,-1.12823
1472133411233747,-0.323787,-0.156843,-1.12944
1472133411256786,-0.324484,-0.156495,-1.13055
1472133411279789,-0.325228,-0.156071,-1.1318
1472133411293804,-0.325531,-0.155628,-1.13289
1472133411316844,-0.325722,-0.155363,-1.13382
1472133411338877,-0.325711,-0.155187,-1.13445
1472133411353891,-0.325281,-0.15516,-1.13486
1472133411376913,-0.324825,-0.155207,-1.13516
1472133411398933,-0.32489,-0.155105,-1.13517
1472133411413952,-0.32465,-0.155242,-1.13514
1472133411437142,-0.324455,-0.155547,-1.1351
1472133411459160,-0.324196,-0.155954,-1.13504
1472133411474174,-0.324019,-0.156234,-1.13487
1472133411497195,-0.324019,-0.156234,-1.13487
1472133411519751,-0.324195,-0.156199,-1.13488
1472133411540694,-0.324019,-0.156234,-1.13487
1472133411556699,-0.324019,-0.156234,-1.13487
1472133411579698,-0.324019,-0.156234,-1.13487
1472133411600746,-0.324084,-0.156132,-1.13488
1472133411617239,-0.324084,-0.156132,-1.13488
1472133411639791,-0.324195,-0.156199,-1.13488
1472133411660809,-0.324195,-0.156199,-1.13488
1472133411677825,-0.324259,-0.156097,-1.1349
1472133411698846,-0.324257,-0.156075,-1.13473
1472133411720381,-0.324257,-0.156075,-1.13473
1472133411736900,-0.324432,-0.15604,-1.13475
1472133411758920,-0.324432,-0.15604,-1.13475
1472133411780939,-0.324342,-0.155971,-1.13477
1472133411796954,-0.32434,-0.155949,-1.13461
1472133411819483,-0.32445,-0.156016,-1.13461
1472133411841005,-0.324494,-0.155917,-1.1346
1472133411857021,-0.324605,-0.155984,-1.1346
1472133411879040,-0.324605,-0.155984,-1.1346
1472133411902061,-0.324605,-0.155984,-1.1346
1472133411917079,-0.324605,-0.155984,-1.1346
1472133411939100,-0.32467,-0.155882,-1.13461
1472133411960120,-0.32467,-0.155882,-1.13461
1472133411977135,-0.324668,-0.156127,-1.13445
1472133411999155,-0.324668,-0.156127,-1.13445
1472133412022212,-0.324733,-0.156026,-1.13446
1472133412037226,-0.324731,-0.156004,-1.1343
1472133412059245,-0.324841,-0.15607,-1.1343
1472133412082266,-0.324906,-0.155969,-1.13432
1472133412097279,-0.324906,-0.155969,-1.13432
1472133412119803,-0.324906,-0.155969,-1.13432
1472133412141328,-0.325016,-0.156035,-1.13432
1472133412156342,-0.325081,-0.155934,-1.13433
1472133412179364,-0.325081,-0.155934,-1.13433
1472133412202383,-0.325081,-0.155934,-1.13433
1472133412216414,-0.325081,-0.155934,-1.13433
1472133412239452,-0.325146,-0.155832,-1.13435
1472133412261475,-0.325256,-0.155898,-1.13435
1472133412276486,-0.325101,-0.155664,-1.13436
1472133412299508,-0.325101,-0.155664,-1.13436
1472133412321042,-0.325101,-0.155664,-1.13436
1472133412336514,-0.325165,-0.155562,-1.13437
1472133412359532,-0.325276,-0.155628,-1.13437
1472133412381553,-0.325276,-0.155628,-1.13437
1472133412396568,-0.325276,-0.155628,-1.13437
1472133412419629,-0.325276,-0.155628,-1.13437
1472133412441650,-0.325165,-0.155562,-1.13437
1472133412456664,-0.32523,-0.15546,-1.13439
1472133412479685,-0.32523,-0.15546,-1.13439
1472133412501704,-0.325341,-0.155527,-1.13439
1472133412522771,-0.325295,-0.155358,-1.1344
1472133412539772,-0.325406,-0.155425,-1.1344
1472133412561832,-0.32547,-0.155323,-1.13442
1472133412582845,-0.32547,-0.155323,-1.13442
1472133412598826,-0.325578,-0.155368,-1.13425
1472133412621384,-0.325643,-0.155266,-1.13427
1472133412642568,-0.325643,-0.155266,-1.13427
1472133412659555,-0.325643,-0.155266,-1.13427
1472133412681572,-0.325818,-0.155231,-1.13428
1472133412702593,-0.325708,-0.155165,-1.13428
1472133412719610,-0.325818,-0.155231,-1.13428
1472133412741740,-0.325883,-0.15513,-1.1343
1472133412762773,-0.325883,-0.15513,-1.1343
1472133412779774,-0.32557,-0.154905,-1.13416
1472133412801794,-0.32557,-0.154905,-1.13416
1472133412822923,-0.326093,-0.154778,-1.13404
1472133412839903,-0.326158,-0.154676,-1.13406
1472133412861924,-0.325845,-0.154452,-1.13392
1472133412882943,-0.32571,-0.154214,-1.13396
1472133412899958,-0.32571,-0.154214,-1.13396
1472133412921985,-0.32571,-0.154214,-1.13396
1472133412944257,-0.325775,-0.154112,-1.13397
1472133412959249,-0.325775,-0.154112,-1.13397
1472133412982270,-0.32555,-0.154203,-1.13364
1472133413004290,-0.325615,-0.154101,-1.13366
1472133413019821,-0.325726,-0.154168,-1.13366
1472133413041391,-0.325726,-0.154168,-1.13366
1472133413064396,-0.325901,-0.154132,-1.13367
1472133413078408,-0.325901,-0.154132,-1.13367
1472133413102430,-0.326554,-0.153802,-1.13359
1472133413124494,-0.326554,-0.153802,-1.13359
1472133413139508,-0.326618,-0.1537,-1.1336
1472133413161525,-0.326618,-0.1537,-1.1336
1472133413184547,-0.326618,-0.1537,-1.1336
1472133413207070,-0.326683,-0.153598,-1.13361
1472133413222084,-0.326683,-0.153598,-1.13361
1472133413244414,-0.326748,-0.153497,-1.13363
1472133413258426,-0.326748,-0.153497,-1.13363
1472133413282448,-0.326859,-0.153563,-1.13363
1472133413304470,-0.326856,-0.153541,-1.13347
1472133413319027,-0.326921,-0.15344,-1.13348
1472133413342109,-0.326986,-0.153338,-1.1335
1472133413364132,-0.326986,-0.153338,-1.1335
1472133413379140,-0.32705,-0.153236,-1.13351
1472133413402163,-0.32705,-0.153236,-1.13351
1472133413424720,-0.327115,-0.153134,-1.13352
1472133413445772,-0.327115,-0.153134,-1.13352
1472133413461754,-0.327291,-0.153099,-1.13354
1472133413484773,-0.327291,-0.153099,-1.13354
1472133413505824,-0.327291,-0.153099,-1.13354
1472133413522313,-0.327353,-0.152976,-1.13339
1472133413544470,-0.327417,-0.152874,-1.13341
1472133413565491,-0.327528,-0.152941,-1.13341
1472133413581503,-0.327528,-0.152941,-1.13341
1472133413604526,-0.327593,-0.152839,-1.13342
1472133413625063,-0.327593,-0.152839,-1.13342
1472133413642081,-0.327593,-0.152839,-1.13342
1472133413664099,-0.327658,-0.152737,-1.13344
1472133413685148,-0.327768,-0.152804,-1.13344
1472133413702134,-0.327833,-0.152702,-1.13345
1472133413724197,-0.327455,-0.152579,-1.1333
1472133413751223,-0.327455,-0.152579,-1.1333
1472133413762238,-0.327455,-0.152579,-1.1333
1472133413784251,-0.32752,-0.152478,-1.13331
1472133413805283,-0.327362,-0.152488,-1.13316
1472133413822304,-0.327178,-0.152305,-1.13289
1472133413844329,-0.327242,-0.152204,-1.1329
1472133413865365,-0.327353,-0.15227,-1.1329
1472133413882364,-0.327353,-0.15227,-1.1329
1472133413904383,-0.327418,-0.152168,-1.13292
1472133413926439,-0.327418,-0.152168,-1.13292
1472133413941455,-0.327418,-0.152168,-1.13292
1472133413964474,-0.327483,-0.152067,-1.13293
1472133413986493,-0.327593,-0.152133,-1.13293
1472133414001518,-0.327369,-0.151978,-1.13277
1472133414024567,-0.327369,-0.151978,-1.13277
1472133414046587,-0.327369,-0.151978,-1.13277
1472133414061601,-0.327455,-0.151874,-1.13281
1472133414084623,-0.327455,-0.151874,-1.13281
1472133414106641,-0.32752,-0.151772,-1.13283
1472133414121659,-0.32752,-0.151772,-1.13283
1472133414144641,-0.32752,-0.151772,-1.13283
1472133414166662,-0.327585,-0.15167,-1.13284
1472133414181673,-0.327695,-0.151737,-1.13284
1472133414204698,-0.327757,-0.151613,-1.13269
1472133414226740,-0.327757,-0.151613,-1.13269
1472133414241752,-0.327757,-0.151613,-1.13269
1472133414264775,-0.327822,-0.151511,-1.13271
1472133414286795,-0.327822,-0.151511,-1.13271
1472133414301806,-0.327932,-0.151578,-1.13271
1472133414324834,-0.327997,-0.151476,-1.13272
1472133414346854,-0.327997,-0.151476,-1.13272
1472133414360868,-0.328062,-0.151374,-1.13274
1472133414384888,-0.328062,-0.151374,-1.13274
1472133414406910,-0.327994,-0.151454,-1.13256
1472133414428505,-0.327994,-0.151454,-1.13256
1472133414444518,-0.327994,-0.151454,-1.13256
1472133414466538,-0.328059,-0.151353,-1.13258
1472133414487570,-0.327775,-0.151588,-1.13256
1472133414504573,-0.32795,-0.151553,-1.13257
1472133414526744,-0.327947,-0.151531,-1.13241
1472133414547763,-0.327707,-0.151668,-1.13238
1472133414564779,-0.327467,-0.151805,-1.13235
1472133414586798,-0.327467,-0.151805,-1.13235
1472133414608398,-0.327578,-0.151871,-1.13235
1472133414623883,-0.327313,-0.151837,-1.13236
1472133414647031,-0.326808,-0.15194,-1.13234
1472133414668049,-0.326808,-0.15194,-1.13234
1472133414684064,-0.326808,-0.15194,-1.13234
1472133414707086,-0.326873,-0.151838,-1.13236
1472133414728257,-0.326473,-0.151964,-1.13201
1472133414744272,-0.326205,-0.151908,-1.13186
1472133414767295,-0.325983,-0.15202,-1.13169
1472133414788312,-0.326048,-0.151919,-1.13171
1472133414804326,-0.326158,-0.151985,-1.13171
1472133414826623,-0.326158,-0.151985,-1.13171
1472133414849644,-0.326155,-0.151963,-1.13155
1472133414864657,-0.326155,-0.151963,-1.13155
1472133414886678,-0.32622,-0.151861,-1.13156
1472133414909701,-0.32622,-0.151861,-1.13156
1472133414924214,-0.326331,-0.151928,-1.13156
1472133414947325,-0.32602,-0.151726,-1.13159
1472133414969345,-0.326085,-0.151624,-1.1316
1472133414983360,-0.326085,-0.151624,-1.1316
1472133415007384,-0.326085,-0.151624,-1.1316
1472133415028950,-0.32626,-0.151589,-1.13162
1472133415043948,-0.32626,-0.151589,-1.13162
1472133415066970,-0.32626,-0.151589,-1.13162
1472133415088990,-0.32637,-0.151655,-1.13162
1472133415104002,-0.326435,-0.151553,-1.13163
1472133415127064,-0.326435,-0.151553,-1.13163
1472133415149082,-0.3265,-0.151452,-1.13165
1472133415164098,-0.3265,-0.151452,-1.13165
1472133415187119,-0.3265,-0.151452,-1.13165
1472133415209645,-0.326608,-0.151496,-1.13148
1472133415224157,-0.326672,-0.151394,-1.1315
1472133415253252,-0.326672,-0.151394,-1.1315
1472133415269236,-0.326737,-0.151293,-1.13151
1472133415284249,-0.326737,-0.151293,-1.13151
1472133415307274,-0.326848,-0.151359,-1.13152
1472133415329140,-0.326912,-0.151257,-1.13153
1472133415350173,-0.326912,-0.151257,-1.13153
1472133415367174,-0.326912,-0.151257,-1.13153
1472133415389194,-0.326977,-0.151156,-1.13154
1472133415410747,-0.326977,-0.151156,-1.13154
1472133415427263,-0.327152,-0.15112,-1.13156
1472133415449283,-0.327152,-0.15112,-1.13156
1472133415470315,-0.327214,-0.150997,-1.13141
1472133415487317,-0.327214,-0.150997,-1.13141
1472133415509844,-0.327214,-0.150997,-1.13141
1472133415530368,-0.327325,-0.151063,-1.13141
1472133415547383,-0.327169,-0.150828,-1.13143
1472133415569402,-0.327169,-0.150828,-1.13143
1472133415598429,-0.327233,-0.150727,-1.13144
1472133415607437,-0.327233,-0.150727,-1.13144
1472133415629530,-0.327141,-0.150636,-1.1313
1472133415650580,-0.327203,-0.150512,-1.13115
1472133415666562,-0.327203,-0.150512,-1.13115
1472133415689584,-0.327268,-0.15041,-1.13117
1472133415710642,-0.327378,-0.150477,-1.13117
1472133415726661,-0.327443,-0.150375,-1.13119
1472133415749683,-0.327443,-0.150375,-1.13119
1472133415770717,-0.327443,-0.150375,-1.13119
1472133415786715,-0.327553,-0.150441,-1.13119
1472133415809737,-0.327618,-0.150339,-1.1312
1472133415831767,-0.327683,-0.150238,-1.13122
1472133415846779,-0.327683,-0.150238,-1.13122
1472133415869800,-0.327683,-0.150238,-1.13122
1472133415891834,-0.327745,-0.150114,-1.13107
1472133415906845,-0.327855,-0.150181,-1.13107
1472133415929414,-0.32792,-0.150079,-1.13108
1472133415952436,-0.32792,-0.150079,-1.13108
1472133415966449,-0.32792,-0.150079,-1.13108
1472133415989470,-0.328095,-0.150043,-1.1311
1472133416012026,-0.328095,-0.150043,-1.1311
1472133416025571,-0.32816,-0.149942,-1.13112
1472133416049918,-0.32816,-0.149942,-1.13112
1472133416071938,-0.32816,-0.149942,-1.13112
1472133416085950,-0.32816,-0.149942,-1.13112
1472133416108971,-0.328225,-0.14984,-1.13113
1472133416132034,-0.328335,-0.149906,-1.13113
1472133416146043,-0.328397,-0.149783,-1.13098
1472133416169064,-0.328397,-0.149783,-1.13098
1472133416192085,-0.328462,-0.149681,-1.131
1472133416206133,-0.328462,-0.149681,-1.131
1472133416229191,-0.328637,-0.149646,-1.13101
1472133416252212,-0.328637,-0.149646,-1.13101
1472133416266227,-0.328702,-0.149544,-1.13103
1472133416289245,-0.328702,-0.149544,-1.13103
1472133416312282,-0.328767,-0.149442,-1.13104
1472133416333366,-0.328767,-0.149442,-1.13104
1472133416349350,-0.328831,-0.14934,-1.13106
1472133416372371,-0.328939,-0.149385,-1.1309
1472133416393390,-0.328939,-0.149385,-1.1309
1472133416409404,-0.328868,-0.149046,-1.13095
1472133416432435,-0.328979,-0.149112,-1.13095
1472133416453452,-0.328933,-0.148944,-1.13097
1472133416469468,-0.328933,-0.148944,-1.13097
1472133416491500,-0.329041,-0.148988,-1.13081
1472133416513529,-0.328838,-0.148831,-1.13067
1472133416529561,-0.328655,-0.14867,-1.13056
1472133416552582,-0.328766,-0.148736,-1.13056
1472133416573601,-0.32883,-0.148634,-1.13057
1472133416589617,-0.328892,-0.148511,-1.13043
1472133416612144,-0.328607,-0.14848,-1.13041
1472133416633668,-0.328342,-0.148446,-1.13042
1472133416649698,-0.328342,-0.148446,-1.13042
1472133416671702,-0.328342,-0.148446,-1.13042
1472133416692719,-0.328517,-0.148411,-1.13044
1472133416709736,-0.328424,-0.148319,-1.1303
1472133416731764,-0.328424,-0.148319,-1.1303
1472133416753785,-0.328489,-0.148218,-1.13031
1472133416768799,-0.328599,-0.148284,-1.13032
1472133416791818,-0.328599,-0.148284,-1.13032
1472133416814845,-0.328664,-0.148182,-1.13033
1472133416829865,-0.328661,-0.14816,-1.13017
1472133416851884,-0.328726,-0.148058,-1.13018
1472133416874903,-0.328816,-0.148128,-1.13016
1472133416888916,-0.328726,-0.148058,-1.13018
1472133416912456,-0.328726,-0.148058,-1.13018
1472133416934007,-0.328836,-0.148125,-1.13018
1472133416949006,-0.328791,-0.147957,-1.1302
1472133416972026,-0.328901,-0.148023,-1.1302
1472133416994077,-0.328901,-0.148023,-1.1302
1472133417009059,-0.328966,-0.147921,-1.13021
1472133417032095,-0.328966,-0.147921,-1.13021
1472133417054113,-0.329076,-0.147988,-1.13021
1472133417069126,-0.329141,-0.147886,-1.13023
1472133417092146,-0.329138,-0.147864,-1.13007
1472133417114669,-0.329138,-0.147864,-1.13007
1472133417128710,-0.329008,-0.148067,-1.13004
1472133417151751,-0.329073,-0.147966,-1.13005
1472133417174753,-0.329073,-0.147966,-1.13005
1472133417188764,-0.329181,-0.14801,-1.12989
1472133417212372,-0.329181,-0.14801,-1.12989
1472133417234106,-0.329245,-0.147908,-1.1299
1472133417255136,-0.329245,-0.147908,-1.1299
1472133417272140,-0.328913,-0.147954,-1.12974
1472133417300166,-0.328911,-0.148199,-1.12957
1472133417315758,-0.328607,-0.148438,-1.12953
1472133417331786,-0.32856,-0.148515,-1.12938
1472133417354806,-0.32856,-0.148515,-1.12938
1472133417375826,-0.32856,-0.148515,-1.12938
1472133417391839,-0.328735,-0.148479,-1.12939
1472133417414865,-0.328624,-0.148413,-1.12939
1472133417435389,-0.328735,-0.148479,-1.12939
1472133417452405,-0.328735,-0.148479,-1.12939
1472133417474426,-0.328799,-0.148378,-1.12941
1472133417495457,-0.328799,-0.148378,-1.12941
1472133417512465,-0.32891,-0.148444,-1.12941
1472133417534081,-0.32891,-0.148444,-1.12941
1472133417556101,-0.32902,-0.14851,-1.12941
1472133417572118,-0.329064,-0.148411,-1.1294
1472133417594135,-0.329064,-0.148411,-1.1294
1472133417615695,-0.329064,-0.148411,-1.1294
1472133417631740,-0.32924,-0.148376,-1.12941
1472133417654761,-0.32924,-0.148376,-1.12941
1472133417676797,-0.329237,-0.148354,-1.12925
1472133417691794,-0.329237,-0.148354,-1.12925
1472133417714822,-0.329301,-0.148252,-1.12927
1472133417736861,-0.329301,-0.148252,-1.12927
1472133417751874,-0.329301,-0.148252,-1.12927
1472133417774893,-0.329387,-0.148147,-1.12931
1472133417796913,-0.329387,-0.148147,-1.12931
1472133417812434,-0.329366,-0.148151,-1.12928
1472133417834501,-0.329366,-0.148151,-1.12928
1472133417857522,-0.329541,-0.148115,-1.1293
1472133417871536,-0.329562,-0.148112,-1.12933
1472133417894557,-0.329541,-0.148115,-1.1293
1472133417917093,-0.329606,-0.148013,-1.12931
1472133417931109,-0.329716,-0.148079,-1.12931
1472133417954130,-0.329716,-0.148079,-1.12931
1472133417977150,-0.329781,-0.147978,-1.12933
1472133417991163,-0.329778,-0.147956,-1.12917
1472133418014693,-0.329843,-0.147854,-1.12918
1472133418036812,-0.329843,-0.147854,-1.12918
1472133418057869,-0.330018,-0.147819,-1.1292
1472133418074852,-0.330018,-0.147819,-1.1292
1472133418096867,-0.330018,-0.147819,-1.1292
1472133418111880,-0.330018,-0.147819,-1.1292
1472133418134462,-0.330083,-0.147717,-1.12921
1472133418157496,-0.330083,-0.147717,-1.12921
1472133418178503,-0.330083,-0.147717,-1.12921
1472133418194515,-0.330258,-0.147681,-1.12923
1472133418217071,-0.330258,-0.147681,-1.12923
1472133418238196,-0.330323,-0.14758,-1.12924
1472133418254177,-0.33032,-0.147558,-1.12908
1472133418277201,-0.33032,-0.147558,-1.12908
1472133418298220,-0.330839,-0.14701,-1.1292
1472133418314737,-0.331428,-0.146535,-1.12927
1472133418336741,-0.331421,-0.145828,-1.12934
1472133418357793,-0.331499,-0.145016,-1.12946
1472133418374776,-0.332082,-0.1441,-1.1296
1472133418396796,-0.332922,-0.142756,-1.12964
1472133418418336,-0.333075,-0.140844,-1.12972
1472133418434868,-0.333642,-0.138075,-1.13009
1472133418456886,-0.334007,-0.134464,-1.13056
1472133418477919,-0.33417,-0.129747,-1.13116
1472133418494920,-0.334709,-0.12425,-1.13191
1472133418517449,-0.335344,-0.118122,-1.13273
1472133418537975,-0.33656,-0.111352,-1.13371
1472133418553989,-0.338451,-0.104014,-1.13482
1472133418577017,-0.340274,-0.096595,-1.1364
1472133418598027,-0.341711,-0.0891807,-1.13858
1472133418614063,-0.343102,-0.0819212,-1.14108
1472133418637100,-0.3444,-0.0751389,-1.14411
1472133418659147,-0.345827,-0.0689185,-1.14739
1472133418674135,-0.346817,-0.0634288,-1.1507
1472133418697157,-0.347386,-0.0587946,-1.15368
1472133418719718,-0.347791,-0.0548703,-1.15641
1472133418734237,-0.348467,-0.0516139,-1.15861
1472133418757255,-0.348867,-0.0489709,-1.16041
1472133418779276,-0.348605,-0.0468125,-1.16163
1472133418794288,-0.347993,-0.0448553,-1.16204
1472133418817327,-0.347477,-0.0431268,-1.16184
1472133418839365,-0.346952,-0.0417468,-1.16096
1472133418853405,-0.346353,-0.0406495,-1.1596
1472133418877396,-0.346488,-0.0395164,-1.15787
1472133418899416,-0.346642,-0.0385593,-1.1561
1472133418913936,-0.346285,-0.0372814,-1.15451
1472133418937522,-0.345801,-0.0359479,-1.15288
1472133418959510,-0.345854,-0.0345765,-1.1518
1472133418973521,-0.346214,-0.0331831,-1.15086
1472133418997543,-0.346767,-0.0317919,-1.15027
1472133419019566,-0.347686,-0.0305824,-1.15013
1472133419033602,-0.348649,-0.0293109,-1.15012
1472133419056645,-0.349495,-0.0283261,-1.15068
1472133419079644,-0.350148,-0.0273869,-1.15118
1472133419093657,-0.350995,-0.0264029,-1.15174
1472133419117184,-0.351474,-0.0254996,-1.15222
1472133419139709,-0.351911,-0.0247056,-1.15286
1472133419160745,-0.352278,-0.0239645,-1.15317
1472133419176742,-0.352048,-0.0234288,-1.15337
1472133419199764,-0.352117,-0.0233282,-1.1534
1472133419220788,-0.351861,-0.0237681,-1.15361
1472133419237410,-0.352907,-0.0253426,-1.15359
1472133419259443,-0.356647,-0.0288877,-1.15323
1472133419280449,-0.36556,-0.0360976,-1.15126
1472133419297463,-0.381927,-0.0466585,-1.14721
1472133419319492,-0.405345,-0.0610098,-1.14206
1472133419340554,-0.429815,-0.0747169,-1.13586
1472133419357556,-0.448491,-0.0843102,-1.12974
1472133419379578,-0.45657,-0.0915168,-1.12446
1472133419400597,-0.460391,-0.098488,-1.11776
1472133419417130,-0.463091,-0.103425,-1.10777
1472133419439694,-0.463767,-0.105058,-1.0937
1472133419460748,-0.467796,-0.104605,-1.07833
1472133419476728,-0.477574,-0.103822,-1.06273
1472133419499747,-0.489441,-0.102946,-1.04732
1472133419520802,-0.499084,-0.0994316,-1.0326
1472133419536867,-0.508003,-0.0930962,-1.01615
1472133419559888,-0.520645,-0.084494,-0.998861
1472133419581909,-0.535841,-0.0731982,-0.979191
1472133419596923,-0.551611,-0.0616167,-0.954932
1472133419619447,-0.568779,-0.051118,-0.926067
1472133419642497,-0.586869,-0.0413967,-0.891506
1472133419656496,-0.604458,-0.0337769,-0.851341
1472133419679517,-0.620302,-0.0267921,-0.805308
1472133419702538,-0.635648,-0.0216099,-0.75419
1472133419716556,-0.651793,-0.0190296,-0.699987
1472133419739610,-0.668717,-0.0180678,-0.644448
1472133419762631,-0.687299,-0.0176962,-0.587618
1472133419776645,-0.706738,-0.0181607,-0.530593
1472133419799665,-0.728416,-0.0196051,-0.475628
1472133419822208,-0.751503,-0.021019,-0.426215
1472133419842754,-0.771019,-0.0232237,-0.384124
1472133419859758,-0.78449,-0.0223214,-0.348709
1472133419881777,-0.795426,-0.0189699,-0.318535
1472133419904799,-0.807453,-0.0148918,-0.292491
1472133419919816,-0.821593,-0.0108183,-0.270571
1472133419941868,-0.835417,-0.00783365,-0.252572
1472133419962904,-0.84831,-0.00712677,-0.239003
1472133419979903,-0.857666,-0.0077498,-0.228106
1472133420001923,-0.864103,-0.00952116,-0.219488
1472133420023452,-0.868792,-0.010997,-0.212794
1472133420038971,-0.872598,-0.012696,-0.207432
1472133420061992,-0.877751,-0.0147667,-0.203149
1472133420083011,-0.882706,-0.0170871,-0.200355
1472133420100028,-0.885865,-0.0198154,-0.197959
1472133420122552,-0.890437,-0.0223936,-0.195544
1472133420143076,-0.895784,-0.0241571,-0.192989
1472133420159090,-0.899905,-0.024045,-0.190183
1472133420182113,-0.891827,-0.0224815,-0.188347
1472133420203130,-0.888332,-0.0208375,-0.185341
1472133420219654,-0.891399,-0.0193483,-0.180172
1472133420242180,-0.889419,-0.0188068,-0.175751
1472133420263197,-0.88213,-0.0186268,-0.172211
1472133420279212,-0.874883,-0.0181392,-0.169097
1472133420302233,-0.870834,-0.0168487,-0.165656
1472133420323255,-0.868418,-0.0153224,-0.162238
1472133420339792,-0.86521,-0.0141944,-0.1601
1472133420361810,-0.860694,-0.0126651,-0.159046
1472133420382829,-0.8562,-0.0111312,-0.158263
1472133420399846,-0.851619,-0.00931652,-0.157469
1472133420422384,-0.846107,-0.00710349,-0.156813
1472133420443381,-0.840247,-0.00489846,-0.156543
1472133420459395,-0.835604,-0.00286651,-0.157027
1472133420482417,-0.832643,-0.00134383,-0.157731
1472133420503436,-0.831153,-0.000105545,-0.158227
1472133420519958,-0.829526,0.000995219,-0.159055
1472133420542229,-0.826836,0.00186384,-0.160012
1472133420565249,-0.824636,0.00242942,-0.161246
1472133420579263,-0.823016,0.00322918,-0.162473
1472133420602282,-0.82155,0.00427915,-0.163413
1472133420624807,-0.820175,0.00509407,-0.164249
1472133420639951,-0.818918,0.00577463,-0.164764
1472133420661969,-0.817936,0.00654494,-0.165326
1472133420684992,-0.816948,0.00741238,-0.165662
1472133420699005,-0.816109,0.00827105,-0.166002
1472133420722529,-0.814304,0.00887208,-0.16619
1472133420744402,-0.81338,0.00920523,-0.165895
1472133420759414,-0.812482,0.00976164,-0.165697
1472133420782437,-0.811987,0.0103343,-0.165391
1472133420804455,-0.811887,0.0107634,-0.16504
1472133420818975,-0.811636,0.0109457,-0.164975
1472133420842081,-0.81109,0.0111939,-0.164789
1472133420865101,-0.811236,0.011185,-0.164793
1472133420886121,-0.811396,0.0112878,-0.164846
1472133420909140,-0.811359,0.0113312,-0.164724
1472133420924661,-0.811506,0.0113222,-0.164729
1472133420947518,-0.811519,0.011434,-0.164778
1472133420962532,-0.811665,0.0114251,-0.164782
1472133420984552,-0.8113,0.011744,-0.165037
1472133420998564,-0.810945,0.0122228,-0.165228
1472133421022593,-0.810945,0.0122228,-0.165228
1472133421044417,-0.81113,0.0129759,-0.16529
1472133421065437,-0.811485,0.013688,-0.165745
1472133421082452,-0.81115,0.0141828,-0.166211
1472133421104472,-0.810963,0.0146689,-0.166681
1472133421126026,-0.810463,0.015157,-0.166866
1472133421142519,-0.810463,0.015157,-0.166866
1472133421164541,-0.811035,0.0155586,-0.167063
1472133421187560,-0.811225,0.0162635,-0.167239
1472133421201583,-0.811036,0.0167975,-0.167596
1472133421224604,-0.810696,0.0173886,-0.167835
1472133421245482,-0.810487,0.0179068,-0.167916
1472133421262467,-0.810487,0.0179068,-0.167916
1472133421292495,-0.8105,0.0180186,-0.167965
1472133421305538,-0.810274,0.0184729,-0.167884
1472133421322527,-0.810032,0.0189861,-0.167956
1472133421344124,-0.809969,0.0194954,-0.168042
1472133421365143,-0.810116,0.0194864,-0.168047
1472133421382159,-0.8096,0.0199108,-0.168069
1472133421404177,-0.809347,0.0201413,-0.16789
1472133421425770,-0.809361,0.0202531,-0.167939
1472133421442445,-0.809361,0.0202531,-0.167939
1472133421464464,-0.809507,0.0202442,-0.167944
1472133421487486,-0.809142,0.0206118,-0.168084
1472133421502510,-0.808763,0.0208676,-0.168175
1472133421525024,-0.808777,0.0209794,-0.168224
1472133421547051,-0.808773,0.0210272,-0.168111
1472133421562065,-0.808824,0.0215225,-0.168193
1472133421585087,-0.808473,0.0220021,-0.168381
1472133421607106,-0.807718,0.0223429,-0.168361
1472133421621626,-0.807463,0.0227442,-0.168384
1472133421645022,-0.807463,0.0227442,-0.168384
1472133421667012,-0.807477,0.0228561,-0.168432
1472133421681027,-0.807128,0.023165,-0.168418
1472133421705045,-0.806485,0.0236625,-0.168596
1472133421727573,-0.80609,0.0238541,-0.168524
1472133421741090,-0.806004,0.0240923,-0.168625
1472133421764142,-0.806004,0.0240923,-0.168625
1472133421787133,-0.805755,0.024275,-0.168559
1472133421809153,-0.805104,0.0244422,-0.168598
1472133421824715,-0.804584,0.0246595,-0.168796
1472133421847240,-0.804243,0.0248735,-0.169009
1472133421861261,-0.803734,0.0252506,-0.169142
1472133421884274,-0.803261,0.0255857,-0.169397
1472133421907294,-0.802874,0.0256825,-0.169552
1472133421921843,-0.802515,0.0260034,-0.169804
1472133421944368,-0.802288,0.0262035,-0.170012
1472133421967390,-0.802288,0.0262035,-0.170012
1472133421988410,-0.802288,0.0262035,-0.170012
1472133422004423,-0.802298,0.0263629,-0.169947
1472133422027462,-0.802038,0.0265575,-0.170147
1472133422048485,-0.801562,0.0269405,-0.170288
1472133422064499,-0.801295,0.0272298,-0.170261
1472133422087520,-0.801441,0.0272209,-0.170266
1472133422108539,-0.801441,0.0272209,-0.170266
1472133422125058,-0.801455,0.027333,-0.170315
1472133422146604,-0.801196,0.0273564,-0.170313
1472133422168621,-0.800929,0.0274744,-0.170083
1472133422184637,-0.800929,0.0274744,-0.170083
1472133422206656,-0.801043,0.0272886,-0.169878
1472133422228229,-0.801167,0.0272623,-0.169608
1472133422244734,-0.801131,0.0271327,-0.169284
1472133422266755,-0.800694,0.0269879,-0.169066
1472133422287775,-0.800381,0.0268167,-0.168578
1472133422304790,-0.800769,0.0265485,-0.168222
1472133422327329,-0.801125,0.0262749,-0.167857
1472133422347879,-0.801348,0.0261223,-0.167536
1472133422364879,-0.8012,0.026007,-0.167215
1472133422386899,-0.800849,0.0256235,-0.166897
1472133422407950,-0.800995,0.0256147,-0.166902
1472133422424943,-0.800995,0.0256147,-0.166902
1472133422447566,-0.801008,0.0257268,-0.166951
1472133422469587,-0.8006,0.0258058,-0.16683
1472133422484600,-0.800374,0.0258342,-0.166837
1472133422506621,-0.799805,0.0258097,-0.166662
1472133422529658,-0.799274,0.0257434,-0.16661
1472133422544142,-0.798881,0.0257627,-0.166336
1472133422567164,-0.798881,0.0257627,-0.166336
1472133422589183,-0.798587,0.0256556,-0.16601
1472133422610203,-0.798307,0.0256606,-0.165733
1472133422627224,-0.797999,0.0254411,-0.165359
1472133422649252,-0.797706,0.0253338,-0.165033
1472133422664266,-0.797416,0.0251792,-0.164821
1472133422687285,-0.797357,0.0247776,-0.164515
1472133422709304,-0.797327,0.0246003,-0.164305
1472133422724388,-0.797451,0.0245738,-0.164035
1472133422747079,-0.797292,0.0244702,-0.163982
1472133422769101,-0.797162,0.024419,-0.163823
1472133422784113,-0.796758,0.0244502,-0.163816
1472133422807134,-0.79634,0.0243691,-0.163761
1472133422829658,-0.79634,0.0243691,-0.163761
1472133422844419,-0.796485,0.0243605,-0.163766
1472133422867440,-0.796499,0.0244727,-0.163814
1472133422889498,-0.796499,0.0244727,-0.163814
1472133422904472,-0.796499,0.0244727,-0.163814
1472133422927499,-0.796499,0.0244727,-0.163814
1472133422949548,-0.796223,0.02443,-0.163651
1472133422970598,-0.796369,0.0244214,-0.163656
1472133422987581,-0.796369,0.0244214,-0.163656
1472133423009600,-0.796336,0.0244162,-0.163647
1472133423031139,-0.796087,0.0245979,-0.16358
1472133423047376,-0.796233,0.0245893,-0.163585
1472133423069395,-0.796233,0.0245893,-0.163585
1472133423090425,-0.796233,0.0245893,-0.163585
1472133423107430,-0.796025,0.0251077,-0.163663
1472133423129951,-0.796025,0.0251077,-0.163663
1472133423151011,-0.796025,0.0251077,-0.163663
1472133423167017,-0.796073,0.0253503,-0.164034
1472133423190038,-0.795843,0.0257224,-0.164443
1472133423211059,-0.795604,0.0259353,-0.164918
1472133423227135,-0.795266,0.0262746,-0.165444
1472133423249193,-0.794794,0.0266099,-0.165698
1472133423270213,-0.794418,0.0268659,-0.165786
1472133423287229,-0.793938,0.0274674,-0.166014
1472133423309247,-0.793604,0.0278881,-0.166045
1472133423330774,-0.793571,0.0278826,-0.166037
1472133423346803,-0.793514,0.028346,-0.166232
1472133423369826,-0.792894,0.0287373,-0.166366
1472133423391846,-0.792631,0.0289793,-0.166451
1472133423406858,-0.79255,0.0291713,-0.166664
1472133423429884,-0.792465,0.0295824,-0.166964
1472133423451936,-0.792525,0.0299849,-0.16727
1472133423466951,-0.792182,0.0304191,-0.167568
1472133423489971,-0.7918,0.0306419,-0.168036
1472133423511990,-0.79173,0.0311655,-0.168384
1472133423526514,-0.791508,0.0313198,-0.168705
1472133423550051,-0.791278,0.0317399,-0.169
1472133423572071,-0.791238,0.0323162,-0.169243
1472133423586082,-0.791009,0.0327364,-0.169537
1472133423609103,-0.790812,0.0331624,-0.16984
1472133423632162,-0.790812,0.0331624,-0.16984
1472133423646786,-0.790812,0.0331624,-0.16984
1472133423669805,-0.790438,0.0334194,-0.169927
1472133423691824,-0.790583,0.0334106,-0.169933
1472133423706840,-0.790583,0.0334106,-0.169933
1472133423729864,-0.790594,0.0335696,-0.169867
1472133423752391,-0.790561,0.0335638,-0.169859
1472133423766427,-0.790561,0.0335638,-0.169859
1472133423789421,-0.790706,0.033555,-0.169865
1472133423812442,-0.790721,0.0336674,-0.169913
1472133423826507,-0.790721,0.0336674,-0.169913
1472133423857282,-0.790721,0.0336674,-0.169913
1472133423872298,-0.790721,0.0336674,-0.169913
1472133423893329,-0.790721,0.0336674,-0.169913
1472133423909329,-0.790342,0.0337988,-0.169685
1472133423932359,-0.790149,0.0335171,-0.169422
1472133423953415,-0.79037,0.0331902,-0.1689
1472133423969397,-0.791442,0.0310911,-0.167678
1472133423992421,-0.797149,0.0251674,-0.1652
1472133424013439,-0.807916,0.0167889,-0.160395
1472133424029994,-0.820569,0.00770881,-0.155384
1472133424052113,-0.830567,-0.00222091,-0.153129
1472133424073165,-0.832993,-0.0111947,-0.153927
1472133424089146,-0.829261,-0.0190554,-0.156652
1472133424112168,-0.824599,-0.0257891,-0.16162
1472133424133228,-0.819531,-0.0311924,-0.170116
1472133424149749,-0.81357,-0.0354831,-0.181637
1472133424171767,-0.805303,-0.0393598,-0.197293
1472133424192819,-0.793054,-0.0440824,-0.217963
1472133424208800,-0.777713,-0.0504137,-0.244814
1472133424232328,-0.759671,-0.0570187,-0.277079
1472133424253395,-0.738836,-0.0619305,-0.315235
1472133424269406,-0.716681,-0.064956,-0.358923
1472133424292430,-0.695047,-0.0662372,-0.406796
1472133424314447,-0.673259,-0.0662964,-0.458093
1472133424328998,-0.650847,-0.0653445,-0.512354
1472133424352577,-0.627023,-0.0627625,-0.568131
1472133424374595,-0.600809,-0.0595958,-0.624474
1472133424388608,-0.574807,-0.0576665,-0.681238
1472133424411630,-0.551156,-0.0570024,-0.736962
1472133424434691,-0.529072,-0.0579562,-0.789511
1472133424448761,-0.508182,-0.061278,-0.838001
1472133424471789,-0.489937,-0.0663211,-0.882679
1472133424494802,-0.47373,-0.0725502,-0.923674
1472133424508856,-0.454992,-0.0803007,-0.959662
1472133424532344,-0.442259,-0.0884584,-0.98974
1472133424554400,-0.435526,-0.0980794,-1.01502
1472133424569413,-0.428472,-0.106022,-1.03409
1472133424592433,-0.415966,-0.114171,-1.04799
1472133424614466,-0.406566,-0.123316,-1.05832
1472133424635507,-0.404056,-0.134799,-1.06731
1472133424652523,-0.401054,-0.145873,-1.07473
1472133424674543,-0.39564,-0.154742,-1.0797
1472133424695560,-0.391873,-0.161838,-1.08273
1472133424711578,-0.390943,-0.165782,-1.08517
1472133424734623,-0.389253,-0.158419,-1.08828
1472133424755363,-0.375816,-0.148215,-1.08925
1472133424772377,-0.370827,-0.143213,-1.09155
1472133424794396,-0.37721,-0.139734,-1.09571
1472133424815415,-0.37635,-0.137434,-1.09807
1472133424832467,-0.366475,-0.135754,-1.1011
1472133424854523,-0.355994,-0.134677,-1.1021
1472133424875573,-0.349543,-0.134092,-1.10116
1472133424892558,-0.346193,-0.133457,-1.09923
1472133424914580,-0.342646,-0.132362,-1.09687
1472133424936205,-0.338752,-0.130866,-1.09427
1472133424952220,-0.334626,-0.129544,-1.0918
1472133424974240,-0.329707,-0.128167,-1.09006
1472133424995290,-0.32691,-0.126896,-1.08865
1472133425012276,-0.326573,-0.125955,-1.08789
1472133425034812,-0.326835,-0.125253,-1.08783
1472133425055865,-0.326198,-0.124925,-1.08887
1472133425071848,-0.324652,-0.124913,-1.09
1472133425094870,-0.322848,-0.1248,-1.09122
1472133425115888,-0.322061,-0.12428,-1.0926
1472133425132441,-0.322149,-0.12372,-1.09384
1472133425154994,-0.322966,-0.123196,-1.09526
1472133425176014,-0.323119,-0.122534,-1.09652
1472133425192027,-0.322348,-0.121963,-1.09815
1472133425215049,-0.321605,-0.120918,-1.1003
1472133425235587,-0.321425,-0.119883,-1.10217
1472133425252015,-0.3212,-0.118926,-1.10389
