timestamp,x,y,z,w
1470344225608711,-0.18042,0.0445557,-0.655029,0.732361
1470344225626727,-0.180664,0.0445557,-0.654968,0.732361
1470344225648746,-0.180847,0.0447388,-0.654907,0.732361
1470344225668770,-0.180847,0.0447388,-0.654907,0.732361
1470344225686791,-0.180847,0.0447388,-0.654907,0.732422
1470344225716819,-0.180908,0.0446167,-0.654907,0.732422
1470344225729831,-0.180969,0.0444946,-0.654846,0.732422
1470344225746845,-0.181213,0.0444946,-0.654846,0.732361
1470344225769370,-0.181519,0.0445557,-0.654724,0.732422
1470344225788888,-0.181641,0.0444336,-0.654663,0.732422
1470344225806903,-0.181763,0.0443115,-0.654602,0.732483
1470344225829424,-0.182007,0.0443726,-0.654602,0.732422
1470344225848942,-0.182007,0.0443726,-0.654602,0.732422
1470344225866958,-0.182007,0.0443726,-0.654602,0.732422
1470344225889477,-0.18219,0.0444336,-0.654541,0.732361
1470344225918003,-0.18219,0.0444946,-0.654541,0.732361
1470344225927011,-0.18219,0.0444946,-0.654541,0.732361
1470344225949531,-0.18219,0.0444946,-0.654541,0.732361
1470344225970550,-0.18219,0.0444946,-0.654541,0.732361
1470344225987065,-0.182129,0.0444946,-0.654541,0.732422
1470344226009585,-0.182129,0.0444946,-0.654541,0.732422
1470344226030104,-0.182129,0.0444946,-0.654541,0.732422
1470344226047119,-0.181946,0.0444336,-0.65448,0.732483
1470344226069139,-0.182007,0.0443115,-0.654419,0.732544
1470344226090158,-0.182007,0.0443115,-0.654419,0.732544
1470344226106673,-0.182007,0.0443115,-0.654419,0.732544
1470344226129196,-0.182007,0.0443726,-0.654419,0.732544
1470344226150218,-0.182007,0.0443726,-0.654419,0.732544
1470344226166232,-0.182007,0.0443726,-0.654419,0.732544
1470344226189254,-0.182007,0.0443726,-0.654419,0.732544
1470344226210273,-0.182007,0.0443726,-0.654419,0.732544
1470344226225290,-0.182007,0.0443726,-0.654419,0.732544
1470344226248158,-0.181946,0.0443726,-0.654419,0.732544
1470344226271179,-0.181946,0.0444336,-0.654419,0.732544
1470344226285192,-0.181946,0.0441895,-0.654419,0.732605
1470344226308213,-0.18219,0.0441895,-0.654358,0.732605
1470344226331240,-0.183289,0.0444336,-0.654175,0.732483
1470344226345258,-0.185364,0.0449219,-0.65387,0.732178
1470344226368279,-0.188843,0.045166,-0.65332,0.73175
1470344226390303,-0.193726,0.0450439,-0.652161,0.731506
1470344226406314,-0.198547,0.0450439,-0.650635,0.731628
1470344226428340,-0.201782,0.0439453,-0.649109,0.732117
1470344226450364,-0.203003,0.0413208,-0.647583,0.733276
1470344226465377,-0.203979,0.0386353,-0.645874,0.73468
1470344226488399,-0.207275,0.036499,-0.643738,0.735718
1470344226511421,-0.213257,0.036438,-0.641296,0.736206
1470344226533459,-0.220825,0.0391846,-0.636536,0.737976
1470344226548479,-0.225281,0.041748,-0.6297,0.742249
1470344226570498,-0.229553,0.0484619,-0.61731,0.750916
1470344226591519,-0.232788,0.0552368,-0.602234,0.761597
1470344226608532,-0.234741,0.0597534,-0.583557,0.775085
1470344226631060,-0.236572,0.06073,-0.55957,0.791931
1470344226651585,-0.241089,0.0603638,-0.529907,0.810852
1470344226668600,-0.249756,0.0580444,-0.494202,0.830627
1470344226690620,-0.260864,0.0511475,-0.454285,0.850281
1470344226711640,-0.273132,0.0403442,-0.411743,0.868469
1470344226728671,-0.286133,0.0272827,-0.366882,0.884766
1470344226751189,-0.298767,0.0122681,-0.320007,0.898987
1470344226772209,-0.312134,-0.00494385,-0.273071,0.909912
1470344226788222,-0.325989,-0.0213623,-0.230469,0.916626
1470344226818250,-0.335205,-0.0358887,-0.193054,0.921448
1470344226832262,-0.341492,-0.0492554,-0.159302,0.924988
1470344226847776,-0.346924,-0.0609741,-0.130859,0.926697
1470344226870797,-0.35199,-0.0702515,-0.108948,0.926941
1470344226891815,-0.353271,-0.0805054,-0.098877,0.926758
1470344226908830,-0.351196,-0.0866089,-0.101135,0.926758
1470344226930850,-0.347229,-0.0848389,-0.113892,0.926941
1470344226952370,-0.344971,-0.078064,-0.132568,0.925903
1470344226983398,-0.344055,-0.0662842,-0.156128,0.923462
1470344226998412,-0.338074,-0.0513916,-0.184692,0.921387
1470344227011923,-0.329773,-0.0335693,-0.217834,0.917969
1470344227034944,-0.320129,-0.0139771,-0.253906,0.912598
1470344227050960,-0.309082,0.00646973,-0.29248,0.904907
1470344227071976,-0.29718,0.0274658,-0.332031,0.894775
1470344227088496,-0.283813,0.0484619,-0.371094,0.882813
1470344227110515,-0.269348,0.067688,-0.408875,0.869324
1470344227131536,-0.255493,0.0842285,-0.445313,0.854004
1470344227147548,-0.243286,0.0982056,-0.480774,0.83667
1470344227171074,-0.231628,0.109924,-0.514526,0.818237
1470344227191594,-0.220703,0.119141,-0.545166,0.799927
1470344227207610,-0.212524,0.125305,-0.571899,0.782349
1470344227230630,-0.210815,0.130188,-0.594177,0.765198
1470344227253651,-0.213806,0.135254,-0.612915,0.748596
1470344227267668,-0.21698,0.138062,-0.626892,0.735474
1470344227290637,-0.220398,0.136902,-0.635803,0.726929
1470344227313657,-0.223328,0.130981,-0.640503,0.722961
1470344227327676,-0.227112,0.121277,-0.642029,0.722107
1470344227350692,-0.231934,0.10968,-0.64032,0.723999
1470344227373762,-0.237122,0.0978394,-0.635193,0.728516
1470344227387643,-0.243896,0.0869751,-0.627808,0.734009
1470344227410664,-0.252136,0.0782471,-0.619873,0.738953
1470344227433684,-0.260132,0.0722046,-0.612793,0.742737
1470344227447709,-0.26416,0.0693359,-0.607361,0.745972
1470344227471237,-0.264587,0.0696411,-0.603455,0.748962
1470344227492759,-0.263062,0.071106,-0.601318,0.75116
1470344227514780,-0.261047,0.0734863,-0.600403,0.752319
1470344227530793,-0.259399,0.0765381,-0.600281,0.752686
1470344227553815,-0.257202,0.079834,-0.601135,0.75238
1470344227574841,-0.253906,0.0826416,-0.603149,0.751587
1470344227590858,-0.249451,0.0847168,-0.606079,0.750488
1470344227612877,-0.245056,0.0863037,-0.609619,0.748901
1470344227633897,-0.242004,0.0881348,-0.613098,0.746826
1470344227650912,-0.23999,0.0897217,-0.616577,0.744446
1470344227673438,-0.238037,0.0906982,-0.619873,0.742188
1470344227693964,-0.235535,0.0908203,-0.62323,0.740173
1470344227710978,-0.231323,0.0889893,-0.626648,0.738831
1470344227732998,-0.22876,0.086853,-0.629761,0.737244
1470344227754016,-0.230042,0.0861816,-0.631409,0.735535
1470344227771050,-0.230652,0.0838013,-0.632385,0.734802
1470344227793077,-0.228882,0.0800781,-0.632629,0.735535
1470344227814098,-0.226318,0.076355,-0.633057,0.736328
1470344227831114,-0.22583,0.0737305,-0.633484,0.736389
1470344227853131,-0.227234,0.0715942,-0.633667,0.736023
1470344227874656,-0.229126,0.069397,-0.633118,0.736084
1470344227891171,-0.230896,0.0670166,-0.632385,0.736389
1470344227913691,-0.231995,0.064209,-0.632141,0.736511
1470344227934214,-0.232849,0.06073,-0.63269,0.736084
1470344227951230,-0.233887,0.0570068,-0.633911,0.734985
1470344227973250,-0.234192,0.0549927,-0.635559,0.733582
1470344227994269,-0.230774,0.0551147,-0.636475,0.733887
1470344228011284,-0.226013,0.0543213,-0.637146,0.734863
1470344228033317,-0.224915,0.0549927,-0.637817,0.734558
1470344228054337,-0.225342,0.0570679,-0.637939,0.734192
1470344228070350,-0.222717,0.0570068,-0.638306,0.734619
1470344228093371,-0.217834,0.0551147,-0.638977,0.735657
1470344228114389,-0.214172,0.0539551,-0.639282,0.736572
1470344228130412,-0.212585,0.053772,-0.639343,0.737
1470344228153437,-0.212219,0.0535889,-0.639404,0.737061
1470344228175455,-0.211609,0.0531006,-0.639343,0.737366
1470344228190468,-0.210327,0.0522461,-0.639343,0.737732
1470344228213489,-0.208801,0.0510864,-0.639526,0.738098
1470344228235518,-0.207458,0.0499878,-0.639404,0.738647
1470344228250532,-0.205994,0.0490723,-0.639282,0.739258
1470344228273552,-0.204346,0.0482788,-0.639282,0.739746
1470344228295572,-0.202698,0.0477295,-0.639465,0.740051
1470344228310585,-0.201172,0.0471802,-0.639587,0.740417
1470344228333617,-0.199707,0.0466309,-0.639771,0.740723
1470344228355636,-0.198608,0.0462646,-0.639771,0.741028
1470344228369649,-0.197693,0.0460205,-0.639771,0.741272
1470344228393674,-0.197205,0.0458374,-0.639832,0.741333
1470344228415690,-0.196838,0.0457153,-0.639954,0.741394
1470344228430208,-0.196838,0.0457153,-0.639954,0.741394
1470344228453734,-0.197144,0.0462646,-0.639832,0.741333
1470344228475753,-0.197327,0.0467529,-0.639893,0.741211
1470344228489765,-0.197083,0.046936,-0.640015,0.74115
1470344228513787,-0.196777,0.0472412,-0.640137,0.741089
1470344228535484,-0.196472,0.0473022,-0.640381,0.740967
1470344228550498,-0.196411,0.0477905,-0.640686,0.740723
1470344228579524,-0.196594,0.048584,-0.64093,0.740417
1470344228595539,-0.196716,0.0491943,-0.641113,0.740173
1470344228610553,-0.196533,0.0494385,-0.641357,0.73999
1470344228633649,-0.196533,0.0498047,-0.641785,0.739624
1470344228655669,-0.196777,0.050415,-0.642029,0.739319
1470344228676688,-0.196899,0.0509033,-0.642273,0.739014
1470344228693704,-0.196838,0.0512695,-0.642517,0.73877
1470344228715724,-0.196838,0.0515747,-0.6427,0.738586
1470344228737251,-0.196838,0.0519409,-0.642944,0.738342
1470344228753267,-0.197144,0.0523071,-0.643188,0.738037
1470344228776287,-0.197571,0.0527954,-0.643372,0.737793
1470344228797305,-0.197998,0.0533447,-0.643372,0.737549
1470344228813321,-0.198303,0.053772,-0.643494,0.737366
1470344228835947,-0.198303,0.053772,-0.643494,0.737366
1470344228856967,-0.198303,0.053772,-0.643494,0.737366
1470344228872981,-0.198364,0.053833,-0.643555,0.737305
1470344228896004,-0.198547,0.0540161,-0.643616,0.737183
1470344228917019,-0.198853,0.0540771,-0.643616,0.737061
1470344228933041,-0.199219,0.0541992,-0.643677,0.736938
1470344228956308,-0.199524,0.0542603,-0.643738,0.736755
1470344228977327,-0.199463,0.0542603,-0.643738,0.736816
1470344228993342,-0.199829,0.0543213,-0.643738,0.736694
1470344229015362,-0.200195,0.0542603,-0.643738,0.736633
1470344229036388,-0.200195,0.0543213,-0.643738,0.736633
1470344229053404,-0.200195,0.0543213,-0.643738,0.736633
1470344229075423,-0.200439,0.0545654,-0.643738,0.736511
1470344229098445,-0.200439,0.0545654,-0.643738,0.736511
1470344229113461,-0.200439,0.0545654,-0.643738,0.736511
1470344229135492,-0.2005,0.0545654,-0.64386,0.736389
1470344229158512,-0.200684,0.0546265,-0.644043,0.736206
1470344229173526,-0.200928,0.0547485,-0.644226,0.735962
1470344229203553,-0.20105,0.0547485,-0.644409,0.735779
1470344229218574,-0.20105,0.0546265,-0.644531,0.735596
1470344229233586,-0.200989,0.0543823,-0.644714,0.735474
1470344229255613,-0.200989,0.0543823,-0.644714,0.735535
1470344229278634,-0.20105,0.0541992,-0.644714,0.735474
1470344229292645,-0.200989,0.0539551,-0.644714,0.735535
1470344229315667,-0.200989,0.0539551,-0.644714,0.735535
1470344229338301,-0.200928,0.053772,-0.644714,0.735596
1470344229352314,-0.200928,0.053772,-0.644714,0.735596
1470344229375335,-0.200928,0.053772,-0.644714,0.735596
1470344229398355,-0.200928,0.053772,-0.644714,0.735596
1470344229419380,-0.200928,0.053772,-0.644714,0.735596
1470344229436899,-0.200928,0.053772,-0.644714,0.735596
1470344229457918,-0.200928,0.053833,-0.644714,0.735596
1470344229472932,-0.200928,0.053833,-0.644714,0.735596
1470344229495952,-0.200867,0.053833,-0.644714,0.735596
1470344229518481,-0.200867,0.053833,-0.644714,0.735596
1470344229532994,-0.200867,0.053833,-0.644714,0.735596
1470344229556022,-0.200867,0.053833,-0.644714,0.735596
1470344229586048,-0.200806,0.053833,-0.644714,0.735596
1470344229592052,-0.200806,0.053894,-0.644714,0.735596
1470344229616074,-0.200806,0.053894,-0.644714,0.735596
1470344229638747,-0.200623,0.053772,-0.644714,0.735657
1470344229659765,-0.2005,0.0535889,-0.644714,0.735718
1470344229675780,-0.200439,0.0535889,-0.644714,0.735718
1470344229698801,-0.200439,0.0535889,-0.644714,0.735718
1470344229719827,-0.200439,0.0535889,-0.644714,0.735779
1470344229736346,-0.200439,0.0536499,-0.644714,0.735779
1470344229758367,-0.200134,0.0534668,-0.644592,0.735901
1470344229779386,-0.200134,0.0535278,-0.644592,0.735901
1470344229795398,-0.200134,0.0535278,-0.644592,0.735901
1470344229818418,-0.199463,0.0533447,-0.644226,0.736389
1470344229839445,-0.199219,0.0531616,-0.643616,0.737
1470344229855462,-0.199463,0.0533447,-0.643311,0.737244
1470344229878482,-0.199463,0.0533447,-0.643311,0.737244
1470344229899501,-0.199402,0.0532837,-0.643311,0.737244
1470344229915514,-0.199219,0.0530396,-0.643372,0.737244
1470344229938545,-0.199219,0.0530396,-0.643372,0.737244
1470344229959563,-0.199585,0.0531616,-0.643433,0.737122
1470344229975580,-0.199829,0.0532837,-0.643433,0.737061
1470344229998599,-0.199951,0.0534058,-0.643372,0.737061
1470344230019621,-0.200073,0.0537109,-0.643433,0.736938
1470344230035639,-0.200134,0.0540161,-0.643494,0.736877
1470344230058660,-0.200439,0.0546265,-0.64325,0.736938
1470344230080679,-0.200745,0.0552979,-0.643066,0.737
1470344230095694,-0.200989,0.0560913,-0.6427,0.737183
1470344230118714,-0.201355,0.0570068,-0.642334,0.737305
1470344230140744,-0.201599,0.0575562,-0.642212,0.737305
1470344230155758,-0.202393,0.0581665,-0.642151,0.737122
1470344230178779,-0.202881,0.0584717,-0.64209,0.736938
1470344230200798,-0.202881,0.059021,-0.642029,0.737
1470344230214811,-0.203003,0.0596924,-0.642029,0.736877
1470344230237841,-0.203552,0.0606079,-0.641846,0.736816
1470344230260863,-0.205383,0.0619507,-0.641663,0.736389
1470344230274876,-0.206909,0.0628662,-0.641296,0.736206
1470344230297896,-0.207153,0.0626221,-0.640808,0.736572
1470344230320920,-0.205872,0.0614624,-0.640686,0.737122
1470344230334934,-0.204285,0.0600586,-0.640686,0.737732
1470344230357959,-0.203613,0.0594482,-0.640564,0.738037
1470344230380980,-0.203735,0.0596313,-0.640259,0.73822
1470344230394994,-0.204407,0.0604248,-0.639893,0.738342
1470344230418014,-0.204773,0.0610962,-0.639587,0.738403
1470344230441047,-0.204468,0.0614624,-0.639465,0.738586
1470344230455059,-0.203552,0.0616455,-0.639709,0.738647
1470344230478081,-0.203552,0.062439,-0.639771,0.738525
1470344230501101,-0.204224,0.0636597,-0.639526,0.738403
1470344230515114,-0.204529,0.0645142,-0.639282,0.738464
1470344230538145,-0.204346,0.0650024,-0.639038,0.738647
1470344230561167,-0.203369,0.0648804,-0.638916,0.739075
1470344230582185,-0.202759,0.0648804,-0.638794,0.739319
1470344230598201,-0.203186,0.0657349,-0.63855,0.73938
1470344230621229,-0.203918,0.0666504,-0.637939,0.739563
1470344230642252,-0.203491,0.0664673,-0.637817,0.739807
1470344230658267,-0.202332,0.0665894,-0.637756,0.740234
1470344230681287,-0.202576,0.0670776,-0.637573,0.740295
1470344230702307,-0.203735,0.0678101,-0.637268,0.740112
1470344230719322,-0.204285,0.0684814,-0.636902,0.740234
1470344230741351,-0.204529,0.0692139,-0.636597,0.740356
1470344230762370,-0.205261,0.0700684,-0.636169,0.740479
1470344230778384,-0.205811,0.0708008,-0.635681,0.740601
1470344230800403,-0.205566,0.0706787,-0.635254,0.741028
1470344230823431,-0.204468,0.0700073,-0.63501,0.741638
1470344230838452,-0.203369,0.0693359,-0.634705,0.742249
1470344230860471,-0.202759,0.0688477,-0.634521,0.742615
1470344230882490,-0.202881,0.0692749,-0.634399,0.742737
1470344230898506,-0.203491,0.0700684,-0.634277,0.742554
1470344230921030,-0.204346,0.0709839,-0.634094,0.742371
1470344230941554,-0.205017,0.0717163,-0.63385,0.74231
1470344230958569,-0.2052,0.0722656,-0.633667,0.742371
1470344230980589,-0.20459,0.0720825,-0.633484,0.742737
1470344230986594,-0.203369,0.071167,-0.633606,0.743103
1470344231008614,-0.202393,0.0706177,-0.633728,0.743286
1470344231024133,-0.202271,0.0706177,-0.633728,0.743286
1470344231046657,-0.202576,0.0709839,-0.633606,0.743286
1470344231068677,-0.202576,0.0709839,-0.633606,0.743286
1470344231083691,-0.202393,0.0708008,-0.633606,0.743408
1470344231106711,-0.202087,0.0706787,-0.633545,0.743469
1470344231129240,-0.202087,0.0706787,-0.633545,0.743469
1470344231143762,-0.202148,0.0710449,-0.633484,0.743469
1470344231165781,-0.202148,0.0710449,-0.633484,0.743469
1470344231188802,-0.201904,0.0709229,-0.633484,0.743591
1470344231204816,-0.201233,0.0708618,-0.633423,0.743835
1470344231226341,-0.201172,0.0708618,-0.633423,0.743835
1470344231248867,-0.201172,0.0708618,-0.633423,0.743835
1470344231263884,-0.201172,0.071167,-0.63324,0.743958
1470344231285900,-0.200928,0.0715942,-0.633118,0.744141
1470344231308920,-0.200378,0.0717773,-0.632935,0.744385
1470344231323938,-0.200134,0.0722046,-0.632507,0.744751
1470344231345964,-0.200073,0.0725708,-0.632324,0.744873
1470344231368984,-0.200195,0.072937,-0.632141,0.744995
1470344231383997,-0.200317,0.0731201,-0.632019,0.745056
1470344231406017,-0.200439,0.0732422,-0.631775,0.745178
1470344231429044,-0.2005,0.0732422,-0.631775,0.745178
1470344231444063,-0.2005,0.0732422,-0.631775,0.745178
1470344231474090,-0.200439,0.0733032,-0.631775,0.745178
1470344231489103,-0.200439,0.0733032,-0.631775,0.745178
1470344231504116,-0.200439,0.0733032,-0.631775,0.745178
1470344231526641,-0.200439,0.0733032,-0.631775,0.745239
1470344231549165,-0.200439,0.0733643,-0.631775,0.745239
1470344231565181,-0.200439,0.0733643,-0.631775,0.745239
1470344231586200,-0.200439,0.0733643,-0.631714,0.745239
1470344231609220,-0.200439,0.0734253,-0.631714,0.745239
1470344231625240,-0.200562,0.0736694,-0.631653,0.745239
1470344231646265,-0.200867,0.0741577,-0.631592,0.745178
1470344231668286,-0.200928,0.0744019,-0.631531,0.745117
1470344231691307,-0.200928,0.0744629,-0.631531,0.745117
1470344231706319,-0.200928,0.0744629,-0.631531,0.745117
1470344231728849,-0.200928,0.0744629,-0.631531,0.745117
1470344231745370,-0.200867,0.0745239,-0.631531,0.745117
1470344231766389,-0.200867,0.0745239,-0.631531,0.745178
1470344231788407,-0.200867,0.0745239,-0.631531,0.745178
1470344231805423,-0.200867,0.074585,-0.631531,0.745178
1470344231826448,-0.200867,0.074585,-0.631531,0.745178
1470344231848473,-0.20105,0.0748901,-0.63147,0.745117
1470344231865487,-0.201355,0.0752563,-0.63147,0.744995
1470344231886505,-0.201538,0.0754395,-0.63147,0.744934
1470344231908524,-0.201538,0.0754395,-0.63147,0.744934
1470344231925546,-0.201477,0.0754395,-0.63147,0.744934
1470344231946571,-0.201477,0.0754395,-0.63147,0.744934
1470344231968590,-0.201416,0.0755005,-0.63147,0.744995
1470344231986606,-0.20166,0.0757446,-0.631348,0.744934
1470344232006624,-0.201965,0.0758667,-0.631287,0.744934
1470344232029149,-0.202026,0.0758667,-0.631287,0.744934
1470344232046670,-0.201721,0.0757446,-0.631165,0.745117
1470344232066687,-0.20166,0.0757446,-0.631165,0.745117
1470344232088707,-0.201904,0.0759888,-0.631042,0.745178
1470344232106724,-0.201904,0.0760498,-0.630981,0.745178
1470344232126748,-0.202087,0.0762329,-0.630981,0.745117
1470344232148773,-0.202454,0.076416,-0.63092,0.745056
1470344232166789,-0.202698,0.0766602,-0.630859,0.744995
1470344232185808,-0.202698,0.0766602,-0.630859,0.744995
1470344232208828,-0.202759,0.0767822,-0.630859,0.744995
1470344232226849,-0.20282,0.0770874,-0.630798,0.744995
1470344232245870,-0.203125,0.0775146,-0.630737,0.744934
1470344232268889,-0.203491,0.0778809,-0.630615,0.744873
1470344232286906,-0.203491,0.0779419,-0.630615,0.744873
1470344232305922,-0.203491,0.0779419,-0.630615,0.744873
1470344232328949,-0.203674,0.0782471,-0.630554,0.744873
1470344232346971,-0.203979,0.0786133,-0.630432,0.744812
1470344232365988,-0.204102,0.0787964,-0.630432,0.744812
1470344232389008,-0.204041,0.0787964,-0.630432,0.744812
1470344232408027,-0.204041,0.0788574,-0.630432,0.744812
1470344232426551,-0.204041,0.0788574,-0.630432,0.744812
1470344232449079,-0.204041,0.0789185,-0.630371,0.744812
1470344232467093,-0.204041,0.0789185,-0.630371,0.744812
1470344232488111,-0.204041,0.0789185,-0.630371,0.744812
1470344232509129,-0.204041,0.0789795,-0.630371,0.744812
1470344232534658,-0.204041,0.0789795,-0.630371,0.744812
1470344232547172,-0.204041,0.0790405,-0.630371,0.744812
1470344232569192,-0.204041,0.0790405,-0.630371,0.744812
1470344232586207,-0.203979,0.0790405,-0.630371,0.744812
1470344232607227,-0.203979,0.0790405,-0.630371,0.744812
1470344232629255,-0.203979,0.0790405,-0.63031,0.744873
1470344232646276,-0.203979,0.0790405,-0.63031,0.744873
1470344232667294,-0.203979,0.0790405,-0.63031,0.744873
1470344232689313,-0.203796,0.0789185,-0.63031,0.744995
1470344232706330,-0.203796,0.0789185,-0.63031,0.744995
1470344232727855,-0.203796,0.0789185,-0.63031,0.744995
1470344232748379,-0.203796,0.0789185,-0.63031,0.744995
1470344232767396,-0.203796,0.0789795,-0.630249,0.744995
1470344232787413,-0.203796,0.0789795,-0.630249,0.744995
1470344232808432,-0.203796,0.0790405,-0.630249,0.744995
1470344232826955,-0.203796,0.0790405,-0.630249,0.744995
1470344232847480,-0.203796,0.0791016,-0.630249,0.744995
1470344232868498,-0.203796,0.0791016,-0.630249,0.744995
1470344232886515,-0.203918,0.0792236,-0.630249,0.744934
1470344232909535,-0.204224,0.0794067,-0.630249,0.744873
1470344232936563,-0.204163,0.0794678,-0.630249,0.744873
1470344232946578,-0.204163,0.0794678,-0.630249,0.744873
1470344232969598,-0.204163,0.0794678,-0.630249,0.744873
1470344232988616,-0.204102,0.0794678,-0.630249,0.744873
1470344233006633,-0.204102,0.0795288,-0.630249,0.744873
1470344233029658,-0.204102,0.0795288,-0.630249,0.744873
1470344233048681,-0.204102,0.0795288,-0.630188,0.744873
1470344233072702,-0.204102,0.0795288,-0.630188,0.744873
1470344233088716,-0.204102,0.0795898,-0.630188,0.744873
1470344233108734,-0.204102,0.0795898,-0.630188,0.744873
1470344233126754,-0.204041,0.0796509,-0.630188,0.744873
1470344233149308,-0.204041,0.0796509,-0.630188,0.744873
1470344233168324,-0.204041,0.0796509,-0.630188,0.744873
1470344233185339,-0.204041,0.0797119,-0.630188,0.744873
1470344233208361,-0.204041,0.0797119,-0.630188,0.744873
1470344233229885,-0.204041,0.0797729,-0.630188,0.744934
1470344233245903,-0.204285,0.0800171,-0.630127,0.744873
1470344233268925,-0.204285,0.0800781,-0.630127,0.744873
1470344233289943,-0.204285,0.0800781,-0.630127,0.744873
1470344233305958,-0.204285,0.0801392,-0.630066,0.744873
1470344233328984,-0.204285,0.079895,-0.630188,0.744812
1470344233349574,-0.204224,0.079895,-0.630249,0.744812
1470344233365586,-0.204346,0.079895,-0.630188,0.744812
1470344233388608,-0.204346,0.079895,-0.630188,0.744812
1470344233409627,-0.204285,0.079895,-0.630188,0.744812
1470344233426146,-0.204285,0.079895,-0.630188,0.744812
1470344233448168,-0.204285,0.0799561,-0.630188,0.744812
1470344233469187,-0.204285,0.0799561,-0.630188,0.744812
1470344233486205,-0.204285,0.0799561,-0.630188,0.744812
1470344233508222,-0.204224,0.0799561,-0.630188,0.744812
1470344233529747,-0.204224,0.0800171,-0.630188,0.744812
1470344233546265,-0.204102,0.079895,-0.630005,0.744995
1470344233568284,-0.203857,0.0796509,-0.629822,0.745239
1470344233589303,-0.203613,0.0794067,-0.6297,0.745483
1470344233606319,-0.203674,0.0792236,-0.629639,0.745544
1470344233628845,-0.203735,0.0789795,-0.629639,0.745544
1470344233649368,-0.203247,0.0786133,-0.629639,0.745728
1470344233666382,-0.203003,0.0784302,-0.629578,0.74585
1470344233688404,-0.203003,0.0784302,-0.629578,0.74585
1470344233709421,-0.202942,0.0784912,-0.629578,0.74585
1470344233726441,-0.202942,0.0785522,-0.629578,0.74585
1470344233748468,-0.202942,0.0786133,-0.629578,0.74585
1470344233769487,-0.202698,0.0785522,-0.6297,0.745789
1470344233785500,-0.202698,0.0785522,-0.6297,0.745789
1470344233808521,-0.202637,0.0785522,-0.6297,0.745789
1470344233830046,-0.202515,0.0782471,-0.629578,0.745972
1470344233845568,-0.202454,0.0782471,-0.629395,0.746155
1470344233868588,-0.202698,0.0784912,-0.629211,0.746216
1470344233890611,-0.202698,0.0785522,-0.629211,0.746216
1470344233905621,-0.202759,0.0785522,-0.629211,0.746216
1470344233928657,-0.202454,0.0783691,-0.629211,0.746277
1470344233950682,-0.201843,0.0784302,-0.629089,0.746582
1470344233965695,-0.201233,0.0791626,-0.628784,0.746887
1470344233988717,-0.200623,0.0802002,-0.628479,0.747192
1470344234010736,-0.200745,0.0808105,-0.628113,0.747437
1470344234025258,-0.20105,0.0800781,-0.62793,0.747559
1470344234048796,-0.200623,0.0791016,-0.627808,0.747925
1470344234070815,-0.199341,0.078186,-0.627991,0.748169
1470344234084840,-0.199219,0.078186,-0.628113,0.748108
1470344234108851,-0.200317,0.0792236,-0.627991,0.747803
1470344234131377,-0.202026,0.0802002,-0.628113,0.747131
1470344234144898,-0.201721,0.0792847,-0.62854,0.746948
1470344234167919,-0.200745,0.078125,-0.628906,0.747009
1470344234190937,-0.198669,0.0784302,-0.628418,0.747986
1470344234212958,-0.198486,0.0784912,-0.628418,0.748047
1470344234228977,-0.199585,0.0788574,-0.628296,0.747742
1470344234251000,-0.199585,0.0789185,-0.628296,0.747742
1470344234265012,-0.199036,0.078186,-0.628235,0.748047
1470344234288033,-0.199219,0.0775757,-0.628052,0.74823
1470344234311054,-0.2005,0.0773315,-0.627625,0.748291
1470344234326071,-0.201416,0.0770264,-0.627563,0.748047
1470344234348694,-0.201233,0.0766602,-0.627991,0.747864
1470344234370714,-0.200562,0.0765991,-0.627869,0.748108
1470344234391734,-0.201416,0.0778809,-0.627625,0.747986
1470344234408749,-0.201965,0.0786133,-0.627991,0.747437
1470344234431274,-0.201355,0.0776367,-0.62854,0.747253
1470344234452296,-0.200378,0.0776978,-0.628479,0.747559
1470344234468310,-0.19989,0.0783691,-0.628113,0.747925
1470344234491331,-0.200562,0.0779419,-0.62793,0.747925
1470344234512351,-0.200684,0.0779419,-0.627686,0.748108
1470344234528369,-0.200623,0.0780029,-0.627686,0.748108
1470344234551131,-0.200684,0.0778198,-0.627869,0.747986
1470344234572151,-0.200928,0.0782471,-0.627625,0.748047
1470344234588163,-0.201233,0.0786133,-0.627502,0.748047
1470344234611185,-0.201538,0.0786133,-0.627563,0.747925
1470344234632208,-0.201843,0.0786133,-0.627563,0.747803
1470344234648226,-0.201843,0.0785522,-0.627563,0.747803
1470344234671247,-0.202087,0.0787964,-0.627563,0.747742
1470344234692265,-0.202393,0.0791626,-0.627441,0.747681
1470344234708280,-0.202698,0.0795898,-0.627258,0.747742
1470344234731306,-0.202881,0.0799561,-0.627136,0.747742
1470344234752329,-0.202881,0.0799561,-0.627136,0.747742
1470344234768346,-0.202881,0.0799561,-0.627136,0.747742
1470344234791364,-0.202759,0.0801392,-0.626953,0.747925
1470344234813389,-0.202759,0.0805054,-0.62677,0.748047
1470344234828903,-0.202759,0.0805054,-0.62677,0.748047
1470344234851274,-0.202454,0.0806885,-0.626648,0.74823
1470344234881300,-0.202209,0.0808716,-0.626587,0.748291
1470344234888305,-0.201721,0.0810547,-0.62677,0.748291
1470344234911327,-0.200989,0.0814209,-0.62677,0.748413
1470344234933850,-0.2005,0.081543,-0.62677,0.748535
1470344234947365,-0.199951,0.0817261,-0.626831,0.748657
1470344234971387,-0.199585,0.0820923,-0.626892,0.748596
1470344234993408,-0.199585,0.0820923,-0.626892,0.748596
1470344235007420,-0.199707,0.0823975,-0.626953,0.748535
1470344235030948,-0.200317,0.0830078,-0.626953,0.74823
1470344235053471,-0.20105,0.0836182,-0.626831,0.748108
1470344235067485,-0.201294,0.0838013,-0.626648,0.74823
1470344235090505,-0.201233,0.0835571,-0.626587,0.748291
1470344235113528,-0.200928,0.083374,-0.626526,0.748413
1470344235128042,-0.200989,0.0834961,-0.626526,0.748413
1470344235150566,-0.201294,0.0838623,-0.626526,0.748291
1470344235173587,-0.20166,0.0843506,-0.626404,0.74823
1470344235187600,-0.20166,0.0844116,-0.626404,0.74823
1470344235210621,-0.201233,0.0841675,-0.626404,0.748352
1470344235233648,-0.200989,0.0838623,-0.626526,0.748352
1470344235247582,-0.200989,0.0838623,-0.626526,0.748352
1470344235270602,-0.200989,0.0839233,-0.626465,0.748352
1470344235293619,-0.20105,0.0839233,-0.626465,0.748352
1470344235314655,-0.200806,0.0837402,-0.626404,0.748535
1470344235331171,-0.200378,0.0836792,-0.626343,0.748657
1470344235353710,-0.200195,0.0841675,-0.626221,0.748779
1470344235374743,-0.2005,0.0845337,-0.625916,0.748901
1470344235390743,-0.200073,0.0842896,-0.625916,0.749023
1470344235413764,-0.199219,0.0838013,-0.626099,0.749146
1470344235434804,-0.199036,0.0835571,-0.626282,0.749084
1470344235454817,-0.199158,0.0835571,-0.626343,0.749023
1470344235473832,-0.19928,0.0835571,-0.626282,0.749023
1470344235494850,-0.199341,0.0834351,-0.626221,0.749084
1470344235510866,-0.19928,0.0834351,-0.626221,0.749084
1470344235533890,-0.19928,0.0834351,-0.626221,0.749084
1470344235554913,-0.199646,0.0836182,-0.62616,0.749084
1470344235570926,-0.199646,0.0836792,-0.62616,0.749084
1470344235592946,-0.199524,0.0835571,-0.626099,0.749146
1470344235614967,-0.199341,0.083252,-0.626221,0.749084
1470344235630986,-0.199463,0.083374,-0.626221,0.749084
1470344235653010,-0.199829,0.0835571,-0.626099,0.749023
1470344235674029,-0.199829,0.0836182,-0.626099,0.749023
1470344235691045,-0.199707,0.0834961,-0.626038,0.749146
1470344235714065,-0.199707,0.0834961,-0.626038,0.749146
1470344235734591,-0.199646,0.0831909,-0.626099,0.749146
1470344235751110,-0.199585,0.0830688,-0.626038,0.749207
1470344235773129,-0.199707,0.0830078,-0.626038,0.749207
1470344235802155,-0.19989,0.0830078,-0.626038,0.749146
1470344235811164,-0.19989,0.0830078,-0.626038,0.749146
1470344235833690,-0.19989,0.0830078,-0.626038,0.749146
1470344235856216,-0.19989,0.0830078,-0.626038,0.749146
1470344235871230,-0.19989,0.0830688,-0.626038,0.749146
1470344235893249,-0.199768,0.0828247,-0.625977,0.749268
1470344235916270,-0.199585,0.0827026,-0.626038,0.749268
1470344235930288,-0.199524,0.0827026,-0.626038,0.749268
1470344235953837,-0.199524,0.0827637,-0.626038,0.749268
1470344235975857,-0.199585,0.0827026,-0.62616,0.749146
1470344235989867,-0.199585,0.0826416,-0.626404,0.748962
1470344236013889,-0.199585,0.0827637,-0.626587,0.748779
1470344236035913,-0.199768,0.0830078,-0.626709,0.748596
1470344236050431,-0.199951,0.083252,-0.62677,0.748474
1470344236073451,-0.200012,0.083252,-0.62677,0.748474
1470344236096474,-0.199646,0.0830078,-0.626892,0.748535
1470344236110485,-0.199585,0.0830688,-0.626892,0.748535
1470344236133525,-0.199707,0.0830688,-0.626831,0.748535
1470344236155467,-0.199707,0.0830688,-0.626831,0.748535
1470344236170482,-0.199524,0.0829468,-0.626892,0.748535
1470344236193503,-0.199524,0.0829468,-0.626892,0.748535
1470344236215521,-0.199524,0.0829468,-0.626892,0.748535
1470344236230539,-0.199585,0.0828857,-0.626648,0.748718
1470344236253565,-0.199524,0.0826416,-0.626526,0.748901
1470344236275584,-0.198425,0.0819702,-0.626526,0.749268
1470344236296605,-0.197632,0.0812378,-0.626099,0.749878
1470344236313621,-0.197815,0.0811768,-0.625488,0.750366
1470344236336144,-0.198792,0.081543,-0.625183,0.750305
1470344236356668,-0.199829,0.081543,-0.625183,0.75
1470344236373684,-0.202148,0.081665,-0.625244,0.74939
1470344236395705,-0.206116,0.0820923,-0.625183,0.74823
1470344236416727,-0.211243,0.083313,-0.625122,0.746765
1470344236433752,-0.216064,0.0845947,-0.62439,0.74585
1470344236455777,-0.220398,0.0855713,-0.623535,0.745178
1470344236476796,-0.226929,0.0864868,-0.621216,0.745056
1470344236493812,-0.237671,0.086853,-0.61853,0.743896
1470344236515831,-0.245239,0.0856323,-0.613953,0.745361
1470344236537356,-0.245422,0.0797119,-0.60675,0.751831
1470344236553875,-0.244812,0.074646,-0.59314,0.763306
1470344236575895,-0.246643,0.0709229,-0.575989,0.776123
1470344236596914,-0.251587,0.0678711,-0.556213,0.789124
1470344236612930,-0.257446,0.0646362,-0.533752,0.802856
1470344236635955,-0.264954,0.0621948,-0.510559,0.815613
1470344236656980,-0.27179,0.0583496,-0.488037,0.827393
1470344236672993,-0.277954,0.0531616,-0.467285,0.837585
1470344236696014,-0.283081,0.0482788,-0.448669,0.846313
1470344236718034,-0.285889,0.0444946,-0.432068,0.854126
1470344236733065,-0.289551,0.0405884,-0.41803,0.860107
1470344236756103,-0.293579,0.0376587,-0.40686,0.864197
1470344236778121,-0.297791,0.0365601,-0.398376,0.86676
1470344236801143,-0.300232,0.0363159,-0.3927,0.86853
1470344236816155,-0.301086,0.0360107,-0.389893,0.869446
1470344236838679,-0.30188,0.0350342,-0.388916,0.86969
1470344236861205,-0.302917,0.0335693,-0.388916,0.869385
1470344236876217,-0.301697,0.0308228,-0.389465,0.86969
1470344236898237,-0.297852,0.0272217,-0.390259,0.870789
1470344236913250,-0.294434,0.0245361,-0.390747,0.871765
1470344236936274,-0.293579,0.0246582,-0.390686,0.872131
1470344236958300,-0.293701,0.027832,-0.390198,0.872192
1470344236979318,-0.293701,0.0311279,-0.390259,0.87207
1470344236996334,-0.291504,0.0322266,-0.392944,0.871521
1470344237018353,-0.288147,0.0340576,-0.397461,0.870544
1470344237039877,-0.283203,0.0374756,-0.403564,0.869202
1470344237056397,-0.276367,0.041748,-0.412354,0.867065
1470344237078418,-0.267578,0.0474854,-0.424622,0.863586
1470344237099436,-0.256226,0.0540771,-0.43988,0.859009
1470344237115450,-0.243652,0.0603638,-0.457336,0.853149
1470344237138477,-0.235596,0.0646362,-0.477051,0.844238
1470344237159499,-0.231384,0.0693359,-0.497864,0.832947
1470344237175512,-0.229187,0.074585,-0.518372,0.820496
1470344237198533,-0.228943,0.0800781,-0.537964,0.807312
1470344237219553,-0.229309,0.0852051,-0.55603,0.794373
1470344237236072,-0.227112,0.0874634,-0.572937,0.782593
1470344237258153,-0.223083,0.085144,-0.588379,0.772522
1470344237279174,-0.221924,0.0809326,-0.602295,0.762512
1470344237296188,-0.222717,0.076416,-0.613647,0.753662
1470344237318207,-0.225403,0.0724487,-0.620789,0.747375
1470344237339732,-0.23114,0.0718384,-0.622742,0.74408
1470344237355750,-0.236816,0.0690308,-0.623047,0.742249
1470344237378772,-0.237854,0.0634155,-0.623779,0.741821
1470344237399790,-0.234985,0.0584717,-0.624146,0.742798
1470344237415805,-0.229004,0.0534668,-0.625183,0.744202
1470344237438831,-0.223755,0.0492554,-0.625366,0.745911
1470344237459854,-0.222351,0.0460815,-0.624573,0.747192
1470344237475871,-0.223145,0.0429688,-0.623352,0.748169
1470344237498890,-0.224182,0.0405884,-0.621521,0.749573
1470344237519908,-0.22467,0.0390015,-0.620667,0.750183
1470344237535927,-0.224792,0.038208,-0.620422,0.750366
1470344237557950,-0.222839,0.0380859,-0.620239,0.75116
1470344237579974,-0.221191,0.0380859,-0.620544,0.751343
1470344237595985,-0.221069,0.0390015,-0.620972,0.751038
1470344237618005,-0.220093,0.039856,-0.620789,0.751404
1470344237641031,-0.21582,0.0393677,-0.621399,0.752136
1470344237655048,-0.212952,0.0388794,-0.622742,0.751892
1470344237678068,-0.213684,0.0393677,-0.623413,0.751099
1470344237701090,-0.216003,0.0407104,-0.623474,0.750305
1470344237715102,-0.218018,0.0422974,-0.623474,0.749634
1470344237738629,-0.218689,0.0430298,-0.62384,0.749084
1470344237761154,-0.218079,0.0427856,-0.62439,0.74884
1470344237776168,-0.217896,0.0426025,-0.624573,0.748779
1470344237798189,-0.21875,0.0429688,-0.624268,0.748779
1470344237821210,-0.219482,0.0432129,-0.62384,0.748901
1470344237835732,-0.219299,0.0426025,-0.623718,0.749023
1470344237858258,-0.218567,0.0415039,-0.623901,0.749207
1470344237881278,-0.217773,0.0406494,-0.624268,0.749146
1470344237895292,-0.217224,0.0397949,-0.624573,0.749146
1470344237918311,-0.216614,0.0393677,-0.625122,0.74884
1470344237941336,-0.215515,0.0384521,-0.625916,0.748535
1470344237946346,-0.21521,0.0377808,-0.626648,0.748047
1470344237962360,-0.215759,0.0379639,-0.627014,0.747559
1470344237983378,-0.215698,0.0377197,-0.627502,0.747192
1470344238006399,-0.213867,0.0372925,-0.627991,0.747314
1470344238022415,-0.213013,0.0373535,-0.628418,0.747192
1470344238043446,-0.214355,0.0383301,-0.628662,0.746582
1470344238066468,-0.21582,0.039978,-0.628784,0.745972
1470344238082482,-0.217224,0.0415649,-0.628601,0.745605
1470344238103501,-0.217529,0.0418091,-0.628418,0.745667
1470344238126522,-0.217041,0.0411377,-0.628479,0.745789
1470344238142541,-0.216003,0.0411987,-0.62854,0.746033
1470344238163565,-0.216187,0.0422363,-0.628357,0.746094
1470344238186587,-0.216858,0.0444336,-0.627808,0.746216
1470344238202600,-0.217041,0.0462646,-0.627808,0.746094
1470344238223621,-0.217041,0.046936,-0.628052,0.745789
1470344238246656,-0.216431,0.0480957,-0.627808,0.746155
1470344238262668,-0.213989,0.0484009,-0.627136,0.747375
1470344238283685,-0.211609,0.0494995,-0.626221,0.748779
1470344238306706,-0.208984,0.0513306,-0.625427,0.75
1470344238322721,-0.206787,0.0532227,-0.624756,0.751038
1470344238343749,-0.206482,0.0547485,-0.62384,0.75177
1470344238366768,-0.20813,0.0545654,-0.622437,0.752502
1470344238382783,-0.209778,0.0515747,-0.62146,0.753052
1470344238403802,-0.210754,0.0465698,-0.620911,0.75354
1470344238425822,-0.212036,0.0411987,-0.620789,0.753662
1470344238444371,-0.213135,0.036499,-0.621338,0.753113
1470344238465390,-0.212524,0.0342407,-0.62262,0.75238
1470344238489413,-0.210754,0.0343628,-0.623352,0.752258
1470344238504425,-0.2099,0.0358276,-0.623779,0.752014
1470344238523443,-0.210999,0.038147,-0.624146,0.751343
1470344238545972,-0.211243,0.0404663,-0.624695,0.750671
1470344238563988,-0.209106,0.0410767,-0.62561,0.750488
1470344238584006,-0.206421,0.0414429,-0.626648,0.750305
1470344238606025,-0.204468,0.0424194,-0.627502,0.750122
1470344238624040,-0.20343,0.043396,-0.628052,0.749817
1470344238644071,-0.202148,0.0440063,-0.628479,0.749817
1470344238666091,-0.200745,0.0444946,-0.628723,0.749939
1470344238684108,-0.200012,0.0448608,-0.628906,0.75
1470344238704128,-0.198853,0.0443115,-0.629028,0.750183
1470344238726145,-0.196899,0.0427246,-0.629028,0.750793
1470344238744179,-0.195618,0.0418701,-0.628906,0.751282
1470344238764197,-0.195313,0.0415649,-0.628601,0.751648
1470344238789216,-0.194031,0.0406494,-0.628662,0.751953
1470344238804230,-0.191895,0.0397339,-0.628723,0.752563
1470344238824248,-0.190247,0.0393677,-0.628845,0.752869
1470344238846280,-0.189453,0.0391235,-0.628967,0.75293
1470344238864292,-0.18866,0.0388184,-0.629272,0.75293
1470344238884310,-0.187378,0.0383911,-0.629639,0.752991
1470344238906331,-0.187012,0.0383911,-0.629639,0.753052
1470344238924350,-0.186096,0.0378418,-0.629395,0.75354
1470344238943950,-0.185425,0.0377197,-0.629211,0.753845
1470344238965968,-0.186096,0.038269,-0.629211,0.753662
1470344238983984,-0.187622,0.0388794,-0.629272,0.753174
1470344239004020,-0.188171,0.0388794,-0.629395,0.752991
1470344239026032,-0.187805,0.0385132,-0.629395,0.753052
1470344239044285,-0.187073,0.0378418,-0.629517,0.753174
1470344239064304,-0.187439,0.0380249,-0.629639,0.752991
1470344239086323,-0.188904,0.0387573,-0.6297,0.752502
1470344239104339,-0.189758,0.0392456,-0.629944,0.752075
1470344239124357,-0.189819,0.0392456,-0.629944,0.752075
1470344239146901,-0.189697,0.0391235,-0.629944,0.752136
1470344239163915,-0.189087,0.0385742,-0.630188,0.752075
1470344239183936,-0.188599,0.038147,-0.630554,0.751892
1470344239206952,-0.189209,0.0383911,-0.63092,0.751465
1470344239223968,-0.190002,0.0387573,-0.631104,0.751099
1470344239245167,-0.190552,0.0391235,-0.631165,0.750854
1470344239266103,-0.190613,0.0391846,-0.631042,0.750916
1470344239284118,-0.19043,0.0391846,-0.63092,0.751099
1470344239305152,-0.190369,0.0393677,-0.630798,0.751221
1470344239326155,-0.190613,0.039917,-0.630676,0.751221
1470344239343678,-0.191223,0.0406494,-0.630554,0.75116
1470344239365210,-0.191833,0.0412598,-0.630432,0.751038
1470344239386229,-0.192078,0.041687,-0.630432,0.750977
1470344239405228,-0.192383,0.0421143,-0.630371,0.750916
1470344239425245,-0.19281,0.0429077,-0.630432,0.750671
1470344239446294,-0.193359,0.0439453,-0.630371,0.750549
1470344239464312,-0.19397,0.0449829,-0.630188,0.750488
1470344239485328,-0.193787,0.045105,-0.630005,0.750671
1470344239506347,-0.192627,0.0448608,-0.630066,0.750916
1470344239524365,-0.192078,0.0449219,-0.630188,0.750977
1470344239546932,-0.191956,0.0452271,-0.630188,0.750977
1470344239565945,-0.191772,0.0455322,-0.630188,0.750977
1470344239583961,-0.191589,0.0457153,-0.630432,0.750854
1470344239606982,-0.191406,0.0456543,-0.630859,0.750549
1470344239625999,-0.191223,0.0455933,-0.631287,0.750183
1470344239649561,-0.191406,0.0459595,-0.631653,0.749817
1470344239666560,-0.191895,0.0464478,-0.631897,0.749451
1470344239686676,-0.191895,0.0466919,-0.632202,0.749207
1470344239704595,-0.191833,0.0469971,-0.632324,0.749084
1470344239726615,-0.191833,0.0469971,-0.632324,0.749084
1470344239746680,-0.191895,0.0472412,-0.632446,0.748962
1470344239764695,-0.191956,0.0475464,-0.632629,0.748779
1470344239786714,-0.191895,0.0480347,-0.632874,0.748535
1470344239806731,-0.191895,0.0485229,-0.633118,0.748352
1470344239824765,-0.191528,0.0488281,-0.633362,0.748169
1470344239846432,-0.191345,0.0490723,-0.633606,0.747986
1470344239866471,-0.19104,0.0496826,-0.633972,0.747742
1470344239884465,-0.191711,0.0510864,-0.634155,0.747314
1470344239906485,-0.192444,0.0521851,-0.634338,0.746887
1470344239926519,-0.19281,0.0526733,-0.634766,0.746399
1470344239944523,-0.19397,0.0527344,-0.635071,0.74585
1470344239966781,-0.195801,0.0526123,-0.635254,0.745239
1470344239986803,-0.196777,0.0524902,-0.635376,0.744873
1470344240003814,-0.196594,0.0516968,-0.635376,0.744995
1470344240026835,-0.195618,0.050354,-0.635437,0.7453
1470344240046563,-0.194458,0.0490112,-0.635376,0.745728
1470344240064541,-0.194397,0.0482178,-0.63501,0.746033
1470344240086560,-0.194458,0.0473633,-0.634827,0.746277
1470344240106616,-0.194153,0.0464478,-0.635315,0.746033
1470344240124639,-0.193848,0.0458984,-0.63562,0.74585
1470344240146059,-0.193787,0.0456543,-0.635803,0.745728
1470344240167081,-0.19458,0.0458374,-0.636047,0.745361
1470344240183092,-0.195496,0.0465698,-0.635986,0.745056
1470344240206113,-0.19574,0.0471802,-0.636108,0.744873
1470344240227172,-0.195251,0.0476074,-0.636353,0.744812
1470344240243660,-0.194519,0.0480347,-0.636536,0.744812
1470344240266182,-0.194092,0.0487061,-0.636719,0.74469
1470344240287204,-0.194397,0.0495605,-0.636963,0.744324
1470344240303216,-0.194702,0.0504761,-0.637268,0.743896
1470344240326237,-0.194824,0.0512085,-0.637695,0.743469
1470344240347373,-0.194946,0.0518799,-0.638123,0.743042
1470344240363299,-0.19519,0.0524292,-0.638428,0.742676
1470344240386318,-0.195435,0.0528564,-0.63855,0.742432
1470344240407369,-0.195801,0.0532227,-0.638611,0.74231
1470344240429863,-0.196167,0.0532837,-0.638672,0.742126
1470344240446386,-0.196411,0.0532837,-0.638794,0.742004
1470344240467425,-0.196838,0.0535889,-0.638855,0.741821
1470344240483418,-0.197266,0.053833,-0.638916,0.741638
1470344240505460,-0.197327,0.0540771,-0.638855,0.741638
1470344240528458,-0.197449,0.0543823,-0.638794,0.741638
1470344240542979,-0.197021,0.0542603,-0.638672,0.741821
1470344240566071,-0.196289,0.0540161,-0.638611,0.742126
1470344240588087,-0.195435,0.0540161,-0.638672,0.74231
1470344240603100,-0.194824,0.0543823,-0.638733,0.742371
1470344240632138,-0.19458,0.0545654,-0.638916,0.742249
1470344240648661,-0.194275,0.0544434,-0.63916,0.742126
1470344240662676,-0.193909,0.0543213,-0.639465,0.742004
1470344240685694,-0.193909,0.0541992,-0.639648,0.741821
1470344240708715,-0.19397,0.0541382,-0.639832,0.741638
1470344240723728,-0.194214,0.0542603,-0.639832,0.741577
1470344240745755,-0.194092,0.0543213,-0.639709,0.74176
1470344240768781,-0.19397,0.0541992,-0.639526,0.741882
1470344240782794,-0.193848,0.0541382,-0.639465,0.742004
1470344240805814,-0.193848,0.0541382,-0.639465,0.742004
1470344240828835,-0.194092,0.0543823,-0.639343,0.742004
1470344240843358,-0.194092,0.0546265,-0.639282,0.742065
1470344240865883,-0.194092,0.0546265,-0.639282,0.742065
1470344240888903,-0.194031,0.0546265,-0.639282,0.742065
1470344240910923,-0.193665,0.0547485,-0.639282,0.742188
1470344240925937,-0.193359,0.0550537,-0.639221,0.74231
1470344240948971,-0.192932,0.055603,-0.63916,0.742432
1470344240969988,-0.192566,0.0561523,-0.63916,0.742432
1470344240986003,-0.192261,0.0567627,-0.639343,0.74231
1470344241009023,-0.191895,0.0571289,-0.639587,0.742188
1470344241030043,-0.191345,0.0570679,-0.639832,0.742126
1470344241046067,-0.190918,0.0570068,-0.640015,0.742065
1470344241068091,-0.190857,0.0570068,-0.640015,0.742065
1470344241089111,-0.190857,0.0567627,-0.639954,0.742126
1470344241106128,-0.191162,0.0566406,-0.639832,0.742188
1470344241128145,-0.19165,0.0567017,-0.639648,0.742249
1470344241149175,-0.191956,0.0567017,-0.639465,0.74231
1470344241166190,-0.192261,0.0568237,-0.639282,0.742371
1470344241188211,-0.192261,0.0568237,-0.639282,0.742371
1470344241209230,-0.192261,0.0568237,-0.639282,0.742371
1470344241226245,-0.192261,0.0568848,-0.639282,0.742371
1470344241248274,-0.191895,0.0568848,-0.639343,0.742432
1470344241269292,-0.191406,0.0570068,-0.639404,0.742493
1470344241286309,-0.190918,0.057251,-0.639404,0.742554
1470344241308328,-0.190674,0.0575562,-0.639526,0.742493
1470344241329351,-0.190491,0.0577393,-0.639648,0.742432
1470344241346374,-0.190247,0.0577393,-0.639832,0.74231
1470344241374405,-0.190125,0.0577393,-0.640015,0.742188
1470344241389419,-0.190063,0.0577393,-0.640076,0.742188
1470344241406434,-0.190002,0.0577393,-0.640076,0.742249
1470344241428453,-0.189697,0.0574341,-0.639954,0.742371
1470344241458492,-0.189636,0.057373,-0.639771,0.742615
1470344241465498,-0.189758,0.0574951,-0.639526,0.742798
1470344241488522,-0.189819,0.0575562,-0.639282,0.742981
1470344241510541,-0.189697,0.0576782,-0.639099,0.743164
1470344241525553,-0.189697,0.0576782,-0.639038,0.743164
1470344241548605,-0.189636,0.0577393,-0.639038,0.743164
1470344241570623,-0.189636,0.0576782,-0.638977,0.743225
1470344241585637,-0.189575,0.0576782,-0.638977,0.743225
1470344241608658,-0.189819,0.0578003,-0.638977,0.743225
1470344241631183,-0.18988,0.0578003,-0.638977,0.743225
1470344241645696,-0.189575,0.0580444,-0.638977,0.743225
1470344241668724,-0.189453,0.0582275,-0.638977,0.743225
1470344241690744,-0.189514,0.0587158,-0.638977,0.743164
1470344241705757,-0.189636,0.0591431,-0.63916,0.742981
1470344241728779,-0.189453,0.0592651,-0.639465,0.742737
1470344241750807,-0.18927,0.059082,-0.639832,0.742493
1470344241765821,-0.189209,0.0587769,-0.640137,0.74231
1470344241788843,-0.189331,0.0584717,-0.640137,0.742249
1470344241818869,-0.189758,0.0582886,-0.640076,0.742188
1470344241824874,-0.190247,0.0582886,-0.639954,0.742249
1470344241848912,-0.190491,0.0581055,-0.639832,0.74231
1470344241870929,-0.190491,0.0580444,-0.639832,0.74231
1470344241884941,-0.190369,0.0584106,-0.639587,0.742493
1470344241908965,-0.190063,0.0587769,-0.639038,0.742981
1470344241931489,-0.190247,0.0592041,-0.638672,0.743225
1470344241952013,-0.18988,0.0588989,-0.638672,0.743347
1470344241969027,-0.189148,0.0584106,-0.638855,0.743469
1470344241991049,-0.188782,0.0581055,-0.638977,0.743469
1470344242012067,-0.189148,0.0582886,-0.638855,0.743408
1470344242028091,-0.189697,0.0583496,-0.638611,0.74353
1470344242051107,-0.189819,0.0580444,-0.638306,0.743774
1470344242072129,-0.189209,0.0574951,-0.638245,0.744019
1470344242088143,-0.188843,0.0568848,-0.638245,0.744141
1470344242111162,-0.189148,0.0563354,-0.638123,0.744202
1470344242132214,-0.189636,0.0559082,-0.637756,0.744385
1470344242148792,-0.189392,0.0549316,-0.637573,0.74469
1470344242170813,-0.188538,0.0534668,-0.63739,0.745239
1470344242191834,-0.188049,0.0524292,-0.637085,0.745667
1470344242208846,-0.187927,0.0516357,-0.636963,0.74585
1470344242230866,-0.188293,0.0513306,-0.636841,0.745911
1470344242252044,-0.18866,0.0511475,-0.636719,0.745911
1470344242268058,-0.189087,0.0511475,-0.636719,0.74585
1470344242291171,-0.189331,0.0511475,-0.636658,0.745789
1470344242312192,-0.189758,0.0515137,-0.636597,0.745728
1470344242328704,-0.190125,0.052002,-0.636719,0.745483
1470344242351225,-0.190735,0.0526123,-0.636841,0.745178
1470344242372243,-0.191284,0.0531006,-0.636963,0.744934
1470344242389259,-0.191345,0.0532837,-0.637146,0.744751
1470344242411279,-0.19104,0.0532837,-0.637268,0.74469
1470344242433799,-0.190613,0.0533447,-0.637451,0.744629
1470344242448812,-0.190247,0.0533447,-0.637695,0.744507
1470344242471834,-0.190308,0.0535889,-0.637817,0.744385
1470344242493853,-0.19043,0.053894,-0.637939,0.744202
1470344242508866,-0.190552,0.0541382,-0.638,0.744141
1470344242531386,-0.190247,0.0541382,-0.638,0.744202
1470344242553906,-0.189697,0.0540161,-0.638,0.744324
1470344242567920,-0.189392,0.053833,-0.637939,0.744507
1470344242591441,-0.189453,0.0539551,-0.637817,0.744568
1470344242613960,-0.189514,0.0540771,-0.637634,0.74469
1470344242627973,-0.189636,0.0541992,-0.637451,0.744812
1470344242651495,-0.189514,0.0541992,-0.637329,0.744995
1470344242674014,-0.18927,0.0541992,-0.637146,0.745178
1470344242688028,-0.188782,0.0540161,-0.637024,0.745422
1470344242711048,-0.188538,0.0541992,-0.636841,0.745605
1470344242733568,-0.188477,0.0543213,-0.636658,0.745789
1470344242748082,-0.18811,0.0541382,-0.636658,0.745911
1470344242771102,-0.187378,0.0539551,-0.636597,0.746155
1470344242793622,-0.186768,0.053894,-0.636658,0.746277
1470344242808135,-0.186707,0.053894,-0.636658,0.746277
1470344242831156,-0.186707,0.053894,-0.636658,0.746277
1470344242853676,-0.186707,0.053894,-0.636658,0.746277
1470344242868190,-0.186646,0.053894,-0.636658,0.746277
1470344242891210,-0.186584,0.053894,-0.636658,0.746277
1470344242913730,-0.186584,0.053894,-0.636658,0.746277
1470344242934749,-0.186584,0.053894,-0.636658,0.746277
1470344242951264,-0.186523,0.053894,-0.636658,0.746277
1470344242979789,-0.186523,0.0539551,-0.636658,0.746277
1470344242994802,-0.186584,0.0541382,-0.636658,0.746277
1470344243018825,-0.186584,0.0543823,-0.636658,0.746216
1470344243033838,-0.186707,0.0546265,-0.636658,0.746216
1470344243054857,-0.186646,0.0546265,-0.636658,0.746216
1470344243071372,-0.18689,0.0548096,-0.636719,0.746094
1470344243093892,-0.187195,0.0551147,-0.636658,0.746033
1470344243114911,-0.187378,0.0552979,-0.636719,0.745972
1470344243131426,-0.187561,0.055542,-0.63678,0.74585
1470344243153945,-0.187683,0.0557251,-0.636841,0.745728
1470344243174963,-0.187927,0.0560303,-0.636719,0.745728
1470344243191479,-0.187927,0.0560303,-0.636719,0.745728
1470344243213999,-0.187927,0.0560913,-0.636719,0.745728
1470344243235018,-0.187988,0.0561523,-0.63678,0.745667
1470344243251032,-0.188232,0.0562744,-0.63678,0.745605
1470344243274053,-0.188538,0.0563354,-0.636841,0.745483
1470344243295072,-0.188538,0.0562744,-0.636841,0.745483
1470344243311087,-0.188538,0.0563354,-0.63678,0.745483
1470344243333608,-0.188721,0.0565186,-0.636658,0.745544
1470344243356127,-0.188904,0.0567627,-0.636597,0.745605
1470344243371142,-0.188843,0.0567627,-0.636597,0.745605
1470344243393661,-0.188843,0.0567627,-0.636597,0.745605
1470344243416181,-0.188843,0.0567627,-0.636597,0.745605
1470344243431195,-0.188782,0.0567627,-0.636597,0.745605
1470344243461222,-0.188782,0.0568237,-0.636536,0.745605
1470344243482242,-0.188782,0.0568237,-0.636536,0.745605
1470344243490749,-0.188782,0.0568237,-0.636536,0.745605
1470344243513768,-0.188721,0.0568237,-0.636536,0.745605
1470344243536289,-0.188721,0.0568237,-0.636536,0.745605
1470344243550802,-0.188721,0.0568848,-0.636536,0.745605
1470344243573822,-0.18866,0.0568848,-0.636536,0.745605
1470344243596343,-0.18866,0.0568848,-0.636536,0.745605
1470344243610355,-0.18866,0.0568848,-0.636536,0.745605
1470344243633877,-0.18866,0.0569458,-0.636536,0.745667
1470344243656396,-0.188599,0.0569458,-0.636536,0.745667
1470344243670409,-0.188599,0.0569458,-0.636536,0.745667
1470344243693931,-0.188599,0.0569458,-0.636536,0.745667
1470344243717451,-0.188599,0.0569458,-0.636536,0.745667
1470344243730964,-0.188538,0.0570068,-0.636536,0.745667
1470344243753984,-0.188538,0.0570068,-0.636536,0.745667
1470344243782509,-0.188477,0.0570068,-0.636536,0.745667
1470344243790518,-0.188477,0.0570068,-0.636536,0.745667
1470344243814039,-0.188416,0.0570679,-0.636536,0.745667
1470344243836058,-0.188232,0.0569458,-0.636536,0.745789
1470344243857077,-0.187805,0.0568848,-0.636475,0.745911
1470344243873592,-0.1875,0.0569458,-0.636414,0.746033
1470344243896112,-0.187073,0.0567627,-0.636353,0.746216
1470344243917639,-0.186768,0.0567017,-0.636292,0.746338
1470344243933646,-0.186707,0.0567017,-0.636292,0.746338
1470344243963674,-0.186646,0.0567017,-0.636292,0.746399
1470344243977185,-0.186707,0.0569458,-0.635986,0.746582
1470344243993700,-0.186768,0.0571289,-0.635742,0.746765
1470344244016219,-0.18689,0.057251,-0.635498,0.746948
1470344244037240,-0.187439,0.057373,-0.635193,0.74707
1470344244053753,-0.187561,0.0570679,-0.634766,0.747437
1470344244076274,-0.1875,0.0567017,-0.634399,0.747742
1470344244097294,-0.188049,0.0567017,-0.634094,0.747925
1470344244113807,-0.188843,0.0568848,-0.633728,0.747986
1470344244136328,-0.189087,0.057251,-0.633423,0.748169
1470344244157346,-0.189331,0.057312,-0.633301,0.74823
1470344244173862,-0.189453,0.057373,-0.633057,0.748352
1470344244196383,-0.189453,0.0574341,-0.633057,0.748352
1470344244217401,-0.189392,0.0574341,-0.633057,0.748413
1470344244233915,-0.189514,0.0576782,-0.632813,0.748535
1470344244256435,-0.189514,0.0576782,-0.632629,0.748718
1470344244277456,-0.189209,0.0576172,-0.632507,0.748901
1470344244292968,-0.188904,0.057312,-0.632507,0.748962
1470344244316489,-0.188904,0.057373,-0.632507,0.748962
1470344244338513,-0.18927,0.0578003,-0.632141,0.749146
1470344244353527,-0.189209,0.057312,-0.632019,0.749329
1470344244376043,-0.188477,0.0567627,-0.632019,0.749512
1470344244405069,-0.187744,0.0567017,-0.632202,0.749573
1470344244414077,-0.187683,0.0567017,-0.632202,0.749634
1470344244436097,-0.188293,0.057251,-0.632202,0.74939
1470344244458618,-0.188721,0.0578003,-0.632141,0.749268
1470344244473130,-0.188354,0.0579834,-0.632324,0.749207
1470344244496151,-0.188354,0.0579834,-0.632324,0.749268
1470344244518671,-0.188477,0.0580444,-0.632385,0.749146
1470344244533185,-0.188599,0.0580444,-0.632385,0.749084
1470344244556205,-0.188599,0.0581055,-0.632385,0.749084
1470344244578724,-0.188354,0.0576782,-0.632385,0.749207
1470344244593238,-0.188049,0.057312,-0.632446,0.749268
1470344244616259,-0.188049,0.057373,-0.632385,0.749268
1470344244638778,-0.187561,0.0571289,-0.632263,0.749512
1470344244653291,-0.186707,0.0571899,-0.632019,0.749939
1470344244676313,-0.186462,0.0574341,-0.631775,0.750244
1470344244698833,-0.186523,0.0577393,-0.631531,0.750366
1470344244713345,-0.186523,0.0578003,-0.631531,0.750366
1470344244736366,-0.186218,0.0575562,-0.631653,0.750366
1470344244758886,-0.186157,0.057312,-0.631775,0.750305
1470344244772899,-0.186584,0.057312,-0.631836,0.750122
1470344244797421,-0.187073,0.0574341,-0.631897,0.749939
1470344244818940,-0.187439,0.0574951,-0.63208,0.749695
1470344244839959,-0.187561,0.0575562,-0.632202,0.749573
1470344244856474,-0.187561,0.0575562,-0.632202,0.749573
1470344244878494,-0.187561,0.0575562,-0.632202,0.749573
1470344244900013,-0.187622,0.0576782,-0.632202,0.749512
1470344244916027,-0.187622,0.0576782,-0.632202,0.749512
1470344244938548,-0.187622,0.0576782,-0.632202,0.749573
1470344244960067,-0.187134,0.0575562,-0.632324,0.749512
1470344244966573,-0.186646,0.0576782,-0.632385,0.749634
1470344244981586,-0.185608,0.0576782,-0.632385,0.749878
1470344245004106,-0.184082,0.0571899,-0.632446,0.750183
1470344245026627,-0.182556,0.0566406,-0.632629,0.750488
1470344245041641,-0.181335,0.0560303,-0.632874,0.750671
1470344245064661,-0.180969,0.0560303,-0.632813,0.750793
1470344245086681,-0.180969,0.0560303,-0.632813,0.750793
1470344245101697,-0.180908,0.0557861,-0.632874,0.750732
1470344245124214,-0.18103,0.0556641,-0.632935,0.750671
1470344245142231,-0.181519,0.055603,-0.632935,0.750549
1470344245161748,-0.182312,0.0557861,-0.632813,0.750488
1470344245191775,-0.182861,0.0557861,-0.632507,0.75061
1470344245202284,-0.183167,0.055603,-0.632263,0.750732
1470344245221805,-0.183472,0.0554199,-0.63208,0.750793
1470344245244323,-0.183838,0.0553589,-0.632019,0.750793
1470344245262339,-0.184326,0.055542,-0.631958,0.750732
1470344245281858,-0.185059,0.055603,-0.631897,0.750549
1470344245304376,-0.185059,0.055603,-0.631897,0.750549
1470344245321892,-0.184814,0.055603,-0.631836,0.750671
1470344245341910,-0.18457,0.055481,-0.631836,0.750793
1470344245364431,-0.184387,0.0552368,-0.631897,0.750793
1470344245381947,-0.184387,0.0552979,-0.631897,0.750793
1470344245401464,-0.184082,0.0551758,-0.631958,0.750793
1470344245423983,-0.18335,0.0549927,-0.632141,0.750854
1470344245442000,-0.182678,0.0548706,-0.632324,0.750854
1470344245462018,-0.182373,0.0548706,-0.632446,0.750854
1470344245484038,-0.182068,0.0549316,-0.632507,0.750854
1470344245502054,-0.181824,0.0550537,-0.632629,0.750793
1470344245521572,-0.181641,0.0551147,-0.632507,0.750977
1470344245544091,-0.181213,0.0548706,-0.632324,0.75116
1470344245562107,-0.180908,0.0547485,-0.632385,0.751221
1470344245581625,-0.181213,0.0548706,-0.632568,0.751038
1470344245604145,-0.182007,0.055481,-0.632507,0.750793
1470344245622161,-0.182861,0.0559692,-0.632446,0.75061
1470344245641679,-0.183228,0.0559692,-0.632446,0.750549
1470344245664199,-0.183289,0.0559082,-0.632385,0.750549
1470344245682215,-0.183594,0.055542,-0.632385,0.750549
1470344245701733,-0.183838,0.0552368,-0.632324,0.750549
1470344245727256,-0.183899,0.0550537,-0.632263,0.75061
1470344245743271,-0.18396,0.0550537,-0.632141,0.750671
1470344245761787,-0.184082,0.0552368,-0.632141,0.75061
1470344245784308,-0.18457,0.0552979,-0.63208,0.750549
1470344245802324,-0.18457,0.0552979,-0.63208,0.750549
1470344245821841,-0.184509,0.0552979,-0.63208,0.750549
1470344245844361,-0.184753,0.055603,-0.632141,0.750427
1470344245862377,-0.18512,0.0560303,-0.632141,0.750366
1470344245882895,-0.185486,0.0563965,-0.632141,0.750244
1470344245904414,-0.185791,0.0565186,-0.632141,0.750122
1470344245921931,-0.18573,0.0565186,-0.632141,0.750122
1470344245942949,-0.185669,0.0565186,-0.632141,0.750122
1470344245964469,-0.186035,0.0566406,-0.632141,0.750061
1470344245981984,-0.186401,0.0567627,-0.632141,0.75
1470344246003004,-0.186523,0.0568848,-0.632019,0.75
1470344246024022,-0.186707,0.0568237,-0.631958,0.750061
1470344246042038,-0.186584,0.0565186,-0.631897,0.750122
1470344246063059,-0.186157,0.0559692,-0.631897,0.750305
1470344246084077,-0.185852,0.0559082,-0.631714,0.750488
1470344246102093,-0.185791,0.0559692,-0.631714,0.750488
1470344246123112,-0.186157,0.0559692,-0.631775,0.750366
1470344246144130,-0.186279,0.0559082,-0.631714,0.750366
1470344246162147,-0.186279,0.0559082,-0.631714,0.750427
1470344246183165,-0.186523,0.0558472,-0.631836,0.750305
1470344246204185,-0.186646,0.0557251,-0.631836,0.750244
1470344246222200,-0.186646,0.0557251,-0.631836,0.750244
1470344246244721,-0.186646,0.055603,-0.631958,0.750122
1470344246264238,-0.186584,0.055603,-0.631958,0.750122
1470344246282254,-0.186584,0.0556641,-0.631958,0.750183
1470344246304775,-0.186523,0.0556641,-0.631958,0.750183
1470344246324293,-0.186462,0.0554199,-0.631897,0.750244
1470344246349815,-0.186279,0.0551758,-0.631897,0.750305
1470344246364829,-0.186096,0.0548706,-0.631897,0.750366
1470344246384345,-0.186218,0.0547485,-0.631958,0.750305
1470344246402362,-0.186523,0.0548096,-0.632019,0.750122
1470344246424883,-0.186523,0.0548706,-0.632019,0.750183
1470344246444400,-0.186279,0.0547485,-0.632202,0.750061
1470344246462917,-0.186279,0.0547485,-0.632202,0.750061
1470344246484436,-0.186279,0.0548096,-0.632202,0.750061
1470344246504454,-0.185974,0.0545654,-0.632141,0.750244
1470344246521970,-0.185486,0.0542603,-0.632141,0.750366
1470344246544489,-0.185425,0.0542603,-0.632141,0.750366
1470344246564007,-0.185425,0.0542603,-0.632141,0.750366
1470344246582064,-0.18512,0.0541382,-0.632202,0.750427
1470344246604586,-0.184631,0.0542603,-0.632202,0.750549
1470344246624102,-0.18396,0.0540771,-0.631897,0.750977
1470344246642118,-0.18335,0.0536499,-0.631226,0.751709
1470344246664639,-0.183167,0.053833,-0.630798,0.752075
1470344246687158,-0.183167,0.053833,-0.630798,0.752075
1470344246702171,-0.183167,0.053894,-0.630798,0.752075
1470344246724692,-0.183289,0.0539551,-0.63092,0.751953
1470344246744210,-0.183716,0.0543213,-0.630981,0.75177
1470344246762226,-0.18457,0.0546265,-0.631042,0.751465
1470344246784746,-0.185364,0.0549927,-0.631165,0.75116
1470344246805765,-0.185852,0.0552368,-0.631287,0.750916
1470344246822280,-0.186279,0.055603,-0.631287,0.750793
1470344246844801,-0.186462,0.0557251,-0.631348,0.750671
1470344246865820,-0.186523,0.055603,-0.631531,0.750488
1470344246882334,-0.186707,0.0558472,-0.631592,0.750427
1470344246904854,-0.187134,0.0560303,-0.631714,0.750183
1470344246925372,-0.187378,0.0560303,-0.631775,0.750061
1470344246941887,-0.1875,0.0560303,-0.631897,0.749939
1470344246964908,-0.187744,0.0560303,-0.631958,0.749817
1470344246985427,-0.187683,0.0560303,-0.631958,0.749817
1470344247001942,-0.187683,0.0560303,-0.631958,0.749817
1470344247024461,-0.187744,0.0560913,-0.631958,0.749878
1470344247045480,-0.187988,0.0563354,-0.631775,0.749939
1470344247061995,-0.187927,0.0563965,-0.631592,0.750061
1470344247084515,-0.187805,0.0565186,-0.63147,0.750183
1470344247105534,-0.187805,0.0565186,-0.63147,0.750183
1470344247129556,-0.187744,0.0565186,-0.63147,0.750183
1470344247144569,-0.187744,0.0565186,-0.63147,0.750183
1470344247167090,-0.187073,0.0565186,-0.631226,0.750549
1470344247187607,-0.185425,0.0560913,-0.630615,0.751526
1470344247204127,-0.184631,0.0560913,-0.629639,0.752563
1470344247226152,-0.184692,0.0568237,-0.629028,0.752991
1470344247247568,-0.184753,0.057251,-0.628845,0.753113
1470344247263583,-0.184753,0.057373,-0.628784,0.753113
1470344247285602,-0.184692,0.057251,-0.628906,0.753052
1470344247307620,-0.185059,0.057373,-0.629028,0.752808
1470344247323645,-0.18573,0.0578613,-0.629089,0.752563
1470344247345669,-0.186462,0.0584717,-0.629272,0.752197
1470344247360683,-0.186768,0.0588989,-0.629456,0.751953
1470344247383704,-0.186646,0.059082,-0.6297,0.75177
1470344247406724,-0.186584,0.059021,-0.6297,0.75177
1470344247420743,-0.186584,0.059021,-0.6297,0.751831
1470344247443301,-0.186584,0.059082,-0.629639,0.751831
1470344247466330,-0.18689,0.059021,-0.629578,0.75177
1470344247480335,-0.186951,0.0587158,-0.629456,0.751953
1470344247503360,-0.187134,0.0585327,-0.629272,0.752014
1470344247526383,-0.187439,0.0584106,-0.629028,0.752197
1470344247540429,-0.187683,0.0582886,-0.628845,0.752319
1470344247563449,-0.1875,0.0581665,-0.628784,0.752441
1470344247586469,-0.1875,0.0581665,-0.628784,0.752441
1470344247600481,-0.187866,0.0585938,-0.628601,0.752441
1470344247624007,-0.18811,0.0587769,-0.628601,0.752319
1470344247647035,-0.18811,0.0588379,-0.628601,0.752319
1470344247667053,-0.18811,0.0588379,-0.628601,0.752319
1470344247683065,-0.18811,0.0588989,-0.628723,0.752258
1470344247706086,-0.188538,0.0591431,-0.628784,0.752014
1470344247727611,-0.188965,0.0594482,-0.628784,0.751953
1470344247743132,-0.189026,0.0595703,-0.628723,0.751953
1470344247766153,-0.189026,0.0595703,-0.628723,0.751953
1470344247787170,-0.188965,0.0595703,-0.628723,0.751953
1470344247803185,-0.189514,0.0603027,-0.628723,0.75177
1470344247826213,-0.190491,0.0609741,-0.628662,0.751526
1470344247847238,-0.191101,0.0610962,-0.628601,0.751404
1470344247863252,-0.190857,0.060791,-0.62854,0.751526
1470344247886273,-0.190247,0.0602417,-0.62854,0.75177
1470344247907292,-0.190125,0.0598755,-0.62854,0.751831
1470344247923813,-0.190186,0.0596924,-0.628418,0.751892
1470344247946021,-0.190491,0.0597534,-0.628418,0.751831
1470344247967039,-0.19043,0.0597534,-0.628418,0.751831
1470344247984054,-0.19043,0.0597534,-0.628418,0.751831
1470344248006075,-0.190125,0.0597534,-0.628418,0.751953
1470344248027600,-0.190063,0.0598145,-0.628418,0.751953
1470344248043618,-0.190063,0.0598145,-0.628418,0.751953
1470344248066639,-0.190002,0.0598145,-0.628418,0.751953
1470344248087657,-0.190125,0.0596924,-0.628418,0.751892
1470344248103671,-0.19043,0.0595703,-0.628357,0.751892
1470344248126197,-0.190613,0.0595093,-0.628296,0.751892
1470344248148425,-0.190918,0.0596924,-0.628235,0.751892
1470344248163439,-0.191162,0.0598755,-0.628174,0.751831
1470344248186459,-0.19165,0.0601196,-0.628235,0.751648
1470344248208479,-0.191833,0.0603638,-0.628174,0.751587
1470344248223997,-0.191833,0.0603638,-0.628235,0.751587
1470344248246642,-0.191528,0.0603638,-0.628113,0.75177
1470344248268661,-0.191101,0.0604858,-0.627991,0.751953
1470344248290685,-0.191101,0.0605469,-0.627991,0.751953
1470344248306696,-0.191101,0.0605469,-0.627991,0.751953
1470344248328722,-0.19104,0.0606079,-0.627991,0.751953
1470344248342953,-0.19104,0.0604858,-0.627869,0.752075
1470344248365974,-0.190918,0.0603027,-0.627563,0.75238
1470344248388995,-0.190552,0.0601196,-0.62738,0.752686
1470344248403007,-0.190125,0.0601196,-0.627075,0.752991
1470344248426534,-0.189758,0.0601196,-0.626831,0.753296
1470344248448600,-0.188965,0.0598145,-0.626648,0.753662
1470344248462612,-0.188354,0.0595093,-0.626526,0.753967
1470344248485632,-0.187866,0.0592651,-0.626404,0.754211
1470344248508655,-0.1875,0.0591431,-0.626343,0.754333
1470344248523174,-0.187073,0.059021,-0.626221,0.754517
1470344248546069,-0.186462,0.0586548,-0.626221,0.754761
1470344248569089,-0.185608,0.0581055,-0.62616,0.755005
1470344248590107,-0.184998,0.0575562,-0.626099,0.75531
1470344248606122,-0.184692,0.0571289,-0.625916,0.755554
1470344248628653,-0.184387,0.0565796,-0.62561,0.75592
1470344248650261,-0.183899,0.0561523,-0.625183,0.756409
1470344248666209,-0.183472,0.0557251,-0.624817,0.756836
1470344248688229,-0.183228,0.0554199,-0.624451,0.757263
1470344248709248,-0.183105,0.0554199,-0.623901,0.757751
1470344248726272,-0.182861,0.055481,-0.623291,0.758301
1470344248748299,-0.182434,0.0554199,-0.622559,0.758972
1470344248769315,-0.18158,0.0552368,-0.621887,0.759766
1470344248786331,-0.180969,0.0551758,-0.621155,0.760498
1470344248808349,-0.180542,0.0551758,-0.620544,0.761108
1470344248829875,-0.180298,0.0551147,-0.619934,0.761658
1470344248846254,-0.180176,0.0550537,-0.619324,0.762207
1470344248868272,-0.179993,0.0549927,-0.618591,0.762878
1470344248889291,-0.179565,0.0548706,-0.617798,0.763611
1470344248906306,-0.178955,0.0546265,-0.617188,0.764282
1470344248928829,-0.17865,0.0546265,-0.616577,0.764771
1470344248949353,-0.178528,0.0547485,-0.615967,0.76532
1470344248966370,-0.178284,0.0548096,-0.615417,0.765808
1470344248988387,-0.17804,0.0548096,-0.61499,0.766174
1470344249009406,-0.178162,0.0551758,-0.614563,0.766541
1470344249026427,-0.178467,0.055603,-0.614075,0.766785
1470344249048451,-0.17865,0.0560303,-0.613647,0.767029
1470344249071472,-0.178833,0.0565186,-0.613281,0.767273
1470344249086486,-0.178955,0.0568237,-0.613037,0.767456
1470344249108505,-0.179138,0.0569458,-0.612793,0.767578
1470344249131531,-0.17926,0.0571289,-0.61261,0.767639
1470344249146549,-0.179688,0.0574951,-0.612366,0.7677
1470344249168567,-0.180237,0.0579224,-0.612183,0.7677
1470344249191589,-0.180542,0.0581665,-0.612061,0.767761
1470344249205603,-0.180847,0.0586548,-0.611938,0.7677
1470344249229126,-0.181152,0.0591431,-0.611877,0.767639
1470344249251650,-0.181519,0.0596924,-0.611877,0.767517
1470344249265662,-0.181702,0.0602417,-0.612,0.767334
1470344249288683,-0.181885,0.0606079,-0.612305,0.767029
1470344249310701,-0.18219,0.0609741,-0.612671,0.766663
1470344249325723,-0.182556,0.0613403,-0.613098,0.766174
1470344249348746,-0.182861,0.0614624,-0.613586,0.765747
1470344249370766,-0.182922,0.0614014,-0.614014,0.76532
1470344249385780,-0.182983,0.0614014,-0.614563,0.764893
1470344249408802,-0.182922,0.0613403,-0.615173,0.764404
1470344249431330,-0.182678,0.0610962,-0.615906,0.763916
1470344249445847,-0.182434,0.0609131,-0.616455,0.76355
1470344249468867,-0.182129,0.0606689,-0.617004,0.763184
1470344249490887,-0.182007,0.0605469,-0.617493,0.762817
1470344249505901,-0.181946,0.0604248,-0.61792,0.762512
1470344249528928,-0.181824,0.0603027,-0.618286,0.762268
1470344249550967,-0.18158,0.0601196,-0.618591,0.762085
1470344249571966,-0.181335,0.0599976,-0.618958,0.761841
1470344249588982,-0.181396,0.0599365,-0.619202,0.761658
1470344249611016,-0.181274,0.0598145,-0.619446,0.761475
1470344249632539,-0.181274,0.0598755,-0.619751,0.76123
1470344249649060,-0.181274,0.0599365,-0.620056,0.760986
1470344249671080,-0.181274,0.0599365,-0.620483,0.76062
1470344249692115,-0.181274,0.0599365,-0.620911,0.760254
1470344249708114,-0.181519,0.0600586,-0.621338,0.759827
1470344249731140,-0.181946,0.0601807,-0.621765,0.759399
1470344249752162,-0.182373,0.0603638,-0.622314,0.75885
1470344249768179,-0.182983,0.060791,-0.622742,0.758301
1470344249791199,-0.18335,0.0612793,-0.62323,0.757751
1470344249813221,-0.183777,0.0615845,-0.623657,0.757324
1470344249828740,-0.18396,0.0617065,-0.624084,0.756897
1470344249851267,-0.183777,0.0620728,-0.624634,0.75647
1470344249872284,-0.184021,0.0626221,-0.625061,0.755981
1470344249889300,-0.18396,0.0631104,-0.625427,0.755676
1470344249911320,-0.183411,0.0631104,-0.625854,0.755432
1470344249932343,-0.182617,0.0628052,-0.626282,0.75531
1470344249956371,-0.182007,0.0625,-0.626709,0.755127
1470344249971384,-0.181763,0.0621948,-0.627075,0.754883
1470344249992402,-0.181763,0.0618896,-0.627258,0.754761
1470344250008418,-0.181824,0.0616455,-0.62738,0.7547
1470344250031445,-0.181763,0.0612793,-0.627563,0.754578
1470344250053470,-0.182068,0.0612183,-0.627747,0.754333
1470344250068484,-0.182617,0.0611572,-0.627869,0.754089
1470344250091505,-0.183044,0.0611572,-0.627991,0.753906
1470344250113524,-0.18335,0.0610962,-0.628113,0.753784
1470344250129044,-0.183777,0.0612183,-0.628174,0.753601
1470344250151507,-0.184143,0.0614624,-0.628235,0.753418
1470344250173526,-0.184387,0.0617065,-0.628357,0.753235
1470344250187537,-0.184692,0.0621948,-0.628479,0.753052
1470344250211561,-0.184631,0.0626831,-0.628662,0.752869
1470344250234090,-0.184692,0.0631714,-0.628723,0.752747
1470344250248330,-0.18457,0.0637207,-0.628906,0.752563
1470344250271348,-0.184265,0.0640869,-0.629028,0.752502
1470344250293367,-0.183777,0.06427,-0.629089,0.752563
1470344250308382,-0.183289,0.0643921,-0.62915,0.752625
1470344250331406,-0.183044,0.0643921,-0.62915,0.752686
1470344250353428,-0.1828,0.06427,-0.62915,0.752747
1470344250368442,-0.182556,0.0640259,-0.629028,0.75293
1470344250391463,-0.182068,0.0636597,-0.628906,0.753174
1470344250419993,-0.181458,0.0629883,-0.628601,0.753601
1470344250428001,-0.180786,0.0620728,-0.628296,0.75415
1470344250451438,-0.17981,0.0610962,-0.628052,0.754639
1470344250473456,-0.179504,0.0606079,-0.627808,0.754944
1470344250488470,-0.179565,0.0603638,-0.627563,0.755127
1470344250519003,-0.179565,0.0600586,-0.62738,0.75531
1470344250534017,-0.179504,0.0596313,-0.627319,0.755493
1470344250554540,-0.179443,0.0592041,-0.627258,0.755554
1470344250571557,-0.179321,0.0588989,-0.627197,0.755676
1470344250593577,-0.17926,0.0585327,-0.627075,0.755798
1470344250614597,-0.178955,0.0581055,-0.626831,0.756104
1470344250631613,-0.178528,0.0576782,-0.626587,0.75647
1470344250653637,-0.17804,0.0574341,-0.626343,0.756775
1470344250674658,-0.177551,0.057312,-0.626221,0.757019
1470344250698678,-0.177246,0.057312,-0.626099,0.757141
1470344250713693,-0.176941,0.057312,-0.626099,0.757202
1470344250737722,-0.176575,0.057251,-0.62616,0.757263
1470344250750733,-0.176086,0.0570068,-0.626221,0.757324
1470344250773756,-0.175659,0.0567017,-0.626221,0.757446
1470344250794774,-0.175659,0.0566406,-0.626282,0.757446
1470344250810788,-0.176147,0.0567017,-0.62616,0.757446
1470344250833813,-0.177185,0.0570068,-0.625977,0.757263
1470344250854834,-0.178345,0.0576782,-0.625916,0.757019
1470344250870849,-0.179382,0.0584106,-0.625916,0.756714
1470344250893871,-0.180481,0.0595093,-0.626099,0.756226
1470344250914890,-0.18158,0.0606689,-0.626282,0.755737
1470344250931410,-0.183533,0.0614014,-0.626099,0.755371
1470344250953932,-0.184448,0.0609131,-0.625793,0.755432
1470344250976953,-0.183716,0.0598755,-0.625427,0.755981
1470344250990965,-0.182556,0.0592651,-0.625122,0.756531
1470344251013988,-0.182251,0.0585327,-0.625,0.756775
1470344251036012,-0.182617,0.0582886,-0.624634,0.757019
1470344251051025,-0.1828,0.0578613,-0.624512,0.757141
1470344251074047,-0.182556,0.0571899,-0.624634,0.757141
1470344251096066,-0.182312,0.0568237,-0.624756,0.75708
1470344251126598,-0.182373,0.0567627,-0.624756,0.75708
1470344251134105,-0.182617,0.0566406,-0.624573,0.757202
1470344251156131,-0.182739,0.0563965,-0.624451,0.757324
1470344251170144,-0.183044,0.0561523,-0.62439,0.757263
1470344251193164,-0.183655,0.0560303,-0.624329,0.757202
1470344251216185,-0.184082,0.0559692,-0.624329,0.757141
1470344251230704,-0.184509,0.0560303,-0.624329,0.756958
1470344251253754,-0.184692,0.0559692,-0.624329,0.756897
1470344251275774,-0.184753,0.0559692,-0.62439,0.756836
1470344251290789,-0.184753,0.0559692,-0.62439,0.756836
1470344251313809,-0.18457,0.0558472,-0.624329,0.756958
1470344251336345,-0.18396,0.0556641,-0.624329,0.757141
1470344251350358,-0.183411,0.0557861,-0.624268,0.757324
1470344251373377,-0.183167,0.0561523,-0.624329,0.757324
1470344251396401,-0.182922,0.0565186,-0.624329,0.757324
1470344251410412,-0.182739,0.0568237,-0.624451,0.757263
1470344251433939,-0.182556,0.0570068,-0.624634,0.757141
1470344251456462,-0.182495,0.0570679,-0.624634,0.757141
1470344251477481,-0.182495,0.0570679,-0.624634,0.757141
1470344251501503,-0.18219,0.0567017,-0.624634,0.757263
1470344251516516,-0.182007,0.0563965,-0.624512,0.757446
1470344251537112,-0.182007,0.0561523,-0.624329,0.757568
1470344251553146,-0.181946,0.0559082,-0.624329,0.757629
1470344251576144,-0.181763,0.0557251,-0.624329,0.75769
1470344251597164,-0.181702,0.055603,-0.62439,0.75769
1470344251613179,-0.18158,0.0553589,-0.624268,0.757751
1470344251635701,-0.181152,0.0549927,-0.624207,0.757996
1470344251656724,-0.181091,0.0549927,-0.624207,0.757996
1470344251673739,-0.180847,0.0548706,-0.624084,0.758118
1470344251695759,-0.18042,0.0548706,-0.624084,0.75824
1470344251716778,-0.180115,0.0549927,-0.624023,0.758362
1470344251733799,-0.17981,0.0551758,-0.624023,0.758423
1470344251755821,-0.179504,0.055542,-0.624023,0.758484
1470344251784848,-0.179138,0.0557251,-0.624146,0.758423
1470344251793856,-0.178711,0.0558472,-0.624329,0.758362
1470344251815875,-0.17865,0.0558472,-0.624329,0.758362
1470344251837426,-0.178284,0.0556641,-0.624268,0.758545
1470344251853439,-0.177734,0.0551758,-0.624146,0.758789
1470344251876459,-0.177368,0.0548096,-0.624023,0.759033
1470344251898479,-0.177307,0.0545044,-0.623901,0.759155
1470344251913492,-0.177673,0.0542603,-0.623901,0.759094
1470344251936535,-0.177917,0.053772,-0.623962,0.759033
1470344251958556,-0.178101,0.0532837,-0.624023,0.758972
1470344251973570,-0.178284,0.0528564,-0.624268,0.758789
1470344251996589,-0.178101,0.0525513,-0.624451,0.758667
1470344252018609,-0.17804,0.0523682,-0.624634,0.758545
1470344252024120,-0.177795,0.052063,-0.624817,0.758484
1470344252039136,-0.177246,0.0519409,-0.625,0.758484
1470344252061156,-0.176758,0.0518799,-0.625,0.758545
1470344252084190,-0.17627,0.0519409,-0.625122,0.758606
1470344252099190,-0.175842,0.052124,-0.625244,0.758606
1470344252121714,-0.175293,0.052063,-0.625427,0.758545
1470344252144240,-0.174805,0.0518188,-0.62561,0.758545
1470344252160254,-0.174561,0.0516968,-0.625793,0.758423
1470344252181274,-0.1745,0.0516968,-0.625793,0.758423
1470344252204294,-0.1745,0.0516968,-0.625793,0.758423
1470344252219308,-0.1745,0.0514526,-0.625854,0.758423
1470344252241335,-0.174683,0.0512085,-0.625854,0.758423
1470344252264356,-0.174988,0.0510254,-0.625854,0.758362
1470344252279370,-0.175232,0.0508423,-0.625916,0.758301
1470344252301390,-0.175171,0.0505981,-0.625916,0.758301
1470344252324412,-0.17511,0.050415,-0.625916,0.758301
1470344252339431,-0.174866,0.0502319,-0.625977,0.758362
1470344252361464,-0.174622,0.0501099,-0.626038,0.758362
1470344252384469,-0.174622,0.0501099,-0.626038,0.758362
1470344252399484,-0.174622,0.0501099,-0.626038,0.758362
1470344252422010,-0.174622,0.0501099,-0.626038,0.758362
1470344252444533,-0.174622,0.0501709,-0.626038,0.758362
1470344252460548,-0.174805,0.0501709,-0.626099,0.75824
1470344252481566,-0.17511,0.0501709,-0.62616,0.758118
1470344252503587,-0.175354,0.0502319,-0.62616,0.758057
1470344252520602,-0.175842,0.050293,-0.626099,0.757996
1470344252541632,-0.176392,0.050415,-0.625977,0.757935
1470344252563651,-0.177124,0.0505981,-0.625854,0.757874
1470344252580666,-0.177917,0.0509644,-0.625732,0.757751
1470344252601685,-0.17865,0.0512695,-0.625671,0.757629
1470344252624208,-0.17926,0.0514526,-0.625549,0.757568
1470344252640729,-0.179749,0.0515747,-0.625488,0.757507
1470344252661748,-0.179993,0.0516357,-0.625427,0.757446
1470344252683767,-0.180176,0.0517578,-0.625366,0.757446
1470344252700785,-0.180115,0.0517578,-0.625366,0.757446
1470344252729312,-0.180115,0.0517578,-0.625366,0.757507
1470344252743829,-0.180115,0.0518188,-0.625366,0.757507
1470344252760845,-0.180115,0.0518188,-0.625366,0.757507
1470344252782864,-0.180054,0.0518188,-0.625427,0.757446
1470344252803884,-0.179993,0.0517578,-0.62561,0.757324
1470344252820898,-0.179993,0.0516968,-0.625732,0.757202
1470344252841931,-0.180054,0.0515747,-0.625916,0.75708
1470344252863953,-0.180054,0.0513306,-0.626099,0.756958
1470344252881966,-0.179993,0.0513306,-0.626099,0.756958
1470344252901985,-0.179932,0.0513306,-0.626099,0.756958
1470344252924507,-0.179932,0.0513306,-0.626099,0.756958
1470344252942026,-0.179932,0.0513306,-0.626099,0.756958
1470344252962043,-0.179932,0.0513306,-0.626099,0.756958
1470344252984066,-0.179932,0.0513306,-0.626099,0.756958
1470344253009086,-0.179932,0.0513306,-0.626099,0.756958
1470344253021601,-0.179871,0.0513306,-0.626099,0.756958
1470344253043774,-0.180115,0.0514526,-0.625977,0.757019
1470344253061775,-0.18042,0.0513916,-0.625977,0.756958
1470344253081795,-0.180725,0.0512695,-0.625916,0.756958
1470344253103835,-0.181213,0.0512085,-0.625793,0.756897
1470344253122334,-0.18158,0.0512085,-0.625671,0.756897
1470344253141356,-0.181824,0.0512085,-0.625549,0.756958
1470344253164387,-0.181824,0.0512085,-0.625549,0.756958
1470344253182404,-0.181519,0.0511475,-0.625427,0.757141
1470344253201407,-0.181091,0.0513306,-0.625305,0.757324
1470344253224450,-0.180847,0.0515747,-0.625122,0.757507
1470344253242017,-0.180481,0.0516357,-0.625122,0.757629
1470344253262034,-0.180054,0.0516968,-0.625122,0.75769
1470344253284057,-0.179993,0.0516357,-0.625122,0.757751
1470344253302071,-0.179993,0.0516357,-0.625122,0.757751
1470344253321120,-0.179749,0.0516357,-0.625,0.757874
1470344253344379,-0.179749,0.0516357,-0.625,0.757874
1470344253362406,-0.179932,0.0516968,-0.625,0.757874
1470344253381414,-0.18042,0.0518799,-0.625,0.75769
1470344253404434,-0.180908,0.052002,-0.625061,0.757507
1470344253421957,-0.181396,0.052124,-0.625061,0.757385
1470344253449500,-0.181885,0.0523071,-0.625,0.757324
1470344253464513,-0.182373,0.0524902,-0.624878,0.757324
1470344253481529,-0.182556,0.0525513,-0.624756,0.757324
1470344253502550,-0.182617,0.0527954,-0.624573,0.757507
1470344253524576,-0.182556,0.0530396,-0.62439,0.757629
1470344253541595,-0.182373,0.0532837,-0.624329,0.75769
1470344253564617,-0.182251,0.0535278,-0.624329,0.757751
1470344253583634,-0.182007,0.053833,-0.624329,0.757751
1470344253601649,-0.181763,0.0540161,-0.62439,0.757751
1470344253624674,-0.181763,0.0539551,-0.624451,0.757751
1470344253643697,-0.181824,0.0540771,-0.62439,0.757751
1470344253661714,-0.182068,0.0541382,-0.624268,0.757813
1470344253682747,-0.182556,0.0542603,-0.624084,0.757813
1470344253703751,-0.183167,0.0542603,-0.623901,0.757813
1470344253722274,-0.183655,0.0542603,-0.62384,0.75769
1470344253742800,-0.183838,0.0541992,-0.623962,0.757568
1470344253763818,-0.184265,0.0543823,-0.624023,0.757446
1470344253789841,-0.184631,0.0546265,-0.623962,0.757324
1470344253804856,-0.184631,0.0546265,-0.623962,0.757324
1470344253824877,-0.184326,0.0547485,-0.623962,0.757446
1470344253841897,-0.184021,0.0549927,-0.623962,0.757507
1470344253864920,-0.183594,0.0551758,-0.623901,0.757629
1470344253883935,-0.183167,0.0552979,-0.62384,0.757751
1470344253901951,-0.182861,0.0552368,-0.623901,0.757813
1470344253924976,-0.182556,0.0549927,-0.623962,0.757813
1470344253944523,-0.182495,0.0547485,-0.623901,0.757935
1470344253962539,-0.182861,0.0546265,-0.623779,0.757935
1470344253984560,-0.18335,0.0544434,-0.623657,0.757935
1470344254006579,-0.183655,0.0543213,-0.623535,0.757996
1470344254021593,-0.18396,0.0542603,-0.623413,0.757996
1470344254044653,-0.184143,0.0541992,-0.623352,0.757996
1470344254066674,-0.184265,0.0541992,-0.623352,0.757996
1470344254081685,-0.184265,0.0541992,-0.623352,0.757996
1470344254104723,-0.18396,0.0540161,-0.623352,0.758057
1470344254124231,-0.183411,0.053894,-0.623413,0.758179
1470344254142249,-0.182861,0.0540161,-0.623474,0.75824
1470344254164271,-0.182312,0.0541382,-0.623413,0.758362
1470344254184286,-0.181824,0.0542603,-0.623474,0.758484
1470344254202303,-0.181335,0.0543213,-0.623535,0.758545
1470344254224826,-0.180969,0.0541992,-0.623657,0.758545
1470344254244375,-0.180969,0.0541992,-0.623657,0.758545
1470344254261377,-0.180908,0.0541992,-0.623657,0.758545
1470344254283396,-0.18103,0.0540161,-0.623657,0.758545
1470344254304418,-0.181213,0.053833,-0.623596,0.758545
1470344254321432,-0.181458,0.0537109,-0.623535,0.758545
1470344254343461,-0.181885,0.0536499,-0.623352,0.758606
1470344254364480,-0.182251,0.0536499,-0.62323,0.758606
1470344254381494,-0.182373,0.0537109,-0.623108,0.758667
1470344254404516,-0.182312,0.0537109,-0.623108,0.758728
1470344254425042,-0.182007,0.0535889,-0.623108,0.758789
1470344254441563,-0.18158,0.0536499,-0.623108,0.758911
1470344254463581,-0.181274,0.053894,-0.623047,0.758972
1470344254484600,-0.180908,0.0541382,-0.622986,0.759094
1470344254501616,-0.180542,0.0542603,-0.622986,0.759216
1470344254523641,-0.180481,0.0542603,-0.622986,0.759216
1470344254544663,-0.180481,0.0544434,-0.622986,0.759155
1470344254561677,-0.180664,0.0544434,-0.623047,0.759094
1470344254583697,-0.180725,0.0543213,-0.623108,0.759033
1470344254604716,-0.180969,0.0541992,-0.623047,0.759033
1470344254620730,-0.181335,0.0541382,-0.622986,0.758972
1470344254643761,-0.181702,0.0541382,-0.622864,0.758972
1470344254664780,-0.182068,0.0541992,-0.622742,0.759033
1470344254680795,-0.182312,0.0541382,-0.622681,0.759033
1470344254703815,-0.182312,0.0540771,-0.622681,0.759033
1470344254724837,-0.182312,0.0540771,-0.622681,0.759033
1470344254740854,-0.182007,0.0539551,-0.622681,0.759094
1470344254763876,-0.181335,0.0537109,-0.622742,0.759277
1470344254785897,-0.180786,0.0536499,-0.622681,0.759399
1470344254800908,-0.18042,0.0536499,-0.622681,0.759521
1470344254823936,-0.179932,0.0535889,-0.622681,0.759644
1470344254845958,-0.179932,0.0535889,-0.622681,0.759644
1470344254860972,-0.179932,0.0535889,-0.622681,0.759644
1470344254883993,-0.179932,0.0535889,-0.622681,0.759644
1470344254906012,-0.180115,0.0535278,-0.622742,0.759521
1470344254920024,-0.180237,0.0534058,-0.622803,0.75946
1470344254944055,-0.180542,0.0533447,-0.622742,0.75946
1470344254966074,-0.180969,0.0534058,-0.62262,0.75946
1470344254981087,-0.181335,0.0533447,-0.622498,0.75946
1470344255004109,-0.181519,0.0533447,-0.622375,0.759521
1470344255026633,-0.18158,0.0532227,-0.622253,0.759583
1470344255040155,-0.181519,0.0532837,-0.622253,0.759644
1470344255064173,-0.181396,0.0532227,-0.622131,0.759705
1470344255086193,-0.18103,0.0531616,-0.622131,0.759827
1470344255100204,-0.180481,0.0531616,-0.622131,0.76001
1470344255123733,-0.180054,0.0532837,-0.62207,0.760132
1470344255146258,-0.179626,0.0534058,-0.62207,0.760193
1470344255160271,-0.17926,0.0535278,-0.62207,0.760254
1470344255183290,-0.179199,0.0535889,-0.62207,0.760254
1470344255206311,-0.179199,0.0535278,-0.622131,0.760254
1470344255220323,-0.179138,0.0535278,-0.622131,0.760254
1470344255243369,-0.17926,0.0534058,-0.62207,0.760315
1470344255266390,-0.179565,0.0533447,-0.621948,0.760315
1470344255287426,-0.179871,0.0532227,-0.621887,0.760315
1470344255303423,-0.179932,0.0531006,-0.621704,0.760437
1470344255326463,-0.180237,0.0530396,-0.621582,0.760437
1470344255347398,-0.18042,0.0530396,-0.621582,0.760437
1470344255363409,-0.18042,0.0530396,-0.621521,0.760437
1470344255386430,-0.18042,0.0530396,-0.621521,0.760498
1470344255407450,-0.180359,0.0530396,-0.621582,0.760498
1470344255423971,-0.180359,0.0530396,-0.621582,0.760498
1470344255446212,-0.179993,0.0530396,-0.621582,0.760559
1470344255467231,-0.179749,0.0531006,-0.621521,0.76062
1470344255484248,-0.179688,0.0531006,-0.621521,0.76062
1470344255506266,-0.179688,0.0531006,-0.621521,0.760681
1470344255528797,-0.179688,0.0531616,-0.621521,0.760681
1470344255543314,-0.179688,0.0531616,-0.621521,0.760681
1470344255566336,-0.179749,0.0531006,-0.621582,0.760559
1470344255587356,-0.179993,0.0531006,-0.621643,0.760498
1470344255603368,-0.180237,0.0531006,-0.621704,0.760376
1470344255626396,-0.180542,0.0531616,-0.621643,0.760376
1470344255647418,-0.180847,0.0532227,-0.621582,0.760315
1470344255677444,-0.180969,0.0531616,-0.621582,0.760315
1470344255686452,-0.181274,0.0531616,-0.621643,0.760193
1470344255708472,-0.181458,0.0531006,-0.621704,0.760071
1470344255723991,-0.181519,0.0529175,-0.621887,0.759949
1470344255746518,-0.181519,0.0529785,-0.621948,0.759888
1470344255768539,-0.181519,0.0529175,-0.621948,0.759888
1470344255783549,-0.181458,0.0529175,-0.622009,0.759888
1470344255806570,-0.181396,0.0529175,-0.622009,0.759888
1470344255829095,-0.181396,0.0529175,-0.622009,0.759888
1470344255843132,-0.181396,0.0529785,-0.621948,0.759888
1470344255866152,-0.181396,0.0529785,-0.621948,0.759888
1470344255889173,-0.181396,0.0529785,-0.621948,0.759888
1470344255903187,-0.180847,0.0527954,-0.621887,0.760071
1470344255926713,-0.180969,0.0528564,-0.621765,0.760193
1470344255948740,-0.181152,0.0530396,-0.621643,0.760254
1470344255962751,-0.181519,0.0531006,-0.621521,0.760254
1470344255985771,-0.181885,0.0530396,-0.621399,0.760254
1470344256008792,-0.182129,0.0529785,-0.621338,0.760254
1470344256022806,-0.182495,0.0529175,-0.621216,0.760254
1470344256046837,-0.182861,0.0528564,-0.621155,0.760193
1470344256068857,-0.182983,0.0527344,-0.621155,0.760254
1470344256082869,-0.182922,0.0527344,-0.621155,0.760254
1470344256105889,-0.182922,0.0527344,-0.621155,0.760254
1470344256128930,-0.182922,0.0527954,-0.621155,0.760254
1470344256142766,-0.182861,0.0527954,-0.621094,0.760254
1470344256165787,-0.182861,0.0527954,-0.621094,0.760254
1470344256188806,-0.182861,0.0527954,-0.621094,0.760254
1470344256202819,-0.1828,0.0527954,-0.621094,0.760254
1470344256226345,-0.182983,0.0530396,-0.621094,0.760193
1470344256248869,-0.183228,0.0531616,-0.621094,0.760132
1470344256269887,-0.183411,0.0532837,-0.621033,0.760132
1470344256285900,-0.183472,0.0533447,-0.620972,0.760193
1470344256308922,-0.183777,0.0535278,-0.62085,0.760193
1470344256329944,-0.18396,0.0536499,-0.620667,0.760315
1470344256345961,-0.18396,0.0537109,-0.620667,0.760315
1470344256368983,-0.183899,0.0537109,-0.620422,0.760498
1470344256390003,-0.183899,0.053833,-0.620239,0.760681
1470344256406016,-0.184143,0.0540771,-0.620056,0.760742
1470344256429041,-0.184265,0.0544434,-0.619995,0.760742
1470344256450063,-0.184509,0.0549316,-0.619934,0.760681
1470344256466078,-0.184631,0.055481,-0.619873,0.760681
1470344256489100,-0.184387,0.0557251,-0.619873,0.760681
1470344256510117,-0.184204,0.0559692,-0.619873,0.760742
1470344256526636,-0.184082,0.0562134,-0.619873,0.760742
1470344256549170,-0.183838,0.0563354,-0.619995,0.760681
1470344256570180,-0.183777,0.0563354,-0.619995,0.760681
1470344256586194,-0.183838,0.0565186,-0.619995,0.760681
1470344256608213,-0.183777,0.0565186,-0.619995,0.760681
1470344256630239,-0.183716,0.0565186,-0.620056,0.760681
1470344256645800,-0.183716,0.0565186,-0.620056,0.760681
1470344256668822,-0.183716,0.0565186,-0.619995,0.760681
1470344256690856,-0.183655,0.0565186,-0.620056,0.760681
1470344256705854,-0.183655,0.0565186,-0.619995,0.760681
1470344256728879,-0.183289,0.0565796,-0.619873,0.760925
1470344256751403,-0.183228,0.0565796,-0.619873,0.760925
1470344256766417,-0.183228,0.0566406,-0.619873,0.760925
1470344256788439,-0.183228,0.0566406,-0.619873,0.760925
1470344256811458,-0.183167,0.0567017,-0.619873,0.760925
1470344256825977,-0.183167,0.0567017,-0.619873,0.760925
1470344256848501,-0.182861,0.0565186,-0.619995,0.760925
1470344256871521,-0.1828,0.0565186,-0.619995,0.760925
1470344256885534,-0.182739,0.0565186,-0.619995,0.760925
1470344256908554,-0.182739,0.0565186,-0.619995,0.760925
1470344256931580,-0.182678,0.0565796,-0.619995,0.760925
1470344256945597,-0.182678,0.0565796,-0.619995,0.760925
1470344256968619,-0.182678,0.0565796,-0.619995,0.760925
1470344256991638,-0.182678,0.0565796,-0.619995,0.760925
1470344257005651,-0.182739,0.0566406,-0.620056,0.760864
1470344257029179,-0.1828,0.0567017,-0.620056,0.760803
1470344257051707,-0.182739,0.0567017,-0.620117,0.760864
1470344257065719,-0.182739,0.0568848,-0.619995,0.760864
1470344257088738,-0.182678,0.0568848,-0.619995,0.760925
1470344257110758,-0.182678,0.0568848,-0.619995,0.760925
1470344257125778,-0.182678,0.0570068,-0.619995,0.760925
1470344257148441,-0.182861,0.0571289,-0.619995,0.760864
1470344257171463,-0.182861,0.0571289,-0.619995,0.760864
1470344257192482,-0.182861,0.0571289,-0.619995,0.760864
1470344257208495,-0.1828,0.0571289,-0.619995,0.760864
1470344257231521,-0.182922,0.057312,-0.619934,0.760864
1470344257252047,-0.182861,0.057373,-0.619934,0.760864
1470344257269062,-0.182861,0.057373,-0.619934,0.760864
1470344257291082,-0.182861,0.057373,-0.619934,0.760864
1470344257312103,-0.1828,0.057373,-0.619934,0.760864
1470344257329120,-0.1828,0.0574341,-0.619934,0.760864
1470344257351144,-0.1828,0.0574341,-0.619934,0.760925
1470344257372177,-0.1828,0.0574341,-0.619934,0.760925
1470344257389178,-0.182617,0.057312,-0.619934,0.760986
1470344257411198,-0.182556,0.057312,-0.619934,0.760986
1470344257432726,-0.182495,0.057312,-0.619934,0.760986
1470344257448244,-0.182495,0.057312,-0.619934,0.760986
1470344257471265,-0.182495,0.057312,-0.619934,0.760986
1470344257492284,-0.182434,0.057373,-0.619934,0.760986
1470344257508297,-0.182434,0.057373,-0.619934,0.760986
1470344257531322,-0.182434,0.057373,-0.619934,0.760986
1470344257552344,-0.182373,0.057373,-0.619934,0.761047
1470344257568358,-0.182373,0.057373,-0.619934,0.761047
1470344257591380,-0.182312,0.0574341,-0.619934,0.761047
1470344257613399,-0.182312,0.0574341,-0.619934,0.761047
1470344257628921,-0.182312,0.0574341,-0.619934,0.761047
1470344257651446,-0.182312,0.0574341,-0.619934,0.761047
1470344257673465,-0.182251,0.0574341,-0.619934,0.761047
1470344257688477,-0.182251,0.0574341,-0.619934,0.761047
1470344257711498,-0.182251,0.0574951,-0.619934,0.761047
1470344257734025,-0.18219,0.0574951,-0.619934,0.761047
1470344257748540,-0.18219,0.0574951,-0.619934,0.761047
1470344257771562,-0.182129,0.0574951,-0.619934,0.761047
1470344257793582,-0.182129,0.0574951,-0.619873,0.761047
1470344257808595,-0.181946,0.057373,-0.619873,0.761169
1470344257831622,-0.181885,0.057373,-0.619873,0.761169
1470344257853646,-0.181885,0.057373,-0.619873,0.761169
1470344257867657,-0.181824,0.057373,-0.619873,0.761169
1470344257891679,-0.181396,0.057251,-0.619812,0.761353
1470344257913700,-0.180786,0.0570679,-0.619812,0.761536
1470344257928218,-0.180725,0.0570679,-0.619812,0.761536
1470344257950741,-0.180664,0.0570679,-0.619812,0.761536
1470344257973761,-0.180664,0.0570679,-0.619812,0.761536
1470344257987775,-0.180664,0.0570679,-0.619812,0.761536
1470344258010794,-0.18042,0.0570068,-0.619751,0.761658
1470344258034847,-0.18042,0.0570068,-0.619751,0.761658
1470344258047880,-0.180359,0.0570068,-0.619751,0.761658
1470344258070899,-0.179993,0.0570068,-0.619751,0.76178
1470344258093920,-0.179443,0.0568237,-0.61969,0.761963
1470344258114938,-0.178711,0.0568237,-0.619629,0.762207
1470344258131458,-0.17804,0.0567017,-0.619568,0.76239
1470344258153998,-0.177307,0.0567627,-0.619446,0.762634
1470344258175016,-0.17688,0.0569458,-0.619324,0.762817
1470344258191031,-0.176575,0.057312,-0.619324,0.762878
1470344258214052,-0.17627,0.0578613,-0.619324,0.762878
1470344258235073,-0.176086,0.0582275,-0.619385,0.762878
1470344258251091,-0.175659,0.0582275,-0.619324,0.763
1470344258274112,-0.174866,0.0579224,-0.619446,0.763123
1470344258295131,-0.174866,0.0579224,-0.619446,0.763123
1470344258311146,-0.174866,0.0579224,-0.619446,0.763123
1470344258334172,-0.174866,0.0579224,-0.619446,0.763123
1470344258354854,-0.174744,0.0577393,-0.619385,0.763184
1470344258370869,-0.174683,0.0577393,-0.619385,0.763245
1470344258393888,-0.174927,0.0578003,-0.619385,0.763184
1470344258414909,-0.174927,0.0578613,-0.619385,0.763184
1470344258431426,-0.17511,0.0576782,-0.619324,0.763184
1470344258453450,-0.175232,0.0576172,-0.619385,0.763123
1470344258474468,-0.175659,0.0576782,-0.619324,0.763062
1470344258491483,-0.175781,0.0576782,-0.619202,0.763123
1470344258513504,-0.175781,0.0576782,-0.619202,0.763123
1470344258535031,-0.175598,0.0574341,-0.619263,0.763123
1470344258551552,-0.175537,0.0574341,-0.619263,0.763123
1470344258573570,-0.175537,0.0574341,-0.619263,0.763184
1470344258596593,-0.175659,0.0576172,-0.619202,0.763123
1470344258611604,-0.175598,0.0576172,-0.619202,0.763123
1470344258634130,-0.175598,0.0576172,-0.619202,0.763184
1470344258656636,-0.175598,0.0576172,-0.619202,0.763184
1470344258677654,-0.175659,0.0577393,-0.619202,0.763123
1470344258693668,-0.175842,0.0578613,-0.619202,0.763062
1470344258716689,-0.175842,0.0578613,-0.619202,0.763062
1470344258730706,-0.175842,0.0579224,-0.619202,0.763062
1470344258753734,-0.175781,0.0579224,-0.619202,0.763062
1470344258775756,-0.175781,0.0579224,-0.619202,0.763062
1470344258790767,-0.175781,0.0579224,-0.619202,0.763123
1470344258813789,-0.175781,0.0579224,-0.619202,0.763123
1470344258836313,-0.175781,0.0579224,-0.619202,0.763123
1470344258850836,-0.17572,0.0579834,-0.619202,0.763123
1470344258873854,-0.17572,0.0579834,-0.619202,0.763123
1470344258895875,-0.17572,0.0580444,-0.619202,0.763123
1470344258910890,-0.17572,0.0580444,-0.619202,0.763123
1470344258933914,-0.17572,0.0580444,-0.619202,0.763123
1470344258955936,-0.17572,0.0580444,-0.619202,0.763123
1470344258970951,-0.175659,0.0580444,-0.619202,0.763123
1470344258993971,-0.175659,0.0580444,-0.619202,0.763123
1470344259015991,-0.175903,0.0581665,-0.619263,0.763
1470344259031010,-0.176086,0.0582886,-0.619324,0.762939
1470344259054034,-0.176514,0.0584106,-0.619324,0.762817
1470344259076054,-0.176819,0.0584717,-0.619324,0.762695
1470344259097073,-0.177124,0.0586548,-0.619385,0.762634
1470344259114089,-0.177429,0.0588379,-0.619385,0.762512
1470344259119092,-0.177368,0.0588379,-0.619385,0.762512
1470344259141619,-0.177368,0.0588379,-0.619385,0.762512
1470344259160024,-0.177307,0.0588379,-0.619385,0.762512
1470344259179041,-0.177307,0.0588379,-0.619385,0.762512
1470344259202061,-0.177307,0.0588379,-0.619385,0.762512
1470344259220079,-0.177002,0.0587158,-0.619202,0.762756
1470344259239603,-0.17688,0.0587158,-0.618896,0.763
1470344259262127,-0.17688,0.0586548,-0.618713,0.763184
1470344259280144,-0.176636,0.0586548,-0.618835,0.763184
1470344259299170,-0.176453,0.05896,-0.618896,0.763123
1470344259322181,-0.176453,0.05896,-0.618896,0.763123
1470344259339717,-0.176514,0.05896,-0.618896,0.763123
1470344259359268,-0.176697,0.0594482,-0.618896,0.763
1470344259381259,-0.177246,0.0598755,-0.618774,0.763
1470344259399273,-0.177368,0.0597534,-0.618591,0.763123
1470344259419292,-0.177368,0.0597534,-0.618591,0.763123
1470344259442347,-0.177307,0.0597534,-0.618591,0.763123
1470344259459369,-0.177734,0.0597534,-0.61853,0.763062
1470344259479403,-0.178345,0.0598755,-0.618347,0.763062
1470344259501408,-0.178345,0.0596924,-0.618164,0.763184
1470344259519427,-0.17804,0.0595703,-0.61792,0.763489
1470344259539448,-0.178223,0.0596313,-0.617676,0.763611
1470344259561472,-0.178467,0.0596924,-0.617554,0.763672
1470344259579486,-0.178467,0.0596924,-0.617554,0.763672
1470344259599503,-0.177917,0.0593262,-0.617493,0.763855
1470344259621524,-0.177185,0.05896,-0.617188,0.764343
1470344259639562,-0.176941,0.0587158,-0.616638,0.764832
1470344259659584,-0.177002,0.0587769,-0.616455,0.764954
1470344259681606,-0.176941,0.0588379,-0.616455,0.764954
1470344259699622,-0.176514,0.0587769,-0.616577,0.765015
1470344259719639,-0.176697,0.0591431,-0.616577,0.764954
1470344259741662,-0.176941,0.0593262,-0.616516,0.764893
1470344259759682,-0.176636,0.059082,-0.616516,0.765015
1470344259778698,-0.176208,0.0588379,-0.616638,0.765015
1470344259801719,-0.176208,0.0588379,-0.616638,0.765015
1470344259833253,-0.17627,0.059082,-0.61676,0.764893
1470344259839259,-0.176514,0.0593262,-0.61676,0.764771
1470344259861640,-0.176392,0.0593262,-0.61676,0.764832
1470344259879656,-0.176025,0.05896,-0.616821,0.764893
1470344259899673,-0.175964,0.05896,-0.616821,0.764893
1470344259921694,-0.176331,0.05896,-0.616821,0.764832
1470344259939717,-0.176758,0.05896,-0.616821,0.764709
1470344259960738,-0.176758,0.059021,-0.616821,0.764709
1470344259981757,-0.176636,0.0588379,-0.616943,0.764648
1470344259999774,-0.176514,0.0592041,-0.617126,0.764526
1470344260018794,-0.177307,0.0598145,-0.617004,0.764343
1470344260041818,-0.177856,0.0595093,-0.61731,0.764038
1470344260059838,-0.176819,0.0582886,-0.617676,0.764038
1470344260078855,-0.176758,0.0582275,-0.617737,0.764099
1470344260101877,-0.177429,0.0587769,-0.617493,0.764038
1470344260119892,-0.177673,0.0585938,-0.617371,0.764099
1470344260140915,-0.177429,0.0583496,-0.617249,0.764221
1470344260161874,-0.177429,0.0583496,-0.617249,0.764282
1470344260179891,-0.177429,0.0583496,-0.617249,0.764282
1470344260200910,-0.177429,0.0583496,-0.617249,0.764282
1470344260221928,-0.177734,0.0587158,-0.617188,0.764221
1470344260239465,-0.177734,0.0587769,-0.617188,0.764221
1470344260261001,-0.177124,0.0586548,-0.617371,0.764221
1470344260282020,-0.177063,0.0585938,-0.617371,0.764221
1470344260300038,-0.177246,0.0588989,-0.617188,0.764343
1470344260321057,-0.177124,0.05896,-0.617065,0.764465
1470344260342079,-0.177124,0.059021,-0.617004,0.764465
1470344260359098,-0.177124,0.059021,-0.617004,0.764465
1470344260380117,-0.177368,0.0591431,-0.616943,0.764465
1470344260402136,-0.177368,0.0591431,-0.616943,0.764465
1470344260419153,-0.177612,0.0593262,-0.616882,0.764465
1470344260440675,-0.177856,0.0595093,-0.616821,0.764404
1470344260462198,-0.178284,0.0596924,-0.616821,0.764343
1470344260479215,-0.17865,0.0598755,-0.616821,0.764221
1470344260502235,-0.178467,0.0598145,-0.616882,0.764221
1470344260521255,-0.178162,0.0599976,-0.616638,0.764465
1470344260539779,-0.179199,0.060791,-0.616272,0.764465
1470344260562305,-0.180359,0.0609131,-0.616333,0.76416
1470344260581322,-0.180176,0.0599365,-0.616455,0.76416
1470344260599337,-0.180115,0.0598145,-0.616455,0.76416
1470344260622359,-0.180908,0.0604858,-0.616333,0.764038
1470344260641881,-0.181091,0.0605469,-0.616089,0.76416
1470344260659401,-0.180725,0.0606079,-0.615845,0.764465
1470344260689428,-0.180359,0.0604858,-0.615784,0.764587
1470344260701442,-0.180176,0.0603027,-0.615662,0.764771
1470344260719456,-0.180176,0.0603638,-0.615662,0.764771
1470344260742481,-0.180176,0.0603638,-0.615662,0.764771
1470344260761503,-0.180176,0.0603638,-0.615662,0.764771
1470344260779519,-0.179932,0.0604248,-0.615662,0.764832
1470344260802539,-0.179565,0.0603638,-0.615662,0.764893
1470344260823558,-0.179504,0.0603638,-0.615662,0.764893
1470344260839578,-0.179504,0.0603638,-0.615662,0.764893
1470344260861601,-0.179565,0.0604248,-0.615662,0.764893
1470344260881618,-0.179565,0.0604858,-0.615662,0.764893
1470344260899634,-0.179504,0.0604858,-0.615662,0.764893
1470344260921654,-0.17981,0.0605469,-0.615601,0.764893
1470344260942177,-0.180176,0.060791,-0.615723,0.764709
1470344260959455,-0.180176,0.060791,-0.615723,0.764709
1470344260982475,-0.18042,0.0611572,-0.615662,0.764648
1470344261001492,-0.181213,0.0616455,-0.61554,0.764526
1470344261019510,-0.181458,0.0613403,-0.615662,0.764404
1470344261042533,-0.180847,0.0603638,-0.615784,0.764465
1470344261063555,-0.18042,0.0599976,-0.616028,0.764404
1470344261079569,-0.180847,0.0604858,-0.615845,0.764404
1470344261102589,-0.181091,0.0605469,-0.615662,0.764526
1470344261122607,-0.180603,0.0601807,-0.615479,0.764832
1470344261139628,-0.180359,0.0599976,-0.615234,0.765076
1470344261162188,-0.180298,0.0597534,-0.615051,0.765259
1470344261183206,-0.180664,0.0598755,-0.614868,0.76532
1470344261199220,-0.180664,0.0598755,-0.614868,0.76532
1470344261222242,-0.180664,0.0598755,-0.614807,0.76532
1470344261243265,-0.180725,0.0599365,-0.614807,0.76532
1470344261259783,-0.180725,0.0599365,-0.614807,0.76532
1470344261281804,-0.18042,0.0599976,-0.614868,0.76532
1470344261302821,-0.18042,0.0599976,-0.614868,0.76532
1470344261319837,-0.180481,0.0600586,-0.614746,0.765442
1470344261342375,-0.181213,0.0604248,-0.614807,0.765198
1470344261362888,-0.180786,0.0603638,-0.614746,0.76532
1470344261377901,-0.18158,0.0608521,-0.614563,0.765259
1470344261400921,-0.182983,0.0610352,-0.614624,0.764893
1470344261423941,-0.182678,0.0597534,-0.614685,0.764954
1470344261438459,-0.181824,0.0587769,-0.614868,0.765137
1470344261460830,-0.182007,0.05896,-0.614868,0.765076
1470344261483851,-0.182495,0.05896,-0.614624,0.765198
1470344261497864,-0.182007,0.0585327,-0.614441,0.765442
1470344261520883,-0.181335,0.0581055,-0.61438,0.765686
1470344261543912,-0.181213,0.0578003,-0.614258,0.765808
1470344261558541,-0.181213,0.0578003,-0.614258,0.765808
1470344261581563,-0.180908,0.0576782,-0.614319,0.765869
1470344261603583,-0.181152,0.0576172,-0.614258,0.765869
1470344261618596,-0.181152,0.0576172,-0.614258,0.765869
1470344261641620,-0.181152,0.0576172,-0.614258,0.765869
1470344261664143,-0.181702,0.0581665,-0.614075,0.765869
1470344261678156,-0.182007,0.0580444,-0.613831,0.76593
1470344261701176,-0.181946,0.0581055,-0.613831,0.76593
1470344261724200,-0.18219,0.0584717,-0.614075,0.765686
1470344261738718,-0.183105,0.0591431,-0.613708,0.765686
1470344261761242,-0.184082,0.0591431,-0.613708,0.765503
1470344261784264,-0.183105,0.0579834,-0.613892,0.765686
1470344261798277,-0.183044,0.0578613,-0.613892,0.765686
1470344261821297,-0.183777,0.0585327,-0.613708,0.765625
1470344261844325,-0.184143,0.0587158,-0.613403,0.765747
1470344261858344,-0.183777,0.0584717,-0.613281,0.76593
1470344261881366,-0.183777,0.0584717,-0.613281,0.76593
1470344261903383,-0.183777,0.0584717,-0.613281,0.76593
1470344261925403,-0.183594,0.0585327,-0.613159,0.766113
1470344261941424,-0.183777,0.0588379,-0.613098,0.766113
1470344261963446,-0.183777,0.0588379,-0.613098,0.766113
1470344261984479,-0.183716,0.0588379,-0.613098,0.766113
1470344262001480,-0.183716,0.0588379,-0.613098,0.766113
1470344262023499,-0.183655,0.0588989,-0.613098,0.766113
1470344262046086,-0.183655,0.0588989,-0.613098,0.766113
1470344262061098,-0.183655,0.0588989,-0.613098,0.766113
1470344262084120,-0.183594,0.0588989,-0.613098,0.766113
1470344262112145,-0.183594,0.05896,-0.613098,0.766113
1470344262121152,-0.183533,0.05896,-0.613098,0.766174
1470344262144181,-0.183533,0.05896,-0.613098,0.766174
1470344262164732,-0.183472,0.05896,-0.613098,0.766174
1470344262180731,-0.183472,0.05896,-0.613098,0.766174
1470344262203776,-0.183472,0.059021,-0.613037,0.766174
1470344262226773,-0.183411,0.059021,-0.613037,0.766174
1470344262241792,-0.183411,0.059021,-0.613037,0.766174
1470344262263829,-0.18335,0.059082,-0.613037,0.766174
1470344262284861,-0.183289,0.059082,-0.613037,0.766174
1470344262300872,-0.183289,0.059082,-0.613037,0.766174
1470344262323882,-0.183289,0.059082,-0.613037,0.766235
1470344262345407,-0.183228,0.0591431,-0.613037,0.766235
1470344262360875,-0.183228,0.0591431,-0.613037,0.766235
1470344262383896,-0.183594,0.0593262,-0.612976,0.766174
1470344262406917,-0.183777,0.0592041,-0.612854,0.766235
1470344262420930,-0.183777,0.0592041,-0.612854,0.766235
1470344262443956,-0.183716,0.0592041,-0.612854,0.766235
1470344262466010,-0.183899,0.0593872,-0.612854,0.766235
1470344262481024,-0.183899,0.0593872,-0.612854,0.766235
1470344262504043,-0.183899,0.0594482,-0.612854,0.766235
1470344262526062,-0.183899,0.0594482,-0.612854,0.766235
1470344262541086,-0.183899,0.0596313,-0.612915,0.766113
1470344262564110,-0.183899,0.0596313,-0.612915,0.766174
1470344262586128,-0.183838,0.0596313,-0.612915,0.766174
1470344262600156,-0.183838,0.0596924,-0.612915,0.766174
1470344262624162,-0.183777,0.0596924,-0.612915,0.766174
1470344262646863,-0.184082,0.0597534,-0.612854,0.766113
1470344262660876,-0.184082,0.0598145,-0.612854,0.766113
1470344262683896,-0.184082,0.0598145,-0.612854,0.766113
1470344262705916,-0.184082,0.0598145,-0.612854,0.766174
1470344262720930,-0.184082,0.0598755,-0.612854,0.766174
1470344262743956,-0.184021,0.0598755,-0.612854,0.766174
1470344262766103,-0.18396,0.0598755,-0.612854,0.766174
1470344262787124,-0.18396,0.0598755,-0.612854,0.766174
1470344262804137,-0.18396,0.0598755,-0.612854,0.766174
1470344262826156,-0.183533,0.0598755,-0.612793,0.766296
1470344262847326,-0.183472,0.0598755,-0.612793,0.766296
1470344262864341,-0.183472,0.0598755,-0.612793,0.766357
1470344262886360,-0.18335,0.0600586,-0.612549,0.766479
1470344262907380,-0.18335,0.0600586,-0.612549,0.766541
1470344262923393,-0.183105,0.0598755,-0.612427,0.766663
1470344262946423,-0.182861,0.0598145,-0.612305,0.766846
1470344262966946,-0.182861,0.0598755,-0.612305,0.766846
1470344262983959,-0.1828,0.0599365,-0.612305,0.766846
1470344263005979,-0.182617,0.0598145,-0.612183,0.766968
1470344263026997,-0.182312,0.0596924,-0.612122,0.767151
1470344263044024,-0.182251,0.0596924,-0.612122,0.767151
1470344263066048,-0.182251,0.0596924,-0.612122,0.767151
1470344263087083,-0.182251,0.0597534,-0.612122,0.767151
1470344263104081,-0.18219,0.0597534,-0.612122,0.767151
1470344263126103,-0.18219,0.0597534,-0.612122,0.767151
1470344263147137,-0.182373,0.0601196,-0.612183,0.76709
1470344263164160,-0.182678,0.0606689,-0.612122,0.766968
1470344263186179,-0.183167,0.0611572,-0.612061,0.766907
1470344263207196,-0.183594,0.0615234,-0.611755,0.766968
1470344263224211,-0.183716,0.0615234,-0.611389,0.767212
1470344263246744,-0.183228,0.0614624,-0.611267,0.767456
1470344263267266,-0.183228,0.0614624,-0.611267,0.767456
1470344263283279,-0.183472,0.0615234,-0.611145,0.767517
1470344263306300,-0.183411,0.0615845,-0.611145,0.767517
1470344263329321,-0.183411,0.0617676,-0.611328,0.767334
1470344263343847,-0.183533,0.0621338,-0.611389,0.767273
1470344263366374,-0.183472,0.0621338,-0.611389,0.767273
1470344263389394,-0.183472,0.0621948,-0.611389,0.767273
1470344263404408,-0.183044,0.0620117,-0.611389,0.767395
1470344263426427,-0.182617,0.0618286,-0.61145,0.767456
1470344263448462,-0.182129,0.0615234,-0.61145,0.767578
1470344263463477,-0.181335,0.0612183,-0.611206,0.767944
1470344263486497,-0.180359,0.0608521,-0.610962,0.768433
1470344263508517,-0.179321,0.0604248,-0.610718,0.768921
1470344263523530,-0.178711,0.0600586,-0.610474,0.769287
1470344263546558,-0.17865,0.0601196,-0.610291,0.76947
1470344263576592,-0.179077,0.0604248,-0.610046,0.769531
1470344263583599,-0.179688,0.0605469,-0.60968,0.769592
1470344263606620,-0.180054,0.0603638,-0.609497,0.769714
1470344263628637,-0.179932,0.0599976,-0.609375,0.769836
1470344263643155,-0.179749,0.0596313,-0.609253,0.77002
1470344263666682,-0.180176,0.0595093,-0.608948,0.770142
1470344263688702,-0.180725,0.0593872,-0.608643,0.770325
1470344263702716,-0.181152,0.0593262,-0.608337,0.770447
1470344263726736,-0.181519,0.0593262,-0.608154,0.770508
1470344263748768,-0.181946,0.0595703,-0.608032,0.770508
1470344263762780,-0.182556,0.0599976,-0.607727,0.770508
1470344263786804,-0.183167,0.0604248,-0.607483,0.770569
1470344263808822,-0.183472,0.06073,-0.607239,0.770691
1470344263831847,-0.184021,0.0610352,-0.606995,0.770691
1470344263846370,-0.184692,0.0612793,-0.60675,0.770691
1470344263868896,-0.185303,0.0614014,-0.606506,0.770752
1470344263889915,-0.185669,0.0614624,-0.60614,0.770935
1470344263905929,-0.186035,0.0612183,-0.605713,0.771179
1470344263928949,-0.186523,0.0610962,-0.605103,0.771545
1470344263949977,-0.187988,0.0610352,-0.604309,0.771851
1470344263965991,-0.189209,0.0610962,-0.603516,0.772156
1470344263989013,-0.190613,0.0614014,-0.602783,0.772339
1470344264010032,-0.192566,0.0622559,-0.602051,0.772339
1470344264026046,-0.194458,0.0630493,-0.601624,0.772156
1470344264049087,-0.196228,0.0639038,-0.601257,0.771973
1470344264070104,-0.198059,0.0650024,-0.60083,0.771729
1470344264086118,-0.199707,0.0662842,-0.600403,0.771545
1470344264109139,-0.20166,0.0678711,-0.599731,0.771423
1470344264130158,-0.203491,0.0692139,-0.59906,0.771301
1470344264146679,-0.204773,0.0702515,-0.598267,0.771484
1470344264168732,-0.205444,0.0710449,-0.597351,0.771912
1470344264189751,-0.206299,0.0718994,-0.596619,0.772217
1470344264206767,-0.207275,0.0723877,-0.595825,0.772522
1470344264236797,-0.208679,0.0726318,-0.59491,0.772827
1470344264251215,-0.210388,0.072876,-0.593811,0.773193
1470344264266229,-0.212158,0.0731812,-0.592651,0.77356
1470344264289249,-0.213623,0.0738525,-0.591187,0.774231
1470344264311269,-0.214783,0.074585,-0.589722,0.774963
1470344264326282,-0.215515,0.0751343,-0.588379,0.775696
1470344264349315,-0.216736,0.0759277,-0.587036,0.776306
1470344264371334,-0.218323,0.0770264,-0.585632,0.776794
1470344264386350,-0.220398,0.0784302,-0.583862,0.777405
1470344264408369,-0.223145,0.0797119,-0.581543,0.778259
1470344264431390,-0.227112,0.0788574,-0.578674,0.779358
1470344264445909,-0.240479,0.0803833,-0.573914,0.778625
1470344264468433,-0.250977,0.0792847,-0.568787,0.779236
1470344264491455,-0.252441,0.0761719,-0.559998,0.7854
1470344264505466,-0.238831,0.06604,-0.548035,0.798889
1470344264528486,-0.237549,0.0611572,-0.526917,0.813782
1470344264551517,-0.251404,0.0636597,-0.500183,0.826172
1470344264572536,-0.265015,0.0646973,-0.476501,0.835754
1470344264588548,-0.269897,0.0606079,-0.454102,0.846924
1470344264611570,-0.270081,0.0515747,-0.434082,0.857849
1470344264632589,-0.269653,0.0428467,-0.417053,0.866882
1470344264648109,-0.272278,0.038269,-0.402832,0.872986
1470344264671423,-0.277832,0.0370483,-0.391418,0.876465
1470344264692443,-0.286743,0.0368042,-0.382751,0.877441
1470344264708456,-0.295715,0.0367432,-0.376587,0.877136
1470344264731477,-0.300537,0.0358887,-0.372925,0.877075
1470344264752504,-0.30188,0.0341797,-0.371094,0.877502
1470344264768520,-0.302673,0.0314331,-0.370483,0.877563
1470344264791540,-0.305664,0.0296021,-0.369324,0.877075
1470344264812559,-0.307312,0.0293579,-0.367798,0.877197
1470344264828574,-0.30658,0.0307617,-0.366882,0.877747
1470344264851608,-0.302307,0.0320435,-0.366882,0.87915
1470344264872626,-0.300537,0.0333862,-0.366089,0.880066
1470344264888641,-0.302307,0.0341797,-0.364868,0.879944
1470344264911662,-0.303162,0.0341797,-0.364075,0.880005
1470344264940192,-0.302185,0.0332031,-0.363403,0.880615
1470344264948699,-0.302429,0.0317993,-0.363586,0.880554
1470344264971726,-0.304504,0.0313721,-0.363831,0.8797
1470344264992743,-0.305603,0.0320435,-0.364563,0.879028
1470344265008758,-0.305054,0.0327759,-0.365479,0.878784
1470344265031780,-0.30481,0.0338135,-0.365967,0.878662
1470344265052806,-0.305359,0.0351563,-0.365662,0.87854
1470344265068821,-0.305664,0.036377,-0.365234,0.87854
1470344265090840,-0.304626,0.0374146,-0.36499,0.878967
1470344265112860,-0.303345,0.0383911,-0.364441,0.879578
1470344265128874,-0.303101,0.0390015,-0.363831,0.879883
1470344265151464,-0.304138,0.0396729,-0.36261,0.880005
1470344265172482,-0.304932,0.0405884,-0.361755,0.880066
1470344265188495,-0.304138,0.0411987,-0.361328,0.880432
1470344265211517,-0.301941,0.0410156,-0.360779,0.88147
1470344265234042,-0.301697,0.0418091,-0.359253,0.882141
1470344265248554,-0.301147,0.0432129,-0.358459,0.882568
1470344265271729,-0.299377,0.0443115,-0.358154,0.88324
1470344265293749,-0.298279,0.0457153,-0.357788,0.883667
1470344265308762,-0.299072,0.0466309,-0.356934,0.883728
1470344265331784,-0.300781,0.0469971,-0.356445,0.883301
1470344265353330,-0.299866,0.0467529,-0.356323,0.883667
1470344265368342,-0.297302,0.0458374,-0.35675,0.88446
1470344265391362,-0.295593,0.0447998,-0.356934,0.88501
1470344265413382,-0.295044,0.0445557,-0.35675,0.885254
1470344265428395,-0.294312,0.0446777,-0.356384,0.88562
1470344265451459,-0.292969,0.0450439,-0.356079,0.886169
1470344265473480,-0.291809,0.0456543,-0.355652,0.886719
1470344265488494,-0.290955,0.0459595,-0.355286,0.887146
1470344265511520,-0.290955,0.0460205,-0.355286,0.887146
1470344265534039,-0.291199,0.0457764,-0.355347,0.887024
1470344265548553,-0.291565,0.045105,-0.356201,0.886597
1470344265571579,-0.292725,0.0436401,-0.3573,0.885864
1470344265593598,-0.295105,0.0408936,-0.358398,0.884766
1470344265614618,-0.296814,0.0374756,-0.359253,0.883972
1470344265631633,-0.297852,0.0342407,-0.360657,0.883179
1470344265653678,-0.298828,0.0318604,-0.362183,0.882324
1470344265682705,-0.299927,0.0307007,-0.363342,0.881531
1470344265691713,-0.301025,0.0300293,-0.364136,0.880859
1470344265714733,-0.301025,0.0297241,-0.364868,0.880554
1470344265735259,-0.300476,0.0298462,-0.365845,0.88031
1470344265751778,-0.300354,0.0297852,-0.367126,0.879822
1470344265773799,-0.300415,0.0297852,-0.368286,0.879333
1470344265794816,-0.301025,0.0296021,-0.368896,0.878845
1470344265811832,-0.300659,0.0292358,-0.368958,0.878967
1470344265833852,-0.299255,0.0292969,-0.369507,0.879211
1470344265854883,-0.297241,0.0294189,-0.370117,0.879639
1470344265870895,-0.295654,0.0294189,-0.370422,0.880066
1470344265893917,-0.294556,0.0285034,-0.369812,0.880676
1470344265914934,-0.294373,0.0275879,-0.369995,0.880737
1470344265930950,-0.29425,0.0269165,-0.370483,0.880615
1470344265953982,-0.294922,0.0272827,-0.371216,0.880066
1470344265975002,-0.297363,0.0276489,-0.371582,0.879028
1470344265991014,-0.300049,0.0275879,-0.371094,0.878357
1470344266014036,-0.300537,0.0263672,-0.371155,0.878174
1470344266035062,-0.2995,0.0251465,-0.371765,0.878296
1470344266051079,-0.299133,0.0247803,-0.372253,0.878235
1470344266074100,-0.299561,0.0245361,-0.372009,0.878235
1470344266095121,-0.30011,0.0249023,-0.371582,0.878174
1470344266111133,-0.300598,0.0262451,-0.371399,0.878052
1470344266134155,-0.300049,0.0281372,-0.371216,0.878296
1470344266156184,-0.299072,0.0308838,-0.37085,0.878662
1470344266171199,-0.298035,0.0343018,-0.370789,0.878906
1470344266194219,-0.297913,0.0365601,-0.370667,0.878967
1470344266216237,-0.29895,0.0380249,-0.370361,0.878662
1470344266239767,-0.297668,0.0390625,-0.370483,0.878967
1470344266241268,-0.295471,0.0404663,-0.370544,0.879639
1470344266259288,-0.296021,0.0428467,-0.369141,0.879944
1470344266282307,-0.298462,0.0457764,-0.366821,0.879944
1470344266298325,-0.299805,0.0484009,-0.366455,0.879456
1470344266319340,-0.299683,0.0500488,-0.366821,0.879272
1470344266342370,-0.30072,0.0516968,-0.367126,0.878662
1470344266357940,-0.302063,0.0539551,-0.368042,0.877686
1470344266378961,-0.301575,0.0559692,-0.368958,0.87738
1470344266401982,-0.301575,0.057373,-0.3703,0.876709
1470344266417996,-0.301941,0.0584717,-0.371643,0.875916
1470344266439526,-0.302734,0.0592041,-0.37262,0.875183
1470344266461553,-0.303406,0.0596924,-0.373535,0.874573
1470344266476565,-0.305054,0.0599976,-0.373901,0.87384
1470344266499587,-0.306641,0.0604858,-0.374084,0.873169
1470344266521605,-0.306702,0.0611572,-0.37439,0.872925
1470344266537125,-0.304932,0.0620117,-0.375,0.87323
1470344266559651,-0.302185,0.0632935,-0.374878,0.874146
1470344266581670,-0.301392,0.0645752,-0.375,0.874268
1470344266596684,-0.302185,0.0667114,-0.374573,0.874023
1470344266619704,-0.304626,0.0682983,-0.374268,0.873169
1470344266642229,-0.306335,0.0690308,-0.374084,0.87262
1470344266656397,-0.305664,0.0691528,-0.373657,0.873047
1470344266679417,-0.304138,0.0682983,-0.373779,0.873535
1470344266702439,-0.304199,0.0678711,-0.37323,0.87384
1470344266716452,-0.305542,0.0671997,-0.372375,0.873779
1470344266739477,-0.306519,0.0649414,-0.371643,0.873901
1470344266770022,-0.305603,0.0623779,-0.37146,0.874451
1470344266778028,-0.302612,0.0604248,-0.371582,0.87561
1470344266799046,-0.298706,0.0582886,-0.371094,0.877258
1470344266822066,-0.297363,0.0574951,-0.369934,0.878296
1470344266838590,-0.29834,0.0579224,-0.368652,0.878479
1470344266859115,-0.297668,0.0582275,-0.368103,0.878906
1470344266882136,-0.295715,0.0582886,-0.368225,0.879517
1470344266898149,-0.293701,0.0587769,-0.369202,0.879761
1470344266919168,-0.291138,0.0601196,-0.371948,0.879333
1470344266942193,-0.288269,0.0628662,-0.377625,0.877686
1470344266958213,-0.282776,0.0656128,-0.385254,0.875916
1470344266979246,-0.275818,0.067627,-0.395508,0.873474
1470344267002251,-0.268005,0.0710449,-0.408752,0.869507
1470344267018267,-0.256653,0.0752563,-0.424194,0.865173
1470344267039793,-0.24469,0.0789795,-0.441162,0.859802
1470344267062318,-0.239014,0.081604,-0.460144,0.851135
1470344267078332,-0.234985,0.0880127,-0.478943,0.841187
1470344267099351,-0.226196,0.093811,-0.494995,0.833679
1470344267122372,-0.219055,0.0961914,-0.508484,0.827148
1470344267139893,-0.220337,0.0958862,-0.519958,0.819702
1470344267159415,-0.225159,0.093811,-0.528809,0.812927
1470344267181433,-0.227905,0.0908813,-0.535583,0.808044
1470344267199449,-0.226318,0.0866089,-0.541016,0.805298
1470344267219466,-0.225891,0.0811768,-0.543884,0.804077
1470344267242000,-0.226624,0.0738525,-0.545288,0.80365
1470344267259535,-0.227417,0.0670776,-0.546448,0.803223
1470344267279551,-0.22583,0.0617676,-0.548157,0.802917
1470344267301571,-0.223145,0.0592651,-0.549194,0.803162
1470344267319586,-0.221619,0.0599976,-0.547852,0.804443
1470344267339609,-0.220093,0.0615845,-0.546448,0.805725
1470344267361633,-0.218201,0.0636597,-0.545898,0.806396
1470344267379649,-0.215576,0.0645752,-0.546753,0.806519
1470344267399665,-0.213501,0.0647583,-0.548279,0.805969
1470344267421686,-0.214233,0.0661011,-0.549377,0.804932
1470344267439707,-0.21698,0.0682983,-0.549866,0.80365
1470344267459251,-0.21875,0.069519,-0.550537,0.802673
1470344267482271,-0.219055,0.0700073,-0.551025,0.802185
1470344267500287,-0.219482,0.0690918,-0.551819,0.801575
1470344267519304,-0.219177,0.0674438,-0.552612,0.80127
1470344267549337,-0.219788,0.0665894,-0.552917,0.800964
1470344267559426,-0.221619,0.0664673,-0.553162,0.800293
1470344267579444,-0.22345,0.0657959,-0.553833,0.799377
1470344267601477,-0.223755,0.064209,-0.554749,0.798767
1470344267619482,-0.223083,0.0616455,-0.556152,0.798218
1470344267639505,-0.22168,0.0585327,-0.558044,0.797485
1470344267665037,-0.220642,0.0558472,-0.55957,0.796936
1470344267680052,-0.220581,0.0537109,-0.560486,0.796448
1470344267701072,-0.220642,0.052063,-0.561096,0.796082
1470344267722088,-0.219971,0.0507202,-0.561646,0.796021
1470344267740112,-0.218079,0.0491333,-0.561829,0.796448
1470344267761135,-0.216309,0.0476074,-0.56189,0.796997
1470344267782154,-0.215698,0.0464478,-0.561829,0.797302
1470344267800171,-0.215088,0.0447998,-0.561829,0.797546
1470344267820187,-0.213867,0.0426636,-0.562317,0.797607
1470344267842214,-0.212708,0.0406494,-0.563171,0.797424
1470344267860235,-0.212341,0.0388184,-0.564026,0.797058
1470344267881254,-0.212219,0.0374756,-0.56488,0.79657
1470344267904274,-0.211487,0.036377,-0.565735,0.796204
1470344267919288,-0.210205,0.0355835,-0.566833,0.795715
1470344267940813,-0.208801,0.0349731,-0.568054,0.795288
1470344267962336,-0.20697,0.0344238,-0.569519,0.7948
1470344267979353,-0.204895,0.0338745,-0.570862,0.794373
1470344268000371,-0.203064,0.0334473,-0.572327,0.793762
1470344268022391,-0.201294,0.0331421,-0.573608,0.793335
1470344268039911,-0.199829,0.0332031,-0.574829,0.792786
1470344268062437,-0.198547,0.0332642,-0.576172,0.792175
1470344268082452,-0.19751,0.0333862,-0.577515,0.791443
1470344268099469,-0.196655,0.0334473,-0.578918,0.790588
1470344268122490,-0.195801,0.0334473,-0.580322,0.789795
1470344268142012,-0.194824,0.0333252,-0.581726,0.789001
1470344268159317,-0.193604,0.0331421,-0.583008,0.788391
1470344268182336,-0.192627,0.0331421,-0.584167,0.78772
1470344268202352,-0.192017,0.0335693,-0.585205,0.787109
1470344268219367,-0.191772,0.0342407,-0.586182,0.786438
1470344268242397,-0.190796,0.0345459,-0.587402,0.785706
1470344268269006,-0.189636,0.0342407,-0.588623,0.785095
1470344268280017,-0.188782,0.0341187,-0.589233,0.784851
1470344268302036,-0.18811,0.0341797,-0.589783,0.784607
1470344268322056,-0.187683,0.0342407,-0.590271,0.784363
1470344268340074,-0.187195,0.0341797,-0.590759,0.784058
1470344268362599,-0.186646,0.0338745,-0.591309,0.783813
1470344268381617,-0.18634,0.0336914,-0.591858,0.783508
1470344268399633,-0.186218,0.0335083,-0.592346,0.783142
1470344268422653,-0.185974,0.0332642,-0.59259,0.78302
1470344268442177,-0.186157,0.0328979,-0.593018,0.782715
1470344268459696,-0.185974,0.0324097,-0.593384,0.782471
1470344268481717,-0.186096,0.0321655,-0.593628,0.782227
1470344268502734,-0.186035,0.0322266,-0.593994,0.781982
1470344268518749,-0.185852,0.0324707,-0.59436,0.781738
1470344268541775,-0.185791,0.0328979,-0.594604,0.781555
1470344268562800,-0.185913,0.0334473,-0.594971,0.781189
1470344268578816,-0.185913,0.0337524,-0.595459,0.780884
1470344268601835,-0.185608,0.0338745,-0.595764,0.780701
1470344268622853,-0.18512,0.0338135,-0.596008,0.78064
1470344268639374,-0.184143,0.0339355,-0.59613,0.780762
1470344268661900,-0.184082,0.0339355,-0.59613,0.780762
1470344268682920,-0.184631,0.0341797,-0.596069,0.780701
1470344268699937,-0.184753,0.0344849,-0.595947,0.780701
1470344268720953,-0.184509,0.0344849,-0.596008,0.780701
1470344268742978,-0.184387,0.0346069,-0.59613,0.78064
1470344268758998,-0.184509,0.03479,-0.596252,0.780518
