timestamp,x,y,z,w
1470262405106461,-0.138977,-0.0426636,-0.565308,-0.812012
1470262405122976,-0.138977,-0.0426636,-0.565308,-0.812012
1470262405145496,-0.138977,-0.0426636,-0.565308,-0.812012
1470262405166514,-0.138977,-0.0426636,-0.565308,-0.812012
1470262405182529,-0.138916,-0.0427246,-0.565308,-0.812012
1470262405205550,-0.138916,-0.0427246,-0.565308,-0.812012
1470262405226569,-0.138916,-0.0427246,-0.565308,-0.812012
1470262405242583,-0.138855,-0.0427246,-0.565308,-0.812012
1470262405265104,-0.13916,-0.0429688,-0.565308,-0.812012
1470262405286623,-0.13916,-0.0429688,-0.565308,-0.812012
1470262405303139,-0.139282,-0.0430298,-0.565369,-0.81189
1470262405325157,-0.139282,-0.0430298,-0.565369,-0.81189
1470262405346176,-0.139282,-0.0430298,-0.565369,-0.81189
1470262405362691,-0.139282,-0.0430298,-0.565369,-0.81189
1470262405385211,-0.139282,-0.0430298,-0.565369,-0.81189
1470262405406230,-0.139282,-0.0430298,-0.565369,-0.81189
1470262405422746,-0.139282,-0.0430298,-0.565369,-0.81189
1470262405452772,-0.139221,-0.0430298,-0.565369,-0.811951
1470262405466285,-0.139221,-0.0430298,-0.565369,-0.811951
1470262405482799,-0.139221,-0.0430298,-0.565369,-0.811951
1470262405505319,-0.139221,-0.0430908,-0.565369,-0.811951
1470262405528340,-0.13916,-0.0430908,-0.565369,-0.811951
1470262405542853,-0.13916,-0.0430908,-0.565369,-0.811951
1470262405565374,-0.13916,-0.0430908,-0.565369,-0.811951
1470262405587894,-0.138977,-0.0429077,-0.565308,-0.812012
1470262405602907,-0.138611,-0.0426636,-0.565247,-0.812134
1470262405625427,-0.13855,-0.0426636,-0.565247,-0.812134
1470262405647947,-0.138245,-0.0425415,-0.565186,-0.812256
1470262405662962,-0.138245,-0.0432129,-0.565247,-0.812134
1470262405685481,-0.138672,-0.0444946,-0.565857,-0.811584
1470262405708001,-0.138916,-0.0453491,-0.566284,-0.811218
1470262405730521,-0.139099,-0.0457153,-0.566528,-0.810974
1470262405745035,-0.139648,-0.0460205,-0.56665,-0.810791
1470262405768055,-0.140137,-0.0459595,-0.56665,-0.810669
1470262405782569,-0.140442,-0.0457764,-0.566711,-0.810669
1470262405805588,-0.140503,-0.0455933,-0.56665,-0.810669
1470262405827609,-0.140442,-0.0453491,-0.566589,-0.81073
1470262405842124,-0.14032,-0.045105,-0.566467,-0.810852
1470262405865643,-0.140137,-0.0447998,-0.566345,-0.810974
1470262405887663,-0.139893,-0.0445557,-0.566406,-0.811035
1470262405902676,-0.139709,-0.0441895,-0.566406,-0.811035
1470262405925195,-0.139587,-0.0438843,-0.566467,-0.811096
1470262405947716,-0.139404,-0.0437012,-0.566467,-0.811096
1470262405962229,-0.139221,-0.0435181,-0.56665,-0.811035
1470262405985250,-0.138916,-0.0432739,-0.566772,-0.810974
1470262406008270,-0.13855,-0.0430908,-0.567017,-0.810913
1470262406028789,-0.138367,-0.0429077,-0.567261,-0.810791
1470262406045304,-0.138306,-0.0426025,-0.567383,-0.810669
1470262406067825,-0.138367,-0.0422363,-0.567566,-0.810547
1470262406088844,-0.138611,-0.0421143,-0.567749,-0.810425
1470262406105358,-0.138916,-0.0420532,-0.567932,-0.810242
1470262406127879,-0.139038,-0.0421753,-0.568054,-0.81012
1470262406148897,-0.139038,-0.0421753,-0.568054,-0.81012
1470262406165412,-0.139038,-0.0421753,-0.568054,-0.81012
1470262406187932,-0.138977,-0.0421753,-0.568054,-0.81012
1470262406208951,-0.139038,-0.0421753,-0.568054,-0.81012
1470262406225466,-0.139038,-0.0421753,-0.568054,-0.81012
1470262406247986,-0.139038,-0.0421753,-0.568054,-0.81012
1470262406269005,-0.138794,-0.0421753,-0.568054,-0.810181
1470262406285520,-0.138611,-0.0420532,-0.568054,-0.810181
1470262406307539,-0.13855,-0.0420532,-0.568054,-0.810181
1470262406329058,-0.13855,-0.0420532,-0.568054,-0.810242
1470262406336066,-0.13855,-0.0420532,-0.568054,-0.810242
1470262406350578,-0.138489,-0.0420532,-0.568054,-0.810242
1470262406373098,-0.138489,-0.0420532,-0.568054,-0.810242
1470262406396119,-0.138428,-0.0420532,-0.568054,-0.810242
1470262406410633,-0.138184,-0.0419312,-0.567932,-0.810364
1470262406433152,-0.138123,-0.0419922,-0.567871,-0.810425
1470262406456176,-0.137939,-0.0424194,-0.567932,-0.810364
1470262406470687,-0.137817,-0.0429077,-0.568237,-0.810181
1470262406496209,-0.137939,-0.0432739,-0.568481,-0.809937
1470262406525235,-0.138123,-0.0438843,-0.568787,-0.809692
1470262406530741,-0.138306,-0.0441284,-0.56897,-0.809509
1470262406553762,-0.13855,-0.0443726,-0.569031,-0.809387
1470262406576281,-0.138855,-0.0443726,-0.568909,-0.809387
1470262406590793,-0.139038,-0.0443115,-0.568909,-0.809448
1470262406613314,-0.139038,-0.0441895,-0.568848,-0.809448
1470262406635834,-0.138977,-0.0440063,-0.568787,-0.809509
1470262406650848,-0.138977,-0.0440063,-0.568787,-0.809509
1470262406673369,-0.138855,-0.0440063,-0.568604,-0.809692
1470262406695888,-0.138672,-0.0438232,-0.568542,-0.809753
1470262406710902,-0.138489,-0.0436401,-0.568481,-0.809875
1470262406733424,-0.138306,-0.043457,-0.568359,-0.809998
1470262406755942,-0.138245,-0.043457,-0.568359,-0.809998
1470262406770955,-0.138245,-0.043457,-0.568359,-0.809998
1470262406793475,-0.138245,-0.043457,-0.568359,-0.809998
1470262406815995,-0.138184,-0.043457,-0.568359,-0.809998
1470262406831010,-0.138245,-0.043457,-0.568298,-0.810059
1470262406853530,-0.138245,-0.043457,-0.568298,-0.810059
1470262406876050,-0.138184,-0.043457,-0.568298,-0.810059
1470262406891065,-0.138184,-0.043396,-0.568298,-0.810059
1470262406913083,-0.138184,-0.043396,-0.568298,-0.810059
1470262406938106,-0.138184,-0.043396,-0.568298,-0.810059
1470262406950617,-0.137878,-0.0431519,-0.568176,-0.810181
1470262406973137,-0.137817,-0.0432129,-0.568176,-0.810181
1470262406995657,-0.137817,-0.0432129,-0.568176,-0.810181
1470262407010670,-0.137817,-0.0432129,-0.568176,-0.810181
1470262407033191,-0.137817,-0.0432129,-0.568176,-0.810181
1470262407055711,-0.137817,-0.0432129,-0.568176,-0.810181
1470262407072226,-0.137756,-0.0432129,-0.568176,-0.810181
1470262407093245,-0.137756,-0.0432129,-0.568176,-0.810181
1470262407115765,-0.137695,-0.0432129,-0.568176,-0.810181
1470262407132280,-0.137695,-0.0432129,-0.568176,-0.810181
1470262407153299,-0.137695,-0.0432129,-0.568176,-0.810181
1470262407175819,-0.137634,-0.0432129,-0.568176,-0.810181
1470262407192334,-0.137634,-0.0432129,-0.568176,-0.810181
1470262407213353,-0.137451,-0.0430298,-0.568237,-0.810181
1470262407235873,-0.137451,-0.0429688,-0.568298,-0.810181
1470262407252388,-0.13739,-0.0429688,-0.568298,-0.810181
1470262407273407,-0.13739,-0.0429688,-0.568298,-0.810242
1470262407295927,-0.13739,-0.0430298,-0.568237,-0.810242
1470262407312442,-0.137146,-0.0428467,-0.568298,-0.810242
1470262407333460,-0.137085,-0.0427856,-0.568298,-0.810242
1470262407355981,-0.137085,-0.0427856,-0.568298,-0.810242
1470262407372495,-0.137024,-0.0427856,-0.568298,-0.810242
1470262407393514,-0.137024,-0.0427856,-0.568298,-0.810242
1470262407416034,-0.137024,-0.0427856,-0.568298,-0.810242
1470262407433551,-0.137024,-0.0427856,-0.568298,-0.810242
1470262407453568,-0.136963,-0.0427856,-0.568298,-0.810242
1470262407476088,-0.136963,-0.0427856,-0.568298,-0.810242
1470262407493605,-0.136963,-0.0427856,-0.568298,-0.810303
1470262407513122,-0.136902,-0.0427856,-0.568298,-0.810303
1470262407536142,-0.136902,-0.0427856,-0.568298,-0.810303
1470262407553659,-0.136841,-0.0427856,-0.568298,-0.810303
1470262407573176,-0.136841,-0.0427856,-0.568298,-0.810303
1470262407595697,-0.136841,-0.0427246,-0.568298,-0.810303
1470262407613713,-0.13678,-0.0427246,-0.568298,-0.810303
1470262407633230,-0.13678,-0.0427246,-0.568298,-0.810303
1470262407655750,-0.136902,-0.0428467,-0.568359,-0.810242
1470262407673767,-0.136902,-0.0428467,-0.568359,-0.810242
1470262407693284,-0.136902,-0.0428467,-0.568359,-0.810242
1470262407715804,-0.136902,-0.0428467,-0.568359,-0.810242
1470262407733819,-0.136841,-0.0428467,-0.568359,-0.810242
1470262407753338,-0.136841,-0.0428467,-0.568359,-0.810242
1470262407775857,-0.13678,-0.0428467,-0.568359,-0.810242
1470262407793874,-0.13678,-0.0428467,-0.568359,-0.810242
1470262407814392,-0.13678,-0.0427856,-0.568359,-0.810242
1470262407835912,-0.13678,-0.0427856,-0.568359,-0.810242
1470262407853928,-0.136719,-0.0428467,-0.568359,-0.810242
1470262407873445,-0.136719,-0.0427856,-0.568359,-0.810242
1470262407895966,-0.136658,-0.0427856,-0.56842,-0.810242
1470262407913482,-0.136658,-0.0427856,-0.56842,-0.810242
1470262407933499,-0.136658,-0.0427856,-0.56842,-0.810242
1470262407956019,-0.136658,-0.0427856,-0.56842,-0.810242
1470262407973535,-0.136658,-0.0427856,-0.56842,-0.810242
1470262407993553,-0.136597,-0.0427856,-0.56842,-0.810242
1470262408016074,-0.136597,-0.0427856,-0.56842,-0.810242
1470262408033590,-0.136536,-0.0427856,-0.56842,-0.810242
1470262408054608,-0.136536,-0.0427856,-0.56842,-0.810303
1470262408075627,-0.136475,-0.0427246,-0.56842,-0.810303
1470262408093645,-0.136475,-0.0427246,-0.56842,-0.810303
1470262408114663,-0.136475,-0.0427246,-0.56842,-0.810303
1470262408135681,-0.136475,-0.0427246,-0.56842,-0.810303
1470262408153698,-0.136414,-0.0427246,-0.56842,-0.810303
1470262408174715,-0.136414,-0.0427246,-0.56842,-0.810303
1470262408195735,-0.136353,-0.0427246,-0.56842,-0.810303
1470262408213752,-0.136353,-0.0427246,-0.56842,-0.810303
1470262408234770,-0.136353,-0.0427246,-0.56842,-0.810303
1470262408255801,-0.136353,-0.0427246,-0.56842,-0.810303
1470262408273805,-0.136353,-0.0427246,-0.56842,-0.810303
1470262408294823,-0.136414,-0.0427856,-0.56842,-0.810242
1470262408315871,-0.136658,-0.0428467,-0.56842,-0.810242
1470262408333859,-0.136963,-0.0429688,-0.568481,-0.81012
1470262408354878,-0.137329,-0.0430298,-0.568542,-0.809998
1470262408375909,-0.137634,-0.0431519,-0.568665,-0.809875
1470262408400919,-0.138,-0.0432129,-0.568787,-0.809692
1470262408416433,-0.138306,-0.0432739,-0.568909,-0.80957
1470262408435951,-0.138672,-0.043457,-0.56897,-0.809509
1470262408453468,-0.139221,-0.0437012,-0.569031,-0.809326
1470262408475988,-0.139587,-0.0438232,-0.569153,-0.809204
1470262408496006,-0.139832,-0.0438232,-0.569153,-0.809143
1470262408514025,-0.140198,-0.0439453,-0.569214,-0.809021
1470262408536042,-0.14093,-0.0441284,-0.569214,-0.808838
1470262408556058,-0.142151,-0.0445557,-0.569336,-0.808533
1470262408574576,-0.142883,-0.0446777,-0.569458,-0.808289
1470262408596094,-0.144043,-0.0449829,-0.569641,-0.807983
1470262408615611,-0.145874,-0.0459595,-0.569763,-0.807495
1470262408633630,-0.147522,-0.046875,-0.570068,-0.806946
1470262408656148,-0.147461,-0.0462036,-0.570435,-0.806763
1470262408675668,-0.1474,-0.0456543,-0.570618,-0.806641
1470262408693683,-0.14801,-0.0460205,-0.57074,-0.806396
1470262408715201,-0.148682,-0.0465088,-0.570862,-0.806213
1470262408735722,-0.149048,-0.0465698,-0.570862,-0.806091
1470262408753736,-0.14917,-0.0463867,-0.570984,-0.80603
1470262408776759,-0.149292,-0.0462036,-0.570984,-0.80603
1470262408796775,-0.149292,-0.0462036,-0.570984,-0.80603
1470262408813790,-0.149109,-0.0458984,-0.570923,-0.806091
1470262408836310,-0.148865,-0.0457153,-0.570923,-0.806152
1470262408856328,-0.148865,-0.0457153,-0.570923,-0.806152
1470262408872842,-0.148865,-0.0457764,-0.570923,-0.806152
1470262408895362,-0.148926,-0.0455933,-0.570984,-0.806152
1470262408916382,-0.148804,-0.0452271,-0.571045,-0.806091
1470262408932896,-0.148438,-0.0446777,-0.571167,-0.806091
1470262408955417,-0.148254,-0.0443726,-0.571228,-0.806152
1470262408976436,-0.14801,-0.0441284,-0.571228,-0.806213
1470262408992950,-0.147888,-0.0438843,-0.571228,-0.806213
1470262409015471,-0.147583,-0.0435181,-0.571228,-0.806274
1470262409036490,-0.147156,-0.0430908,-0.571228,-0.806396
1470262409053005,-0.146973,-0.0429688,-0.571228,-0.806458
1470262409075525,-0.146729,-0.0429077,-0.571228,-0.806519
1470262409096545,-0.14624,-0.0426636,-0.571228,-0.80658
1470262409113058,-0.145935,-0.0424194,-0.571228,-0.806702
1470262409135578,-0.14563,-0.0421143,-0.571106,-0.806824
1470262409156599,-0.145264,-0.0418701,-0.571045,-0.806946
1470262409173112,-0.144958,-0.041626,-0.570984,-0.807068
1470262409195635,-0.144592,-0.0415039,-0.570923,-0.80719
1470262409216651,-0.144043,-0.0412598,-0.570862,-0.807312
1470262409232666,-0.143372,-0.0411377,-0.570801,-0.807495
1470262409255189,-0.142944,-0.0411987,-0.570801,-0.807556
1470262409276706,-0.1427,-0.0415649,-0.570862,-0.807556
1470262409292720,-0.142578,-0.0421143,-0.570862,-0.807556
1470262409315241,-0.142151,-0.0425415,-0.570801,-0.807617
1470262409337760,-0.141602,-0.0427856,-0.570679,-0.8078
1470262409352773,-0.141602,-0.0432129,-0.570679,-0.8078
1470262409381300,-0.141418,-0.0430298,-0.570801,-0.807739
1470262409397816,-0.140747,-0.0424194,-0.570862,-0.807861
1470262409413329,-0.140686,-0.0424194,-0.570862,-0.807861
1470262409435348,-0.140625,-0.0426025,-0.570862,-0.807861
1470262409457868,-0.14032,-0.0426025,-0.570801,-0.807983
1470262409472381,-0.139954,-0.0424194,-0.57074,-0.808044
1470262409495401,-0.139404,-0.0421753,-0.57074,-0.808167
1470262409517922,-0.138794,-0.0420532,-0.57074,-0.808289
1470262409532436,-0.138306,-0.0419312,-0.57074,-0.80835
1470262409555455,-0.137817,-0.041748,-0.570679,-0.808533
1470262409577976,-0.137207,-0.0415649,-0.570679,-0.808655
1470262409591988,-0.13678,-0.0415039,-0.570679,-0.808716
1470262409615509,-0.136292,-0.0411987,-0.57074,-0.808777
1470262409638030,-0.135742,-0.0408936,-0.57074,-0.808838
1470262409652042,-0.135376,-0.0406494,-0.57074,-0.80896
1470262409675582,-0.134888,-0.0403442,-0.570679,-0.809082
1470262409698083,-0.134338,-0.039978,-0.570618,-0.809265
1470262409712105,-0.133667,-0.0395508,-0.570496,-0.809448
1470262409735617,-0.133118,-0.0391846,-0.570313,-0.809692
1470262409757680,-0.132813,-0.0391235,-0.57019,-0.809814
1470262409772150,-0.132629,-0.0391235,-0.570129,-0.809875
1470262409795171,-0.13269,-0.0391235,-0.570129,-0.809875
1470262409818192,-0.13269,-0.0391846,-0.570129,-0.809875
1470262409839211,-0.132874,-0.0391235,-0.57019,-0.809814
1470262409855225,-0.132813,-0.0391235,-0.57019,-0.809814
1470262409878246,-0.132813,-0.0391235,-0.57019,-0.809814
1470262409899264,-0.132813,-0.0390625,-0.57019,-0.809814
1470262409915279,-0.132751,-0.0390625,-0.57019,-0.809814
1470262409937799,-0.132751,-0.0390625,-0.57019,-0.809814
1470262409958818,-0.132751,-0.0390625,-0.57019,-0.809814
1470262409975333,-0.132568,-0.0389404,-0.57019,-0.809875
1470262409997853,-0.132263,-0.0387573,-0.570251,-0.809875
1470262410018871,-0.132263,-0.0387573,-0.570251,-0.809875
1470262410035388,-0.132019,-0.0386353,-0.57019,-0.809998
1470262410057907,-0.131775,-0.0384521,-0.570129,-0.810059
1470262410078925,-0.13147,-0.038208,-0.570068,-0.810181
1470262410095441,-0.130981,-0.0379028,-0.569946,-0.810364
1470262410117961,-0.13031,-0.0375366,-0.569763,-0.810608
1470262410138980,-0.129517,-0.0371094,-0.56958,-0.810852
1470262410155494,-0.128723,-0.0367432,-0.569397,-0.811157
1470262410178015,-0.127991,-0.036438,-0.569153,-0.811401
1470262410199033,-0.12738,-0.0361938,-0.568909,-0.811707
1470262410215549,-0.126831,-0.0360107,-0.568726,-0.811951
1470262410238069,-0.126404,-0.0357666,-0.568604,-0.812073
1470262410259088,-0.125916,-0.0355835,-0.568604,-0.812195
1470262410275602,-0.125488,-0.0353394,-0.568542,-0.812317
1470262410297622,-0.125488,-0.0353394,-0.568542,-0.812317
1470262410321144,-0.125488,-0.0353394,-0.568542,-0.812317
1470262410335156,-0.125427,-0.0353394,-0.568542,-0.812317
1470262410358177,-0.125427,-0.0353394,-0.568542,-0.812317
1470262410380196,-0.125427,-0.0353394,-0.568542,-0.812317
1470262410395210,-0.125366,-0.0353394,-0.568542,-0.812317
1470262410417729,-0.125366,-0.0353394,-0.568542,-0.812317
1470262410440250,-0.125366,-0.0353394,-0.568542,-0.812317
1470262410454764,-0.125366,-0.0353394,-0.568542,-0.812317
1470262410477785,-0.125366,-0.0353394,-0.568542,-0.812317
1470262410500304,-0.125305,-0.0353394,-0.568542,-0.812317
1470262410514817,-0.125305,-0.0353394,-0.568542,-0.812317
1470262410537837,-0.125305,-0.0353394,-0.568542,-0.812317
1470262410560358,-0.125244,-0.0353394,-0.568542,-0.812317
1470262410574872,-0.125244,-0.0353394,-0.568542,-0.812317
1470262410605399,-0.125244,-0.0353394,-0.568542,-0.812317
1470262410620412,-0.125244,-0.0353394,-0.568542,-0.812317
1470262410634925,-0.125244,-0.0353394,-0.568542,-0.812317
1470262410657945,-0.125366,-0.0354004,-0.568665,-0.812256
1470262410680466,-0.125549,-0.0355835,-0.568726,-0.812195
1470262410694980,-0.125793,-0.0357666,-0.568787,-0.812073
1470262410725506,-0.125977,-0.0359497,-0.568848,-0.812012
1470262410740519,-0.126221,-0.0360107,-0.568909,-0.81189
1470262410755033,-0.126221,-0.0360107,-0.568909,-0.81189
1470262410778054,-0.126404,-0.0359497,-0.569031,-0.811829
1470262410801575,-0.126526,-0.0359497,-0.569092,-0.811768
1470262410822594,-0.126526,-0.0359497,-0.569092,-0.811768
1470262410841110,-0.126526,-0.0359497,-0.569092,-0.811768
1470262410860627,-0.126465,-0.0359497,-0.569092,-0.811768
1470262410883147,-0.126465,-0.0359497,-0.569092,-0.811768
1470262410898161,-0.126465,-0.0359497,-0.569092,-0.811768
1470262410920181,-0.126465,-0.0359497,-0.569092,-0.811768
1470262410941700,-0.126465,-0.0358887,-0.569092,-0.811768
1470262410965221,-0.126587,-0.0359497,-0.569092,-0.811707
1470262410980235,-0.126587,-0.0360107,-0.569092,-0.811707
1470262411001754,-0.126587,-0.0359497,-0.569092,-0.811707
1470262411018269,-0.126587,-0.0360107,-0.569092,-0.811707
1470262411040289,-0.12677,-0.0360718,-0.569153,-0.811646
1470262411061808,-0.126831,-0.0361938,-0.569214,-0.811584
1470262411077822,-0.126953,-0.0362549,-0.569214,-0.811584
1470262411100343,-0.127136,-0.0363159,-0.569214,-0.811523
1470262411121361,-0.127136,-0.0363159,-0.569214,-0.811523
1470262411137877,-0.127075,-0.0363159,-0.569214,-0.811523
1470262411160397,-0.127075,-0.0363159,-0.569214,-0.811523
1470262411181417,-0.127075,-0.0363159,-0.569214,-0.811523
1470262411197930,-0.127075,-0.0363159,-0.569214,-0.811523
1470262411220450,-0.127319,-0.0361938,-0.569214,-0.811523
1470262411243471,-0.127258,-0.0361938,-0.569214,-0.811523
1470262411257984,-0.127258,-0.0361938,-0.569214,-0.811523
1470262411280504,-0.127258,-0.0361938,-0.569214,-0.811523
1470262411303025,-0.12738,-0.0363159,-0.569214,-0.811462
1470262411318039,-0.127625,-0.036499,-0.569275,-0.811462
1470262411340558,-0.12793,-0.0366821,-0.569336,-0.81134
1470262411363078,-0.128174,-0.0369263,-0.569336,-0.811279
1470262411377091,-0.128418,-0.0369873,-0.569336,-0.811218
1470262411400612,-0.12854,-0.0370483,-0.569397,-0.811157
1470262411423132,-0.128662,-0.0371704,-0.569458,-0.811096
1470262411437146,-0.128845,-0.0372314,-0.569458,-0.811096
1470262411460666,-0.128845,-0.0372314,-0.569458,-0.811096
1470262411482685,-0.128967,-0.0374146,-0.569519,-0.811035
1470262411497199,-0.129028,-0.0375366,-0.56958,-0.810974
1470262411520219,-0.129028,-0.0375366,-0.56958,-0.810974
1470262411542741,-0.129211,-0.0377197,-0.569641,-0.810852
1470262411557755,-0.129395,-0.0378418,-0.569702,-0.810791
1470262411580273,-0.129578,-0.0379028,-0.569702,-0.81073
1470262411602794,-0.129822,-0.0380859,-0.569702,-0.810669
1470262411617307,-0.130127,-0.0383301,-0.569702,-0.810608
1470262411640328,-0.130371,-0.0385742,-0.569702,-0.810547
1470262411662848,-0.130554,-0.0386963,-0.569763,-0.810486
1470262411677361,-0.130554,-0.0386963,-0.569763,-0.810486
1470262411700383,-0.130554,-0.0386963,-0.569763,-0.810486
1470262411730409,-0.130554,-0.0386963,-0.569763,-0.810486
1470262411743934,-0.130554,-0.0386353,-0.569763,-0.810486
1470262411760438,-0.130554,-0.0386353,-0.569763,-0.810486
1470262411782955,-0.130554,-0.0386353,-0.569763,-0.810486
1470262411803974,-0.130493,-0.0386963,-0.569763,-0.810486
1470262411820489,-0.130493,-0.0386963,-0.569763,-0.810486
1470262411843011,-0.130493,-0.0386963,-0.569763,-0.810486
1470262411864029,-0.130493,-0.0386963,-0.569763,-0.810547
1470262411880544,-0.130493,-0.0386963,-0.569763,-0.810547
1470262411903063,-0.130493,-0.0386963,-0.569763,-0.810547
1470262411924082,-0.130432,-0.0386963,-0.569763,-0.810547
1470262411940597,-0.130188,-0.0385132,-0.569763,-0.810608
1470262411963117,-0.129944,-0.0384521,-0.569702,-0.810669
1470262411984137,-0.129944,-0.0384521,-0.569702,-0.810669
1470262412000651,-0.129944,-0.0384521,-0.569702,-0.810669
1470262412022671,-0.129639,-0.0383911,-0.569702,-0.81073
1470262412044189,-0.129272,-0.038269,-0.569641,-0.810791
1470262412060204,-0.128967,-0.038269,-0.569641,-0.810852
1470262412082725,-0.128723,-0.038269,-0.569641,-0.810913
1470262412104243,-0.128723,-0.038269,-0.569641,-0.810913
1470262412120259,-0.128723,-0.038269,-0.569641,-0.810913
1470262412142779,-0.128723,-0.038269,-0.569641,-0.810913
1470262412164297,-0.128723,-0.038269,-0.569641,-0.810913
1470262412180313,-0.128723,-0.038269,-0.569641,-0.810913
1470262412202832,-0.128662,-0.038269,-0.569641,-0.810913
1470262412225353,-0.128662,-0.038269,-0.569641,-0.810913
1470262412240366,-0.128601,-0.038269,-0.569641,-0.810913
1470262412262886,-0.128601,-0.038269,-0.569641,-0.810913
1470262412285408,-0.12854,-0.038269,-0.569641,-0.810913
1470262412299920,-0.12854,-0.038269,-0.569641,-0.810913
1470262412322941,-0.12854,-0.038208,-0.569641,-0.810913
1470262412352967,-0.12854,-0.038208,-0.569641,-0.810913
1470262412359973,-0.12854,-0.038208,-0.569641,-0.810913
1470262412382995,-0.128479,-0.038208,-0.569641,-0.810913
1470262412405515,-0.128479,-0.038208,-0.569702,-0.810913
1470262412419529,-0.128479,-0.038208,-0.569702,-0.810913
1470262412443048,-0.128418,-0.038208,-0.569702,-0.810913
1470262412465568,-0.128418,-0.038208,-0.569702,-0.810913
1470262412479582,-0.128418,-0.038208,-0.569702,-0.810913
1470262412503103,-0.128357,-0.038147,-0.569702,-0.810913
1470262412525623,-0.128357,-0.038147,-0.569702,-0.810913
1470262412539639,-0.128357,-0.038147,-0.569702,-0.810913
1470262412563156,-0.128296,-0.038147,-0.569702,-0.810974
1470262412585176,-0.128479,-0.038208,-0.569763,-0.810852
1470262412599691,-0.128601,-0.038208,-0.569824,-0.810791
1470262412622709,-0.128723,-0.038208,-0.569885,-0.81073
1470262412645730,-0.128723,-0.038208,-0.569885,-0.81073
1470262412666748,-0.128723,-0.038208,-0.569885,-0.81073
1470262412682763,-0.128662,-0.038147,-0.569885,-0.81073
1470262412705784,-0.128662,-0.038147,-0.569885,-0.810791
1470262412726803,-0.128662,-0.038147,-0.569885,-0.810791
1470262412743318,-0.128662,-0.038147,-0.569885,-0.810791
1470262412765338,-0.128601,-0.038147,-0.569885,-0.810791
1470262412786356,-0.128601,-0.038147,-0.569885,-0.810791
1470262412802872,-0.12854,-0.0380859,-0.569885,-0.810791
1470262412825391,-0.12854,-0.0380859,-0.569885,-0.810791
1470262412846411,-0.12854,-0.0380859,-0.569885,-0.810791
1470262412862927,-0.12854,-0.0380859,-0.569885,-0.810791
1470262412886446,-0.128479,-0.0380859,-0.569885,-0.810791
1470262412906465,-0.128479,-0.0380859,-0.569885,-0.810791
1470262412922980,-0.128479,-0.0380859,-0.569885,-0.810791
1470262412945499,-0.128479,-0.0380249,-0.569885,-0.810791
1470262412966518,-0.128418,-0.0380249,-0.569885,-0.810791
1470262412983034,-0.128418,-0.0380249,-0.569885,-0.810791
1470262413005554,-0.128418,-0.0379639,-0.569885,-0.810791
1470262413026572,-0.128357,-0.0379639,-0.569885,-0.810791
1470262413043088,-0.128357,-0.0379028,-0.569885,-0.810791
1470262413065608,-0.128174,-0.038208,-0.569946,-0.810791
1470262413088128,-0.128113,-0.0397339,-0.570496,-0.810364
1470262413103141,-0.128235,-0.0411987,-0.571411,-0.80957
1470262413125160,-0.128296,-0.0418701,-0.571777,-0.809326
1470262413148181,-0.12854,-0.0422363,-0.571838,-0.809204
1470262413163194,-0.128845,-0.0422974,-0.57196,-0.809082
1470262413185715,-0.128967,-0.0420532,-0.57196,-0.809021
1470262413208235,-0.129089,-0.041687,-0.571899,-0.809082
1470262413222748,-0.128967,-0.0412598,-0.571777,-0.809204
1470262413245269,-0.128967,-0.0412598,-0.571777,-0.809204
1470262413267789,-0.128845,-0.0409546,-0.571655,-0.809326
1470262413282302,-0.128662,-0.0407104,-0.571594,-0.809448
1470262413305324,-0.128479,-0.0404663,-0.571594,-0.809448
1470262413327843,-0.128296,-0.0402222,-0.571594,-0.809509
1470262413342356,-0.128296,-0.0402222,-0.571594,-0.809509
1470262413365376,-0.128235,-0.0402222,-0.571594,-0.809509
1470262413387897,-0.128235,-0.0401611,-0.571594,-0.809509
1470262413402409,-0.128235,-0.0401611,-0.571594,-0.809509
1470262413425433,-0.128174,-0.0401611,-0.571594,-0.809509
1470262413447952,-0.128357,-0.0402222,-0.571655,-0.809448
1470262413462464,-0.128479,-0.0403442,-0.571655,-0.809387
1470262413485485,-0.128479,-0.0403442,-0.571655,-0.809387
1470262413508005,-0.128479,-0.0403442,-0.571655,-0.809387
1470262413522519,-0.128418,-0.0402832,-0.571655,-0.809387
1470262413545539,-0.128418,-0.0402832,-0.571716,-0.809387
1470262413568059,-0.128418,-0.0402832,-0.571716,-0.809387
1470262413582071,-0.128357,-0.0402222,-0.571716,-0.809448
1470262413605139,-0.128357,-0.0402222,-0.571716,-0.809448
1470262413628113,-0.128357,-0.0402222,-0.571716,-0.809448
1470262413649163,-0.128357,-0.0402222,-0.571716,-0.809448
1470262413665646,-0.128357,-0.0402222,-0.571716,-0.809448
1470262413688166,-0.128296,-0.0402222,-0.571716,-0.809448
1470262413709185,-0.128296,-0.0401611,-0.571716,-0.809448
1470262413725700,-0.128296,-0.0401611,-0.571716,-0.809448
1470262413747719,-0.128235,-0.0401611,-0.571716,-0.809448
1470262413769239,-0.128235,-0.0401611,-0.571716,-0.809448
1470262413785754,-0.128235,-0.0401001,-0.571716,-0.809448
1470262413807774,-0.128235,-0.0401001,-0.571716,-0.809448
1470262413829292,-0.128174,-0.0401001,-0.571716,-0.809448
1470262413845307,-0.128174,-0.0401001,-0.571716,-0.809448
1470262413867827,-0.128235,-0.0400391,-0.571777,-0.809387
1470262413888847,-0.128235,-0.0400391,-0.571777,-0.809387
1470262413905361,-0.128174,-0.0400391,-0.571777,-0.809387
1470262413927882,-0.128174,-0.0400391,-0.571838,-0.809387
1470262413950402,-0.128174,-0.039978,-0.571838,-0.809387
1470262413965415,-0.128174,-0.039978,-0.571838,-0.809387
1470262413987936,-0.128174,-0.039978,-0.571838,-0.809387
1470262414008954,-0.128113,-0.039978,-0.571838,-0.809387
1470262414025469,-0.128113,-0.039978,-0.571838,-0.809387
1470262414047989,-0.128113,-0.039978,-0.571838,-0.809387
1470262414053494,-0.128113,-0.039917,-0.571838,-0.809387
1470262414076014,-0.128113,-0.039917,-0.571838,-0.809387
1470262414091027,-0.128174,-0.039978,-0.571838,-0.809387
1470262414113547,-0.128418,-0.0400391,-0.571838,-0.809326
1470262414136069,-0.128601,-0.0401611,-0.571899,-0.809265
1470262414151104,-0.128784,-0.0402222,-0.571899,-0.809204
1470262414181132,-0.128967,-0.0403442,-0.571899,-0.809143
1470262414196145,-0.12915,-0.0404663,-0.572021,-0.809021
1470262414213661,-0.129395,-0.0406494,-0.572144,-0.80896
1470262414234179,-0.129761,-0.0409546,-0.572266,-0.808777
1470262414272714,-0.130066,-0.0411377,-0.572388,-0.808594
1470262414275717,-0.130371,-0.0411987,-0.57251,-0.808472
1470262414293234,-0.130615,-0.0412598,-0.572632,-0.80835
1470262414315753,-0.131042,-0.0415039,-0.572693,-0.808228
1470262414330766,-0.131592,-0.0418091,-0.572815,-0.808044
1470262414353288,-0.132263,-0.0421753,-0.572937,-0.8078
1470262414375806,-0.132935,-0.0426025,-0.573181,-0.807495
1470262414390820,-0.133728,-0.0429077,-0.573425,-0.80719
1470262414413340,-0.134766,-0.043335,-0.573669,-0.806824
1470262414435861,-0.136047,-0.0439453,-0.573914,-0.806396
1470262414458380,-0.137634,-0.0447388,-0.574402,-0.805725
1470262414473394,-0.139771,-0.0456543,-0.574829,-0.804993
1470262414495914,-0.142273,-0.0464478,-0.575317,-0.804199
1470262414510928,-0.145142,-0.0471802,-0.576111,-0.803101
1470262414533457,-0.148132,-0.0480347,-0.576965,-0.80188
1470262414555968,-0.151245,-0.0488892,-0.577881,-0.800537
1470262414578489,-0.154663,-0.0497437,-0.578918,-0.799072
1470262414601009,-0.158508,-0.0509033,-0.580078,-0.797424
1470262414616026,-0.163208,-0.0521851,-0.581299,-0.795471
1470262414633038,-0.168945,-0.0535278,-0.582825,-0.793091
1470262414655058,-0.175415,-0.0550537,-0.584595,-0.790283
1470262414676077,-0.182312,-0.0563965,-0.586792,-0.786987
1470262414693593,-0.189758,-0.0579834,-0.589172,-0.783325
1470262414713610,-0.198059,-0.0597534,-0.591797,-0.779175
1470262414736154,-0.207397,-0.0615845,-0.594604,-0.774414
1470262414752144,-0.217285,-0.0634155,-0.597717,-0.769165
1470262414773676,-0.227478,-0.0653076,-0.601013,-0.763489
1470262414796184,-0.237854,-0.0675049,-0.60437,-0.757385
1470262414819705,-0.248535,-0.0698242,-0.607666,-0.75116
1470262414833217,-0.259827,-0.0726318,-0.611084,-0.744263
1470262414855738,-0.271851,-0.0754395,-0.61438,-0.736938
1470262414872253,-0.284729,-0.0790405,-0.617676,-0.728882
1470262414893271,-0.297974,-0.0823364,-0.620972,-0.720337
1470262414916792,-0.312256,-0.0858154,-0.624268,-0.71106
1470262414932307,-0.326111,-0.088562,-0.627258,-0.701782
1470262414953326,-0.339233,-0.0909424,-0.630066,-0.692688
1470262414975846,-0.351074,-0.0925903,-0.632935,-0.683838
1470262414992360,-0.361816,-0.0939331,-0.635498,-0.675659
1470262415016382,-0.37207,-0.0955811,-0.637634,-0.667786
1470262415035899,-0.382019,-0.0976563,-0.639343,-0.660217
1470262415054416,-0.391235,-0.0996094,-0.640747,-0.653137
1470262415073433,-0.400085,-0.101807,-0.642029,-0.646118
1470262415095952,-0.408569,-0.104248,-0.643127,-0.639282
1470262415113969,-0.417236,-0.107117,-0.644043,-0.632263
1470262415133487,-0.425415,-0.109192,-0.644958,-0.625488
1470262415156007,-0.433105,-0.111267,-0.645996,-0.618713
1470262415173523,-0.441406,-0.114075,-0.646912,-0.611389
1470262415193541,-0.450134,-0.117004,-0.647522,-0.60376
1470262415216062,-0.45929,-0.120728,-0.647766,-0.595825
1470262415233577,-0.467834,-0.12323,-0.648315,-0.588013
1470262415253594,-0.475525,-0.123718,-0.649231,-0.580688
1470262415276114,-0.484253,-0.124512,-0.650208,-0.572144
1470262415293631,-0.494141,-0.126709,-0.650879,-0.562378
1470262415321156,-0.504578,-0.129517,-0.650879,-0.552368
1470262415336168,-0.513916,-0.131104,-0.651062,-0.543091
1470262415353684,-0.522278,-0.130859,-0.651855,-0.53418
1470262415374704,-0.530029,-0.130249,-0.652527,-0.525818
1470262415395722,-0.53772,-0.130859,-0.652771,-0.517395
1470262415413738,-0.545715,-0.132446,-0.652649,-0.508789
1470262415433256,-0.553589,-0.134033,-0.652039,-0.500488
1470262415455776,-0.560364,-0.134094,-0.651978,-0.492981
1470262415473793,-0.566589,-0.133972,-0.651917,-0.485962
1470262415493311,-0.572815,-0.134216,-0.651672,-0.478882
1470262415515831,-0.578918,-0.134888,-0.651123,-0.471985
1470262415533847,-0.584717,-0.134766,-0.650635,-0.465515
1470262415553365,-0.589722,-0.133789,-0.650513,-0.459717
1470262415575885,-0.594421,-0.132874,-0.650574,-0.453735
1470262415593901,-0.598999,-0.132141,-0.650513,-0.447937
1470262415613418,-0.602722,-0.130859,-0.650757,-0.442993
1470262415635938,-0.605408,-0.12915,-0.651306,-0.438965
1470262415653954,-0.608276,-0.128235,-0.651672,-0.434753
1470262415674973,-0.610596,-0.127441,-0.652283,-0.430847
1470262415695993,-0.612427,-0.125854,-0.653015,-0.42749
1470262415713508,-0.613892,-0.124268,-0.653992,-0.424438
1470262415735028,-0.61615,-0.123291,-0.654724,-0.420227
1470262415756045,-0.618774,-0.121826,-0.655334,-0.415894
1470262415774061,-0.621033,-0.120361,-0.656189,-0.41156
1470262415795081,-0.623169,-0.118591,-0.656921,-0.407593
1470262415816102,-0.625427,-0.116821,-0.657715,-0.403381
1470262415834116,-0.627258,-0.11438,-0.658875,-0.399353
1470262415854670,-0.628418,-0.111511,-0.660278,-0.395996
1470262415876154,-0.629944,-0.109375,-0.661499,-0.392151
1470262415895186,-0.631531,-0.107605,-0.662415,-0.388367
1470262415914689,-0.632751,-0.105103,-0.663452,-0.385315
1470262415935707,-0.633423,-0.102356,-0.664856,-0.382629
1470262415955725,-0.633972,-0.0994263,-0.666321,-0.379944
1470262415976243,-0.633972,-0.0968018,-0.667908,-0.377747
1470262415995763,-0.633911,-0.0944214,-0.669373,-0.375977
1470262416013778,-0.634094,-0.0922852,-0.670654,-0.37384
1470262416036297,-0.633972,-0.0899048,-0.671997,-0.372192
1470262416055815,-0.633667,-0.0873413,-0.673401,-0.370728
1470262416073831,-0.633911,-0.0853882,-0.674622,-0.368591
1470262416096351,-0.63446,-0.0830688,-0.675476,-0.366638
1470262416115868,-0.634583,-0.0800171,-0.676392,-0.365356
1470262416133885,-0.634338,-0.0772095,-0.67749,-0.364319
1470262416156405,-0.634521,-0.0750732,-0.678284,-0.363037
1470262416175924,-0.635071,-0.0737305,-0.678589,-0.361755
1470262416193941,-0.635071,-0.0718994,-0.679016,-0.361328
1470262416216460,-0.634705,-0.0698242,-0.679626,-0.361206
1470262416235977,-0.634644,-0.0679932,-0.679993,-0.361084
1470262416253992,-0.634399,-0.0667114,-0.680298,-0.361084
1470262416276513,-0.634094,-0.0651855,-0.68042,-0.361755
1470262416296031,-0.633301,-0.0637817,-0.680725,-0.362732
1470262416314047,-0.632629,-0.0629883,-0.681091,-0.363342
1470262416336567,-0.631958,-0.0628052,-0.681213,-0.364319
1470262416356084,-0.63147,-0.062561,-0.681152,-0.365295
1470262416374101,-0.630859,-0.0618896,-0.681213,-0.366394
1470262416396121,-0.630371,-0.0610352,-0.681152,-0.367493
1470262416417639,-0.630066,-0.0603638,-0.681152,-0.368164
1470262416434155,-0.629883,-0.0599976,-0.680908,-0.368896
1470262416456176,-0.6297,-0.0593262,-0.680481,-0.370117
1470262416476192,-0.628967,-0.0583496,-0.679993,-0.372498
1470262416493710,-0.627502,-0.0578613,-0.679443,-0.375977
1470262416516228,-0.625488,-0.0584717,-0.679382,-0.379272
1470262416536748,-0.622681,-0.0587769,-0.67926,-0.384033
1470262416553262,-0.618835,-0.0574341,-0.678894,-0.391113
1470262416575281,-0.612793,-0.0561523,-0.678467,-0.401367
1470262416596301,-0.606079,-0.0579224,-0.677917,-0.41217
1470262416612815,-0.600342,-0.0621338,-0.676819,-0.42157
1470262416635338,-0.593445,-0.0645142,-0.675354,-0.433167
1470262416658356,-0.582336,-0.0641479,-0.673889,-0.450195
1470262416672369,-0.568726,-0.0629883,-0.673401,-0.468201
1470262416695389,-0.557922,-0.0653687,-0.671997,-0.482727
1470262416716411,-0.54895,-0.0712891,-0.669495,-0.495483
1470262416732923,-0.537537,-0.074707,-0.666504,-0.51123
1470262416755444,-0.520569,-0.0721436,-0.664978,-0.530762
1470262416776462,-0.501343,-0.0681763,-0.664001,-0.550659
1470262416792977,-0.483337,-0.0678101,-0.663208,-0.567505
1470262416815498,-0.468445,-0.0715332,-0.660645,-0.582336
1470262416836518,-0.451904,-0.0753784,-0.657043,-0.598755
1470262416852530,-0.430969,-0.0748901,-0.654968,-0.616272
1470262416875551,-0.40918,-0.0734863,-0.652893,-0.63324
1470262416896571,-0.38916,-0.0736084,-0.649963,-0.648682
1470262416914085,-0.369446,-0.0737305,-0.646667,-0.66333
1470262416935606,-0.348511,-0.0741577,-0.644348,-0.676697
1470262416958132,-0.327759,-0.0772095,-0.642639,-0.688293
1470262416972138,-0.310181,-0.0789795,-0.639709,-0.698853
1470262416995659,-0.296265,-0.0819092,-0.636963,-0.707031
1470262417018179,-0.282471,-0.0849609,-0.635437,-0.713623
1470262417032192,-0.267761,-0.0869751,-0.634644,-0.719727
1470262417055713,-0.254578,-0.0863647,-0.63324,-0.72583
1470262417077732,-0.244934,-0.0864868,-0.632141,-0.730103
1470262417092245,-0.239075,-0.0890503,-0.631592,-0.732239
1470262417115267,-0.227844,-0.0845947,-0.632385,-0.735657
1470262417137786,-0.210083,-0.0727539,-0.633972,-0.740784
1470262417159306,-0.192749,-0.0609741,-0.635864,-0.744873
1470262417175320,-0.179932,-0.0517578,-0.638245,-0.746765
1470262417197840,-0.165833,-0.0441895,-0.641418,-0.747803
1470262417218860,-0.147766,-0.0390625,-0.643799,-0.749878
1470262417235374,-0.130066,-0.0395508,-0.645691,-0.751465
1470262417257895,-0.112244,-0.0447388,-0.647278,-0.752625
1470262417278914,-0.0900879,-0.0528564,-0.649048,-0.753601
1470262417295428,-0.0595093,-0.0594482,-0.651917,-0.753662
1470262417317949,-0.024353,-0.0690918,-0.656006,-0.751282
1470262417346540,0.010498,-0.0856934,-0.660706,-0.745728
1470262417355485,0.0432739,-0.108398,-0.664185,-0.738464
1470262417378002,0.072876,-0.134949,-0.664917,-0.731018
1470262417399561,0.101318,-0.163513,-0.66333,-0.723206
1470262417415536,0.129028,-0.192078,-0.660889,-0.713989
1470262417438057,0.157227,-0.218811,-0.657959,-0.703247
1470262417459103,0.185181,-0.243896,-0.654846,-0.690979
1470262417475590,0.212646,-0.266418,-0.65155,-0.677734
1470262417498110,0.23877,-0.286194,-0.647583,-0.664673
1470262417519163,0.262634,-0.304871,-0.642944,-0.651794
1470262417535644,0.28418,-0.320862,-0.638672,-0.63916
1470262417559166,0.305481,-0.33197,-0.634949,-0.627197
1470262417579193,0.326782,-0.341614,-0.63031,-0.615906
1470262417595697,0.346375,-0.353943,-0.623901,-0.604614
1470262417617751,0.361389,-0.370544,-0.616699,-0.593201
1470262417639237,0.374268,-0.38855,-0.608948,-0.581543
1470262417655751,0.386719,-0.406982,-0.599182,-0.570862
1470262417677771,0.396667,-0.422363,-0.590698,-0.561584
1470262417699358,0.406738,-0.437805,-0.579834,-0.553833
1470262417715347,0.414917,-0.452209,-0.568909,-0.547485
1470262417738326,0.421936,-0.464539,-0.558411,-0.542603
1470262417759344,0.427063,-0.473877,-0.549622,-0.539429
1470262417774858,0.43158,-0.479736,-0.542725,-0.537659
1470262417797879,0.434753,-0.483459,-0.537109,-0.537476
1470262417812392,0.436951,-0.486084,-0.532227,-0.538147
1470262417834913,0.438599,-0.487854,-0.528381,-0.539001
1470262417857933,0.439636,-0.489136,-0.525085,-0.540222
1470262417880454,0.44043,-0.489807,-0.522522,-0.541443
1470262417894966,0.440979,-0.490112,-0.520752,-0.54248
1470262417917987,0.441406,-0.490234,-0.519592,-0.543091
1470262417940507,0.44165,-0.490295,-0.518982,-0.543396
1470262417961526,0.441711,-0.49054,-0.518677,-0.543457
1470262417985548,0.441467,-0.490601,-0.51886,-0.543396
1470262418000561,0.441162,-0.490417,-0.519104,-0.543579
1470262418015574,0.440674,-0.489868,-0.519775,-0.543823
1470262418038095,0.440063,-0.488831,-0.521118,-0.543945
1470262418060616,0.439026,-0.487305,-0.523438,-0.543945
1470262418081635,0.4375,-0.484985,-0.526672,-0.544128
1470262418098149,0.435059,-0.48175,-0.530945,-0.5448
1470262418120669,0.431641,-0.477417,-0.536377,-0.545959
1470262418141687,0.427246,-0.471497,-0.543823,-0.547302
1470262418158202,0.421692,-0.463806,-0.553467,-0.548462
1470262418180222,0.415283,-0.453796,-0.56488,-0.550049
1470262418201743,0.408875,-0.441223,-0.576294,-0.553223
1470262418218256,0.402039,-0.426147,-0.587891,-0.557861
1470262418240777,0.394043,-0.410583,-0.599121,-0.563232
1470262418261795,0.385132,-0.39447,-0.609802,-0.569519
1470262418277810,0.376648,-0.377319,-0.619934,-0.575745
1470262418300831,0.369141,-0.359314,-0.630066,-0.581116
1470262418321849,0.362244,-0.340942,-0.639893,-0.585754
1470262418338364,0.356018,-0.323181,-0.649292,-0.589355
1470262418360384,0.350525,-0.305115,-0.658325,-0.592224
1470262418381403,0.344971,-0.286987,-0.66748,-0.594299
1470262418397918,0.339661,-0.268616,-0.676636,-0.595581
1470262418420438,0.335205,-0.250366,-0.684998,-0.596497
1470262418441456,0.330261,-0.234192,-0.692688,-0.596924
1470262418457973,0.325012,-0.220093,-0.700195,-0.596375
1470262418480492,0.31958,-0.207031,-0.708069,-0.594727
1470262418501511,0.313232,-0.1922,-0.716614,-0.592834
1470262418518026,0.305542,-0.175903,-0.725159,-0.591614
1470262418540546,0.298401,-0.161011,-0.731384,-0.591736
1470262418561566,0.290955,-0.151367,-0.736145,-0.592102
1470262418578080,0.28186,-0.147034,-0.741089,-0.591431
1470262418600600,0.271545,-0.144287,-0.746521,-0.590149
1470262418621618,0.262024,-0.139893,-0.75177,-0.588806
1470262418638134,0.253784,-0.131226,-0.754883,-0.590393
1470262418660653,0.230347,-0.136047,-0.74762,-0.60791
1470262418681672,0.194519,-0.177002,-0.741333,-0.617493
1470262418705694,0.147644,-0.207153,-0.728943,-0.63562
1470262418712200,0.104309,-0.238098,-0.723938,-0.639099
1470262418734219,0.0756226,-0.247803,-0.725586,-0.637573
1470262418756741,0.0620117,-0.241211,-0.733887,-0.63208
1470262418772254,0.0501099,-0.235046,-0.741028,-0.627075
1470262418794273,0.0325928,-0.235046,-0.747192,-0.620911
1470262418816794,0.0124512,-0.234009,-0.7547,-0.612854
1470262418840315,-0.00488281,-0.232788,-0.760315,-0.606445
1470262418863336,-0.0139771,-0.224792,-0.761047,-0.608398
1470262418877348,-0.0206299,-0.21106,-0.765991,-0.606934
1470262418900869,-0.0296021,-0.203857,-0.77124,-0.602356
1470262418922889,-0.0385742,-0.20282,-0.774292,-0.598267
1470262418937402,-0.0458374,-0.199341,-0.778809,-0.593079
1470262418960924,-0.0404053,-0.180664,-0.787292,-0.588196
1470262418982943,-0.0344238,-0.163147,-0.794861,-0.583557
1470262418997456,-0.0321045,-0.153015,-0.80127,-0.577637
1470262419020477,-0.0326538,-0.14917,-0.806641,-0.571045
1470262419049002,-0.0375366,-0.145569,-0.811829,-0.56427
1470262419064016,-0.0413818,-0.141418,-0.817017,-0.557495
1470262419080531,-0.043457,-0.136169,-0.821411,-0.552246
1470262419103051,-0.0469971,-0.131042,-0.825317,-0.547363
1470262419124069,-0.0550537,-0.128906,-0.826904,-0.544678
1470262419140585,-0.0657349,-0.129395,-0.827271,-0.542847
1470262419163105,-0.0739746,-0.128479,-0.827881,-0.541016
1470262419184124,-0.0791016,-0.12561,-0.82782,-0.541016
1470262419200638,-0.0830078,-0.122314,-0.827026,-0.54248
1470262419223158,-0.0878906,-0.1203,-0.825439,-0.544556
1470262419251684,-0.0919189,-0.117737,-0.823914,-0.546753
1470262419260693,-0.0960083,-0.115601,-0.822632,-0.548462
1470262419283213,-0.0988159,-0.113159,-0.821838,-0.549622
1470262419304232,-0.101379,-0.111633,-0.820801,-0.551025
1470262419320247,-0.104126,-0.110962,-0.819702,-0.552307
1470262419342767,-0.105774,-0.109924,-0.818848,-0.553467
1470262419364286,-0.106567,-0.108276,-0.818359,-0.554382
1470262419380800,-0.107727,-0.107849,-0.817688,-0.555237
1470262419403320,-0.109497,-0.109253,-0.816833,-0.555847
1470262419424339,-0.110413,-0.110718,-0.816101,-0.556458
1470262419440354,-0.110657,-0.111633,-0.815674,-0.556824
1470262419462874,-0.11084,-0.112366,-0.81543,-0.556946
1470262419485395,-0.110657,-0.113037,-0.814941,-0.557678
1470262419500408,-0.111633,-0.114746,-0.814331,-0.557922
1470262419522928,-0.112122,-0.116455,-0.813782,-0.55835
1470262419543963,-0.111389,-0.117249,-0.813171,-0.559204
1470262419567969,-0.110107,-0.117188,-0.812988,-0.559753
1470262419582982,-0.108521,-0.116455,-0.813171,-0.559937
1470262419605502,-0.105896,-0.114929,-0.813293,-0.560608
1470262419620017,-0.101074,-0.111938,-0.813232,-0.562195
1470262419643039,-0.0947876,-0.107056,-0.813049,-0.564514
1470262419664054,-0.088623,-0.102234,-0.812256,-0.567444
1470262419680069,-0.083313,-0.0983276,-0.811218,-0.570435
1470262419703090,-0.0771484,-0.0935669,-0.810181,-0.573608
1470262419724111,-0.0713501,-0.0888672,-0.809021,-0.576721
1470262419739622,-0.0665283,-0.0853271,-0.807739,-0.579651
1470262419763146,-0.0626831,-0.0817261,-0.806091,-0.582825
1470262419785665,-0.0585327,-0.0764771,-0.804199,-0.586609
1470262419799677,-0.0546265,-0.0705566,-0.802246,-0.590393
1470262419823197,-0.0493774,-0.0638428,-0.800232,-0.59436
1470262419845718,-0.0436401,-0.0584717,-0.796936,-0.599731
1470262419859731,-0.038269,-0.0541382,-0.793091,-0.60553
1470262419883251,-0.0323486,-0.0490723,-0.789612,-0.61084
1470262419905772,-0.026001,-0.0447388,-0.786255,-0.615784
1470262419919784,-0.0194702,-0.0412598,-0.783264,-0.620117
1470262419943305,-0.0125732,-0.0372314,-0.780457,-0.624023
1470262419965326,-0.00445557,-0.0324707,-0.777161,-0.628479
1470262419986844,0.00152588,-0.0291138,-0.774109,-0.632446
1470262420002859,0.00616455,-0.0257568,-0.771301,-0.635986
1470262420025379,0.00970459,-0.0220947,-0.769165,-0.638672
1470262420046899,0.0119629,-0.0186157,-0.7677,-0.640503
1470262420062913,0.0137939,-0.0149536,-0.766479,-0.642029
1470262420085433,0.0148315,-0.0110474,-0.765442,-0.643311
1470262420106452,0.015564,-0.0067749,-0.764832,-0.644104
1470262420122967,0.0152588,-0.00341797,-0.764282,-0.644714
1470262420145487,0.015625,-0.000244141,-0.763672,-0.645447
1470262420166507,0.0162354,0.00244141,-0.763062,-0.646179
1470262420183021,0.0159912,0.00427246,-0.762634,-0.646667
1470262420205541,0.015564,0.0057373,-0.762268,-0.647095
1470262420220054,0.0150757,0.00701904,-0.76178,-0.647705
1470262420243075,0.0151367,0.00817871,-0.760925,-0.648682
1470262420265596,0.0157471,0.00939941,-0.759705,-0.650085
1470262420286614,0.0158691,0.0102539,-0.758606,-0.651306
1470262420303129,0.0154419,0.0108032,-0.757446,-0.65271
1470262420325649,0.0147705,0.0113525,-0.756104,-0.654297
1470262420346669,0.0142212,0.012146,-0.754883,-0.655701
1470262420363184,0.0134277,0.0133057,-0.753906,-0.656799
1470262420385703,0.012085,0.0142212,-0.753113,-0.657654
1470262420406735,0.0106812,0.0154419,-0.752197,-0.658691
1470262420423236,0.00976563,0.0169678,-0.75116,-0.659912
1470262420445759,0.00897217,0.0183105,-0.750305,-0.660828
1470262420466789,0.00805664,0.019165,-0.749878,-0.661316
1470262420483290,0.00720215,0.0200806,-0.749573,-0.661682
1470262420505310,0.00567627,0.0202026,-0.749023,-0.662231
1470262420526829,0.00402832,0.0195313,-0.748718,-0.662659
1470262420542844,0.00238037,0.0184326,-0.748596,-0.662842
1470262420565364,0.00115967,0.0175781,-0.748535,-0.662903
1470262420586883,0.00012207,0.0167847,-0.748413,-0.663086
1470262420602898,-0.000915527,0.0159912,-0.74823,-0.663269
1470262420625418,-0.00219727,0.0147705,-0.748169,-0.663391
1470262420646438,-0.00408936,0.0131836,-0.748291,-0.66333
1470262420662952,-0.00653076,0.0117188,-0.748413,-0.663147
1470262420685472,-0.00939941,0.0101318,-0.748657,-0.662842
1470262420706491,-0.012207,0.00854492,-0.749023,-0.662415
1470262420722505,-0.0161743,0.0067749,-0.749207,-0.66217
1470262420745527,-0.0203247,0.00482178,-0.749023,-0.662231
1470262420768047,-0.0256348,0.00164795,-0.749023,-0.662109
1470262420789065,-0.0321045,-0.00195313,-0.749451,-0.661377
1470262420805580,-0.0394287,-0.00646973,-0.749817,-0.660522
1470262420828100,-0.0463257,-0.0108643,-0.749878,-0.659912
1470262420842613,-0.0514526,-0.013916,-0.749939,-0.659424
1470262420865634,-0.0547485,-0.015686,-0.749939,-0.65918
1470262420888154,-0.0570068,-0.017334,-0.749512,-0.659363
1470262420902166,-0.0595703,-0.0198364,-0.749207,-0.659424
1470262420925688,-0.0623169,-0.0228271,-0.749023,-0.659302
1470262420955715,-0.0638428,-0.0253296,-0.748779,-0.659302
1470262420969227,-0.0648193,-0.0272827,-0.748657,-0.659302
1470262420985741,-0.0656128,-0.0291138,-0.748352,-0.659424
1470262421008262,-0.0669556,-0.0311279,-0.748474,-0.659119
1470262421022274,-0.0679932,-0.0331421,-0.748596,-0.658752
1470262421045795,-0.0682983,-0.0343018,-0.748657,-0.658569
1470262421068315,-0.0682373,-0.0348511,-0.748657,-0.658569
1470262421082329,-0.0679321,-0.0350342,-0.748596,-0.65863
1470262421105849,-0.0672607,-0.0352173,-0.748535,-0.658752
1470262421127869,-0.0661011,-0.0345459,-0.748474,-0.658997
1470262421142382,-0.0644531,-0.0333252,-0.748352,-0.659424
1470262421165403,-0.0621948,-0.0314941,-0.747925,-0.660156
1470262421187924,-0.0593872,-0.0292969,-0.747498,-0.661011
1470262421208943,-0.055542,-0.0262451,-0.747253,-0.661743
1470262421225457,-0.0508423,-0.022522,-0.746826,-0.662781
1470262421247978,-0.0444946,-0.0175171,-0.746277,-0.66394
1470262421268996,-0.0374756,-0.012146,-0.745667,-0.665222
1470262421285511,-0.0299072,-0.00695801,-0.744568,-0.66687
1470262421308032,-0.0230103,-0.00268555,-0.743225,-0.668701
1470262421329084,-0.0166016,0.000976563,-0.742004,-0.670288
1470262421345566,-0.010498,0.00372314,-0.740723,-0.671753
1470262421368085,-0.00476074,0.00579834,-0.73938,-0.673279
1470262421389103,0.000549316,0.00665283,-0.737671,-0.675171
1470262421405618,0.0057373,0.00622559,-0.735596,-0.677429
1470262421428139,0.00909424,-0.0022583,-0.732849,-0.680359
1470262421449159,0.0271606,0.0106201,-0.733032,-0.679626
1470262421465674,0.0452271,0.0211182,-0.732483,-0.679016
1470262421488192,0.0670166,0.0345459,-0.731201,-0.67804
1470262421509228,0.0944824,0.0536499,-0.728821,-0.676086
1470262421524725,0.11499,0.0670166,-0.72583,-0.674927
1470262421548248,0.112244,0.0570679,-0.724243,-0.67804
1470262421569265,0.0914917,0.02771,-0.721252,-0.686096
1470262421584779,0.0593872,-0.00769043,-0.714111,-0.69751
1470262421608300,0.0245972,-0.0394287,-0.706482,-0.706238
1470262421629318,-0.00506592,-0.0621338,-0.699768,-0.71167
1470262421644833,-0.0218506,-0.0697021,-0.695435,-0.714966
1470262421667854,-0.0286255,-0.0648193,-0.693359,-0.717163
1470262421690375,-0.0332031,-0.055481,-0.691589,-0.719482
1470262421704889,-0.041626,-0.0473633,-0.686951,-0.723999
1470262421727909,-0.0565796,-0.0442505,-0.679321,-0.730347
1470262421750428,-0.0759277,-0.0449829,-0.671814,-0.735535
1470262421765441,-0.0941162,-0.0457764,-0.666077,-0.738525
1470262421772448,-0.106262,-0.0423584,-0.661255,-0.741455
1470262421793467,-0.112183,-0.0349121,-0.657227,-0.744507
1470262421823993,-0.114624,-0.0253906,-0.654602,-0.746887
1470262421832502,-0.115112,-0.0180664,-0.652954,-0.748413
1470262421853520,-0.116943,-0.0147095,-0.651489,-0.749512
1470262421876041,-0.11853,-0.0140381,-0.650757,-0.749939
1470262421892556,-0.118713,-0.0142822,-0.650391,-0.750183
1470262421913575,-0.117615,-0.0146484,-0.64978,-0.750854
1470262421936095,-0.115845,-0.0144043,-0.649963,-0.751038
1470262421952109,-0.115173,-0.013916,-0.650269,-0.750854
1470262421973630,-0.117065,-0.0141602,-0.650452,-0.750366
1470262421996148,-0.120178,-0.0169678,-0.649719,-0.750488
1470262422012663,-0.12085,-0.0204468,-0.648804,-0.751099
1470262422033681,-0.120422,-0.0231323,-0.648926,-0.750977
1470262422056202,-0.11853,-0.0247192,-0.649597,-0.750671
1470262422073720,-0.115295,-0.0264282,-0.649597,-0.751099
1470262422093736,-0.114197,-0.0290527,-0.648987,-0.751709
1470262422116256,-0.113464,-0.0308228,-0.648621,-0.752014
1470262422132272,-0.112183,-0.0324707,-0.648376,-0.75238
1470262422153303,-0.11145,-0.0349731,-0.648193,-0.752502
1470262422175810,-0.111694,-0.0385132,-0.647949,-0.752502
1470262422190857,-0.111694,-0.041626,-0.647278,-0.75293
1470262422213376,-0.110352,-0.0430908,-0.646362,-0.753845
1470262422235865,-0.108765,-0.0436401,-0.64563,-0.7547
1470262422252379,-0.106873,-0.0438843,-0.644714,-0.755676
1470262422273397,-0.105408,-0.0446167,-0.643555,-0.756836
1470262422295932,-0.104736,-0.0460205,-0.642334,-0.757874
1470262422312433,-0.104309,-0.0474854,-0.641235,-0.758789
1470262422333451,-0.103821,-0.0489502,-0.640381,-0.759521
1470262422355972,-0.103149,-0.0501099,-0.639709,-0.760071
1470262422378493,-0.103149,-0.0515137,-0.638855,-0.760681
1470262422393504,-0.103088,-0.0529175,-0.638,-0.761292
1470262422416025,-0.102478,-0.053772,-0.637207,-0.762024
1470262422432540,-0.10199,-0.0542603,-0.636597,-0.762573
1470262422453559,-0.101563,-0.0546875,-0.636292,-0.762817
1470262422476082,-0.101074,-0.0554199,-0.636047,-0.763062
1470262422492594,-0.100708,-0.0562744,-0.635742,-0.763306
1470262422513613,-0.100708,-0.0569458,-0.635437,-0.763489
1470262422536133,-0.100464,-0.057373,-0.635193,-0.763733
1470262422552648,-0.0999146,-0.0574951,-0.635071,-0.763855
1470262422573667,-0.0991821,-0.0574951,-0.634949,-0.764038
1470262422596188,-0.0986938,-0.0576172,-0.634766,-0.764282
1470262422614204,-0.0983887,-0.0578003,-0.634583,-0.764465
1470262422633721,-0.0982056,-0.0581055,-0.634399,-0.764587
1470262422657243,-0.0979004,-0.0582275,-0.634277,-0.764709
1470262422673757,-0.0977783,-0.0583496,-0.634216,-0.764771
1470262422700783,-0.0975952,-0.0584106,-0.634216,-0.764832
1470262422716295,-0.0973511,-0.0583496,-0.634155,-0.764893
1470262422733811,-0.097168,-0.0583496,-0.634094,-0.764954
1470262422753329,-0.0967407,-0.0581665,-0.634033,-0.765076
1470262422775849,-0.0960083,-0.0577393,-0.634033,-0.765198
1470262422793865,-0.0951538,-0.057251,-0.634033,-0.76532
1470262422813382,-0.0944214,-0.0570068,-0.634033,-0.765442
1470262422835904,-0.0941162,-0.0570068,-0.634033,-0.765503
1470262422853919,-0.093689,-0.0570068,-0.63385,-0.765686
1470262422873436,-0.0932617,-0.0567627,-0.633789,-0.765808
1470262422895957,-0.0927734,-0.0565186,-0.63385,-0.765869
1470262422913973,-0.0924072,-0.0563965,-0.633911,-0.765869
1470262422933490,-0.0924072,-0.0563965,-0.633911,-0.765869
1470262422957512,-0.0924072,-0.0563965,-0.633911,-0.765869
1470262422974026,-0.0924683,-0.0563965,-0.633911,-0.765869
1470262422993544,-0.0923462,-0.0562744,-0.633972,-0.765808
1470262423016064,-0.0921631,-0.0560913,-0.634033,-0.765808
1470262423034080,-0.09198,-0.0560303,-0.634094,-0.765747
1470262423053598,-0.0917969,-0.0559082,-0.634155,-0.765747
1470262423076119,-0.0914917,-0.0556641,-0.634216,-0.765808
1470262423094134,-0.0910645,-0.055542,-0.634216,-0.765808
1470262423113651,-0.0906372,-0.055481,-0.634277,-0.765869
1470262423136172,-0.09021,-0.0553589,-0.634277,-0.765869
1470262423154188,-0.0897827,-0.0552368,-0.634277,-0.76593
1470262423173706,-0.0894165,-0.0550537,-0.634277,-0.765991
1470262423196226,-0.0891113,-0.0549316,-0.634277,-0.766052
1470262423213743,-0.0887451,-0.0547485,-0.634338,-0.766052
1470262423234761,-0.0883789,-0.0546265,-0.63446,-0.765991
1470262423256280,-0.0880127,-0.0545044,-0.634583,-0.76593
1470262423273796,-0.0876465,-0.0543213,-0.634766,-0.765869
1470262423294815,-0.0873413,-0.0541992,-0.634949,-0.765747
1470262423316334,-0.0869141,-0.0540771,-0.635071,-0.765686
1470262423333850,-0.0864868,-0.053894,-0.635315,-0.765564
1470262423354869,-0.0859375,-0.0535889,-0.635498,-0.765503
1470262423375887,-0.0855103,-0.0533447,-0.63562,-0.765442
1470262423393903,-0.0852051,-0.0532227,-0.635681,-0.765442
1470262423414923,-0.0847168,-0.0531006,-0.635742,-0.765503
1470262423435942,-0.0840454,-0.0528564,-0.635864,-0.765442
1470262423453958,-0.0835571,-0.0526733,-0.636047,-0.765381
1470262423474977,-0.083313,-0.0524292,-0.636108,-0.76532
1470262423495996,-0.0831909,-0.0523071,-0.636292,-0.765259
1470262423514012,-0.0831909,-0.0523071,-0.636292,-0.765259
1470262423535030,-0.083252,-0.0523071,-0.636292,-0.765259
1470262423556049,-0.0831909,-0.0522461,-0.636414,-0.765076
1470262423574066,-0.0830688,-0.052124,-0.636658,-0.764954
1470262423596585,-0.0830688,-0.052063,-0.636658,-0.764954
1470262423619107,-0.0831909,-0.0521851,-0.636658,-0.764893
1470262423633619,-0.083374,-0.0523682,-0.636658,-0.764893
1470262423656640,-0.0835571,-0.0525513,-0.636658,-0.764893
1470262423676159,-0.0836182,-0.0525513,-0.636658,-0.764893
1470262423694173,-0.0836182,-0.0525513,-0.636597,-0.764893
1470262423716693,-0.0836182,-0.0525513,-0.636597,-0.764893
1470262423736211,-0.0836182,-0.0525513,-0.636597,-0.764893
1470262423754228,-0.0836792,-0.0525513,-0.636658,-0.764893
1470262423776747,-0.0836792,-0.0525513,-0.636658,-0.764893
1470262423796264,-0.0836792,-0.0525513,-0.636658,-0.764893
1470262423813780,-0.0839233,-0.0526733,-0.636597,-0.764893
1470262423837302,-0.0841675,-0.0527954,-0.636536,-0.764893
1470262423856320,-0.0842285,-0.0527954,-0.636536,-0.764893
1470262423873835,-0.0842896,-0.0527344,-0.636414,-0.764954
1470262423896355,-0.0842285,-0.0526733,-0.636353,-0.765076
1470262423923378,-0.0842285,-0.0526733,-0.636353,-0.765076
1470262423933889,-0.0842896,-0.0526733,-0.636353,-0.765076
1470262423956409,-0.0842896,-0.0526733,-0.636353,-0.765076
1470262423975926,-0.0842896,-0.0526733,-0.636353,-0.765015
1470262423993943,-0.0843506,-0.0526733,-0.636353,-0.765015
1470262424016463,-0.0843506,-0.0526733,-0.636353,-0.765015
1470262424035980,-0.0843506,-0.0526123,-0.636353,-0.765015
1470262424053996,-0.0842285,-0.0527344,-0.636353,-0.765015
1470262424076518,-0.0840454,-0.0531006,-0.636353,-0.765015
1470262424096035,-0.0838013,-0.0534668,-0.636597,-0.764832
1470262424114050,-0.0835571,-0.053772,-0.636719,-0.764709
1470262424136571,-0.083252,-0.0539551,-0.636841,-0.764648
1470262424156088,-0.0829468,-0.0541382,-0.636841,-0.764709
1470262424174105,-0.0825806,-0.0542603,-0.63678,-0.764771
1470262424196624,-0.0820923,-0.0544434,-0.636719,-0.764832
1470262424217643,-0.081543,-0.0544434,-0.636658,-0.764954
1470262424234158,-0.0809326,-0.0543823,-0.636536,-0.765137
1470262424256678,-0.0803223,-0.0543823,-0.636353,-0.76532
1470262424276696,-0.0797119,-0.0545654,-0.636108,-0.765564
1470262424293211,-0.0789795,-0.0546875,-0.635742,-0.76593
1470262424315232,-0.0780029,-0.0545654,-0.635315,-0.766418
1470262424336751,-0.0764771,-0.0543823,-0.634827,-0.766968
1470262424353265,-0.0741577,-0.0540771,-0.634216,-0.767761
1470262424375785,-0.0710449,-0.053833,-0.633423,-0.768677
1470262424396803,-0.0679321,-0.0535889,-0.632507,-0.769775
1470262424412818,-0.0650635,-0.053833,-0.631287,-0.770996
1470262424435339,-0.0620117,-0.0541992,-0.629883,-0.772339
1470262424456859,-0.0584106,-0.0540771,-0.628662,-0.773621
1470262424472372,-0.055481,-0.053833,-0.627502,-0.774841
1470262424495393,-0.053772,-0.053833,-0.626282,-0.77594
1470262424516911,-0.0523682,-0.0543823,-0.62561,-0.77655
1470262424532427,-0.0511475,-0.0550537,-0.625122,-0.776917
1470262424555446,-0.050415,-0.0551147,-0.624756,-0.777283
1470262424577967,-0.050415,-0.0551147,-0.624695,-0.777344
1470262424599486,-0.0504761,-0.0551758,-0.624695,-0.777344
1470262424615500,-0.0511475,-0.0552979,-0.624878,-0.7771
1470262424645527,-0.052002,-0.0552979,-0.625244,-0.776794
1470262424653035,-0.0528564,-0.0552368,-0.625793,-0.776306
1470262424675555,-0.0536499,-0.0550537,-0.626282,-0.775818
1470262424698074,-0.0541382,-0.0548706,-0.626892,-0.77533
1470262424712588,-0.0545044,-0.0546875,-0.627319,-0.774963
1470262424735608,-0.0546875,-0.0545044,-0.627686,-0.774658
1470262424758129,-0.0548096,-0.0544434,-0.62793,-0.774475
1470262424772641,-0.0549316,-0.0545654,-0.628113,-0.774353
1470262424795662,-0.0549316,-0.0545044,-0.628113,-0.774353
1470262424818184,-0.0547485,-0.0546265,-0.628113,-0.774292
1470262424832695,-0.0547485,-0.0545654,-0.628113,-0.774292
1470262424855717,-0.0547485,-0.0545654,-0.628113,-0.774292
1470262424878237,-0.0548096,-0.0545654,-0.628113,-0.774292
1470262424892249,-0.0548096,-0.0546265,-0.628113,-0.774292
1470262424915769,-0.0548706,-0.0544434,-0.628052,-0.774353
1470262424938291,-0.0548706,-0.0541382,-0.628052,-0.774414
1470262424952304,-0.0549927,-0.0539551,-0.628052,-0.774414
1470262424975824,-0.0551758,-0.0537109,-0.628052,-0.774414
1470262424998345,-0.0553589,-0.0532227,-0.628113,-0.774414
1470262425019363,-0.0554199,-0.0515747,-0.628418,-0.774231
1470262425035378,-0.0545654,-0.0496216,-0.628784,-0.77417
1470262425058398,-0.0532227,-0.0483398,-0.629028,-0.774109
1470262425079919,-0.0532227,-0.0483398,-0.629028,-0.774109
1470262425095431,-0.0542603,-0.0492554,-0.628662,-0.774231
1470262425118452,-0.0553589,-0.050415,-0.628357,-0.774414
1470262425139471,-0.0558472,-0.0508423,-0.628235,-0.774414
1470262425155486,-0.055481,-0.0506592,-0.628174,-0.774475
1470262425178005,-0.0550537,-0.0505371,-0.628235,-0.774536
1470262425199527,-0.0550537,-0.0505371,-0.628235,-0.774536
1470262425215540,-0.0552979,-0.0506592,-0.628113,-0.774597
1470262425238061,-0.0552979,-0.0506592,-0.628113,-0.774597
1470262425259579,-0.0551758,-0.0504761,-0.628052,-0.774658
1470262425275593,-0.0548096,-0.0502319,-0.627991,-0.774719
1470262425298114,-0.0544434,-0.0500488,-0.62793,-0.77478
1470262425319132,-0.0542603,-0.0499878,-0.627869,-0.774902
1470262425335648,-0.0542603,-0.0499878,-0.627808,-0.774902
1470262425358168,-0.0542603,-0.0499878,-0.627808,-0.774902
1470262425379187,-0.0540161,-0.0499268,-0.627808,-0.774963
1470262425395701,-0.053833,-0.0497437,-0.627747,-0.775024
1470262425418222,-0.0537109,-0.0496216,-0.627686,-0.775085
1470262425439242,-0.0537109,-0.0496216,-0.627686,-0.775085
1470262425455754,-0.0537109,-0.0496216,-0.627686,-0.775085
1470262425478275,-0.0537109,-0.0496826,-0.627686,-0.775085
1470262425500795,-0.0537109,-0.0496826,-0.627686,-0.775085
1470262425521815,-0.053772,-0.0496826,-0.627686,-0.775085
1470262425538330,-0.053772,-0.0496216,-0.627686,-0.775085
1470262425560349,-0.0540161,-0.0497437,-0.627808,-0.774963
1470262425575363,-0.0541992,-0.0498657,-0.627869,-0.774902
1470262425598382,-0.0544434,-0.0499878,-0.62793,-0.774841
1470262425620403,-0.0544434,-0.0499878,-0.62793,-0.774841
1470262425634916,-0.0545654,-0.0501709,-0.627991,-0.774719
1470262425658436,-0.0545654,-0.0501709,-0.627991,-0.774719
1470262425680456,-0.0546265,-0.050415,-0.628052,-0.774658
1470262425694970,-0.0546875,-0.0505371,-0.628052,-0.774658
1470262425717992,-0.0545654,-0.0507813,-0.628052,-0.774658
1470262425741012,-0.0541992,-0.0509033,-0.628052,-0.774658
1470262425755024,-0.0539551,-0.0510254,-0.628113,-0.774658
1470262425785551,-0.0540161,-0.0512695,-0.627991,-0.774658
1470262425800565,-0.0541382,-0.0515747,-0.627991,-0.774719
1470262425815077,-0.0545044,-0.0518799,-0.62793,-0.774658
1470262425838099,-0.0545044,-0.0518799,-0.62793,-0.774658
1470262425860619,-0.0543823,-0.0518188,-0.627991,-0.774658
1470262425875132,-0.0543823,-0.0518188,-0.627991,-0.774658
1470262425898152,-0.0544434,-0.0517578,-0.627991,-0.774658
1470262425920673,-0.0546875,-0.0518799,-0.627991,-0.774658
1470262425935186,-0.0546875,-0.0518799,-0.627991,-0.774597
1470262425958206,-0.0548096,-0.052124,-0.628113,-0.774475
1470262425980726,-0.0551147,-0.0528564,-0.628174,-0.774353
1470262426001746,-0.055542,-0.0547485,-0.628479,-0.773926
1470262426018261,-0.0562134,-0.0565796,-0.629211,-0.773193
1470262426040780,-0.0567627,-0.0577393,-0.629822,-0.772583
1470262426061799,-0.0566406,-0.0578613,-0.630188,-0.772278
1470262426078314,-0.0567017,-0.0577393,-0.63031,-0.772156
1470262426100334,-0.0571899,-0.0575562,-0.63031,-0.772156
1470262426121868,-0.0578003,-0.0574951,-0.630127,-0.772217
1470262426138368,-0.0581665,-0.057251,-0.630066,-0.772278
1470262426160970,-0.0583496,-0.0567627,-0.630005,-0.7724
1470262426181921,-0.0583496,-0.0563354,-0.629883,-0.772522
1470262426198421,-0.0582275,-0.0559082,-0.629883,-0.772583
1470262426220942,-0.0576782,-0.055481,-0.629883,-0.772583
1470262426241964,-0.0567017,-0.0545044,-0.630005,-0.772644
1470262426264481,-0.0557251,-0.0530396,-0.630188,-0.772705
1470262426280495,-0.0550537,-0.0515137,-0.630188,-0.772827
1470262426301517,-0.0546875,-0.0505371,-0.630188,-0.772949
1470262426318029,-0.0551758,-0.0500488,-0.630066,-0.77301
1470262426340551,-0.0562134,-0.0501099,-0.630005,-0.772949
1470262426362145,-0.057251,-0.0507202,-0.630066,-0.772827
1470262426378083,-0.0579224,-0.0512695,-0.630371,-0.772461
1470262426400603,-0.0580444,-0.0510864,-0.630554,-0.772339
1470262426423124,-0.0581055,-0.0505981,-0.630798,-0.772156
1470262426438137,-0.0585938,-0.050415,-0.631042,-0.771912
1470262426460657,-0.0596313,-0.0507813,-0.631287,-0.771606
1470262426483178,-0.060791,-0.0515137,-0.63147,-0.771362
1470262426498191,-0.0616455,-0.0521851,-0.631653,-0.771057
1470262426520713,-0.0618286,-0.0522461,-0.631775,-0.770996
1470262426544732,-0.0615845,-0.0516357,-0.631836,-0.770996
1470262426558245,-0.0615845,-0.0507202,-0.631897,-0.770996
1470262426588272,-0.0618896,-0.0500488,-0.631958,-0.770996
1470262426603286,-0.0618896,-0.0500488,-0.631958,-0.770996
1470262426617298,-0.0618896,-0.0500488,-0.631958,-0.770935
1470262426640819,-0.0618896,-0.0500488,-0.631958,-0.770935
1470262426663339,-0.0619507,-0.0500488,-0.631958,-0.770935
1470262426677352,-0.0619507,-0.0500488,-0.631958,-0.770935
1470262426700874,-0.0623169,-0.0501709,-0.631958,-0.770935
1470262426723393,-0.0626221,-0.050415,-0.631897,-0.770935
1470262426737405,-0.0626831,-0.050415,-0.631897,-0.770935
1470262426760927,-0.0626831,-0.050415,-0.631897,-0.770935
1470262426783447,-0.0626831,-0.050415,-0.631897,-0.770935
1470262426797460,-0.0627441,-0.050415,-0.631897,-0.770935
1470262426820981,-0.0626831,-0.050415,-0.631897,-0.770935
1470262426843001,-0.0626221,-0.050354,-0.631836,-0.770996
1470262426857514,-0.0626221,-0.0506592,-0.631714,-0.771057
1470262426880535,-0.062439,-0.0510864,-0.631714,-0.771057
1470262426903055,-0.0620728,-0.0514526,-0.631714,-0.771057
1470262426924074,-0.0615234,-0.0514526,-0.631775,-0.771057
1470262426940588,-0.0610352,-0.0513916,-0.631836,-0.771057
1470262426963109,-0.0609131,-0.0515137,-0.631836,-0.771057
1470262426984127,-0.0610352,-0.0517578,-0.631775,-0.771057
1470262427008149,-0.0610352,-0.0518188,-0.631775,-0.771057
1470262427030669,-0.0610962,-0.0518188,-0.631775,-0.771057
1470262427044181,-0.0608521,-0.0516968,-0.631775,-0.771057
1470262427060696,-0.06073,-0.0514526,-0.631775,-0.771118
1470262427083717,-0.06073,-0.0514526,-0.631775,-0.771118
1470262427104236,-0.06073,-0.0514526,-0.631775,-0.771118
1470262427120750,-0.06073,-0.0514526,-0.631775,-0.771118
1470262427143270,-0.0606079,-0.0511475,-0.631714,-0.771179
1470262427164288,-0.0606079,-0.0511475,-0.631714,-0.771179
1470262427180811,-0.0606079,-0.0511475,-0.631714,-0.771179
1470262427203324,-0.0604858,-0.0511475,-0.631653,-0.77124
1470262427224344,-0.0602417,-0.0509033,-0.631653,-0.77124
1470262427240858,-0.0600586,-0.0507202,-0.631714,-0.771301
1470262427263378,-0.0600586,-0.0507202,-0.631714,-0.771301
1470262427284397,-0.0601807,-0.0509033,-0.631653,-0.771301
1470262427300911,-0.0601807,-0.0513306,-0.631775,-0.771179
1470262427323433,-0.0601807,-0.0516968,-0.631897,-0.771057
1470262427344452,-0.0601807,-0.0516968,-0.631897,-0.771057
1470262427366972,-0.0601807,-0.0516968,-0.631897,-0.771057
1470262427390992,-0.0603638,-0.052002,-0.631897,-0.770996
1470262427405505,-0.0606079,-0.052063,-0.631897,-0.770996
1470262427421020,-0.0606079,-0.052063,-0.631897,-0.770996
1470262427449045,-0.0606079,-0.052063,-0.631897,-0.770996
1470262427465560,-0.0603638,-0.0519409,-0.631897,-0.770996
1470262427480574,-0.0603638,-0.0519409,-0.631897,-0.770996
1470262427503093,-0.0603638,-0.0519409,-0.631897,-0.770996
1470262427525614,-0.0603638,-0.0519409,-0.631897,-0.770996
1470262427540127,-0.0603638,-0.0519409,-0.631897,-0.770996
1470262427563148,-0.0603638,-0.0519409,-0.631897,-0.770996
1470262427593175,-0.060791,-0.0521851,-0.631836,-0.770996
1470262427600180,-0.060791,-0.0522461,-0.631836,-0.770996
1470262427623201,-0.0609741,-0.0522461,-0.631775,-0.771057
1470262427653229,-0.0614624,-0.0524902,-0.631775,-0.770996
1470262427659733,-0.0623779,-0.0527954,-0.631714,-0.770935
1470262427683255,-0.0635376,-0.0532227,-0.631775,-0.770813
1470262427705775,-0.0637817,-0.0528564,-0.631775,-0.770813
1470262427720288,-0.0638428,-0.0521851,-0.632019,-0.77063
1470262427743309,-0.0654297,-0.0529785,-0.632263,-0.770203
1470262427765829,-0.0688477,-0.0556641,-0.632446,-0.769592
1470262427786848,-0.0689087,-0.0542603,-0.632874,-0.769287
1470262427803363,-0.0670776,-0.0510864,-0.633606,-0.769104
1470262427825882,-0.0664673,-0.0499878,-0.634583,-0.768433
1470262427846902,-0.0675049,-0.0515747,-0.63501,-0.767883
1470262427863417,-0.069519,-0.0540161,-0.63501,-0.767517
1470262427885936,-0.071228,-0.0554199,-0.634888,-0.767395
1470262427906963,-0.0712891,-0.0553589,-0.634888,-0.767395
1470262427922970,-0.0705566,-0.0548706,-0.634766,-0.767578
1470262427945493,-0.0693359,-0.0545654,-0.634521,-0.767944
1470262427967009,-0.0684204,-0.053772,-0.634094,-0.768433
1470262427983024,-0.067627,-0.0532837,-0.633789,-0.768738
1470262428005545,-0.0670166,-0.0535278,-0.633362,-0.769104
1470262428026564,-0.0665283,-0.0535278,-0.632935,-0.769531
1470262428043078,-0.0661011,-0.0535278,-0.63269,-0.769775
1470262428065598,-0.0654907,-0.0533447,-0.632507,-0.77002
1470262428086620,-0.0646973,-0.0530396,-0.632446,-0.770142
1470262428103132,-0.0639038,-0.0529175,-0.632446,-0.770203
1470262428125652,-0.0643921,-0.0536499,-0.632568,-0.77002
1470262428146673,-0.0646362,-0.0540161,-0.63269,-0.769836
1470262428163186,-0.0639648,-0.0532837,-0.632935,-0.769775
1470262428185706,-0.0628662,-0.0524902,-0.633057,-0.769836
1470262428206729,-0.0621948,-0.052002,-0.633179,-0.769775
1470262428223241,-0.0621338,-0.052002,-0.633118,-0.769836
1470262428245760,-0.0620117,-0.0523071,-0.633057,-0.769897
1470262428266780,-0.0618286,-0.0523071,-0.632935,-0.77002
1470262428283293,-0.0612183,-0.0519409,-0.632874,-0.770142
1470262428305814,-0.0601196,-0.0515747,-0.632751,-0.770386
1470262428328334,-0.0598145,-0.0518799,-0.632568,-0.770508
1470262428343350,-0.0603638,-0.0526733,-0.632385,-0.770569
1470262428365868,-0.0604248,-0.0530396,-0.632263,-0.77063
1470262428388388,-0.0600586,-0.0531006,-0.632263,-0.77063
1470262428403401,-0.0598145,-0.0529175,-0.632324,-0.77063
1470262428425924,-0.0598145,-0.0529175,-0.632324,-0.77063
1470262428448442,-0.0598755,-0.0530396,-0.632324,-0.77063
1470262428462978,-0.0599365,-0.0532227,-0.632385,-0.770569
1470262428485477,-0.0599365,-0.0532227,-0.632385,-0.770569
1470262428508001,-0.0599365,-0.0532227,-0.632385,-0.770569
1470262428522510,-0.0599365,-0.0532227,-0.632385,-0.770569
1470262428545529,-0.0599365,-0.0531616,-0.632385,-0.770569
1470262428568049,-0.0597534,-0.0531006,-0.632324,-0.77063
1470262428582563,-0.0597534,-0.0530396,-0.632324,-0.77063
1470262428605585,-0.0597534,-0.0530396,-0.632324,-0.77063
1470262428628103,-0.0595703,-0.0531006,-0.632263,-0.770691
1470262428642616,-0.0592651,-0.0528564,-0.632202,-0.770752
1470262428673144,-0.05896,-0.0526733,-0.632202,-0.770813
1470262428688159,-0.05896,-0.0527344,-0.632202,-0.770813
1470262428702670,-0.05896,-0.0527344,-0.632202,-0.770813
1470262428725692,-0.059021,-0.0527344,-0.632202,-0.770813
1470262428748211,-0.05896,-0.0526733,-0.632202,-0.770813
1470262428762724,-0.05896,-0.0527344,-0.632202,-0.770813
1470262428785745,-0.0588989,-0.0527344,-0.632202,-0.770813
1470262428808265,-0.0588989,-0.0526733,-0.632202,-0.770813
1470262428829284,-0.0588989,-0.0526733,-0.632202,-0.770813
1470262428845799,-0.05896,-0.0526733,-0.632202,-0.770813
1470262428868319,-0.0588379,-0.0525513,-0.632141,-0.770874
1470262428889396,-0.0585327,-0.0524292,-0.632202,-0.770874
1470262428905852,-0.0582275,-0.0521851,-0.632141,-0.770996
1470262428928372,-0.0579224,-0.0518799,-0.63208,-0.771057
1470262428949410,-0.0578003,-0.0517578,-0.632019,-0.771118
1470262428965907,-0.0578003,-0.0517578,-0.632019,-0.771118
1470262428988426,-0.0578003,-0.0517578,-0.632019,-0.771118
1470262429009445,-0.0576782,-0.0515747,-0.632019,-0.771179
1470262429025961,-0.0574951,-0.0514526,-0.631958,-0.771179
1470262429047980,-0.0574951,-0.0514526,-0.631958,-0.771179
1470262429069028,-0.057312,-0.0512695,-0.631958,-0.77124
1470262429085514,-0.0570679,-0.0511475,-0.631958,-0.77124
1470262429108056,-0.0568848,-0.0509644,-0.631897,-0.771301
1470262429129055,-0.0568848,-0.0509644,-0.631897,-0.771301
1470262429145569,-0.0567627,-0.0508423,-0.631897,-0.771362
1470262429168088,-0.0565796,-0.0506592,-0.631836,-0.771423
1470262429189133,-0.0563354,-0.050415,-0.631836,-0.771484
1470262429205622,-0.0562134,-0.0502319,-0.631836,-0.771484
1470262429228142,-0.0562134,-0.0502319,-0.631836,-0.771484
1470262429249189,-0.0561523,-0.0502319,-0.631836,-0.771484
1470262429265679,-0.0562134,-0.0502319,-0.631836,-0.771484
1470262429288197,-0.0560913,-0.0501099,-0.631897,-0.771484
1470262429310716,-0.0559082,-0.0498657,-0.631958,-0.771423
1470262429325729,-0.0557861,-0.0495605,-0.631958,-0.771423
1470262429348250,-0.055603,-0.0493164,-0.63208,-0.771423
1470262429370770,-0.0554199,-0.0490723,-0.632141,-0.771362
1470262429393791,-0.0552368,-0.0487671,-0.632263,-0.771301
1470262429408304,-0.0549927,-0.048645,-0.632324,-0.77124
1470262429430824,-0.0549927,-0.048645,-0.632324,-0.77124
1470262429444836,-0.0548096,-0.0485229,-0.632507,-0.771118
1470262429474364,-0.0546875,-0.0485229,-0.63269,-0.770996
1470262429490878,-0.0544434,-0.0484009,-0.632996,-0.770813
1470262429495884,-0.0541382,-0.0480957,-0.633362,-0.770508
1470262429513901,-0.053894,-0.0476685,-0.633728,-0.770264
1470262429533417,-0.053772,-0.0471191,-0.634094,-0.77002
1470262429558940,-0.053894,-0.0465698,-0.63446,-0.769714
1470262429572451,-0.0540161,-0.0459595,-0.634888,-0.769409
1470262429593471,-0.0539551,-0.0452881,-0.635437,-0.768982
1470262429615990,-0.0540161,-0.0446777,-0.635925,-0.768616
1470262429632506,-0.0540161,-0.0440063,-0.636292,-0.768311
1470262429653524,-0.0540161,-0.043457,-0.63678,-0.767944
1470262429676045,-0.0539551,-0.0429077,-0.637329,-0.767578
1470262429692559,-0.0540771,-0.0423584,-0.637817,-0.767151
1470262429713577,-0.0545044,-0.0418091,-0.638367,-0.766724
1470262429736098,-0.0551147,-0.0412598,-0.638855,-0.766296
1470262429752614,-0.0557251,-0.0406494,-0.639465,-0.765747
1470262429773632,-0.0561523,-0.039978,-0.640076,-0.765259
1470262429796154,-0.0565186,-0.0392456,-0.640625,-0.764832
1470262429812668,-0.0567627,-0.0385132,-0.641235,-0.764343
1470262429833687,-0.0568848,-0.0379639,-0.641846,-0.763855
1470262429864215,-0.0571289,-0.0374756,-0.642456,-0.763367
1470262429872721,-0.0576172,-0.0369873,-0.642944,-0.762939
1470262429893741,-0.0582886,-0.0365601,-0.643433,-0.762451
1470262429916260,-0.059082,-0.0362549,-0.644043,-0.761902
1470262429932774,-0.0601196,-0.0360107,-0.644653,-0.761353
1470262429953793,-0.0614014,-0.0359497,-0.645325,-0.76062
1470262429976313,-0.0628052,-0.0355835,-0.646057,-0.759888
1470262429992828,-0.0640869,-0.0349121,-0.646912,-0.759094
1470262430013848,-0.0654907,-0.0341797,-0.647949,-0.758179
1470262430035867,-0.0670166,-0.0334473,-0.648865,-0.757263
1470262430052384,-0.0687866,-0.0328369,-0.649719,-0.756409
1470262430073965,-0.0709229,-0.0324707,-0.650696,-0.755371
1470262430095921,-0.0733032,-0.0324707,-0.651855,-0.75415
1470262430112437,-0.0761719,-0.0327759,-0.653259,-0.752625
1470262430133471,-0.0800781,-0.0334473,-0.654602,-0.751038
1470262430156479,-0.0845947,-0.0344238,-0.65625,-0.749023
1470262430174009,-0.0895996,-0.0357666,-0.658142,-0.746765
1470262430194012,-0.0949097,-0.0369263,-0.659912,-0.744507
1470262430216646,-0.0999146,-0.0377197,-0.661499,-0.742371
1470262430234047,-0.104675,-0.0383301,-0.663086,-0.740295
1470262430253562,-0.109375,-0.0389404,-0.664673,-0.738098
1470262430276116,-0.11438,-0.0400391,-0.666382,-0.735779
1470262430294104,-0.119934,-0.0418091,-0.668152,-0.733154
1470262430313616,-0.126404,-0.0442505,-0.6698,-0.730469
1470262430336137,-0.133789,-0.0476074,-0.671448,-0.727417
1470262430354154,-0.141968,-0.0524902,-0.673218,-0.723877
1470262430373672,-0.151123,-0.0581665,-0.674866,-0.720032
1470262430396204,-0.161072,-0.0637817,-0.676453,-0.715881
1470262430414222,-0.171082,-0.0690308,-0.678162,-0.711426
1470262430433724,-0.180237,-0.0737915,-0.679565,-0.707336
1470262430456247,-0.190002,-0.0786743,-0.680603,-0.703308
1470262430474260,-0.200684,-0.0845337,-0.681152,-0.699097
1470262430493812,-0.211731,-0.0907593,-0.681213,-0.695007
1470262430516361,-0.222351,-0.0960693,-0.681396,-0.690796
1470262430534315,-0.231995,-0.100281,-0.68158,-0.686829
1470262430553832,-0.240784,-0.103577,-0.681458,-0.683411
1470262430576449,-0.249817,-0.106506,-0.680847,-0.680298
1470262430594453,-0.260254,-0.109863,-0.679077,-0.677612
1470262430613890,-0.270691,-0.114136,-0.676392,-0.675476
1470262430636406,-0.279541,-0.117676,-0.674011,-0.673706
1470262430653957,-0.285522,-0.120117,-0.671997,-0.672729
1470262430673442,-0.289978,-0.120789,-0.669678,-0.673035
1470262430695959,-0.294312,-0.120789,-0.667297,-0.673462
1470262430714011,-0.299377,-0.122009,-0.664917,-0.673401
1470262430734016,-0.304565,-0.12384,-0.662537,-0.673096
1470262430756048,-0.309387,-0.125427,-0.660339,-0.672791
1470262430774030,-0.314148,-0.126526,-0.658447,-0.672241
1470262430796550,-0.318726,-0.127686,-0.65686,-0.671387
1470262430816091,-0.323181,-0.129822,-0.655579,-0.670044
1470262430834097,-0.327942,-0.132935,-0.654175,-0.668518
1470262430855103,-0.332397,-0.135498,-0.652649,-0.667297
1470262430876140,-0.335022,-0.136047,-0.651733,-0.666809
1470262430894188,-0.337158,-0.135742,-0.651245,-0.66626
1470262430915157,-0.339661,-0.134583,-0.650696,-0.665771
1470262430936175,-0.340637,-0.131653,-0.650513,-0.666016
1470262430954192,-0.34021,-0.127563,-0.650757,-0.666748
1470262430975212,-0.339111,-0.122986,-0.650818,-0.668152
1470262430996231,-0.33728,-0.118103,-0.650452,-0.670288
1470262431014280,-0.334778,-0.112488,-0.649902,-0.673096
1470262431035264,-0.332214,-0.106873,-0.648682,-0.676453
1470262431056316,-0.330139,-0.101868,-0.646912,-0.679871
1470262431074299,-0.330383,-0.0990601,-0.644043,-0.682861
1470262431095319,-0.332581,-0.0982666,-0.640808,-0.684998
1470262431116337,-0.33313,-0.0961304,-0.637939,-0.687683
1470262431141860,-0.332458,-0.0924683,-0.635437,-0.690796
1470262431154872,-0.331665,-0.0884399,-0.633362,-0.693665
1470262431176391,-0.33136,-0.085083,-0.63147,-0.695923
1470262431193907,-0.33252,-0.0827637,-0.629456,-0.697449
1470262431217428,-0.334961,-0.0808716,-0.627319,-0.698486
1470262431236445,-0.336731,-0.078186,-0.625305,-0.699768
1470262431253962,-0.337219,-0.074585,-0.623901,-0.701111
1470262431276481,-0.338196,-0.0712891,-0.622864,-0.701904
1470262431296014,-0.340271,-0.0689087,-0.622009,-0.701904
1470262431314014,-0.343201,-0.0675049,-0.62146,-0.701111
1470262431336541,-0.346252,-0.0667725,-0.621216,-0.69989
1470262431356083,-0.349487,-0.0667114,-0.621155,-0.698364
1470262431374100,-0.352966,-0.0671387,-0.621277,-0.696411
1470262431396589,-0.356201,-0.067627,-0.621887,-0.694214
1470262431416108,-0.35907,-0.0682983,-0.62262,-0.691956
1470262431434158,-0.361389,-0.0689087,-0.623352,-0.690063
1470262431456645,-0.362976,-0.0689087,-0.624268,-0.688416
1470262431476189,-0.363953,-0.0689697,-0.625244,-0.687012
1470262431498698,-0.364502,-0.069397,-0.626282,-0.68573
1470262431516700,-0.36499,-0.0700073,-0.627136,-0.68457
1470262431537716,-0.365112,-0.0706177,-0.628113,-0.683594
1470262431554231,-0.364502,-0.0709229,-0.62915,-0.682861
1470262431576750,-0.36377,-0.0714722,-0.630127,-0.682373
1470262431596298,-0.363098,-0.0720825,-0.631042,-0.681824
1470262431614285,-0.362427,-0.0727539,-0.631897,-0.681335
1470262431636804,-0.361389,-0.0731201,-0.632874,-0.680908
1470262431656322,-0.360291,-0.0734253,-0.633911,-0.680481
1470262431674448,-0.359497,-0.0736694,-0.63501,-0.679871
1470262431696358,-0.358704,-0.0734863,-0.636108,-0.67926
1470262431716376,-0.357483,-0.0733032,-0.637329,-0.678772
1470262431734518,-0.356079,-0.0731812,-0.63855,-0.678345
1470262431756412,-0.354614,-0.0733643,-0.639648,-0.678101
1470262431777431,-0.352783,-0.0736084,-0.640686,-0.67804
1470262431793946,-0.350281,-0.0734863,-0.641663,-0.678406
1470262431816967,-0.347412,-0.0733032,-0.6427,-0.678955
1470262431837485,-0.344482,-0.0731201,-0.643616,-0.679626
1470262431854000,-0.341553,-0.072937,-0.644348,-0.680359
1470262431876520,-0.338257,-0.0726318,-0.645142,-0.681335
1470262431897540,-0.334595,-0.0723267,-0.645874,-0.682434
1470262431919061,-0.330627,-0.0721436,-0.646667,-0.683655
1470262431936576,-0.327026,-0.0726318,-0.647522,-0.684509
1470262431957592,-0.323975,-0.0732422,-0.648315,-0.685181
1470262431979616,-0.320679,-0.0734863,-0.648987,-0.686035
1470262431995627,-0.316895,-0.0732422,-0.64978,-0.687073
1470262432016645,-0.313354,-0.0732422,-0.650696,-0.687866
1470262432039667,-0.310303,-0.0734253,-0.651489,-0.688477
1470262432055681,-0.307617,-0.0737305,-0.652161,-0.689026
1470262432078202,-0.304688,-0.0741577,-0.652954,-0.689514
1470262432099721,-0.301514,-0.0742798,-0.653931,-0.689941
1470262432115734,-0.297974,-0.0748291,-0.655029,-0.690369
1470262432138255,-0.29541,-0.0761108,-0.655945,-0.690491
1470262432152767,-0.293457,-0.0776367,-0.656677,-0.69043
1470262432175789,-0.291077,-0.0787354,-0.657654,-0.69043
1470262432198309,-0.288269,-0.0800781,-0.659058,-0.690125
1470262432220829,-0.285889,-0.0822754,-0.660706,-0.689209
1470262432235843,-0.284424,-0.0852661,-0.662354,-0.687866
1470262432258364,-0.282349,-0.0877686,-0.663696,-0.687134
1470262432272376,-0.277893,-0.088562,-0.665222,-0.687378
1470262432295896,-0.271301,-0.0883179,-0.667603,-0.687744
1470262432318419,-0.264404,-0.0881958,-0.670288,-0.687805
1470262432339453,-0.258667,-0.0895996,-0.672729,-0.687439
1470262432355950,-0.253174,-0.0922241,-0.674622,-0.687317
1470262432378003,-0.245605,-0.0947266,-0.675964,-0.688416
1470262432399515,-0.235657,-0.0957031,-0.677734,-0.690002
1470262432416004,-0.224915,-0.0953369,-0.679626,-0.691772
1470262432438024,-0.214478,-0.0947266,-0.681335,-0.693481
1470262432459545,-0.203674,-0.0950317,-0.682617,-0.695435
1470262432475558,-0.1922,-0.0969238,-0.684021,-0.697083
1470262432498078,-0.18158,-0.100037,-0.68512,-0.698364
1470262432519098,-0.172913,-0.104187,-0.68573,-0.699402
1470262432535614,-0.165039,-0.108887,-0.685974,-0.700256
1470262432558132,-0.155884,-0.112549,-0.686707,-0.701111
1470262432579152,-0.14563,-0.115173,-0.687866,-0.701782
1470262432595666,-0.136475,-0.117065,-0.68927,-0.701904
1470262432618186,-0.129883,-0.119507,-0.689453,-0.702515
1470262432639204,-0.125305,-0.1203,-0.688171,-0.704529
1470262432655721,-0.121094,-0.119019,-0.687378,-0.706238
1470262432678240,-0.116333,-0.118042,-0.687622,-0.70697
1470262432699291,-0.111511,-0.117737,-0.687927,-0.70752
1470262432715774,-0.109253,-0.119202,-0.687378,-0.708191
1470262432738293,-0.110291,-0.121033,-0.686279,-0.70874
1470262432759344,-0.112732,-0.121155,-0.685303,-0.70929
1470262432775827,-0.11499,-0.120361,-0.685059,-0.70929
1470262432804373,-0.117004,-0.118286,-0.685364,-0.708984
1470262432819366,-0.119202,-0.114014,-0.685791,-0.708923
1470262432835380,-0.122375,-0.108826,-0.685913,-0.709045
1470262432858402,-0.126587,-0.102905,-0.685913,-0.709229
1470262432879419,-0.131531,-0.0968628,-0.685486,-0.709595
1470262432895935,-0.137207,-0.0909424,-0.684814,-0.7099
1470262432918456,-0.142334,-0.0841675,-0.684387,-0.710205
1470262432939497,-0.147278,-0.078125,-0.68396,-0.710266
1470262432955488,-0.1521,-0.0735474,-0.683472,-0.710205
1470262432978509,-0.157104,-0.0701294,-0.682983,-0.709961
1470262432999529,-0.161804,-0.0668335,-0.682678,-0.709473
1470262433015047,-0.165833,-0.0633545,-0.682495,-0.709106
1470262433038063,-0.169434,-0.0600586,-0.682129,-0.708862
1470262433059582,-0.172974,-0.0571289,-0.681519,-0.708862
1470262433075096,-0.175354,-0.0543823,-0.680664,-0.70929
1470262433098140,-0.177185,-0.0512695,-0.679932,-0.709778
1470262433120638,-0.178772,-0.0481567,-0.679504,-0.710022
1470262433135150,-0.180481,-0.0453491,-0.679077,-0.710205
1470262433158171,-0.182007,-0.0421753,-0.67865,-0.710388
1470262433181191,-0.182983,-0.0388794,-0.67865,-0.710327
1470262433195204,-0.18335,-0.0353394,-0.678711,-0.710388
1470262433218237,-0.183533,-0.0314941,-0.678955,-0.710266
1470262433246781,-0.182678,-0.0267944,-0.679749,-0.7099
1470262433255265,-0.181152,-0.0227661,-0.680664,-0.709534
1470262433278279,-0.18042,-0.0206909,-0.681396,-0.709045
1470262433300799,-0.180176,-0.0198364,-0.681824,-0.70874
1470262433321873,-0.17981,-0.0193481,-0.682068,-0.708679
1470262433338332,-0.178711,-0.0188599,-0.682312,-0.70874
1470262433360852,-0.176941,-0.0186768,-0.682373,-0.709045
1470262433375365,-0.17511,-0.0194702,-0.682251,-0.709656
1470262433398419,-0.173828,-0.0211792,-0.681824,-0.710327
1470262433420906,-0.172241,-0.0229492,-0.680969,-0.711487
1470262433441943,-0.169861,-0.0247803,-0.680176,-0.712708
1470262433458440,-0.165955,-0.0256348,-0.679382,-0.714355
1470262433480961,-0.161499,-0.0264282,-0.678467,-0.716248
1470262433501985,-0.15686,-0.027771,-0.677368,-0.718262
1470262433518494,-0.152588,-0.0300293,-0.676208,-0.720154
1470262433541014,-0.148376,-0.0321655,-0.675049,-0.722046
1470262433562032,-0.143799,-0.0333862,-0.673645,-0.724243
1470262433578548,-0.138489,-0.0339355,-0.672607,-0.726196
1470262433600567,-0.132324,-0.0344238,-0.671814,-0.728027
1470262433622087,-0.126709,-0.0355835,-0.670776,-0.72998
1470262433638102,-0.122681,-0.0384521,-0.669312,-0.731812
1470262433660634,-0.12085,-0.0432129,-0.667786,-0.733276
1470262433682213,-0.119385,-0.0480347,-0.666321,-0.734558
1470262433698157,-0.118225,-0.0518799,-0.665833,-0.734924
1470262433720676,-0.117554,-0.0557251,-0.666321,-0.734314
1470262433741694,-0.116882,-0.0596924,-0.66687,-0.733582
1470262433758710,-0.116699,-0.0638428,-0.667175,-0.733032
1470262433780729,-0.116882,-0.0682373,-0.667053,-0.732666
1470262433801763,-0.116638,-0.0716553,-0.666382,-0.732971
1470262433818264,-0.116089,-0.0734863,-0.665466,-0.733704
1470262433840783,-0.115051,-0.0739136,-0.664673,-0.734558
1470262433861802,-0.113281,-0.0736084,-0.663879,-0.735596
1470262433878322,-0.111694,-0.0737305,-0.663147,-0.736511
1470262433900837,-0.110352,-0.0743408,-0.662598,-0.737122
1470262433921952,-0.109375,-0.0758667,-0.662109,-0.737549
1470262433938371,-0.108521,-0.0777588,-0.66156,-0.737976
1470262433960891,-0.107178,-0.0795898,-0.660706,-0.738708
1470262433981963,-0.105103,-0.0811768,-0.659851,-0.739624
1470262433998427,-0.102783,-0.0825195,-0.659119,-0.740479
1470262434020445,-0.100647,-0.0841064,-0.658203,-0.741394
1470262434042965,-0.0983276,-0.0860596,-0.657227,-0.74231
1470262434058478,-0.0958862,-0.0874023,-0.65625,-0.743408
1470262434080999,-0.0933228,-0.0882568,-0.655212,-0.744507
1470262434103519,-0.0906982,-0.088623,-0.654297,-0.745605
1470262434117532,-0.0884399,-0.0890503,-0.653381,-0.746643
1470262434140555,-0.0864868,-0.0895386,-0.652466,-0.747559
1470262434163075,-0.085022,-0.0903931,-0.651611,-0.748413
1470262434177586,-0.0837402,-0.0911865,-0.650818,-0.749146
1470262434200608,-0.0827026,-0.0918579,-0.650146,-0.749756
1470262434223127,-0.081665,-0.0923462,-0.649719,-0.750183
1470262434237640,-0.0810547,-0.0930786,-0.649597,-0.750244
1470262434260661,-0.0808105,-0.093811,-0.649475,-0.750305
1470262434283189,-0.0809937,-0.0942383,-0.649414,-0.750244
1470262434297694,-0.0814209,-0.0947266,-0.649658,-0.75
1470262434320715,-0.0817871,-0.0950317,-0.650024,-0.749573
1470262434343234,-0.0822144,-0.0951538,-0.650635,-0.748962
1470262434357747,-0.0827026,-0.0949707,-0.651245,-0.748413
1470262434388277,-0.083374,-0.0948486,-0.652039,-0.74762
1470262434403289,-0.0838013,-0.0944824,-0.652954,-0.746826
1470262434417331,-0.0841675,-0.0942383,-0.653931,-0.745972
1470262434440823,-0.0848389,-0.0944214,-0.654907,-0.745056
1470262434469380,-0.0855103,-0.0949097,-0.655884,-0.744019
1470262434478356,-0.0859985,-0.09552,-0.656921,-0.743042
1470262434500876,-0.0861206,-0.0960083,-0.657959,-0.741943
1470262434523396,-0.0859985,-0.0966797,-0.65918,-0.740845
1470262434551922,-0.0858765,-0.0975342,-0.660461,-0.739624
1470262434560930,-0.0857544,-0.0986328,-0.661621,-0.738403
1470262434589518,-0.0853882,-0.0997925,-0.66272,-0.737305
1470262434604493,-0.0846558,-0.101074,-0.66394,-0.736145
1470262434620984,-0.0838623,-0.102417,-0.665283,-0.734802
1470262434643505,-0.0831299,-0.104126,-0.666626,-0.733459
1470262434664523,-0.0823975,-0.106079,-0.667969,-0.732056
1470262434680537,-0.0814819,-0.108154,-0.66925,-0.730652
1470262434703058,-0.0800781,-0.110046,-0.670349,-0.729492
1470262434724577,-0.0783081,-0.111694,-0.671326,-0.728577
1470262434740591,-0.076416,-0.112915,-0.672058,-0.727905
1470262434763112,-0.0742798,-0.113708,-0.672668,-0.727417
1470262434784632,-0.0722046,-0.114502,-0.673279,-0.726929
1470262434800646,-0.0700073,-0.115479,-0.673889,-0.72644
1470262434823165,-0.067749,-0.116394,-0.674316,-0.726135
1470262434844186,-0.0654297,-0.117615,-0.6745,-0.725952
1470262434860699,-0.0632324,-0.119202,-0.674561,-0.725891
1470262434883220,-0.0612183,-0.12085,-0.674377,-0.725891
1470262434905740,-0.0591431,-0.12207,-0.674133,-0.726135
1470262434920754,-0.0567627,-0.122803,-0.673889,-0.726379
1470262434943274,-0.0542603,-0.123474,-0.673828,-0.726563
1470262434964293,-0.0518188,-0.123962,-0.673828,-0.726624
1470262434980807,-0.0496826,-0.124695,-0.673828,-0.726685
1470262435003327,-0.0481567,-0.125793,-0.673584,-0.726807
1470262435025850,-0.0469971,-0.127014,-0.67334,-0.726929
1470262435040863,-0.0463257,-0.127747,-0.673157,-0.72699
1470262435063383,-0.0459595,-0.127808,-0.673279,-0.726868
1470262435085902,-0.0458984,-0.127563,-0.673767,-0.726501
1470262435100916,-0.0457153,-0.126953,-0.674438,-0.725952
1470262435123435,-0.0458374,-0.126953,-0.675049,-0.725403
1470262435145989,-0.0465088,-0.127441,-0.675476,-0.724854
1470262435159968,-0.0477295,-0.127991,-0.67572,-0.724426
1470262435183488,-0.048645,-0.128235,-0.675903,-0.724182
1470262435206009,-0.0491943,-0.12793,-0.676208,-0.723877
1470262435220022,-0.0493774,-0.127075,-0.676575,-0.723694
1470262435243079,-0.0492554,-0.126465,-0.676941,-0.72345
1470262435265570,-0.0493164,-0.126465,-0.677246,-0.723145
1470262435280076,-0.0493774,-0.127563,-0.677429,-0.722839
1470262435303096,-0.0495605,-0.12915,-0.677246,-0.722656
1470262435325617,-0.0501709,-0.130859,-0.676636,-0.7229
1470262435340130,-0.0507202,-0.132141,-0.675903,-0.723328
1470262435363150,-0.0510254,-0.132629,-0.675354,-0.723694
1470262435385670,-0.0507202,-0.132385,-0.675049,-0.724121
1470262435400183,-0.050293,-0.13208,-0.674744,-0.724426
1470262435423216,-0.0501099,-0.132141,-0.674316,-0.724854
1470262435445729,-0.0501709,-0.132629,-0.673645,-0.725403
1470262435466744,-0.050293,-0.133179,-0.672668,-0.726196
1470262435483258,-0.050293,-0.133423,-0.671692,-0.727051
1470262435505779,-0.0501099,-0.133118,-0.670715,-0.728027
1470262435526797,-0.0498047,-0.132446,-0.669922,-0.728882
1470262435543312,-0.0494995,-0.131653,-0.669128,-0.729797
1470262435573339,-0.0494385,-0.130981,-0.668274,-0.730713
1470262435586853,-0.0496826,-0.13031,-0.667419,-0.731567
1470262435603366,-0.0499878,-0.129639,-0.666748,-0.732239
1470262435625887,-0.050293,-0.129028,-0.666321,-0.732727
1470262435646940,-0.0508423,-0.128601,-0.665955,-0.733154
1470262435663420,-0.0514526,-0.128235,-0.665649,-0.733459
1470262435685940,-0.052063,-0.128113,-0.665527,-0.733521
1470262435707004,-0.0528564,-0.12793,-0.665588,-0.733459
1470262435723473,-0.0534668,-0.127869,-0.665833,-0.733215
1470262435745994,-0.0540771,-0.127869,-0.66626,-0.732788
1470262435767012,-0.0547485,-0.128052,-0.666748,-0.732239
1470262435783528,-0.0552979,-0.128357,-0.667236,-0.731689
1470262435805548,-0.0558472,-0.128662,-0.667664,-0.731201
1470262435827066,-0.0560913,-0.128967,-0.668152,-0.730713
1470262435843081,-0.0561523,-0.129089,-0.668518,-0.730347
1470262435865602,-0.0561523,-0.12915,-0.668884,-0.72998
1470262435887220,-0.0559082,-0.129211,-0.669189,-0.729675
1470262435903135,-0.055481,-0.129211,-0.669556,-0.729431
1470262435925701,-0.0551147,-0.129456,-0.6698,-0.729187
1470262435948178,-0.0547485,-0.129517,-0.670105,-0.728943
1470262435963189,-0.0542603,-0.129517,-0.670349,-0.728699
1470262435985711,-0.053833,-0.129456,-0.670532,-0.728577
1470262436008229,-0.0534058,-0.129333,-0.670715,-0.728455
1470262436023243,-0.0527954,-0.129089,-0.670959,-0.728333
1470262436045764,-0.0521851,-0.128845,-0.671204,-0.728149
1470262436068320,-0.0517578,-0.128662,-0.671387,-0.728088
1470262436082797,-0.0515137,-0.12854,-0.671448,-0.728088
1470262436105820,-0.0510864,-0.128235,-0.671509,-0.728088
1470262436128337,-0.0505371,-0.127808,-0.671631,-0.728088
1470262436142851,-0.0499268,-0.127258,-0.671692,-0.728149
1470262436165872,-0.0493774,-0.126831,-0.671814,-0.72821
1470262436188892,-0.0487671,-0.126587,-0.671814,-0.72821
1470262436202905,-0.0482178,-0.126587,-0.671753,-0.728333
1470262436225938,-0.0476685,-0.126831,-0.671631,-0.728455
1470262436248445,-0.0471191,-0.126953,-0.671509,-0.728577
1470262436262459,-0.0463867,-0.126892,-0.671326,-0.728821
1470262436285978,-0.0455933,-0.126831,-0.671082,-0.729065
1470262436308499,-0.0449219,-0.126831,-0.670776,-0.729431
1470262436322512,-0.0443115,-0.126892,-0.670471,-0.729736
1470262436345532,-0.0437622,-0.126892,-0.670227,-0.72998
1470262436368553,-0.043335,-0.126892,-0.669922,-0.730286
1470262436382566,-0.0429688,-0.12677,-0.669617,-0.730591
1470262436405587,-0.0425415,-0.126587,-0.669495,-0.730774
1470262436428107,-0.0419312,-0.126587,-0.669495,-0.730835
1470262436449626,-0.0413208,-0.126648,-0.669434,-0.730896
1470262436465642,-0.0407715,-0.126831,-0.669434,-0.730896
1470262436495667,-0.0401001,-0.127014,-0.669434,-0.730896
1470262436510681,-0.0393677,-0.127136,-0.669373,-0.730957
1470262436533200,-0.0385132,-0.126953,-0.669373,-0.731018
1470262436548214,-0.0372925,-0.126526,-0.669373,-0.731201
1470262436569233,-0.0359497,-0.125977,-0.669373,-0.731384
1470262436585750,-0.0343628,-0.125488,-0.669373,-0.731506
1470262436608270,-0.0328369,-0.125244,-0.669373,-0.731628
1470262436629287,-0.0314941,-0.125427,-0.66925,-0.73175
1470262436645802,-0.0306396,-0.125977,-0.669067,-0.731873
1470262436668322,-0.0297241,-0.126404,-0.668884,-0.731995
1470262436689356,-0.0286865,-0.126648,-0.668884,-0.731995
1470262436705857,-0.0276489,-0.126648,-0.668945,-0.731995
1470262436728377,-0.0267334,-0.126709,-0.668945,-0.732056
1470262436749397,-0.0258789,-0.126892,-0.668884,-0.732056
1470262436765911,-0.0252075,-0.127197,-0.668823,-0.732056
1470262436788430,-0.0246582,-0.127502,-0.66864,-0.732239
1470262436809462,-0.0240479,-0.127869,-0.668396,-0.732422
1470262436825964,-0.0233765,-0.128052,-0.668152,-0.732605
1470262436848483,-0.0227051,-0.128052,-0.667847,-0.73291
1470262436871005,-0.0222778,-0.12793,-0.667542,-0.733276
1470262436885517,-0.0219727,-0.127625,-0.667175,-0.733643
1470262436908038,-0.0216064,-0.127258,-0.666809,-0.734009
1470262436930573,-0.0211792,-0.12677,-0.666443,-0.734436
1470262436945071,-0.020874,-0.126343,-0.666077,-0.734863
1470262436968091,-0.0206299,-0.125977,-0.66571,-0.735229
1470262436990611,-0.0204468,-0.125488,-0.665466,-0.735596
1470262437005625,-0.0200195,-0.124451,-0.665344,-0.735901
1470262437028145,-0.0194702,-0.12262,-0.665283,-0.736267
1470262437050666,-0.019043,-0.1203,-0.665283,-0.736633
1470262437065180,-0.0189209,-0.118591,-0.665344,-0.736877
1470262437088200,-0.0186768,-0.117188,-0.665649,-0.736877
1470262437110719,-0.0189209,-0.116272,-0.665588,-0.737
1470262437125232,-0.020752,-0.116333,-0.664978,-0.737488
1470262437148253,-0.0230103,-0.116516,-0.664368,-0.737976
1470262437170773,-0.0253296,-0.11676,-0.664124,-0.738098
1470262437185288,-0.0274048,-0.116882,-0.664368,-0.737793
1470262437192795,-0.0293579,-0.117126,-0.664673,-0.737366
1470262437213842,-0.0314941,-0.11792,-0.664734,-0.737122
1470262437236332,-0.0333252,-0.118713,-0.664734,-0.736877
1470262437252846,-0.0343018,-0.119019,-0.664978,-0.736633
1470262437273865,-0.0346069,-0.119141,-0.665405,-0.736145
1470262437296386,-0.0339355,-0.119995,-0.666138,-0.735413
1470262437312901,-0.0336914,-0.120422,-0.66571,-0.735718
1470262437333919,-0.0332642,-0.120422,-0.666382,-0.735107
1470262437356439,-0.0319824,-0.120117,-0.667114,-0.734619
1470262437372456,-0.0307617,-0.119324,-0.667725,-0.734192
1470262437393973,-0.0300903,-0.11853,-0.668213,-0.733887
1470262437415994,-0.0303955,-0.117737,-0.66864,-0.733643
1470262437440015,-0.0313721,-0.117737,-0.668701,-0.733521
1470262437453528,-0.0322266,-0.117798,-0.668518,-0.733643
1470262437476048,-0.0325928,-0.117798,-0.668396,-0.733765
1470262437492563,-0.0328979,-0.11792,-0.66803,-0.73407
1470262437513582,-0.0331421,-0.118408,-0.667175,-0.734741
1470262437536102,-0.0342407,-0.119873,-0.666321,-0.735229
1470262437552616,-0.0355225,-0.12207,-0.665527,-0.735535
1470262437573650,-0.0367432,-0.124146,-0.664978,-0.735596
1470262437596187,-0.0378418,-0.12561,-0.664612,-0.735657
1470262437612670,-0.0384521,-0.126465,-0.664673,-0.735413
1470262437641196,-0.0390015,-0.12677,-0.664795,-0.735229
1470262437656211,-0.039856,-0.126526,-0.664734,-0.735229
1470262437672724,-0.0406494,-0.12616,-0.664673,-0.735352
1470262437693743,-0.0413208,-0.125977,-0.664917,-0.735107
1470262437716263,-0.0411377,-0.125488,-0.664795,-0.735352
1470262437732778,-0.0407715,-0.124817,-0.664307,-0.735901
1470262437753797,-0.039856,-0.124023,-0.663513,-0.736816
1470262437776316,-0.038269,-0.122559,-0.66272,-0.737854
1470262437798837,-0.0363159,-0.121155,-0.661743,-0.739075
1470262437813850,-0.0341797,-0.120178,-0.660522,-0.740356
1470262437836370,-0.0325928,-0.119934,-0.659241,-0.741699
1470262437854387,-0.0315552,-0.120605,-0.657654,-0.742981
1470262437873905,-0.0306396,-0.121338,-0.656006,-0.744385
1470262437896425,-0.0299683,-0.122253,-0.654358,-0.745667
1470262437921447,-0.0292358,-0.12323,-0.652832,-0.746887
1470262437933458,-0.0282593,-0.123901,-0.651489,-0.747986
1470262437955979,-0.0275879,-0.124695,-0.650269,-0.748962
1470262437973994,-0.0272827,-0.12561,-0.64917,-0.749756
1470262437993513,-0.027832,-0.126648,-0.648132,-0.750488
1470262438016034,-0.0288696,-0.127502,-0.647156,-0.751099
1470262438034050,-0.0307617,-0.128052,-0.646362,-0.751648
1470262438054068,-0.0327148,-0.127686,-0.645813,-0.752075
1470262438076102,-0.0343628,-0.126709,-0.645569,-0.75238
1470262438094105,-0.0361328,-0.125854,-0.645447,-0.752563
1470262438113683,-0.038269,-0.12561,-0.645264,-0.752686
1470262438136140,-0.0406494,-0.125854,-0.644836,-0.752869
1470262438154157,-0.0432739,-0.126404,-0.644409,-0.752991
1470262438173679,-0.0455933,-0.126831,-0.64386,-0.753235
1470262438199249,-0.0472412,-0.127014,-0.643188,-0.753662
1470262438214271,-0.0483398,-0.126709,-0.642517,-0.754211
1470262438233750,-0.0490112,-0.126221,-0.641785,-0.754883
1470262438256267,-0.0495605,-0.125793,-0.64093,-0.755676
1470262438274294,-0.0500488,-0.125488,-0.639954,-0.756531
1470262438293781,-0.0502319,-0.125366,-0.638916,-0.757385
1470262438316303,-0.0505371,-0.125427,-0.637756,-0.758301
1470262438334318,-0.0506592,-0.125488,-0.636658,-0.759216
1470262438353835,-0.0507202,-0.125488,-0.635498,-0.760193
1470262438376355,-0.0512085,-0.12561,-0.634338,-0.761108
1470262438394372,-0.0519409,-0.125793,-0.633301,-0.761902
1470262438415391,-0.0527344,-0.125793,-0.632629,-0.762451
1470262438436412,-0.0535278,-0.125427,-0.632202,-0.762756
1470262438453927,-0.0540771,-0.124695,-0.631958,-0.763062
1470262438476447,-0.0541382,-0.123901,-0.631836,-0.763245
1470262438495964,-0.0535889,-0.12323,-0.631714,-0.76355
1470262438513980,-0.0526733,-0.122498,-0.631531,-0.763855
1470262438534998,-0.0515137,-0.121826,-0.631287,-0.764221
1470262438556517,-0.0505371,-0.121521,-0.63092,-0.764648
1470262438574033,-0.0498047,-0.12146,-0.630432,-0.765137
1470262438595052,-0.0491943,-0.121643,-0.629944,-0.765564
1470262438616071,-0.0484619,-0.121765,-0.629639,-0.765808
1470262438634087,-0.0475464,-0.12207,-0.629395,-0.766052
1470262438655106,-0.0466919,-0.122437,-0.62915,-0.766235
1470262438676125,-0.0458374,-0.122864,-0.628845,-0.766418
1470262438699147,-0.0449219,-0.123169,-0.628601,-0.766663
1470262438715160,-0.0438232,-0.123108,-0.628357,-0.766907
1470262438736179,-0.0418091,-0.122009,-0.628052,-0.767456
1470262438754696,-0.0401001,-0.120972,-0.62793,-0.767822
1470262438777717,-0.0374756,-0.120239,-0.627563,-0.768372
1470262438796233,-0.0358887,-0.118469,-0.627808,-0.768494
1470262438814250,-0.0343628,-0.118408,-0.627197,-0.769104
1470262438836769,-0.0330811,-0.117126,-0.627625,-0.768982
1470262438856287,-0.032959,-0.116943,-0.627441,-0.769165
1470262438881810,-0.0322266,-0.116333,-0.62793,-0.768921
1470262438896826,-0.0323486,-0.115051,-0.628479,-0.768616
1470262438916341,-0.0324707,-0.115112,-0.628296,-0.768799
1470262438934358,-0.0321045,-0.115173,-0.628235,-0.768799
1470262438956877,-0.0303955,-0.114319,-0.628235,-0.769043
1470262438976395,-0.0298462,-0.112183,-0.628479,-0.769165
1470262438994411,-0.02771,-0.111267,-0.62793,-0.769836
1470262439021436,-0.0274658,-0.110596,-0.627441,-0.770325
1470262439036449,-0.0273438,-0.109436,-0.626892,-0.770935
1470262439053964,-0.0261841,-0.107544,-0.626343,-0.771667
1470262439076484,-0.0253296,-0.105835,-0.625732,-0.772461
1470262439105009,-0.0244141,-0.103943,-0.625,-0.773315
1470262439114018,-0.0244141,-0.102661,-0.623596,-0.774658
1470262439136538,-0.029541,-0.104675,-0.621155,-0.776184
1470262439163564,-0.0357666,-0.108582,-0.618408,-0.777527
1470262439186084,-0.0390015,-0.109558,-0.61676,-0.778564
1470262439197093,-0.0383301,-0.106689,-0.61554,-0.779968
1470262439219113,-0.0339355,-0.100708,-0.614685,-0.781677
1470262439239132,-0.0252075,-0.0908813,-0.61554,-0.782471
1470262439256646,-0.0165405,-0.0814819,-0.615295,-0.783997
1470262439276163,-0.0107422,-0.0734863,-0.612976,-0.786621
1470262439301686,-0.0078125,-0.0683594,-0.609924,-0.789551
1470262439324207,-0.00665283,-0.0650024,-0.606567,-0.792419
1470262439336217,-0.00506592,-0.0621338,-0.602539,-0.795715
1470262439358739,-0.0032959,-0.0599976,-0.598145,-0.799194
1470262439384761,-0.000793457,-0.0581665,-0.59436,-0.802124
1470262439397773,0.00286865,-0.0564575,-0.591309,-0.804504
1470262439418792,0.00665283,-0.0549316,-0.588806,-0.806458
1470262439436808,0.00720215,-0.0563965,-0.587158,-0.807556
1470262439465333,0.00354004,-0.0596313,-0.58606,-0.808105
1470262439478845,-0.00201416,-0.0634155,-0.584778,-0.808777
1470262439496862,-0.0045166,-0.0646362,-0.584167,-0.809082
1470262439517880,-0.00286865,-0.0628052,-0.584351,-0.809143
1470262439546407,0.000305176,-0.0595703,-0.584961,-0.808899
1470262439555915,0.00262451,-0.057312,-0.585876,-0.808472
1470262439578435,0.00268555,-0.057373,-0.586731,-0.8078
1470262439600956,0.000427246,-0.0596924,-0.587402,-0.807129
1470262439615970,-0.00195313,-0.0620728,-0.588623,-0.806091
1470262439638489,-0.00305176,-0.0640259,-0.59021,-0.804749
1470262439661010,-0.00469971,-0.065979,-0.592407,-0.802979
1470262439675522,-0.00512695,-0.0684814,-0.594849,-0.800964
1470262439697547,-0.00616455,-0.0700073,-0.597046,-0.799194
1470262439719593,-0.00616455,-0.0725708,-0.599121,-0.797424
1470262439743083,-0.00286865,-0.0697021,-0.600647,-0.796509
1470262439758597,-0.000732422,-0.0681763,-0.60199,-0.795593
1470262439779616,0.00280762,-0.0656738,-0.603149,-0.794983
1470262439796130,0.00671387,-0.0632935,-0.603638,-0.794739
1470262439826158,0.00866699,-0.0621338,-0.604248,-0.794373
1470262439847177,0.0088501,-0.062561,-0.604309,-0.794312
1470262439855685,0.00817871,-0.0635376,-0.604187,-0.794312
1470262439878204,0.0078125,-0.06427,-0.604248,-0.794189
1470262439892717,0.00805664,-0.0645752,-0.604614,-0.793884
1470262439915740,0.00854492,-0.0645752,-0.605042,-0.793579
1470262439938258,0.00891113,-0.0646362,-0.605347,-0.793335
1470262439952771,0.00921631,-0.0645752,-0.60553,-0.793213
1470262439975793,0.00939941,-0.0635376,-0.605896,-0.79303
1470262439998312,0.00964355,-0.0629883,-0.606323,-0.792725
1470262440026838,0.0101929,-0.0631104,-0.606262,-0.792725
1470262440035846,0.0108643,-0.0627441,-0.606384,-0.792664
1470262440058366,0.0113525,-0.0617676,-0.606506,-0.792664
1470262440072881,0.0134277,-0.0603638,-0.606934,-0.792358
1470262440101905,0.0148926,-0.0591431,-0.6073,-0.792175
1470262440118421,0.0163574,-0.0586548,-0.6073,-0.792175
1470262440139438,0.017334,-0.0576172,-0.607361,-0.792236
1470262440155954,0.0181885,-0.0570679,-0.607239,-0.792297
1470262440178474,0.0184937,-0.0565186,-0.607117,-0.79248
1470262440199493,0.0178223,-0.0567017,-0.60675,-0.792725
1470262440216008,0.0175171,-0.0570068,-0.606323,-0.79303
1470262440238528,0.0176392,-0.0563965,-0.606384,-0.79303
1470262440259547,0.0162354,-0.055542,-0.606445,-0.793091
1470262440276062,0.0152588,-0.0558472,-0.60614,-0.793274
1470262440298582,0.0148926,-0.0563354,-0.605713,-0.793579
1470262440319601,0.0149536,-0.0561523,-0.60553,-0.793762
1470262440336115,0.0153809,-0.0557251,-0.605469,-0.793823
1470262440358636,0.0160522,-0.0551758,-0.605347,-0.793945
1470262440379656,0.0166016,-0.0548096,-0.605225,-0.794067
1470262440396170,0.0169678,-0.0547485,-0.605042,-0.794189
1470262440418189,0.0172729,-0.0547485,-0.604919,-0.79425
1470262440439708,0.0175171,-0.0546265,-0.604919,-0.794312
1470262440455724,0.0175171,-0.0546265,-0.604919,-0.794312
1470262440478244,0.0172729,-0.0548096,-0.604797,-0.794373
1470262440499294,0.0172119,-0.0550537,-0.604675,-0.794434
1470262440515777,0.0174561,-0.0549927,-0.604675,-0.794434
1470262440538798,0.0176392,-0.0547485,-0.604797,-0.794373
1470262440559316,0.0178833,-0.0545044,-0.604858,-0.794312
1470262440575831,0.0179443,-0.0544434,-0.604858,-0.794312
1470262440598351,0.0175781,-0.0545654,-0.604797,-0.794373
1470262440619370,0.0171509,-0.0546875,-0.604675,-0.794434
1470262440635886,0.0166016,-0.0549316,-0.604675,-0.794434
1470262440658405,0.015625,-0.0553589,-0.604675,-0.794434
1470262440680925,0.0142822,-0.0562134,-0.604553,-0.794495
1470262440695939,0.0136719,-0.0569458,-0.604553,-0.794434
1470262440718459,0.013855,-0.0567627,-0.604858,-0.79425
1470262440740979,0.0141602,-0.0565186,-0.605347,-0.793884
1470262440755993,0.0133057,-0.0578613,-0.60553,-0.79364
1470262440778513,0.0123291,-0.0587158,-0.605896,-0.793335
1470262440801033,0.0109863,-0.0597534,-0.60614,-0.793091
1470262440816047,0.010437,-0.0599976,-0.606567,-0.792786
1470262440838567,0.0090332,-0.0611572,-0.606689,-0.792542
1470262440861087,0.00769043,-0.062561,-0.606812,-0.792419
1470262440875101,0.00738525,-0.0628662,-0.606873,-0.792358
1470262440898621,0.00732422,-0.0628662,-0.606873,-0.792358
1470262440921141,0.00732422,-0.0628662,-0.606873,-0.792358
1470262440935154,0.0067749,-0.0627441,-0.606689,-0.79248
1470262440958174,0.00549316,-0.0629883,-0.606506,-0.792664
1470262440980694,0.00701904,-0.0620117,-0.60675,-0.79248
1470262440995207,0.00836182,-0.0606079,-0.606934,-0.792419
1470262441018229,0.00891113,-0.0599976,-0.606934,-0.79248
1470262441040748,0.00952148,-0.0594482,-0.606995,-0.79248
1470262441062338,0.010498,-0.0583496,-0.607056,-0.79248
1470262441078282,0.0115967,-0.0571289,-0.607117,-0.792542
1470262441100826,0.0125122,-0.0562134,-0.607117,-0.792603
1470262441115315,0.0127563,-0.0561523,-0.606873,-0.792786
1470262441138336,0.0126343,-0.0563965,-0.606567,-0.792969
1470262441161357,0.0126953,-0.0563965,-0.606323,-0.793213
1470262441181904,0.0132446,-0.0560303,-0.60614,-0.793274
1470262441198389,0.0143433,-0.0551758,-0.60614,-0.793335
1470262441220910,0.0151367,-0.0547485,-0.605957,-0.793518
1470262441241944,0.0153809,-0.0548096,-0.605591,-0.793762
1470262441258443,0.0150146,-0.0548096,-0.605286,-0.794006
1470262441280964,0.0143433,-0.0550537,-0.60498,-0.79425
1470262441301987,0.0135498,-0.055603,-0.604797,-0.794373
1470262441318538,0.0137329,-0.0558472,-0.604736,-0.794373
1470262441341053,0.0139771,-0.0556641,-0.604919,-0.79425
1470262441362065,0.0145264,-0.055481,-0.605042,-0.794189
1470262441378552,0.0150146,-0.055542,-0.605225,-0.794067
1470262441401071,0.0151978,-0.0557861,-0.605286,-0.794006
1470262441422090,0.015564,-0.055603,-0.605347,-0.793945
1470262441438606,0.0161133,-0.0550537,-0.605408,-0.793884
1470262441461128,0.0167236,-0.0545654,-0.605469,-0.793884
1470262441482145,0.0172729,-0.0541382,-0.60553,-0.793884
1470262441498216,0.0177612,-0.0540771,-0.605591,-0.793762
1470262441521179,0.0182495,-0.0540161,-0.605652,-0.793701
1470262441542198,0.0187988,-0.053894,-0.605652,-0.793701
1470262441558213,0.0192261,-0.053894,-0.605713,-0.793701
1470262441580733,0.0194092,-0.053894,-0.605652,-0.793762
1470262441601752,0.0195923,-0.053833,-0.60553,-0.793823
1470262441618266,0.0194702,-0.0533447,-0.605347,-0.794006
1470262441640789,0.0198364,-0.0527344,-0.605347,-0.794067
1470262441663307,0.0215454,-0.0517578,-0.605591,-0.793823
1470262441678322,0.0220337,-0.0516968,-0.605408,-0.794006
1470262441701341,0.0220947,-0.0516357,-0.605408,-0.794006
1470262441723361,0.0220947,-0.0516357,-0.605408,-0.794006
1470262441738375,0.0220337,-0.0518188,-0.605408,-0.794006
1470262441760895,0.0217896,-0.052063,-0.605286,-0.794067
1470262441783415,0.0215454,-0.0523682,-0.605103,-0.794189
1470262441797928,0.0214233,-0.0526123,-0.60498,-0.79425
1470262441820949,0.0215454,-0.0525513,-0.604919,-0.794312
1470262441850975,0.0218506,-0.0523682,-0.604858,-0.794373
1470262441857982,0.0222168,-0.052002,-0.604858,-0.794373
1470262441881003,0.0223389,-0.0516968,-0.604858,-0.794373
1470262441903523,0.0223389,-0.0516968,-0.604858,-0.794373
1470262441917536,0.0223389,-0.0516968,-0.604858,-0.794373
1470262441941057,0.0222778,-0.0516968,-0.604858,-0.794373
1470262441963577,0.022644,-0.0515137,-0.604919,-0.794373
1470262441977589,0.0232544,-0.0510254,-0.605042,-0.79425
1470262442001111,0.0238037,-0.0505981,-0.605042,-0.79425
1470262442023630,0.0241699,-0.050415,-0.605103,-0.79425
1470262442037643,0.0244141,-0.050354,-0.605164,-0.794189
1470262442060706,0.0247192,-0.0502319,-0.605286,-0.794067
1470262442083184,0.0249634,-0.0500488,-0.605408,-0.794006
1470262442097697,0.0250854,-0.0499878,-0.605469,-0.793945
1470262442120718,0.0250854,-0.0499268,-0.605469,-0.793945
1470262442143245,0.0252686,-0.0498047,-0.605591,-0.793884
1470262442164762,0.0254517,-0.0496216,-0.605713,-0.793762
1470262442180804,0.0257568,-0.0496216,-0.605896,-0.79364
1470262442203294,0.0258789,-0.0496216,-0.606018,-0.793518
1470262442224311,0.0262451,-0.0495605,-0.606079,-0.793457
1470262442240825,0.0266113,-0.0493164,-0.60614,-0.793396
1470262442263348,0.0268555,-0.0490723,-0.606201,-0.793396
1470262442284377,0.0270386,-0.0488892,-0.606262,-0.793396
1470262442300879,0.0269775,-0.0489502,-0.606262,-0.793396
1470262442323400,0.0271606,-0.0488892,-0.606323,-0.793335
1470262442344419,0.0270996,-0.0488281,-0.606323,-0.793335
1470262442360933,0.02771,-0.048584,-0.606384,-0.793213
1470262442383453,0.0285034,-0.0480347,-0.606628,-0.793091
1470262442405975,0.0281372,-0.0484619,-0.606384,-0.793274
1470262442420987,0.0280762,-0.0489502,-0.606384,-0.793213
1470262442443508,0.0283203,-0.0488892,-0.606445,-0.793152
1470262442464527,0.0290527,-0.0483398,-0.606628,-0.79303
1470262442481042,0.0293579,-0.0480957,-0.606628,-0.79303
1470262442503561,0.0296631,-0.0479736,-0.606628,-0.79303
1470262442524580,0.0299072,-0.0477905,-0.606567,-0.793091
1470262442541095,0.0299072,-0.0477295,-0.606567,-0.793091
1470262442563117,0.0296631,-0.0477905,-0.606445,-0.793152
1470262442585635,0.0292969,-0.0479126,-0.606323,-0.793274
1470262442600148,0.0289917,-0.0480957,-0.606201,-0.793335
1470262442623192,0.0289917,-0.0480957,-0.606201,-0.793335
1470262442645736,0.0289917,-0.0480957,-0.606201,-0.793335
1470262442660722,0.0289307,-0.0480957,-0.606262,-0.793335
1470262442683223,0.0291748,-0.0481567,-0.606323,-0.793274
1470262442705743,0.029541,-0.0479736,-0.606445,-0.793152
1470262442720273,0.0297852,-0.0477905,-0.606506,-0.793152
1470262442743281,0.0299683,-0.0477295,-0.606567,-0.793091
1470262442766298,0.0302734,-0.0476074,-0.606628,-0.79303
1470262442780310,0.0305786,-0.0473633,-0.60675,-0.792908
1470262442804332,0.0308838,-0.0472412,-0.606873,-0.792847
1470262442825851,0.0310669,-0.0472412,-0.606995,-0.792786
1470262442840366,0.0310669,-0.0472412,-0.606995,-0.792786
1470262442863387,0.0313721,-0.0471191,-0.607056,-0.792664
1470262442885905,0.0316772,-0.0469971,-0.607178,-0.792603
1470262442900418,0.0320435,-0.046875,-0.607239,-0.792542
1470262442923439,0.0324707,-0.0466919,-0.607361,-0.792419
1470262442945959,0.0315552,-0.0470581,-0.607422,-0.792419
1470262442960471,0.03125,-0.0477295,-0.607361,-0.792419
1470262442983492,0.0318604,-0.0477295,-0.607544,-0.792297
1470262443006013,0.0325317,-0.0471802,-0.607849,-0.792053
1470262443020526,0.032959,-0.046814,-0.607971,-0.791931
1470262443043548,0.0332031,-0.0466919,-0.608032,-0.79187
1470262443073574,0.0334473,-0.0465698,-0.608093,-0.791809
1470262443087086,0.0338135,-0.0463867,-0.608276,-0.791687
1470262443103600,0.0339355,-0.0463257,-0.608398,-0.791626
1470262443126120,0.0341187,-0.0462036,-0.608459,-0.791565
1470262443147139,0.0341187,-0.0461426,-0.608459,-0.791565
1470262443163155,0.0341187,-0.0461426,-0.608459,-0.791565
1470262443193180,0.0341187,-0.0461426,-0.608459,-0.791565
1470262443207296,0.0341187,-0.0461426,-0.608459,-0.791565
1470262443223208,0.0342407,-0.0460815,-0.608582,-0.791443
1470262443245781,0.0344238,-0.0457764,-0.608765,-0.791321
1470262443267333,0.0346069,-0.0459595,-0.608948,-0.791199
1470262443283267,0.034668,-0.0462036,-0.60907,-0.791077
1470262443305782,0.0348511,-0.0462036,-0.609253,-0.790955
1470262443327301,0.0354004,-0.0459595,-0.609436,-0.790771
1470262443343318,0.0358276,-0.0457153,-0.609619,-0.790588
1470262443365873,0.0360718,-0.0455933,-0.609863,-0.790466
1470262443386855,0.0360718,-0.0455933,-0.609863,-0.790466
1470262443403369,0.0360718,-0.0455933,-0.609863,-0.790466
1470262443433947,0.036377,-0.0454102,-0.609924,-0.790344
1470262443446939,0.0366211,-0.045166,-0.610046,-0.790283
1470262443470930,0.0368652,-0.0449829,-0.610107,-0.790222
1470262443485943,0.0369873,-0.0448608,-0.610168,-0.790161
1470262443507008,0.0371094,-0.0446777,-0.610291,-0.7901
1470262443523478,0.0372314,-0.0444946,-0.610352,-0.790039
1470262443545997,0.0374756,-0.0441895,-0.610413,-0.789978
1470262443568518,0.0375366,-0.0441895,-0.610413,-0.789978
1470262443583531,0.0373535,-0.0442505,-0.610413,-0.790039
1470262443606055,0.0371094,-0.0443726,-0.610352,-0.790039
1470262443628571,0.0369263,-0.0444946,-0.610352,-0.7901
1470262443643584,0.0369263,-0.0445557,-0.610352,-0.7901
1470262443666106,0.0370483,-0.0444336,-0.610474,-0.789978
1470262443688124,0.0372314,-0.0443115,-0.610657,-0.789856
1470262443702638,0.0372925,-0.0443115,-0.610657,-0.789856
1470262443725669,0.0371704,-0.0444336,-0.610657,-0.789856
1470262443748179,0.0368652,-0.0445557,-0.610718,-0.789795
1470262443762692,0.036499,-0.0447388,-0.610779,-0.789734
1470262443793220,0.0361938,-0.0449219,-0.610901,-0.789673
1470262443808233,0.0360718,-0.0449219,-0.611084,-0.789551
1470262443822746,0.0361938,-0.0448608,-0.611267,-0.789368
1470262443845767,0.036499,-0.0446777,-0.611511,-0.789185
1470262443868287,0.0367432,-0.0445557,-0.611694,-0.789001
1470262443889808,0.0369873,-0.0446167,-0.611877,-0.788879
1470262443905820,0.0372314,-0.0446777,-0.612061,-0.788696
1470262443935848,0.0374756,-0.0446167,-0.612244,-0.788574
1470262443942875,0.0377197,-0.0444336,-0.612427,-0.788452
1470262443965875,0.0377197,-0.0443726,-0.612427,-0.788452
1470262443988395,0.0375366,-0.0446167,-0.612549,-0.78833
1470262444002910,0.0372314,-0.0446777,-0.612671,-0.788208
1470262444025928,0.0373535,-0.0446777,-0.612854,-0.788086
1470262444048450,0.0373535,-0.0446777,-0.612854,-0.788086
1470262444069484,0.0373535,-0.0446777,-0.612854,-0.788086
1470262444085982,0.0373535,-0.0446167,-0.612854,-0.788086
1470262444108503,0.0373535,-0.0446167,-0.612854,-0.788086
1470262444129553,0.0372925,-0.0446167,-0.612854,-0.788086
1470262444146036,0.0372925,-0.0446167,-0.612854,-0.788086
1470262444168557,0.0372925,-0.0446167,-0.612854,-0.788086
1470262444189575,0.0372925,-0.0446167,-0.612854,-0.788086
1470262444206090,0.0373535,-0.0445557,-0.612854,-0.788086
1470262444228610,0.0370483,-0.0446167,-0.612854,-0.788147
1470262444249629,0.0368652,-0.0447998,-0.612793,-0.788147
1470262444266144,0.0365601,-0.0449219,-0.612793,-0.788147
1470262444288665,0.0365601,-0.0449219,-0.612793,-0.788147
1470262444309762,0.0365601,-0.0449219,-0.612793,-0.788147
1470262444325725,0.0365601,-0.0449219,-0.612793,-0.788147
1470262444348247,0.036377,-0.0449829,-0.612732,-0.788208
1470262444369747,0.0362549,-0.0450439,-0.612671,-0.788269
1470262444385756,0.0362549,-0.0450439,-0.612671,-0.788269
1470262444408772,0.0359497,-0.045105,-0.612671,-0.788269
1470262444429791,0.0354614,-0.0452271,-0.61261,-0.788391
1470262444445807,0.0356445,-0.045105,-0.612671,-0.78833
1470262444468325,0.0358887,-0.0449219,-0.612793,-0.788208
1470262444490882,0.0358887,-0.0449219,-0.612793,-0.788208
1470262444505859,0.0358887,-0.0449219,-0.612793,-0.788208
1470262444528379,0.0358276,-0.0449219,-0.612793,-0.788208
1470262444550900,0.0358887,-0.0449219,-0.612793,-0.788208
1470262444565913,0.0357056,-0.0450439,-0.61261,-0.78833
1470262444588434,0.0354614,-0.045166,-0.612671,-0.78833
1470262444610975,0.0354614,-0.045166,-0.612671,-0.78833
1470262444625466,0.0355835,-0.0449829,-0.612793,-0.788208
1470262444648487,0.0358887,-0.0447998,-0.612854,-0.788147
1470262444671007,0.0358887,-0.0447998,-0.612854,-0.788147
1470262444685020,0.0358276,-0.045166,-0.612732,-0.788208
1470262444708543,0.0359497,-0.0450439,-0.612854,-0.788147
1470262444731061,0.0361328,-0.0447998,-0.612976,-0.788086
1470262444745074,0.0363159,-0.0446167,-0.612976,-0.788025
1470262444768595,0.0366211,-0.0444336,-0.613098,-0.787964
1470262444790654,0.0369263,-0.0440674,-0.613159,-0.787903
1470262444805128,0.0372314,-0.0438232,-0.61322,-0.787903
1470262444828649,0.0372314,-0.0437622,-0.61322,-0.787903
1470262444851171,0.0372314,-0.0437622,-0.61322,-0.787903
1470262444865182,0.0372314,-0.0437622,-0.61322,-0.787903
1470262444888203,0.0372314,-0.0437622,-0.61322,-0.787903
1470262444911264,0.0372314,-0.0437622,-0.61322,-0.787903
1470262444916231,0.0372314,-0.0437622,-0.61322,-0.787903
1470262444932768,0.0372314,-0.0437622,-0.61322,-0.787903
1470262444953775,0.0372314,-0.0437622,-0.61322,-0.787903
1470262444976816,0.0372314,-0.0437622,-0.61322,-0.787903
1470262444992797,0.0372314,-0.0437622,-0.61322,-0.787903
1470262445013859,0.0372314,-0.0437622,-0.61322,-0.787903
1470262445036338,0.0372314,-0.0437012,-0.61322,-0.787903
1470262445052851,0.0372314,-0.0437012,-0.61322,-0.787903
1470262445073869,0.0372314,-0.0437012,-0.61322,-0.787903
1470262445096392,0.0372314,-0.0437012,-0.61322,-0.787903
1470262445112905,0.0372314,-0.0437012,-0.61322,-0.787903
1470262445133985,0.0372314,-0.0437012,-0.61322,-0.787903
1470262445156485,0.0372314,-0.0437012,-0.61322,-0.787903
1470262445174459,0.0372314,-0.0436401,-0.61322,-0.787903
1470262445193979,0.0372314,-0.0436401,-0.61322,-0.787903
1470262445216497,0.0372314,-0.0436401,-0.61322,-0.787903
1470262445232513,0.0372314,-0.0436401,-0.61322,-0.787903
1470262445254032,0.0374146,-0.043457,-0.61322,-0.787842
1470262445276552,0.0375977,-0.0432739,-0.613281,-0.787842
1470262445292566,0.0375977,-0.0432739,-0.613281,-0.787842
1470262445313585,0.0375977,-0.0432739,-0.613281,-0.787842
1470262445336605,0.0375366,-0.0432739,-0.613281,-0.787842
1470262445354121,0.0375366,-0.0432739,-0.613281,-0.787842
1470262445374139,0.0375366,-0.0432739,-0.613281,-0.787842
1470262445396160,0.0377197,-0.0430908,-0.613281,-0.787842
1470262445414175,0.0377197,-0.0430298,-0.613281,-0.787842
1470262445433752,0.0377197,-0.0430298,-0.613281,-0.787842
1470262445456230,0.0377197,-0.0430298,-0.613281,-0.787842
1470262445474276,0.0377197,-0.0430298,-0.613281,-0.787842
1470262445496806,0.0377197,-0.0430298,-0.613281,-0.787842
1470262445516275,0.0377197,-0.0430298,-0.613281,-0.787842
1470262445534315,0.0377197,-0.0430298,-0.613281,-0.787842
1470262445554309,0.0377197,-0.0430298,-0.613281,-0.787842
1470262445576366,0.0377197,-0.0429688,-0.613281,-0.787842
1470262445594381,0.0377197,-0.0429688,-0.613281,-0.787842
1470262445613898,0.0377197,-0.0429688,-0.613281,-0.787842
1470262445636467,0.0377197,-0.0429077,-0.613281,-0.787842
1470262445654489,0.0377197,-0.0429077,-0.613281,-0.787842
1470262445681564,0.0377808,-0.0429077,-0.613281,-0.787842
1470262445696616,0.0377808,-0.0429077,-0.613281,-0.787842
1470262445714041,0.0377808,-0.0429077,-0.613281,-0.787842
1470262445734089,0.0377808,-0.0429077,-0.613281,-0.787842
1470262445756579,0.0377808,-0.0429077,-0.613281,-0.787842
1470262445774595,0.0377197,-0.0429077,-0.613281,-0.787842
1470262445794112,0.0377808,-0.0429077,-0.613281,-0.787842
1470262445824139,0.0377808,-0.0428467,-0.613281,-0.787842
1470262445834150,0.0376587,-0.0429688,-0.613281,-0.787842
1470262445853691,0.0376587,-0.0429688,-0.613281,-0.787842
1470262445876690,0.0376587,-0.0429688,-0.613281,-0.787842
1470262445894237,0.0376587,-0.0429688,-0.613281,-0.787842
1470262445914326,0.0377197,-0.0429688,-0.613281,-0.787842
1470262445936306,0.0377197,-0.0429077,-0.613281,-0.787842
1470262445954257,0.0377197,-0.0429077,-0.613281,-0.787842
1470262445973775,0.0377197,-0.0429077,-0.613281,-0.787842
1470262445996348,0.0377197,-0.0429077,-0.613281,-0.787842
1470262446014311,0.0377197,-0.0429077,-0.613281,-0.787842
1470262446042836,0.0377197,-0.0429077,-0.613281,-0.787842
1470262446056365,0.0377197,-0.0429077,-0.613281,-0.787842
1470262446074366,0.0377197,-0.0428467,-0.613281,-0.787842
1470262446095383,0.0375366,-0.0429688,-0.61322,-0.787903
1470262446116403,0.0374146,-0.0430908,-0.613159,-0.787964
1470262446134962,0.0374146,-0.0430908,-0.613159,-0.787964
1470262446156938,0.0374146,-0.0430908,-0.613159,-0.787903
1470262446176456,0.0374146,-0.0430908,-0.613159,-0.787964
1470262446194478,0.0374146,-0.0430908,-0.613159,-0.787964
1470262446215491,0.0374146,-0.0430908,-0.613159,-0.787964
1470262446244042,0.0374146,-0.0430908,-0.613159,-0.787964
1470262446254526,0.0374146,-0.0430298,-0.613159,-0.787964
1470262446275069,0.0374146,-0.0430298,-0.613159,-0.787964
1470262446296601,0.0374146,-0.0430298,-0.613159,-0.787964
1470262446314703,0.0374146,-0.0430298,-0.613159,-0.787964
1470262446335598,0.0374146,-0.0430298,-0.613159,-0.787964
1470262446356617,0.0374146,-0.0429688,-0.613159,-0.787964
1470262446374633,0.0374146,-0.0429688,-0.613159,-0.787964
1470262446396654,0.0374146,-0.0429688,-0.613159,-0.787964
1470262446416219,0.0375977,-0.0428467,-0.61322,-0.787903
1470262446434187,0.0375977,-0.0428467,-0.61322,-0.787903
1470262446456775,0.0375977,-0.0428467,-0.61322,-0.787903
1470262446476242,0.0375977,-0.0428467,-0.61322,-0.787903
1470262446494241,0.0375366,-0.0430298,-0.613281,-0.787842
1470262446516792,0.0374756,-0.0432739,-0.613403,-0.787781
1470262446536280,0.0376587,-0.0435791,-0.613525,-0.787659
1470262446554295,0.0377808,-0.0438843,-0.61377,-0.787415
1470262446576815,0.0379028,-0.0441895,-0.614197,-0.787048
1470262446596333,0.0377197,-0.0446777,-0.614502,-0.786804
1470262446614354,0.0368042,-0.0454102,-0.614502,-0.786804
1470262446636869,0.0360718,-0.0463867,-0.614624,-0.786682
