timestamp,roll,pitch,yaw
1470246978878573,-0.259277,-0.0360759,-0.574516
1470246978901093,-0.259277,-0.0360759,-0.574516
1470246978923113,-0.259397,-0.0361105,-0.574518
1470246978938627,-0.259397,-0.0361105,-0.574518
1470246978961147,-0.259397,-0.0361105,-0.574518
1470246978976161,-0.259397,-0.0361105,-0.574518
1470246978998681,-0.258894,-0.0360701,-0.574388
1470246979020701,-0.258894,-0.0360701,-0.574388
1470246979038717,-0.258929,-0.035954,-0.574404
1470246979058240,-0.258929,-0.035954,-0.574404
1470246979080755,-0.258929,-0.035954,-0.574404
1470246979095768,-0.258686,-0.0358691,-0.574265
1470246979118289,-0.258493,-0.0356658,-0.57417
1470246979140809,-0.258493,-0.0356658,-0.57417
1470246979157323,-0.258493,-0.0356658,-0.57417
1470246979178344,-0.258493,-0.0356658,-0.57417
1470246979200863,-0.258212,-0.0352962,-0.573955
1470246979217378,-0.257811,-0.0348922,-0.573737
1470246979238396,-0.257811,-0.0348922,-0.573737
1470246979260917,-0.257811,-0.0348922,-0.573737
1470246979277431,-0.257811,-0.0348922,-0.573737
1470246979298451,-0.25753,-0.0345227,-0.573522
1470246979322471,-0.25753,-0.0345227,-0.573522
1470246979338986,-0.25753,-0.0345227,-0.573522
1470246979366011,-0.25753,-0.0345227,-0.573522
1470246979381024,-0.257685,-0.0344411,-0.57354
1470246979397539,-0.257283,-0.0340372,-0.573322
1470246979418558,-0.257283,-0.0340372,-0.573322
1470246979449085,-0.257404,-0.0340717,-0.573324
1470246979457593,-0.257404,-0.0340717,-0.573324
1470246979478612,-0.257404,-0.0340717,-0.573324
1470246979501131,-0.257404,-0.0340717,-0.573324
1470246979518648,-0.257438,-0.0339556,-0.57334
1470246979538665,-0.257438,-0.0339556,-0.57334
1470246979563688,-0.257438,-0.0339556,-0.57334
1470246979578701,-0.257438,-0.0339556,-0.57334
1470246979598220,-0.257558,-0.0339901,-0.573342
1470246979620739,-0.257558,-0.0339901,-0.573342
1470246979646263,-0.257558,-0.0339901,-0.573342
1470246979658274,-0.257593,-0.033874,-0.573358
1470246979680794,-0.257593,-0.033874,-0.573358
1470246979698810,-0.257593,-0.033874,-0.573358
1470246979718328,-0.257507,-0.0337234,-0.573372
1470246979740850,-0.257507,-0.0337234,-0.573372
1470246979758864,-0.257507,-0.0337234,-0.573372
1470246979778381,-0.257628,-0.0337579,-0.573374
1470246979800901,-0.257662,-0.0336418,-0.573389
1470246979818917,-0.257662,-0.0336418,-0.573389
1470246979838436,-0.257662,-0.0336418,-0.573389
1470246979860956,-0.257662,-0.0336418,-0.573389
1470246979878971,-0.257697,-0.0335257,-0.573405
1470246979898489,-0.257697,-0.0335257,-0.573405
1470246979921008,-0.257732,-0.0334096,-0.573421
1470246979939025,-0.257852,-0.0334441,-0.573423
1470246979958547,-0.257837,-0.0334466,-0.573394
1470246979981062,-0.257837,-0.0334466,-0.573394
1470246979998579,-0.257871,-0.0333306,-0.57341
1470246980018596,-0.257884,-0.0333124,-0.573304
1470246980041117,-0.257884,-0.0333124,-0.573304
1470246980066140,-0.257884,-0.0333124,-0.573304
1470246980078650,-0.257764,-0.0332779,-0.573302
1470246980101170,-0.257678,-0.0331273,-0.573316
1470246980126194,-0.257796,-0.0331462,-0.573183
1470246980139705,-0.257796,-0.0331462,-0.573183
1470246980161225,-0.257796,-0.0331462,-0.573183
1470246980178741,-0.257831,-0.0330301,-0.573199
1470246980199759,-0.257831,-0.0330301,-0.573199
1470246980220778,-0.257831,-0.0330301,-0.573199
1470246980239295,-0.257638,-0.0328269,-0.573104
1470246980259813,-0.257395,-0.0327424,-0.572965
1470246980280833,-0.257395,-0.0327424,-0.572965
1470246980298849,-0.257395,-0.0327424,-0.572965
1470246980319867,-0.257395,-0.0327424,-0.572965
1470246980340886,-0.257429,-0.0326263,-0.572981
1470246980358902,-0.257429,-0.0326263,-0.572981
1470246980379921,-0.257429,-0.0326263,-0.572981
1470246980400940,-0.257429,-0.0326263,-0.572981
1470246980418956,-0.257464,-0.0325102,-0.572997
1470246980441477,-0.257464,-0.0325102,-0.572997
1470246980460994,-0.257584,-0.0325447,-0.572999
1470246980479010,-0.257584,-0.0325447,-0.572999
1470246980501530,-0.257498,-0.0323941,-0.573013
1470246980521048,-0.257619,-0.0324286,-0.573015
1470246980539064,-0.257619,-0.0324286,-0.573015
1470246980561084,-0.257653,-0.0323125,-0.573031
1470246980581102,-0.257653,-0.0323125,-0.573031
1470246980598618,-0.257653,-0.0323125,-0.573031
1470246980621140,-0.257688,-0.0321964,-0.573047
1470246980641155,-0.257688,-0.0321964,-0.573047
1470246980658672,-0.257688,-0.0321964,-0.573047
1470246980681692,-0.257688,-0.0321964,-0.573047
1470246980701209,-0.257723,-0.0320803,-0.573063
1470246980718727,-0.25772,-0.0320647,-0.572928
1470246980741746,-0.25772,-0.0320647,-0.572928
1470246980760762,-0.25772,-0.0320647,-0.572928
1470246980786286,-0.25784,-0.0320991,-0.57293
1470246980801300,-0.258292,-0.0318725,-0.57309
1470246980820816,-0.258172,-0.031838,-0.573088
1470246980838835,-0.258292,-0.0318725,-0.57309
1470246980868861,-0.258292,-0.0318725,-0.57309
1470246980880871,-0.258327,-0.0317564,-0.573106
1470246980898891,-0.258327,-0.0317564,-0.573106
1470246980921444,-0.258327,-0.0317564,-0.573106
1470246980948431,-0.258327,-0.0317564,-0.573106
1470246980958943,-0.258362,-0.0316403,-0.573122
1470246980986029,-0.258362,-0.0316403,-0.573122
1470246981000994,-0.258362,-0.0316403,-0.573122
1470246981019009,-0.258362,-0.0316403,-0.573122
1470246981041517,-0.258359,-0.0316246,-0.572987
1470246981064035,-0.258394,-0.0315086,-0.573003
1470246981079059,-0.258394,-0.0315086,-0.573003
1470246981101069,-0.258394,-0.0315086,-0.573003
1470246981122091,-0.258428,-0.0313925,-0.573019
1470246981138602,-0.258549,-0.0314269,-0.573021
1470246981160623,-0.258549,-0.0314269,-0.573021
1470246981181641,-0.258549,-0.0314269,-0.573021
1470246981198157,-0.258583,-0.0313109,-0.573037
1470246981220676,-0.258583,-0.0313109,-0.573037
1470246981241722,-0.258583,-0.0313109,-0.573037
1470246981264259,-0.258618,-0.0311948,-0.573053
1470246981280730,-0.258618,-0.0311948,-0.573053
1470246981301749,-0.258618,-0.0311948,-0.573053
1470246981318263,-0.258653,-0.0310787,-0.573069
1470246981340784,-0.258653,-0.0310787,-0.573069
1470246981361802,-0.258653,-0.0310787,-0.573069
1470246981384323,-0.258687,-0.0309626,-0.573085
1470246981400337,-0.258687,-0.0309626,-0.573085
1470246981422858,-0.258808,-0.0309971,-0.573087
1470246981437871,-0.258808,-0.0309971,-0.573087
1470246981460391,-0.258842,-0.030881,-0.573103
1470246981482911,-0.258842,-0.030881,-0.573103
1470246981497925,-0.258842,-0.030881,-0.573103
1470246981520445,-0.259304,-0.0306204,-0.573023
1470246981542977,-0.259304,-0.0306204,-0.573023
1470246981557479,-0.259304,-0.0306204,-0.573023
1470246981586507,-0.259304,-0.0306204,-0.573023
1470246981603019,-0.259304,-0.0306204,-0.573023
1470246981617057,-0.259304,-0.0306204,-0.573023
1470246981640554,-0.259339,-0.0305044,-0.57304
1470246981663075,-0.259339,-0.0305044,-0.57304
1470246981677586,-0.259339,-0.0305044,-0.57304
1470246981700607,-0.259339,-0.0305044,-0.57304
1470246981723127,-0.259374,-0.0303883,-0.573056
1470246981737158,-0.259374,-0.0303883,-0.573056
1470246981760661,-0.259374,-0.0303883,-0.573056
1470246981783181,-0.259374,-0.0303883,-0.573056
1470246981797694,-0.259408,-0.0302722,-0.573072
1470246981820714,-0.259408,-0.0302722,-0.573072
1470246981843234,-0.259408,-0.0302722,-0.573072
1470246981865761,-0.259408,-0.0302722,-0.573072
1470246981880287,-0.259408,-0.0302722,-0.573072
1470246981902791,-0.259443,-0.0301561,-0.573088
1470246981924309,-0.259443,-0.0301561,-0.573088
1470246981940823,-0.259443,-0.0301561,-0.573088
1470246981962865,-0.259443,-0.0301561,-0.573088
1470246981984362,-0.259443,-0.0301561,-0.573088
1470246982000376,-0.259478,-0.03004,-0.573104
1470246982022931,-0.259475,-0.0300244,-0.572969
1470246982044415,-0.259475,-0.0300244,-0.572969
1470246982060433,-0.259595,-0.0300588,-0.572971
1470246982082957,-0.259595,-0.0300588,-0.572971
1470246982104014,-0.259475,-0.0300244,-0.572969
1470246982120508,-0.259475,-0.0300244,-0.572969
1470246982143004,-0.259475,-0.0300244,-0.572969
1470246982164073,-0.259475,-0.0300244,-0.572969
1470246982180538,-0.259475,-0.0300244,-0.572969
1470246982203058,-0.25951,-0.0299083,-0.572985
1470246982224077,-0.25951,-0.0299083,-0.572985
1470246982240593,-0.25951,-0.0299083,-0.572985
1470246982263112,-0.25951,-0.0299083,-0.572985
1470246982284131,-0.25951,-0.0299083,-0.572985
1470246982300646,-0.25951,-0.0299083,-0.572985
1470246982323168,-0.25951,-0.0299083,-0.572985
1470246982345691,-0.25951,-0.0299083,-0.572985
1470246982360699,-0.25951,-0.0299083,-0.572985
1470246982383219,-0.25951,-0.0299083,-0.572985
1470246982405740,-0.259079,-0.0296517,-0.573021
1470246982420253,-0.259079,-0.0296517,-0.573021
1470246982443273,-0.259339,-0.0296072,-0.573013
1470246982465294,-0.259459,-0.0296417,-0.573015
1470246982480324,-0.259339,-0.0296072,-0.573013
1470246982503327,-0.259339,-0.0296072,-0.573013
1470246982525347,-0.259769,-0.0294784,-0.573052
1470246982539861,-0.259769,-0.0294784,-0.573052
1470246982563381,-0.259528,-0.0294095,-0.573047
1470246982585401,-0.259408,-0.0293751,-0.573045
1470246982599914,-0.259408,-0.0293751,-0.573045
1470246982623438,-0.259886,-0.0294972,-0.57292
1470246982645455,-0.259921,-0.0293811,-0.572936
1470246982659970,-0.259921,-0.0293811,-0.572936
1470246982682989,-0.259921,-0.0293811,-0.572936
1470246982705509,-0.259921,-0.0293811,-0.572936
1470246982719529,-0.259921,-0.0293811,-0.572936
1470246982743043,-0.259956,-0.029265,-0.572952
1470246982765563,-0.259956,-0.029265,-0.572952
1470246982780075,-0.259956,-0.029265,-0.572952
1470246982810604,-0.259956,-0.029265,-0.572952
1470246982825617,-0.259956,-0.029265,-0.572952
1470246982840150,-0.259991,-0.0291489,-0.572968
1470246982863152,-0.259991,-0.0291489,-0.572968
1470246982893178,-0.259991,-0.0291489,-0.572968
1470246982906772,-0.259991,-0.0291489,-0.572968
1470246982922707,-0.259991,-0.0291489,-0.572968
1470246982945725,-0.259991,-0.0291489,-0.572968
1470246982966743,-0.259991,-0.0291489,-0.572968
1470246982983259,-0.260025,-0.0290329,-0.572984
1470246983005279,-0.260025,-0.0290329,-0.572984
1470246983028299,-0.260025,-0.0290329,-0.572984
1470246983043313,-0.25963,-0.0290456,-0.572961
1470246983065350,-0.25963,-0.0290456,-0.572961
1470246983086851,-0.25963,-0.0290456,-0.572961
1470246983102866,-0.25963,-0.0290456,-0.572961
1470246983125386,-0.25951,-0.0290112,-0.572959
1470246983146963,-0.25951,-0.0290112,-0.572959
1470246983162920,-0.259851,-0.0287162,-0.572877
1470246983185440,-0.259886,-0.0286001,-0.572893
1470246983206503,-0.259886,-0.0286001,-0.572893
1470246983222974,-0.259886,-0.0286001,-0.572893
1470246983245496,-0.259886,-0.0286001,-0.572893
1470246983266568,-0.260244,-0.0286877,-0.572766
1470246983283027,-0.260279,-0.0285716,-0.572782
1470246983305548,-0.260399,-0.028606,-0.572784
1470246983328068,-0.260399,-0.028606,-0.572784
1470246983343082,-0.260396,-0.0285903,-0.572649
1470246983365602,-0.260931,-0.0281132,-0.572738
1470246983388122,-0.261415,-0.027755,-0.572781
1470246983403136,-0.261554,-0.0272908,-0.572847
1470246983425656,-0.261589,-0.0271747,-0.572863
1470246983455682,-0.261931,-0.0268796,-0.572783
1470246983462195,-0.261931,-0.0268796,-0.572783
1470246983486780,-0.261966,-0.0267635,-0.572799
1470246983508230,-0.261966,-0.0267635,-0.572799
1470246983522243,-0.261966,-0.0267635,-0.572799
1470246983545763,-0.262,-0.0266475,-0.572816
1470246983568284,-0.262504,-0.0266878,-0.572948
1470246983582296,-0.262937,-0.0265747,-0.573123
1470246983605381,-0.262972,-0.0264587,-0.57314
1470246983627839,-0.262972,-0.0264587,-0.57314
1470246983642371,-0.262972,-0.0264587,-0.57314
1470246983665371,-0.263422,-0.0262168,-0.573168
1470246983687894,-0.263422,-0.0262168,-0.573168
1470246983702404,-0.263422,-0.0262168,-0.573168
1470246983725425,-0.263422,-0.0262168,-0.573168
1470246983747945,-0.263615,-0.0260349,-0.573339
1470246983762458,-0.263615,-0.0260349,-0.573339
1470246983785479,-0.263615,-0.0260349,-0.573339
1470246983809000,-0.263615,-0.0260349,-0.573339
1470246983829019,-0.263615,-0.0260349,-0.573339
1470246983845533,-0.263615,-0.0260349,-0.573339
1470246983868054,-0.263615,-0.0260349,-0.573339
1470246983889576,-0.26365,-0.0259189,-0.573355
1470246983905587,-0.26365,-0.0259189,-0.573355
1470246983928114,-0.26365,-0.0259189,-0.573355
1470246983949140,-0.263684,-0.0258028,-0.573372
1470246983965643,-0.263684,-0.0258028,-0.573372
1470246983988161,-0.263805,-0.0258373,-0.573374
1470246984009194,-0.263805,-0.0258373,-0.573374
1470246984025694,-0.263839,-0.0257212,-0.573391
1470246984048214,-0.263839,-0.0257212,-0.573391
1470246984069265,-0.263871,-0.0255893,-0.573273
1470246984085251,-0.263871,-0.0255893,-0.573273
1470246984108274,-0.263871,-0.0255893,-0.573273
1470246984129382,-0.263891,-0.0254764,-0.57326
1470246984145304,-0.263891,-0.0254764,-0.57326
1470246984168323,-0.263891,-0.0254764,-0.57326
1470246984189342,-0.263891,-0.0254764,-0.57326
1470246984205356,-0.264011,-0.0255108,-0.573263
1470246984227891,-0.263926,-0.0253603,-0.573277
1470246984250399,-0.264046,-0.0253947,-0.57328
1470246984265460,-0.264081,-0.0252787,-0.573296
1470246984287930,-0.264081,-0.0252787,-0.573296
1470246984316955,-0.264081,-0.0252787,-0.573296
1470246984325463,-0.264116,-0.0251627,-0.573313
1470246984348026,-0.264116,-0.0251627,-0.573313
1470246984370528,-0.264116,-0.0251627,-0.573313
1470246984386023,-0.264116,-0.0251627,-0.573313
1470246984408038,-0.264116,-0.0251627,-0.573313
1470246984430558,-0.264151,-0.0250466,-0.57333
1470246984445071,-0.264151,-0.0250466,-0.57333
1470246984468094,-0.264185,-0.0249306,-0.573346
1470246984490612,-0.264185,-0.0249306,-0.573346
1470246984505125,-0.264306,-0.024965,-0.573349
1470246984528145,-0.264306,-0.024965,-0.573349
1470246984550666,-0.264337,-0.0248331,-0.573231
1470246984565179,-0.264337,-0.0248331,-0.573231
1470246984587699,-0.264372,-0.0247171,-0.573247
1470246984610720,-0.264372,-0.0247171,-0.573247
1470246984625233,-0.264372,-0.0247171,-0.573247
1470246984648254,-0.264372,-0.0247171,-0.573247
1470246984670290,-0.264407,-0.0246011,-0.573264
1470246984684829,-0.264407,-0.0246011,-0.573264
1470246984707807,-0.264407,-0.0246011,-0.573264
1470246984730329,-0.264442,-0.024485,-0.573281
1470246984751871,-0.264442,-0.024485,-0.573281
1470246984768361,-0.264442,-0.024485,-0.573281
1470246984790381,-0.264562,-0.0245194,-0.573284
1470246984811923,-0.264562,-0.0245194,-0.573284
1470246984835423,-0.264597,-0.0244034,-0.5733
1470246984850439,-0.264597,-0.0244034,-0.5733
1470246984871954,-0.264597,-0.0244034,-0.5733
1470246984887984,-0.264597,-0.0244034,-0.5733
1470246984910488,-0.264632,-0.0242874,-0.573317
1470246984932070,-0.264632,-0.0242874,-0.573317
1470246984948022,-0.264632,-0.0242874,-0.573317
1470246984970568,-0.264632,-0.0242874,-0.573317
1470246984991606,-0.264667,-0.0241713,-0.573334
1470246985008579,-0.264667,-0.0241713,-0.573334
1470246985030597,-0.264787,-0.0242057,-0.573336
1470246985051618,-0.264787,-0.0242057,-0.573336
1470246985068131,-0.264667,-0.0241713,-0.573334
1470246985090652,-0.264667,-0.0241713,-0.573334
1470246985111730,-0.264787,-0.0242057,-0.573336
1470246985128187,-0.264702,-0.0240553,-0.57335
1470246985150708,-0.264699,-0.0240394,-0.573216
1470246985171767,-0.264699,-0.0240394,-0.573216
1470246985188238,-0.264854,-0.0239578,-0.573235
1470246985210759,-0.264854,-0.0239578,-0.573235
1470246985233278,-0.264854,-0.0239578,-0.573235
1470246985248293,-0.264854,-0.0239578,-0.573235
1470246985270313,-0.264854,-0.0239578,-0.573235
1470246985293333,-0.264854,-0.0239578,-0.573235
1470246985308346,-0.264084,-0.0239297,-0.572839
1470246985330866,-0.262167,-0.0242857,-0.572111
1470246985352931,-0.260116,-0.024612,-0.571353
1470246985367401,-0.258405,-0.0251403,-0.570482
1470246985390420,-0.256513,-0.0254031,-0.569882
1470246985412940,-0.254669,-0.0255327,-0.569193
1470246985427453,-0.252398,-0.0261793,-0.568393
1470246985450502,-0.249748,-0.0264683,-0.56781
1470246985473016,-0.246874,-0.0265475,-0.566943
1470246985494029,-0.243708,-0.0267911,-0.566072
1470246985510527,-0.241901,-0.0268129,-0.565408
1470246985533050,-0.240635,-0.0271418,-0.564817
1470246985547561,-0.238707,-0.0271177,-0.564018
1470246985570583,-0.235909,-0.0269886,-0.563326
1470246985593102,-0.23242,-0.0270112,-0.562341
1470246985607615,-0.229183,-0.0270887,-0.561259
1470246985630636,-0.225399,-0.0272545,-0.560009
1470246985653158,-0.222282,-0.0273602,-0.558801
1470246985667669,-0.221326,-0.0279485,-0.55745
1470246985690689,-0.222248,-0.0290801,-0.556043
1470246985713210,-0.225193,-0.0299247,-0.554997
1470246985734228,-0.226128,-0.028841,-0.554366
1470246985750744,-0.226012,-0.0269546,-0.553802
1470246985773264,-0.226762,-0.0264124,-0.551699
1470246985794299,-0.226509,-0.0248083,-0.54842
1470246985810802,-0.227384,-0.0236684,-0.544228
1470246985833317,-0.229214,-0.028547,-0.536947
1470246985854339,-0.23838,-0.0327229,-0.527579
1470246985870351,-0.252535,-0.035131,-0.512741
1470246985893372,-0.267333,-0.0333109,-0.494403
1470246985914390,-0.278946,-0.0272684,-0.473314
1470246985929908,-0.286411,-0.0175661,-0.450145
1470246985952927,-0.293199,-0.0047941,-0.423486
1470246985974444,-0.299792,0.00926263,-0.39278
1470246985989960,-0.300795,0.0230532,-0.358972
1470246986012981,-0.296896,0.0366161,-0.321835
1470246986034498,-0.288258,0.0496364,-0.281109
1470246986050012,-0.277743,0.0617628,-0.236514
1470246986073033,-0.265985,0.0716591,-0.188021
1470246986094051,-0.252953,0.0786883,-0.135823
1470246986110066,-0.239877,0.0827062,-0.0807446
1470246986133087,-0.227082,0.084817,-0.0246803
1470246986155607,-0.212773,0.0840953,0.0319309
1470246986170120,-0.198688,0.0796294,0.0890848
1470246986193140,-0.186098,0.0735109,0.145896
1470246986215160,-0.17532,0.0680529,0.200482
1470246986229675,-0.164017,0.062374,0.252792
1470246986253198,-0.151057,0.0537896,0.302663
1470246986275714,-0.137727,0.0436354,0.349817
1470246986296735,-0.124146,0.0327617,0.393549
1470246986313250,-0.110648,0.0217367,0.43304
1470246986335769,-0.0977156,0.00823725,0.468038
1470246986356804,-0.0879328,-0.00681751,0.499347
1470246986373302,-0.0842032,-0.0224746,0.526229
1470246986378352,-0.0822412,-0.0366097,0.549003
1470246986400870,-0.079323,-0.0495307,0.567445
1470246986423849,-0.0761445,-0.0626379,0.582072
1470246986438360,-0.0747756,-0.075398,0.592955
1470246986461456,-0.0759489,-0.0889005,0.601489
1470246986483406,-0.0783475,-0.102754,0.607492
1470246986498470,-0.0796776,-0.116104,0.612078
1470246986520983,-0.078536,-0.128213,0.615526
1470246986543468,-0.0762347,-0.138794,0.61815
1470246986558470,-0.075604,-0.148613,0.620365
1470246986581063,-0.0747107,-0.156087,0.622166
1470246986603525,-0.0741997,-0.16255,0.623164
1470246986618614,-0.0736717,-0.168006,0.623344
1470246986641043,-0.0720794,-0.172129,0.622285
1470246986659081,-0.0700417,-0.174082,0.621326
1470246986678670,-0.0682941,-0.175025,0.620035
1470246986701155,-0.0663896,-0.175897,0.618751
1470246986717611,-0.0644679,-0.176637,0.617701
1470246986738672,-0.0627132,-0.176556,0.617153
1470246986761158,-0.0608024,-0.175484,0.616893
1470246986779167,-0.0586937,-0.174094,0.617005
1470246986798684,-0.0564887,-0.17299,0.616474
1470246986821204,-0.0549613,-0.171802,0.615241
1470246986837236,-0.0552036,-0.170815,0.614285
1470246986858737,-0.0569653,-0.170519,0.613536
1470246986881258,-0.0584546,-0.169541,0.612215
1470246986897272,-0.0590517,-0.167559,0.610234
1470246986918792,-0.0601957,-0.164888,0.609544
1470246986944337,-0.0629027,-0.161991,0.608469
1470246986957829,-0.0652322,-0.159089,0.607492
1470246986978345,-0.0669924,-0.156749,0.606746
1470246987000866,-0.0684876,-0.154755,0.606137
1470246987017382,-0.0703774,-0.153138,0.605673
1470246987038907,-0.0718701,-0.151536,0.605092
1470246987063979,-0.072569,-0.150164,0.604806
1470246987077434,-0.0725313,-0.150047,0.604794
1470246987098497,-0.0731229,-0.149476,0.604805
1470246987121488,-0.0741236,-0.149045,0.604621
1470246987138994,-0.0748979,-0.148675,0.604529
1470246987166033,-0.0748979,-0.148675,0.604529
1470246987181117,-0.0750154,-0.148639,0.604537
1470246987199044,-0.0749777,-0.148521,0.604524
1470246987218561,-0.0750951,-0.148485,0.604533
1470246987241081,-0.0743732,-0.147816,0.604577
1470246987259097,-0.0738325,-0.147337,0.604489
1470246987278615,-0.0727292,-0.146648,0.604606
1470246987301136,-0.0708373,-0.145178,0.604346
1470246987318652,-0.0685203,-0.143458,0.604582
1470246987338681,-0.0668595,-0.142172,0.604885
1470246987361217,-0.0654765,-0.14145,0.604875
1470246987379206,-0.064186,-0.141074,0.604596
1470246987398751,-0.0632865,-0.140715,0.604383
1470246987421243,-0.0624151,-0.140475,0.604044
1470246987439325,-0.062332,-0.14025,0.603913
1470246987458777,-0.062332,-0.14025,0.603913
1470246987481297,-0.0621679,-0.14017,0.603756
1470246987498815,-0.0621679,-0.14017,0.603756
1470246987518830,-0.062062,-0.139439,0.603724
1470246987540853,-0.0618097,-0.138616,0.603782
1470246987558867,-0.0613573,-0.137605,0.603702
1470246987578440,-0.0605947,-0.136422,0.603555
1470246987601409,-0.059599,-0.135321,0.603424
1470246987619421,-0.0586408,-0.134338,0.603307
1470246987638458,-0.0581688,-0.133199,0.603466
1470246987660959,-0.0577262,-0.132187,0.603529
1470246987678980,-0.0569309,-0.131275,0.603541
1470246987699994,-0.0559735,-0.130292,0.603428
1470246987724018,-0.0549793,-0.129191,0.603307
1470246987739109,-0.0547174,-0.127991,0.603102
1470246987760051,-0.0544128,-0.127062,0.602911
1470246987781068,-0.0539903,-0.126161,0.602685
1470246987803632,-0.0536945,-0.125231,0.602633
1470246987820102,-0.0534063,-0.124292,0.60269
1470246987841128,-0.0527879,-0.123589,0.602491
1470246987859137,-0.0520877,-0.122653,0.602136
1470246987896170,-0.0511246,-0.12167,0.601896
1470246987901218,-0.0500448,-0.120724,0.601652
1470246987919208,-0.0493025,-0.120057,0.601313
1470246987939733,-0.0488686,-0.119552,0.601007
1470246987961231,-0.0488686,-0.119552,0.601007
1470246987979245,-0.0489858,-0.119516,0.601013
1470246987999762,-0.0489496,-0.119407,0.601033
1470246988021282,-0.0489496,-0.119407,0.601033
1470246988038800,-0.0489701,-0.119146,0.600638
1470246988061838,-0.0491079,-0.11885,0.600249
1470246988080836,-0.0490711,-0.118732,0.60024
1470246988098852,-0.0490711,-0.118732,0.60024
1470246988121372,-0.0490711,-0.118732,0.60024
1470246988140922,-0.0490343,-0.118615,0.60023
1470246988158906,-0.0490343,-0.118615,0.60023
1470246988181442,-0.0490343,-0.118615,0.60023
1470246988200972,-0.0490343,-0.118615,0.60023
1470246988218986,-0.0489974,-0.118498,0.600221
1470246988241480,-0.0489974,-0.118498,0.600221
1470246988261025,-0.0491146,-0.118462,0.600227
1470246988279079,-0.0490778,-0.118344,0.600218
1470246988301589,-0.0490778,-0.118344,0.600218
1470246988321051,-0.049041,-0.118227,0.600208
1470246988339068,-0.0495751,-0.117939,0.599986
1470246988361602,-0.0500282,-0.117796,0.599737
1470246988381110,-0.0504453,-0.117544,0.599508
1470246988399147,-0.0510671,-0.117094,0.59939
1470246988421642,-0.0516015,-0.116806,0.599167
1470246988448755,-0.052414,-0.116555,0.599075
1470246988459258,-0.0531974,-0.116186,0.59911
1470246988481195,-0.0539742,-0.115825,0.599038
1470246988501212,-0.0547499,-0.115457,0.598936
1470246988518729,-0.0547499,-0.115457,0.598936
1470246988541249,-0.0550939,-0.114972,0.598687
1470246988561267,-0.0556644,-0.114794,0.598445
1470246988583787,-0.0565876,-0.114517,0.598251
1470246988601816,-0.0575033,-0.114241,0.59792
1470246988621321,-0.0584035,-0.113968,0.597314
1470246988638836,-0.0595751,-0.113741,0.596731
1470246988661358,-0.0610555,-0.1133,0.59605
1470246988682377,-0.0624908,-0.113122,0.595353
1470246988698890,-0.0638549,-0.113105,0.594828
1470246988728918,-0.064345,-0.113083,0.594589
1470246988742931,-0.064683,-0.112987,0.594364
1470246988758945,-0.0659056,-0.11287,0.594038
1470246988781465,-0.067709,-0.112971,0.593798
1470246988802484,-0.069232,-0.113406,0.593532
1470246988819049,-0.0707327,-0.114098,0.593663
1470246988841519,-0.0737811,-0.115218,0.593946
1470246988862537,-0.0782503,-0.116652,0.594831
1470246988879105,-0.0819917,-0.118562,0.595977
1470246988900574,-0.083582,-0.12063,0.596752
1470246988921633,-0.0861531,-0.123033,0.597202
1470246988938105,-0.0916978,-0.12556,0.597523
1470246988960626,-0.0978761,-0.127264,0.597748
1470246988981679,-0.101898,-0.128594,0.598035
1470246989005666,-0.102754,-0.129599,0.598418
1470246989020679,-0.102754,-0.129599,0.598418
1470246989043201,-0.103712,-0.129063,0.598079
1470246989058217,-0.105065,-0.128524,0.597885
1470246989080735,-0.106109,-0.128594,0.597851
1470246989110760,-0.106908,-0.128981,0.598342
1470246989117767,-0.10723,-0.128984,0.599136
1470246989140787,-0.107134,-0.12923,0.600158
1470246989163308,-0.106433,-0.129531,0.601402
1470246989177322,-0.104984,-0.129415,0.602949
1470246989200933,-0.103541,-0.129289,0.604606
1470246989223453,-0.10129,-0.129027,0.606314
1470246989237466,-0.0986937,-0.128501,0.608
1470246989260486,-0.0967321,-0.127278,0.609169
1470246989283507,-0.094878,-0.125262,0.61004
1470246989297520,-0.0932457,-0.122802,0.610655
1470246989320541,-0.0927838,-0.119978,0.611348
1470246989343061,-0.0924331,-0.116196,0.61247
1470246989357575,-0.0904093,-0.111529,0.613971
1470246989380595,-0.087027,-0.105876,0.61531
1470246989403115,-0.082785,-0.0988368,0.616274
1470246989424134,-0.078428,-0.0918492,0.617313
1470246989440649,-0.0736784,-0.0848567,0.618346
1470246989463170,-0.0689212,-0.0778748,0.619296
1470246989484690,-0.0634837,-0.0701051,0.619455
1470246989500702,-0.0571812,-0.0617328,0.618845
1470246989523223,-0.0515096,-0.0529067,0.61819
1470246989544306,-0.0469572,-0.0436074,0.616843
1470246989560756,-0.0427317,-0.0333172,0.614891
1470246989590784,-0.0381916,-0.0219828,0.612465
1470246989604298,-0.0339252,-0.00980248,0.609602
1470246989620810,-0.0300955,0.00314748,0.606285
1470246989643330,-0.02695,0.0169401,0.602545
1470246989664349,-0.0249916,0.0312175,0.598456
1470246989680370,-0.0245712,0.0456979,0.594159
1470246989702898,-0.025026,0.0609261,0.589229
1470246989724403,-0.0258654,0.0768787,0.583946
1470246989739917,-0.027581,0.0931887,0.578498
1470246989762946,-0.0303523,0.10977,0.572645
1470246989784554,-0.0342681,0.126875,0.565956
1470246989799971,-0.0403233,0.145145,0.558332
1470246989822992,-0.0491935,0.164599,0.549653
1470246989844511,-0.0616365,0.185127,0.539552
1470246989866545,-0.0757924,0.207159,0.528186
1470246989883076,-0.0911602,0.230617,0.515304
1470246989904108,-0.107605,0.254663,0.501212
1470246989920080,-0.125446,0.279564,0.485591
1470246989943100,-0.144352,0.304907,0.468392
1470246989965635,-0.163717,0.33047,0.450451
1470246989980133,-0.183426,0.355677,0.431726
1470246990003153,-0.204557,0.380453,0.411689
1470246990025675,-0.226297,0.407036,0.389971
1470246990040187,-0.248345,0.435191,0.366544
1470246990063208,-0.271524,0.463937,0.340838
1470246990085727,-0.298319,0.493644,0.311782
1470246990114255,-0.327526,0.523426,0.278501
1470246990123262,-0.35869,0.552936,0.241347
1470246990145782,-0.39219,0.580588,0.200962
1470246990166800,-0.428896,0.606837,0.157306
1470246990183316,-0.46805,0.63086,0.110672
1470246990205835,-0.509343,0.651916,0.0624109
1470246990226853,-0.55336,0.669952,0.0120305
1470246990242869,-0.599311,0.684852,-0.0406764
1470246990265889,-0.64458,0.696415,-0.0931195
1470246990286997,-0.689088,0.705356,-0.144622
1470246990303423,-0.731545,0.712091,-0.193084
1470246990332949,-0.770998,0.716714,-0.237855
1470246990346962,-0.806305,0.720209,-0.278549
1470246990362991,-0.837286,0.722068,-0.316172
1470246990385497,-0.864692,0.7236,-0.350228
1470246990407040,-0.889051,0.725074,-0.380121
1470246990423074,-0.909874,0.726122,-0.405397
1470246990445587,-0.927137,0.726531,-0.426125
1470246990466569,-0.941762,0.726658,-0.442702
1470246990483084,-0.955114,0.726882,-0.45782
1470246990505604,-0.964355,0.726702,-0.470286
1470246990527625,-0.969689,0.732952,-0.480305
1470246990543138,-0.974172,0.743187,-0.488437
1470246990565658,-0.979496,0.746369,-0.494009
1470246990587197,-0.984642,0.745979,-0.498234
1470246990603194,-0.986152,0.750581,-0.500956
1470246990625712,-0.985874,0.755767,-0.502483
1470246990646757,-0.986882,0.760872,-0.503431
1470246990670773,-0.987891,0.765239,-0.50443
1470246990685766,-0.986962,0.767742,-0.504132
1470246990706786,-0.98506,0.769658,-0.503306
1470246990723300,-0.985288,0.771582,-0.504335
1470246990745821,-0.98763,0.773549,-0.507437
1470246990766841,-0.989157,0.775145,-0.510961
1470246990783354,-0.989633,0.776269,-0.513699
1470246990805381,-0.990371,0.777358,-0.51614
1470246990826893,-0.991833,0.777723,-0.518331
1470246990843408,-0.994266,0.7774,-0.521307
1470246990865430,-0.995666,0.776665,-0.524637
1470246990887996,-0.995201,0.775041,-0.527697
1470246990902961,-0.995545,0.773284,-0.530753
1470246990925983,-0.997146,0.771311,-0.53417
1470246990948002,-0.998258,0.769294,-0.536701
1470246990963040,-0.998973,0.767442,-0.539162
1470246990985538,-0.999162,0.766112,-0.541551
1470246991008557,-0.999474,0.765016,-0.544255
1470246991022569,-0.999613,0.764428,-0.547019
1470246991053096,-0.999943,0.76352,-0.549584
1470246991068109,-1.00023,0.762672,-0.552021
1470246991089699,-1.00159,0.762321,-0.55494
1470246991105663,-1.00239,0.761961,-0.557351
1470246991128166,-1.00252,0.761385,-0.55896
1470246991142677,-1.00261,0.760279,-0.560121
1470246991173206,-1.00383,0.759055,-0.561893
1470246991188218,-1.00536,0.757831,-0.563971
1470246991202730,-1.0059,0.756537,-0.565635
1470246991225752,-1.00539,0.755197,-0.56644
1470246991254278,-1.00527,0.754016,-0.566709
1470246991262286,-1.00563,0.753174,-0.566777
1470246991285805,-1.00604,0.752547,-0.567027
1470246991308325,-1.00593,0.751769,-0.567231
1470246991322339,-1.00603,0.751381,-0.568064
1470246991345860,-1.00567,0.750766,-0.568794
1470246991367897,-1.0055,0.749829,-0.56932
1470246991382392,-1.00555,0.748642,-0.56965
1470246991405913,-1.00618,0.747312,-0.570417
1470246991427989,-1.00705,0.746021,-0.571855
1470246991449561,-1.00713,0.744511,-0.573408
1470246991465470,-1.007,0.742578,-0.574646
1470246991504004,-1.00756,0.740785,-0.575985
1470246991509505,-1.00811,0.739136,-0.576866
1470246991525526,-1.00871,0.737739,-0.577616
1470246991548089,-1.0096,0.736433,-0.578858
1470246991569075,-1.00989,0.73515,-0.580308
1470246991585574,-1.01082,0.734299,-0.582615
1470246991615603,-1.01206,0.73397,-0.585043
1470246991629651,-1.01255,0.733708,-0.58679
1470246991645632,-1.01325,0.733321,-0.588219
1470246991668148,-1.01444,0.733099,-0.589871
1470246991689694,-1.01519,0.732925,-0.591482
1470246991705684,-1.01607,0.732888,-0.59322
1470246991728204,-1.01629,0.732699,-0.594675
1470246991749221,-1.01634,0.732665,-0.595616
1470246991773242,-1.01648,0.732532,-0.596315
1470246991788256,-1.01672,0.73201,-0.596685
1470246991810777,-1.01695,0.731489,-0.597055
1470246991825792,-1.01676,0.7306,-0.597261
1470246991848309,-1.01585,0.729582,-0.596739
1470246991870831,-1.01494,0.728413,-0.595524
1470246991893350,-1.01414,0.727219,-0.594234
1470246991908869,-1.0131,0.726134,-0.592978
1470246991930885,-1.01153,0.72514,-0.591425
1470246991945417,-1.01018,0.724381,-0.589806
1470246991967928,-1.00907,0.72364,-0.588043
1470246991990939,-1.00762,0.723442,-0.585988
1470246992004952,-1.00601,0.723347,-0.584069
1470246992028472,-1.00491,0.72336,-0.582492
1470246992058499,-1.00352,0.723431,-0.581118
1470246992065006,-1.00215,0.723177,-0.57982
1470246992088025,-1.00134,0.722884,-0.578799
1470246992110545,-1.00066,0.722726,-0.577902
1470246992125060,-1.00018,0.723005,-0.576972
1470246992148080,-0.999678,0.723105,-0.576183
1470246992170600,-0.999678,0.723105,-0.576183
1470246992185112,-0.999186,0.722637,-0.576227
1470246992208134,-0.999186,0.722637,-0.576227
1470246992230654,-0.999063,0.722533,-0.575797
1470246992245166,-0.998832,0.722111,-0.574865
1470246992275694,-0.99897,0.722096,-0.574299
1470246992290707,-0.99897,0.722096,-0.574299
1470246992304722,-0.998155,0.721985,-0.573663
1470246992335765,-0.997328,0.722016,-0.572569
1470246992350761,-0.997261,0.722068,-0.571818
1470246992371807,-0.997019,0.722224,-0.5712
1470246992388295,-0.995963,0.722234,-0.570253
1470246992410816,-0.994908,0.722639,-0.569236
1470246992431851,-0.994241,0.722781,-0.568083
1470246992448349,-0.993507,0.722911,-0.566793
1470246992470371,-0.993015,0.722917,-0.565816
1470246992491888,-0.992173,0.722767,-0.564864
1470246992507903,-0.991423,0.722685,-0.564025
1470246992530923,-0.990619,0.722873,-0.56313
1470246992551942,-0.990581,0.722929,-0.563003
1470246992574462,-0.990203,0.722768,-0.562407
1470246992590978,-0.989531,0.722606,-0.561515
1470246992613497,-0.988857,0.722412,-0.56093
1470246992628024,-0.98832,0.722564,-0.560016
1470246992650532,-0.987668,0.722851,-0.559027
1470246992671549,-0.987342,0.723207,-0.558342
1470246992688065,-0.986806,0.723359,-0.557427
1470246992718092,-0.985888,0.723711,-0.55615
1470246992732105,-0.985272,0.724368,-0.554907
1470246992748119,-0.98444,0.725183,-0.553665
1470246992771140,-0.983882,0.725839,-0.552522
1470246992793158,-0.983662,0.726507,-0.551188
1470246992808172,-0.982214,0.726918,-0.548803
1470246992836730,-0.979646,0.727618,-0.545068
1470246992853212,-0.97659,0.728434,-0.539095
1470246992867725,-0.973402,0.729309,-0.530172
1470246992890746,-0.969215,0.730784,-0.517501
1470246992919298,-0.963272,0.732526,-0.500395
1470246992934331,-0.953735,0.733943,-0.477596
1470246992950800,-0.940865,0.7335,-0.448629
1470246992973320,-0.924744,0.730791,-0.414739
1470246992994399,-0.904523,0.72576,-0.375994
1470246993010854,-0.880004,0.718031,-0.331461
1470246993033374,-0.848938,0.705629,-0.278743
1470246993054485,-0.815269,0.689055,-0.219655
1470246993070908,-0.780324,0.666672,-0.154626
1470246993093930,-0.7455,0.637806,-0.0851945
1470246993114450,-0.70896,0.602148,-0.0123328
1470246993130961,-0.670445,0.558592,0.063433
1470246993160502,-0.630487,0.508536,0.140251
1470246993174502,-0.592219,0.450672,0.214319
1470246993197021,-0.555805,0.386039,0.282558
1470246993213038,-0.520076,0.319551,0.344007
1470246993234555,-0.488851,0.255418,0.39718
1470246993250571,-0.465639,0.196757,0.440053
1470246993273089,-0.446479,0.148204,0.473717
1470246993294108,-0.424893,0.109924,0.501109
1470246993310623,-0.407965,0.0740394,0.526638
1470246993333143,-0.403654,0.0386777,0.552441
1470246993354162,-0.402549,0.00234957,0.573852
1470246993370677,-0.390727,-0.0238661,0.588533
1470246993393197,-0.376354,-0.0356444,0.594618
1470246993414250,-0.362884,-0.0331404,0.591439
1470246993430731,-0.359679,-0.0275599,0.586677
1470246993453251,-0.359316,-0.0214299,0.577999
1470246993474272,-0.361417,-0.0165557,0.568573
1470246993490785,-0.365914,-0.0120478,0.557802
1470246993513306,-0.372198,-0.00720442,0.545128
1470246993534324,-0.376169,0.000212617,0.530141
1470246993549838,-0.378327,0.0120049,0.51155
1470246993573361,-0.381981,0.0267699,0.487698
1470246993594426,-0.386535,0.046118,0.458541
1470246993609891,-0.396791,0.0746263,0.423819
1470246993633413,-0.409171,0.111578,0.382754
1470246993654446,-0.427987,0.156007,0.333783
1470246993669947,-0.456598,0.206154,0.275533
1470246993693467,-0.495687,0.258827,0.207988
1470246993714487,-0.542672,0.310934,0.132767
1470246993730000,-0.593464,0.359558,0.0521004
1470246993753521,-0.646768,0.404559,-0.033105
1470246993775540,-0.700853,0.445487,-0.124833
1470246993790055,-0.754133,0.479342,-0.222296
1470246993813074,-0.807758,0.50469,-0.32039
1470246993835594,-0.862648,0.524037,-0.416495
1470246993850108,-0.917139,0.538144,-0.507634
1470246993873129,-0.971946,0.547821,-0.592239
1470246993895675,-1.02754,0.553531,-0.671369
1470246993916666,-1.07842,0.554743,-0.743134
1470246993933705,-1.11713,0.553819,-0.803179
1470246993956203,-1.14987,0.553577,-0.853589
1470246993984228,-1.17232,0.552772,-0.889367
1470246994000743,-1.18606,0.551089,-0.910065
1470246994023265,-1.19269,0.548832,-0.919109
1470246994036823,-1.19276,0.545587,-0.919832
1470246994053291,-1.18702,0.539219,-0.914399
1470246994075810,-1.17507,0.530011,-0.903338
1470246994096864,-1.15626,0.5191,-0.887287
1470246994113345,-1.13042,0.505131,-0.868326
1470246994135864,-1.09616,0.485882,-0.845045
1470246994156386,-1.05687,0.461281,-0.818687
1470246994164890,-1.01763,0.43422,-0.79164
1470246994178997,-0.982886,0.405651,-0.766009
1470246994201423,-0.952582,0.377124,-0.744747
1470246994223942,-0.930148,0.349928,-0.726493
1470246994238956,-0.903006,0.320354,-0.709063
1470246994261477,-0.870033,0.29064,-0.699031
1470246994283529,-0.833033,0.272341,-0.697912
1470246994298542,-0.799967,0.257894,-0.699026
1470246994321063,-0.781619,0.248306,-0.699243
1470246994344052,-0.772189,0.242006,-0.699047
1470246994359067,-0.759496,0.23264,-0.702156
1470246994384087,-0.741715,0.223561,-0.706594
1470246994403630,-0.727533,0.213934,-0.710237
1470246994418620,-0.718747,0.201613,-0.712842
1470246994441139,-0.715643,0.188601,-0.715531
1470246994463662,-0.714487,0.174749,-0.718655
1470246994478672,-0.712756,0.161691,-0.72216
1470246994501192,-0.710261,0.153744,-0.726062
1470246994523714,-0.707474,0.154713,-0.728609
1470246994546258,-0.707207,0.161491,-0.725561
1470246994561298,-0.704322,0.165477,-0.720157
1470246994583835,-0.695586,0.166959,-0.716498
1470246994598791,-0.68201,0.168173,-0.71308
1470246994621300,-0.669256,0.168335,-0.707556
1470246994643821,-0.662248,0.167206,-0.701018
1470246994658834,-0.659481,0.16561,-0.694545
1470246994681353,-0.655245,0.164099,-0.687954
1470246994703874,-0.64723,0.163658,-0.681984
1470246994718888,-0.635943,0.164154,-0.676121
1470246994742422,-0.622389,0.165018,-0.671493
1470246994763931,-0.609025,0.166156,-0.667832
1470246994778941,-0.596829,0.167219,-0.664545
1470246994800976,-0.585597,0.166639,-0.660908
1470246994826484,-0.57418,0.162884,-0.656522
1470246994838495,-0.557913,0.154608,-0.651581
1470246994861138,-0.53696,0.14266,-0.645636
1470246994892576,-0.513861,0.127,-0.638029
1470246994898579,-0.489009,0.1085,-0.628496
1470246994921071,-0.462701,0.0880332,-0.616868
1470246994943607,-0.433448,0.065933,-0.604029
1470246994958634,-0.401052,0.04525,-0.593221
1470246994981132,-0.367047,0.0304285,-0.585134
1470246995003695,-0.336375,0.0220232,-0.577979
1470246995020158,-0.312328,0.0152482,-0.569262
1470246995041179,-0.294603,0.00495489,-0.559858
1470246995063701,-0.273734,-0.00713441,-0.550625
1470246995078744,-0.241695,-0.0177461,-0.540247
1470246995101238,-0.201003,-0.0288955,-0.529754
1470246995123799,-0.157593,-0.0414035,-0.518871
1470246995140301,-0.113698,-0.0560888,-0.508251
1470246995161369,-0.0680163,-0.0721151,-0.497714
1470246995183835,-0.0194023,-0.0895092,-0.487502
1470246995198825,0.0332234,-0.1087,-0.478742
1470246995222840,0.0900233,-0.128832,-0.470252
1470246995243858,0.146666,-0.150375,-0.462286
1470246995258875,0.200197,-0.17233,-0.457029
1470246995284404,0.24537,-0.192428,-0.455012
1470246995303486,0.284623,-0.210139,-0.455717
1470246995319927,0.319749,-0.224373,-0.458967
1470246995340946,0.345473,-0.236852,-0.463197
1470246995363468,0.35957,-0.245122,-0.4677
1470246995386493,0.363284,-0.248517,-0.472369
1470246995401551,0.360874,-0.249142,-0.476832
1470246995423557,0.354365,-0.247669,-0.481566
1470246995440091,0.344104,-0.244632,-0.48551
1470246995461098,0.332754,-0.23987,-0.488061
1470246995493083,0.321561,-0.233329,-0.489743
1470246995500089,0.310637,-0.227087,-0.490975
1470246995521133,0.301371,-0.222295,-0.492156
1470246995543629,0.292701,-0.217874,-0.492386
1470246995560145,0.284988,-0.21343,-0.492165
1470246995581187,0.281358,-0.210509,-0.492688
1470246995603726,0.281642,-0.209536,-0.493836
1470246995620197,0.282131,-0.209245,-0.494238
1470246995641216,0.281537,-0.209728,-0.493609
1470246995659789,0.284333,-0.211271,-0.493371
1470246995681752,0.292317,-0.211846,-0.492927
1470246995701270,0.304759,-0.211727,-0.491002
1470246995723793,0.321765,-0.212679,-0.487782
1470246995741806,0.344011,-0.214014,-0.48303
1470246995761324,0.367632,-0.217485,-0.478504
1470246995783854,0.376277,-0.230475,-0.47511
1470246995801359,0.381217,-0.242648,-0.471678
1470246995821401,0.389003,-0.237385,-0.463598
1470246995843898,0.390968,-0.202713,-0.449559
1470246995861914,0.377242,-0.148054,-0.43468
1470246995881434,0.337856,-0.0702698,-0.418586
1470246995903952,0.269048,0.0327149,-0.400708
1470246995921468,0.184566,0.162626,-0.385849
1470246995941487,0.104758,0.315713,-0.37519
1470246995963520,0.0423706,0.484104,-0.368713
1470246995981523,0.00633271,0.661819,-0.367119
1470246996001057,-0.0041669,0.840468,-0.3693
1470246996023605,0.00368309,1.01445,-0.374562
1470246996042579,0.0190063,1.18094,-0.381232
1470246996061109,0.0365169,1.33755,-0.384834
1470246996083629,0.091292,1.47952,-0.346945
1470246996101651,2.97043,1.53083,2.5158
1470246996121147,3.13303,1.42378,2.66606
1470246996143667,-3.1182,1.33085,2.68078
1470246996161683,-3.09681,1.25672,2.68189
1470246996182702,-3.07576,1.19924,2.6775
1470246996203737,-3.07249,1.16372,2.65736
1470246996221742,-3.07617,1.14239,2.63372
1470246996244348,-3.09333,1.13618,2.60289
1470246996263815,-3.12094,1.14247,2.56709
1470246996281841,3.13066,1.15821,2.53062
1470246996302809,3.10086,1.18155,2.49652
1470246996323832,3.0571,1.21451,2.4476
1470246996341345,3.00458,1.25037,2.38674
1470246996362363,2.92754,1.28956,2.30205
1470246996383882,2.8057,1.33055,2.17745
1470246996401899,2.61375,1.36957,1.98819
1470246996422417,2.31217,1.4005,1.69301
1470246996443937,1.88212,1.41223,1.27175
1470246996461452,1.42111,1.39184,0.82312
1470246996482472,1.07312,1.33939,0.491023
1470246996503492,0.849502,1.26494,0.285068
1470246996526043,0.692054,1.17498,0.147135
1470246996542525,0.569915,1.07405,0.0496066
1470246996563544,0.477872,0.964236,-0.014456
1470246996581607,0.407558,0.847993,-0.0579007
1470246996608617,0.34656,0.7253,-0.0927732
1470246996623673,0.295252,0.60402,-0.119153
1470246996641614,0.260185,0.49173,-0.137794
1470246996664134,0.233885,0.394396,-0.156396
1470246996683664,0.210341,0.311627,-0.179555
1470246996700667,0.189618,0.246782,-0.203238
1470246996723187,0.170806,0.199532,-0.22575
1470246996744267,0.152526,0.15976,-0.246137
1470246996760721,0.129134,0.135023,-0.266628
1470246996783742,0.0996321,0.120236,-0.292508
1470246996804284,0.0624801,0.116168,-0.320375
1470246996820780,0.0207386,0.111946,-0.343991
1470246996843295,-0.0198429,0.105381,-0.362774
1470246996864346,-0.0537955,0.0958989,-0.379894
1470246996880829,-0.0804152,0.0847123,-0.395479
1470246996903349,-0.0961935,0.0725051,-0.409953
1470246996924392,-0.104387,0.0604176,-0.418747
1470246996940883,-0.109375,0.0473936,-0.423033
1470246996963402,-0.112235,0.0334319,-0.427175
1470246996984421,-0.112047,0.020146,-0.430635
1470246997000936,-0.109742,0.00889832,-0.432703
1470246997023456,-0.106745,-0.00136571,-0.433369
1470246997044475,-0.106177,-0.0119316,-0.434304
1470246997060991,-0.10647,-0.0225508,-0.437268
1470246997083011,-0.106133,-0.0313529,-0.441466
1470246997104529,-0.104843,-0.03814,-0.444776
1470246997121044,-0.104909,-0.0444157,-0.446844
1470246997143565,-0.10521,-0.0506889,-0.450077
1470246997164630,-0.104559,-0.0549829,-0.453142
1470246997180598,-0.102452,-0.0562975,-0.456128
1470246997211125,-0.0997456,-0.0542805,-0.458273
1470246997224638,-0.0979765,-0.0515373,-0.459279
1470246997241152,-0.0986818,-0.0511455,-0.460557
1470246997263172,-0.100943,-0.052136,-0.461989
1470246997284696,-0.102029,-0.0527565,-0.463966
1470246997300706,-0.100176,-0.0524603,-0.466517
1470246997323226,-0.0979181,-0.0506767,-0.468995
1470246997344273,-0.0989622,-0.0482861,-0.471224
1470246997360760,-0.10554,-0.0458956,-0.47415
1470246997383279,-0.118941,-0.0444863,-0.477888
1470246997404299,-0.140434,-0.0461768,-0.480532
1470246997420312,-0.192386,-0.0637206,-0.476037
1470246997443334,-0.281409,-0.0602254,-0.479547
1470246997464352,-0.328502,-0.0494439,-0.47587
1470246997479866,-0.329,-0.0192525,-0.416915
1470246997503387,-0.333944,0.0237254,-0.337322
1470246997525907,-0.330181,0.0726272,-0.229481
1470246997539939,-0.302267,0.116799,-0.087331
1470246997562985,-0.244454,0.151501,0.0790719
1470246997585962,-0.182402,0.175793,0.255791
1470246997599974,-0.121879,0.188741,0.429432
1470246997622995,-0.0592531,0.194103,0.587678
1470246997645516,0.00693111,0.192251,0.726544
1470246997667041,0.0727937,0.186372,0.845791
1470246997683049,0.12324,0.1767,0.942904
1470246997705569,0.148132,0.160296,1.01661
1470246997726619,0.145391,0.136894,1.07058
1470246997743103,0.126303,0.110862,1.11009
1470246997765623,0.108215,0.0744514,1.13773
1470246997787152,0.104247,0.0508738,1.15684
1470246997804659,0.115923,0.0389376,1.16822
1470246997825677,0.1319,0.033794,1.17128
1470246997846696,0.141091,0.0306845,1.16824
1470246997863210,0.141773,0.0269205,1.16006
1470246997885731,0.139042,0.0220257,1.14522
1470246997906756,0.140848,0.0172681,1.12219
1470246997923264,0.149326,0.0223757,1.08815
1470246997945787,0.162216,0.0282384,1.04068
1470246997968305,0.176416,0.0356581,0.976527
1470246997983375,0.191763,0.0469355,0.897159
1470246998005838,0.196048,0.0595039,0.796937
1470246998026858,0.178326,0.0712019,0.670008
1470246998043373,0.131171,0.0767955,0.514543
1470246998073399,0.0510123,0.0787479,0.332721
1470246998086917,-0.0371138,0.0936587,0.138445
1470246998103426,-0.110729,0.12175,-0.0692306
1470246998125946,-0.155985,0.142846,-0.27277
1470246998154472,-0.179705,0.160588,-0.468025
1470246998162979,-0.187503,0.177377,-0.644
1470246998186003,-0.195818,0.188758,-0.790365
1470246998207039,-0.212239,0.193586,-0.916079
1470246998223034,-0.228499,0.19101,-1.02611
1470246998245554,-0.236886,0.186123,-1.11319
1470246998267073,-0.249255,0.181907,-1.18153
1470246998282587,-0.260074,0.179198,-1.22967
1470246998305624,-0.295805,0.185878,-1.26639
1470246998327150,-0.335811,0.192749,-1.29232
1470246998349647,-0.375443,0.197064,-1.30969
1470246998365662,-0.411703,0.200076,-1.32081
1470246998387267,-0.442547,0.202258,-1.32618
1470246998402695,-0.466255,0.201653,-1.32345
1470246998425715,-0.48683,0.199484,-1.31246
1470246998447288,-0.505978,0.195851,-1.29429
1470246998462749,-0.521062,0.191618,-1.26992
1470246998485770,-0.530185,0.187701,-1.24072
1470246998514295,-0.532279,0.185408,-1.20715
1470246998522803,-0.528062,0.185612,-1.17003
1470246998545823,-0.518912,0.190051,-1.13036
1470246998568346,-0.51044,0.197449,-1.08985
1470246998589382,-0.503729,0.207088,-1.05013
1470246998605877,-0.495147,0.217992,-1.01054
1470246998628912,-0.481515,0.228595,-0.968514
1470246998649472,-0.466122,0.236912,-0.924485
1470246998665931,-0.452422,0.24426,-0.880241
1470246998687988,-0.439454,0.251263,-0.838202
1470246998709471,-0.425057,0.258171,-0.798633
1470246998725985,-0.410445,0.264314,-0.760374
1470246998748506,-0.397988,0.269602,-0.722767
1470246998769583,-0.389035,0.273496,-0.68703
1470246998793546,-0.381528,0.278258,-0.653961
1470246998808059,-0.37261,0.283645,-0.623812
1470246998829578,-0.359481,0.288431,-0.595141
1470246998845592,-0.343416,0.291983,-0.56848
1470246998868113,-0.326519,0.293605,-0.543452
1470246998889632,-0.311435,0.291311,-0.520437
1470246998906147,-0.298927,0.282751,-0.501768
1470246998928167,-0.286164,0.267269,-0.487904
1470246998949188,-0.274287,0.245937,-0.478462
1470246998965701,-0.264073,0.221892,-0.473659
1470246998988220,-0.256451,0.196626,-0.470324
1470246999009240,-0.252434,0.170512,-0.468082
1470246999025755,-0.246749,0.143142,-0.467597
1470246999048275,-0.232816,0.118617,-0.468255
1470246999069295,-0.213986,0.0987564,-0.468791
1470246999085308,-0.200993,0.0820205,-0.469361
1470246999108332,-0.196183,0.0668512,-0.469442
1470246999129350,-0.194523,0.0525393,-0.470128
1470246999145862,-0.192932,0.038642,-0.473052
1470246999168383,-0.191788,0.0237843,-0.478334
1470246999189418,-0.190545,0.00861846,-0.485627
1470246999212032,-0.187728,-0.00500433,-0.494125
1470246999228437,-0.185151,-0.0107165,-0.501254
1470246999249511,-0.18881,-0.00474504,-0.505825
1470246999264971,-0.205218,0.00360648,-0.50783
1470246999288002,-0.230413,0.00622812,-0.508768
1470246999309523,-0.248725,0.00660975,-0.51032
1470246999325026,-0.252347,0.00834148,-0.513352
1470246999348544,-0.247836,0.00982341,-0.515017
1470246999369562,-0.245858,0.00960523,-0.51478
1470246999385077,-0.247937,0.00838987,-0.514089
1470246999408100,-0.249003,0.00818594,-0.513462
1470246999430620,-0.245309,0.00918349,-0.513188
1470246999445637,-0.2399,0.0103095,-0.513516
1470246999468151,-0.23615,0.0109668,-0.514082
1470246999490672,-0.235483,0.0111409,-0.51524
1470246999505685,-0.237073,0.011216,-0.516451
1470246999528206,-0.239027,0.0116639,-0.517974
1470246999550726,-0.240883,0.0118642,-0.518576
1470246999565739,-0.241239,0.0111646,-0.519398
1470246999588262,-0.239852,0.0101103,-0.520603
1470246999610779,-0.238122,0.00918769,-0.521588
1470246999625292,-0.236929,0.00888525,-0.522524
1470246999648314,-0.237111,0.00846953,-0.523506
1470246999670834,-0.237642,0.00784993,-0.525348
1470246999685347,-0.238798,0.00721658,-0.526959
1470246999708367,-0.240106,0.00677323,-0.527714
1470246999731389,-0.2407,0.00653678,-0.528342
1470246999744900,-0.239652,0.00580894,-0.529372
1470246999768421,-0.238302,0.00489773,-0.530496
1470246999790948,-0.237605,0.00410456,-0.531273
1470246999804953,-0.237744,0.00359858,-0.531976
1470246999828476,-0.238006,0.0030467,-0.532815
1470246999850995,-0.238251,0.0019631,-0.533832
1470246999872035,-0.238749,0.00136074,-0.534545
1470246999888530,-0.240123,0.00113216,-0.535464
1470246999910550,-0.242368,0.0012434,-0.53683
1470246999933570,-0.245502,0.0013229,-0.538466
1470246999948083,-0.249211,0.00164734,-0.539904
1470246999970602,-0.252615,0.00271306,-0.541178
1470246999992123,-0.255339,0.00362509,-0.542179
1470247000008639,-0.257449,0.00419782,-0.543098
1470247000030656,-0.259507,0.0050343,-0.544052
1470247000051693,-0.261545,0.00631664,-0.544552
1470247000068191,-0.263435,0.00754928,-0.544796
1470247000090762,-0.264116,0.00862798,-0.544828
1470247000111754,-0.264508,0.00952798,-0.544978
1470247000134265,-0.265338,0.0101611,-0.545232
1470247000150764,-0.26719,0.010375,-0.545451
1470247000171783,-0.269516,0.010861,-0.545635
1470247000188299,-0.271915,0.0111927,-0.545779
1470247000210820,-0.273392,0.0113756,-0.546133
1470247000231868,-0.274498,0.0116875,-0.546207
1470247000248352,-0.275514,0.0125353,-0.546377
1470247000270876,-0.276111,0.0132689,-0.546391
1470247000291908,-0.276762,0.0132966,-0.546663
1470247000308407,-0.277269,0.0132616,-0.546806
1470247000330926,-0.27739,0.013229,-0.546811
1470247000351976,-0.27739,0.013229,-0.546811
1470247000367460,-0.277154,0.0133315,-0.546563
1470247000390979,-0.276423,0.0130496,-0.546358
1470247000413501,-0.275625,0.0125347,-0.546115
1470247000428514,-0.275118,0.0120762,-0.545929
1470247000451034,-0.275152,0.0121927,-0.545948
1470247000473554,-0.27573,0.0120569,-0.545676
1470247000489069,-0.274948,0.01204,-0.545505
1470247000510588,-0.273317,0.0127427,-0.54464
1470247000533115,-0.271823,0.014015,-0.543106
1470247000547621,-0.272523,0.014817,-0.542352
1470247000570644,-0.272644,0.0147847,-0.542357
1470247000593164,-0.272889,0.0142803,-0.542658
1470247000607675,-0.272947,0.0139466,-0.543129
1470247000630698,-0.273304,0.0137601,-0.543753
1470247000653216,-0.274126,0.0138256,-0.544448
1470247000667729,-0.275439,0.0133578,-0.545214
1470247000690750,-0.276471,0.0128534,-0.545819
1470247000713270,-0.277311,0.0125352,-0.546461
1470247000727783,-0.27781,0.0128499,-0.546924
1470247000750803,-0.277935,0.0141209,-0.547605
1470247000773324,-0.279171,0.0152468,-0.548081
1470247000787337,-0.281193,0.0155618,-0.548232
1470247000810857,-0.281914,0.0158751,-0.548173
1470247000833416,-0.281914,0.0158751,-0.548173
1470247000847393,-0.281914,0.0158751,-0.548173
1470247000870911,-0.282035,0.0158425,-0.548178
1470247000893434,-0.282069,0.0159589,-0.548198
1470247000914475,-0.282069,0.0159589,-0.548198
1470247000938472,-0.28219,0.0159263,-0.548203
1470247000953485,-0.281908,0.0159456,-0.547668
1470247000974510,-0.281671,0.0160488,-0.54742
1470247000991020,-0.281671,0.0160488,-0.54742
1470247001013540,-0.281792,0.0160163,-0.547425
1470247001034561,-0.281666,0.016065,-0.547287
1470247001051073,-0.281516,0.0159649,-0.547395
1470247001073095,-0.281516,0.0159649,-0.547395
1470247001094613,-0.281482,0.0158485,-0.547376
1470247001111131,-0.281516,0.0159649,-0.547395
1470247001133147,-0.281637,0.0159324,-0.5474
1470247001155666,-0.281637,0.0159324,-0.5474
1470247001170693,-0.281637,0.0159324,-0.5474
1470247001193201,-0.281637,0.0159324,-0.5474
1470247001214729,-0.282139,0.0159131,-0.547411
1470247001230734,-0.282139,0.0159131,-0.547411
1470247001253255,-0.28226,0.0158805,-0.547416
1470247001274775,-0.28226,0.0158805,-0.547416
1470247001290789,-0.28226,0.0158805,-0.547416
1470247001313309,-0.28226,0.0158805,-0.547416
1470247001335830,-0.282294,0.0159969,-0.547436
1470247001350843,-0.28226,0.0158805,-0.547416
1470247001373363,-0.282294,0.0159969,-0.547436
1470247001396383,-0.282294,0.0159969,-0.547436
1470247001410896,-0.282294,0.0159969,-0.547436
1470247001433417,-0.282588,0.0156665,-0.54741
1470247001455937,-0.283182,0.0154819,-0.54754
1470247001470950,-0.283182,0.0154819,-0.54754
1470247001493472,-0.283182,0.0154819,-0.54754
1470247001515490,-0.283182,0.0154819,-0.54754
1470247001530003,-0.283182,0.0154819,-0.54754
1470247001553524,-0.283182,0.0154819,-0.54754
1470247001576044,-0.283695,0.0154845,-0.547445
1470247001590057,-0.283695,0.0154845,-0.547445
1470247001613578,-0.283679,0.0154789,-0.547417
1470247001635598,-0.2838,0.0154464,-0.547422
1470247001650111,-0.283338,0.0155658,-0.547564
1470247001673132,-0.283338,0.0155658,-0.547564
1470247001695651,-0.283493,0.0156496,-0.547589
1470247001710165,-0.283493,0.0156496,-0.547589
1470247001733185,-0.283926,0.0153974,-0.54756
1470247001755705,-0.283805,0.01543,-0.547555
1470247001770220,-0.283003,0.0158506,-0.547064
1470247001799244,-0.282687,0.0152611,-0.546464
1470247001815760,-0.282902,0.0147306,-0.546133
1470247001836778,-0.283254,0.0146659,-0.545881
1470247001853294,-0.283154,0.0152347,-0.545711
1470247001875814,-0.282931,0.0149179,-0.545648
1470247001896834,-0.282368,0.0137533,-0.545975
1470247001913347,-0.282168,0.0130385,-0.545991
1470247001926359,-0.282914,0.0121292,-0.54551
1470247001941375,-0.284212,0.0110077,-0.5445
1470247001963893,-0.283791,0.0100305,-0.544081
1470247001978906,-0.281751,0.00960051,-0.543943
1470247002001426,-0.279789,0.00899992,-0.543896
1470247002023447,-0.278735,0.00836794,-0.544159
1470247002046468,-0.278581,0.0082839,-0.544136
1470247002061481,-0.27846,0.00831631,-0.544132
1470247002084001,-0.276845,0.00761361,-0.544075
1470247002098529,-0.274517,0.00658011,-0.544218
1470247002124036,-0.272811,0.00549631,-0.544376
1470247002143555,-0.271921,0.00454678,-0.544723
1470247002159069,-0.271596,0.00333429,-0.544939
1470247002181088,-0.270806,0.00193787,-0.544583
1470247002203607,-0.269229,0.000858188,-0.544515
1470247002218623,-0.267388,0.000174075,-0.544865
1470247002241142,-0.266158,-0.00014241,-0.545037
1470247002263663,-0.265337,-0.00031215,-0.545094
1470247002278675,-0.264728,-0.000679016,-0.545276
1470247002301197,-0.263739,-0.00106022,-0.545456
1470247002323715,-0.262976,-0.00151075,-0.545617
1470247002338756,-0.262541,-0.00217556,-0.545771
1470247002361249,-0.262621,-0.00285438,-0.545958
1470247002383770,-0.262446,-0.00347204,-0.54611
1470247002398798,-0.262044,-0.00402019,-0.546283
1470247002421303,-0.261719,-0.00473696,-0.546547
1470247002443824,-0.261317,-0.00528496,-0.546721
1470247002458839,-0.261337,-0.00566724,-0.546673
1470247002481359,-0.261172,-0.00626526,-0.54672
1470247002503877,-0.260713,-0.00653204,-0.546792
1470247002518891,-0.260071,-0.00701444,-0.54696
1470247002541412,-0.260037,-0.00713096,-0.546943
1470247002563931,-0.260861,-0.00697787,-0.547014
1470247002578945,-0.26158,-0.00666398,-0.546938
1470247002601465,-0.26158,-0.00666398,-0.546938
1470247002623985,-0.26158,-0.00666398,-0.546938
1470247002638998,-0.261824,-0.00625005,-0.547116
1470247002661021,-0.261706,-0.00536711,-0.547494
1470247002683538,-0.261878,-0.0048,-0.547715
1470247002698554,-0.262307,-0.00417058,-0.547798
1470247002721072,-0.262742,-0.00350622,-0.547642
1470247002743593,-0.262738,-0.00262523,-0.547758
1470247002758607,-0.262632,-0.00209373,-0.547821
1470247002781126,-0.262674,-0.00200808,-0.548105
1470247002803646,-0.263314,-0.00157636,-0.548313
1470247002818659,-0.263894,-0.000848085,-0.548286
1470247002841180,-0.263905,3.71784e-05,-0.548431
1470247002863701,-0.263559,0.000634208,-0.548487
1470247002881716,-0.263977,0.000749037,-0.548639
1470247002901234,-0.265236,0.00064984,-0.548685
1470247002923754,-0.266234,0.000998341,-0.548772
1470247002940269,-0.266234,0.000998341,-0.548772
1470247002961288,-0.265907,0.00121313,-0.548779
1470247002983810,-0.265907,0.00121313,-0.548779
1470247003000324,-0.265873,0.00109667,-0.548761
1470247003021341,-0.265993,0.00106389,-0.548765
1470247003043862,-0.265873,0.00109667,-0.548761
1470247003060378,-0.265877,0.00108111,-0.548895
1470247003081396,-0.265877,0.00108111,-0.548895
1470247003103915,-0.266412,0.00117845,-0.548918
1470247003120431,-0.267222,0.00132665,-0.548967
1470247003141449,-0.268033,0.00147481,-0.549016
1470247003163970,-0.268067,0.00159125,-0.549034
1470247003179985,-0.266955,0.00217663,-0.548954
1470247003201002,-0.266938,0.00261012,-0.548631
1470247003223523,-0.267803,0.00303827,-0.548317
1470247003242041,-0.268683,0.00347124,-0.548031
1470247003261058,-0.268804,0.00343853,-0.548035
1470247003283579,-0.2681,0.00362376,-0.548172
1470247003301595,-0.267979,0.00365648,-0.548168
1470247003321111,-0.268606,0.00358906,-0.548312
1470247003343632,-0.269228,0.00353726,-0.548322
1470247003361648,-0.269228,0.00353726,-0.548322
1470247003381165,-0.268686,0.00340388,-0.548537
1470247003403686,-0.268686,0.00340388,-0.548537
1470247003421703,-0.268686,0.00340388,-0.548537
1470247003441219,-0.268208,0.00302522,-0.548614
1470247003463739,-0.267756,0.0023561,-0.548736
1470247003481755,-0.267756,0.0023561,-0.548736
1470247003501273,-0.26779,0.00247255,-0.548754
1470247003523793,-0.26779,0.00247255,-0.548754
1470247003541809,-0.26779,0.00247255,-0.548754
1470247003561326,-0.26779,0.00247255,-0.548754
1470247003583847,-0.267756,0.0023561,-0.548736
1470247003601864,-0.267756,0.0023561,-0.548736
1470247003621380,-0.267756,0.0023561,-0.548736
1470247003643901,-0.267651,0.00239341,-0.54876
1470247003661916,-0.267651,0.00239341,-0.54876
1470247003681434,-0.267651,0.00239341,-0.54876
1470247003703955,-0.267636,0.00238886,-0.548732
1470247003721471,-0.268273,0.00234151,-0.54877
1470247003741489,-0.268967,0.00250677,-0.548949
1470247003764009,-0.268967,0.00250677,-0.548949
1470247003781524,-0.26919,0.00282334,-0.549008
1470247003801042,-0.26926,0.00360192,-0.548713
1470247003823561,-0.270024,0.00405193,-0.548557
1470247003842081,-0.270748,0.00434934,-0.548623
1470247003862598,-0.270748,0.00434934,-0.548623
1470247003883615,-0.270662,0.00449851,-0.548637
1470247003901635,-0.270662,0.00449851,-0.548637
1470247003922651,-0.270662,0.00449851,-0.548637
1470247003943671,-0.270662,0.00449851,-0.548637
1470247003961686,-0.270662,0.00449851,-0.548637
1470247003990212,-0.270662,0.00449851,-0.548637
1470247004003725,-0.270662,0.00449851,-0.548637
1470247004021798,-0.270541,0.00453124,-0.548633
1470247004042761,-0.270541,0.00453124,-0.548633
1470247004063838,-0.270144,0.00495175,-0.548309
1470247004081795,-0.270376,0.00491785,-0.54805
1470247004102813,-0.270376,0.00491785,-0.54805
1470247004123848,-0.26914,0.00461883,-0.548084
1470247004142352,-0.266727,0.00460497,-0.548507
1470247004162870,-0.265774,0.00476922,-0.549248
1470247004183885,-0.266705,0.00488451,-0.549302
1470247004201901,-0.267839,0.00483336,-0.549213
1470247004230427,-0.267959,0.00480059,-0.549217
1470247004243941,-0.267959,0.00480059,-0.549217
1470247004261457,-0.268096,0.00526641,-0.54929
1470247004284477,-0.268729,0.00572848,-0.549236
1470247004303995,-0.269767,0.00617733,-0.549481
1470247004322010,-0.270698,0.00624035,-0.54991
1470247004344030,-0.271432,0.00650565,-0.550243
1470247004363546,-0.271783,0.00638656,-0.550362
1470247004381563,-0.272203,0.00650023,-0.550517
1470247004404084,-0.27283,0.00643177,-0.550662
1470247004424603,-0.27283,0.00643177,-0.550662
1470247004440617,-0.27283,0.00643177,-0.550662
1470247004463137,-0.27283,0.00643177,-0.550662
1470247004484660,-0.27283,0.00643177,-0.550662
1470247004500671,-0.273331,0.00641196,-0.550669
1470247004523190,-0.273331,0.00641196,-0.550669
1470247004544709,-0.273366,0.00652835,-0.550688
1470247004560730,-0.273331,0.00641196,-0.550669
1470247004583244,-0.273331,0.00641196,-0.550669
1470247004604764,-0.273211,0.00644479,-0.550665
1470247004620780,-0.273331,0.00641196,-0.550669
1470247004650822,-0.273331,0.00641196,-0.550669
1470247004664839,-0.273331,0.00641196,-0.550669
1470247004680836,-0.273245,0.00656118,-0.550684
1470247004703353,-0.273245,0.00656118,-0.550684
1470247004724397,-0.273366,0.00652835,-0.550688
1470247004740886,-0.273366,0.00652835,-0.550688
1470247004763406,-0.273331,0.00641196,-0.550669
1470247004784466,-0.273331,0.00641196,-0.550669
1470247004800939,-0.273331,0.00641196,-0.550669
1470247004823961,-0.273211,0.00644479,-0.550665
1470247004845981,-0.273226,0.00644968,-0.550693
1470247004860994,-0.273226,0.00644968,-0.550693
1470247004883513,-0.273226,0.00644968,-0.550693
1470247004904534,-0.273211,0.00644479,-0.550665
1470247004921047,-0.273211,0.00644479,-0.550665
1470247004943568,-0.273331,0.00641196,-0.550669
1470247004964587,-0.273331,0.00641196,-0.550669
1470247004981101,-0.273331,0.00641196,-0.550669
1470247005003622,-0.273366,0.00652835,-0.550688
1470247005025142,-0.273766,0.00653033,-0.550852
1470247005047661,-0.273766,0.00653033,-0.550852
1470247005063176,-0.274152,0.00652735,-0.550989
1470247005084694,-0.274654,0.00650744,-0.550997
1470247005101209,-0.274654,0.00650744,-0.550997
1470247005123229,-0.274654,0.00650744,-0.550997
1470247005146251,-0.275015,0.00635599,-0.551382
1470247005160763,-0.275568,0.00607038,-0.551356
1470247005183283,-0.275568,0.00607038,-0.551356
1470247005205804,-0.275689,0.00603752,-0.55136
1470247005220817,-0.275689,0.00603752,-0.55136
1470247005243340,-0.275689,0.00603752,-0.55136
1470247005265860,-0.275723,0.00615388,-0.551379
1470247005288378,-0.275723,0.00615388,-0.551379
1470247005303892,-0.275723,0.00615388,-0.551379
1470247005326416,-0.275723,0.00615388,-0.551379
1470247005340424,-0.27581,0.00600465,-0.551365
1470247005370952,-0.275844,0.00612101,-0.551383
1470247005385966,-0.275844,0.00612101,-0.551383
1470247005400979,-0.275844,0.00612101,-0.551383
1470247005423502,-0.275844,0.00612101,-0.551383
1470247005453526,-0.275844,0.00612101,-0.551383
1470247005460038,-0.275844,0.00612101,-0.551383
1470247005483553,-0.275844,0.00612101,-0.551383
1470247005506073,-0.275844,0.00612101,-0.551383
1470247005520086,-0.275844,0.00612101,-0.551383
1470247005543607,-0.275844,0.00612101,-0.551383
1470247005566133,-0.274808,0.00653809,-0.551393
1470247005580139,-0.273641,0.00751212,-0.550465
1470247005603660,-0.27327,0.00868046,-0.54919
1470247005625680,-0.273534,0.00920286,-0.548658
1470247005647200,-0.273086,0.00950261,-0.548287
1470247005663216,-0.27273,0.0096373,-0.548035
1470247005685734,-0.272772,0.0094034,-0.547735
1470247005706754,-0.273045,0.00859001,-0.547507
1470247005723268,-0.27329,0.00764436,-0.547393
1470247005745794,-0.273602,0.00693161,-0.547316
1470247005767309,-0.273548,0.00633267,-0.547093
1470247005783321,-0.272911,0.00593824,-0.546639
1470247005805845,-0.272235,0.00539051,-0.546406
1470247005827365,-0.272929,0.00469175,-0.546332
1470247005843376,-0.274473,0.00424257,-0.546463
1470247005865897,-0.275848,0.00407518,-0.546756
1470247005886932,-0.275968,0.00404257,-0.54676
1470247005903445,-0.275882,0.00419161,-0.546775
1470247005925950,-0.275848,0.00407518,-0.546756
1470247005946998,-0.276758,0.00365603,-0.546981
1470247005963484,-0.277785,0.00322025,-0.547076
1470247005986018,-0.278625,0.00295452,-0.547343
1470247006007047,-0.279097,0.00280287,-0.547465
1470247006023537,-0.279097,0.00280287,-0.547465
1470247006046058,-0.279097,0.00280287,-0.547465
1470247006067167,-0.279402,0.00298664,-0.547378
1470247006083591,-0.279746,0.00327051,-0.547443
1470247006106113,-0.279866,0.00373123,-0.54749
1470247006128132,-0.280759,0.0041876,-0.547105
1470247006143147,-0.280725,0.00407121,-0.547086
1470247006166165,-0.280725,0.00407121,-0.547086
1470247006188215,-0.280725,0.00407121,-0.547086
1470247006203249,-0.280725,0.00407121,-0.547086
1470247006225719,-0.280432,0.00445577,-0.546739
1470247006248239,-0.280198,0.00461239,-0.54612
1470247006262754,-0.278665,0.0047659,-0.545297
1470247006285775,-0.275636,0.00548732,-0.54439
1470247006315800,-0.272193,0.00570403,-0.543249
1470247006322813,-0.269279,0.00555345,-0.541828
1470247006345827,-0.266364,0.00546556,-0.539905
1470247006368348,-0.263328,0.0053536,-0.538353
1470247006382861,-0.260485,0.0048787,-0.53731
1470247006405881,-0.258657,0.00396721,-0.536337
1470247006428401,-0.257959,0.00333225,-0.535856
1470247006442914,-0.257735,0.00302912,-0.535667
1470247006465935,-0.257855,0.0029971,-0.53567
1470247006488456,-0.258365,0.00295122,-0.535941
1470247006502468,-0.25882,0.0031707,-0.536243
1470247006525988,-0.258869,0.00377125,-0.53646
1470247006548509,-0.258905,0.0043674,-0.536649
1470247006562522,-0.258951,0.00498307,-0.536733
1470247006586043,-0.258951,0.00498307,-0.536733
1470247006608563,-0.258313,0.00539828,-0.536906
1470247006629641,-0.258313,0.00539828,-0.536906
1470247006646096,-0.258346,0.00551501,-0.536924
1470247006676123,-0.257396,0.00577605,-0.53692
1470247006689649,-0.256483,0.00608952,-0.537439
1470247006706150,-0.255693,0.00685098,-0.538134
1470247006728170,-0.256341,0.00725675,-0.538609
1470247006749693,-0.256791,0.00663948,-0.538397
1470247006766205,-0.255123,0.00573307,-0.538085
1470247006788224,-0.252225,0.0045698,-0.537445
1470247006809748,-0.249195,0.00385263,-0.536615
1470247006826258,-0.247754,0.00335728,-0.535622
1470247006848278,-0.246162,0.00325637,-0.534779
1470247006869297,-0.24381,0.00355446,-0.534478
1470247006885812,-0.241636,0.00403542,-0.53432
1470247006908837,-0.241669,0.00415231,-0.534336
1470247006929889,-0.24255,0.00451245,-0.534679
1470247006945883,-0.243274,0.00480167,-0.534868
1470247006968386,-0.243633,0.00465883,-0.535251
1470247006989910,-0.243513,0.00469084,-0.535247
1470247007005920,-0.243947,0.00444175,-0.535218
1470247007028440,-0.2441,0.0045266,-0.535238
1470247007050974,-0.244397,0.00467781,-0.535384
1470247007065975,-0.245595,0.00432475,-0.535659
1470247007088494,-0.246948,0.00368387,-0.535747
1470247007118520,-0.246778,0.00396718,-0.535906
1470247007126028,-0.246367,0.00431461,-0.536058
1470247007148548,-0.246367,0.00431461,-0.536058
1470247007171068,-0.2464,0.00443144,-0.536075
1470247007185117,-0.2464,0.00443144,-0.536075
1470247007208603,-0.2464,0.00443144,-0.536075
1470247007231122,-0.2464,0.00443144,-0.536075
1470247007245135,-0.246433,0.00454827,-0.536092
1470247007268655,-0.246732,0.00474663,-0.535866
1470247007291176,-0.247242,0.00474975,-0.535764
1470247007313696,-0.248258,0.00472288,-0.5358
1470247007328209,-0.249783,0.00469926,-0.535734
1470247007350733,-0.251054,0.00473549,-0.535634
1470247007365243,-0.251872,0.00490849,-0.535574
1470247007388263,-0.251872,0.00490849,-0.535574
1470247007410785,-0.251993,0.00487648,-0.535578
1470247007425296,-0.252026,0.00499328,-0.535595
1470247007448317,-0.251251,0.00495607,-0.535566
1470247007470837,-0.251251,0.00495607,-0.535566
1470247007485884,-0.251532,0.00462212,-0.535515
1470247007508371,-0.251532,0.00462212,-0.535515
1470247007531391,-0.251532,0.00462212,-0.535515
1470247007551922,-0.251499,0.00450532,-0.535498
1470247007568424,-0.251854,0.00437555,-0.535748
1470247007598451,-0.252513,0.00442994,-0.535907
1470247007611965,-0.253196,0.00408706,-0.536151
1470247007628479,-0.253196,0.00408706,-0.536151
1470247007650999,-0.253196,0.00408706,-0.536151
1470247007673519,-0.253196,0.00408706,-0.536151
1470247007688534,-0.253431,0.00398902,-0.536397
1470247007711053,-0.254219,0.00398129,-0.536825
1470247007732071,-0.255046,0.00370331,-0.537196
1470247007756093,-0.255753,0.00345715,-0.537562
1470247007771106,-0.256075,0.00320976,-0.537795
1470247007792137,-0.256075,0.00320976,-0.537795
1470247007808640,-0.256075,0.00320976,-0.537795
1470247007830704,-0.256075,0.00320976,-0.537795
1470247007852180,-0.256075,0.00320976,-0.537795
1470247007868194,-0.256195,0.00317762,-0.537799
1470247007891214,-0.256195,0.00317762,-0.537799
1470247007912233,-0.256195,0.00317762,-0.537799
1470247007928248,-0.256195,0.00317762,-0.537799
1470247007950771,-0.256195,0.00317762,-0.537799
1470247007973288,-0.256195,0.00317762,-0.537799
1470247007988353,-0.256195,0.00317762,-0.537799
1470247008010824,-0.256195,0.00317762,-0.537799
1470247008033344,-0.256195,0.00317762,-0.537799
1470247008048356,-0.256195,0.00317762,-0.537799
1470247008070876,-0.256195,0.00317762,-0.537799
1470247008093399,-0.256195,0.00317762,-0.537799
1470247008108410,-0.2567,0.00314642,-0.537936
1470247008130931,-0.257644,0.00327152,-0.538015
1470247008153450,-0.258211,0.00348868,-0.538054
1470247008167963,-0.258211,0.00348868,-0.538054
1470247008190984,-0.258211,0.00348868,-0.538054
1470247008213506,-0.258625,0.00362125,-0.538073
1470247008227564,-0.258625,0.00362125,-0.538073
1470247008251038,-0.258625,0.00362125,-0.538073
1470247008273557,-0.258625,0.00362125,-0.538073
1470247008288070,-0.258625,0.00362125,-0.538073
1470247008311092,-0.258658,0.00373795,-0.53809
1470247008333611,-0.258658,0.00373795,-0.53809
1470247008347624,-0.259405,0.00364218,-0.538236
1470247008371145,-0.259405,0.00364218,-0.538236
1470247008393665,-0.259405,0.00364218,-0.538236
1470247008407694,-0.259405,0.00364218,-0.538236
1470247008430701,-0.259405,0.00364218,-0.538236
1470247008459725,-0.259438,0.00375887,-0.538254
1470247008474768,-0.259438,0.00375887,-0.538254
1470247008490752,-0.259438,0.00375887,-0.538254
1470247008513273,-0.259438,0.00375887,-0.538254
1470247008534792,-0.259438,0.00375887,-0.538254
1470247008550806,-0.259438,0.00375887,-0.538254
1470247008573327,-0.259438,0.00375887,-0.538254
1470247008594888,-0.259559,0.00372671,-0.538258
1470247008610890,-0.259559,0.00372671,-0.538258
1470247008633380,-0.259559,0.00372671,-0.538258
1470247008654452,-0.259559,0.00372671,-0.538258
1470247008670915,-0.259559,0.00372671,-0.538258
1470247008693435,-0.259554,0.00374188,-0.538124
1470247008714509,-0.259554,0.00374188,-0.538124
1470247008730969,-0.259559,0.00372671,-0.538258
1470247008753489,-0.259559,0.00372671,-0.538258
1470247008774523,-0.259554,0.00374188,-0.538124
1470247008791022,-0.259675,0.00370973,-0.538128
1470247008813543,-0.259675,0.00370973,-0.538128
1470247008834613,-0.259708,0.00382643,-0.538146
1470247008851076,-0.259708,0.00382643,-0.538146
1470247008873597,-0.259708,0.00382643,-0.538146
1470247008894616,-0.259708,0.00382643,-0.538146
1470247008911130,-0.259708,0.00382643,-0.538146
1470247008933650,-0.259351,0.00390772,-0.538267
1470247008956170,-0.259351,0.00390772,-0.538267
1470247008985701,-0.259775,0.00405981,-0.538181
1470247008993704,-0.259775,0.00405981,-0.538181
1470247009015777,-0.259775,0.00405981,-0.538181
1470247009030778,-0.259374,0.00442625,-0.538228
1470247009061265,-0.259407,0.00454295,-0.538246
1470247009075780,-0.259407,0.00454295,-0.538246
1470247009090295,-0.259407,0.00454295,-0.538246
1470247009113345,-0.259407,0.00454295,-0.538246
1470247009135835,-0.259407,0.00454295,-0.538246
1470247009150345,-0.259407,0.00454295,-0.538246
1470247009173867,-0.259821,0.00467542,-0.538265
1470247009195900,-0.259821,0.00467542,-0.538265
1470247009210401,-0.259821,0.00467542,-0.538265
1470247009233419,-0.259821,0.00467542,-0.538265
1470247009263447,-0.259821,0.00467542,-0.538265
1470247009270453,-0.259821,0.00467542,-0.538265
1470247009293473,-0.259821,0.00467542,-0.538265
1470247009315993,-0.259855,0.00479211,-0.538283
1470247009330506,-0.259855,0.00479211,-0.538283
1470247009353528,-0.259855,0.00479211,-0.538283
1470247009376048,-0.259855,0.00479211,-0.538283
1470247009390561,-0.259855,0.00479211,-0.538283
1470247009413582,-0.259855,0.00479211,-0.538283
1470247009436101,-0.259855,0.00479211,-0.538283
1470247009457135,-0.259855,0.00479211,-0.538283
1470247009473635,-0.259734,0.00482426,-0.538279
1470247009496156,-0.259734,0.00482426,-0.538279
1470247009517202,-0.259734,0.00482426,-0.538279
1470247009533722,-0.259734,0.00482426,-0.538279
1470247009555709,-0.259734,0.00482426,-0.538279
1470247009577283,-0.259767,0.00494095,-0.538296
1470247009600749,-0.259767,0.00494095,-0.538296
1470247009616263,-0.259767,0.00494095,-0.538296
1470247009637282,-0.259767,0.00494095,-0.538296
1470247009653297,-0.259767,0.00494095,-0.538296
1470247009676317,-0.259767,0.00494095,-0.538296
1470247009697353,-0.259767,0.00494095,-0.538296
1470247009703846,-0.259767,0.00494095,-0.538296
1470247009718873,-0.259767,0.00494095,-0.538296
1470247009741392,-0.259921,0.0050255,-0.538318
1470247009763897,-0.259921,0.0050255,-0.538318
1470247009778910,-0.259921,0.0050255,-0.538318
1470247009801445,-0.259921,0.0050255,-0.538318
1470247009823963,-0.259921,0.0050255,-0.538318
1470247009838963,-0.259921,0.0050255,-0.538318
1470247009861484,-0.259921,0.0050255,-0.538318
1470247009884003,-0.259955,0.00514219,-0.538336
1470247009899019,-0.259955,0.00514219,-0.538336
1470247009922557,-0.259921,0.0050255,-0.538318
1470247009944058,-0.260042,0.00499335,-0.538322
1470247009959072,-0.260075,0.00511004,-0.538339
1470247009981591,-0.260075,0.00511004,-0.538339
1470247010004113,-0.260069,0.00507518,-0.538578
1470247010018625,-0.260369,0.00473012,-0.538688
1470247010043148,-0.260354,0.00472562,-0.53866
1470247010063673,-0.260402,0.0048468,-0.538705
1470247010079197,-0.260402,0.0048468,-0.538705
1470247010101199,-0.260402,0.0048468,-0.538705
1470247010124235,-0.260387,0.0048423,-0.538678
1470247010138738,-0.260387,0.0048423,-0.538678
1470247010168774,-0.260387,0.0048423,-0.538678
1470247010183788,-0.260387,0.0048423,-0.538678
1470247010198842,-0.260508,0.00481013,-0.538681
1470247010221326,-0.260508,0.00481013,-0.538681
1470247010243828,-0.260508,0.00481013,-0.538681
1470247010258841,-0.260508,0.00481013,-0.538681
1470247010284365,-0.260508,0.00481013,-0.538681
1470247010303882,-0.260541,0.00492681,-0.538699
1470247010318910,-0.260541,0.00492681,-0.538699
1470247010341434,-0.260541,0.00492681,-0.538699
1470247010372942,-0.260541,0.00492681,-0.538699
1470247010378963,-0.260508,0.00481013,-0.538681
1470247010401530,-0.260541,0.00492681,-0.538699
1470247010424042,-0.260941,0.00493174,-0.538862
1470247010446508,-0.261437,0.00493043,-0.538734
1470247010461522,-0.261437,0.00493043,-0.538734
1470247010484042,-0.261471,0.0050471,-0.538752
1470247010500557,-0.261471,0.0050471,-0.538752
1470247010521674,-0.261953,0.00491842,-0.538767
1470247010544190,-0.261953,0.00491842,-0.538767
1470247010560111,-0.261953,0.00491842,-0.538767
1470247010581129,-0.262107,0.00500291,-0.538789
1470247010604217,-0.262107,0.00500291,-0.538789
1470247010620166,-0.262107,0.00500291,-0.538789
1470247010649253,-0.262107,0.00500291,-0.538789
1470247010663707,-0.262107,0.00500291,-0.538789
1470247010680219,-0.262107,0.00500291,-0.538789
1470247010701753,-0.262107,0.00500291,-0.538789
1470247010723757,-0.262107,0.00500291,-0.538789
1470247010740272,-0.262107,0.00500291,-0.538789
1470247010761319,-0.262141,0.00511958,-0.538807
1470247010783842,-0.26202,0.00515176,-0.538803
1470247010800327,-0.26202,0.00515176,-0.538803
1470247010821375,-0.262141,0.00511958,-0.538807
1470247010843865,-0.262141,0.00511958,-0.538807
1470247010861932,-0.262141,0.00511958,-0.538807
1470247010881439,-0.262141,0.00511958,-0.538807
1470247010904009,-0.262141,0.00511958,-0.538807
1470247010921943,-0.262261,0.00508741,-0.538811
1470247010941455,-0.262261,0.00508741,-0.538811
1470247010963973,-0.262261,0.00508741,-0.538811
1470247010982010,-0.262261,0.00508741,-0.538811
1470247011004513,-0.262261,0.00508741,-0.538811
1470247011024028,-0.262829,0.00530417,-0.538852
1470247011042045,-0.26295,0.005272,-0.538856
1470247011061561,-0.26295,0.005272,-0.538856
1470247011084081,-0.26295,0.005272,-0.538856
1470247011101598,-0.26295,0.005272,-0.538856
1470247011121615,-0.26295,0.005272,-0.538856
1470247011143635,-0.26295,0.005272,-0.538856
1470247011161653,-0.262983,0.00538866,-0.538874
1470247011181732,-0.262983,0.00538866,-0.538874
1470247011203747,-0.263104,0.00535649,-0.538878
1470247011222242,-0.262792,0.00520284,-0.538701
1470247011241853,-0.262054,0.00526843,-0.538821
1470247011264243,-0.262087,0.0053851,-0.538839
1470247011281758,-0.262087,0.0053851,-0.538839
1470247011301277,-0.262208,0.00535293,-0.538842
1470247011323816,-0.261687,0.00538021,-0.538676
1470247011341813,-0.261465,0.00543384,-0.538829
1470247011361330,-0.261499,0.00555052,-0.538847
1470247011383852,-0.261484,0.00554596,-0.538819
1470247011401880,-0.261605,0.00551379,-0.538823
1470247011422885,-0.261605,0.00551379,-0.538823
1470247011443971,-0.2616,0.00552904,-0.53869
1470247011461921,-0.262056,0.00574742,-0.538994
1470247011484443,-0.26249,0.0058689,-0.539174
1470247011503972,-0.26249,0.0058689,-0.539174
1470247011522037,-0.26249,0.0058689,-0.539174
1470247011542993,-0.26249,0.0058689,-0.539174
1470247011564012,-0.263194,0.00568653,-0.539037
1470247011582028,-0.264024,0.00545668,-0.539037
1470247011602546,-0.264024,0.00545668,-0.539037
1470247011624066,-0.264024,0.00545668,-0.539037
1470247011641582,-0.264144,0.0054245,-0.539041
1470247011662601,-0.264144,0.0054245,-0.539041
1470247011684120,-0.264717,0.00562567,-0.539216
1470247011701636,-0.264838,0.00559348,-0.53922
1470247011722656,-0.264838,0.00559348,-0.53922
1470247011744243,-0.264838,0.00559348,-0.53922
1470247011762195,-0.264838,0.00559348,-0.53922
1470247011784210,-0.264717,0.00562567,-0.539216
1470247011803728,-0.264717,0.00562567,-0.539216
1470247011821744,-0.264717,0.00562567,-0.539216
1470247011844264,-0.264833,0.00560892,-0.539087
1470247011863781,-0.264867,0.00572556,-0.539105
1470247011881873,-0.264867,0.00572556,-0.539105
1470247011904351,-0.264987,0.00569338,-0.539109
1470247011924364,-0.264987,0.00569338,-0.539109
1470247011941851,-0.264987,0.00569338,-0.539109
1470247011964414,-0.264987,0.00569338,-0.539109
1470247011983942,-0.264987,0.00569338,-0.539109
1470247012001905,-0.264987,0.00569338,-0.539109
1470247012024426,-0.264987,0.00569338,-0.539109
1470247012043976,-0.264987,0.00569338,-0.539109
1470247012061459,-0.265021,0.00581003,-0.539127
1470247012084507,-0.265141,0.00577785,-0.539131
1470247012103996,-0.265141,0.00577785,-0.539131
1470247012122017,-0.26596,0.00589902,-0.539448
1470247012144534,-0.267005,0.00595088,-0.539745
1470247012164084,-0.267809,0.00606686,-0.540035
1470247012182067,-0.268387,0.00625177,-0.540345
1470247012203586,-0.268859,0.00610242,-0.540466
1470247012224605,-0.269259,0.00610658,-0.54063
1470247012241120,-0.269293,0.00622317,-0.540648
1470247012263640,-0.269293,0.00622317,-0.540648
1470247012284741,-0.269293,0.00622317,-0.540648
1470247012301174,-0.269293,0.00622317,-0.540648
1470247012323697,-0.269293,0.00622317,-0.540648
1470247012344795,-0.269293,0.00622317,-0.540648
1470247012361228,-0.269278,0.00621843,-0.540621
1470247012383747,-0.269398,0.00618617,-0.540625
1470247012404766,-0.269398,0.00618617,-0.540625
1470247012421282,-0.269398,0.00618617,-0.540625
1470247012443301,-0.269398,0.00618617,-0.540625
1470247012464821,-0.269398,0.00618617,-0.540625
1470247012480852,-0.269398,0.00618617,-0.540625
1470247012503356,-0.269519,0.00615392,-0.540629
1470247012524424,-0.269519,0.00615392,-0.540629
1470247012540938,-0.26964,0.00612167,-0.540633
1470247012563410,-0.269553,0.0062705,-0.540647
1470247012584983,-0.269553,0.0062705,-0.540647
1470247012600993,-0.269553,0.0062705,-0.540647
1470247012623463,-0.269674,0.00623825,-0.540651
1470247012644983,-0.269674,0.00623825,-0.540651
1470247012660997,-0.269674,0.00623825,-0.540651
1470247012683518,-0.269674,0.00623825,-0.540651
1470247012706038,-0.269674,0.00623825,-0.540651
1470247012721051,-0.269794,0.00620599,-0.540655
1470247012743571,-0.269794,0.00620599,-0.540655
1470247012766091,-0.269828,0.00632257,-0.540674
1470247012781105,-0.269828,0.00632257,-0.540674
1470247012803625,-0.269828,0.00632257,-0.540674
1470247012833151,-0.269828,0.00632257,-0.540674
1470247012841161,-0.269828,0.00632257,-0.540674
1470247012863679,-0.269949,0.00629032,-0.540678
1470247012886201,-0.269949,0.00629032,-0.540678
1470247012900213,-0.269949,0.00629032,-0.540678
1470247012923237,-0.269949,0.00629032,-0.540678
1470247012946252,-0.269949,0.00629032,-0.540678
1470247012960268,-0.270069,0.00625807,-0.540682
1470247012983787,-0.270069,0.00625807,-0.540682
1470247013005810,-0.270103,0.00637465,-0.5407
1470247013020322,-0.270103,0.00637465,-0.5407
1470247013043841,-0.270224,0.00634239,-0.540704
1470247013065860,-0.270224,0.00634239,-0.540704
1470247013080373,-0.270224,0.00634239,-0.540704
1470247013103394,-0.270224,0.00634239,-0.540704
1470247013126415,-0.270224,0.00634239,-0.540704
1470247013140428,-0.270224,0.00634239,-0.540704
1470247013163448,-0.270224,0.00634239,-0.540704
1470247013185970,-0.270224,0.00634239,-0.540704
1470247013200481,-0.270224,0.00634239,-0.540704
1470247013223502,-0.270224,0.00634239,-0.540704
1470247013246025,-0.270257,0.00645898,-0.540723
1470247013267099,-0.270257,0.00645898,-0.540723
1470247013283556,-0.270257,0.00645898,-0.540723
1470247013306077,-0.27088,0.00640951,-0.540734
1470247013334631,-0.271415,0.00650885,-0.54076
1470247013343610,-0.271536,0.0064766,-0.540764
1470247013366131,-0.271536,0.0064766,-0.540764
1470247013387195,-0.271536,0.0064766,-0.540764
1470247013403664,-0.271984,0.00672472,-0.540804
1470247013426186,-0.272384,0.00672866,-0.540968
1470247013447290,-0.272384,0.00672866,-0.540968
1470247013463717,-0.272384,0.00672866,-0.540968
1470247013487239,-0.272384,0.00672866,-0.540968
1470247013507273,-0.272384,0.00672866,-0.540968
1470247013523771,-0.272384,0.00672866,-0.540968
1470247013546292,-0.272384,0.00672866,-0.540968
1470247013567311,-0.272505,0.00669639,-0.540972
1470247013583327,-0.272418,0.00684521,-0.540987
1470247013613352,-0.272418,0.00684521,-0.540987
1470247013627384,-0.272539,0.00681295,-0.540991
1470247013643382,-0.272539,0.00681295,-0.540991
1470247013665902,-0.272539,0.00681295,-0.540991
1470247013688420,-0.272539,0.00681295,-0.540991
1470247013703434,-0.272539,0.00681295,-0.540991
1470247013725953,-0.272539,0.00681295,-0.540991
1470247013748474,-0.27266,0.00678069,-0.540995
1470247013763490,-0.27266,0.00678069,-0.540995
1470247013786007,-0.27266,0.00678069,-0.540995
1470247013808527,-0.272644,0.00677586,-0.540967
1470247013823040,-0.272644,0.00677586,-0.540967
1470247013846063,-0.272644,0.00677586,-0.540967
1470247013868587,-0.272644,0.00677586,-0.540967
1470247013882634,-0.272765,0.0067436,-0.540971
1470247013906115,-0.272644,0.00677586,-0.540967
1470247013928635,-0.272644,0.00677586,-0.540967
1470247013943150,-0.272644,0.00677586,-0.540967
1470247013966169,-0.272644,0.00677586,-0.540967
1470247013988690,-0.272644,0.00677586,-0.540967
1470247014002704,-0.272765,0.0067436,-0.540971
1470247014026223,-0.272765,0.0067436,-0.540971
1470247014048743,-0.272765,0.0067436,-0.540971
1470247014062755,-0.272992,0.0070451,-0.541164
1470247014086276,-0.273169,0.00722517,-0.541311
1470247014109299,-0.273821,0.00767879,-0.541421
1470247014122809,-0.273821,0.00767879,-0.541421
1470247014145830,-0.274379,0.00787351,-0.541572
1470247014168351,-0.2745,0.00784123,-0.541577
1470247014189372,-0.2745,0.00784123,-0.541577
1470247014205913,-0.274379,0.00787351,-0.541572
1470247014228404,-0.274413,0.00799004,-0.541591
1470247014256964,-0.274534,0.00795776,-0.541595
1470247014265938,-0.274534,0.00795776,-0.541595
1470247014288459,-0.274534,0.00795776,-0.541595
1470247014309478,-0.274534,0.00795776,-0.541595
1470247014333539,-0.274534,0.00795776,-0.541595
1470247014348512,-0.274534,0.00795776,-0.541595
1470247014369531,-0.274534,0.00795776,-0.541595
1470247014386046,-0.274534,0.00795776,-0.541595
1470247014408566,-0.274655,0.00792547,-0.5416
1470247014429612,-0.274371,0.00827629,-0.541519
1470247014446100,-0.274283,0.0084251,-0.541533
1470247014468622,-0.274819,0.0085241,-0.54156
1470247014489639,-0.274819,0.0085241,-0.54156
1470247014506156,-0.274819,0.0085241,-0.54156
1470247014528679,-0.274853,0.00864063,-0.541579
1470247014549752,-0.274853,0.00864063,-0.541579
1470247014566207,-0.274973,0.00860836,-0.541583
1470247014588728,-0.274973,0.00860836,-0.541583
1470247014609746,-0.274973,0.00860836,-0.541583
1470247014626768,-0.274973,0.00860836,-0.541583
1470247014648334,-0.274973,0.00860836,-0.541583
1470247014670809,-0.274973,0.00860836,-0.541583
1470247014685822,-0.275007,0.00872489,-0.541602
1470247014708841,-0.275007,0.00872489,-0.541602
1470247014730861,-0.275128,0.00869261,-0.541606
1470247014745374,-0.275128,0.00869261,-0.541606
1470247014768396,-0.275128,0.00869261,-0.541606
1470247014790914,-0.275128,0.00869261,-0.541606
1470247014805428,-0.275128,0.00869261,-0.541606
1470247014828448,-0.275128,0.00869261,-0.541606
1470247014850977,-0.275128,0.00869261,-0.541606
1470247014865482,-0.275162,0.00880914,-0.541625
1470247014888503,-0.275162,0.00880914,-0.541625
1470247014918529,-0.275162,0.00880914,-0.541625
1470247014925537,-0.275162,0.00880914,-0.541625
1470247014948559,-0.275162,0.00880914,-0.541625
1470247014971076,-0.275157,0.00882513,-0.541492
1470247014985589,-0.275278,0.00879286,-0.541497
1470247015008613,-0.275278,0.00879286,-0.541497
1470247015031130,-0.275191,0.00894167,-0.541511
1470247015045164,-0.275312,0.0089094,-0.541515
1470247015068664,-0.275312,0.0089094,-0.541515
1470247015091185,-0.275312,0.0089094,-0.541515
1470247015105229,-0.275312,0.0089094,-0.541515
1470247015128718,-0.275312,0.0089094,-0.541515
1470247015151238,-0.275312,0.0089094,-0.541515
1470247015172257,-0.275312,0.0089094,-0.541515
1470247015188273,-0.275345,0.00902593,-0.541534
1470247015210797,-0.275225,0.0090582,-0.54153
1470247015232311,-0.275225,0.0090582,-0.54153
1470247015248325,-0.275225,0.0090582,-0.54153
1470247015278355,-0.275225,0.0090582,-0.54153
1470247015292365,-0.275225,0.0090582,-0.54153
1470247015308381,-0.275225,0.0090582,-0.54153
1470247015330902,-0.275258,0.00917473,-0.541549
1470247015352480,-0.275379,0.00914246,-0.541553
1470247015368435,-0.275379,0.00914246,-0.541553
1470247015390953,-0.275379,0.00914246,-0.541553
1470247015412506,-0.275379,0.00914246,-0.541553
1470247015428489,-0.275379,0.00914246,-0.541553
1470247015451011,-0.275413,0.00925899,-0.541572
1470247015473527,-0.275413,0.00925899,-0.541572
1470247015488541,-0.275534,0.00922672,-0.541576
1470247015511063,-0.275534,0.00922672,-0.541576
1470247015532110,-0.275534,0.00922672,-0.541576
1470247015548608,-0.275534,0.00922672,-0.541576
1470247015571121,-0.274867,0.00913904,-0.54165
1470247015593635,-0.274171,0.00891897,-0.541839
1470247015608650,-0.273679,0.00890478,-0.542097
1470247015631170,-0.273558,0.00893709,-0.542093
1470247015653689,-0.273558,0.00893709,-0.542093
1470247015668703,-0.273679,0.00890478,-0.542097
1470247015691224,-0.273713,0.00902132,-0.542116
1470247015713744,-0.273713,0.00902132,-0.542116
1470247015727756,-0.273713,0.00902132,-0.542116
1470247015750776,-0.273713,0.00902132,-0.542116
1470247015773297,-0.273713,0.00902132,-0.542116
1470247015787811,-0.273747,0.00913786,-0.542134
1470247015810830,-0.273747,0.00913786,-0.542134
1470247015833350,-0.273747,0.00913786,-0.542134
1470247015847864,-0.273713,0.00902132,-0.542116
1470247015870884,-0.273731,0.00913287,-0.542107
1470247015893406,-0.273852,0.00910056,-0.542111
1470247015907918,-0.273731,0.00913287,-0.542107
1470247015930940,-0.273731,0.00913287,-0.542107
1470247015953458,-0.273852,0.00910056,-0.542111
1470247015967972,-0.274215,0.00900364,-0.542124
1470247015990992,-0.274248,0.00912017,-0.542143
1470247016013514,-0.274248,0.00912017,-0.542143
1470247016028028,-0.274248,0.00912017,-0.542143
1470247016051046,-0.274248,0.00912017,-0.542143
1470247016073567,-0.274248,0.00912017,-0.542143
1470247016094587,-0.274248,0.00912017,-0.542143
1470247016111101,-0.274248,0.00912017,-0.542143
1470247016133620,-0.274282,0.00923671,-0.542161
1470247016154640,-0.274282,0.00923671,-0.542161
1470247016171156,-0.274282,0.00923671,-0.542161
1470247016193677,-0.274282,0.00923671,-0.542161
1470247016214696,-0.274282,0.00923671,-0.542161
1470247016231207,-0.274282,0.00923671,-0.542161
1470247016253728,-0.274282,0.00923671,-0.542161
1470247016274804,-0.274282,0.00923671,-0.542161
1470247016291261,-0.274282,0.00923671,-0.542161
1470247016313782,-0.274282,0.00923671,-0.542161
1470247016334801,-0.274403,0.0092044,-0.542166
1470247016350817,-0.274282,0.00923671,-0.542161
1470247016373335,-0.274437,0.00932093,-0.542184
1470247016394854,-0.274437,0.00932093,-0.542184
1470247016410870,-0.274437,0.00932093,-0.542184
1470247016433390,-0.274437,0.00932093,-0.542184
1470247016454443,-0.274437,0.00932093,-0.542184
1470247016470971,-0.274437,0.00932093,-0.542184
1470247016493449,-0.274437,0.00932093,-0.542184
1470247016514979,-0.274437,0.00932093,-0.542184
1470247016530979,-0.274471,0.00943746,-0.542203
1470247016553497,-0.274471,0.00943746,-0.542203
1470247016576017,-0.274437,0.00932093,-0.542184
1470247016591031,-0.274861,0.00942012,-0.542474
1470247016613552,-0.275459,0.00971484,-0.542777
1470247016636072,-0.275912,0.00994626,-0.542953
1470247016651085,-0.275912,0.00994626,-0.542953
1470247016673605,-0.275912,0.00994626,-0.542953
1470247016702633,-0.275917,0.00993025,-0.543086
1470247016710655,-0.275912,0.00994626,-0.542953
1470247016733659,-0.275912,0.00994626,-0.542953
1470247016756734,-0.275825,0.0100951,-0.542967
1470247016770193,-0.275946,0.0100628,-0.542972
1470247016793713,-0.275946,0.0100628,-0.542972
1470247016816736,-0.275946,0.0100628,-0.542972
1470247016830245,-0.275946,0.0100628,-0.542972
1470247016853298,-0.275946,0.0100628,-0.542972
1470247016876287,-0.275946,0.0100628,-0.542972
1470247016890314,-0.275946,0.0100628,-0.542972
1470247016913322,-0.275946,0.0100628,-0.542972
1470247016935865,-0.275946,0.0100628,-0.542972
1470247016950362,-0.275946,0.0100628,-0.542972
1470247016973417,-0.275946,0.0100628,-0.542972
1470247016995895,-0.27598,0.0101793,-0.542991
1470247017010410,-0.27598,0.0101793,-0.542991
1470247017033429,-0.27598,0.0101793,-0.542991
1470247017055977,-0.275859,0.0102116,-0.542986
1470247017077004,-0.276005,0.0106988,-0.542957
1470247017093488,-0.276396,0.0112275,-0.5429
1470247017116003,-0.276813,0.0117293,-0.543137
1470247017137527,-0.277141,0.0120089,-0.543176
1470247017153536,-0.277141,0.0120089,-0.543176
1470247017176057,-0.277141,0.0120089,-0.543176
1470247017197592,-0.277141,0.0120089,-0.543176
1470247017213590,-0.27702,0.0120413,-0.543172
1470247017236110,-0.27702,0.0120413,-0.543172
1470247017257131,-0.276749,0.0119734,-0.543277
1470247017273646,-0.276334,0.0118427,-0.543253
1470247017296197,-0.275489,0.0115759,-0.543178
1470247017317183,-0.274354,0.0116232,-0.543261
1470247017339747,-0.272471,0.0117168,-0.543565
1470247017356217,-0.270439,0.0117111,-0.543981
1470247017384743,-0.269528,0.0120764,-0.544126
1470247017393751,-0.270528,0.0124792,-0.54385
1470247017415771,-0.27173,0.0127167,-0.543432
1470247017437382,-0.271851,0.0126844,-0.543436
1470247017453806,-0.27074,0.0128799,-0.543272
1470247017459311,-0.270774,0.0129965,-0.543291
1470247017481344,-0.271565,0.012664,-0.543142
1470247017504350,-0.272873,0.0123188,-0.54303
1470247017518864,-0.273495,0.0122685,-0.543043
1470247017541384,-0.273495,0.0122685,-0.543043
1470247017563904,-0.273495,0.0122685,-0.543043
1470247017586424,-0.273771,0.0123203,-0.543071
1470247017601438,-0.274393,0.01227,-0.543085
1470247017623959,-0.274393,0.01227,-0.543085
1470247017638971,-0.274393,0.01227,-0.543085
1470247017661493,-0.274393,0.01227,-0.543085
1470247017684015,-0.274393,0.01227,-0.543085
1470247017699025,-0.274393,0.01227,-0.543085
1470247017721545,-0.274427,0.0123865,-0.543104
1470247017747068,-0.274427,0.0123865,-0.543104
1470247017759080,-0.274427,0.0123865,-0.543104
1470247017781601,-0.274427,0.0123865,-0.543104
1470247017804138,-0.274427,0.0123865,-0.543104
1470247017819161,-0.274427,0.0123865,-0.543104
1470247017841656,-0.274427,0.0123865,-0.543104
1470247017864174,-0.274427,0.0123865,-0.543104
1470247017879216,-0.274427,0.0123865,-0.543104
1470247017901788,-0.274427,0.0123865,-0.543104
1470247017923728,-0.274427,0.0123865,-0.543104
1470247017939263,-0.274427,0.0123865,-0.543104
1470247017961277,-0.274461,0.012503,-0.543123
1470247017984308,-0.274427,0.0123865,-0.543104
1470247017999338,-0.274427,0.0123865,-0.543104
1470247018024318,-0.274427,0.0123865,-0.543104
1470247018044337,-0.274427,0.0123865,-0.543104
1470247018058852,-0.27421,0.0121062,-0.542804
1470247018081369,-0.274114,0.0117935,-0.542508
1470247018103921,-0.274114,0.0117935,-0.542508
1470247018120433,-0.274114,0.0117935,-0.542508
1470247018141470,-0.274114,0.0117935,-0.542508
1470247018164001,-0.274114,0.0117935,-0.542508
1470247018186520,-0.274114,0.0117935,-0.542508
1470247018201526,-0.274114,0.0117935,-0.542508
1470247018224051,-0.274114,0.0117935,-0.542508
1470247018240541,-0.274114,0.0117935,-0.542508
1470247018261574,-0.273394,0.0119715,-0.542615
1470247018284106,-0.27269,0.0121548,-0.542749
1470247018302095,-0.27269,0.0121548,-0.542749
1470247018321612,-0.27269,0.0121548,-0.542749
1470247018344160,-0.27269,0.0121548,-0.542749
1470247018360647,-0.27269,0.0121548,-0.542749
1470247018381680,-0.27269,0.0121548,-0.542749
1470247018404224,-0.27269,0.0121548,-0.542749
1470247018422719,-0.27269,0.0121548,-0.542749
1470247018441829,-0.272656,0.0120383,-0.54273
1470247018464267,-0.272569,0.0121871,-0.542745
1470247018481756,-0.272569,0.0121871,-0.542745
1470247018501278,-0.273037,0.0120527,-0.542735
1470247018524295,-0.273037,0.0120527,-0.542735
1470247018541810,-0.273037,0.0120527,-0.542735
1470247018561328,-0.273003,0.0119361,-0.542716
1470247018586864,-0.273003,0.0119361,-0.542716
1470247018601869,-0.273003,0.0119361,-0.542716
1470247018621409,-0.273496,0.0117752,-0.543
1470247018644478,-0.273968,0.0116248,-0.543123
1470247018661945,-0.273968,0.0116248,-0.543123
1470247018681940,-0.273968,0.0116248,-0.543123
1470247018704474,-0.273968,0.0116248,-0.543123
1470247018721974,-0.274248,0.0112896,-0.543071
1470247018741490,-0.274248,0.0112896,-0.543071
1470247018771516,-0.274248,0.0112896,-0.543071
1470247018782084,-0.274248,0.0112896,-0.543071
1470247018801578,-0.274248,0.0112896,-0.543071
1470247018824098,-0.274248,0.0112896,-0.543071
1470247018842087,-0.274248,0.0112896,-0.543071
1470247018863098,-0.274248,0.0112896,-0.543071
1470247018884120,-0.274248,0.0112896,-0.543071
1470247018902134,-0.274248,0.0112896,-0.543071
1470247018921651,-0.274253,0.0112737,-0.543204
1470247018944174,-0.274373,0.0112413,-0.543208
1470247018962188,-0.274373,0.0112413,-0.543208
1470247018981205,-0.274373,0.0112413,-0.543208
1470247019004260,-0.274339,0.0111248,-0.543189
1470247019022332,-0.274339,0.0111248,-0.543189
1470247019043261,-0.274339,0.0111248,-0.543189
1470247019064279,-0.274339,0.0111248,-0.543189
1470247019081829,-0.27446,0.0110925,-0.543194
1470247019102861,-0.274339,0.0111248,-0.543189
1470247019124465,-0.274339,0.0111248,-0.543189
1470247019141890,-0.27446,0.0110925,-0.543194
1470247019164370,-0.27446,0.0110925,-0.543194
1470247019184414,-0.27446,0.0110925,-0.543194
1470247019201903,-0.27446,0.0110925,-0.543194
1470247019222922,-0.27446,0.0110925,-0.543194
1470247019244032,-0.274426,0.0109759,-0.543175
1470247019261959,-0.274426,0.0109759,-0.543175
1470247019282976,-0.274426,0.0109759,-0.543175
1470247019304050,-0.27446,0.0110925,-0.543194
1470247019322046,-0.27446,0.0110925,-0.543194
1470247019343030,-0.27446,0.0110925,-0.543194
1470247019364064,-0.27446,0.0110925,-0.543194
1470247019382065,-0.27446,0.0110925,-0.543194
1470247019404585,-0.27446,0.0110925,-0.543194
1470247019424102,-0.27446,0.0110925,-0.543194
1470247019442128,-0.274581,0.0110601,-0.543198
1470247019464638,-0.274581,0.0110601,-0.543198
1470247019484187,-0.274581,0.0110601,-0.543198
1470247019502174,-0.274581,0.0110601,-0.543198
1470247019524706,-0.274581,0.0110601,-0.543198
1470247019544238,-0.274581,0.0110601,-0.543198
1470247019561726,-0.274581,0.0110601,-0.543198
1470247019584252,-0.274581,0.0110601,-0.543198
1470247019604264,-0.274615,0.0111766,-0.543217
1470247019621779,-0.274615,0.0111766,-0.543217
1470247019644300,-0.274581,0.0110601,-0.543198
1470247019663817,-0.274702,0.0110278,-0.543203
1470247019681834,-0.274702,0.0110278,-0.543203
1470247019704389,-0.274736,0.0111443,-0.543222
1470247019724372,-0.274736,0.0111443,-0.543222
1470247019741889,-0.274736,0.0111443,-0.543222
1470247019764409,-0.274339,0.0111248,-0.543189
1470247019783925,-0.274339,0.0111248,-0.543189
1470247019801944,-0.27446,0.0110925,-0.543194
1470247019824520,-0.27446,0.0110925,-0.543194
1470247019843982,-0.274339,0.0111248,-0.543189
1470247019861996,-0.27446,0.0110925,-0.543194
1470247019884516,-0.27446,0.0110925,-0.543194
1470247019904066,-0.27446,0.0110925,-0.543194
1470247019922123,-0.27446,0.0110925,-0.543194
1470247019944570,-0.27446,0.0110925,-0.543194
1470247019964116,-0.274021,0.0113594,-0.54309
1470247019981106,-0.273428,0.0115421,-0.542962
1470247020003623,-0.272708,0.0117203,-0.543069
1470247020024642,-0.272057,0.0121841,-0.542842
1470247020041157,-0.271976,0.0123696,-0.542617
1470247020063677,-0.270909,0.0132477,-0.542038
1470247020086197,-0.270186,0.0139171,-0.54148
1470247020101211,-0.270393,0.0142815,-0.541141
1470247020123731,-0.270447,0.0149332,-0.540992
1470247020146251,-0.270147,0.0152786,-0.540883
1470247020161265,-0.269674,0.0154282,-0.540759
1470247020183784,-0.268661,0.0154941,-0.540475
1470247020204805,-0.267764,0.0154913,-0.540433
1470247020221320,-0.268425,0.015543,-0.540599
1470247020243839,-0.268425,0.015543,-0.540599
1470247020264857,-0.268304,0.0155751,-0.540594
1470247020281373,-0.268816,0.0155267,-0.54087
1470247020303893,-0.269433,0.0154926,-0.54075
1470247020325912,-0.269467,0.0156092,-0.540769
1470247020340926,-0.269255,0.0153124,-0.540603
1470247020363446,-0.268719,0.0152132,-0.540575
1470247020385966,-0.268014,0.0150242,-0.540496
1470247020400479,-0.267836,0.0148438,-0.540349
1470247020423501,-0.267715,0.014876,-0.540345
1470247020446021,-0.267715,0.014876,-0.540345
1470247020468541,-0.267715,0.014876,-0.540345
1470247020483553,-0.267682,0.0147594,-0.540326
1470247020506074,-0.267682,0.0147594,-0.540326
1470247020520587,-0.267715,0.014876,-0.540345
1470247020551116,-0.267836,0.0148438,-0.540349
1470247020566127,-0.26732,0.0148559,-0.540313
1470247020580140,-0.26706,0.0148088,-0.540313
1470247020603661,-0.266731,0.015022,-0.540318
1470247020626182,-0.266611,0.0150542,-0.540313
1470247020641195,-0.267387,0.0150892,-0.54035
1470247020663717,-0.267904,0.0150771,-0.540386
1470247020686236,-0.267904,0.0150771,-0.540386
1470247020700749,-0.267904,0.0150771,-0.540386
1470247020723769,-0.267937,0.0151937,-0.540405
1470247020746290,-0.267904,0.0150771,-0.540386
1470247020760302,-0.268024,0.0150449,-0.540391
1470247020783824,-0.268058,0.0151615,-0.540409
1470247020806343,-0.268058,0.0151615,-0.540409
1470247020827405,-0.268058,0.0151615,-0.540409
1470247020843877,-0.268058,0.0151615,-0.540409
1470247020866420,-0.268164,0.0151241,-0.540386
1470247020887418,-0.268164,0.0151241,-0.540386
1470247020903431,-0.26813,0.0150075,-0.540368
1470247020926451,-0.268251,0.0149753,-0.540372
1470247020947471,-0.268285,0.015092,-0.540391
1470247020963487,-0.268285,0.015092,-0.540391
1470247020994014,-0.268685,0.0150965,-0.540556
1470247021007576,-0.268806,0.0150644,-0.540561
1470247021023538,-0.268835,0.0151965,-0.540446
1470247021046059,-0.268835,0.0151965,-0.540446
1470247021067120,-0.268835,0.0151965,-0.540446
1470247021083596,-0.269414,0.0153813,-0.540759
1470247021106112,-0.269414,0.0153813,-0.540759
1470247021127632,-0.269414,0.0153813,-0.540759
1470247021143647,-0.26952,0.0153438,-0.540736
1470247021166166,-0.26966,0.0157947,-0.540944
1470247021187213,-0.269781,0.0157625,-0.540949
1470247021203702,-0.269781,0.0157625,-0.540949
1470247021226221,-0.269781,0.0157625,-0.540949
1470247021247254,-0.269781,0.0157625,-0.540949
1470247021263755,-0.269902,0.0157303,-0.540953
1470247021286276,-0.269921,0.0158416,-0.540945
1470247021308797,-0.269921,0.0158416,-0.540945
1470247021323807,-0.269921,0.0158416,-0.540945
1470247021353835,-0.270041,0.0158094,-0.540949
1470247021368877,-0.270041,0.0158094,-0.540949
1470247021383862,-0.270041,0.0158094,-0.540949
1470247021405922,-0.270041,0.0158094,-0.540949
1470247021428407,-0.270162,0.0157772,-0.540954
1470247021442915,-0.270862,0.0159294,-0.541272
1470247021473442,-0.271563,0.0160815,-0.54159
1470247021488456,-0.271684,0.0160492,-0.541595
1470247021502969,-0.271684,0.0160492,-0.541595
1470247021525990,-0.272538,0.0159138,-0.541724
1470247021548512,-0.273272,0.016182,-0.542062
1470247021563023,-0.273958,0.016328,-0.542353
1470247021586044,-0.274659,0.0164792,-0.542672
1470247021608564,-0.274693,0.0165957,-0.542691
1470247021623076,-0.274693,0.0165957,-0.542691
1470247021646097,-0.274693,0.0165957,-0.542691
1470247021668618,-0.274693,0.0165957,-0.542691
1470247021689679,-0.274848,0.01668,-0.542715
1470247021706152,-0.274848,0.01668,-0.542715
1470247021728672,-0.274848,0.01668,-0.542715
1470247021743184,-0.274848,0.01668,-0.542715
1470247021766205,-0.274969,0.0166477,-0.54272
1470247021788725,-0.274969,0.0166477,-0.54272
1470247021809745,-0.274654,0.016495,-0.542539
1470247021826260,-0.274383,0.0164801,-0.542272
1470247021848780,-0.274002,0.0164658,-0.542267
1470247021869878,-0.273847,0.0163815,-0.542243
1470247021886312,-0.273847,0.0163815,-0.542243
1470247021908832,-0.273968,0.0163492,-0.542247
1470247021929896,-0.273968,0.0163492,-0.542247
1470247021945914,-0.273968,0.0163492,-0.542247
1470247021968387,-0.274475,0.0163155,-0.542391
1470247021989906,-0.274509,0.016432,-0.54241
1470247022006421,-0.274509,0.016432,-0.54241
1470247022029442,-0.27463,0.0163998,-0.542414
1470247022050025,-0.27463,0.0163998,-0.542414
1470247022065975,-0.27463,0.0163998,-0.542414
1470247022088498,-0.27463,0.0163998,-0.542414
1470247022110017,-0.274751,0.0163675,-0.542419
1470247022126530,-0.274751,0.0163675,-0.542419
1470247022148549,-0.274745,0.0163833,-0.542286
1470247022169567,-0.274885,0.0164622,-0.542282
1470247022185583,-0.274909,0.0160644,-0.542362
1470247022208605,-0.274421,0.0156634,-0.542538
1470247022231124,-0.274011,0.0155167,-0.542647
1470247022246137,-0.27388,0.0150347,-0.542704
1470247022268657,-0.27344,0.0143842,-0.542714
1470247022291177,-0.272874,0.0137818,-0.542586
1470247022306693,-0.272194,0.0136199,-0.542429
1470247022334759,-0.272068,0.0137204,-0.54192
1470247022351232,-0.272869,0.0139028,-0.54171
1470247022366244,-0.273024,0.0139871,-0.541733
1470247022388764,-0.272922,0.0135848,-0.542048
1470247022411286,-0.272343,0.0128027,-0.542435
1470247022425797,-0.272419,0.0120871,-0.542855
1470247022448818,-0.272805,0.0115398,-0.543321
1470247022471338,-0.27306,0.0110038,-0.543888
1470247022493859,-0.273218,0.0109669,-0.544789
1470247022508872,-0.272778,0.0110765,-0.545801
1470247022531394,-0.272942,0.0110238,-0.546835
1470247022545405,-0.273298,0.0108366,-0.54746
1470247022568425,-0.272728,0.0105703,-0.547786
1470247022590975,-0.270337,0.00983826,-0.547696
1470247022605459,-0.267251,0.00894037,-0.547427
1470247022628479,-0.264606,0.00733165,-0.546855
1470247022651003,-0.262362,0.00535318,-0.546242
1470247022665513,-0.260603,0.00324304,-0.54565
1470247022688534,-0.258685,0.00101311,-0.545283
1470247022711053,-0.257024,-0.000783689,-0.544995
1470247022732077,-0.256279,-0.00246743,-0.54473
1470247022748589,-0.256724,-0.0041098,-0.544683
1470247022771108,-0.257171,-0.00527238,-0.544806
1470247022792159,-0.257478,-0.00602002,-0.544974
1470247022808643,-0.257815,-0.00663591,-0.545024
1470247022831162,-0.257926,-0.00718271,-0.545097
1470247022859690,-0.25705,-0.00756597,-0.54502
1470247022868695,-0.255884,-0.00763331,-0.545102
1470247022891216,-0.254744,-0.00755386,-0.544934
1470247022912265,-0.254173,-0.00775434,-0.544766
1470247022936256,-0.253541,-0.0076591,-0.544361
1470247022951286,-0.25275,-0.00726197,-0.54401
1470247022973790,-0.2523,-0.00658033,-0.543716
1470247022988803,-0.251955,-0.00593511,-0.543397
1470247023011324,-0.25164,-0.00515851,-0.542961
1470247023032362,-0.251582,-0.00389959,-0.542223
1470247023048357,-0.251524,-0.00264072,-0.541485
1470247023070936,-0.251354,-0.00133076,-0.540638
1470247023092396,-0.252148,-0.000155851,-0.539648
1470247023108411,-0.253817,0.000910953,-0.538702
1470247023138439,-0.255927,0.00176405,-0.53749
1470247023151951,-0.258036,0.00261976,-0.536281
1470247023168465,-0.2596,0.00390177,-0.534826
1470247023191031,-0.260583,0.00531927,-0.533648
1470247023213507,-0.261628,0.00644209,-0.532707
1470247023228518,-0.263675,0.00753637,-0.531782
1470247023251082,-0.26592,0.00843219,-0.530955
1470247023273559,-0.267427,0.00939198,-0.530249
1470247023288574,-0.268277,0.0102304,-0.529886
1470247023311092,-0.269224,0.0108895,-0.529775
1470247023333613,-0.27032,0.0116496,-0.529555
1470247023348126,-0.271341,0.0121558,-0.529405
1470247023371149,-0.272106,0.0125977,-0.529387
1470247023393667,-0.272091,0.0125926,-0.52936
1470247023408200,-0.272091,0.0125926,-0.52936
1470247023431200,-0.272546,0.0123339,-0.529491
1470247023453723,-0.272531,0.0123288,-0.529464
1470247023468248,-0.272685,0.012414,-0.529487
1470247023491254,-0.272325,0.0119627,-0.529801
1470247023513808,-0.272401,0.0112633,-0.530087
1470247023527787,-0.27225,0.0106322,-0.530392
1470247023551308,-0.271924,0.0099268,-0.530514
1470247023573828,-0.271256,0.00930557,-0.530784
1470247023587840,-0.270599,0.0087051,-0.530949
1470247023610862,-0.270025,0.0084501,-0.531142
1470247023633410,-0.270025,0.0084501,-0.531142
1470247023647894,-0.270025,0.0084501,-0.531142
1470247023670916,-0.270025,0.0084501,-0.531142
1470247023693936,-0.269745,0.00841243,-0.530983
1470247023714982,-0.269547,0.00861301,-0.530887
1470247023730969,-0.269547,0.00861301,-0.530887
1470247023753491,-0.269938,0.00865048,-0.530786
1470247023775008,-0.269938,0.00865048,-0.530786
1470247023791025,-0.269938,0.00865048,-0.530786
1470247023813545,-0.270059,0.00861882,-0.53079
1470247023834607,-0.270092,0.00873557,-0.530808
1470247023851079,-0.270077,0.00873075,-0.530781
1470247023873598,-0.270077,0.00873075,-0.530781
1470247023894617,-0.270077,0.00873075,-0.530781
1470247023911133,-0.270864,0.00879004,-0.53071
1470247023933667,-0.271608,0.00871203,-0.530726
1470247023954671,-0.271729,0.00868038,-0.53073
1470247023971185,-0.271729,0.00868038,-0.53073
1470247023999790,-0.271724,0.0086962,-0.530598
1470247024014766,-0.271757,0.00881293,-0.530616
1470247024031240,-0.271316,0.00902466,-0.530884
1470247024053761,-0.271316,0.00902466,-0.530884
1470247024076782,-0.271316,0.00902466,-0.530884
1470247024091294,-0.271437,0.008993,-0.530888
1470247024113813,-0.271437,0.008993,-0.530888
1470247024136333,-0.271437,0.008993,-0.530888
1470247024151347,-0.271437,0.008993,-0.530888
1470247024173867,-0.27093,0.00902352,-0.530747
1470247024195887,-0.270149,0.0090005,-0.53058
1470247024217408,-0.26934,0.00884494,-0.530527
1470247024233420,-0.269071,0.0088276,-0.530262
1470247024256442,-0.268791,0.00878974,-0.530102
1470247024270454,-0.268307,0.00843795,-0.529911
1470247024293474,-0.267526,0.00841443,-0.529745
1470247024316000,-0.266928,0.0086083,-0.529486
1470247024330508,-0.266008,0.00850404,-0.529325
1470247024353533,-0.265349,0.00844853,-0.529163
1470247024376049,-0.265004,0.0081767,-0.528967
1470247024390562,-0.264557,0.00792566,-0.528929
1470247024413583,-0.264019,0.00783835,-0.528771
1470247024436102,-0.26348,0.00775095,-0.528613
1470247024450618,-0.263168,0.00759575,-0.528437
1470247024473636,-0.262909,0.00754663,-0.528438
1470247024496156,-0.262481,0.0074076,-0.528391
1470247024526184,-0.261859,0.00745309,-0.52838
1470247024533693,-0.261468,0.00741565,-0.528483
1470247024556210,-0.261156,0.0072603,-0.528307
1470247024570724,-0.260868,0.00707905,-0.528423
1470247024593744,-0.260868,0.00707905,-0.528423
1470247024616264,-0.260747,0.0071106,-0.528419
1470247024637284,-0.260357,0.00707323,-0.528523
1470247024653798,-0.260357,0.00707323,-0.528523
1470247024676320,-0.260478,0.00704167,-0.528527
1470247024697339,-0.26005,0.00690265,-0.52848
1470247024713355,-0.26005,0.00690265,-0.52848
1470247024742379,-0.25979,0.00685346,-0.528481
1470247024757426,-0.2594,0.00681615,-0.528585
1470247024773405,-0.2594,0.00681615,-0.528585
1470247024795926,-0.259432,0.00693301,-0.528602
1470247024817445,-0.259191,0.00699615,-0.528594
1470247024833960,-0.25907,0.00702771,-0.528591
1470247024856480,-0.259191,0.00699615,-0.528594
1470247024879000,-0.259191,0.00699615,-0.528594
1470247024893513,-0.259191,0.00699615,-0.528594
1470247024916033,-0.259191,0.00699615,-0.528594
1470247024937052,-0.258805,0.0069438,-0.528831
1470247024953568,-0.258772,0.00682695,-0.528813
1470247024976089,-0.258772,0.00682695,-0.528813
1470247024997106,-0.258772,0.00682695,-0.528813
1470247025013621,-0.258805,0.0069438,-0.528831
1470247025036142,-0.258772,0.00682695,-0.528813
1470247025057161,-0.258893,0.00679536,-0.528817
1470247025081182,-0.258893,0.00679536,-0.528817
1470247025096197,-0.258893,0.00679536,-0.528817
1470247025118716,-0.258893,0.00679536,-0.528817
1470247025133729,-0.258893,0.00679536,-0.528817
1470247025156250,-0.258893,0.00679536,-0.528817
1470247025178770,-0.259013,0.00676378,-0.528821
1470247025193783,-0.259013,0.00676378,-0.528821
1470247025215824,-0.258893,0.00679536,-0.528817
1470247025222813,-0.259013,0.00676378,-0.528821
1470247025244327,-0.259013,0.00676378,-0.528821
1470247025267849,-0.259013,0.00676378,-0.528821
1470247025281364,-0.259134,0.00673219,-0.528825
1470247025303883,-0.259167,0.00684905,-0.528842
1470247025320396,-0.259167,0.00684905,-0.528842
1470247025341450,-0.259167,0.00684905,-0.528842
1470247025363938,-0.259826,0.00690516,-0.529003
1470247025380450,-0.259821,0.00692031,-0.52887
1470247025401543,-0.259821,0.00692031,-0.52887
1470247025432497,-0.259244,0.00668097,-0.528934
1470247025440506,-0.258673,0.00647637,-0.52876
1470247025461579,-0.258168,0.0065054,-0.528622
1470247025484044,-0.257861,0.00633482,-0.528579
1470247025500559,-0.257982,0.00630325,-0.528583
1470247025521604,-0.257982,0.00630325,-0.528583
1470247025544157,-0.258102,0.00627167,-0.528587
1470247025560612,-0.25762,0.00639798,-0.528571
1470247025581633,-0.25774,0.0063664,-0.528575
1470247025604167,-0.25774,0.0063664,-0.528575
1470247025620666,-0.25704,0.00653033,-0.528845
1470247025641729,-0.255633,0.00699648,-0.529081
1470247025665706,-0.254069,0.0072209,-0.529705
1470247025680720,-0.253354,0.00738122,-0.529948
1470247025701739,-0.253739,0.00738386,-0.530082
1470247025724259,-0.254485,0.00729142,-0.530228
1470247025740774,-0.254485,0.00729142,-0.530228
1470247025762794,-0.254281,0.00745681,-0.530371
1470247025783813,-0.254281,0.00745681,-0.530371
1470247025800328,-0.254281,0.00745681,-0.530371
1470247025824349,-0.254281,0.00745681,-0.530371
1470247025844367,-0.254647,0.00734693,-0.530515
1470247025860883,-0.255269,0.00730085,-0.530525
1470247025881904,-0.255269,0.00730085,-0.530525
1470247025903921,-0.255269,0.00730085,-0.530525
1470247025920435,-0.255389,0.00726916,-0.530529
1470247025941454,-0.255389,0.00726916,-0.530529
1470247025964475,-0.255389,0.00726916,-0.530529
1470247025981991,-0.255389,0.00726916,-0.530529
1470247026001508,-0.25551,0.00723748,-0.530532
1470247026024029,-0.25551,0.00723748,-0.530532
1470247026042047,-0.255663,0.00732265,-0.530554
1470247026061565,-0.255649,0.00731814,-0.530526
1470247026084108,-0.255649,0.00731814,-0.530526
1470247026102127,-0.255769,0.00728645,-0.53053
1470247026121671,-0.255769,0.00728645,-0.53053
1470247026144138,-0.255769,0.00728645,-0.53053
1470247026162153,-0.255769,0.00728645,-0.53053
1470247026189195,-0.25589,0.00725476,-0.530534
1470247026204235,-0.25589,0.00725476,-0.530534
1470247026222206,-0.25589,0.00725476,-0.530534
1470247026241752,-0.254886,0.00782725,-0.53019
1470247026267246,-0.253713,0.00873054,-0.529634
1470247026282267,-0.253837,0.00927652,-0.529067
1470247026301813,-0.253957,0.00924492,-0.529071
1470247026324352,-0.254111,0.00933023,-0.529092
1470247026347819,-0.253595,0.0093397,-0.529059
1470247026361831,-0.252579,0.00931456,-0.529391
1470247026384352,-0.252012,0.00909487,-0.529351
1470247026401868,-0.252012,0.00909487,-0.529351
1470247026421385,-0.252012,0.00909487,-0.529351
1470247026443905,-0.251348,0.00900451,-0.52943
1470247026461925,-0.251083,0.00892162,-0.52967
1470247026482064,-0.25067,0.00878723,-0.529652
1470247026503962,-0.24971,0.00902579,-0.529753
1470247026521977,-0.248443,0.00956212,-0.529278
1470247026541993,-0.248599,0.0102236,-0.528726
1470247026564530,-0.249457,0.0101294,-0.528611
1470247026582031,-0.249577,0.0100979,-0.528615
1470247026601547,-0.249067,0.0100927,-0.528715
1470247026624083,-0.249067,0.0100927,-0.528715
1470247026642199,-0.248944,0.00959603,-0.528912
1470247026663104,-0.249438,0.00906826,-0.528986
1470247026684169,-0.250086,0.00862576,-0.529081
1470247026702182,-0.250086,0.00862576,-0.529081
1470247026723156,-0.250086,0.00862576,-0.529081
1470247026744174,-0.250206,0.00859416,-0.529084
1470247026762191,-0.250206,0.00859416,-0.529084
1470247026783210,-0.250206,0.00859416,-0.529084
1470247026804228,-0.250206,0.00859416,-0.529084
1470247026822245,-0.250206,0.00859416,-0.529084
1470247026843265,-0.250327,0.00856255,-0.529088
1470247026864283,-0.250327,0.00856255,-0.529088
1470247026882413,-0.250447,0.00853094,-0.529092
1470247026903336,-0.250447,0.00853094,-0.529092
1470247026924337,-0.250447,0.00853094,-0.529092
1470247026941852,-0.250601,0.00861626,-0.529113
1470247026962871,-0.250601,0.00861626,-0.529113
1470247026984391,-0.250568,0.00849934,-0.529096
1470247027001908,-0.250331,0.00854798,-0.529221
1470247027024944,-0.250057,0.00849429,-0.529196
1470247027044444,-0.25009,0.0086112,-0.529213
1470247027061961,-0.25099,0.00860463,-0.52938
1470247027084494,-0.251578,0.00844203,-0.529373
1470247027104013,-0.251699,0.0084104,-0.529376
1470247027122035,-0.251221,0.00852226,-0.529494
1470247027144535,-0.251221,0.00852226,-0.529494
1470247027164054,-0.251944,0.00833249,-0.529517
1470247027182105,-0.252065,0.00830086,-0.529521
1470247027204588,-0.252097,0.00841777,-0.529538
1470247027224108,-0.25194,0.00834716,-0.529384
1470247027242122,-0.251972,0.00846407,-0.529401
1470247027264644,-0.251972,0.00846407,-0.529401
1470247027284195,-0.25206,0.00831554,-0.529388
1470247027302179,-0.25206,0.00831554,-0.529388
1470247027324755,-0.251736,0.00851265,-0.529526
1470247027344215,-0.250901,0.00870485,-0.529765
1470247027362229,-0.250307,0.00883393,-0.530011
1470247027384250,-0.24978,0.00919698,-0.530292
1470247027404267,-0.2499,0.0091653,-0.530296
1470247027421783,-0.250016,0.00914817,-0.530167
1470247027444805,-0.250016,0.00914817,-0.530167
1470247027464322,-0.250016,0.00914817,-0.530167
1470247027481838,-0.250016,0.00914817,-0.530167
1470247027504358,-0.250016,0.00914817,-0.530167
1470247027524375,-0.250137,0.00911651,-0.530171
1470247027541891,-0.250137,0.00911651,-0.530171
1470247027564411,-0.250257,0.00908484,-0.530174
1470247027585430,-0.250257,0.00908484,-0.530174
1470247027606449,-0.250378,0.00905318,-0.530178
1470247027624466,-0.250378,0.00905318,-0.530178
1470247027651489,-0.250791,0.00918745,-0.530197
1470247027662001,-0.251459,0.00926291,-0.530251
1470247027684520,-0.251579,0.00923124,-0.530255
1470247027705538,-0.2517,0.00919958,-0.530259
1470247027721051,-0.2517,0.00919958,-0.530259
1470247027743573,-0.2517,0.00919958,-0.530259
1470247027764591,-0.251806,0.00916336,-0.530236
1470247027781105,-0.251806,0.00916336,-0.530236
1470247027803626,-0.251806,0.00916336,-0.530236
1470247027825177,-0.251927,0.00913169,-0.530239
1470247027848667,-0.251927,0.00913169,-0.530239
1470247027863680,-0.252553,0.009071,-0.530382
1470247027884699,-0.252553,0.009071,-0.530382
1470247027901214,-0.252673,0.00903932,-0.530386
1470247027931242,-0.252673,0.00903932,-0.530386
1470247027946257,-0.252794,0.00900765,-0.53039
1470247027968775,-0.252794,0.00900765,-0.53039
1470247027983789,-0.252914,0.00897598,-0.530394
1470247028006308,-0.252529,0.00897336,-0.530259
1470247028021322,-0.252529,0.00897336,-0.530259
1470247028043844,-0.252515,0.00896881,-0.530232
1470247028066364,-0.252636,0.00893714,-0.530236
1470247028080392,-0.251691,0.00922886,-0.529993
1470247028103898,-0.25109,0.00943548,-0.529602
1470247028126416,-0.250799,0.00979791,-0.529386
1470247028140428,-0.252035,0.0101419,-0.52911
1470247028163949,-0.252155,0.0101103,-0.529114
1470247028185970,-0.252155,0.0101103,-0.529114
1470247028208489,-0.253297,0.0104715,-0.529832
1470247028223503,-0.255102,0.0116756,-0.531597
1470247028246029,-0.258082,0.0134151,-0.533602
1470247028260536,-0.260901,0.0147157,-0.534412
1470247028283560,-0.261459,0.0152351,-0.535144
1470247028306579,-0.260278,0.0154788,-0.535765
1470247028320590,-0.259541,0.0151714,-0.535671
1470247028344112,-0.259296,0.0147563,-0.535489
1470247028366132,-0.259052,0.0143411,-0.535307
1470247028381145,-0.258962,0.0136385,-0.534937
1470247028403664,-0.258161,0.012653,-0.534397
1470247028426185,-0.257718,0.0115863,-0.533738
1470247028447265,-0.257377,0.0104978,-0.532924
1470247028463718,-0.257447,0.0094353,-0.532167
1470247028487239,-0.257659,0.00893269,-0.531577
1470247028507258,-0.258537,0.00887716,-0.531251
1470247028523773,-0.259931,0.00893465,-0.53079
1470247028546293,-0.26172,0.00901462,-0.530359
1470247028567334,-0.263559,0.00884547,-0.529765
1470247028583842,-0.264845,0.00900782,-0.528826
1470247028606362,-0.266042,0.00931972,-0.527901
1470247028627423,-0.267114,0.00967974,-0.52684
1470247028643895,-0.268879,0.0102659,-0.525592
1470247028666415,-0.270673,0.0109868,-0.524232
1470247028687464,-0.271987,0.0118191,-0.52299
1470247028703949,-0.273386,0.0128759,-0.521946
1470247028726470,-0.275513,0.0138548,-0.520897
1470247028747488,-0.277943,0.0150239,-0.519767
1470247028764003,-0.280135,0.0162413,-0.518765
1470247028786023,-0.282405,0.0172916,-0.517857
1470247028807076,-0.284786,0.0181852,-0.517098
1470247028823558,-0.286918,0.0191036,-0.51657
1470247028846079,-0.288738,0.0198117,-0.516232
1470247028876104,-0.290476,0.0201195,-0.516232
1470247028883613,-0.292188,0.0202936,-0.516344
1470247028906131,-0.294027,0.0204199,-0.516594
1470247028928654,-0.295612,0.0205844,-0.516941
1470247028944168,-0.297144,0.0205377,-0.517142
1470247028966230,-0.297891,0.0204071,-0.517535
1470247028994743,-0.297891,0.0204071,-0.517535
1470247029003719,-0.298103,0.0196392,-0.518079
1470247029026239,-0.297917,0.0188469,-0.518588
1470247029048793,-0.297604,0.0181027,-0.51896
1470247029069793,-0.297269,0.0172647,-0.519207
1470247029086295,-0.296569,0.0165195,-0.51944
1470247029108813,-0.295649,0.0154551,-0.519608
1470247029129874,-0.29411,0.0144171,-0.519892
1470247029146347,-0.292715,0.0134994,-0.519939
1470247029168867,-0.29164,0.0127757,-0.519932
1470247029182879,-0.290544,0.0120635,-0.519768
1470247029206400,-0.288791,0.0112775,-0.519569
1470247029228921,-0.287778,0.0108037,-0.519474
1470247029243435,-0.287521,0.0103842,-0.519259
1470247029266454,-0.287218,0.0101958,-0.519343
1470247029288482,-0.286962,0.0106607,-0.519283
1470247029302988,-0.286812,0.0110897,-0.519201
1470247029326508,-0.286821,0.0115878,-0.519275
1470247029348529,-0.286821,0.0115878,-0.519275
1470247029370157,-0.286676,0.012,-0.519324
1470247029386062,-0.285986,0.0118094,-0.51927
1470247029408582,-0.284636,0.0115614,-0.51905
1470247029430175,-0.283789,0.0113012,-0.51884
1470247029446117,-0.282939,0.0105806,-0.518321
1470247029468637,-0.281614,0.00995021,-0.518049
1470247029489670,-0.279627,0.00920745,-0.517984
1470247029506170,-0.277823,0.00815284,-0.518024
1470247029528711,-0.27622,0.00689867,-0.518162
1470247029549709,-0.274383,0.00567455,-0.51856
1470247029566224,-0.272187,0.00452819,-0.519081
1470247029596251,-0.270059,0.00413129,-0.51958
1470247029609763,-0.267935,0.00378699,-0.51971
1470247029626778,-0.266284,0.00329871,-0.519963
1470247029648799,-0.265087,0.00303297,-0.520519
1470247029669818,-0.263235,0.00269408,-0.52105
1470247029686331,-0.260864,0.00184967,-0.521616
1470247029708852,-0.258549,0.000741482,-0.522155
1470247029729887,-0.257595,-0.000468582,-0.522583
1470247029746386,-0.256889,-0.00170653,-0.522783
1470247029768907,-0.255355,-0.0027363,-0.52312
1470247029798932,-0.253477,-0.00408748,-0.523641
1470247029806440,-0.25182,-0.00513305,-0.524351
1470247029828460,-0.25092,-0.00572042,-0.524897
1470247029850994,-0.250794,-0.00626604,-0.525467
1470247029866035,-0.251161,-0.00679465,-0.525774
1470247029889013,-0.251039,-0.00729213,-0.525974
