timestamp,roll,pitch,yaw
1470245388464686,-0.129095,-0.188317,-1.58939
1470245388481201,-0.129093,-0.188142,-1.58938
1470245388503721,-0.130479,-0.188683,-1.58936
1470245388524740,-0.13326,-0.189243,-1.5893
1470245388541255,-0.13602,-0.189481,-1.58959
1470245388563275,-0.138392,-0.18939,-1.59023
1470245388584795,-0.140834,-0.189053,-1.59105
1470245388600809,-0.144069,-0.188645,-1.59185
1470245388623330,-0.147731,-0.18816,-1.59265
1470245388644848,-0.150779,-0.18793,-1.59348
1470245388660862,-0.153401,-0.187609,-1.59432
1470245388683383,-0.1562,-0.187295,-1.59515
1470245388705903,-0.159341,-0.187338,-1.596
1470245388720917,-0.162323,-0.187367,-1.59668
1470245388743437,-0.165128,-0.187396,-1.59736
1470245388766959,-0.167317,-0.187501,-1.59806
1470245388781471,-0.169501,-0.187291,-1.5991
1470245388803490,-0.171582,-0.186978,-1.59998
1470245388826012,-0.174161,-0.186537,-1.60121
1470245388840524,-0.176903,-0.186135,-1.60281
1470245388863545,-0.179643,-0.185391,-1.6044
1470245388886067,-0.182457,-0.184567,-1.60601
1470245388900577,-0.184904,-0.183772,-1.60799
1470245388923599,-0.186895,-0.1829,-1.61014
1470245388946119,-0.189168,-0.181922,-1.61195
1470245388960131,-0.19158,-0.181193,-1.61359
1470245388983654,-0.193726,-0.180341,-1.61487
1470245389006172,-0.195316,-0.179524,-1.61579
1470245389020186,-0.196685,-0.178561,-1.61617
1470245389043706,-0.197805,-0.177849,-1.61655
1470245389066228,-0.199014,-0.177386,-1.61675
1470245389080239,-0.200755,-0.17727,-1.61678
1470245389103760,-0.202599,-0.177557,-1.61645
1470245389125781,-0.203826,-0.177771,-1.61647
1470245389140292,-0.204948,-0.178402,-1.61631
1470245389163817,-0.205924,-0.17885,-1.61614
1470245389185834,-0.207345,-0.179556,-1.6158
1470245389207355,-0.208499,-0.179992,-1.61546
1470245389223368,-0.208974,-0.18023,-1.6151
1470245389246388,-0.208886,-0.180644,-1.61492
1470245389267407,-0.208797,-0.180885,-1.61474
1470245389283421,-0.209083,-0.181483,-1.61455
1470245389305942,-0.209471,-0.181978,-1.61419
1470245389326961,-0.209843,-0.182301,-1.61384
1470245389343477,-0.210392,-0.182629,-1.61349
1470245389365996,-0.211104,-0.183137,-1.61314
1470245389387515,-0.211743,-0.183555,-1.61278
1470245389403530,-0.211867,-0.184128,-1.61242
1470245389426051,-0.211989,-0.18451,-1.61188
1470245389447068,-0.212109,-0.184562,-1.61152
1470245389463584,-0.211816,-0.184494,-1.61098
1470245389486105,-0.210294,-0.184214,-1.61041
1470245389507124,-0.207931,-0.183715,-1.60966
1470245389523637,-0.205275,-0.183839,-1.60908
1470245389546157,-0.202684,-0.18477,-1.60868
1470245389567178,-0.202256,-0.186022,-1.60741
1470245389583691,-0.201846,-0.187273,-1.60614
1470245389606212,-0.200962,-0.188463,-1.60523
1470245389628732,-0.20045,-0.189646,-1.60415
1470245389643745,-0.199374,-0.190851,-1.60342
1470245389666268,-0.198853,-0.191865,-1.60324
1470245389688785,-0.199878,-0.192608,-1.60343
1470245389702799,-0.201345,-0.193101,-1.60362
1470245389726319,-0.202003,-0.192824,-1.60416
1470245389748840,-0.202051,-0.192096,-1.6047
1470245389762853,-0.201626,-0.191793,-1.60523
1470245389785872,-0.20165,-0.191797,-1.60613
1470245389808893,-0.202117,-0.191849,-1.60649
1470245389822906,-0.202134,-0.191848,-1.60649
1470245389845927,-0.200802,-0.191759,-1.60684
1470245389868448,-0.19981,-0.191855,-1.60719
1470245389882960,-0.199694,-0.19248,-1.60737
1470245389906482,-0.199684,-0.19316,-1.60719
1470245389928501,-0.199772,-0.193076,-1.60719
1470245389943015,-0.19858,-0.193214,-1.60718
1470245389966035,-0.196762,-0.193041,-1.60681
1470245389988555,-0.195585,-0.192972,-1.60645
1470245390003068,-0.194731,-0.193104,-1.60626
1470245390026589,-0.194731,-0.193104,-1.60626
1470245390049609,-0.194643,-0.193189,-1.60626
1470245390063121,-0.194131,-0.193523,-1.60626
1470245390086143,-0.192852,-0.193888,-1.6059
1470245390108662,-0.190297,-0.194621,-1.60518
1470245390129681,-0.18467,-0.195907,-1.60376
1470245390146196,-0.174933,-0.199294,-1.60154
1470245390168716,-0.164031,-0.207657,-1.59849
1470245390189736,-0.154674,-0.222422,-1.5951
1470245390206250,-0.150941,-0.241977,-1.58861
1470245390228770,-0.145465,-0.256314,-1.58096
1470245390249789,-0.122235,-0.255067,-1.57437
1470245390265803,-0.0733484,-0.234994,-1.56444
1470245390288824,-0.0012807,-0.202671,-1.5548
1470245390309843,0.0836318,-0.154109,-1.55026
1470245390332363,0.167485,-0.0921733,-1.54424
1470245390348378,0.24333,-0.0201067,-1.54218
1470245390369896,0.303633,0.0581654,-1.54567
1470245390385411,0.346914,0.140724,-1.55349
1470245390408431,0.377704,0.228238,-1.56503
1470245390429451,0.399947,0.318065,-1.57661
1470245390445465,0.417693,0.406382,-1.5844
1470245390468486,0.43752,0.487191,-1.58889
1470245390491014,0.455917,0.554558,-1.59821
1470245390505519,0.474498,0.605685,-1.61581
1470245390528541,0.494968,0.644046,-1.63686
1470245390549592,0.520839,0.6683,-1.6527
1470245390565573,0.541369,0.682498,-1.66364
1470245390588594,0.552224,0.690809,-1.67313
1470245390611113,0.553471,0.693213,-1.68455
1470245390625126,0.551384,0.690549,-1.69692
1470245390654711,0.54721,0.682146,-1.70743
1470245390671167,0.537322,0.667265,-1.7172
1470245390692238,0.513631,0.641893,-1.72715
1470245390714707,0.474611,0.602879,-1.73546
1470245390731222,0.432006,0.552707,-1.74013
1470245390752242,0.383445,0.48877,-1.74292
1470245390768755,0.315546,0.409134,-1.74234
1470245390791276,0.262062,0.316888,-1.73571
1470245390812294,0.264526,0.204604,-1.69841
1470245390828809,0.284567,0.0441724,-1.6003
1470245390851329,0.268271,-0.121191,-1.48461
1470245390872348,0.214822,-0.251541,-1.37349
1470245390888362,0.136539,-0.34476,-1.27093
1470245390910883,0.0512471,-0.405619,-1.18412
1470245390932402,-0.0423208,-0.442139,-1.09747
1470245390948416,-0.156577,-0.463573,-1.03424
1470245390970937,-0.242198,-0.465426,-1.01162
1470245390991972,-0.279535,-0.462276,-1.00673
1470245391008471,-0.316752,-0.465144,-0.991969
1470245391030990,-0.363239,-0.471404,-0.968907
1470245391052010,-0.387621,-0.480129,-0.948937
1470245391068524,-0.390905,-0.487206,-0.929684
1470245391091044,-0.382306,-0.492861,-0.916368
1470245391112065,-0.373181,-0.497681,-0.906834
1470245391128578,-0.366334,-0.498265,-0.895703
1470245391151098,-0.353457,-0.495814,-0.888177
1470245391172117,-0.335802,-0.498394,-0.890834
1470245391188632,-0.303962,-0.502244,-0.90542
1470245391211154,-0.251495,-0.488821,-0.927
1470245391232172,-0.183839,-0.465309,-0.958506
1470245391248187,-0.110401,-0.427758,-1.00465
1470245391271206,-0.0257791,-0.370378,-1.06795
1470245391293727,0.056165,-0.29438,-1.13729
1470245391308240,0.122449,-0.201137,-1.20533
1470245391331260,0.189217,-0.0941335,-1.26017
1470245391352279,0.259002,0.0171046,-1.30241
1470245391367795,0.33969,0.127622,-1.33061
1470245391391382,0.429549,0.230732,-1.34056
1470245391412445,0.512807,0.32383,-1.33546
1470245391427944,0.585132,0.406118,-1.31955
1470245391450938,0.641831,0.472687,-1.30107
1470245391471956,0.682503,0.52084,-1.28525
1470245391487970,0.714512,0.554461,-1.2755
1470245391510990,0.746912,0.572705,-1.26825
1470245391533510,0.778406,0.577345,-1.2594
1470245391548023,0.8022,0.573165,-1.24981
1470245391571044,0.809195,0.566635,-1.24435
1470245391601073,0.80331,0.559704,-1.24463
1470245391608079,0.793248,0.551363,-1.24955
1470245391631098,0.781158,0.539506,-1.25941
1470245391653618,0.765536,0.520982,-1.27218
1470245391674667,0.73706,0.495644,-1.28728
1470245391691152,0.696816,0.467317,-1.30404
1470245391713687,0.659061,0.435419,-1.32176
1470245391734713,0.633375,0.400606,-1.33722
1470245391751205,0.609761,0.365335,-1.35469
1470245391773726,0.588874,0.330388,-1.37469
1470245391794776,0.570261,0.296255,-1.39685
1470245391811261,0.55626,0.260966,-1.4209
1470245391833781,0.545411,0.226024,-1.45368
1470245391854811,0.531436,0.196689,-1.49768
1470245391871314,0.51807,0.17064,-1.54966
1470245391893833,0.504753,0.144377,-1.61751
1470245391914854,0.485739,0.118616,-1.70859
1470245391931368,0.459733,0.093274,-1.82228
1470245391953404,0.436756,0.0623268,-1.95934
1470245391974906,0.425728,0.0223283,-2.11794
1470245391990921,0.417561,-0.0258418,-2.2868
1470245392013493,0.400749,-0.0640032,-2.44534
1470245392042476,0.375025,-0.0960378,-2.57625
1470245392050975,0.353092,-0.117931,-2.68519
1470245392073497,0.344305,-0.127773,-2.76979
1470245392094562,0.340505,-0.136174,-2.82827
1470245392111029,0.325582,-0.147491,-2.8652
1470245392133549,0.305282,-0.156088,-2.88854
1470245392162074,0.299789,-0.163331,-2.90386
1470245392171083,0.296484,-0.170354,-2.91411
1470245392193603,0.286412,-0.175811,-2.92054
1470245392215122,0.272651,-0.182986,-2.92107
1470245392237187,0.2616,-0.191223,-2.91473
1470245392253657,0.249609,-0.201444,-2.89897
1470245392274718,0.238299,-0.214141,-2.86977
1470245392290690,0.225298,-0.221935,-2.82051
1470245392319741,0.202454,-0.220436,-2.7444
1470245392334729,0.18325,-0.210134,-2.64274
1470245392350744,0.172188,-0.189764,-2.51845
1470245392373764,0.169497,-0.160236,-2.37417
1470245392394816,0.18017,-0.126033,-2.20844
1470245392410297,0.189353,-0.0916933,-2.02224
1470245392433818,0.188351,-0.0638818,-1.81855
1470245392455840,0.181757,-0.0486111,-1.59579
1470245392477360,0.180454,-0.0367899,-1.36513
1470245392493397,0.177008,-0.0222889,-1.14426
1470245392515892,0.167919,-0.0117878,-0.938275
1470245392530416,0.154425,-0.00234805,-0.774423
1470245392553927,0.123681,0.000935421,-0.649876
1470245392575946,0.0410244,-0.00932588,-0.558183
1470245392604505,-0.0696895,-0.0364978,-0.488216
1470245392613479,-0.189716,-0.0713264,-0.436451
1470245392636000,-0.279086,-0.0879913,-0.407628
1470245392657040,-0.315933,-0.102404,-0.404596
1470245392673536,-0.323238,-0.124044,-0.412592
1470245392696056,-0.327619,-0.139035,-0.412606
1470245392717076,-0.337173,-0.150385,-0.403776
1470245392733641,-0.342639,-0.156538,-0.397253
1470245392756108,-0.346977,-0.165279,-0.399735
1470245392777127,-0.350861,-0.175389,-0.403803
1470245392793641,-0.352882,-0.184636,-0.404767
1470245392816162,-0.357169,-0.192704,-0.405504
1470245392844716,-0.361413,-0.200938,-0.410809
1470245392853695,-0.363444,-0.210688,-0.419591
1470245392876216,-0.358833,-0.220449,-0.430937
1470245392897276,-0.343897,-0.22988,-0.443822
1470245392913749,-0.312611,-0.238087,-0.461465
1470245392936293,-0.261905,-0.245437,-0.486858
1470245392941307,-0.215412,-0.250256,-0.510334
1470245392963796,-0.163353,-0.25215,-0.539102
1470245392979311,-0.101319,-0.240555,-0.575392
1470245393008850,-0.0225687,-0.205562,-0.616193
1470245393034358,0.077596,-0.145087,-0.660181
1470245393038864,0.194913,-0.0612763,-0.699111
1470245393061402,0.324068,0.0374598,-0.723359
1470245393083902,0.458984,0.145159,-0.733985
1470245393098932,0.593946,0.250421,-0.731426
1470245393121455,0.727697,0.346899,-0.715826
1470245393143957,0.84728,0.428299,-0.694991
1470245393159025,0.949102,0.486586,-0.679598
1470245393181490,1.02193,0.517075,-0.679851
1470245393204031,1.07177,0.529985,-0.695987
1470245393219131,1.12155,0.533595,-0.719009
1470245393241716,1.17191,0.530531,-0.739907
1470245393264193,1.20596,0.52253,-0.75632
1470245393280661,1.22959,0.510231,-0.758303
1470245393301704,1.2324,0.498525,-0.754567
1470245393324200,1.22778,0.489175,-0.74787
1470245393339218,1.21797,0.479916,-0.743841
1470245393361737,1.19287,0.467711,-0.74908
1470245393384255,1.13276,0.443186,-0.769766
1470245393399267,1.0471,0.406711,-0.792513
1470245393421890,0.947423,0.363271,-0.812008
1470245393444411,0.841909,0.315121,-0.837207
1470245393459389,0.75062,0.25072,-0.854277
1470245393481381,0.658431,0.182071,-0.861114
1470245393504413,0.572138,0.113651,-0.863175
1470245393518901,0.505469,0.0322215,-0.851901
1470245393541424,0.42482,-0.0567289,-0.829416
1470245393564425,0.341059,-0.12556,-0.798436
1470245393578946,0.273383,-0.176625,-0.762088
1470245393601949,0.206519,-0.221715,-0.725009
1470245393623969,0.143775,-0.248953,-0.693192
1470245393639014,0.087496,-0.263967,-0.66523
1470245393664521,0.0253931,-0.275824,-0.642801
1470245393684041,-0.0345265,-0.282004,-0.630411
1470245393699037,-0.0729055,-0.281044,-0.63036
1470245393721621,-0.0951758,-0.283773,-0.62634
1470245393744166,-0.117326,-0.286461,-0.620399
1470245393759091,-0.135554,-0.290835,-0.617615
1470245393781611,-0.143743,-0.29471,-0.616659
1470245393804218,-0.1469,-0.293498,-0.617338
1470245393820647,-0.151767,-0.290908,-0.621211
1470245393841721,-0.156818,-0.287394,-0.626327
1470245393864185,-0.162462,-0.281857,-0.633161
1470245393879199,-0.16701,-0.275599,-0.643088
1470245393901761,-0.171188,-0.268964,-0.655853
1470245393924242,-0.175251,-0.263078,-0.668396
1470245393940254,-0.182822,-0.258102,-0.677989
1470245393961773,-0.19096,-0.254159,-0.685565
1470245393984293,-0.195222,-0.251419,-0.691111
1470245393999306,-0.195844,-0.249734,-0.695103
1470245394021328,-0.197488,-0.248995,-0.697531
1470245394043896,-0.201249,-0.248337,-0.697726
1470245394060361,-0.205644,-0.246457,-0.696018
1470245394081380,-0.210152,-0.244497,-0.694397
1470245394099898,-0.213838,-0.243022,-0.692858
1470245394120418,-0.218374,-0.242056,-0.690035
1470245394141487,-0.221503,-0.240721,-0.686574
1470245394159450,-0.223355,-0.239599,-0.683357
1470245394180469,-0.226254,-0.239134,-0.680225
1470245394201517,-0.230718,-0.239119,-0.67723
1470245394219504,-0.236362,-0.240167,-0.675019
1470245394240523,-0.243521,-0.240088,-0.672982
1470245394261583,-0.253289,-0.238373,-0.671995
1470245394279558,-0.259704,-0.233881,-0.673352
1470245394300577,-0.264357,-0.227947,-0.676857
1470245394321596,-0.26913,-0.221527,-0.681787
1470245394344184,-0.271907,-0.213792,-0.686349
1470245394360631,-0.268184,-0.205357,-0.691777
1470245394381649,-0.258224,-0.199006,-0.699542
1470245394404190,-0.241801,-0.194676,-0.71374
1470245394422197,-0.211904,-0.191434,-0.737207
1470245394441704,-0.166612,-0.191712,-0.772829
1470245394464224,-0.116794,-0.178851,-0.826858
1470245394482240,-0.0607169,-0.150991,-0.907122
1470245394501757,-0.00222891,-0.124384,-1.0154
1470245394524278,0.0391177,-0.101932,-1.15389
1470245394542294,0.0612887,-0.0755188,-1.32565
1470245394561367,0.0448288,-0.0549684,-1.52677
1470245394584357,-0.00931398,-0.0523294,-1.75109
1470245394601847,0.0281126,-0.0119611,-1.96737
1470245394621877,0.0636721,0.0100115,-2.04889
1470245394651439,0.0941834,0.023498,-2.07019
1470245394662402,0.116102,0.0327203,-2.07092
1470245394681920,0.139627,0.0357634,-2.05476
1470245394703946,0.144524,0.0625752,-2.03831
1470245394721956,0.15144,0.0814177,-2.02483
1470245394741475,0.156272,0.088829,-2.01039
1470245394766996,0.149425,0.0885958,-1.99977
1470245394782010,0.135734,0.083262,-1.99389
1470245394801527,0.121447,0.0696796,-1.98945
1470245394824047,0.108499,0.0500968,-1.98328
1470245394846568,0.0986977,0.029013,-1.97581
1470245394861598,0.0963275,0.00842543,-1.9653
1470245394884136,0.100954,-0.0085193,-1.95332
1470245394902133,0.109447,-0.020952,-1.94526
1470245394929141,0.118713,-0.0317026,-1.93898
1470245394944154,0.127012,-0.0407854,-1.93356
1470245394962171,0.133823,-0.0484604,-1.93184
1470245394983190,0.140049,-0.0545404,-1.93198
1470245395004221,0.145986,-0.0577562,-1.93358
1470245395022225,0.150255,-0.0602893,-1.93791
1470245395042745,0.152127,-0.0623155,-1.94555
1470245395064338,0.148082,-0.063622,-1.95559
1470245395082279,0.120585,-0.0670317,-1.96615
1470245395102802,0.048013,-0.0810235,-1.98298
1470245395125818,-0.0521037,-0.0552654,-2.00496
1470245395142333,-0.100876,-0.0305366,-1.9399
1470245395162852,-0.143072,-0.0229036,-1.78868
1470245395184371,-0.160786,-0.0330399,-1.59495
1470245395201888,-0.173193,-0.0578211,-1.36029
1470245395222905,-0.194334,-0.0917101,-1.14163
1470245395243943,-0.248918,-0.123449,-0.983053
1470245395261940,-0.298298,-0.138817,-0.859962
1470245395290467,-0.343504,-0.151584,-0.753759
1470245395304009,-0.381599,-0.158614,-0.679755
1470245395321994,-0.40488,-0.159889,-0.638113
1470245395343515,-0.412931,-0.168722,-0.624364
1470245395365033,-0.422165,-0.174933,-0.62358
1470245395381047,-0.431265,-0.181007,-0.625011
1470245395403567,-0.430212,-0.184668,-0.623306
1470245395424617,-0.424748,-0.188569,-0.618429
1470245395441101,-0.423296,-0.192596,-0.612813
1470245395463621,-0.427215,-0.198261,-0.607677
1470245395484682,-0.434567,-0.204581,-0.602281
1470245395501157,-0.442658,-0.210888,-0.599596
1470245395523675,-0.449513,-0.215106,-0.596507
1470245395544749,-0.455752,-0.216712,-0.591289
1470245395568716,-0.464233,-0.217578,-0.585616
1470245395583731,-0.476584,-0.219707,-0.581124
1470245395604768,-0.491748,-0.221134,-0.57757
1470245395621263,-0.504016,-0.219778,-0.573742
1470245395643783,-0.515051,-0.216838,-0.569484
1470245395668807,-0.522589,-0.213467,-0.566868
1470245395682818,-0.526326,-0.210234,-0.563929
1470245395701836,-0.520478,-0.209686,-0.563419
1470245395724368,-0.495097,-0.212617,-0.574688
1470245395740383,-0.462826,-0.204862,-0.604503
1470245395761402,-0.403361,-0.188802,-0.663737
1470245395783923,-0.315245,-0.168861,-0.759737
1470245395800437,-0.233203,-0.139583,-0.882501
1470245395821457,-0.156426,-0.114752,-1.03472
1470245395843977,-0.0977167,-0.0991135,-1.21572
1470245395860491,-0.0953763,-0.0910359,-1.41654
1470245395881510,-0.0571804,-0.0497675,-1.61943
1470245395904030,-0.00795301,-0.01353,-1.7664
1470245395920545,0.066773,0.0193738,-1.86635
1470245395941564,0.112224,0.0400633,-1.93861
1470245395964090,0.134118,0.0499789,-1.9877
1470245395980598,0.1335,0.0531667,-2.01997
1470245396009624,0.132725,0.074778,-2.0431
1470245396024137,0.129006,0.0917265,-2.05908
1470245396040653,0.130435,0.0918095,-2.06482
1470245396062174,0.126358,0.0896375,-2.06033
1470245396085194,0.121087,0.0892292,-2.05209
1470245396100206,0.116493,0.0893584,-2.04079
1470245396121725,0.111111,0.0892833,-2.02839
1470245396144328,0.106629,0.0855664,-2.0172
1470245396160262,0.105544,0.0774164,-2.00696
1470245396181780,0.105696,0.0659706,-1.99718
1470245396204303,0.107709,0.0525878,-1.98931
1470245396220814,0.112911,0.0378305,-1.98271
1470245396241836,0.120522,0.0246125,-1.97612
1470245396264353,0.126936,0.0134111,-1.97214
1470245396280368,0.132395,0.00475882,-1.97136
1470245396301888,0.137671,-0.00157128,-1.97279
1470245396323923,0.139305,-0.0075365,-1.97626
1470245396340422,0.138795,-0.0131641,-1.98084
1470245396362942,0.139493,-0.0195504,-1.98749
1470245396383989,0.142173,-0.0269157,-1.99568
1470245396400476,0.144464,-0.0330721,-2.00601
1470245396429524,0.146074,-0.0379908,-2.01818
1470245396444035,0.149279,-0.0427178,-2.03176
1470245396460530,0.152605,-0.0477198,-2.04685
1470245396483050,0.154676,-0.0527202,-2.06359
1470245396504085,0.156478,-0.0575811,-2.08073
1470245396520586,0.159799,-0.0626399,-2.09819
1470245396543104,0.166439,-0.068137,-2.11765
1470245396566124,0.174315,-0.0739895,-2.13964
1470245396587174,0.179166,-0.080936,-2.16252
1470245396604173,0.18036,-0.0898758,-2.18705
1470245396626178,0.181025,-0.0992694,-2.21245
1470245396647230,0.180888,-0.110845,-2.23672
1470245396663737,0.184244,-0.110747,-2.26284
1470245396686233,0.183449,-0.110533,-2.28797
1470245396714758,0.181644,-0.119165,-2.31268
1470245396723766,0.178333,-0.132039,-2.33741
1470245396746286,0.172673,-0.145422,-2.36162
1470245396767305,0.164451,-0.158871,-2.38539
1470245396783819,0.152373,-0.174299,-2.4094
1470245396806340,0.137512,-0.188762,-2.43185
1470245396827358,0.118273,-0.201013,-2.45101
1470245396843373,0.098023,-0.211733,-2.4662
1470245396866394,0.0780786,-0.220609,-2.4766
1470245396887412,0.0569956,-0.225486,-2.48022
1470245396902927,0.0393039,-0.224555,-2.47349
1470245396926449,0.0232402,-0.217615,-2.45381
1470245396947466,0.00660347,-0.214997,-2.4211
1470245396963481,0.000181307,-0.204828,-2.37217
1470245396986001,-0.00163578,-0.185693,-2.30049
1470245397007020,-0.0064402,-0.157352,-2.20209
1470245397023035,-0.015227,-0.122284,-2.08301
1470245397046055,-0.0355206,-0.0819249,-1.94388
1470245397067073,-0.0664291,-0.0397025,-1.77964
1470245397084590,-0.0985224,-0.000904173,-1.59087
1470245397106109,-0.123557,0.0277204,-1.38439
1470245397127128,-0.137918,0.0408021,-1.17195
1470245397151151,-0.140227,0.0386267,-0.957908
1470245397166163,-0.129107,0.0322864,-0.755275
1470245397187181,-0.110364,0.0216974,-0.566565
1470245397202696,-0.0933648,0.00746648,-0.392431
1470245397226217,-0.0748475,-0.00854594,-0.227254
1470245397248738,-0.0572555,-0.0233559,-0.0772654
1470245397263250,-0.0441389,-0.0372678,0.0548062
1470245397286271,-0.0391967,-0.0488746,0.169321
1470245397308292,-0.0403661,-0.0624323,0.261571
1470245397322803,-0.0469911,-0.0671307,0.333936
1470245397346324,-0.0589032,-0.0652696,0.391717
1470245397368845,-0.0688835,-0.0606668,0.436596
1470245397389864,-0.0767584,-0.0683216,0.469484
1470245397406378,-0.086961,-0.0791351,0.49076
1470245397428898,-0.103769,-0.0904869,0.502933
1470245397449995,-0.116793,-0.0985863,0.507827
1470245397466432,-0.118225,-0.101629,0.507873
1470245397488455,-0.113854,-0.102075,0.503065
1470245397511013,-0.112753,-0.102636,0.493693
1470245397525986,-0.112018,-0.103085,0.478802
1470245397548506,-0.106769,-0.103721,0.457516
1470245397569527,-0.0962272,-0.105969,0.427763
1470245397593547,-0.0881193,-0.103881,0.388673
1470245397608560,-0.0779499,-0.0995466,0.341358
1470245397630079,-0.068255,-0.095917,0.287927
1470245397646094,-0.0578231,-0.0935868,0.217918
1470245397668616,-0.0460331,-0.0940036,0.127169
1470245397690140,-0.0340008,-0.0930217,0.0241929
1470245397706147,-0.0247619,-0.0784681,-0.0887297
1470245397728668,-0.0114112,-0.0563102,-0.208753
1470245397749686,0.0057585,-0.0287391,-0.337159
1470245397766201,0.0231468,0.00242043,-0.471401
1470245397788722,0.0406052,0.0352258,-0.611543
1470245397809743,0.0588328,0.0691061,-0.759275
1470245397826258,0.0705799,0.101022,-0.914235
1470245397848776,0.0763999,0.131327,-1.07705
1470245397871297,0.0799718,0.157541,-1.24324
1470245397886310,0.0854665,0.177758,-1.40836
1470245397908830,0.0908746,0.189488,-1.56833
1470245397929939,0.0910257,0.192769,-1.72515
1470245397951868,0.08671,0.191335,-1.87683
1470245397968883,0.079815,0.189286,-2.02575
1470245397989936,0.0652159,0.18407,-2.16785
1470245398005917,0.0484154,0.175432,-2.29937
1470245398028938,0.0223679,0.161449,-2.42386
1470245398049956,-0.0150655,0.143992,-2.53954
1470245398065471,-0.0571245,0.127795,-2.63968
1470245398088492,-0.0963247,0.11273,-2.72268
1470245398110011,-0.129668,0.0992199,-2.79199
1470245398125524,-0.15838,0.0874685,-2.84945
1470245398149046,-0.180526,0.0770124,-2.89388
1470245398169630,-0.204661,0.06745,-2.92669
1470245398192618,-0.225291,0.0612895,-2.95057
1470245398216606,-0.2394,0.0560983,-2.96705
1470245398232622,-0.248922,0.0520254,-2.9777
1470245398245632,-0.253938,0.0488275,-2.98281
1470245398268653,-0.254471,0.0466568,-2.98182
1470245398298680,-0.253801,0.0431684,-2.97495
1470245398312250,-0.254422,0.0359191,-2.96267
1470245398328707,-0.25507,0.0306904,-2.94532
1470245398358745,-0.253845,0.0301302,-2.92284
1470245398372274,-0.251608,0.0331926,-2.89509
1470245398388773,-0.25041,0.0365508,-2.86288
1470245398411293,-0.245302,0.0445843,-2.82402
1470245398432314,-0.235997,0.0555398,-2.77726
1470245398456333,-0.221352,0.0685052,-2.72225
1470245398471350,-0.201408,0.0842194,-2.6589
1470245398492450,-0.180139,0.100963,-2.587
1470245398508881,-0.15841,0.119102,-2.50596
1470245398537410,-0.135343,0.140023,-2.41618
1470245398552419,-0.108608,0.1642,-2.31841
1470245398568444,-0.0817253,0.189807,-2.21192
1470245398590956,-0.0598569,0.214851,-2.09766
1470245398612474,-0.0432886,0.239864,-1.97673
1470245398628490,-0.0230227,0.262624,-1.84914
1470245398657519,0.00152935,0.280545,-1.71441
1470245398672028,0.0239072,0.292634,-1.57731
1470245398688041,0.039383,0.299399,-1.44039
1470245398711062,0.0568281,0.301296,-1.30128
1470245398732082,0.0735916,0.294057,-1.15737
1470245398749097,0.0832554,0.27868,-1.01368
1470245398771116,0.100916,0.261355,-0.868023
1470245398792152,0.125691,0.236201,-0.722682
1470245398808650,0.148714,0.202827,-0.580995
1470245398831170,0.165525,0.163281,-0.446034
1470245398852244,0.176923,0.119535,-0.315168
1470245398868705,0.188164,0.0746232,-0.186007
1470245398891224,0.198128,0.0270509,-0.0573089
1470245398912264,0.204709,-0.0216688,0.0674914
1470245398928257,0.207697,-0.0712708,0.191104
1470245398951278,0.210144,-0.117965,0.315586
1470245398972296,0.206653,-0.168647,0.440011
1470245398987812,0.195889,-0.217151,0.559934
1470245399011332,0.180756,-0.257403,0.674519
1470245399032353,0.161234,-0.287793,0.783393
1470245399048365,0.136002,-0.310342,0.884031
1470245399071386,0.11444,-0.32512,0.972882
1470245399092404,0.0874241,-0.337246,1.04931
1470245399107918,0.0607471,-0.345912,1.11211
1470245399145953,0.0390504,-0.351303,1.16418
1470245399155477,0.0155476,-0.35492,1.20719
1470245399167972,-0.00731435,-0.36022,1.23878
1470245399190993,-0.0281862,-0.363805,1.26189
1470245399213514,-0.0428809,-0.362682,1.27983
1470245399228026,-0.049022,-0.356591,1.29262
1470245399251047,-0.0505935,-0.349304,1.30106
1470245399273567,-0.0530902,-0.341295,1.30539
1470245399295102,-0.0561873,-0.333114,1.30658
1470245399311101,-0.0536277,-0.322985,1.30455
1470245399341129,-0.0469805,-0.312123,1.29973
1470245399354643,-0.0430831,-0.302844,1.29375
1470245399371155,-0.0398933,-0.294263,1.2856
1470245399393675,-0.0359413,-0.28619,1.27458
1470245399414741,-0.0321868,-0.277562,1.26181
1470245399431209,-0.0265063,-0.268708,1.24735
1470245399453729,-0.0228274,-0.261276,1.23211
1470245399475267,-0.0207434,-0.253949,1.21829
1470245399498770,-0.0193193,-0.246218,1.20629
1470245399513783,-0.017684,-0.237968,1.19459
1470245399534807,-0.0160174,-0.229791,1.18271
1470245399551318,-0.0160597,-0.222012,1.17084
1470245399573837,-0.0158968,-0.213952,1.15814
1470245399594946,-0.0154412,-0.20621,1.14389
1470245399611389,-0.0151823,-0.200719,1.12658
1470245399633891,-0.0138215,-0.19909,1.10536
1470245399654928,-0.00690158,-0.201229,1.07867
1470245399671424,0.0133413,-0.20677,1.04494
1470245399693945,0.0400646,-0.201411,1.00131
1470245399714964,0.0664561,-0.191999,0.941707
1470245399738985,0.0795455,-0.178285,0.868753
1470245399761505,0.0719879,-0.153422,0.778191
1470245399775081,0.0475293,-0.127554,0.664848
1470245399791032,0.0145457,-0.0915586,0.526344
1470245399813554,-0.0149359,-0.0417866,0.371537
1470245399835072,-0.0441017,0.0194074,0.19513
1470245399851087,-0.0557959,0.0936581,0.0116878
1470245399873608,-0.0489074,0.158397,-0.1623
1470245399895165,-0.0267085,0.200237,-0.33212
1470245399910640,0.0161092,0.221059,-0.495079
1470245399933660,0.0771447,0.225071,-0.644669
1470245399955179,0.158009,0.208511,-0.776884
1470245399970698,0.229309,0.181794,-0.886551
1470245399993714,0.276129,0.156133,-0.975873
1470245400014732,0.298168,0.140737,-1.0463
1470245400030747,0.301088,0.142579,-1.09743
1470245400053768,0.283241,0.171351,-1.13345
1470245400076290,0.264758,0.205515,-1.15673
1470245400090802,0.246667,0.240536,-1.17175
1470245400113822,0.232273,0.269778,-1.18062
1470245400136342,0.218103,0.286671,-1.18453
1470245400150855,0.197271,0.291463,-1.18247
1470245400173877,0.171578,0.287336,-1.17349
1470245400196396,0.149709,0.274609,-1.16034
1470245400218917,0.13679,0.257004,-1.14121
1470245400234432,0.132539,0.236811,-1.11889
1470245400256450,0.136866,0.214831,-1.09437
1470245400284976,0.146869,0.19316,-1.06833
1470245400293983,0.159041,0.172533,-1.04537
1470245400322009,0.168227,0.152045,-1.02902
1470245400337523,0.173627,0.133505,-1.01574
1470245400353537,0.171145,0.116032,-1.0053
1470245400376058,0.163088,0.097685,-0.999482
1470245400397076,0.155361,0.0791826,-0.996173
1470245400413591,0.150855,0.0616976,-0.994772
1470245400436112,0.150129,0.0445336,-0.995693
1470245400457630,0.15065,0.0275108,-0.998466
1470245400473645,0.148381,0.0106912,-1.00251
1470245400496169,0.145397,-0.00375994,-1.00877
1470245400517684,0.145402,-0.0143921,-1.01475
1470245400533699,0.146196,-0.0231179,-1.02008
1470245400556221,0.142355,-0.0315994,-1.02436
1470245400577290,0.130406,-0.0396296,-1.02586
1470245400593753,0.111376,-0.0472706,-1.0249
1470245400616273,0.0901083,-0.0524866,-1.02036
1470245400637292,0.0748028,-0.053862,-1.00903
1470245400653806,0.0620979,-0.0525252,-0.990451
1470245400676327,0.0470946,-0.0487974,-0.965752
1470245400697433,0.0303879,-0.0445721,-0.933367
1470245400704352,0.0172625,-0.0388379,-0.893829
1470245400719365,0.00222911,-0.0316699,-0.847278
1470245400741385,-0.0163819,-0.0234256,-0.794831
1470245400763905,-0.0328504,-0.0125272,-0.735483
1470245400779419,-0.0458011,-0.00208509,-0.66876
1470245400801440,-0.0623596,0.00711408,-0.59748
1470245400824465,-0.0805088,0.0154267,-0.524859
1470245400838996,-0.0974077,0.0219564,-0.452458
1470245400861511,-0.112919,0.0270604,-0.38015
1470245400884514,-0.127365,0.0311467,-0.308888
1470245400899527,-0.137734,0.0350303,-0.239642
1470245400926070,-0.144565,0.0363398,-0.172985
1470245400944067,-0.149237,0.0345999,-0.109392
1470245400959096,-0.154395,0.0306888,-0.048174
1470245400981613,-0.157759,0.0255438,0.0102266
1470245401004121,-0.154468,0.020892,0.0657389
1470245401019137,-0.147299,0.0155169,0.118757
1470245401041684,-0.141621,0.00859209,0.16749
1470245401064201,-0.141061,-0.00138865,0.211215
1470245401079191,-0.139581,-0.00945254,0.249834
1470245401101711,-0.131864,-0.0123816,0.285972
1470245401124259,-0.125563,-0.0198954,0.319257
1470245401139245,-0.12522,-0.0293888,0.347779
1470245401161802,-0.130654,-0.0417814,0.371134
1470245401184309,-0.133786,-0.0507049,0.392565
1470245401199296,-0.131671,-0.0554403,0.412048
1470245401221816,-0.130147,-0.0590435,0.428513
1470245401244030,-0.13303,-0.0647683,0.441826
1470245401260502,-0.137331,-0.0709882,0.451788
1470245401284524,-0.139125,-0.0745848,0.460327
1470245401313073,-0.139307,-0.0755648,0.466332
1470245401319072,-0.141003,-0.0770842,0.469939
1470245401341606,-0.147008,-0.0805577,0.472196
1470245401373190,-0.153746,-0.0830092,0.473809
1470245401379154,-0.159354,-0.084159,0.474385
1470245401401628,-0.165494,-0.0866367,0.472219
1470245401424152,-0.172703,-0.0937607,0.467335
1470245401439204,-0.174827,-0.109116,0.454518
1470245401461685,-0.170333,-0.139925,0.425464
1470245401484212,-0.179872,-0.137262,0.373195
1470245401500718,-0.206908,-0.136999,0.321124
1470245401521739,-0.254885,-0.136634,0.254427
1470245401544275,-0.282403,-0.12322,0.160453
1470245401560771,-0.290513,-0.108415,0.0488636
1470245401581791,-0.276142,-0.0981524,-0.0847288
1470245401604311,-0.23119,-0.0985445,-0.243917
1470245401620359,-0.156269,-0.107421,-0.420581
1470245401641845,-0.052175,-0.110712,-0.59881
1470245401664404,0.0751183,-0.120002,-0.774268
1470245401680379,0.198635,-0.135926,-0.939559
1470245401701401,0.29413,-0.169244,-1.09208
1470245401723919,0.344106,-0.189142,-1.22813
1470245401740434,0.384584,-0.195509,-1.34495
1470245401761451,0.406744,-0.198756,-1.40948
1470245401784472,0.40308,-0.201096,-1.41304
1470245401800488,0.368788,-0.190071,-1.37059
1470245401821524,0.32106,-0.177837,-1.26412
1470245401844529,0.248193,-0.164268,-1.10081
1470245401861041,0.173058,-0.151845,-0.889307
1470245401881716,0.0910301,-0.138528,-0.63327
1470245401904111,0.0165168,-0.104136,-0.369907
1470245401920595,-0.0237217,-0.0671325,-0.172985
1470245401941614,-0.020501,-0.0356213,0.0267385
1470245401964136,-0.0137207,-0.00658495,0.183158
1470245401988155,-0.0243827,0.00538226,0.287684
1470245402001667,-0.0549425,-0.00204593,0.355197
1470245402024187,-0.0788505,0.000232667,0.4049
1470245402042205,-0.0809551,0.00809991,0.452128
1470245402061723,-0.0804692,0.00577361,0.486883
1470245402084244,-0.0875532,-0.0101899,0.508324
1470245402102257,-0.0973531,-0.0211462,0.519518
1470245402121775,-0.106671,-0.0271352,0.519832
1470245402144295,-0.116225,-0.0358846,0.512444
1470245402162311,-0.129977,-0.0496138,0.504012
1470245402181829,-0.140677,-0.0621696,0.4961
1470245402206852,-0.148093,-0.0730486,0.488643
1470245402221865,-0.157439,-0.0817368,0.479608
1470245402241988,-0.167137,-0.0860011,0.468744
1470245402264406,-0.177309,-0.0874289,0.457064
1470245402282420,-0.181987,-0.084426,0.446748
1470245402301938,-0.182896,-0.0781682,0.437752
1470245402324016,-0.185885,-0.0716252,0.43011
1470245402341973,-0.190021,-0.0652917,0.423415
1470245402361532,-0.192646,-0.0587112,0.419246
1470245402384013,-0.195097,-0.0531545,0.416794
1470245402402029,-0.197175,-0.0479996,0.414984
1470245402422063,-0.198846,-0.0428264,0.415502
1470245402444102,-0.201028,-0.0388093,0.416063
1470245402462098,-0.202041,-0.0357277,0.417152
1470245402481647,-0.203782,-0.0335239,0.419243
1470245402504167,-0.207033,-0.0318143,0.42195
1470245402522135,-0.210435,-0.0297134,0.424362
1470245402543153,-0.213607,-0.0256561,0.425409
1470245402564173,-0.217001,-0.0199711,0.42478
1470245402582191,-0.220861,-0.0146829,0.424187
1470245402603208,-0.226449,-0.0114377,0.42449
1470245402624282,-0.229526,-0.00758842,0.424892
1470245402642252,-0.229282,-0.0010417,0.426511
1470245402669284,-0.224998,0.00677513,0.428306
1470245402684280,-0.223763,0.0108309,0.429828
1470245402702346,-0.224699,0.0124308,0.431059
1470245402730329,-0.219121,0.0126882,0.431926
1470245402744335,-0.198589,0.00741121,0.428082
1470245402761850,-0.172803,-0.0205003,0.410565
1470245402790376,-0.16133,-0.0311365,0.360851
1470245402804390,-0.159608,-0.0457105,0.322367
1470245402821904,-0.184667,-0.0719373,0.287644
1470245402842943,-0.200218,-0.0927443,0.234669
1470245402863968,-0.198352,-0.117458,0.181722
1470245402881958,-0.183113,-0.156651,0.120205
1470245402904478,-0.153194,-0.202661,0.0447723
1470245402924044,-0.116051,-0.274674,-0.0482604
1470245402942031,-0.0719786,-0.353173,-0.171784
1470245402964537,-0.0284403,-0.41274,-0.302981
1470245402984065,0.00168453,-0.437476,-0.382721
1470245403002066,0.0273029,-0.438031,-0.430476
1470245403024587,0.0513572,-0.407435,-0.450166
1470245403044124,0.0781411,-0.375749,-0.451665
1470245403062120,0.0921215,-0.346259,-0.448199
1470245403084640,0.0910908,-0.322008,-0.449506
1470245403104216,0.0906937,-0.304512,-0.455249
1470245403122190,0.0907564,-0.291407,-0.455345
1470245403144694,0.0807728,-0.284295,-0.450718
1470245403164299,0.064441,-0.284289,-0.447245
1470245403182228,0.055531,-0.284606,-0.443768
1470245403204247,0.0581573,-0.281864,-0.439325
1470245403224912,0.0625368,-0.279653,-0.434806
1470245403241426,0.0611461,-0.278559,-0.433014
1470245403263946,0.05835,-0.276002,-0.433332
1470245403285055,0.0561877,-0.27332,-0.43564
1470245403301479,0.0565469,-0.271359,-0.440375
1470245403323999,0.0572831,-0.270824,-0.447254
1470245403345058,0.0586513,-0.27181,-0.456995
1470245403361035,0.0610085,-0.27318,-0.468409
1470245403384554,0.061891,-0.275798,-0.481376
1470245403405073,0.0616615,-0.28037,-0.495237
1470245403421089,0.0633951,-0.285993,-0.508849
1470245403443649,0.0695721,-0.291482,-0.520389
1470245403465126,0.0773658,-0.297411,-0.530394
1470245403481141,0.0807983,-0.305876,-0.539311
1470245403503696,0.0791664,-0.315976,-0.547544
1470245403525196,0.0794115,-0.325358,-0.553405
1470245403541196,0.0831075,-0.334167,-0.558307
1470245403563715,0.0902914,-0.341371,-0.565571
1470245403584779,0.091463,-0.348209,-0.575978
1470245403601249,0.0872253,-0.349376,-0.584456
1470245403623769,0.0723681,-0.345046,-0.58399
1470245403644813,0.0354952,-0.334826,-0.574907
1470245403660320,-0.010846,-0.3547,-0.56158
1470245403683823,-0.0726297,-0.348159,-0.532198
1470245403704845,-0.107615,-0.315034,-0.464804
1470245403720356,-0.118805,-0.263867,-0.360194
1470245403743877,-0.115852,-0.204601,-0.244211
1470245403764910,-0.102513,-0.145248,-0.139606
1470245403780910,-0.089196,-0.0957664,-0.0658336
1470245403803936,-0.0659403,-0.0566551,0.00810051
1470245403825040,-0.0422063,-0.0262623,0.0696806
1470245403847556,-0.0258524,-0.00953493,0.113598
1470245403863984,-0.0193623,0.00973586,0.145668
1470245403894011,-0.00780949,-0.00667278,0.173461
1470245403900533,-0.00233083,-0.0195172,0.200429
1470245403924038,-0.0073321,-0.0307525,0.220301
1470245403946058,-0.00484044,-0.0381489,0.23332
1470245403960571,0.0067987,-0.0419098,0.243669
1470245403984092,0.0177495,-0.0438199,0.250089
1470245404006112,0.0104132,-0.0509107,0.251947
1470245404027719,-0.00651915,-0.061567,0.250359
1470245404043648,-0.0232457,-0.0722715,0.250074
1470245404066166,-0.0276243,-0.0800782,0.251728
1470245404087755,-0.0236832,-0.0859979,0.251424
1470245404103701,-0.0233153,-0.0917102,0.251758
1470245404126220,-0.0265484,-0.0977054,0.251897
1470245404147302,-0.0336206,-0.10361,0.250301
1470245404163754,-0.0432436,-0.108351,0.24862
1470245404186274,-0.049297,-0.111938,0.247479
1470245404207367,-0.0519095,-0.114337,0.246973
1470245404223808,-0.0550367,-0.116662,0.24699
1470245404246328,-0.0652404,-0.122578,0.246506
1470245404267393,-0.0798334,-0.127704,0.246725
1470245404283862,-0.0920864,-0.132016,0.250026
1470245404306389,-0.0947706,-0.136688,0.254799
1470245404327434,-0.0905028,-0.139228,0.257593
1470245404343915,-0.0858954,-0.139945,0.26073
1470245404366437,-0.0857146,-0.141811,0.264768
1470245404387455,-0.0883239,-0.144699,0.267835
1470245404403969,-0.0897628,-0.147315,0.268956
1470245404426489,-0.0873074,-0.148124,0.2693
1470245404447537,-0.0809752,-0.149579,0.269491
1470245404464047,-0.0688135,-0.155435,0.268041
1470245404486043,-0.0516013,-0.163547,0.266176
1470245404507562,-0.0196367,-0.169394,0.263247
1470245404523579,0.0235789,-0.169164,0.262539
1470245404546597,0.0771536,-0.164452,0.261883
1470245404567616,0.14655,-0.146729,0.253343
1470245404583631,0.22121,-0.11724,0.241085
1470245404606159,0.289448,-0.0779611,0.223971
1470245404628673,0.344973,-0.0301026,0.198585
1470245404643184,0.390958,0.0237451,0.167908
1470245404666205,0.435411,0.0833385,0.134748
1470245404687267,0.479588,0.145584,0.102058
1470245404703238,0.523644,0.206895,0.0739184
1470245404733806,0.569413,0.263254,0.0529742
1470245404747333,0.619142,0.314346,0.0409016
1470245404763792,0.671712,0.357024,0.0379293
1470245404786313,0.714311,0.385356,0.0395285
1470245404807332,0.738809,0.412249,0.0430122
1470245404822847,0.749092,0.431271,0.0482462
1470245404846367,0.748971,0.4413,0.0532775
1470245404868887,0.73326,0.439957,0.0549821
1470245404891407,0.693513,0.414107,0.0484798
1470245404906420,0.632529,0.374362,0.0398885
1470245404928941,0.553361,0.316017,0.0294628
1470245404949960,0.454987,0.239136,0.01966
1470245404966474,0.351461,0.152541,0.0180644
1470245404988995,0.266946,0.0623824,0.0317919
1470245405010013,0.197558,-0.0273719,0.0644037
1470245405026528,0.13301,-0.0997029,0.100462
1470245405051551,0.0633011,-0.152297,0.131968
1470245405064578,-0.0070276,-0.185981,0.16205
1470245405086082,-0.0828525,-0.205728,0.188235
1470245405100597,-0.143302,-0.208955,0.19952
1470245405122695,-0.182535,-0.201381,0.195015
1470245405145135,-0.203523,-0.18901,0.178883
1470245405161149,-0.215264,-0.170754,0.14562
1470245405182669,-0.214787,-0.14986,0.097097
1470245405204690,-0.207386,-0.132971,0.0384584
1470245405221204,-0.20287,-0.115036,-0.0360899
1470245405242249,-0.199792,-0.102194,-0.12867
1470245405264770,-0.197976,-0.0886109,-0.234417
1470245405281260,-0.197277,-0.0738521,-0.34645
1470245405302335,-0.194156,-0.0614231,-0.465632
1470245405324851,-0.188476,-0.0541795,-0.590831
1470245405341311,-0.181963,-0.051897,-0.717374
1470245405362386,-0.173619,-0.0554088,-0.839708
1470245405384912,-0.158214,-0.0614904,-0.95669
1470245405401365,-0.137803,-0.0693479,-1.06315
1470245405422435,-0.12173,-0.0810506,-1.15919
1470245405445412,-0.106994,-0.0975525,-1.24474
1470245405461420,-0.092964,-0.112375,-1.32009
1470245405482438,-0.0827522,-0.125253,-1.38105
1470245405505011,-0.0738878,-0.13385,-1.42646
1470245405521472,-0.0877641,-0.129937,-1.45289
1470245405542533,-0.108482,-0.122186,-1.46314
1470245405565013,-0.131165,-0.109208,-1.45705
1470245405589033,-0.155247,-0.0941945,-1.43366
1470245405602546,-0.173294,-0.0893937,-1.39531
1470245405625069,-0.19907,-0.0851013,-1.34282
1470245405641581,-0.225085,-0.0793487,-1.27777
1470245405662605,-0.249494,-0.0723031,-1.1946
1470245405685123,-0.275143,-0.0659346,-1.09748
1470245405701137,-0.304956,-0.0634181,-0.991791
1470245405722158,-0.341951,-0.064977,-0.880525
1470245405752212,-0.374831,-0.065058,-0.770917
1470245405761188,-0.396713,-0.0623001,-0.663487
1470245405782709,-0.408193,-0.0599516,-0.564087
1470245405804776,-0.413151,-0.0531212,-0.481282
1470245405820742,-0.413349,-0.0402265,-0.413847
1470245405842314,-0.41474,-0.0261149,-0.365382
1470245405864781,-0.425361,-0.0174911,-0.331238
1470245405880795,-0.439914,-0.0293206,-0.308736
1470245405902315,-0.462022,-0.0442373,-0.299646
1470245405924855,-0.479869,-0.0604705,-0.301062
1470245405949357,-0.487158,-0.075463,-0.311492
1470245405977419,-0.489626,-0.0919839,-0.327667
1470245405992395,-0.495051,-0.110828,-0.348271
1470245406008910,-0.500907,-0.130555,-0.373995
1470245406031431,-0.502282,-0.1485,-0.403852
1470245406052466,-0.499986,-0.161415,-0.438685
1470245406068964,-0.498289,-0.175266,-0.477734
1470245406091484,-0.500195,-0.18933,-0.520111
1470245406112504,-0.504955,-0.203061,-0.567401
1470245406129018,-0.504538,-0.214984,-0.618006
1470245406151038,-0.499227,-0.227047,-0.669721
1470245406172557,-0.496308,-0.240891,-0.718916
1470245406188572,-0.497579,-0.256107,-0.764946
1470245406211092,-0.497615,-0.270645,-0.808627
1470245406232611,-0.494449,-0.282861,-0.847075
1470245406248633,-0.49497,-0.286626,-0.878551
1470245406271146,-0.497075,-0.272367,-0.907284
1470245406292220,-0.492022,-0.246927,-0.920237
1470245406309180,-0.496842,-0.233989,-0.934036
1470245406331202,-0.51875,-0.216184,-0.936914
1470245406352719,-0.531698,-0.201276,-0.930931
1470245406368734,-0.529517,-0.193696,-0.925636
1470245406391254,-0.528371,-0.185668,-0.919788
1470245406412273,-0.53174,-0.179606,-0.917327
1470245406428788,-0.534224,-0.170192,-0.912573
1470245406451307,-0.542402,-0.162495,-0.906132
1470245406472827,-0.555294,-0.153843,-0.898568
1470245406488340,-0.564394,-0.144542,-0.890816
1470245406511361,-0.571245,-0.135959,-0.885405
1470245406532883,-0.58265,-0.128965,-0.882842
1470245406556402,-0.595494,-0.122543,-0.881813
1470245406571416,-0.605202,-0.115863,-0.881259
1470245406592489,-0.611107,-0.108463,-0.882104
1470245406607949,-0.613313,-0.101792,-0.883688
1470245406631471,-0.617819,-0.096578,-0.885989
1470245406652534,-0.622705,-0.0917371,-0.889254
1470245406668020,-0.625718,-0.0868777,-0.892199
1470245406691523,-0.626495,-0.0818667,-0.89469
1470245406712544,-0.625261,-0.0779116,-0.89647
1470245406728057,-0.622478,-0.0760297,-0.896997
1470245406751077,-0.622939,-0.0770153,-0.896322
1470245406774097,-0.622667,-0.0789737,-0.894545
1470245406788610,-0.616495,-0.081207,-0.890892
1470245406811133,-0.603008,-0.0865526,-0.88556
1470245406834151,-0.593644,-0.0957888,-0.878676
1470245406855185,-0.591128,-0.106681,-0.869806
1470245406871187,-0.591953,-0.119285,-0.860673
1470245406893710,-0.589419,-0.13404,-0.851545
1470245406914725,-0.579781,-0.147369,-0.844606
1470245406931239,-0.57084,-0.157584,-0.836451
1470245406953759,-0.568178,-0.164871,-0.827797
1470245406974782,-0.56715,-0.16766,-0.821668
1470245406991292,-0.56586,-0.166084,-0.818661
1470245407013813,-0.560443,-0.160796,-0.818359
1470245407034848,-0.552424,-0.153816,-0.818251
1470245407051346,-0.546845,-0.147171,-0.816441
1470245407073867,-0.539944,-0.140412,-0.812069
1470245407094938,-0.524835,-0.133825,-0.802812
1470245407111401,-0.500571,-0.128876,-0.787133
1470245407133921,-0.47343,-0.127596,-0.765993
1470245407154971,-0.44883,-0.132699,-0.745158
1470245407171454,-0.425214,-0.142535,-0.734564
1470245407193974,-0.390468,-0.145553,-0.740792
1470245407215004,-0.344797,-0.120553,-0.762197
1470245407231508,-0.296424,-0.0722021,-0.799219
1470245407253546,-0.259407,0.00251533,-0.854829
1470245407275047,-0.241226,0.102485,-0.926468
1470245407291064,-0.246232,0.221765,-1.01203
1470245407313604,-0.269184,0.351854,-1.11126
1470245407335102,-0.302024,0.484271,-1.22107
1470245407351115,-0.341284,0.611043,-1.33695
1470245407373636,-0.389439,0.727985,-1.45495
1470245407395168,-0.445991,0.834226,-1.57421
1470245407410669,-0.507982,0.928192,-1.69436
1470245407435191,-0.570468,1.00532,-1.80698
1470245407454709,-0.612491,1.06034,-1.89003
1470245407470723,-0.654223,1.08982,-1.95555
1470245407501250,-0.658653,1.09596,-1.97014
1470245407515263,-0.609922,1.07985,-1.9212
1470245407530777,-0.514752,1.04204,-1.81654
1470245407553798,-0.433415,0.962207,-1.69788
1470245407582323,-0.402201,0.857071,-1.59796
1470245407590833,-0.406848,0.717381,-1.49519
1470245407613851,-0.420663,0.564226,-1.38279
1470245407634871,-0.435467,0.407537,-1.26062
1470245407650885,-0.442825,0.262758,-1.12322
1470245407673906,-0.452602,0.13675,-0.97451
1470245407696426,-0.47763,0.0315075,-0.83237
1470245407711442,-0.498791,-0.0543737,-0.69455
1470245407733960,-0.52037,-0.123106,-0.563383
1470245407757981,-0.54575,-0.161642,-0.454699
1470245407777498,-0.570673,-0.181831,-0.373847
1470245407794014,-0.586035,-0.187009,-0.314751
1470245407816534,-0.596157,-0.189415,-0.270352
1470245407837553,-0.601489,-0.201923,-0.24033
1470245407854067,-0.616085,-0.212599,-0.222849
1470245407876088,-0.623992,-0.223066,-0.215879
1470245407897105,-0.622444,-0.231618,-0.216214
1470245407913621,-0.619842,-0.236389,-0.218484
1470245407936141,-0.618282,-0.239544,-0.221675
1470245407957659,-0.619229,-0.244935,-0.224241
1470245407973675,-0.617656,-0.250523,-0.225814
1470245407996695,-0.615472,-0.256818,-0.225909
1470245408017214,-0.616466,-0.265709,-0.225332
1470245408033729,-0.6238,-0.279242,-0.226336
1470245408056249,-0.629396,-0.293386,-0.227517
1470245408077268,-0.630444,-0.302855,-0.227735
1470245408093782,-0.629856,-0.308174,-0.227602
1470245408116303,-0.630569,-0.312229,-0.227326
1470245408137322,-0.634595,-0.31546,-0.226091
1470245408153837,-0.64128,-0.318593,-0.224807
1470245408176357,-0.646107,-0.321564,-0.223932
1470245408197377,-0.647376,-0.323781,-0.22333
1470245408213890,-0.6475,-0.325246,-0.221507
1470245408236410,-0.649279,-0.326512,-0.217592
1470245408257445,-0.649383,-0.327174,-0.211277
1470245408273444,-0.64585,-0.326904,-0.202059
1470245408296464,-0.634279,-0.326498,-0.193194
1470245408317483,-0.612698,-0.326255,-0.18412
1470245408334498,-0.583708,-0.325204,-0.176633
1470245408356518,-0.549979,-0.320642,-0.175788
1470245408377555,-0.51051,-0.307992,-0.182063
1470245408393556,-0.457633,-0.286689,-0.201524
1470245408416573,-0.398306,-0.250161,-0.240109
1470245408437592,-0.338363,-0.195577,-0.295794
1470245408453110,-0.28313,-0.12548,-0.363677
1470245408460612,-0.233916,-0.041444,-0.438877
1470245408482131,-0.194711,0.0521077,-0.515975
1470245408504151,-0.158251,0.153895,-0.593045
1470245408528172,-0.118286,0.256942,-0.663136
1470245408541740,-0.0802546,0.358925,-0.723868
1470245408564231,-0.0402129,0.458453,-0.771946
1470245408580719,0.00695471,0.547505,-0.803744
1470245408601788,0.0603666,0.62291,-0.818451
1470245408624312,0.108196,0.683344,-0.823883
1470245408640773,0.143702,0.727088,-0.823751
1470245408661840,0.161531,0.761354,-0.823765
1470245408684317,0.172513,0.776084,-0.817098
1470245408701329,0.167917,0.765567,-0.810277
1470245408721879,0.156998,0.719966,-0.796563
1470245408744366,0.119671,0.64721,-0.786985
1470245408760881,0.052704,0.54658,-0.775777
1470245408781900,-0.0267879,0.420289,-0.747445
1470245408804425,-0.100738,0.281308,-0.701316
1470245408820434,-0.144151,0.146149,-0.622222
1470245408842039,-0.196727,0.0270246,-0.520584
1470245408864583,-0.260529,-0.0598614,-0.425509
1470245408880488,-0.317217,-0.122696,-0.334547
1470245408902014,-0.379992,-0.160785,-0.242825
1470245408926030,-0.45782,-0.178751,-0.159882
1470245408941043,-0.517048,-0.18563,-0.0937656
1470245408962062,-0.552799,-0.187885,-0.0427855
1470245408984095,-0.572574,-0.19289,-0.00760021
1470245409003599,-0.594348,-0.198853,0.0176036
1470245409021615,-0.61532,-0.20439,0.0361915
1470245409044167,-0.62702,-0.20745,0.0496764
1470245409060650,-0.63186,-0.209138,0.0573577
1470245409082195,-0.635592,-0.213192,0.0596509
1470245409104714,-0.640959,-0.218005,0.0596896
1470245409120704,-0.647279,-0.224423,0.0580824
1470245409141755,-0.655434,-0.232516,0.0547242
1470245409164244,-0.664438,-0.241459,0.0502576
1470245409180759,-0.672997,-0.249003,0.0454467
1470245409201806,-0.679945,-0.254279,0.0401609
1470245409224329,-0.685078,-0.258455,0.0346483
1470245409248319,-0.689683,-0.260727,0.029036
1470245409261852,-0.693813,-0.261494,0.0243786
1470245409284371,-0.698278,-0.260536,0.0209641
1470245409300867,-0.703007,-0.259638,0.0185193
1470245409321926,-0.707262,-0.259062,0.0162525
1470245409344405,-0.710702,-0.256909,0.0146095
1470245409360921,-0.715019,-0.254106,0.0134611
1470245409381940,-0.718083,-0.251181,0.0121118
1470245409404460,-0.720629,-0.247951,0.0108304
1470245409420974,-0.722972,-0.246194,0.00913915
1470245409441992,-0.722382,-0.24499,0.00703382
1470245409464068,-0.715516,-0.243779,0.00283014
1470245409482530,-0.696953,-0.242381,-0.0067459
1470245409502046,-0.672435,-0.243009,-0.0233041
1470245409527070,-0.643592,-0.246295,-0.0515741
1470245409541082,-0.609754,-0.233088,-0.0943161
1470245409562226,-0.569019,-0.208645,-0.145825
1470245409584121,-0.529768,-0.17636,-0.20776
1470245409609644,-0.489667,-0.135322,-0.286018
1470245409622173,-0.438338,-0.082754,-0.376386
1470245409644174,-0.38439,-0.0204752,-0.47285
1470245409662192,-0.338306,0.0492949,-0.57217
1470245409682208,-0.302196,0.124214,-0.671247
1470245409704273,-0.27541,0.199485,-0.768399
1470245409722244,-0.251436,0.274037,-0.860859
1470245409741817,-0.230284,0.345036,-0.945317
1470245409764285,-0.211287,0.409062,-1.01989
1470245409782298,-0.196359,0.457861,-1.0835
1470245409801816,-0.194893,0.489531,-1.13839
1470245409831862,-0.210313,0.503722,-1.18825
1470245409842364,-0.243449,0.50213,-1.23759
1470245409861872,-0.275567,0.482547,-1.27079
1470245409887392,-0.291411,0.445024,-1.27185
1470245409901906,-0.302969,0.392657,-1.24843
1470245409922016,-0.305378,0.327399,-1.19166
1470245409944479,-0.311931,0.246925,-1.10286
1470245409961960,-0.338178,0.158641,-0.988102
1470245409982014,-0.387296,0.0693931,-0.851959
1470245410003999,-0.44462,-0.00405548,-0.700961
1470245410022014,-0.521181,-0.0620841,-0.550551
1470245410042031,-0.589219,-0.102562,-0.412344
1470245410064552,-0.645264,-0.130652,-0.290256
1470245410082068,-0.697698,-0.146711,-0.189848
1470245410102086,-0.746246,-0.152635,-0.115024
1470245410124673,-0.775867,-0.155174,-0.0711619
1470245410142121,-0.79079,-0.154805,-0.0618666
1470245410162243,-0.785692,-0.141542,-0.084526
1470245410184664,-0.764412,-0.119911,-0.1374
1470245410202175,-0.727185,-0.103168,-0.226801
1470245410224697,-0.684027,-0.0804563,-0.348309
1470245410244232,-0.642285,-0.0519613,-0.498113
1470245410262230,-0.600202,-0.0169046,-0.66805
1470245410283249,-0.566903,0.0228238,-0.84432
1470245410304297,-0.540729,0.0656549,-1.01535
1470245410322299,-0.513275,0.113341,-1.17458
1470245410343302,-0.494335,0.16055,-1.3191
1470245410364367,-0.477515,0.2061,-1.4404
1470245410382337,-0.459906,0.24664,-1.53127
1470245410403356,-0.447782,0.274773,-1.59952
1470245410424389,-0.437098,0.288628,-1.64986
1470245410442391,-0.433374,0.288057,-1.68419
1470245410462946,-0.427037,0.279406,-1.69553
1470245410484463,-0.426444,0.260643,-1.68603
1470245410501945,-0.417527,0.230178,-1.6547
1470245410524975,-0.414162,0.189168,-1.60353
1470245410544533,-0.417233,0.131305,-1.52693
1470245410561998,-0.411946,0.0645406,-1.42041
1470245410585020,-0.407349,-0.00947364,-1.28363
1470245410604536,-0.418746,-0.0800907,-1.13372
1470245410622052,-0.452082,-0.137166,-0.990946
1470245410644607,-0.492584,-0.181447,-0.861435
1470245410664091,-0.537191,-0.216786,-0.744791
1470245410682608,-0.591716,-0.234928,-0.648304
1470245410704629,-0.628658,-0.225711,-0.589444
1470245410724725,-0.636665,-0.20476,-0.546781
1470245410742163,-0.652827,-0.19733,-0.514942
1470245410764180,-0.699769,-0.194228,-0.491352
1470245410784248,-0.720557,-0.201719,-0.482195
1470245410802214,-0.703838,-0.206681,-0.48473
1470245410824736,-0.682814,-0.219249,-0.493891
1470245410844754,-0.682702,-0.237003,-0.501744
1470245410868273,-0.690547,-0.253438,-0.50894
1470245410884789,-0.68866,-0.267885,-0.51834
1470245410904307,-0.675187,-0.273963,-0.526264
1470245410922322,-0.655032,-0.274611,-0.533132
1470245410944844,-0.64349,-0.273113,-0.536447
1470245410964360,-0.648315,-0.271837,-0.536072
1470245410981375,-0.660522,-0.27282,-0.536189
1470245411003895,-0.665373,-0.275279,-0.53998
1470245411024946,-0.661575,-0.275531,-0.544617
1470245411041430,-0.65794,-0.274249,-0.546808
1470245411065450,-0.660453,-0.273061,-0.546118
1470245411085027,-0.666919,-0.272664,-0.543745
1470245411101485,-0.674718,-0.273873,-0.54142
1470245411124003,-0.678796,-0.275393,-0.540203
1470245411145022,-0.680128,-0.276493,-0.538849
1470245411161537,-0.682132,-0.276993,-0.537075
1470245411184057,-0.686978,-0.277823,-0.535231
1470245411205132,-0.69092,-0.279045,-0.533439
1470245411221591,-0.692358,-0.279779,-0.531777
1470245411244110,-0.692509,-0.279479,-0.529514
1470245411265130,-0.693103,-0.279794,-0.526763
1470245411281196,-0.694164,-0.280514,-0.523999
1470245411303664,-0.693897,-0.281142,-0.521066
1470245411325183,-0.692126,-0.281783,-0.517635
1470245411341698,-0.689862,-0.282208,-0.514024
1470245411363718,-0.687615,-0.283168,-0.511085
1470245411385238,-0.685663,-0.284565,-0.508679
1470245411401752,-0.683695,-0.286439,-0.50678
1470245411423774,-0.683118,-0.288429,-0.504807
1470245411444847,-0.682832,-0.290161,-0.503298
1470245411461338,-0.682338,-0.291625,-0.502335
1470245411483829,-0.681111,-0.293003,-0.501669
1470245411506347,-0.67945,-0.294531,-0.501422
1470245411520859,-0.678022,-0.295719,-0.500434
1470245411543880,-0.677633,-0.297286,-0.499274
1470245411566401,-0.677923,-0.298903,-0.498054
1470245411580914,-0.678295,-0.300585,-0.497636
1470245411603934,-0.678036,-0.301946,-0.49721
1470245411626454,-0.677791,-0.303237,-0.496952
1470245411640967,-0.678173,-0.304163,-0.496634
1470245411663988,-0.678914,-0.304727,-0.496133
1470245411686508,-0.680201,-0.305258,-0.496179
1470245411701021,-0.680466,-0.305797,-0.49667
1470245411724042,-0.679539,-0.30597,-0.497482
1470245411746562,-0.679394,-0.305956,-0.497924
1470245411761075,-0.679585,-0.306218,-0.498084
1470245411784096,-0.679579,-0.306263,-0.498218
1470245411806615,-0.679062,-0.306657,-0.498241
1470245411820650,-0.677862,-0.307283,-0.498428
1470245411843650,-0.676954,-0.307723,-0.498201
1470245411866672,-0.676132,-0.308351,-0.498038
1470245411880683,-0.675287,-0.309159,-0.498414
1470245411903704,-0.673976,-0.309829,-0.499082
1470245411926224,-0.67273,-0.310323,-0.499981
1470245411940737,-0.672141,-0.310482,-0.500547
1470245411964258,-0.671789,-0.310084,-0.50083
1470245411986277,-0.670999,-0.309814,-0.5011
1470245412007297,-0.668671,-0.309682,-0.501579
1470245412023811,-0.663655,-0.309286,-0.50175
1470245412046331,-0.660657,-0.308292,-0.500478
1470245412067370,-0.725574,-0.327785,-0.507221
1470245412083864,-0.791681,-0.336868,-0.542181
1470245412106385,-0.789106,-0.278693,-0.55617
1470245412127495,-0.763161,-0.184587,-0.570893
1470245412143919,-0.719652,-0.0805852,-0.584098
1470245412166439,-0.668696,0.0268481,-0.598331
1470245412188982,-0.629726,0.109644,-0.61014
1470245412203472,-0.583972,0.148624,-0.616557
1470245412226493,-0.563655,0.146932,-0.617816
1470245412247013,-0.567143,0.095831,-0.614027
1470245412263026,-0.574686,0.0357224,-0.608754
1470245412286547,-0.562612,-0.00879707,-0.602708
1470245412309067,-0.553784,-0.0467741,-0.594921
1470245412323079,-0.554169,-0.0782444,-0.585318
1470245412346600,-0.562455,-0.102312,-0.575467
1470245412367620,-0.572262,-0.117278,-0.566156
1470245412383634,-0.57861,-0.124556,-0.557869
1470245412406656,-0.581689,-0.127941,-0.550191
1470245412428675,-0.587865,-0.132462,-0.544491
1470245412443688,-0.591804,-0.135102,-0.541276
1470245412466709,-0.591542,-0.136904,-0.538861
1470245412496237,-0.590075,-0.140452,-0.53689
1470245412503243,-0.587514,-0.14411,-0.534614
1470245412526264,-0.583465,-0.148013,-0.531236
1470245412548782,-0.581802,-0.154577,-0.528976
1470245412570308,-0.585032,-0.165689,-0.529053
1470245412586316,-0.58816,-0.177779,-0.530972
1470245412608836,-0.582069,-0.18786,-0.533604
1470245412629855,-0.577374,-0.198452,-0.536909
1470245412646383,-0.664533,-0.247725,-0.562622
1470245412668890,-0.635885,-0.18678,-0.623169
1470245412689962,-0.623945,-0.088249,-0.640947
1470245412706424,-0.600743,0.0374591,-0.668949
1470245412728946,-0.570598,0.168774,-0.704881
1470245412749966,-0.542958,0.260296,-0.742171
1470245412766479,-0.496677,0.291674,-0.766107
1470245412788998,-0.471175,0.246932,-0.77092
1470245412810072,-0.483879,0.160774,-0.754551
1470245412826532,-0.483775,0.0877256,-0.739283
1470245412849052,-0.468381,0.0334614,-0.729929
1470245412870120,-0.45176,-0.00385545,-0.721769
1470245412886586,-0.450512,-0.0306207,-0.711861
1470245412909106,-0.461567,-0.0439498,-0.701839
1470245412930127,-0.475848,-0.050553,-0.6964
1470245412946639,-0.487656,-0.0559797,-0.697471
1470245412969160,-0.49541,-0.0622631,-0.700357
1470245412990239,-0.504348,-0.072117,-0.70172
1470245413006193,-0.511322,-0.0806137,-0.699756
1470245413028713,-0.516954,-0.0889339,-0.6961
1470245413050234,-0.521113,-0.0983521,-0.694095
1470245413066247,-0.524619,-0.11009,-0.694967
1470245413088768,-0.527064,-0.123106,-0.696965
1470245413110291,-0.526707,-0.135377,-0.696746
1470245413126304,-0.526426,-0.146572,-0.693328
1470245413148825,-0.530554,-0.159665,-0.690187
1470245413170340,-0.534435,-0.171814,-0.688765
1470245413185854,-0.533524,-0.180159,-0.687005
1470245413216382,-0.530397,-0.18578,-0.683856
1470245413229949,-0.531135,-0.191318,-0.680485
1470245413245909,-0.535719,-0.198429,-0.679706
1470245413268930,-0.538167,-0.203054,-0.680921
1470245413289948,-0.53577,-0.204475,-0.681938
1470245413305962,-0.532461,-0.204551,-0.682336
1470245413328989,-0.534594,-0.206366,-0.682579
1470245413350017,-0.536616,-0.207713,-0.683627
1470245413366517,-0.534349,-0.206286,-0.684387
1470245413389038,-0.529806,-0.203891,-0.685242
1470245413411557,-0.528443,-0.202292,-0.685234
1470245413426570,-0.529785,-0.20067,-0.684777
1470245413449091,-0.529557,-0.198137,-0.685131
1470245413471610,-0.527885,-0.194975,-0.685614
1470245413486626,-0.526631,-0.19142,-0.68606
1470245413510146,-0.525892,-0.188279,-0.685831
1470245413531665,-0.52406,-0.185627,-0.685098
1470245413545677,-0.520918,-0.183194,-0.684022
1470245413568737,-0.516912,-0.182611,-0.684021
1470245413591236,-0.516442,-0.187654,-0.686776
1470245413612738,-0.518543,-0.197138,-0.690818
1470245413628754,-0.520714,-0.207252,-0.694615
1470245413651272,-0.519471,-0.214915,-0.697241
1470245413672347,-0.516479,-0.220445,-0.699023
1470245413688805,-0.5132,-0.225227,-0.700049
1470245413712329,-0.510369,-0.227163,-0.699954
1470245413725840,-0.504608,-0.225919,-0.700585
1470245413748861,-0.499612,-0.221765,-0.700355
1470245413771380,-0.516899,-0.21305,-0.691704
1470245413792415,-0.560795,-0.219791,-0.672115
1470245413808914,-0.642334,-0.234564,-0.663094
1470245413831436,-0.672855,-0.198644,-0.598035
1470245413852452,-0.666797,-0.158822,-0.519918
1470245413868968,-0.640205,-0.132199,-0.460878
1470245413891988,-0.619924,-0.090218,-0.375661
1470245413912509,-0.616797,-0.0686899,-0.313718
1470245413929022,-0.616456,-0.0628609,-0.268191
1470245413951542,-0.599711,-0.0752782,-0.233757
1470245413972561,-0.589964,-0.0903467,-0.215105
1470245413996582,-0.590275,-0.108177,-0.208361
1470245414011595,-0.59026,-0.123892,-0.210234
1470245414032615,-0.584645,-0.133488,-0.214525
1470245414049129,-0.57771,-0.136787,-0.219846
1470245414071149,-0.573602,-0.135122,-0.224603
1470245414092669,-0.573845,-0.131397,-0.227856
1470245414108185,-0.573116,-0.126107,-0.230168
1470245414131259,-0.572817,-0.12084,-0.231954
1470245414152243,-0.57189,-0.115721,-0.232808
1470245414169239,-0.574983,-0.110937,-0.231296
1470245414191257,-0.580455,-0.105406,-0.228414
1470245414212776,-0.586026,-0.0991676,-0.224109
1470245414228798,-0.588431,-0.0912944,-0.219226
1470245414251313,-0.585267,-0.0845366,-0.214327
1470245414273833,-0.576716,-0.0905159,-0.214195
1470245414288344,-0.568193,-0.103818,-0.233602
1470245414311366,-0.555316,-0.124101,-0.275201
1470245414333885,-0.549796,-0.139855,-0.284797
1470245414356407,-0.542661,-0.157036,-0.297778
1470245414371419,-0.515105,-0.191133,-0.322616
1470245414393939,-0.470655,-0.231654,-0.347777
1470245414408453,-0.434165,-0.291413,-0.378344
1470245414431473,-0.422052,-0.357089,-0.416755
1470245414453993,-0.412595,-0.396877,-0.442676
1470245414475057,-0.405908,-0.389557,-0.441095
1470245414491527,-0.367952,-0.393309,-0.444445
1470245414514046,-0.328644,-0.387014,-0.439005
1470245414535149,-0.30938,-0.375282,-0.42816
1470245414551580,-0.31557,-0.364995,-0.413033
1470245414574100,-0.326895,-0.356605,-0.399839
1470245414595176,-0.331507,-0.350971,-0.392546
1470245414611140,-0.331976,-0.349642,-0.389193
1470245414633656,-0.33347,-0.350476,-0.38409
1470245414655174,-0.333007,-0.352449,-0.377964
1470245414671187,-0.328494,-0.355456,-0.373096
1470245414693715,-0.324653,-0.357813,-0.367967
1470245414715252,-0.323579,-0.359874,-0.363468
1470245414731244,-0.325509,-0.363293,-0.360022
1470245414753762,-0.329085,-0.368048,-0.358988
1470245414775281,-0.331865,-0.372273,-0.360024
1470245414791308,-0.335585,-0.375619,-0.362586
1470245414813816,-0.338798,-0.377066,-0.366903
1470245414834861,-0.343113,-0.378722,-0.37156
1470245414851351,-0.346623,-0.379337,-0.376313
1470245414873875,-0.34876,-0.378773,-0.379822
1470245414894933,-0.350696,-0.377791,-0.381582
1470245414911404,-0.353735,-0.377992,-0.38109
1470245414933924,-0.356852,-0.37972,-0.379318
1470245414955450,-0.359448,-0.381526,-0.377321
1470245414971458,-0.36224,-0.382099,-0.374726
1470245414993978,-0.366838,-0.382536,-0.371464
1470245415019501,-0.370123,-0.381993,-0.368581
1470245415023506,-0.371976,-0.38128,-0.36643
1470245415046525,-0.373831,-0.380696,-0.365978
1470245415061038,-0.37762,-0.374147,-0.366127
1470245415083059,-0.374904,-0.38346,-0.368115
1470245415106581,-0.375528,-0.381676,-0.368131
1470245415127597,-0.385006,-0.37318,-0.365404
1470245415143112,-0.378898,-0.382769,-0.369645
1470245415166633,-0.383169,-0.379503,-0.371323
1470245415187681,-0.389433,-0.376013,-0.371785
1470245415203166,-0.384174,-0.382238,-0.376157
1470245415226188,-0.384036,-0.379802,-0.380189
1470245415247722,-0.385485,-0.379964,-0.383331
1470245415263219,-0.385773,-0.379693,-0.38685
1470245415286240,-0.38424,-0.378578,-0.390236
1470245415307759,-0.383367,-0.377358,-0.393045
1470245415323273,-0.383871,-0.375778,-0.395685
1470245415345794,-0.381364,-0.384342,-0.399274
1470245415367814,-0.387274,-0.370999,-0.399811
1470245415383331,-0.384801,-0.377993,-0.402628
1470245415407368,-0.383835,-0.374587,-0.40499
1470245415427869,-0.384315,-0.371614,-0.407719
1470245415443419,-0.384315,-0.370114,-0.411208
1470245415465902,-0.383799,-0.368234,-0.414164
1470245415487421,-0.383106,-0.366177,-0.417082
1470245415503435,-0.382818,-0.36426,-0.419638
1470245415525955,-0.383607,-0.362778,-0.422365
1470245415548976,-0.383076,-0.361269,-0.425284
1470245415563489,-0.382763,-0.36005,-0.428119
1470245415585509,-0.383409,-0.3582,-0.430522
1470245415609032,-0.384089,-0.356606,-0.433419
1470245415623047,-0.38479,-0.354752,-0.435718
1470245415645621,-0.384175,-0.35246,-0.437584
1470245415669084,-0.38442,-0.350179,-0.439098
1470245415683097,-0.3856,-0.348002,-0.440042
1470245415705617,-0.387025,-0.346786,-0.440969
1470245415728655,-0.387962,-0.346506,-0.442045
1470245415743150,-0.388574,-0.346292,-0.442649
1470245415766672,-0.388592,-0.34617,-0.442662
1470245415789192,-0.387886,-0.346236,-0.443161
1470245415803207,-0.388188,-0.347718,-0.443672
1470245415833731,-0.388166,-0.350017,-0.444192
1470245415849247,-0.384316,-0.350691,-0.44474
1470245415870265,-0.368075,-0.350934,-0.446753
1470245415885778,-0.350085,-0.367658,-0.464689
1470245415916306,-0.348693,-0.371182,-0.488264
1470245415937825,-0.310412,-0.328282,-0.508859
1470245415953841,-0.244252,-0.264374,-0.532715
1470245415976360,-0.172908,-0.180437,-0.566787
1470245415997378,-0.116492,-0.0924528,-0.597356
1470245416013393,-0.0430827,-0.0135745,-0.610374
1470245416036414,0.0365447,0.0406116,-0.606804
1470245416057448,0.0871964,0.0625168,-0.592282
1470245416073447,0.107862,0.0660832,-0.576976
1470245416096468,0.116236,0.0518535,-0.566951
1470245416117561,0.111852,0.0304876,-0.561167
1470245416133500,0.0984324,0.00933956,-0.556705
1470245416156522,0.0804645,-0.00706807,-0.554416
1470245416179043,0.0574782,-0.0231316,-0.554209
1470245416193064,0.0286688,-0.0420896,-0.556869
1470245416216576,-0.00689663,-0.0610323,-0.558175
1470245416222093,-0.0455072,-0.0788569,-0.558441
1470245416244637,-0.0752156,-0.0943481,-0.557386
1470245416261115,-0.0954866,-0.106484,-0.556392
1470245416282134,-0.108626,-0.115236,-0.554647
1470245416304187,-0.117798,-0.122093,-0.551566
1470245416320689,-0.122849,-0.128021,-0.547128
1470245416341690,-0.125327,-0.134335,-0.544186
1470245416364209,-0.116892,-0.13776,-0.54371
1470245416380725,-0.0844709,-0.135751,-0.546053
1470245416402277,-0.0300002,-0.112657,-0.558286
1470245416432769,0.0435275,-0.0835575,-0.587174
1470245416440777,0.0993307,-0.0803965,-0.661753
1470245416461796,0.0923864,-0.0954858,-0.811554
1470245416484817,0.200865,-0.0596237,-0.948288
1470245416500831,0.276314,-0.0409107,-1.02546
1470245416522352,0.338456,-0.0274443,-1.07581
1470245416544403,0.354791,-0.0239176,-1.10461
1470245416560885,0.357999,-0.022174,-1.10991
1470245416581905,0.359595,-0.0111942,-1.09714
1470245416604474,0.3633,0.00736906,-1.07618
1470245416620939,0.364764,0.0281828,-1.05458
1470245416642016,0.359699,0.0449082,-1.03575
1470245416664511,0.349254,0.0533598,-1.02112
1470245416680501,0.332931,0.0527115,-1.00814
1470245416702065,0.312438,0.0454158,-0.99477
1470245416724627,0.291719,0.0336398,-0.982627
1470245416741046,0.272037,0.0188081,-0.971246
1470245416762089,0.253047,0.00183751,-0.959429
1470245416784585,0.233523,-0.0150895,-0.946274
1470245416801100,0.2175,-0.0299463,-0.933728
1470245416823122,0.208328,-0.0405009,-0.923165
1470245416844639,0.20416,-0.0480792,-0.913884
1470245416860658,0.199297,-0.0555408,-0.905759
1470245416882173,0.192506,-0.0654508,-0.899949
1470245416904729,0.186004,-0.0767265,-0.894972
1470245416922209,0.183497,-0.0875052,-0.890683
1470245416942227,0.182096,-0.0987315,-0.887624
1470245416964302,0.177193,-0.106301,-0.882063
1470245416982263,0.171498,-0.0989029,-0.871391
1470245417001782,0.163067,-0.0621282,-0.853873
1470245417024301,0.159662,-0.0448082,-0.836618
1470245417050325,0.174352,-0.00227019,-0.812828
1470245417061834,0.21206,0.0501408,-0.790981
1470245417085862,0.252218,0.08878,-0.769298
1470245417102371,0.283571,0.0992536,-0.759517
1470245417121925,0.29258,0.124503,-0.774901
1470245417144498,0.313079,0.105241,-0.75499
1470245417162425,0.327857,0.0872798,-0.743263
1470245417181961,0.336167,0.0635784,-0.739269
1470245417204464,0.339909,0.0382579,-0.731128
1470245417222485,0.346097,0.0202692,-0.721735
1470245417241996,0.35212,0.0108579,-0.714824
1470245417264545,0.355083,0.00679942,-0.710447
1470245417282032,0.354874,0.0054518,-0.707749
1470245417302058,0.349287,0.00251059,-0.706613
1470245417327072,0.340855,-0.00291494,-0.704632
1470245417342086,0.334295,-0.00865756,-0.701219
1470245417362104,0.33482,-0.0130271,-0.696885
1470245417384624,0.336363,-0.0164453,-0.691891
1470245417407144,0.336794,-0.0198566,-0.687919
1470245417422158,0.332471,-0.0246606,-0.684118
1470245417444678,0.3263,-0.0293307,-0.680932
1470245417462194,0.321769,-0.032291,-0.678084
1470245417482327,0.318901,-0.032963,-0.67509
1470245417504732,0.316506,-0.0325848,-0.672763
1470245417522248,0.310068,-0.0333358,-0.670469
1470245417541821,0.301798,-0.0292419,-0.66794
1470245417564316,0.300336,-0.0401797,-0.667196
1470245417582302,0.302718,-0.0451688,-0.668699
1470245417602327,0.304812,-0.0462733,-0.67229
1470245417624851,0.309047,-0.0446506,-0.676941
1470245417642857,0.309109,-0.0409574,-0.681309
1470245417661874,0.30416,-0.0377338,-0.68659
1470245417685896,0.299378,-0.0347489,-0.691649
1470245417702410,0.297097,-0.0308488,-0.694284
1470245417721932,0.295789,-0.0271313,-0.696896
1470245417744462,0.294165,-0.0241754,-0.700541
1470245417762463,0.292569,-0.0219731,-0.704458
1470245417783483,0.288189,-0.0216989,-0.709394
1470245417806005,0.283537,-0.0224117,-0.714718
1470245417830057,0.275402,-0.0193754,-0.718623
1470245417843036,0.270037,-0.0201074,-0.723253
1470245417864555,0.26273,-0.022267,-0.727994
1470245417882073,0.250509,-0.0255308,-0.733857
1470245417903590,0.230206,-0.0307904,-0.741203
1470245417932115,0.197337,-0.0377318,-0.74969
1470245417942625,0.147852,-0.0482952,-0.757814
1470245417963644,0.0775559,-0.0604473,-0.760258
1470245417984663,-0.0100207,-0.0731171,-0.751209
1470245418002179,-0.0717156,-0.0924081,-0.717739
1470245418023198,-0.110713,-0.112877,-0.638666
1470245418044717,-0.149136,-0.131812,-0.534764
1470245418062232,-0.191806,-0.141561,-0.440063
1470245418084756,-0.251128,-0.148332,-0.377623
1470245418104284,-0.299414,-0.143697,-0.339902
1470245418129793,-0.346442,-0.134668,-0.328205
1470245418152313,-0.357579,-0.108691,-0.336634
1470245418164358,-0.36779,-0.0869244,-0.357826
1470245418182340,-0.384722,-0.0848581,-0.380511
1470245418204863,-0.405407,-0.0914409,-0.400157
1470245418224434,-0.411714,-0.0936172,-0.406329
1470245418242426,-0.402341,-0.090765,-0.403621
1470245418265461,-0.3893,-0.0857826,-0.400917
1470245418284436,-0.381354,-0.0802297,-0.398664
1470245418302449,-0.378682,-0.077614,-0.397238
1470245418324968,-0.376109,-0.0757779,-0.397694
1470245418352009,-0.372207,-0.0743711,-0.399867
1470245418362502,-0.364644,-0.073488,-0.404847
1470245418385023,-0.355363,-0.080382,-0.414941
1470245418404605,-0.348457,-0.109508,-0.437213
1470245418422056,-0.35288,-0.130419,-0.496312
1470245418444576,-0.346523,-0.138565,-0.547374
1470245418464602,-0.360935,-0.16964,-0.582851
1470245418482110,-0.367711,-0.204393,-0.63555
1470245418505131,-0.364864,-0.241625,-0.686189
1470245418524648,-0.355835,-0.282616,-0.735011
1470245418542164,-0.341328,-0.336703,-0.796961
1470245418565691,-0.321457,-0.377673,-0.8616
1470245418584701,-0.303429,-0.394351,-0.908237
1470245418602220,-0.302491,-0.38063,-0.929227
1470245418630743,-0.297803,-0.353229,-0.937937
1470245418644761,-0.293443,-0.321976,-0.942143
1470245418662272,-0.299871,-0.29693,-0.943264
1470245418684793,-0.309654,-0.27861,-0.940555
1470245418704827,-0.317339,-0.263279,-0.937514
1470245418727831,-0.327464,-0.251586,-0.934684
1470245418746848,-0.338528,-0.245781,-0.933719
1470245418764863,-0.346656,-0.244818,-0.932819
1470245418780878,-0.351942,-0.244469,-0.931376
1470245418801898,-0.354929,-0.242841,-0.929068
1470245418824433,-0.354232,-0.242178,-0.926082
1470245418840933,-0.344856,-0.249154,-0.924623
1470245418861951,-0.352118,-0.238363,-0.921519
1470245418884971,-0.35707,-0.236037,-0.920816
1470245418906992,-0.353361,-0.246736,-0.923849
1470245418922005,-0.359601,-0.239863,-0.925632
1470245418946027,-0.360037,-0.235881,-0.927642
1470245418961040,-0.358485,-0.233105,-0.931018
1470245418982058,-0.359565,-0.231811,-0.9348
1470245419004578,-0.359971,-0.230566,-0.938666
1470245419021093,-0.358708,-0.229736,-0.943179
1470245419042112,-0.358081,-0.229057,-0.947511
1470245419072641,-0.360661,-0.218902,-0.952301
1470245419080647,-0.358536,-0.227703,-0.957749
1470245419103167,-0.36184,-0.223555,-0.962783
1470245419124687,-0.366848,-0.223946,-0.96591
1470245419141201,-0.369774,-0.22367,-0.970321
1470245419164724,-0.372027,-0.223358,-0.974336
1470245419184253,-0.376297,-0.223336,-0.977876
1470245419201255,-0.380081,-0.222084,-0.980308
1470245419223277,-0.381426,-0.220839,-0.982473
1470245419244296,-0.382612,-0.220707,-0.984325
1470245419260809,-0.384785,-0.220404,-0.985081
1470245419283329,-0.385973,-0.219781,-0.985597
1470245419304850,-0.386728,-0.218621,-0.986052
1470245419320863,-0.386679,-0.21786,-0.987006
1470245419343383,-0.385602,-0.217185,-0.988414
1470245419364402,-0.385441,-0.216366,-0.989953
1470245419380917,-0.38462,-0.2141,-0.992293
1470245419403437,-0.381272,-0.210339,-0.995398
1470245419424475,-0.376381,-0.206542,-1.00023
1470245419440971,-0.370469,-0.202255,-1.00727
1470245419463491,-0.365227,-0.196523,-1.01636
1470245419484543,-0.359728,-0.189283,-1.02722
1470245419501024,-0.354488,-0.18129,-1.03967
1470245419523544,-0.346943,-0.172892,-1.05351
1470245419544630,-0.338704,-0.163942,-1.06887
1470245419561078,-0.330491,-0.154975,-1.08514
1470245419583599,-0.323078,-0.146343,-1.10223
1470245419604643,-0.3159,-0.138229,-1.11927
1470245419621132,-0.30937,-0.131428,-1.13682
1470245419644153,-0.30171,-0.126049,-1.15435
1470245419666673,-0.297174,-0.122788,-1.17152
1470245419687716,-0.293355,-0.120727,-1.18835
1470245419704206,-0.291484,-0.121763,-1.20399
1470245419726727,-0.288998,-0.124238,-1.21846
1470245419747801,-0.284731,-0.126921,-1.23124
1470245419764261,-0.278221,-0.130042,-1.24306
1470245419786328,-0.270018,-0.132799,-1.25342
1470245419807884,-0.265149,-0.136276,-1.26202
1470245419823315,-0.263788,-0.139296,-1.2699
1470245419846338,-0.261133,-0.141282,-1.27664
1470245419867353,-0.252798,-0.142074,-1.28256
1470245419883869,-0.245838,-0.143259,-1.28851
1470245419907390,-0.243457,-0.145171,-1.29488
1470245419927409,-0.2456,-0.147,-1.29947
1470245419943422,-0.24765,-0.148692,-1.30266
1470245419966445,-0.245712,-0.150524,-1.30657
1470245419987520,-0.242186,-0.152976,-1.31041
1470245420003476,-0.242766,-0.155757,-1.31307
1470245420026497,-0.245428,-0.157632,-1.31456
1470245420049016,-0.243984,-0.1585,-1.31526
1470245420064030,-0.238494,-0.159346,-1.31703
1470245420086550,-0.234519,-0.161073,-1.31971
1470245420109071,-0.236441,-0.163088,-1.32088
1470245420123583,-0.241505,-0.164277,-1.32103
1470245420146604,-0.242732,-0.164331,-1.3212
1470245420169124,-0.23751,-0.16459,-1.32208
1470245420183637,-0.234921,-0.165298,-1.32343
1470245420206658,-0.237408,-0.165363,-1.32503
1470245420229178,-0.24141,-0.163061,-1.32661
1470245420243692,-0.242803,-0.15992,-1.32982
1470245420266713,-0.243024,-0.157508,-1.33361
1470245420289233,-0.243161,-0.156609,-1.33747
1470245420303244,-0.242643,-0.155708,-1.33988
1470245420326265,-0.239839,-0.154692,-1.34227
1470245420349287,-0.23499,-0.154472,-1.34522
1470245420363299,-0.231953,-0.156135,-1.34792
1470245420386336,-0.231635,-0.158603,-1.35098
1470245420408888,-0.232698,-0.161528,-1.35467
1470245420423853,-0.231945,-0.165101,-1.35862
1470245420446373,-0.229247,-0.169677,-1.36204
1470245420468893,-0.225934,-0.174811,-1.36533
1470245420483407,-0.223009,-0.178413,-1.36869
1470245420506429,-0.21827,-0.179105,-1.37299
1470245420528949,-0.212384,-0.17687,-1.3779
1470245420549968,-0.207616,-0.174044,-1.38428
1470245420566481,-0.206015,-0.172279,-1.39096
1470245420589003,-0.20398,-0.170454,-1.39765
1470245420618027,-0.199381,-0.167622,-1.4047
1470245420626535,-0.195096,-0.164439,-1.41228
1470245420649055,-0.193569,-0.161467,-1.41969
1470245420670074,-0.191522,-0.157798,-1.42683
1470245420686589,-0.189697,-0.154078,-1.43365
1470245420709110,-0.190484,-0.151331,-1.43948
1470245420730186,-0.192184,-0.148876,-1.44516
1470245420746643,-0.193608,-0.146966,-1.44987
1470245420769163,-0.192662,-0.145847,-1.4542
1470245420791684,-0.186992,-0.144822,-1.45797
1470245420805696,-0.178585,-0.144605,-1.46071
1470245420829217,-0.169914,-0.144483,-1.46365
1470245420851737,-0.163528,-0.144585,-1.46663
1470245420865749,-0.159193,-0.144963,-1.47011
1470245420888775,-0.156716,-0.145484,-1.47327
1470245420910295,-0.154618,-0.145958,-1.47727
1470245420926330,-0.152524,-0.145307,-1.48146
1470245420949325,-0.150759,-0.144304,-1.48465
1470245420971345,-0.148397,-0.143034,-1.48752
1470245420986360,-0.145574,-0.141537,-1.49073
1470245421008878,-0.146109,-0.140389,-1.49442
1470245421031399,-0.150639,-0.140051,-1.49779
1470245421046412,-0.154742,-0.140534,-1.50015
1470245421068932,-0.155341,-0.140059,-1.50099
1470245421091453,-0.151681,-0.139646,-1.50217
1470245421106466,-0.145475,-0.138704,-1.50472
1470245421128987,-0.140718,-0.1362,-1.50677
1470245421151506,-0.139989,-0.135351,-1.50931
1470245421167021,-0.141284,-0.135237,-1.51067
1470245421189042,-0.141885,-0.134945,-1.51168
1470245421211561,-0.141171,-0.13409,-1.51287
1470245421226075,-0.139934,-0.133259,-1.51424
1470245421249094,-0.139133,-0.128721,-1.51614
1470245421271615,-0.138632,-0.131934,-1.5173
1470245421292635,-0.139603,-0.11696,-1.51933
1470245421309149,-0.141618,-0.102355,-1.52064
1470245421331668,-0.143716,-0.0896437,-1.52169
1470245421346182,-0.145255,-0.0775464,-1.52263
1470245421369203,-0.14741,-0.0649806,-1.5232
1470245421391722,-0.148714,-0.0518933,-1.52353
1470245421405735,-0.150617,-0.0387238,-1.52398
1470245421429258,-0.152966,-0.0254554,-1.52441
1470245421451777,-0.154637,-0.012219,-1.52508
1470245421472865,-0.156499,0.000675999,-1.52568
1470245421488811,-0.158301,0.0136473,-1.52655
1470245421511335,-0.159761,0.0264937,-1.52664
1470245421532848,-0.160465,0.0383553,-1.52682
1470245421548864,-0.160314,0.0374852,-1.52689
1470245421571384,-0.161174,0.0336029,-1.52693
1470245421592904,-0.161845,0.0304192,-1.52686
1470245421608917,-0.161996,0.027562,-1.52694
1470245421631438,-0.162054,0.0247668,-1.52719
1470245421652459,-0.16255,0.0215436,-1.52744
1470245421668972,-0.163136,0.0184303,-1.52755
1470245421691491,-0.163547,0.0153273,-1.52747
1470245421713078,-0.163483,0.0145447,-1.52757
1470245421729024,-0.163411,0.0137687,-1.5275
1470245421751547,-0.163223,0.0105597,-1.52754
1470245421772598,-0.163234,0.00969222,-1.52746
1470245421789078,-0.163074,0.00900036,-1.52739
1470245421811601,-0.16357,0.00612923,-1.52769
1470245421833119,-0.164586,0.00344105,-1.52806
1470245421849133,-0.164983,0.000847057,-1.52804
1470245421871655,-0.165383,-0.00158215,-1.52821
1470245421892691,-0.164478,-0.00375968,-1.52814
1470245421909187,-0.164175,-0.00570901,-1.52864
1470245421931707,-0.165693,-0.00802834,-1.52874
1470245421954228,-0.166609,-0.010454,-1.52895
1470245421969241,-0.166536,-0.0110577,-1.5289
1470245421991761,-0.166321,-0.0130919,-1.52941
1470245422013781,-0.166708,-0.0153707,-1.52977
1470245422029294,-0.167793,-0.017636,-1.53019
1470245422051816,-0.168439,-0.0198242,-1.53058
1470245422073835,-0.168995,-0.0219282,-1.53097
1470245422088348,-0.169463,-0.0239857,-1.53187
1470245422111368,-0.170616,-0.0260142,-1.53248
1470245422133889,-0.171863,-0.0281367,-1.53327
1470245422148401,-0.172663,-0.0298375,-1.53405
1470245422171423,-0.173373,-0.0314545,-1.53483
1470245422193943,-0.173816,-0.0326551,-1.5358
1470245422208455,-0.173387,-0.0335197,-1.53674
1470245422237486,-0.173219,-0.0342164,-1.53667
1470245422253997,-0.173759,-0.0352315,-1.53647
1470245422268510,-0.17519,-0.0372954,-1.53659
1470245422291530,-0.175112,-0.0379139,-1.53671
1470245422314050,-0.174185,-0.039765,-1.53686
1470245422328563,-0.174829,-0.0412184,-1.53681
1470245422351584,-0.176424,-0.0428869,-1.53628
1470245422374105,-0.177235,-0.0443431,-1.53624
1470245422388151,-0.177247,-0.0456085,-1.53684
1470245422411639,-0.177088,-0.0468612,-1.53726
1470245422434158,-0.177018,-0.0481987,-1.53768
1470245422455195,-0.177548,-0.0492597,-1.53798
1470245422471691,-0.178163,-0.0502337,-1.5383
1470245422494212,-0.1781,-0.0517283,-1.53854
1470245422514772,-0.178019,-0.0519877,-1.53852
1470245422531746,-0.178017,-0.0523372,-1.53849
1470245422554266,-0.177935,-0.0525965,-1.53847
1470245422575364,-0.177597,-0.0535176,-1.53908
1470245422591367,-0.177257,-0.0546007,-1.5395
1470245422614319,-0.176573,-0.0554856,-1.53958
1470245422635339,-0.176496,-0.0557551,-1.53973
1470245422651853,-0.176415,-0.0560144,-1.53971
1470245422674374,-0.176423,-0.0563588,-1.53969
1470245422695393,-0.176007,-0.0574733,-1.53943
1470245422712442,-0.174899,-0.0582579,-1.53932
1470245422733929,-0.173791,-0.0590426,-1.53921
1470245422755446,-0.17371,-0.0593021,-1.53919
1470245422771476,-0.173718,-0.0596464,-1.53917
1470245422793981,-0.174068,-0.0605375,-1.53948
1470245422815056,-0.173809,-0.0611735,-1.53977
1470245422831515,-0.173732,-0.0614431,-1.53992
1470245422854035,-0.173736,-0.0616153,-1.53991
1470245422876556,-0.173301,-0.0624405,-1.54036
1470245422891570,-0.173386,-0.0632488,-1.54066
1470245422914089,-0.173657,-0.0638633,-1.54081
1470245422936610,-0.174002,-0.0643954,-1.54097
1470245422951623,-0.173654,-0.0649461,-1.54126
1470245422974143,-0.173574,-0.0655649,-1.54139
1470245422996663,-0.173668,-0.0658222,-1.54138
1470245423011677,-0.17376,-0.0662667,-1.54154
1470245423033697,-0.173937,-0.0666242,-1.5417
1470245423056717,-0.173939,-0.0669836,-1.54185
1470245423077736,-0.173858,-0.067243,-1.54183
1470245423094251,-0.17326,-0.067853,-1.54177
1470245423116284,-0.173178,-0.0681124,-1.54175
1470245423130784,-0.173183,-0.0682846,-1.54174
1470245423154304,-0.173176,-0.0684613,-1.54173
1470245423176827,-0.17318,-0.0686336,-1.54172
1470245423190838,-0.173184,-0.0688058,-1.54171
1470245423213858,-0.173189,-0.0689781,-1.5417
1470245423236378,-0.173193,-0.0691504,-1.54169
1470245423257897,-0.173197,-0.0693227,-1.54168
1470245423273925,-0.173205,-0.0695055,-1.54185
1470245423296933,-0.17312,-0.0695926,-1.54184
1470245423310961,-0.173124,-0.0697649,-1.54183
1470245423333966,-0.173561,-0.0701951,-1.54183
1470245423356487,-0.174006,-0.0709698,-1.54181
1470245423378064,-0.174358,-0.071487,-1.5418
1470245423394022,-0.174362,-0.0716593,-1.54179
1470245423416540,-0.174281,-0.0717571,-1.54195
1470245423438062,-0.174285,-0.0719295,-1.54194
1470245423454075,-0.174289,-0.0721018,-1.54194
1470245423476596,-0.174204,-0.0721889,-1.54193
1470245423497646,-0.17396,-0.0731288,-1.54169
1470245423514129,-0.174049,-0.073214,-1.54169
1470245423537149,-0.173874,-0.0737628,-1.542
1470245423557685,-0.17343,-0.0744411,-1.5428
1470245423574184,-0.172469,-0.0750841,-1.54307
1470245423596702,-0.171331,-0.0757541,-1.54367
1470245423617722,-0.171246,-0.0767472,-1.54413
1470245423633235,-0.177133,-0.0803935,-1.54388
1470245423656756,-0.19528,-0.0953811,-1.54173
1470245423677805,-0.233361,-0.1147,-1.53504
1470245423693292,-0.274545,-0.1274,-1.52639
1470245423716809,-0.291007,-0.13804,-1.51498
1470245423737832,-0.280331,-0.145127,-1.50038
1470245423753844,-0.261629,-0.144024,-1.47725
1470245423776864,-0.253631,-0.141844,-1.44944
1470245423797886,-0.254427,-0.139879,-1.42318
1470245423813396,-0.251639,-0.137725,-1.40102
1470245423836418,-0.244871,-0.133798,-1.38323
1470245423858937,-0.237344,-0.128902,-1.36981
1470245423873450,-0.232634,-0.12561,-1.35902
1470245423904021,-0.233953,-0.125568,-1.34953
1470245423918992,-0.240896,-0.128894,-1.34191
1470245423933507,-0.240741,-0.131511,-1.33698
1470245423963054,-0.2271,-0.129472,-1.33343
1470245423979546,-0.204803,-0.118599,-1.33466
1470245424001066,-0.267233,-0.146921,-1.37312
1470245424002566,-0.306533,-0.144768,-1.43655
1470245424022083,-0.316504,-0.120702,-1.48446
1470245424044606,-0.271775,-0.100877,-1.49072
1470245424062620,-0.234849,-0.0832049,-1.51596
1470245424082138,-0.169207,-0.0724144,-1.53877
1470245424104659,-0.119247,-0.0747479,-1.54643
1470245424122174,-0.0825297,-0.0813082,-1.54956
1470245424142191,-0.062679,-0.094429,-1.54862
1470245424164712,-0.041937,-0.10022,-1.5429
1470245424182729,-0.0190734,-0.0973511,-1.53593
1470245424202245,-0.00491824,-0.0896295,-1.52858
1470245424232272,-0.00348304,-0.0812737,-1.52341
1470245424242286,-0.0112251,-0.0749513,-1.52258
1470245424262300,-0.0207688,-0.0712826,-1.5239
1470245424284820,-0.0302908,-0.0701279,-1.525
1470245424302335,-0.0366986,-0.0699771,-1.52454
1470245424321853,-0.0414547,-0.0708688,-1.52262
1470245424344886,-0.0450138,-0.074094,-1.51973
1470245424362389,-0.0489319,-0.0794417,-1.51603
1470245424381907,-0.0522515,-0.0865177,-1.51203
1470245424404427,-0.054338,-0.0940405,-1.50757
1470245424422444,-0.0538219,-0.100432,-1.50318
1470245424441962,-0.0511082,-0.105967,-1.49935
1470245424464496,-0.0488755,-0.110287,-1.49568
1470245424482497,-0.0489335,-0.114641,-1.49313
1470245424503530,-0.0512118,-0.11928,-1.49152
1470245424525037,-0.0546529,-0.123594,-1.48919
1470245424539550,-0.0589379,-0.136846,-1.48561
1470245424562069,-0.0682523,-0.134447,-1.48201
1470245424585091,-0.0778355,-0.125526,-1.47885
1470245424599602,-0.081453,-0.12874,-1.47632
1470245424622122,-0.0841869,-0.1445,-1.47224
1470245424645144,-0.0972022,-0.138553,-1.46528
1470245424659658,-0.103955,-0.140624,-1.45755
1470245424682176,-0.102466,-0.149568,-1.45031
1470245424705197,-0.101822,-0.14791,-1.44373
1470245424719712,-0.100076,-0.148067,-1.43724
1470245424742231,-0.100385,-0.147933,-1.43087
1470245424765251,-0.100181,-0.147611,-1.42534
1470245424779764,-0.0990327,-0.147234,-1.42083
1470245424802284,-0.0974912,-0.146501,-1.41746
1470245424825304,-0.0944069,-0.153959,-1.41574
1470245424839819,-0.10017,-0.143882,-1.41379
1470245424862338,-0.101481,-0.158329,-1.41233
1470245424884360,-0.101617,-0.161063,-1.41141
1470245424899875,-0.100898,-0.163631,-1.41116
1470245424921901,-0.101378,-0.166655,-1.41152
1470245424945413,-0.101726,-0.169264,-1.41205
1470245424959426,-0.10019,-0.170273,-1.41262
1470245424981945,-0.0983625,-0.170508,-1.41287
1470245425004467,-0.09859,-0.171368,-1.41303
1470245425019481,-0.100594,-0.172264,-1.41298
1470245425042000,-0.101836,-0.172517,-1.41293
1470245425064520,-0.10134,-0.171952,-1.4131
1470245425079534,-0.100273,-0.171868,-1.41331
1470245425102054,-0.100726,-0.172262,-1.41328
1470245425124574,-0.102333,-0.172481,-1.41306
1470245425139588,-0.103173,-0.172487,-1.41255
1470245425162108,-0.103128,-0.172008,-1.41156
1470245425184629,-0.102553,-0.171399,-1.4106
1470245425199641,-0.102011,-0.170957,-1.40949
1470245425222161,-0.102362,-0.170974,-1.4085
1470245425244682,-0.10297,-0.17069,-1.40717
1470245425259695,-0.103505,-0.170334,-1.40586
1470245425282215,-0.103743,-0.169914,-1.40471
1470245425304736,-0.104377,-0.169389,-1.40386
1470245425319748,-0.105311,-0.168913,-1.40269
1470245425342269,-0.10626,-0.168429,-1.40136
1470245425364789,-0.107578,-0.168078,-1.39985
1470245425379802,-0.107816,-0.167837,-1.39886
1470245425403324,-0.107238,-0.167413,-1.39808
1470245425424344,-0.107203,-0.166926,-1.39694
1470245425442359,-0.108113,-0.166285,-1.39594
1470245425463377,-0.10845,-0.165154,-1.39477
1470245425484396,-0.108292,-0.164244,-1.39365
1470245425502413,-0.108926,-0.163354,-1.3925
1470245425523432,-0.109957,-0.162164,-1.39131
1470245425544451,-0.1115,-0.16134,-1.38964
1470245425562467,-0.113882,-0.160689,-1.38765
1470245425583486,-0.117,-0.160114,-1.38513
1470245425604504,-0.118881,-0.159106,-1.38235
1470245425622520,-0.119334,-0.157499,-1.37912
1470245425643540,-0.119663,-0.155885,-1.37545
1470245425664558,-0.121278,-0.155413,-1.37109
1470245425682576,-0.126675,-0.156552,-1.36633
1470245425705094,-0.139173,-0.158916,-1.36206
1470245425724627,-0.157086,-0.160004,-1.35802
1470245425742128,-0.170945,-0.155038,-1.357
1470245425765149,-0.222083,-0.183312,-1.37542
1470245425784666,-0.27491,-0.202326,-1.42153
1470245425807187,-0.267499,-0.196691,-1.48402
1470245425825203,-0.246474,-0.194138,-1.51699
1470245425844720,-0.220325,-0.178704,-1.54547
1470245425867240,-0.209319,-0.166798,-1.56963
1470245425884757,-0.191505,-0.166481,-1.57953
1470245425904775,-0.165777,-0.167213,-1.57321
1470245425922290,-0.144104,-0.169627,-1.55959
1470245425944810,-0.122646,-0.175027,-1.5456
1470245425964328,-0.102516,-0.180512,-1.53238
1470245425982344,-0.0859813,-0.184797,-1.52087
1470245426010870,-0.0749818,-0.186951,-1.51124
1470245426024882,-0.0707097,-0.186977,-1.50323
1470245426042398,-0.0709746,-0.185874,-1.49626
1470245426064919,-0.074676,-0.185365,-1.48998
1470245426091942,-0.0791616,-0.185015,-1.48469
1470245426102453,-0.0842022,-0.184891,-1.47989
1470245426124972,-0.0892761,-0.185045,-1.47597
1470245426144490,-0.0944935,-0.18536,-1.47238
1470245426162506,-0.0992719,-0.185962,-1.46918
1470245426185027,-0.102115,-0.186468,-1.46607
1470245426205044,-0.105074,-0.187581,-1.46315
1470245426222559,-0.106201,-0.189269,-1.45967
1470245426245080,-0.105766,-0.191054,-1.45644
1470245426264598,-0.1036,-0.191632,-1.45327
1470245426288619,-0.101285,-0.191067,-1.44972
1470245426305134,-0.0999489,-0.189974,-1.4468
1470245426326152,-0.0997379,-0.189435,-1.44417
1470245426342667,-0.101859,-0.189564,-1.44209
1470245426365188,-0.104615,-0.189327,-1.44047
1470245426386206,-0.105911,-0.188303,-1.4389
1470245426402721,-0.105484,-0.186795,-1.43773
1470245426424241,-0.105967,-0.185205,-1.43602
1470245426445760,-0.107993,-0.183935,-1.43393
1470245426462275,-0.109591,-0.182998,-1.43105
1470245426484294,-0.111017,-0.182289,-1.42738
1470245426505313,-0.112522,-0.181118,-1.42338
1470245426521828,-0.113945,-0.179671,-1.41905
1470245426544349,-0.115219,-0.178214,-1.41443
1470245426565471,-0.116698,-0.176527,-1.40915
1470245426581382,-0.119017,-0.175565,-1.40405
1470245426603954,-0.121416,-0.174291,-1.39845
1470245426625421,-0.123899,-0.173497,-1.39239
1470245426647941,-0.128594,-0.17275,-1.38613
1470245426663957,-0.135414,-0.172714,-1.37935
1470245426686976,-0.141708,-0.172305,-1.37213
1470245426707995,-0.146461,-0.171437,-1.3642
1470245426724010,-0.152172,-0.17035,-1.355
1470245426746529,-0.1591,-0.169514,-1.34442
1470245426767549,-0.166463,-0.169686,-1.33245
1470245426784064,-0.172462,-0.17095,-1.31991
1470245426806584,-0.17806,-0.172507,-1.3068
1470245426828103,-0.182539,-0.173697,-1.29348
1470245426844118,-0.186077,-0.174901,-1.27931
1470245426868640,-0.190096,-0.176691,-1.265
1470245426887657,-0.195349,-0.179544,-1.25133
1470245426904172,-0.201222,-0.182603,-1.23769
1470245426926693,-0.206779,-0.185469,-1.22395
1470245426947711,-0.212335,-0.188344,-1.20995
1470245426964226,-0.218364,-0.191846,-1.19655
1470245426986746,-0.225014,-0.195124,-1.18351
1470245427007764,-0.231494,-0.196815,-1.17101
1470245427024280,-0.236894,-0.195073,-1.15936
1470245427046800,-0.241391,-0.189772,-1.14934
1470245427067819,-0.247768,-0.184884,-1.1398
1470245427084333,-0.252946,-0.19281,-1.13078
1470245427106353,-0.258815,-0.204198,-1.12283
1470245427127872,-0.262301,-0.213766,-1.11664
1470245427143888,-0.267056,-0.22091,-1.11135
1470245427166907,-0.274638,-0.22834,-1.10535
1470245427187927,-0.279133,-0.235377,-1.09794
1470245427204441,-0.280203,-0.240606,-1.09093
1470245427226961,-0.281577,-0.245328,-1.08483
1470245427247981,-0.285949,-0.250318,-1.07834
1470245427263995,-0.28942,-0.255087,-1.07216
1470245427286515,-0.290489,-0.258878,-1.0676
1470245427308035,-0.290069,-0.262085,-1.06445
1470245427324050,-0.288086,-0.263985,-1.06163
1470245427346570,-0.288632,-0.261713,-1.0596
1470245427367588,-0.290427,-0.260559,-1.05727
1470245427384102,-0.29193,-0.25982,-1.05564
1470245427406623,-0.291853,-0.258511,-1.05442
1470245427427642,-0.290924,-0.256866,-1.05401
1470245427444156,-0.290549,-0.255748,-1.05381
1470245427466677,-0.291747,-0.254736,-1.05312
1470245427487697,-0.292429,-0.253297,-1.05244
1470245427504211,-0.292628,-0.252984,-1.05249
1470245427526731,-0.293044,-0.251439,-1.05271
1470245427547751,-0.294064,-0.249964,-1.05237
1470245427564264,-0.295557,-0.248883,-1.05179
1470245427586785,-0.299379,-0.248267,-1.05228
1470245427607803,-0.313301,-0.24746,-1.05869
1470245427623818,-0.364783,-0.256319,-1.08997
1470245427646838,-0.456013,-0.31135,-1.13188
1470245427668858,-0.45848,-0.304638,-1.20284
1470245427683872,-0.462032,-0.288879,-1.2273
1470245427706893,-0.419999,-0.272149,-1.25848
1470245427728912,-0.3784,-0.260748,-1.28068
1470245427750431,-0.340932,-0.24954,-1.28393
1470245427766946,-0.317731,-0.239255,-1.2743
1470245427788966,-0.303173,-0.240773,-1.26547
1470245427810486,-0.293002,-0.249732,-1.26195
1470245427826500,-0.279939,-0.257228,-1.26185
1470245427849020,-0.268092,-0.259434,-1.26135
1470245427870039,-0.261279,-0.256432,-1.2595
1470245427886554,-0.259427,-0.249824,-1.25701
1470245427909074,-0.260416,-0.241643,-1.25437
1470245427930593,-0.26107,-0.233653,-1.25302
1470245427946608,-0.26062,-0.226729,-1.25258
1470245427969129,-0.260586,-0.220972,-1.25274
1470245427990147,-0.260583,-0.216639,-1.25295
1470245428006663,-0.261283,-0.213726,-1.25247
1470245428029182,-0.262109,-0.212368,-1.25176
1470245428043696,-0.263597,-0.212448,-1.25127
1470245428066718,-0.262587,-0.212792,-1.25065
1470245428089236,-0.259962,-0.213718,-1.24911
1470245428110255,-0.257513,-0.21416,-1.24665
1470245428126770,-0.256568,-0.213798,-1.24374
1470245428149289,-0.256989,-0.213269,-1.24037
1470245428170308,-0.259574,-0.213418,-1.23652
1470245428186824,-0.263804,-0.213618,-1.23155
1470245428209344,-0.273409,-0.214898,-1.2243
1470245428230363,-0.296019,-0.219274,-1.21431
1470245428246877,-0.327079,-0.222217,-1.20406
1470245428269398,-0.334271,-0.213895,-1.18823
1470245428290416,-0.325795,-0.186975,-1.17887
1470245428313938,-0.337491,-0.154808,-1.19378
1470245428328952,-0.379602,-0.137939,-1.24234
1470245428350470,-0.381394,-0.104008,-1.32424
1470245428365985,-0.357958,-0.0699631,-1.37873
1470245428389007,-0.335176,-0.0425153,-1.42382
1470245428410541,-0.287141,-0.0339494,-1.43941
1470245428426038,-0.244661,-0.0352485,-1.42505
1470245428449059,-0.207542,-0.0454002,-1.40244
1470245428470578,-0.171763,-0.0574408,-1.37915
1470245428486092,-0.137116,-0.0660535,-1.3573
1470245428509113,-0.114018,-0.0686973,-1.34175
1470245428531633,-0.0987158,-0.0664238,-1.33215
1470245428546145,-0.0927151,-0.0639226,-1.32627
1470245428569166,-0.0952882,-0.0620025,-1.32339
1470245428591687,-0.101868,-0.0605003,-1.32161
1470245428606199,-0.111535,-0.0600151,-1.32019
1470245428629220,-0.12158,-0.0598217,-1.31879
1470245428651741,-0.131087,-0.0601295,-1.31757
1470245428672761,-0.140896,-0.0626252,-1.3158
1470245428689274,-0.149792,-0.0660484,-1.31213
1470245428712296,-0.156935,-0.0719051,-1.30676
1470245428732813,-0.164071,-0.0793599,-1.29975
1470245428748828,-0.171306,-0.0866815,-1.29165
1470245428771849,-0.175152,-0.0929973,-1.28201
1470245428792867,-0.175848,-0.0982132,-1.27072
1470245428809383,-0.17698,-0.103536,-1.25932
1470245428831902,-0.179951,-0.10705,-1.2487
1470245428852921,-0.182341,-0.10777,-1.23851
1470245428869436,-0.183758,-0.107344,-1.2298
1470245428891457,-0.186302,-0.106792,-1.22201
1470245428912975,-0.189963,-0.106385,-1.21533
1470245428929490,-0.192354,-0.104975,-1.20901
1470245428951509,-0.193661,-0.102062,-1.20263
1470245428980035,-0.195298,-0.0997211,-1.19652
1470245428989043,-0.194424,-0.0984552,-1.19136
1470245429019070,-0.190794,-0.0964686,-1.18713
1470245429032584,-0.188032,-0.0949364,-1.18271
1470245429049098,-0.187622,-0.0970667,-1.18081
1470245429071618,-0.185849,-0.100794,-1.17892
1470245429092638,-0.180169,-0.102168,-1.17568
1470245429109152,-0.175233,-0.101526,-1.17095
1470245429131671,-0.178374,-0.10116,-1.16522
1470245429152691,-0.18735,-0.101316,-1.15898
1470245429168706,-0.195325,-0.10183,-1.15301
1470245429191726,-0.196744,-0.101369,-1.14808
1470245429212744,-0.19196,-0.0996243,-1.14506
1470245429229259,-0.180077,-0.0930594,-1.14705
1470245429251780,-0.16225,-0.0913286,-1.15829
1470245429272799,-0.196515,-0.113746,-1.19655
1470245429288313,-0.21541,-0.131259,-1.26471
1470245429311834,-0.186003,-0.120249,-1.31796
1470245429333354,-0.144677,-0.1009,-1.35595
1470245429348370,-0.113443,-0.0890599,-1.39006
1470245429371887,-0.0945355,-0.0795804,-1.40718
1470245429392906,-0.0813315,-0.0720328,-1.41128
1470245429408420,-0.0650503,-0.0671939,-1.40961
1470245429431941,-0.0532186,-0.0660846,-1.40347
1470245429452959,-0.0442932,-0.0659795,-1.39558
1470245429468474,-0.0379297,-0.0653622,-1.38739
1470245429491495,-0.0317233,-0.0640103,-1.37987
1470245429514016,-0.0302319,-0.06287,-1.37434
1470245429528529,-0.0355215,-0.0622908,-1.37014
1470245429551549,-0.0456722,-0.0628647,-1.36701
1470245429574071,-0.0568086,-0.0660458,-1.36577
1470245429588582,-0.0682421,-0.0710034,-1.36424
1470245429617609,-0.0792191,-0.0775105,-1.36128
1470245429634123,-0.0874129,-0.0855349,-1.35691
1470245429655145,-0.0956858,-0.0952438,-1.35202
1470245429671656,-0.105935,-0.104885,-1.34711
1470245429700184,-0.114801,-0.114162,-1.33953
1470245429715230,-0.121078,-0.122857,-1.32934
1470245429731713,-0.124456,-0.130367,-1.31735
1470245429754231,-0.128423,-0.138875,-1.30447
1470245429775250,-0.132663,-0.145469,-1.29146
1470245429791766,-0.137188,-0.148904,-1.2781
1470245429814284,-0.139201,-0.151564,-1.26545
1470245429835304,-0.140982,-0.154765,-1.25407
1470245429851818,-0.146502,-0.16003,-1.24169
1470245429874339,-0.155732,-0.164006,-1.22776
1470245429895357,-0.162421,-0.164234,-1.21355
1470245429911872,-0.161059,-0.164934,-1.20173
1470245429934392,-0.152952,-0.164036,-1.19348
1470245429955412,-0.135157,-0.153738,-1.19406
1470245429971926,-0.119058,-0.142576,-1.20888
1470245429993948,-0.135513,-0.138698,-1.24885
1470245430015465,-0.156106,-0.11678,-1.31757
1470245430031980,-0.157721,-0.0980236,-1.39538
1470245430060505,-0.145112,-0.077246,-1.4611
1470245430075518,-0.120372,-0.0686934,-1.49566
1470245430092034,-0.0994998,-0.0599453,-1.50151
1470245430114053,-0.0944789,-0.0519043,-1.49425
1470245430135073,-0.0888689,-0.0484927,-1.4786
1470245430152088,-0.0767409,-0.0466619,-1.45887
1470245430175110,-0.0637851,-0.0435848,-1.43953
1470245430195126,-0.0548355,-0.0399985,-1.42236
1470245430211641,-0.0493519,-0.0379065,-1.40807
1470245430234163,-0.0483536,-0.0377419,-1.3972
1470245430256683,-0.0558616,-0.0401656,-1.38874
1470245430271196,-0.0698129,-0.0435906,-1.38098
1470245430294216,-0.0855423,-0.0480831,-1.37423
1470245430315235,-0.100251,-0.0533814,-1.36779
1470245430330748,-0.11368,-0.0588602,-1.36058
1470245430354269,-0.124689,-0.0649152,-1.35127
1470245430375288,-0.132598,-0.0714886,-1.3405
1470245430391302,-0.138733,-0.0781424,-1.32879
1470245430414323,-0.143822,-0.0857703,-1.31611
1470245430435342,-0.148197,-0.094215,-1.30313
1470245430450857,-0.152414,-0.101541,-1.28931
1470245430474378,-0.156603,-0.108199,-1.27514
1470245430496899,-0.160508,-0.114057,-1.26071
1470245430510910,-0.163291,-0.118827,-1.24745
1470245430534431,-0.164199,-0.122475,-1.23415
1470245430556951,-0.16413,-0.126519,-1.22027
1470245430577970,-0.16235,-0.130318,-1.2071
1470245430593985,-0.159647,-0.134055,-1.19507
1470245430617005,-0.153256,-0.135835,-1.18364
1470245430638024,-0.147369,-0.137643,-1.1729
1470245430654538,-0.146665,-0.140573,-1.16322
1470245430676558,-0.15122,-0.142682,-1.15467
1470245430698079,-0.156982,-0.142911,-1.14617
1470245430714593,-0.163232,-0.142138,-1.13686
1470245430737115,-0.17038,-0.141972,-1.1271
1470245430758132,-0.178498,-0.142514,-1.11747
1470245430774147,-0.186173,-0.142111,-1.10559
1470245430796667,-0.191141,-0.142897,-1.08916
1470245430818186,-0.191358,-0.146363,-1.07097
1470245430834202,-0.180505,-0.149326,-1.05443
1470245430856721,-0.162938,-0.149888,-1.03818
1470245430877739,-0.150489,-0.149347,-1.02019
1470245430894255,-0.147817,-0.149766,-0.996778
1470245430917776,-0.152544,-0.152083,-0.970698
1470245430937794,-0.154106,-0.154523,-0.946645
1470245430954308,-0.150186,-0.15662,-0.925065
1470245430976829,-0.147848,-0.162746,-0.903962
1470245430997849,-0.154983,-0.173737,-0.885725
1470245431014363,-0.164723,-0.185524,-0.871121
1470245431036882,-0.184554,-0.202026,-0.864104
1470245431057901,-0.252288,-0.215974,-0.854628
1470245431074415,-0.354548,-0.198517,-0.840517
1470245431096936,-0.405795,-0.148081,-0.835072
1470245431117955,-0.41728,-0.109361,-0.837717
1470245431134471,-0.472154,-0.0954251,-0.830456
1470245431156489,-0.545114,-0.096515,-0.82507
1470245431178009,-0.536886,-0.100657,-0.828279
1470245431194525,-0.480601,-0.0964037,-0.846671
1470245431217044,-0.437157,-0.0895015,-0.858694
1470245431237563,-0.42816,-0.0872864,-0.855451
1470245431253577,-0.448862,-0.0932654,-0.84589
1470245431276597,-0.465624,-0.0985768,-0.841427
1470245431297616,-0.459184,-0.102807,-0.843748
1470245431313630,-0.436416,-0.106184,-0.849372
1470245431336652,-0.419236,-0.109089,-0.851922
1470245431365177,-0.418627,-0.112102,-0.849663
1470245431373684,-0.426917,-0.114523,-0.845546
1470245431396706,-0.431199,-0.115834,-0.842844
1470245431419226,-0.426886,-0.11625,-0.843138
1470245431441746,-0.419699,-0.116112,-0.844419
1470245431456760,-0.415779,-0.11528,-0.844406
1470245431479280,-0.416734,-0.113666,-0.843771
1470245431494295,-0.419449,-0.11212,-0.842932
1470245431516813,-0.420169,-0.110158,-0.842525
1470245431539333,-0.417779,-0.108676,-0.842552
1470245431553846,-0.414301,-0.107215,-0.84256
1470245431576869,-0.412837,-0.105708,-0.841255
1470245431599387,-0.413705,-0.103762,-0.838226
1470245431613400,-0.413935,-0.101346,-0.834983
1470245431644428,-0.407763,-0.0999164,-0.833212
1470245431659441,-0.399417,-0.0998002,-0.83247
1470245431680459,-0.397996,-0.102018,-0.827632
1470245431696475,-0.397719,-0.106061,-0.818435
1470245431718995,-0.387683,-0.112346,-0.809364
1470245431740016,-0.343551,-0.125323,-0.81321
1470245431757030,-0.262481,-0.120517,-0.833601
1470245431762035,-0.162065,-0.106386,-0.85376
1470245431785054,-0.0987176,-0.0968009,-0.860091
1470245431807076,-0.0999593,-0.096805,-0.848489
1470245431822089,-0.165169,-0.104128,-0.831751
1470245431844607,-0.205963,-0.107449,-0.83078
1470245431867128,-0.18811,-0.106507,-0.839101
1470245431882141,-0.150605,-0.106746,-0.845346
1470245431904662,-0.144534,-0.110882,-0.847134
1470245431927181,-0.169576,-0.1177,-0.844745
1470245431942195,-0.190304,-0.123287,-0.844236
1470245431964716,-0.187175,-0.12504,-0.847165
1470245431987237,-0.174333,-0.126087,-0.85105
1470245432002248,-0.172479,-0.128585,-0.853241
1470245432024769,-0.181619,-0.134905,-0.855197
1470245432047289,-0.202575,-0.148822,-0.855758
1470245432062302,-0.267702,-0.163458,-0.850917
1470245432084823,-0.364457,-0.144708,-0.840001
1470245432107343,-0.416684,-0.102769,-0.836878
1470245432122357,-0.4492,-0.0729463,-0.827601
1470245432144378,-0.523084,-0.0620634,-0.800633
1470245432167397,-0.593643,-0.0558657,-0.791071
1470245432181910,-0.583882,-0.0540709,-0.794246
1470245432204432,-0.530144,-0.0493989,-0.808104
1470245432226951,-0.487885,-0.0460877,-0.825314
1470245432242468,-0.472269,-0.0459866,-0.828965
1470245432264985,-0.487321,-0.0546931,-0.820304
1470245432287004,-0.504223,-0.0631291,-0.813287
1470245432302018,-0.50669,-0.0699716,-0.812931
1470245432324539,-0.497304,-0.076295,-0.817578
1470245432347059,-0.487942,-0.080567,-0.821999
1470245432365075,-0.485487,-0.0834907,-0.822663
1470245432384593,-0.487789,-0.0855123,-0.822368
1470245432407116,-0.490116,-0.0862493,-0.822755
1470245432422129,-0.490438,-0.0853805,-0.824083
1470245432444647,-0.487036,-0.0843822,-0.826583
1470245432462663,-0.483668,-0.0839433,-0.829088
1470245432482180,-0.482394,-0.0829876,-0.830739
1470245432504700,-0.482332,-0.0814008,-0.832051
1470245432527220,-0.47583,-0.080123,-0.833713
1470245432542237,-0.461788,-0.0814223,-0.836757
1470245432564764,-0.449183,-0.0858068,-0.840017
1470245432587777,-0.453135,-0.0899419,-0.837297
1470245432602289,-0.468776,-0.0935983,-0.829846
1470245432624810,-0.479222,-0.0922697,-0.824532
1470245432647828,-0.472494,-0.10665,-0.823739
1470245432662342,-0.457556,-0.122153,-0.825279
1470245432684862,-0.452616,-0.125219,-0.824562
1470245432707892,-0.467958,-0.113996,-0.820009
1470245432722395,-0.469126,-0.125278,-0.817342
1470245432753424,-0.465256,-0.131805,-0.816644
1470245432759929,-0.467817,-0.124976,-0.815842
1470245432782450,-0.467308,-0.126738,-0.814625
1470245432804470,-0.469014,-0.127491,-0.813561
1470245432819483,-0.46962,-0.128274,-0.812469
1470245432842004,-0.467637,-0.129689,-0.812354
1470245432864524,-0.465526,-0.131475,-0.812856
1470245432879537,-0.464732,-0.133824,-0.813869
1470245432902057,-0.463051,-0.140452,-0.813928
1470245432924580,-0.462002,-0.142688,-0.814409
1470245432940091,-0.461609,-0.132545,-0.81581
1470245432962111,-0.459597,-0.132636,-0.818082
1470245432984632,-0.459107,-0.132872,-0.819233
1470245432999646,-0.459756,-0.132713,-0.820115
1470245433022165,-0.460466,-0.132489,-0.821714
1470245433044685,-0.459422,-0.132212,-0.823547
1470245433059698,-0.458906,-0.13218,-0.824748
1470245433082218,-0.46016,-0.131913,-0.825287
1470245433104750,-0.463018,-0.131358,-0.825494
1470245433119752,-0.464962,-0.131399,-0.825986
1470245433142272,-0.464898,-0.131257,-0.826555
1470245433164794,-0.464894,-0.131228,-0.826408
1470245433179806,-0.466168,-0.131487,-0.826274
1470245433202326,-0.468759,-0.132179,-0.82555
1470245433224847,-0.471294,-0.132307,-0.82478
1470245433239859,-0.473589,-0.132121,-0.824383
1470245433261882,-0.474542,-0.132122,-0.824269
1470245433284414,-0.475735,-0.13189,-0.823952
1470245433299433,-0.47859,-0.131629,-0.823299
1470245433321950,-0.481251,-0.131461,-0.822732
1470245433344454,-0.483226,-0.131326,-0.822026
1470245433361470,-0.484444,-0.131329,-0.821516
1470245433390503,-0.485034,-0.13155,-0.821352
1470245433404524,-0.484204,-0.131872,-0.82138
1470245433421024,-0.477198,-0.131438,-0.821334
1470245433442073,-0.491832,-0.129767,-0.823164
1470245433464563,-0.579949,-0.171173,-0.849195
1470245433488091,-0.574266,-0.114358,-0.819088
1470245433502097,-0.521633,-0.0176521,-0.828146
1470245433524633,-0.462215,0.114874,-0.85661
1470245433548137,-0.380658,0.246873,-0.867255
1470245433562166,-0.300517,0.353727,-0.86128
1470245433584673,-0.246644,0.417822,-0.839555
1470245433610195,-0.217291,0.434064,-0.829753
1470245433625219,-0.197023,0.417423,-0.82652
1470245433644814,-0.176187,0.384493,-0.822679
1470245433667244,-0.158367,0.346092,-0.814666
1470245433684760,-0.151974,0.305359,-0.809147
1470245433704836,-0.151368,0.276154,-0.808235
1470245433727299,-0.15443,0.258597,-0.811608
1470245433745313,-0.162589,0.246858,-0.818702
1470245433764831,-0.176653,0.237463,-0.827291
1470245433787353,-0.197115,0.226778,-0.835126
1470245433804868,-0.218428,0.216868,-0.843693
1470245433824885,-0.238061,0.206838,-0.853945
1470245433846906,-0.255797,0.195945,-0.864996
1470245433864922,-0.269507,0.184546,-0.875457
1470245433884939,-0.282069,0.17179,-0.882017
1470245433907465,-0.295294,0.158244,-0.885757
1470245433929984,-0.311952,0.143897,-0.892348
1470245433945994,-0.327212,0.131437,-0.901865
1470245433967082,-0.335472,0.12249,-0.910886
1470245433985031,-0.343105,0.113033,-0.914518
1470245434006051,-0.351249,0.103519,-0.91717
1470245434034574,-0.359554,0.0954236,-0.921793
1470245434045084,-0.365999,0.0892929,-0.927889
1470245434073609,-0.36898,0.0850262,-0.932122
1470245434087121,-0.367746,0.0821136,-0.934977
1470245434105138,-0.364661,0.0801835,-0.939013
1470245434126657,-0.358366,0.0801047,-0.945247
1470245434147175,-0.346782,0.0819235,-0.951444
1470245434165207,-0.334961,0.0839279,-0.95405
1470245434186211,-0.322105,0.0881789,-0.954571
1470245434207229,-0.308123,0.0934869,-0.953759
1470245434225245,-0.293928,0.100097,-0.953417
1470245434246263,-0.279556,0.10881,-0.953802
1470245434267282,-0.267413,0.118216,-0.952425
1470245434284299,-0.258508,0.12768,-0.949088
1470245434306818,-0.252175,0.136891,-0.94435
1470245434327837,-0.247845,0.144815,-0.939111
1470245434344353,-0.244096,0.151267,-0.932769
1470245434366873,-0.242811,0.156532,-0.923975
1470245434387892,-0.245332,0.159112,-0.913085
1470245434404405,-0.249472,0.158854,-0.90255
1470245434426925,-0.249928,0.157434,-0.891207
1470245434447445,-0.24193,0.154932,-0.87925
1470245434464466,-0.224002,0.149073,-0.873318
1470245434486480,-0.188825,0.14418,-0.883926
1470245434508006,-0.144944,0.148035,-0.912059
1470245434524013,-0.0947918,0.141206,-0.952299
1470245434547033,-0.0567249,0.125013,-1.00266
1470245434568052,-0.026995,0.105943,-1.06013
1470245434584070,-0.00312618,0.088278,-1.13161
1470245434612598,0.00753926,0.0685598,-1.21405
1470245434627606,0.0289512,0.046318,-1.28332
1470245434644622,0.0625903,0.034373,-1.33055
1470245434666641,0.0871054,0.0352167,-1.36716
1470245434687660,0.0975314,0.050005,-1.39213
1470245434704178,0.106446,0.0670334,-1.4062
1470245434732735,0.114627,0.0847376,-1.41342
1470245434747716,0.119808,0.100981,-1.41588
1470245434764229,0.124722,0.115846,-1.4163
1470245434786749,0.128654,0.128308,-1.41436
1470245434807768,0.127808,0.139387,-1.41235
1470245434824285,0.124254,0.149645,-1.41208
1470245434846803,0.121806,0.159132,-1.41348
1470245434868322,0.121154,0.166822,-1.41632
1470245434891844,0.122497,0.171692,-1.4212
1470245434906857,0.125963,0.171584,-1.4281
1470245434927876,0.127494,0.165554,-1.43698
1470245434944390,0.127753,0.155444,-1.44725
1470245434966910,0.128143,0.141947,-1.46024
1470245434987929,0.126688,0.128306,-1.4762
1470245435003444,0.116827,0.117285,-1.49635
1470245435026965,0.0719035,0.100278,-1.52317
1470245435047983,-0.0700615,0.0563212,-1.55598
1470245435064499,-0.143021,0.0293326,-1.55508
1470245435086519,-0.1623,0.0316305,-1.46246
1470245435108037,-0.148677,0.0645581,-1.3036
1470245435123552,-0.142349,0.0649102,-1.14603
1470245435146572,-0.157152,0.0580847,-0.972263
1470245435169092,-0.191832,0.0468753,-0.853068
1470245435184106,-0.207079,0.0354337,-0.769411
1470245435206626,-0.235222,0.0268361,-0.71591
1470245435229147,-0.292564,0.0189723,-0.682351
1470245435243660,-0.341538,0.0171093,-0.666255
1470245435266681,-0.361118,-0.00574272,-0.654509
1470245435289201,-0.36228,-0.0259197,-0.6406
1470245435303714,-0.359187,-0.0442444,-0.624795
1470245435326734,-0.358619,-0.0591017,-0.605395
1470245435349255,-0.363177,-0.0717428,-0.584841
1470245435370273,-0.369527,-0.081945,-0.566415
1470245435386788,-0.365836,-0.0914239,-0.55397
1470245435409308,-0.35675,-0.0975666,-0.544879
1470245435430327,-0.352401,-0.105046,-0.538068
1470245435446842,-0.354419,-0.112643,-0.532549
1470245435469362,-0.360906,-0.119156,-0.527686
1470245435497887,-0.367933,-0.125089,-0.525065
1470245435506896,-0.371112,-0.130696,-0.526117
1470245435529415,-0.371172,-0.137248,-0.529792
1470245435550435,-0.365775,-0.144313,-0.532852
1470245435567950,-0.344902,-0.154253,-0.533995
1470245435589470,-0.291783,-0.170315,-0.548869
1470245435610488,-0.244824,-0.169228,-0.58772
1470245435626503,-0.197915,-0.144469,-0.641145
1470245435649524,-0.14457,-0.0937399,-0.707138
1470245435670542,-0.0935865,-0.0181138,-0.781942
1470245435687057,-0.0579503,0.0838022,-0.869931
1470245435709077,-0.00259764,0.205114,-0.956246
1470245435730097,0.0909108,0.309018,-1.01162
1470245435754117,0.15261,0.371218,-1.03872
1470245435776638,0.186642,0.391467,-1.05395
1470245435790651,0.204942,0.381883,-1.06059
1470245435807666,0.222338,0.358087,-1.05717
1470245435829185,0.242489,0.333765,-1.0456
1470245435850204,0.256891,0.311554,-1.02989
1470245435867219,0.2607,0.297348,-1.01665
1470245435889739,0.255634,0.290289,-1.00673
1470245435910257,0.244204,0.288035,-0.999531
1470245435926773,0.231415,0.285845,-0.993959
1470245435949293,0.218223,0.28148,-0.988657
1470245435970311,0.205188,0.275875,-0.984824
1470245435985826,0.198248,0.270517,-0.983004
1470245436009347,0.195605,0.263939,-0.983097
1470245436030366,0.195284,0.257348,-0.986416
1470245436046379,0.196344,0.250747,-0.992779
1470245436069401,0.19865,0.245397,-1.00255
1470245436090420,0.202417,0.242097,-1.01549
1470245436105933,0.205275,0.239961,-1.0315
1470245436129454,0.202174,0.23718,-1.05159
1470245436150478,0.191978,0.23471,-1.07652
1470245436172994,0.173923,0.234877,-1.10789
1470245436189508,0.122544,0.234694,-1.1456
1470245436212028,0.00784214,0.173057,-1.19405
1470245436226041,-0.200672,0.135069,-1.29755
1470245436249063,-0.276348,0.145626,-1.19641
1470245436271583,-0.274127,0.134996,-0.999295
1470245436293101,-0.30016,0.102584,-0.749092
1470245436309116,-0.375134,0.0702677,-0.518975
1470245436331636,-0.432321,0.0447008,-0.320714
1470245436352656,-0.47905,0.0259654,-0.158673
1470245436369171,-0.531127,0.0209131,-0.0459208
1470245436391690,-0.547585,0.032646,0.0430804
1470245436412711,-0.520191,0.0450298,0.115841
1470245436429224,-0.499132,0.052354,0.171775
1470245436451746,-0.496951,0.0505868,0.211103
1470245436472763,-0.505504,0.0301377,0.238965
1470245436489278,-0.508864,0.0151426,0.257773
1470245436511798,-0.502884,0.00436336,0.270295
1470245436532818,-0.499558,-0.00955922,0.279341
1470245436549332,-0.502076,-0.0281963,0.284241
1470245436571852,-0.50341,-0.0469063,0.287648
1470245436592886,-0.503374,-0.0622047,0.290243
1470245436609386,-0.505844,-0.0760951,0.289481
1470245436631906,-0.514058,-0.0890152,0.286046
1470245436652927,-0.524307,-0.0997525,0.279002
1470245436669439,-0.531718,-0.105536,0.269142
1470245436691960,-0.538437,-0.108112,0.256042
1470245436712978,-0.546862,-0.107437,0.241031
1470245436729493,-0.551413,-0.103433,0.224564
1470245436751513,-0.544055,-0.0945363,0.206519
1470245436773033,-0.527609,-0.0847529,0.185697
1470245436789547,-0.507018,-0.0820632,0.159191
1470245436812069,-0.489451,-0.0954554,0.12113
1470245436833089,-0.475152,-0.0961019,0.0641546
1470245436849101,-0.446938,-0.0979408,-0.016576
1470245436871621,-0.43621,-0.115456,-0.118893
1470245436893140,-0.436022,-0.125886,-0.251312
1470245436908655,-0.433951,-0.130412,-0.429239
1470245436931679,-0.396327,-0.122943,-0.650092
1470245436953194,-0.325735,-0.106179,-0.899698
1470245436968708,-0.219328,-0.0805255,-1.14545
1470245436992230,-0.0952634,-0.0616998,-1.35398
1470245437012748,0.0374672,-0.0540072,-1.51879
1470245437028762,0.160025,-0.0618572,-1.661
1470245437051783,0.249023,-0.0758162,-1.78304
1470245437081810,0.300934,-0.0749459,-1.87605
1470245437088816,0.329427,-0.0617425,-1.94197
1470245437111837,0.345561,-0.0352483,-1.98516
1470245437134357,0.342583,0.00028652,-2.01773
1470245437148869,0.331756,0.0344036,-2.04694
1470245437171890,0.302063,0.0621306,-2.07267
1470245437194411,0.274846,0.0724292,-2.09121
1470245437222936,0.252001,0.071009,-2.09906
1470245437233948,0.239717,0.0639517,-2.09773
1470245437254465,0.235504,0.0511803,-2.09251
1470245437276984,0.237842,0.0320369,-2.08466
1470245437292001,0.237966,0.00710706,-2.07437
1470245437314519,0.237152,-0.0142047,-2.06668
1470245437335538,0.245717,-0.0295176,-2.06305
1470245437352052,0.25681,-0.0439149,-2.06302
1470245437374572,0.263657,-0.0573953,-2.06458
1470245437395591,0.264018,-0.0698338,-2.06795
1470245437411606,0.258367,-0.081077,-2.07606
1470245437440743,0.255407,-0.0902656,-2.08543
1470245437455752,0.255227,-0.099089,-2.09469
1470245437471660,0.256442,-0.106861,-2.1047
1470245437494182,0.251802,-0.113486,-2.1165
1470245437515744,0.245543,-0.119868,-2.1303
1470245437531714,0.241997,-0.12626,-2.1441
1470245437554235,0.234529,-0.134445,-2.15592
1470245437583259,0.214047,-0.148801,-2.16733
1470245437591767,0.170225,-0.166222,-2.17403
1470245437615789,0.108044,-0.176562,-2.17403
1470245437635306,0.0579204,-0.156735,-2.15652
1470245437651823,0.0152584,-0.113935,-2.06875
1470245437674341,-0.0447247,-0.0734294,-1.89987
1470245437695378,-0.111548,-0.0370068,-1.67533
1470245437712380,-0.182603,-0.0218726,-1.40823
1470245437734396,-0.242145,-0.0306249,-1.10233
1470245437755427,-0.297101,-0.0459885,-0.796683
1470245437771930,-0.336429,-0.0520414,-0.526658
1470245437794450,-0.354805,-0.0421867,-0.302289
1470245437815471,-0.373489,-0.0243795,-0.122947
1470245437830983,-0.387535,-0.0120303,0.0166666
1470245437854505,-0.385384,-0.00913428,0.117135
1470245437875603,-0.376244,-0.00853427,0.188661
1470245437891039,-0.376906,-0.0181886,0.25404
1470245437914587,-0.375401,-0.0270502,0.300585
1470245437935576,-0.372952,-0.0497851,0.329226
1470245437951295,-0.371052,-0.0655228,0.347637
1470245437974313,-0.374064,-0.0780043,0.356076
1470245437995333,-0.377791,-0.0910423,0.35465
1470245438018353,-0.382604,-0.107091,0.346287
1470245438034368,-0.390515,-0.117705,0.338199
1470245438056888,-0.403487,-0.123959,0.327352
1470245438071400,-0.418896,-0.126302,0.311167
1470245438094422,-0.437677,-0.127344,0.29186
1470245438116942,-0.453652,-0.128181,0.269946
1470245438131455,-0.466816,-0.129966,0.247474
1470245438154475,-0.478043,-0.130418,0.22752
1470245438176995,-0.483881,-0.129497,0.211004
1470245438191010,-0.489394,-0.128161,0.198254
1470245438214529,-0.494699,-0.124589,0.18983
1470245438237049,-0.501535,-0.121503,0.183285
1470245438258069,-0.506891,-0.117817,0.177698
1470245438274085,-0.513011,-0.114432,0.174761
1470245438298105,-0.51847,-0.11151,0.172255
1470245438318123,-0.522217,-0.107316,0.172171
1470245438340642,-0.526101,-0.103214,0.173631
1470245438356657,-0.531134,-0.100507,0.174788
1470245438371172,-0.538012,-0.0978043,0.17721
1470245438394193,-0.542831,-0.0948248,0.181176
1470245438416712,-0.544105,-0.0925875,0.184327
1470245438431228,-0.544868,-0.0919223,0.186995
1470245438454245,-0.5467,-0.0917727,0.189757
1470245438476765,-0.547521,-0.0905227,0.194047
1470245438491281,-0.542455,-0.0906854,0.197797
1470245438514299,-0.534339,-0.0924716,0.198975
1470245438536819,-0.525828,-0.097791,0.196124
1470245438557839,-0.511577,-0.107554,0.185105
1470245438574352,-0.484831,-0.123607,0.160571
1470245438596873,-0.448186,-0.147208,0.121504
1470245438617909,-0.422884,-0.153529,0.0630674
1470245438634407,-0.397847,-0.146661,-0.0239451
1470245438656929,-0.372544,-0.136951,-0.144665
1470245438677946,-0.355944,-0.133635,-0.304672
1470245438694461,-0.350989,-0.122975,-0.502046
1470245438717482,-0.344922,-0.0985887,-0.722824
1470245438737999,-0.328763,-0.0621997,-0.952568
1470245438754514,-0.290058,-0.0222759,-1.16427
1470245438776533,-0.220247,0.0150114,-1.3341
1470245438798053,-0.154681,0.0347342,-1.45618
1470245438813567,-0.107106,0.0376262,-1.53333
1470245438837088,-0.0741728,0.0273982,-1.57732
1470245438859609,-0.0839543,0.0201918,-1.59818
1470245438873622,-0.0944971,0.0166826,-1.60366
1470245438896642,-0.102242,0.0154274,-1.60211
1470245438918161,-0.109053,0.01572,-1.59957
1470245438941682,-0.119721,0.0179189,-1.59938
1470245438958197,-0.133213,0.0175304,-1.59983
1470245438979216,-0.150684,0.0120285,-1.59729
1470245439000235,-0.174449,0.00301836,-1.59176
1470245439024257,-0.202464,-0.00756159,-1.58381
1470245439039271,-0.227289,-0.0216554,-1.57636
1470245439053784,-0.241782,-0.0384394,-1.56724
1470245439076805,-0.249594,-0.0556632,-1.55534
1470245439099325,-0.254848,-0.0697135,-1.54013
1470245439113837,-0.255264,-0.0789328,-1.52232
1470245439136858,-0.251429,-0.0830285,-1.50361
1470245439159379,-0.249419,-0.0849743,-1.48507
1470245439180397,-0.251795,-0.0878298,-1.46809
1470245439196912,-0.259072,-0.0906368,-1.45373
1470245439219431,-0.267229,-0.0929489,-1.44136
1470245439240468,-0.273199,-0.0956822,-1.42919
1470245439256965,-0.280235,-0.100184,-1.41679
1470245439279485,-0.286801,-0.106105,-1.4054
1470245439300506,-0.2924,-0.111327,-1.39453
1470245439317019,-0.296462,-0.1163,-1.38376
1470245439339540,-0.29934,-0.122454,-1.37397
1470245439360558,-0.300563,-0.129107,-1.36662
1470245439376573,-0.300474,-0.135522,-1.36035
1470245439399094,-0.302996,-0.14195,-1.35408
1470245439420112,-0.308632,-0.149178,-1.34824
1470245439437128,-0.316722,-0.156485,-1.34409
1470245439459148,-0.322009,-0.163223,-1.34191
1470245439480166,-0.323177,-0.169204,-1.34075
1470245439496680,-0.324106,-0.174221,-1.33886
1470245439502186,-0.330036,-0.178519,-1.33565
1470245439524706,-0.33676,-0.181668,-1.33307
1470245439547227,-0.3385,-0.182211,-1.33148
1470245439562240,-0.335285,-0.180948,-1.33036
1470245439584760,-0.333623,-0.177294,-1.32969
1470245439602776,-0.332021,-0.171555,-1.32987
1470245439622295,-0.32746,-0.164633,-1.33181
1470245439644814,-0.319434,-0.158354,-1.33492
1470245439667334,-0.306432,-0.151649,-1.34006
1470245439682347,-0.293814,-0.141435,-1.34776
1470245439704867,-0.28455,-0.130529,-1.35902
1470245439728896,-0.279189,-0.12337,-1.37254
1470245439742401,-0.275586,-0.118773,-1.385
1470245439764922,-0.282073,-0.115602,-1.39279
1470245439787444,-0.282236,-0.116357,-1.39777
1470245439802456,-0.283056,-0.120148,-1.40217
1470245439824976,-0.284304,-0.126169,-1.40708
1470245439847496,-0.281335,-0.132025,-1.41048
1470245439862011,-0.274464,-0.137312,-1.41166
1470245439887532,-0.270783,-0.142015,-1.41144
1470245439907569,-0.27196,-0.144614,-1.41047
1470245439922562,-0.275138,-0.142917,-1.40927
1470245439944599,-0.274312,-0.139758,-1.40753
1470245439962600,-0.272433,-0.137744,-1.40449
1470245439982129,-0.270021,-0.136027,-1.40207
1470245440004637,-0.26641,-0.134362,-1.39927
1470245440022653,-0.262505,-0.131708,-1.3967
1470245440042172,-0.260399,-0.129629,-1.39417
1470245440064692,-0.262241,-0.129271,-1.3925
1470245440082707,-0.262627,-0.12852,-1.39095
1470245440102227,-0.26102,-0.126448,-1.38878
1470245440124745,-0.259097,-0.125375,-1.38732
1470245440142760,-0.258863,-0.124801,-1.38606
1470245440162280,-0.258132,-0.125025,-1.38457
1470245440185300,-0.259214,-0.125177,-1.38298
1470245440202814,-0.26177,-0.125706,-1.38129
1470245440222332,-0.265163,-0.127713,-1.37872
1470245440247855,-0.26725,-0.131122,-1.37659
1470245440262871,-0.265457,-0.134818,-1.37541
1470245440286891,-0.260379,-0.137085,-1.37519
1470245440304914,-0.255313,-0.137182,-1.37516
1470245440322922,-0.251079,-0.13642,-1.37441
1470245440342441,-0.2462,-0.136295,-1.37409
