timestamp,x,y,z,w
1470331523604363,-0.206787,-0.203552,0.522278,0.80188
1470331523620877,-0.206665,-0.203064,0.522034,0.802185
1470331523635890,-0.206543,-0.202332,0.52179,0.802551
1470331523656910,-0.206482,-0.201355,0.521729,0.802856
1470331523680431,-0.206299,-0.200195,0.52179,0.803101
1470331523695445,-0.206116,-0.198975,0.521912,0.803406
1470331523716964,-0.205933,-0.197693,0.522095,0.803711
1470331523756499,-0.205933,-0.196472,0.522217,0.803894
1470331523758502,-0.205811,-0.195313,0.5224,0.804077
1470331523770513,-0.205444,-0.194214,0.5224,0.804443
1470331523788528,-0.205017,-0.193237,0.522339,0.80481
1470331523808546,-0.204712,-0.192444,0.522278,0.805115
1470331523837572,-0.204529,-0.191895,0.522217,0.805359
1470331523882112,-0.204468,-0.191528,0.522156,0.805481
1470331523892121,-0.204468,-0.191101,0.521973,0.805725
1470331523892622,-0.204224,-0.190491,0.521851,0.805969
1470331523905634,-0.204102,-0.189941,0.521729,0.806213
1470331523926652,-0.204163,-0.189697,0.521545,0.806396
1470331523949173,-0.204346,-0.189636,0.521362,0.806458
1470331523967190,-0.204712,-0.189575,0.52124,0.806458
1470331523986707,-0.205078,-0.189575,0.52124,0.806396
1470331524009226,-0.205261,-0.189392,0.521179,0.806396
1470331524027243,-0.2052,-0.189148,0.521179,0.806458
1470331524046760,-0.2052,-0.189148,0.521179,0.806519
1470331524069280,-0.205322,-0.18927,0.521179,0.806458
1470331524087297,-0.205627,-0.189514,0.521179,0.806335
1470331524106814,-0.205994,-0.189758,0.521179,0.806152
1470331524129334,-0.206299,-0.189941,0.52124,0.805969
1470331524147350,-0.206421,-0.190063,0.521301,0.805908
1470331524166867,-0.206421,-0.190063,0.521301,0.805908
1470331524189388,-0.206421,-0.190063,0.521301,0.805908
1470331524207404,-0.206482,-0.190308,0.521362,0.805786
1470331524226922,-0.206604,-0.190613,0.521484,0.805603
1470331524249442,-0.206604,-0.190613,0.521484,0.805603
1470331524267460,-0.206604,-0.190613,0.521484,0.805603
1470331524287976,-0.206543,-0.190796,0.521606,0.805481
1470331524309495,-0.206543,-0.190979,0.521729,0.805359
1470331524327012,-0.206665,-0.191284,0.521973,0.805115
1470331524348531,-0.206726,-0.191406,0.522156,0.804932
1470331524369050,-0.206726,-0.191467,0.522156,0.804932
1470331524387067,-0.206726,-0.191467,0.522156,0.804932
1470331524408085,-0.206726,-0.191467,0.522156,0.804932
1470331524429104,-0.206726,-0.191528,0.522156,0.804932
1470331524447120,-0.206787,-0.191528,0.522095,0.804932
1470331524468141,-0.206787,-0.191528,0.522095,0.804932
1470331524489157,-0.206787,-0.191528,0.522095,0.804932
1470331524507174,-0.206787,-0.191528,0.522095,0.804932
1470331524528194,-0.206787,-0.191589,0.522095,0.804932
1470331524549213,-0.206787,-0.191406,0.521912,0.805054
1470331524567228,-0.206726,-0.191284,0.52179,0.805237
1470331524588248,-0.206665,-0.191284,0.52179,0.805237
1470331524609269,-0.206665,-0.191284,0.52179,0.805237
1470331524627306,-0.206665,-0.191284,0.52179,0.805237
1470331524648300,-0.206665,-0.191223,0.52179,0.805237
1470331524669349,-0.206665,-0.191223,0.52179,0.805237
1470331524687349,-0.206482,-0.190979,0.521729,0.805359
1470331524709856,-0.206299,-0.190796,0.521667,0.805542
1470331524729376,-0.206238,-0.190796,0.521667,0.805542
1470331524747389,-0.206238,-0.190796,0.521667,0.805542
1470331524770036,-0.206238,-0.190796,0.521667,0.805542
1470331524789486,-0.205994,-0.190735,0.521667,0.805603
1470331524807443,-0.205994,-0.190735,0.521667,0.805603
1470331524829970,-0.205994,-0.190735,0.521667,0.805603
1470331524849481,-0.205994,-0.190735,0.521667,0.805603
1470331524872557,-0.205994,-0.190735,0.521667,0.805603
1470331524889017,-0.205688,-0.190613,0.521606,0.805725
1470331524911541,-0.205444,-0.190613,0.521606,0.805786
1470331524932614,-0.205444,-0.190613,0.521606,0.805786
1470331524949070,-0.205383,-0.190613,0.521606,0.805786
1470331524971591,-0.205383,-0.190613,0.521606,0.805786
1470331524992619,-0.205322,-0.190491,0.521606,0.805847
1470331525009124,-0.205078,-0.190308,0.521545,0.805969
1470331525031645,-0.205078,-0.190308,0.521545,0.805969
1470331525052663,-0.205078,-0.190308,0.521545,0.805969
1470331525068680,-0.205078,-0.190308,0.521545,0.80603
1470331525091200,-0.205078,-0.190308,0.521545,0.80603
1470331525112717,-0.205078,-0.190369,0.521545,0.80603
1470331525128731,-0.205078,-0.190369,0.521545,0.80603
1470331525151252,-0.204956,-0.190186,0.521484,0.806152
1470331525172273,-0.204651,-0.189941,0.521362,0.806274
1470331525188785,-0.204407,-0.189697,0.521301,0.806458
1470331525210807,-0.204102,-0.189392,0.52124,0.806641
1470331525233826,-0.203552,-0.189026,0.521179,0.806946
1470331525254904,-0.20282,-0.188477,0.521179,0.807251
1470331525271360,-0.201965,-0.187927,0.52124,0.807556
1470331525293880,-0.200989,-0.187317,0.521362,0.807861
1470331525308893,-0.200195,-0.187256,0.521545,0.807983
1470331525331354,-0.199829,-0.187439,0.521729,0.807922
1470331525353867,-0.199402,-0.187622,0.521912,0.807861
1470331525374976,-0.19873,-0.187622,0.522034,0.807922
1470331525391400,-0.197937,-0.187439,0.522095,0.808105
1470331525413945,-0.197205,-0.187561,0.522217,0.808228
1470331525428461,-0.196533,-0.187866,0.522278,0.808228
1470331525451480,-0.196045,-0.188171,0.5224,0.808228
1470331525473974,-0.195496,-0.188354,0.522461,0.808289
1470331525488493,-0.194763,-0.188171,0.5224,0.808533
1470331525511539,-0.194031,-0.187927,0.522461,0.808716
1470331525534075,-0.193542,-0.187805,0.5224,0.808899
1470331525548542,-0.192932,-0.187744,0.522217,0.809143
1470331525571563,-0.192383,-0.187866,0.521973,0.809448
1470331525594083,-0.191711,-0.187988,0.521851,0.809631
1470331525608096,-0.190979,-0.18811,0.521667,0.809875
1470331525631616,-0.190247,-0.188171,0.521484,0.810181
1470331525654168,-0.189331,-0.18811,0.521301,0.810547
1470331525668149,-0.188477,-0.187988,0.521118,0.810852
1470331525691172,-0.1875,-0.187805,0.520935,0.811279
1470331525714190,-0.186401,-0.187683,0.520691,0.811707
1470331525734733,-0.185181,-0.1875,0.520508,0.812134
1470331525751224,-0.183716,-0.187256,0.520325,0.812622
1470331525773744,-0.182251,-0.187012,0.520142,0.813171
1470331525795263,-0.180664,-0.186646,0.519958,0.81366
1470331525811277,-0.178894,-0.186279,0.519836,0.81427
1470331525833799,-0.176941,-0.185791,0.519836,0.814758
1470331525854871,-0.174744,-0.185181,0.520142,0.815186
1470331525871333,-0.17218,-0.184753,0.520752,0.815491
1470331525893857,-0.169556,-0.184753,0.521118,0.815796
1470331525914914,-0.166626,-0.184692,0.521484,0.816162
1470331525931386,-0.163513,-0.184692,0.521973,0.816467
1470331525953934,-0.160339,-0.184814,0.5224,0.816772
1470331525974959,-0.157288,-0.18512,0.522827,0.817078
1470331525991447,-0.153931,-0.185364,0.523254,0.817383
1470331526013961,-0.150513,-0.185669,0.523682,0.817627
1470331526034994,-0.147095,-0.186035,0.524048,0.817932
1470331526051493,-0.14386,-0.186401,0.524414,0.818237
1470331526074016,-0.14093,-0.186768,0.524658,0.818481
1470331526094565,-0.138123,-0.186951,0.524902,0.818787
1470331526111553,-0.135437,-0.187317,0.524902,0.819153
1470331526134095,-0.133057,-0.187744,0.524841,0.819458
1470331526155088,-0.130737,-0.187927,0.52478,0.819824
1470331526171603,-0.127808,-0.187622,0.524902,0.820313
1470331526194121,-0.124268,-0.187012,0.525391,0.820679
1470331526216642,-0.119629,-0.186218,0.526306,0.820984
1470331526230655,-0.113159,-0.185303,0.528076,0.820923
1470331526253675,-0.105103,-0.185608,0.530701,0.820251
1470331526276195,-0.0950928,-0.187866,0.533569,0.819092
1470331526290710,-0.0821533,-0.190857,0.53717,0.817444
1470331526313728,-0.0668335,-0.19635,0.542603,0.813965
1470331526336250,-0.0513916,-0.199158,0.547729,0.810974
1470331526350763,-0.0413208,-0.19043,0.551636,0.810974
1470331526373813,-0.0179443,-0.159058,0.559326,0.813293
1470331526396334,0.0180664,-0.106384,0.565735,0.817444
1470331526417348,0.055542,-0.043396,0.565308,0.821777
1470331526433837,0.0855713,0.0167236,0.557434,0.825562
1470331526456357,0.109192,0.0706177,0.544006,0.828918
1470331526477377,0.133423,0.123413,0.526733,0.830322
1470331526501398,0.162354,0.177673,0.506897,0.827698
1470331526516439,0.194214,0.231628,0.485046,0.820496
1470331526537457,0.224609,0.280029,0.462219,0.810791
1470331526553944,0.250305,0.317139,0.441223,0.801208
1470331526576465,0.269714,0.340515,0.424744,0.794189
1470331526597524,0.282532,0.352783,0.41394,0.7901
1470331526613999,0.293274,0.362061,0.406616,0.785767
1470331526636519,0.30365,0.369934,0.40155,0.780762
1470331526659047,0.313477,0.377136,0.398682,0.774902
1470331526681560,0.319519,0.381836,0.400146,0.769287
1470331526696593,0.320923,0.382568,0.406616,0.764954
1470331526717593,0.31842,0.378601,0.417542,0.762085
1470331526734106,0.312744,0.371216,0.431458,0.760315
1470331526756626,0.304626,0.358582,0.44751,0.760376
1470331526777645,0.296143,0.342529,0.463745,0.761414
1470331526794160,0.286499,0.321716,0.479797,0.764282
1470331526816209,0.271851,0.294189,0.497314,0.76947
1470331526837258,0.25293,0.260742,0.516296,0.775513
1470331526853714,0.230957,0.221741,0.53363,0.782715
1470331526882270,0.206848,0.179932,0.548157,0.7901
1470331526897255,0.18396,0.141479,0.559265,0.795776
1470331526913768,0.164246,0.105896,0.566833,0.800232
1470331526936789,0.145874,0.0706787,0.573303,0.803101
1470331526957823,0.125305,0.0368652,0.578735,0.804932
1470331526973849,0.106812,0.0103149,0.581116,0.806641
1470331526996342,0.0921021,-0.0128174,0.58374,0.806519
1470331527017886,0.0768433,-0.0352173,0.586121,0.805725
1470331527033390,0.0662231,-0.0524902,0.585754,0.80603
1470331527056454,0.0634155,-0.0667114,0.585693,0.805237
1470331527077415,0.0587158,-0.0844116,0.586731,0.803162
1470331527093429,0.0521851,-0.101013,0.587219,0.801331
1470331527116450,0.0529785,-0.111267,0.585022,0.801514
1470331527138970,0.059021,-0.118591,0.584656,0.800354
1470331527153482,0.0631714,-0.123718,0.586182,0.798157
1470331527176553,0.0639648,-0.129578,0.58667,0.796753
1470331527199082,0.0640869,-0.135559,0.585938,0.796326
1470331527213553,0.06427,-0.140442,0.585999,0.79541
1470331527236557,0.0615845,-0.1474,0.586548,0.793945
1470331527259079,0.0576782,-0.153137,0.586182,0.793457
1470331527273092,0.0585327,-0.154297,0.584595,0.794312
1470331527296619,0.0623169,-0.154297,0.583008,0.795227
1470331527319177,0.0627441,-0.157288,0.581238,0.795898
1470331527333145,0.0588379,-0.163269,0.579163,0.796448
1470331527356165,0.0546265,-0.167786,0.577576,0.796997
1470331527378705,0.0521851,-0.168701,0.576965,0.797424
1470331527400219,0.052124,-0.166443,0.576538,0.798218
1470331527416221,0.0532227,-0.162415,0.575867,0.799438
1470331527438739,0.0534058,-0.158936,0.575684,0.800232
1470331527459784,0.053772,-0.157166,0.576111,0.800293
1470331527476283,0.0582275,-0.153259,0.577515,0.799683
1470331527498800,0.0720215,-0.141846,0.582581,0.796997
1470331527519855,0.0909424,-0.135742,0.591431,0.789612
1470331527536330,0.11322,-0.12616,0.599182,0.78241
1470331527558847,0.141113,-0.10376,0.603699,0.77771
1470331527579891,0.17334,-0.0689087,0.606567,0.772766
1470331527596381,0.203796,-0.026001,0.60321,0.770569
1470331527618931,0.228638,0.0185547,0.593628,0.771301
1470331527639971,0.247559,0.0616455,0.576904,0.775879
1470331527656434,0.263062,0.105164,0.555176,0.781921
1470331527678958,0.280029,0.152771,0.529602,0.785889
1470331527700031,0.297913,0.201721,0.502502,0.786072
1470331527716488,0.313354,0.247375,0.476379,0.783325
1470331527739009,0.326416,0.286987,0.451782,0.778992
1470331527767584,0.339966,0.318604,0.427368,0.774719
1470331527776544,0.356262,0.343018,0.404846,0.769043
1470331527799062,0.372498,0.361328,0.384583,0.763306
1470331527820094,0.38446,0.374878,0.36853,0.758728
1470331527836595,0.392517,0.386414,0.359558,0.753113
1470331527859116,0.393311,0.394226,0.358826,0.749023
1470331527880168,0.387573,0.398987,0.364807,0.746582
1470331527896670,0.377686,0.400574,0.375854,0.745361
1470331527918716,0.366089,0.399719,0.389893,0.744324
1470331527940191,0.354492,0.396484,0.405518,0.743347
1470331527956208,0.343445,0.389099,0.422363,0.743042
1470331527978727,0.332458,0.373535,0.440979,0.745239
1470331528000244,0.319153,0.346069,0.46344,0.750671
1470331528015758,0.301147,0.308838,0.489807,0.757568
1470331528045284,0.280457,0.264343,0.516113,0.764832
1470331528061298,0.259094,0.216858,0.538208,0.772034
1470331528075873,0.235657,0.168213,0.554565,0.78009
1470331528098850,0.215637,0.123352,0.565979,0.786011
1470331528121357,0.200623,0.0830688,0.572571,0.790466
1470331528135867,0.182495,0.0427856,0.578796,0.793579
1470331528158885,0.160217,0.00732422,0.581726,0.797363
1470331528181408,0.142761,-0.0228271,0.578674,0.802612
1470331528195918,0.129089,-0.0493774,0.574402,0.806763
1470331528218939,0.113342,-0.0726318,0.569763,0.810669
1470331528241463,0.0985718,-0.0870972,0.562256,0.816406
1470331528255972,0.0892334,-0.0965576,0.554443,0.821716
1470331528278993,0.0802612,-0.102783,0.548584,0.825806
1470331528301513,0.0719604,-0.104858,0.541687,0.830811
1470331528322588,0.0665894,-0.102051,0.534485,0.836304
1470331528339087,0.0610962,-0.102295,0.528442,0.840515
1470331528361568,0.0554199,-0.103271,0.523254,0.843994
1470331528382633,0.0526123,-0.101868,0.518372,0.847351
1470331528399101,0.0534668,-0.0985107,0.514526,0.850037
1470331528421621,0.0549927,-0.0961304,0.512207,0.851624
1470331528442673,0.0544434,-0.0958862,0.510681,0.852661
1470331528458654,0.0536499,-0.0960693,0.509338,0.853455
1470331528481175,0.0546265,-0.0943604,0.508667,0.854004
1470331528502694,0.0571899,-0.0908813,0.508545,0.854248
1470331528518709,0.0595703,-0.0864868,0.509216,0.854187
1470331528541275,0.06073,-0.0820923,0.510315,0.853821
1470331528562299,0.0618896,-0.0769043,0.511841,0.853333
1470331528586769,0.0639038,-0.0703735,0.513489,0.852783
1470331528601285,0.065918,-0.0635986,0.515259,0.852051
1470331528622802,0.0673218,-0.0565796,0.517639,0.851013
1470331528638817,0.0692749,-0.0484619,0.520447,0.849609
1470331528661337,0.0716553,-0.0386353,0.524109,0.847717
1470331528682910,0.0744019,-0.0269165,0.528137,0.845398
1470331528698870,0.0773926,-0.0119629,0.532532,0.842712
1470331528721449,0.0784912,0.00732422,0.539063,0.838501
1470331528742441,0.0716553,0.0278931,0.549072,0.832214
1470331528758954,0.069519,0.0370483,0.561707,0.823547
1470331528781444,0.0649414,0.0480957,0.57196,0.816223
1470331528802502,0.0500488,0.0637207,0.574402,0.814514
1470331528818978,0.0473633,0.072876,0.57074,0.816467
1470331528841501,0.053833,0.0717773,0.563171,0.821411
1470331528862517,0.0653076,0.0447998,0.550476,0.831055
1470331528879034,0.06427,0.036438,0.531372,0.843872
1470331528901594,0.083313,0.0228882,0.536499,0.839417
1470331528922614,0.102539,0.0145264,0.535767,0.837952
1470331528938089,0.117065,0.00689697,0.5354,0.836365
1470331528961606,0.124512,-0.003479,0.53894,0.833008
1470331528982626,0.128296,-0.0125122,0.542603,0.829956
1470331528998140,0.132446,-0.017334,0.544983,0.827698
1470331529021661,0.13916,-0.019043,0.546814,0.825317
1470331529043697,0.147583,-0.0198364,0.548279,0.822876
1470331529058194,0.15332,-0.0222778,0.549561,0.820923
1470331529081215,0.156372,-0.0269775,0.55011,0.819824
1470331529103734,0.158936,-0.0340576,0.55011,0.819092
1470331529118247,0.15741,-0.0457764,0.550049,0.818787
1470331529141270,0.151672,-0.0611572,0.549255,0.819397
1470331529164293,0.144165,-0.078186,0.547852,0.820251
1470331529178318,0.135071,-0.0976563,0.545288,0.821472
1470331529201322,0.127136,-0.111755,0.542603,0.822693
1470331529224087,0.122498,-0.118347,0.541199,0.823425
1470331529238600,0.120056,-0.120483,0.534668,0.827698
1470331529261639,0.128235,-0.127747,0.51886,0.835388
1470331529284142,0.134949,-0.14032,0.49585,0.846252
1470331529305161,0.137024,-0.159973,0.469421,0.857422
1470331529321675,0.134277,-0.182312,0.439392,0.869263
1470331529343695,0.132629,-0.19873,0.407654,0.881287
1470331529365243,0.13446,-0.210449,0.377808,0.891541
1470331529381247,0.137451,-0.218445,0.353394,0.899109
1470331529404283,0.140015,-0.224304,0.334656,0.90448
1470331529425294,0.139771,-0.219421,0.321594,0.9104
1470331529441284,0.139893,-0.210632,0.313721,0.915161
1470331529463804,0.139893,-0.201294,0.307556,0.919373
1470331529485332,0.137146,-0.192505,0.303345,0.923096
1470331529491829,0.130615,-0.185425,0.302246,0.925842
1470331529506890,0.121521,-0.17926,0.304626,0.92749
1470331529529362,0.113403,-0.173035,0.308777,0.928284
1470331529551915,0.106873,-0.166504,0.31427,0.928467
1470331529566951,0.102417,-0.158875,0.322693,0.927429
1470331529589466,0.0987549,-0.151855,0.332581,0.925476
1470331529611964,0.0956421,-0.145935,0.342468,0.923157
1470331529626952,0.0930176,-0.140808,0.352478,0.920471
1470331529649512,0.0908813,-0.135864,0.362671,0.917419
1470331529671989,0.0892944,-0.131653,0.37262,0.914185
1470331529687036,0.0869141,-0.12854,0.381714,0.911133
1470331529709528,0.0836182,-0.125305,0.391113,0.907898
1470331529732045,0.0802002,-0.122192,0.40033,0.904602
1470331529747081,0.0775757,-0.118713,0.409241,0.901306
1470331529769599,0.0750732,-0.115601,0.417297,0.898193
1470331529792126,0.0717163,-0.111877,0.425476,0.895081
1470331529807115,0.0673218,-0.1073,0.434998,0.891418
1470331529829631,0.0635376,-0.1026,0.444336,0.887634
1470331529853156,0.0615234,-0.09729,0.452148,0.88446
1470331529867169,0.0608521,-0.0910034,0.459473,0.881409
1470331529889692,0.0584717,-0.0859375,0.466736,0.878235
1470331529911748,0.0532837,-0.0830078,0.473267,0.875305
1470331529928221,0.0475464,-0.0803833,0.479126,0.872742
1470331529949740,0.0438232,-0.0765381,0.484558,0.870239
1470331529971805,0.0419922,-0.0715942,0.490723,0.86731
1470331529986805,0.0407104,-0.06604,0.496887,0.864319
1470331530009295,0.0388794,-0.0633545,0.501099,0.862122
1470331530031814,0.0379028,-0.0623169,0.504272,0.860413
1470331530046826,0.0373535,-0.0618896,0.507629,0.858459
1470331530069381,0.0397339,-0.0611572,0.510193,0.856873
1470331530091869,0.0480347,-0.0596313,0.510559,0.856384
1470331530106894,0.0622559,-0.0594482,0.507507,0.8573
1470331530129431,0.0791626,-0.0646973,0.499817,0.860046
1470331530151924,0.0976563,-0.0754395,0.486877,0.864685
1470331530166967,0.102356,-0.0775757,0.473633,0.871277
1470331530189454,0.104492,-0.0825195,0.461243,0.877197
1470331530211975,0.106201,-0.0872192,0.448608,0.883057
1470331530226989,0.114075,-0.0893555,0.434814,0.888733
1470331530249509,0.125916,-0.0966187,0.41864,0.894104
1470331530272028,0.133606,-0.114502,0.3974,0.900574
1470331530287043,0.140442,-0.132202,0.373169,0.907471
1470331530309562,0.152344,-0.148621,0.344543,0.914307
1470331530332086,0.166626,-0.16571,0.308777,0.92157
1470331530347096,0.178955,-0.182495,0.266846,0.929199
1470331530369617,0.187988,-0.196838,0.225647,0.935364
1470331530392155,0.19873,-0.213745,0.187378,0.937927
1470331530406649,0.20752,-0.231445,0.152039,0.938171
1470331530429670,0.216553,-0.241821,0.120483,0.93811
1470331530452232,0.229736,-0.24646,0.0947876,0.936707
1470331530466703,0.243103,-0.24646,0.0758057,0.935059
1470331530489771,0.250549,-0.235962,0.0608521,0.93689
1470331530512244,0.254333,-0.22644,0.0508423,0.938843
1470331530526783,0.251831,-0.216431,0.0442505,0.9422
1470331530549321,0.242859,-0.204895,0.0401001,0.947327
1470331530571828,0.234314,-0.19281,0.039978,0.951965
1470331530588313,0.229065,-0.182007,0.0455933,0.955139
1470331530612335,0.2229,-0.173096,0.0557861,0.957703
1470331530631852,0.214905,-0.165466,0.0684204,0.960022
1470331530648371,0.20636,-0.158447,0.0836792,0.961914
1470331530669418,0.201355,-0.153809,0.102112,0.961914
1470331530691960,0.198364,-0.148499,0.121765,0.961121
1470331530708465,0.198303,-0.142456,0.143677,0.958984
1470331530729465,0.19812,-0.136353,0.167297,0.956055
1470331530751966,0.195801,-0.130432,0.190857,0.953003
1470331530768475,0.193604,-0.123535,0.213074,0.949585
1470331530789521,0.195129,-0.115356,0.235107,0.945129
1470331530812014,0.199036,-0.106873,0.257935,0.939331
1470331530830030,0.200745,-0.0986938,0.281738,0.933044
1470331530849548,0.197205,-0.0909424,0.305298,0.927124
1470331530872068,0.190979,-0.0808105,0.328552,0.921387
1470331530890127,0.183411,-0.0681152,0.352478,0.9151
1470331530909600,0.171936,-0.0533447,0.376953,0.908508
1470331530932121,0.163208,-0.03479,0.39917,0.901489
1470331530950184,0.151306,-0.0128174,0.418091,0.895569
1470331530969655,0.139954,0.00476074,0.432678,0.890564
1470331530992175,0.133362,0.0194092,0.440002,0.887756
1470331531009731,0.132874,0.0375977,0.435608,0.889404
1470331531029709,0.140137,0.0330811,0.432922,0.889771
1470331531052229,0.138,0.0158081,0.434875,0.889648
1470331531069744,0.120789,0.00250244,0.434387,0.892578
1470331531089830,0.107178,-0.0106201,0.43634,0.89325
1470331531111783,0.107422,-0.0285034,0.440308,0.89093
1470331531129799,0.111633,-0.0412598,0.445313,0.88739
1470331531149832,0.118103,-0.0489502,0.451233,0.883118
1470331531171870,0.125977,-0.0524292,0.45752,0.878601
1470331531189855,0.136169,-0.0522461,0.463501,0.873962
1470331531210873,0.146362,-0.0498657,0.467834,0.870117
1470331531231894,0.156311,-0.0476685,0.469116,0.867859
1470331531249907,0.161987,-0.0508423,0.468079,0.867188
1470331531269424,0.165894,-0.0570068,0.465759,0.86731
1470331531291971,0.171204,-0.062439,0.463745,0.867004
1470331531309985,0.17572,-0.067688,0.46283,0.86615
1470331531329505,0.175354,-0.0758057,0.462463,0.865723
1470331531352040,0.170593,-0.088501,0.462158,0.865662
1470331531377525,0.163635,-0.102234,0.46051,0.866394
1470331531389595,0.154724,-0.117859,0.457886,0.867432
1470331531412102,0.144165,-0.136658,0.452515,0.869263
1470331531429587,0.129883,-0.154785,0.445313,0.872253
1470331531449591,0.130981,-0.16217,0.430481,0.878174
1470331531472106,0.135864,-0.170898,0.411438,0.884827
1470331531490183,0.149902,-0.182129,0.390137,0.889954
1470331531510640,0.159546,-0.202698,0.360107,0.896484
1470331531532250,0.163452,-0.223389,0.322327,0.905212
1470331531549709,0.167358,-0.239746,0.283264,0.91333
1470331531570695,0.177612,-0.248962,0.250244,0.918579
1470331531591714,0.194946,-0.250793,0.225891,0.920837
1470331531609731,0.211426,-0.246521,0.208374,0.922546
1470331531630749,0.225952,-0.241455,0.194153,0.923523
1470331531651823,0.229309,-0.228943,0.18158,0.928406
1470331531669784,0.227295,-0.216492,0.171875,0.933716
1470331531690804,0.223877,-0.202576,0.167542,0.938477
1470331531711823,0.221497,-0.188965,0.169067,0.941589
1470331531729839,0.21991,-0.177246,0.173889,0.943359
1470331531750856,0.217529,-0.168213,0.177979,0.944763
1470331531771965,0.214172,-0.162354,0.181641,0.945923
1470331531789923,0.210571,-0.157471,0.188538,0.946167
1470331531810910,0.207947,-0.153381,0.198303,0.945435
1470331531831973,0.204041,-0.151367,0.208618,0.944397
1470331531849984,0.196045,-0.151428,0.218506,0.943848
1470331531872506,0.186523,-0.151062,0.229919,0.943115
1470331531891983,0.179565,-0.148865,0.242432,0.941711
1470331531908999,0.176697,-0.144836,0.255066,0.939514
1470331531931522,0.172852,-0.141052,0.267944,0.937195
1470331531952604,0.164612,-0.138367,0.280212,0.935486
1470331531969076,0.153442,-0.136108,0.292175,0.934082
1470331531991594,0.142761,-0.133667,0.303162,0.932617
1470331532012633,0.135254,-0.1297,0.314148,0.930664
1470331532029155,0.130127,-0.124878,0.325134,0.928284
1470331532051631,0.121826,-0.122742,0.33374,0.926636
1470331532072686,0.112793,-0.122314,0.341309,0.925049
1470331532089198,0.105896,-0.121399,0.348938,0.923157
1470331532111680,0.101746,-0.118469,0.356018,0.921326
1470331532132699,0.0993652,-0.115417,0.36145,0.919861
1470331532149214,0.0957642,-0.114441,0.365723,0.91864
1470331532171774,0.0900879,-0.114624,0.369324,0.917786
1470331532192753,0.0847778,-0.114685,0.372437,0.916992
1470331532209271,0.0812378,-0.113586,0.374878,0.916443
1470331532231788,0.0786133,-0.111511,0.376587,0.91626
1470331532252807,0.0760498,-0.108887,0.377563,0.916382
1470331532268823,0.0733643,-0.105957,0.378479,0.916565
1470331532291344,0.0713501,-0.1026,0.378784,0.916931
1470331532313868,0.0704346,-0.0986328,0.378357,0.917664
1470331532328875,0.069519,-0.0946655,0.377136,0.91864
1470331532351396,0.0679321,-0.0914307,0.375122,0.919922
1470331532372460,0.0662842,-0.0889282,0.372681,0.921265
1470331532396436,0.0641479,-0.0872192,0.369934,0.922668
1470331532411491,0.0614014,-0.0861206,0.36731,0.924011
1470331532432529,0.0587769,-0.0842285,0.365295,0.925171
1470331532448983,0.0577393,-0.0803833,0.363281,0.926392
1470331532471505,0.0546875,-0.0767212,0.360291,0.92804
1470331532492555,0.0446167,-0.0755615,0.356445,0.930176
1470331532509038,0.0251465,-0.0762939,0.353271,0.932007
1470331532531558,0.00317383,-0.0786743,0.35022,0.933289
1470331532552577,-0.0221558,-0.0831909,0.346619,0.934021
1470331532569592,-0.050354,-0.0858765,0.347717,0.932251
1470331532591613,-0.0787964,-0.0891724,0.369995,0.921326
1470331532612630,-0.100464,-0.0960693,0.41925,0.897156
1470331532629144,-0.110901,-0.108276,0.488037,0.858948
1470331532651685,-0.112427,-0.124146,0.564087,0.808533
1470331532680221,-0.10498,-0.135864,0.63678,0.751648
1470331532689199,-0.0994873,-0.149109,0.702942,0.688232
1470331532711722,-0.0941772,-0.163635,0.75769,0.624634
1470331532732742,-0.0881348,-0.174438,0.798767,0.56897
1470331532748253,-0.0834961,-0.180664,0.829773,0.521362
1470331532771273,-0.0783081,-0.184753,0.852844,0.481995
1470331532793794,-0.0731812,-0.19043,0.868958,0.450867
1470331532808311,-0.0689087,-0.198486,0.879639,0.426697
1470331532831327,-0.06604,-0.203552,0.888,0.406982
1470331532855349,-0.0551758,-0.203308,0.894043,0.395203
1470331532868360,-0.0455322,-0.196228,0.898438,0.390076
1470331532891388,-0.0378418,-0.187073,0.900635,0.390381
1470331532913916,-0.0314941,-0.178467,0.899719,0.396912
1470331532928416,-0.0244751,-0.169067,0.895081,0.411865
1470331532951434,-0.0233154,-0.161743,0.886169,0.433533
1470331532973957,-0.0218506,-0.159851,0.871765,0.462524
1470331532988468,-0.0220947,-0.162781,0.849731,0.500854
1470331533011489,-0.0293579,-0.16095,0.820374,0.547852
1470331533034009,-0.038208,-0.152649,0.785217,0.598816
1470331533055032,-0.0481567,-0.141357,0.742432,0.653015
1470331533071542,-0.0567017,-0.124084,0.690979,0.709839
1470331533094062,-0.0601807,-0.10144,0.632263,0.765686
1470331533115107,-0.0560303,-0.0782471,0.56842,0.817017
1470331533131596,-0.0430908,-0.0533447,0.502258,0.861938
1470331533154160,-0.0232544,-0.0314331,0.436523,0.898804
1470331533175225,0.00262451,-0.0133667,0.375305,0.926758
1470331533191650,0.0265503,-0.00933838,0.32135,0.946533
1470331533214171,0.0489502,-0.00512695,0.267273,0.962341
1470331533235189,0.0731812,0.00219727,0.220459,0.972595
1470331533251704,0.0934448,0.00866699,0.187561,0.977722
1470331533274224,0.110352,0.0146484,0.162292,0.980408
1470331533295244,0.127014,0.020752,0.142212,0.981384
1470331533311758,0.130615,0.0276489,0.127991,0.982727
1470331533334278,0.127686,0.0302734,0.117554,0.984314
1470331533355358,0.122437,0.0303955,0.110474,0.985779
1470331533371812,0.117188,0.0301514,0.1073,0.986816
1470331533393832,0.112244,0.0308228,0.107178,0.987366
1470331533414906,0.106445,0.0316162,0.110352,0.98761
1470331533431373,0.100952,0.0316772,0.116211,0.987549
1470331533453887,0.0963745,0.0309448,0.122864,0.987183
1470331533475410,0.0948486,0.0307617,0.130737,0.986328
1470331533491443,0.09729,0.0301514,0.139832,0.984863
1470331533513941,0.102417,0.0294189,0.149231,0.983032
1470331533535003,0.107544,0.0293579,0.158447,0.981018
1470331533551476,0.112183,0.0294189,0.167358,0.979004
1470331533573998,0.115173,0.02771,0.175232,0.977356
1470331533595031,0.114624,0.0236816,0.181519,0.976379
1470331533611531,0.111145,0.0185547,0.186279,0.975952
1470331533634055,0.107666,0.0134888,0.190125,0.975708
1470331533655067,0.106201,0.0090332,0.193481,0.975281
1470331533671624,0.105042,0.00537109,0.196533,0.974792
1470331533694102,0.104004,0.00201416,0.198792,0.974487
1470331533716622,0.105347,-0.000732422,0.200195,0.97406
1470331533740644,0.108215,-0.00317383,0.20105,0.973572
1470331533754156,0.110168,-0.00567627,0.201477,0.973206
1470331533776692,0.109558,-0.00891113,0.201782,0.973206
1470331533791189,0.108032,-0.0127563,0.201782,0.973328
1470331533814211,0.106323,-0.0168457,0.201416,0.973511
1470331533836730,0.104431,-0.0213013,0.200623,0.973816
1470331533850742,0.102478,-0.0257568,0.19989,0.97406
1470331533873763,0.101135,-0.0297852,0.200012,0.97406
1470331533896783,0.100708,-0.0333252,0.200867,0.973816
1470331533910796,0.0996704,-0.0373535,0.201782,0.973572
1470331533933817,0.0979614,-0.041687,0.202942,0.973328
1470331533956336,0.0973511,-0.0452271,0.205261,0.972778
1470331533970849,0.0974121,-0.0476074,0.208252,0.971985
1470331533993870,0.0967407,-0.0498657,0.211304,0.971313
1470331534023897,0.0938721,-0.0531616,0.214661,0.970642
1470331534037910,0.0883179,-0.0576172,0.219055,0.969971
1470331534053926,0.0797119,-0.0617065,0.224854,0.969116
1470331534076452,0.0693359,-0.0644531,0.231873,0.968079
1470331534097522,0.0601196,-0.0643921,0.24054,0.966614
1470331534113979,0.0517578,-0.0631714,0.252502,0.964111
1470331534136503,0.0443726,-0.0604858,0.267334,0.960632
1470331534157607,0.0356445,-0.0571289,0.284119,0.95636
1470331534174033,0.0286865,-0.0537109,0.303223,0.950928
1470331534196556,0.0229492,-0.0498047,0.323792,0.944519
1470331534217653,0.0177002,-0.0450439,0.344299,0.937561
1470331534234086,0.0134888,-0.0401611,0.36377,0.930481
1470331534256607,0.0102539,-0.0361328,0.381897,0.923401
1470331534277626,0.00689697,-0.0327148,0.399658,0.916016
1470331534294143,0.00134277,-0.031189,0.416321,0.90863
1470331534316660,-0.00646973,-0.0314941,0.430847,0.901794
1470331534337679,-0.0141602,-0.0333252,0.442566,0.895935
1470331534354194,-0.0222168,-0.0388184,0.453369,0.890137
1470331534376714,-0.0314941,-0.0462646,0.464966,0.883545
1470331534397733,-0.0410156,-0.0516968,0.476868,0.876465
1470331534414248,-0.0484009,-0.0543823,0.487915,0.869812
1470331534436768,-0.055542,-0.0565796,0.497559,0.86377
1470331534457831,-0.0646973,-0.0603638,0.506104,0.857849
1470331534473806,-0.0745239,-0.0648193,0.514343,0.851807
1470331534496326,-0.0839233,-0.069519,0.523682,0.84491
1470331534517844,-0.093811,-0.0756226,0.533203,0.837341
1470331534533356,-0.102966,-0.0822754,0.542297,0.829712
1470331534556375,-0.110474,-0.0897827,0.551636,0.821777
1470331534577442,-0.117554,-0.0996704,0.561218,0.81311
1470331534593910,-0.125427,-0.11084,0.570984,0.80365
1470331534616429,-0.132507,-0.118896,0.581482,0.793762
1470331534637494,-0.137512,-0.125549,0.592773,0.783508
1470331534653479,-0.139526,-0.130188,0.603149,0.774414
1470331534676486,-0.138733,-0.131348,0.612732,0.766846
1470331534699007,-0.132874,-0.127502,0.620056,0.762573
1470331534713519,-0.115479,-0.116516,0.622742,0.765015
1470331534736566,-0.102905,-0.0956421,0.617615,0.773804
1470331534759059,-0.0839844,-0.0682373,0.604858,0.788879
1470331534773571,-0.0637817,-0.0424194,0.58313,0.808716
1470331534796591,-0.0431519,-0.0216064,0.54834,0.834778
1470331534819112,-0.0183716,-0.0055542,0.500244,0.865601
1470331534833125,0.00469971,0.0022583,0.441284,0.897339
1470331534856647,0.0214844,0.000549316,0.373657,0.927307
1470331534879168,0.0361938,-0.00469971,0.299622,0.953308
1470331534893179,0.0515747,-0.013855,0.221985,0.973572
1470331534916699,0.0635376,-0.0244751,0.143372,0.987305
1470331534939219,0.0818481,-0.03125,0.0725098,0.993469
1470331534953235,0.0935059,-0.0411377,0.0209351,0.994507
1470331534976308,0.0949707,-0.0512695,-0.017395,0.993958
1470331534998773,0.090332,-0.0579224,-0.0410156,0.993347
1470331535020314,0.078186,-0.0629272,-0.053833,0.993469
1470331535036309,0.0722656,-0.0628662,-0.0578613,0.993713
1470331535058827,0.071106,-0.0595093,-0.0551758,0.994141
1470331535079871,0.0685425,-0.0542603,-0.0480347,0.994995
1470331535096361,0.0639648,-0.0481567,-0.0375366,0.996033
1470331535118918,0.0601196,-0.0421753,-0.0244751,0.996948
1470331535140399,0.0579834,-0.0371094,-0.00964355,0.997559
1470331535156417,0.0576782,-0.03302,0.00701904,0.997742
1470331535178935,0.0584717,-0.0296021,0.0259399,0.997498
1470331535200953,0.0587158,-0.0261841,0.0466919,0.996826
1470331535216468,0.0563965,-0.022644,0.0697632,0.995667
1470331535238988,0.0533447,-0.0181885,0.0952759,0.993835
1470331535260009,0.0512085,-0.0131226,0.123291,0.990906
1470331535276522,0.0499878,-0.0067749,0.153503,0.986816
1470331535299054,0.0498657,0.00177002,0.183838,0.981628
1470331535320076,0.0518188,0.0114136,0.21405,0.975342
1470331535336577,0.0541992,0.0200195,0.244324,0.967957
1470331535359096,0.0548096,0.0281982,0.27301,0.959961
1470331535380117,0.0543213,0.0362549,0.299866,0.951721
1470331535396632,0.0543213,0.041626,0.325012,0.943176
1470331535419151,0.053894,0.0438843,0.347534,0.935059
1470331535440170,0.0495605,0.0440063,0.368652,0.927185
1470331535456683,0.0420532,0.0419922,0.388123,0.919617
1470331535486725,0.0376587,0.0378418,0.40387,0.913208
1470331535500238,0.0357666,0.0328979,0.416016,0.90802
1470331535516239,0.0322266,0.0264282,0.427002,0.903259
1470331535538757,0.0269165,0.0206909,0.436646,0.898926
1470331535560281,0.0251465,0.0184937,0.444214,0.895325
1470331535575792,0.0272827,0.0204468,0.449829,0.892456
1470331535598811,0.0294189,0.0240479,0.453735,0.890259
1470331535621332,0.0304565,0.0267944,0.455444,0.889282
1470331535635847,0.0307617,0.0266724,0.454529,0.889771
1470331535659365,0.0302124,0.0240479,0.451965,0.891113
1470331535681390,0.0301514,0.0203247,0.449707,0.892395
1470331535695899,0.0307617,0.0153198,0.44751,0.893555
1470331535718919,0.0321655,0.0106201,0.445923,0.894409
1470331535741439,0.0338135,0.00640869,0.444946,0.894836
1470331535755952,0.0349731,0.00231934,0.444214,0.895203
1470331535778978,0.0359497,-0.00128174,0.443909,0.895325
1470331535801495,0.0375366,-0.00378418,0.443848,0.895264
1470331535816007,0.0402832,-0.00390625,0.443542,0.895325
1470331535839028,0.0435181,-0.00360107,0.442627,0.89563
1470331535861548,0.0457764,-0.00524902,0.440979,0.896301
1470331535876060,0.0478516,-0.00750732,0.438843,0.897217
1470331535899083,0.0510864,-0.00836182,0.436401,0.898254
1470331535921601,0.0548706,-0.00762939,0.433716,0.899292
1470331535942712,0.0596313,-0.00506592,0.430603,0.900513
1470331535959136,0.0653687,-0.000793457,0.42688,0.901855
1470331535981655,0.0703735,0.00311279,0.422241,0.903687
1470331536002674,0.0768433,0.00891113,0.416931,0.905579
1470331536019189,0.0852051,0.0167236,0.410828,0.907532
1470331536041709,0.0932007,0.024353,0.404236,0.909546
1470331536062763,0.0997314,0.0314331,0.398315,0.911194
1470331536079243,0.106689,0.038208,0.392334,0.912781
1470331536101766,0.113953,0.0444336,0.386536,0.914063
1470331536122794,0.120972,0.0506592,0.381653,0.914917
1470331536146319,0.128784,0.0579834,0.377441,0.915161
1470331536161329,0.137146,0.0658569,0.373718,0.914917
1470331536182849,0.145569,0.0734253,0.371094,0.914124
1470331536199363,0.152649,0.0791626,0.368835,0.913391
1470331536221428,0.157776,0.0817261,0.366455,0.913269
1470331536242450,0.163269,0.0844116,0.363708,0.913147
1470331536258916,0.170837,0.0877075,0.361084,0.912476
1470331536281438,0.178772,0.0912476,0.359863,0.911133
1470331536302455,0.184448,0.0923462,0.359741,0.909912
1470331536318970,0.18811,0.0926514,0.361694,0.908386
1470331536341492,0.190369,0.0922852,0.36499,0.906616
1470331536370016,0.191467,0.0925903,0.368835,0.904785
1470331536379029,0.192322,0.0961304,0.374207,0.902039
1470331536401544,0.1922,0.10553,0.382019,0.897705
1470331536422584,0.184448,0.121826,0.393127,0.892456
1470331536439078,0.15448,0.128113,0.41687,0.886475
1470331536461598,0.11084,0.144653,0.464722,0.866455
1470331536484119,0.0829468,0.136292,0.514587,0.842407
1470331536499132,0.076355,0.105469,0.540649,0.831055
1470331536521651,0.0429077,0.0540771,0.503967,0.860901
1470331536542670,0.0510254,0.0436401,0.447632,0.891663
1470331536558185,0.0769043,0.0544434,0.453796,0.886047
1470331536581707,0.0834351,0.0394897,0.454834,0.885742
1470331536603725,0.0913086,0.0440063,0.44751,0.888489
1470331536618239,0.0903931,0.0419922,0.464172,0.880066
1470331536641259,0.0913696,0.0304565,0.480408,0.871704
1470331536664280,0.0975952,0.0271606,0.489258,0.866211
1470331536678293,0.115112,0.0328369,0.499146,0.858154
1470331536701314,0.127869,0.0383911,0.507263,0.851318
1470331536723835,0.133911,0.0394287,0.512573,0.847168
1470331536738347,0.135986,0.0358276,0.516357,0.844727
1470331536761368,0.135925,0.0303345,0.519958,0.842712
1470331536783888,0.136047,0.0255127,0.523376,0.840698
1470331536798400,0.137451,0.0221558,0.525635,0.839233
1470331536821422,0.13916,0.0198364,0.526245,0.838562
1470331536843941,0.139038,0.0172729,0.526917,0.838196
1470331536864960,0.138,0.0151978,0.527893,0.83783
1470331536881475,0.136353,0.0134888,0.529114,0.837402
1470331536903996,0.134949,0.0129395,0.530273,0.836853
1470331536926516,0.134094,0.013855,0.531311,0.836365
1470331536941529,0.132751,0.0151367,0.532166,0.835999
1470331536964050,0.130127,0.0164185,0.533081,0.835754
1470331536985068,0.127441,0.0184937,0.534119,0.83551
1470331537001583,0.125366,0.0214844,0.53479,0.835266
1470331537024103,0.123535,0.0245972,0.535034,0.835327
1470331537045121,0.121765,0.0276489,0.534607,0.835754
1470331537061638,0.120117,0.0320435,0.533936,0.836304
1470331537084158,0.11969,0.0384521,0.53363,0.836304
1470331537105176,0.119995,0.045166,0.532593,0.836548
1470331537121691,0.120972,0.0512085,0.530579,0.837341
1470331537144213,0.122253,0.0566406,0.52832,0.838196
1470331537165229,0.125244,0.0644531,0.526123,0.838623
1470331537181744,0.131042,0.0738525,0.524048,0.838257
1470331537203764,0.138184,0.0820313,0.521606,0.83783
1470331537229287,0.145752,0.0877686,0.518005,0.838257
1470331537233791,0.153015,0.0925903,0.515259,0.838135
1470331537256815,0.162048,0.0997314,0.512573,0.837219
1470331537277831,0.170349,0.103394,0.510254,0.836548
1470331537292844,0.180176,0.113098,0.50531,0.836243
1470331537306857,0.192139,0.113525,0.50238,0.835266
1470331537329377,0.197205,0.124146,0.497009,0.835815
1470331537352898,0.206421,0.126953,0.494263,0.834778
1470331537366911,0.209351,0.138672,0.489624,0.8349
1470331537389431,0.216858,0.142334,0.48761,0.833557
1470331537412451,0.219482,0.148621,0.486389,0.83252
1470331537426964,0.22406,0.160522,0.485229,0.829712
1470331537458493,0.227112,0.173706,0.484619,0.826599
1470331537481013,0.228943,0.185364,0.484497,0.823608
1470331537487018,0.230164,0.193848,0.485107,0.820984
1470331537509539,0.230225,0.199585,0.486267,0.818909
1470331537532559,0.227539,0.20105,0.48877,0.81781
1470331537547072,0.223328,0.192871,0.494202,0.817688
1470331537569593,0.216125,0.190979,0.499634,0.816772
1470331537592614,0.204651,0.195374,0.50531,0.815125
1470331537607127,0.197571,0.19928,0.51416,0.810425
1470331537629647,0.188354,0.205566,0.52594,0.803467
1470331537652667,0.177307,0.208862,0.543213,0.793579
1470331537667180,0.158875,0.206787,0.568542,0.780151
1470331537689200,0.130005,0.197083,0.600647,0.763794
1470331537712721,0.0999756,0.172913,0.629395,0.750916
1470331537735241,0.0857544,0.131958,0.630493,0.76001
1470331537749755,0.0693359,0.0823975,0.589355,0.800598
1470331537772774,0.0855713,0.0611572,0.532471,0.839844
1470331537786788,0.113586,0.0779419,0.550598,0.823242
1470331537809308,0.115601,0.0723267,0.556519,0.819519
1470331537832829,0.111206,0.0837402,0.564697,0.813416
1470331537846842,0.097168,0.0750122,0.586243,0.80072
1470331537869362,0.0888672,0.0736694,0.604492,0.788147
1470331537892883,0.0950928,0.0808716,0.613831,0.77948
1470331537906897,0.108521,0.0935059,0.620789,0.770691
1470331537929415,0.118774,0.102844,0.625549,0.764099
1470331537952437,0.125244,0.104919,0.62793,0.760864
1470331537966950,0.127136,0.0981445,0.627563,0.76178
1470331537989470,0.126282,0.0853271,0.627075,0.763794
1470331538012490,0.124817,0.0725708,0.62616,0.766174
1470331538027004,0.124451,0.0632935,0.624451,0.768433
1470331538049524,0.124939,0.0562744,0.621704,0.771118
1470331538072544,0.124207,0.0512695,0.61969,0.773193
1470331538087057,0.121948,0.0476074,0.618164,0.775024
1470331538109577,0.119629,0.0448608,0.616638,0.776733
1470331538132097,0.116821,0.0403442,0.615417,0.778381
1470331538148113,0.113525,0.0340576,0.614441,0.779968
1470331538169632,0.110046,0.026062,0.613098,0.781799
1470331538192152,0.106384,0.0184937,0.612122,0.783325
1470331538208167,0.103821,0.0132446,0.611572,0.78418
1470331538229687,0.10199,0.0101318,0.610718,0.785156
1470331538252206,0.0996704,0.00695801,0.60907,0.786743
1470331538268721,0.0951538,0.000732422,0.605896,0.789795
1470331538289739,0.0880737,-0.00775146,0.602234,0.793335
1470331538312262,0.0804443,-0.0145874,0.598511,0.796875
1470331538328775,0.0738525,-0.0177612,0.594666,0.800293
1470331538349799,0.067749,-0.0193481,0.589111,0.804932
1470331538371840,0.0614624,-0.0212402,0.581665,0.810791
1470331538388328,0.0540161,-0.0248413,0.572449,0.817749
1470331538409402,0.0461426,-0.0288696,0.561707,0.8255
1470331538431913,0.0400391,-0.0339355,0.549866,0.833557
1470331538455891,0.034668,-0.0412598,0.537415,0.841553
1470331538470902,0.0292358,-0.0511475,0.523682,0.849792
1470331538491953,0.0248413,-0.0592041,0.508484,0.858643
1470331538509942,0.0245972,-0.0630493,0.491699,0.868103
1470331538536997,0.0267944,-0.0663452,0.472778,0.878235
1470331538552030,0.0284424,-0.072937,0.450867,0.889099
1470331538570038,0.0285034,-0.0826416,0.427368,0.89978
1470331538593056,0.0282593,-0.0913696,0.404785,0.909363
1470331538612028,0.0289917,-0.0986328,0.381287,0.918701
1470331538630067,0.0314941,-0.105835,0.356323,0.927795
1470331538649565,0.0357056,-0.11322,0.328979,0.936829
1470331538672085,0.0391235,-0.11908,0.302307,0.944885
1470331538690119,0.0420532,-0.123779,0.27832,0.951538
1470331538709617,0.0452271,-0.129028,0.255371,0.957092
1470331538732184,0.0480957,-0.13446,0.233337,0.961792
1470331538750164,0.0498657,-0.137451,0.214844,0.965637
1470331538769746,0.0480347,-0.131226,0.201355,0.969482
1470331538792208,0.0466309,-0.120605,0.190979,0.973022
1470331538810296,0.0473633,-0.114624,0.182373,0.975342
1470331538829726,0.0514526,-0.114441,0.176392,0.976257
1470331538852245,0.0557251,-0.111023,0.173706,0.976868
1470331538870299,0.0596313,-0.0977783,0.173157,0.978149
1470331538889779,0.0645752,-0.0819702,0.173584,0.979248
1470331538912298,0.0690308,-0.0715332,0.175049,0.979492
1470331538929856,0.0740967,-0.0633545,0.178345,0.979065
1470331538949425,0.0822144,-0.0536499,0.183472,0.978088
1470331538972354,0.0908813,-0.0443726,0.189453,0.976624
1470331538989968,0.0964966,-0.0371704,0.196777,0.974976
1470331539012432,0.0993652,-0.0316772,0.20575,0.973022
1470331539031947,0.100891,-0.0269165,0.216248,0.970703
1470331539049953,0.100342,-0.0216675,0.22876,0.968018
1470331539069442,0.0963135,-0.0129395,0.244568,0.964722
1470331539091960,0.0906372,-0.00549316,0.265625,0.959778
1470331539110033,0.0736694,0.00744629,0.288513,0.95459
1470331539130994,0.0411987,0.0374756,0.329346,0.942505
1470331539152044,0.0115967,0.0748291,0.390869,0.917297
1470331539170058,-0.00708008,0.0996704,0.449341,0.887695
1470331539191049,-0.0088501,0.109619,0.483276,0.868469
1470331539212104,-0.0137939,0.081665,0.477356,0.874756
1470331539230094,-0.0359497,0.0477905,0.373901,0.925476
1470331539251107,-0.0317993,0.0267944,0.431335,0.901184
1470331539272122,-0.0314941,0.00964355,0.436768,0.898926
1470331539290138,-0.0154419,0.0106201,0.42804,0.903503
1470331539311156,0.00897217,0.0213623,0.441895,0.896729
1470331539332207,0.0368042,0.0229492,0.451416,0.891174
1470331539349694,0.0432129,0.0174561,0.453369,0.890076
1470331539371210,0.0425415,0.00756836,0.456238,0.888794
1470331539392230,0.0462036,0.00274658,0.46051,0.886414
1470331539411247,0.0510864,0.00250244,0.462708,0.884949
1470331539432770,0.0524902,-0.000244141,0.46344,0.884521
1470331539452322,0.0516357,-0.00445557,0.463562,0.88446
1470331539469823,0.0489502,-0.00872803,0.46405,0.884399
1470331539492346,0.046875,-0.0113525,0.464111,0.884399
1470331539511839,0.0455322,-0.0128784,0.463684,0.884705
1470331539529855,0.0442505,-0.013916,0.462952,0.885132
1470331539552420,0.0414429,-0.0159912,0.46228,0.885559
1470331539571933,0.0367432,-0.0184937,0.461914,0.885925
1470331539589950,0.0303345,-0.0216675,0.462158,0.885986
1470331539612433,0.024231,-0.0239258,0.463257,0.885559
1470331539631988,0.0197144,-0.0244751,0.465271,0.884583
1470331539650016,0.0169067,-0.0247192,0.467773,0.883301
1470331539672507,0.0142212,-0.0253906,0.470154,0.882019
1470331539692051,0.00976563,-0.0266113,0.472778,0.880676
1470331539710063,0.00518799,-0.0269775,0.47583,0.879028
1470331539732534,0.00152588,-0.0263672,0.478699,0.877563
1470331539752080,-0.0022583,-0.0263672,0.481201,0.87616
1470331539770069,-0.00653076,-0.02771,0.483521,0.874817
1470331539792588,-0.0115967,-0.0309448,0.485962,0.873291
1470331539820169,-0.0175781,-0.0348511,0.488464,0.871643
1470331539829122,-0.0236206,-0.0392456,0.490784,0.870056
1470331539851643,-0.0296021,-0.0437622,0.492615,0.868591
1470331539872721,-0.0344849,-0.046814,0.493286,0.867859
1470331539889176,-0.039856,-0.0500488,0.493774,0.867188
1470331539911740,-0.0457764,-0.055603,0.493591,0.866638
1470331539932742,-0.0519409,-0.0629272,0.492004,0.866699
1470331539950732,-0.0582886,-0.0709229,0.488831,0.867493
1470331539971252,-0.0643921,-0.0784302,0.484619,0.868774
1470331539992768,-0.0717773,-0.0877075,0.479675,0.870056
1470331540009285,-0.0794067,-0.0983276,0.472717,0.87207
1470331540031804,-0.0864868,-0.108398,0.464111,0.874817
1470331540052823,-0.0935059,-0.118408,0.454712,0.877747
1470331540069374,-0.100952,-0.130188,0.444214,0.880615
1470331540091868,-0.108032,-0.143005,0.432312,0.883728
1470331540112877,-0.113892,-0.156311,0.418945,0.887146
1470331540128906,-0.117615,-0.168213,0.404968,0.89093
1470331540151411,-0.118652,-0.178406,0.390442,0.895325
1470331540172931,-0.118958,-0.187683,0.374817,0.900024
1470331540188445,-0.117493,-0.196472,0.357422,0.905396
1470331540211465,-0.115295,-0.205322,0.338684,0.91095
1470331540233026,-0.113037,-0.2146,0.318054,0.916504
1470331540248999,-0.111023,-0.223389,0.29718,0.921631
1470331540271525,-0.106506,-0.230408,0.276062,0.927002
1470331540292581,-0.098938,-0.234741,0.256287,0.932373
1470331540308552,-0.0921021,-0.238586,0.237183,0.937195
1470331540331629,-0.0846558,-0.240601,0.219055,0.941772
1470331540352636,-0.0744019,-0.240356,0.203247,0.946228
1470331540368610,-0.0652466,-0.234863,0.191528,0.950684
1470331540391628,-0.0587158,-0.229431,0.182007,0.954346
1470331540414149,-0.0548096,-0.22467,0.174194,0.957153
1470331540428660,-0.0513306,-0.220703,0.168274,0.95929
1470331540451703,-0.0487671,-0.216858,0.165466,0.960815
1470331540474201,-0.0500488,-0.213623,0.165894,0.961426
1470331540488714,-0.0563965,-0.21167,0.169495,0.960876
1470331540511784,-0.0650024,-0.208618,0.176941,0.959656
1470331540534256,-0.0790405,-0.200317,0.194641,0.956909
1470331540548769,-0.0890503,-0.207092,0.216553,0.94989
1470331540571789,-0.106201,-0.205444,0.24884,0.940491
1470331540594309,-0.130127,-0.175415,0.302734,0.927673
1470331540615328,-0.142151,-0.120911,0.364197,0.912415
1470331540638849,-0.133545,-0.0567627,0.421326,0.895203
1470331540653863,-0.112305,-0.00982666,0.451233,0.885193
1470331540674916,-0.114319,-0.00268555,0.447754,0.88678
1470331540691450,-0.126221,-0.00335693,0.419189,0.899048
1470331540713923,-0.125549,-0.0194702,0.464783,0.876221
1470331540735517,-0.106079,-0.0442505,0.475586,0.87207
1470331540751450,-0.0742798,-0.0405884,0.470642,0.878235
1470331540773970,-0.0408325,-0.0296631,0.481812,0.874756
1470331540795489,-0.0117798,-0.0355225,0.488892,0.87146
1470331540811504,-0.00744629,-0.0472412,0.488281,0.871338
1470331540834029,-0.00994873,-0.0562744,0.488647,0.870605
1470331540855120,-0.0108643,-0.0596313,0.490662,0.869202
1470331540871559,-0.00897217,-0.0576782,0.492615,0.868286
1470331540895580,-0.00671387,-0.055542,0.495178,0.866943
1470331540915152,-0.00811768,-0.0579834,0.498474,0.864868
1470331540931612,-0.0170898,-0.0646362,0.502075,0.862183
1470331540954136,-0.0273438,-0.0716553,0.504944,0.85968
1470331540975151,-0.0322876,-0.0749512,0.507751,0.857544
1470331540991713,-0.0325928,-0.0739746,0.510986,0.855713
1470331541014186,-0.0335693,-0.0724487,0.513977,0.854004
1470331541035263,-0.0385132,-0.0724487,0.516541,0.852295
1470331541051721,-0.0458374,-0.0728149,0.519226,0.850281
1470331541074278,-0.0535889,-0.0727539,0.521973,0.848083
1470331541095271,-0.0631104,-0.0725708,0.524658,0.845825
1470331541111774,-0.0743408,-0.0721436,0.527161,0.843384
1470331541134293,-0.0863037,-0.0697632,0.530334,0.840454
1470331541155313,-0.0991821,-0.0663452,0.534058,0.836914
1470331541171827,-0.111694,-0.0612793,0.537842,0.833313
1470331541193879,-0.124634,-0.0547485,0.541382,0.829651
1470331541215458,-0.139099,-0.0481567,0.545166,0.825256
1470331541231381,-0.154846,-0.0408936,0.549194,0.820129
1470331541253901,-0.170471,-0.0314941,0.553467,0.814575
1470331541275512,-0.184875,-0.0200195,0.557922,0.808777
1470331541290934,-0.19928,-0.00939941,0.562683,0.802185
1470331541313966,-0.214172,-0.000488281,0.567871,0.794739
1470331541336479,-0.229553,0.00732422,0.573425,0.786377
1470331541350991,-0.242859,0.0158081,0.579346,0.777832
1470331541374048,-0.253906,0.0236206,0.585144,0.769714
1470331541396554,-0.263672,0.0280762,0.589966,0.762573
1470331541411047,-0.271973,0.0300293,0.593323,0.756958
1470331541434063,-0.278442,0.031311,0.595398,0.75293
1470331541456584,-0.283936,0.0310669,0.596375,0.750122
1470331541477603,-0.288757,0.0269775,0.596619,0.748291
1470331541494117,-0.292603,0.0177612,0.596069,0.747437
1470331541516658,-0.295105,0.00402832,0.593567,0.748657
1470331541537714,-0.296082,-0.013916,0.588196,0.75238
1470331541554172,-0.297058,-0.0462646,0.578125,0.758484
1470331541576706,-0.312866,-0.100464,0.559143,0.761108
1470331541597714,-0.333801,-0.157715,0.538086,0.75769
1470331541614225,-0.340332,-0.194702,0.525513,0.755005
1470331541636745,-0.337402,-0.215454,0.519104,0.755127
1470331541657776,-0.328979,-0.223389,0.515076,0.759277
1470331541674278,-0.324707,-0.230103,0.513184,0.760437
1470331541696798,-0.326721,-0.240051,0.513062,0.756531
1470331541717817,-0.331787,-0.253235,0.513611,0.749634
1470331541734344,-0.335693,-0.266724,0.515869,0.741638
1470331541756381,-0.33667,-0.278381,0.520264,0.733826
1470331541777918,-0.335632,-0.288879,0.526062,0.726013
1470331541793888,-0.333923,-0.299133,0.532593,0.717834
1470331541816413,-0.330872,-0.307373,0.541138,0.70929
1470331541837925,-0.326965,-0.314026,0.552307,0.699585
1470331541853940,-0.323853,-0.320496,0.564941,0.687927
1470331541876483,-0.321533,-0.328247,0.57782,0.6745
1470331541897536,-0.31842,-0.335938,0.591064,0.660522
1470331541913994,-0.312805,-0.34021,0.603027,0.650208
1470331541936514,-0.309082,-0.342957,0.610474,0.643555
1470331541959085,-0.307739,-0.344421,0.614563,0.639526
1470331541974073,-0.30719,-0.343811,0.617371,0.63739
1470331541996572,-0.307373,-0.341919,0.621338,0.63446
1470331542017642,-0.307617,-0.342041,0.626099,0.629578
1470331542034102,-0.307556,-0.346191,0.630554,0.622803
1470331542056622,-0.305969,-0.351868,0.634766,0.616089
1470331542077685,-0.303528,-0.356812,0.638977,0.610107
1470331542094157,-0.30249,-0.361633,0.642212,0.60437
1470331542116678,-0.301758,-0.36676,0.643982,0.599731
1470331542137696,-0.301331,-0.370483,0.645142,0.596375
1470331542154258,-0.301758,-0.373169,0.645813,0.59375
1470331542176736,-0.302612,-0.374695,0.646118,0.592041
1470331542197799,-0.303772,-0.375061,0.646484,0.59082
1470331542213265,-0.306091,-0.374695,0.64679,0.589539
1470331542236783,-0.307556,-0.373474,0.645996,0.590393
1470331542257803,-0.308655,-0.37085,0.644226,0.593445
1470331542273323,-0.309998,-0.36731,0.642639,0.59668
1470331542304388,-0.310425,-0.365784,0.640198,0.599915
1470331542318858,-0.31134,-0.363037,0.640381,0.600952
1470331542333370,-0.311523,-0.359375,0.640869,0.602539
1470331542356400,-0.311096,-0.357849,0.639893,0.604736
1470331542378911,-0.310425,-0.357239,0.638672,0.606689
1470331542393474,-0.311584,-0.357544,0.637634,0.606995
1470331542416445,-0.312012,-0.357666,0.637573,0.60675
1470331542438966,-0.312683,-0.357605,0.638245,0.605774
1470331542453479,-0.312927,-0.357605,0.638245,0.605652
1470331542476500,-0.31488,-0.357666,0.636963,0.605957
1470331542500521,-0.317749,-0.356689,0.635498,0.606567
1470331542520065,-0.318665,-0.353149,0.635437,0.608154
1470331542536561,-0.31842,-0.349426,0.63678,0.60907
1470331542559074,-0.319031,-0.348267,0.637024,0.609192
1470331542580092,-0.31897,-0.347595,0.636047,0.610596
1470331542596608,-0.317139,-0.344727,0.635803,0.613403
1470331542619127,-0.314209,-0.339844,0.636902,0.616516
1470331542640149,-0.311157,-0.334961,0.639038,0.61853
1470331542656661,-0.307922,-0.331055,0.641296,0.619873
1470331542679182,-0.30481,-0.328247,0.644043,0.620056
1470331542700257,-0.30249,-0.327332,0.646484,0.619202
1470331542716768,-0.299194,-0.326782,0.649536,0.617859
1470331542739236,-0.2948,-0.325012,0.653442,0.616821
1470331542760273,-0.29071,-0.323669,0.657593,0.61499
1470331542776769,-0.287537,-0.323181,0.661194,0.612915
1470331542799320,-0.284607,-0.322754,0.664246,0.611206
1470331542820307,-0.281311,-0.321777,0.667847,0.609314
1470331542836823,-0.276367,-0.32019,0.672791,0.606995
1470331542859343,-0.269653,-0.319702,0.678101,0.604309
1470331542880424,-0.262329,-0.321716,0.681702,0.602417
1470331542896876,-0.254822,-0.324585,0.682983,0.6026
1470331542918899,-0.246948,-0.326355,0.68219,0.605835
1470331542940433,-0.239258,-0.325378,0.680908,0.610901
1470331542956430,-0.231873,-0.323547,0.678955,0.616882
1470331542979450,-0.225586,-0.323181,0.676147,0.622437
1470331543000469,-0.221436,-0.324524,0.672607,0.627014
1470331543016483,-0.217773,-0.325012,0.669861,0.631042
1470331543039035,-0.214172,-0.323364,0.667847,0.635193
1470331543060102,-0.210449,-0.320862,0.666199,0.639465
1470331543076539,-0.207886,-0.318237,0.664612,0.64325
1470331543099107,-0.206177,-0.316223,0.663147,0.646301
1470331543120159,-0.205444,-0.315186,0.661804,0.648376
1470331543136592,-0.205505,-0.314575,0.660706,0.64978
1470331543159115,-0.205261,-0.313843,0.659302,0.651611
1470331543180158,-0.204407,-0.314026,0.656738,0.654419
1470331543196146,-0.205078,-0.315369,0.653687,0.656555
1470331543219167,-0.208557,-0.3172,0.651855,0.656494
1470331543241686,-0.212524,-0.317505,0.65094,0.655884
1470331543256218,-0.214661,-0.315735,0.650696,0.656372
1470331543279219,-0.216736,-0.314819,0.649536,0.657227
1470331543309248,-0.21991,-0.315186,0.647705,0.657776
1470331543315754,-0.222717,-0.31427,0.645752,0.659241
1470331543339273,-0.223999,-0.310791,0.644348,0.661804
1470331543361793,-0.22522,-0.306824,0.643433,0.664124
1470331543375836,-0.227112,-0.304321,0.6427,0.665344
1470331543399330,-0.228943,-0.303162,0.642273,0.665649
1470331543421365,-0.229858,-0.302002,0.642395,0.665771
1470331543435861,-0.230103,-0.300232,0.643127,0.665771
1470331543458885,-0.229858,-0.298462,0.643982,0.665833
1470331543481406,-0.229614,-0.297058,0.644897,0.665588
1470331543495916,-0.229309,-0.296021,0.646118,0.665039
1470331543518938,-0.229187,-0.295532,0.647339,0.664124
1470331543541965,-0.229004,-0.295288,0.648743,0.662903
1470331543556014,-0.229126,-0.295471,0.650085,0.661499
1470331543578991,-0.229187,-0.295715,0.651306,0.660156
1470331543602012,-0.229248,-0.295959,0.652527,0.658813
1470331543616023,-0.229492,-0.296387,0.653625,0.657471
1470331543639043,-0.229675,-0.296997,0.654724,0.656006
1470331543661563,-0.22998,-0.297791,0.65564,0.654602
1470331543676076,-0.230347,-0.298584,0.656433,0.65332
1470331543699097,-0.23053,-0.299377,0.657227,0.6521
1470331543721647,-0.230835,-0.299988,0.657959,0.651001
1470331543742652,-0.231018,-0.300354,0.658752,0.649963
1470331543759151,-0.231201,-0.300781,0.659485,0.648926
1470331543781676,-0.231506,-0.301331,0.660095,0.647949
1470331543802694,-0.231873,-0.301941,0.660645,0.646973
1470331543819224,-0.232483,-0.302673,0.661072,0.645996
1470331543847731,-0.233215,-0.303528,0.661438,0.644897
1470331543862744,-0.234131,-0.304382,0.661804,0.643799
1470331543879259,-0.235046,-0.304932,0.66217,0.642883
1470331543901784,-0.235901,-0.305359,0.662354,0.642151
1470331543922830,-0.236755,-0.305664,0.662476,0.641602
1470331543939312,-0.237854,-0.305847,0.662415,0.641113
1470331543961832,-0.239075,-0.305969,0.662231,0.640808
1470331543983876,-0.240417,-0.305908,0.662048,0.640503
1470331543999380,-0.241943,-0.305542,0.661987,0.640198
1470331544021887,-0.243286,-0.304749,0.661804,0.640259
1470331544042921,-0.24469,-0.30365,0.661499,0.640564
1470331544058923,-0.246216,-0.302551,0.661011,0.640991
1470331544088947,-0.247498,-0.301392,0.6604,0.641663
1470331544102959,-0.248535,-0.300293,0.659546,0.642639
1470331544118975,-0.249573,-0.299622,0.658508,0.643616
1470331544141514,-0.250488,-0.2995,0.657349,0.64447
1470331544163038,-0.251221,-0.299988,0.656372,0.644958
1470331544179528,-0.251648,-0.299866,0.655701,0.645569
1470331544201577,-0.25177,-0.299194,0.654785,0.646729
1470331544224110,-0.252502,-0.299011,0.653564,0.647766
1470331544239082,-0.254028,-0.298828,0.652466,0.648438
1470331544261606,-0.255676,-0.29895,0.651306,0.648865
1470331544284122,-0.257324,-0.299377,0.650024,0.649292
1470331544298635,-0.257874,-0.298706,0.648987,0.650391
1470331544321685,-0.257935,-0.297424,0.647949,0.652039
1470331544344175,-0.258667,-0.296509,0.646729,0.65332
1470331544358688,-0.260193,-0.295776,0.645935,0.65387
1470331544381710,-0.261353,-0.295715,0.645142,0.654236
1470331544404276,-0.262024,-0.295654,0.644348,0.654785
1470331544418289,-0.262695,-0.295166,0.643494,0.655579
1470331544441764,-0.263855,-0.29425,0.642761,0.656189
1470331544464284,-0.265198,-0.293884,0.641968,0.656616
1470331544478296,-0.26593,-0.294373,0.641357,0.656677
1470331544501823,-0.265564,-0.294678,0.641968,0.656128
1470331544524338,-0.264648,-0.29425,0.643494,0.655151
1470331544538350,-0.264343,-0.29425,0.645386,0.653381
1470331544561370,-0.265076,-0.295471,0.647095,0.650879
1470331544584391,-0.265259,-0.296814,0.648682,0.648621
1470331544605434,-0.26593,-0.298523,0.650574,0.645691
1470331544621424,-0.266663,-0.30127,0.651978,0.6427
1470331544643948,-0.268127,-0.305298,0.65332,0.638794
1470331544665463,-0.269592,-0.309265,0.655029,0.63446
1470331544681485,-0.270203,-0.312988,0.657104,0.630249
1470331544704037,-0.27002,-0.317749,0.658691,0.626221
1470331544725629,-0.269897,-0.323669,0.659851,0.62207
1470331544741533,-0.269775,-0.329163,0.660706,0.618347
1470331544764052,-0.269226,-0.332825,0.661316,0.615906
1470331544785620,-0.267822,-0.334229,0.661865,0.615173
1470331544801648,-0.266235,-0.333984,0.662476,0.615356
1470331544824106,-0.265381,-0.333923,0.662537,0.615662
1470331544845130,-0.26593,-0.334717,0.661682,0.615906
1470331544861641,-0.267151,-0.335327,0.660706,0.61615
1470331544884161,-0.267944,-0.335022,0.660217,0.616455
1470331544905183,-0.268005,-0.334106,0.660156,0.617065
1470331544921703,-0.268127,-0.333191,0.660095,0.617493
1470331544944716,-0.267944,-0.332336,0.660278,0.617859
1470331544965234,-0.267944,-0.331543,0.660461,0.618103
1470331544981752,-0.268066,-0.330994,0.660645,0.618164
1470331545004268,-0.268127,-0.330566,0.660767,0.618225
1470331545025325,-0.268066,-0.330566,0.660767,0.618225
1470331545041819,-0.268066,-0.330383,0.660889,0.618225
1470331545064323,-0.268188,-0.330566,0.660889,0.618042
1470331545085410,-0.268433,-0.331055,0.660828,0.617737
1470331545092347,-0.268799,-0.331787,0.660645,0.617371
1470331545107362,-0.269287,-0.332642,0.660278,0.617126
1470331545129881,-0.269714,-0.333496,0.659851,0.616943
1470331545151902,-0.270081,-0.334167,0.659424,0.616821
1470331545167415,-0.270386,-0.334595,0.659119,0.61676
1470331545189454,-0.270691,-0.334839,0.658936,0.61676
1470331545211955,-0.270996,-0.335144,0.658752,0.616638
1470331545227473,-0.271484,-0.335693,0.658569,0.616333
1470331545249522,-0.271912,-0.336304,0.658325,0.616028
1470331545272054,-0.272278,-0.336975,0.658203,0.615662
1470331545287064,-0.272705,-0.337769,0.658142,0.615112
1470331545309633,-0.272888,-0.338501,0.658203,0.614502
1470331545332118,-0.273071,-0.339355,0.658447,0.613708
1470331545347076,-0.273315,-0.340454,0.658752,0.612671
1470331545369597,-0.273804,-0.341675,0.658752,0.611755
1470331545392121,-0.274353,-0.342834,0.658691,0.610901
1470331545407135,-0.27478,-0.344055,0.658813,0.609985
1470331545429725,-0.275085,-0.344666,0.659119,0.609192
1470331545452173,-0.275208,-0.345032,0.65918,0.608826
1470331545467186,-0.275452,-0.345398,0.659058,0.608643
1470331545489728,-0.27594,-0.345764,0.658691,0.608582
1470331545512266,-0.276367,-0.34613,0.658386,0.608521
1470331545528740,-0.276672,-0.346313,0.658142,0.608521
1470331545549799,-0.277039,-0.346375,0.65802,0.608459
1470331545572299,-0.277222,-0.346436,0.65802,0.608337
1470331545587309,-0.277466,-0.346313,0.658081,0.608215
1470331545609812,-0.27771,-0.34613,0.658203,0.608154
1470331545632332,-0.278076,-0.345947,0.658386,0.60791
1470331545647346,-0.278503,-0.345886,0.658508,0.607605
1470331545669897,-0.278992,-0.345947,0.65863,0.607178
1470331545691927,-0.279358,-0.346008,0.658691,0.606873
1470331545708404,-0.279541,-0.34613,0.658752,0.606689
1470331545729952,-0.279541,-0.34613,0.658691,0.606689
1470331545751995,-0.279541,-0.346191,0.658691,0.606689
1470331545768462,-0.279541,-0.346191,0.658691,0.606689
1470331545789476,-0.279541,-0.346252,0.658691,0.606689
1470331545811994,-0.279785,-0.346375,0.658447,0.606689
1470331545830010,-0.28009,-0.346436,0.658264,0.606812
1470331545849560,-0.280273,-0.346313,0.65802,0.606995
1470331545872060,-0.280457,-0.346313,0.657837,0.607178
1470331545888601,-0.28064,-0.346252,0.657654,0.6073
1470331545909614,-0.280823,-0.34613,0.657532,0.607361
1470331545932135,-0.281067,-0.34613,0.657349,0.607483
1470331545948621,-0.281372,-0.34613,0.657166,0.607544
1470331545969682,-0.281738,-0.346008,0.657043,0.607605
1470331545992205,-0.281921,-0.345825,0.65686,0.607788
1470331546008670,-0.281982,-0.345581,0.656677,0.608093
1470331546029690,-0.28186,-0.345276,0.656494,0.608521
1470331546052209,-0.281616,-0.345886,0.656067,0.608704
1470331546068224,-0.281189,-0.348145,0.655396,0.608398
1470331546089774,-0.280518,-0.351257,0.654602,0.607788
1470331546112275,-0.279419,-0.354004,0.653931,0.607361
1470331546130363,-0.277039,-0.356323,0.652893,0.608215
1470331546149797,-0.273315,-0.358276,0.651489,0.610291
1470331546172317,-0.269287,-0.357971,0.650024,0.613831
1470331546189833,-0.265625,-0.355591,0.648621,0.618286
1470331546209893,-0.262512,-0.354004,0.646362,0.622803
1470331546232393,-0.259949,-0.354675,0.641968,0.628052
1470331546249890,-0.258423,-0.357239,0.634766,0.634521
1470331546269405,-0.257263,-0.359314,0.626038,0.642456
1470331546292484,-0.254456,-0.358948,0.617981,0.65155
1470331546309957,-0.250549,-0.356812,0.609192,0.662415
1470331546329958,-0.245239,-0.349426,0.599854,0.676697
1470331546351981,-0.237976,-0.336304,0.590088,0.694336
1470331546370041,-0.229858,-0.320251,0.579834,0.713013
1470331546389554,-0.223938,-0.305054,0.566162,0.732239
1470331546429048,-0.220581,-0.289551,0.550415,0.751343
1470331546431568,-0.219238,-0.272522,0.532776,0.770569
1470331546449656,-0.217102,-0.252258,0.512939,0.79126
1470331546472090,-0.212891,-0.229248,0.491089,0.812927
1470331546490103,-0.207275,-0.205688,0.467102,0.834534
1470331546509623,-0.199829,-0.182373,0.441223,0.855652
1470331546532201,-0.191956,-0.160889,0.413696,0.875244
1470331546550156,-0.181641,-0.140259,0.385498,0.893677
1470331546569701,-0.170837,-0.123413,0.356445,0.910217
1470331546592194,-0.161926,-0.110229,0.329224,0.923645
1470331546610252,-0.156006,-0.101563,0.305481,0.933777
1470331546629817,-0.151062,-0.0950317,0.285767,0.941528
1470331546652267,-0.149963,-0.0908203,0.26947,0.946899
1470331546670264,-0.149658,-0.0892334,0.256836,0.950623
1470331546698790,-0.147339,-0.0896606,0.24585,0.953796
1470331546712301,-0.14209,-0.090271,0.238037,0.956543
1470331546729817,-0.137695,-0.0908813,0.233521,0.958252
1470331546751337,-0.136963,-0.0932007,0.230713,0.958801
1470331546772392,-0.137146,-0.0963745,0.229492,0.95874
1470331546790419,-0.13678,-0.098938,0.228943,0.958679
1470331546810896,-0.135498,-0.100037,0.228516,0.958801
1470331546832410,-0.133728,-0.100098,0.229248,0.958923
1470331546850495,-0.13208,-0.0999146,0.230957,0.95874
1470331546870968,-0.130371,-0.100952,0.233032,0.958374
1470331546892464,-0.127808,-0.102783,0.234314,0.958191
1470331546915985,-0.124634,-0.104309,0.234863,0.958313
1470331546930998,-0.120483,-0.104187,0.235168,0.958801
1470331546952036,-0.116638,-0.102051,0.23645,0.959167
1470331546970075,-0.114258,-0.0996704,0.238281,0.959229
1470331546991111,-0.112,-0.0970459,0.239807,0.959412
1470331547012100,-0.110596,-0.095459,0.240967,0.959473
1470331547030103,-0.10791,-0.0949097,0.242371,0.959473
1470331547060144,-0.104797,-0.0956421,0.243896,0.959351
1470331547072152,-0.103577,-0.097168,0.244751,0.959106
1470331547090182,-0.101807,-0.0982056,0.245972,0.958862
1470331547112662,-0.0975342,-0.0983276,0.246948,0.959045
1470331547132179,-0.0928955,-0.0983276,0.247009,0.959473
1470331547150264,-0.0903931,-0.0982056,0.246582,0.959839
1470331547172758,-0.0891113,-0.097168,0.246338,0.960144
1470331547195236,-0.0882568,-0.0953369,0.24585,0.96051
1470331547209748,-0.0869141,-0.0933228,0.245056,0.96106
1470331547232270,-0.085144,-0.0911255,0.244446,0.961609
1470331547252287,-0.0837402,-0.0892334,0.244019,0.961975
1470331547270304,-0.0825806,-0.0874634,0.24353,0.962402
1470331547292828,-0.0819092,-0.0857544,0.242737,0.962769
1470331547312342,-0.0819092,-0.0842285,0.242249,0.963074
1470331547329857,-0.0818481,-0.0830688,0.241638,0.963318
1470331547352882,-0.081665,-0.0818481,0.241089,0.963562
1470331547372396,-0.081665,-0.0805054,0.240784,0.963745
1470331547389912,-0.081665,-0.0793457,0.24054,0.963928
1470331547412464,-0.081604,-0.0782471,0.240295,0.96405
1470331547431975,-0.0817871,-0.0770264,0.240051,0.964233
1470331547449989,-0.0820313,-0.0759277,0.239746,0.964355
1470331547472484,-0.0823364,-0.0750122,0.239258,0.964539
1470331547492003,-0.0824585,-0.0744019,0.238708,0.964661
1470331547510023,-0.0825195,-0.0736694,0.238342,0.964844
1470331547532538,-0.0825195,-0.072937,0.238098,0.964966
1470331547552082,-0.0824585,-0.0720825,0.237976,0.965027
1470331547570074,-0.0825195,-0.0714111,0.237854,0.965149
1470331547591591,-0.0822754,-0.0710449,0.237671,0.96521
1470331547614112,-0.0818481,-0.0707397,0.237671,0.965271
1470331547629125,-0.0814819,-0.0703125,0.237732,0.965332
1470331547651645,-0.0814819,-0.0703125,0.237732,0.965332
1470331547672665,-0.0814819,-0.0702515,0.237732,0.965332
1470331547689179,-0.0818481,-0.0700684,0.237854,0.965271
1470331547711699,-0.0819092,-0.0701294,0.237854,0.965271
1470331547732750,-0.0818481,-0.0701294,0.237854,0.965271
1470331547749256,-0.0817261,-0.0698853,0.237854,0.965332
1470331547771754,-0.081665,-0.069519,0.237793,0.965332
1470331547792773,-0.0820313,-0.069397,0.23761,0.965393
1470331547809287,-0.0824585,-0.069519,0.237366,0.965393
1470331547831809,-0.0828247,-0.0697021,0.237122,0.965393
1470331547852843,-0.0829468,-0.0697632,0.237,0.965393
1470331547869384,-0.0829468,-0.0696411,0.237,0.965454
1470331547891861,-0.0830078,-0.0692749,0.236938,0.965454
1470331547912899,-0.0831299,-0.0690308,0.236938,0.965454
1470331547929396,-0.0831299,-0.0687256,0.236816,0.965515
1470331547951917,-0.083252,-0.0684814,0.236694,0.965576
1470331547972977,-0.083313,-0.0682373,0.236694,0.965576
1470331547988949,-0.0834961,-0.0679932,0.236694,0.965576
1470331548011969,-0.0836792,-0.0675659,0.236694,0.965576
1470331548033988,-0.0839844,-0.0673218,0.236633,0.965576
1470331548049002,-0.0844727,-0.0670776,0.236572,0.965576
1470331548071522,-0.0848999,-0.0667114,0.236511,0.965576
1470331548094043,-0.085144,-0.0661011,0.23645,0.965637
1470331548108557,-0.0852661,-0.0655518,0.236145,0.965698
1470331548131577,-0.0855713,-0.0651855,0.23584,0.965759
1470331548154597,-0.0861816,-0.0648804,0.235657,0.96582
1470331548168614,-0.0870361,-0.0646973,0.235352,0.96582
1470331548191631,-0.0874023,-0.0644531,0.235229,0.96582
1470331548214151,-0.0873413,-0.0643921,0.235229,0.96582
1470331548228664,-0.0873413,-0.0643311,0.235229,0.96582
1470331548251689,-0.0872803,-0.0643311,0.235229,0.96582
1470331548274204,-0.0874023,-0.06427,0.235474,0.965759
1470331548288720,-0.0875244,-0.0635376,0.235962,0.965698
1470331548311738,-0.0871582,-0.0626221,0.237183,0.965515
1470331548334261,-0.0872803,-0.0625,0.238037,0.965271
1470331548348771,-0.0878906,-0.0625,0.238403,0.965149
1470331548371793,-0.0879517,-0.0625,0.238403,0.965149
1470331548394312,-0.0877075,-0.0621338,0.23822,0.96521
1470331548408825,-0.0874634,-0.0616455,0.237915,0.965332
1470331548431846,-0.0876465,-0.0616455,0.237671,0.965393
1470331548454393,-0.0881958,-0.0617065,0.237549,0.965332
1470331548468378,-0.0886841,-0.0618286,0.237366,0.965332
1470331548491899,-0.0889893,-0.0620117,0.237183,0.965332
1470331548514420,-0.0891724,-0.0621338,0.237061,0.965332
1470331548535438,-0.0895996,-0.062561,0.236877,0.965332
1470331548551523,-0.0906982,-0.0629883,0.236572,0.965271
1470331548574485,-0.0921631,-0.0634155,0.23645,0.965149
1470331548596995,-0.0933838,-0.0637207,0.23645,0.965027
1470331548611509,-0.093811,-0.0635376,0.236572,0.964966
1470331548634027,-0.0938721,-0.0631714,0.236633,0.964966
1470331548655046,-0.0938721,-0.0628052,0.236511,0.965027
1470331548671562,-0.0943604,-0.0627441,0.236328,0.965027
1470331548694081,-0.0949707,-0.0627441,0.236206,0.964966
1470331548715600,-0.0953369,-0.062561,0.236145,0.964966
1470331548731615,-0.0953369,-0.0622559,0.236084,0.965027
1470331548754135,-0.0952759,-0.0618286,0.23584,0.965088
1470331548775153,-0.0957031,-0.0615845,0.235657,0.965149
1470331548791669,-0.0963135,-0.0615845,0.235352,0.965149
1470331548814206,-0.0966797,-0.0615234,0.235291,0.965088
1470331548835264,-0.0966797,-0.0615234,0.235352,0.965088
1470331548851723,-0.0966797,-0.0615234,0.235352,0.965088
1470331548874243,-0.0964966,-0.0615234,0.235168,0.965149
1470331548895262,-0.0961914,-0.0615845,0.234985,0.96521
1470331548911276,-0.0964355,-0.0618286,0.234863,0.96521
1470331548934296,-0.0971069,-0.0622559,0.234802,0.965149
1470331548956817,-0.0980225,-0.0626221,0.23468,0.965027
1470331548971830,-0.0987549,-0.0629272,0.23468,0.964966
1470331548994352,-0.0986328,-0.0630493,0.234863,0.964905
1470331549016879,-0.0979614,-0.0628662,0.234863,0.965027
1470331549031887,-0.0976563,-0.0627441,0.23468,0.965088
1470331549054405,-0.0977173,-0.0627441,0.234497,0.965149
1470331549076925,-0.0980835,-0.0627441,0.234253,0.965149
1470331549090938,-0.0981445,-0.0627441,0.234253,0.965149
1470331549121465,-0.0980225,-0.0626831,0.234192,0.965149
1470331549136478,-0.0975342,-0.0623779,0.23407,0.965271
1470331549151011,-0.0974731,-0.0623169,0.23407,0.965271
1470331549174512,-0.0976563,-0.062439,0.233887,0.965271
1470331549196539,-0.0979614,-0.062561,0.233826,0.965271
1470331549211055,-0.0979614,-0.062561,0.233826,0.965271
1470331549234066,-0.0976563,-0.0625,0.233826,0.965332
1470331549256587,-0.09729,-0.0623779,0.233826,0.965332
1470331549271100,-0.0969849,-0.0621948,0.233765,0.965393
1470331549294133,-0.0966797,-0.0620728,0.233765,0.965454
1470331549316642,-0.0966797,-0.0620728,0.233765,0.965454
1470331549331154,-0.0966797,-0.0619507,0.233704,0.965454
1470331549354174,-0.0969238,-0.0617676,0.233582,0.965515
1470331549376696,-0.0969849,-0.0615234,0.233398,0.965515
1470331549391207,-0.0968628,-0.0611572,0.233276,0.965637
1470331549414257,-0.0968628,-0.0611572,0.233276,0.965637
1470331549436783,-0.0968628,-0.0611572,0.233276,0.965637
1470331549457784,-0.0968018,-0.0611572,0.233276,0.965637
1470331549474285,-0.0968018,-0.0610962,0.233276,0.965637
1470331549496842,-0.0968018,-0.0610962,0.233276,0.965637
1470331549517881,-0.0967407,-0.0610962,0.233276,0.965637
1470331549534336,-0.0964355,-0.0611572,0.233459,0.965576
1470331549556856,-0.0959473,-0.0610962,0.233826,0.965576
1470331549577888,-0.0956421,-0.0611572,0.234131,0.965515
1470331549594389,-0.0953369,-0.0612793,0.234375,0.965515
1470331549616910,-0.0950928,-0.0612183,0.234497,0.965454
1470331549637948,-0.0951538,-0.0612183,0.234497,0.965454
1470331549654443,-0.0951538,-0.0611572,0.234436,0.965515
1470331549676965,-0.0951538,-0.0608521,0.234375,0.965515
1470331549698040,-0.0950928,-0.0604248,0.234375,0.965576
1470331549714497,-0.0946045,-0.0598755,0.234314,0.965637
1470331549736518,-0.0940552,-0.0593872,0.234131,0.965759
1470331549758119,-0.093689,-0.0588989,0.233948,0.965881
1470331549774051,-0.0934448,-0.0586548,0.233765,0.966003
1470331549796608,-0.0932007,-0.0583496,0.233643,0.966064
1470331549818139,-0.0928345,-0.0579834,0.233521,0.966125
1470331549834107,-0.0924072,-0.0576172,0.233398,0.966248
1470331549856625,-0.0917969,-0.057312,0.233398,0.966309
1470331549879146,-0.0915527,-0.057251,0.233337,0.96637
1470331549894171,-0.0913086,-0.0570679,0.233337,0.96637
1470331549916679,-0.0910645,-0.0568848,0.233276,0.966431
1470331549939201,-0.0908203,-0.0565796,0.233276,0.966492
1470331549954213,-0.0906982,-0.0562744,0.233154,0.966553
1470331549976754,-0.0907593,-0.0561523,0.232971,0.966553
1470331549999255,-0.0906372,-0.0559692,0.232849,0.966614
1470331550014266,-0.0906372,-0.0557861,0.232605,0.966675
1470331550036789,-0.0905762,-0.0557861,0.232605,0.966675
1470331550059309,-0.0906982,-0.055603,0.232483,0.966736
1470331550073396,-0.0907593,-0.0554199,0.232361,0.966736
1470331550096873,-0.0907593,-0.0552979,0.232178,0.966797
1470331550119361,-0.0906982,-0.0550537,0.231995,0.966858
1470331550133375,-0.0908813,-0.0549316,0.23175,0.966919
1470331550156894,-0.0911255,-0.0548706,0.231445,0.96698
1470331550179415,-0.0912476,-0.0548096,0.231201,0.967041
1470331550193429,-0.0912476,-0.0548096,0.231201,0.967041
1470331550216448,-0.0911865,-0.0547485,0.231201,0.967041
1470331550239469,-0.0913086,-0.0548096,0.231018,0.967102
1470331550253498,-0.0915527,-0.0547485,0.230713,0.967102
1470331550276502,-0.09198,-0.0546875,0.230286,0.967163
1470331550299522,-0.0924072,-0.0548096,0.229858,0.967224
1470331550313537,-0.0929565,-0.0549316,0.229492,0.967285
1470331550336557,-0.0934448,-0.0551147,0.229065,0.967285
1470331550359090,-0.0934448,-0.0549316,0.228699,0.967407
1470331550373589,-0.0930786,-0.0543213,0.228699,0.967468
1470331550396610,-0.0927124,-0.0534668,0.228699,0.96759
1470331550419130,-0.0924683,-0.0523071,0.228943,0.96759
1470331550440151,-0.0917969,-0.0510864,0.230225,0.967407
1470331550456664,-0.0915527,-0.0509644,0.231689,0.967102
1470331550479185,-0.0927124,-0.0515137,0.232178,0.966858
1470331550500757,-0.0942993,-0.052124,0.232117,0.966675
1470331550516720,-0.0958862,-0.0529785,0.231689,0.966553
1470331550539238,-0.0976563,-0.053772,0.231079,0.966492
1470331550560283,-0.0995483,-0.0549927,0.230347,0.966431
1470331550576771,-0.101624,-0.0562134,0.229797,0.966248
1470331550599292,-0.103149,-0.0574951,0.22937,0.966125
1470331550620312,-0.104431,-0.0592041,0.229065,0.965942
1470331550636825,-0.106323,-0.0619507,0.229126,0.965576
1470331550659352,-0.10907,-0.0652466,0.229187,0.965027
1470331550680395,-0.11261,-0.0687866,0.229736,0.964233
1470331550696899,-0.116028,-0.0725098,0.230347,0.96344
1470331550719445,-0.119629,-0.0756836,0.230896,0.962585
1470331550747931,-0.122681,-0.0779419,0.230896,0.962036
1470331550755935,-0.123657,-0.0791016,0.230347,0.961914
1470331550779472,-0.123474,-0.0794678,0.229736,0.962097
1470331550800474,-0.124451,-0.0797729,0.229126,0.962097
1470331550816489,-0.126831,-0.0805054,0.228699,0.961792
1470331550839507,-0.128784,-0.0808105,0.228394,0.961609
1470331550861528,-0.129028,-0.0802002,0.228088,0.96167
1470331550876549,-0.128113,-0.0789185,0.227539,0.962036
1470331550899577,-0.126953,-0.0776978,0.227051,0.962402
1470331550921584,-0.126404,-0.0767212,0.226807,0.962646
1470331550936596,-0.12677,-0.0762939,0.226501,0.962708
1470331550959116,-0.127686,-0.0762329,0.226196,0.962646
1470331550981640,-0.12854,-0.0762939,0.226074,0.962524
1470331550996148,-0.128784,-0.0762329,0.226074,0.962524
1470331551019222,-0.128784,-0.0762939,0.226074,0.962524
1470331551041690,-0.128845,-0.0760498,0.226257,0.962463
1470331551056202,-0.129028,-0.0756226,0.226563,0.962402
1470331551079223,-0.12915,-0.0752563,0.226746,0.962402
1470331551101743,-0.129211,-0.0747681,0.226868,0.962402
1470331551116256,-0.129456,-0.0742798,0.226929,0.962341
1470331551139284,-0.129639,-0.0737305,0.22699,0.962402
1470331551161797,-0.129578,-0.0733643,0.22699,0.962402
1470331551176310,-0.129822,-0.0731812,0.227112,0.962402
1470331551199331,-0.130188,-0.0730591,0.227112,0.962341
1470331551221861,-0.130615,-0.0727539,0.227112,0.96228
1470331551235868,-0.130981,-0.0724487,0.227173,0.96228
1470331551259387,-0.130798,-0.0721436,0.227173,0.96228
1470331551281905,-0.130066,-0.0716553,0.227234,0.962402
1470331551295918,-0.129395,-0.0713501,0.227295,0.962524
1470331551319454,-0.129028,-0.071167,0.227356,0.962585
1470331551341959,-0.12854,-0.0709229,0.227478,0.962646
1470331551363015,-0.128235,-0.0709229,0.227417,0.962708
1470331551379493,-0.128113,-0.0709229,0.227234,0.962708
1470331551402013,-0.127808,-0.0707397,0.227173,0.96283
1470331551423031,-0.127625,-0.0705566,0.22699,0.962891
1470331551439577,-0.127747,-0.0706787,0.226685,0.962952
1470331551462067,-0.127747,-0.0707397,0.226685,0.962952
1470331551483085,-0.127502,-0.0706177,0.226501,0.963013
1470331551499100,-0.127197,-0.0704346,0.226379,0.963074
1470331551521620,-0.127197,-0.0705566,0.226074,0.963135
1470331551543212,-0.127502,-0.0708618,0.225586,0.963196
1470331551559156,-0.127625,-0.071106,0.22522,0.963257
1470331551581697,-0.127686,-0.0712891,0.224915,0.963318
1470331551602693,-0.127686,-0.0714722,0.224548,0.963379
1470331551619210,-0.127441,-0.0717773,0.224243,0.96344
1470331551641729,-0.127258,-0.0720215,0.223877,0.963562
1470331551662747,-0.126831,-0.0722046,0.22345,0.963684
1470331551679262,-0.126526,-0.0722656,0.223083,0.963806
1470331551701782,-0.126343,-0.0723267,0.222656,0.963928
1470331551722836,-0.126038,-0.0723877,0.22229,0.96405
1470331551739329,-0.12561,-0.0723877,0.221924,0.964172
1470331551761836,-0.124939,-0.0723877,0.221619,0.964355
1470331551784368,-0.124146,-0.0722656,0.221375,0.964539
1470331551799370,-0.123413,-0.0721436,0.22113,0.964661
1470331551821894,-0.122559,-0.0720825,0.220825,0.964844
1470331551844437,-0.121887,-0.0721436,0.220581,0.965027
1470331551859424,-0.121155,-0.0721436,0.220398,0.965149
1470331551881945,-0.120605,-0.0722656,0.220215,0.96521
1470331551904465,-0.120056,-0.0725098,0.220032,0.965332
1470331551919477,-0.119385,-0.0726929,0.219849,0.965454
1470331551941998,-0.118591,-0.072998,0.219666,0.965576
1470331551964517,-0.118103,-0.0733032,0.219482,0.965637
1470331551978532,-0.117554,-0.0736084,0.219299,0.965698
1470331552002053,-0.116821,-0.0738525,0.219055,0.96582
1470331552024571,-0.11615,-0.0740967,0.218872,0.965942
1470331552038588,-0.115356,-0.0743408,0.21875,0.966064
1470331552061605,-0.114502,-0.0744629,0.218628,0.966187
1470331552084126,-0.113525,-0.0744629,0.218628,0.966309
1470331552098639,-0.112488,-0.0744629,0.218689,0.96637
1470331552121684,-0.111328,-0.0742798,0.218811,0.966492
1470331552144224,-0.110229,-0.0740356,0.218933,0.966614
1470331552158694,-0.109192,-0.0736084,0.218994,0.966736
1470331552181714,-0.108215,-0.0732422,0.218933,0.966919
1470331552204239,-0.107666,-0.0731201,0.218628,0.967041
1470331552218748,-0.107544,-0.0731201,0.218323,0.967163
1470331552241769,-0.107117,-0.072937,0.218079,0.967224
1470331552264289,-0.106506,-0.0726318,0.217773,0.967407
1470331552285306,-0.105652,-0.0722046,0.217407,0.96759
1470331552301827,-0.105164,-0.0718994,0.217041,0.967773
1470331552324341,-0.105042,-0.0716553,0.216614,0.967896
1470331552345392,-0.105042,-0.0713501,0.216248,0.968018
1470331552361874,-0.104919,-0.071106,0.215942,0.96814
1470331552384396,-0.104553,-0.0708008,0.215576,0.968262
1470331552405415,-0.104065,-0.0704346,0.215332,0.968384
1470331552421929,-0.103638,-0.0700073,0.215088,0.968506
1470331552451956,-0.103333,-0.0697021,0.214844,0.968628
1470331552465515,-0.10321,-0.069397,0.214661,0.968689
1470331552481983,-0.10321,-0.0692139,0.214417,0.96875
1470331552504502,-0.10321,-0.0692749,0.214417,0.96875
1470331552525521,-0.103149,-0.0690308,0.214355,0.968811
1470331552542036,-0.103149,-0.0690308,0.214355,0.968811
1470331552564576,-0.103149,-0.0689697,0.214355,0.968811
1470331552585588,-0.103149,-0.0689697,0.214355,0.968811
1470331552602091,-0.103394,-0.0690308,0.214294,0.968811
1470331552624115,-0.103333,-0.0690308,0.214294,0.968811
1470331552645683,-0.103333,-0.0690918,0.214294,0.968811
1470331552661643,-0.103333,-0.0690918,0.214294,0.968811
1470331552691690,-0.103088,-0.0688477,0.214294,0.968872
1470331552706789,-0.103027,-0.0686646,0.214294,0.968872
1470331552721699,-0.103271,-0.0684204,0.214478,0.968811
1470331552744221,-0.103516,-0.0683594,0.214661,0.96875
1470331552766739,-0.103516,-0.0681763,0.214722,0.96875
1470331552781752,-0.103516,-0.0681763,0.214722,0.96875
1470331552804272,-0.103516,-0.0681763,0.214722,0.96875
1470331552826793,-0.103516,-0.0681763,0.214722,0.96875
1470331552841806,-0.103516,-0.0681763,0.214722,0.96875
1470331552847328,-0.10376,-0.0680542,0.2146,0.96875
1470331552869891,-0.10376,-0.0680542,0.2146,0.96875
1470331552892419,-0.104004,-0.0680542,0.2146,0.96875
1470331552908866,-0.104431,-0.0681152,0.214478,0.968689
1470331552929885,-0.104614,-0.0681152,0.214355,0.968689
1470331552952413,-0.104736,-0.0680542,0.214233,0.96875
1470331552967418,-0.104736,-0.0680542,0.214233,0.96875
1470331552989938,-0.104736,-0.0680542,0.214233,0.96875
1470331553012459,-0.104736,-0.0680542,0.214233,0.96875
1470331553028974,-0.10498,-0.0681763,0.214233,0.968689
1470331553049993,-0.105408,-0.0684204,0.214233,0.968628
1470331553072513,-0.105408,-0.0684204,0.214233,0.968628
1470331553087589,-0.105408,-0.0684204,0.214233,0.968628
1470331553109579,-0.105408,-0.0684204,0.214233,0.968628
1470331553132571,-0.105347,-0.0684204,0.214233,0.968628
1470331553147114,-0.105652,-0.0687256,0.214233,0.968567
1470331553169626,-0.106079,-0.0690308,0.214233,0.968506
1470331553194122,-0.106323,-0.0693359,0.214294,0.968445
1470331553208638,-0.106445,-0.0695801,0.214355,0.968384
1470331553229655,-0.106262,-0.0697632,0.214417,0.968384
1470331553252174,-0.105957,-0.0699463,0.214355,0.968445
1470331553268689,-0.105835,-0.0700073,0.214355,0.968445
1470331553289739,-0.105652,-0.0701294,0.214294,0.968445
1470331553312243,-0.105469,-0.0701294,0.214233,0.968506
1470331553328751,-0.105469,-0.0701294,0.214233,0.968506
1470331553349789,-0.105408,-0.0701904,0.213989,0.968567
1470331553372337,-0.105408,-0.0701904,0.213989,0.968567
1470331553388825,-0.105408,-0.0701904,0.213989,0.968567
1470331553409875,-0.105408,-0.0702515,0.213989,0.968567
1470331553432417,-0.105408,-0.0702515,0.213989,0.968567
1470331553448850,-0.105408,-0.0702515,0.213989,0.968567
1470331553469871,-0.105347,-0.0701904,0.213989,0.968567
1470331553492389,-0.105347,-0.0702515,0.213989,0.968567
1470331553508905,-0.105347,-0.0702515,0.213989,0.968567
1470331553529923,-0.105286,-0.0703125,0.213806,0.968628
1470331553552444,-0.105286,-0.0703125,0.213806,0.968628
1470331553568503,-0.105347,-0.0705566,0.213745,0.968567
1470331553596984,-0.105225,-0.0709229,0.213623,0.968628
1470331553612507,-0.104919,-0.071167,0.213501,0.968628
1470331553628513,-0.104675,-0.0712891,0.213379,0.968689
1470331553649535,-0.104675,-0.0712891,0.213379,0.968689
1470331553672052,-0.104919,-0.0714722,0.213257,0.968689
1470331553690068,-0.104919,-0.0715332,0.213257,0.968689
1470331553709587,-0.104919,-0.0715332,0.213257,0.968689
1470331553732123,-0.104919,-0.0715332,0.213257,0.968689
1470331553750121,-0.104919,-0.0715332,0.213257,0.968689
1470331553769668,-0.104919,-0.0715332,0.213257,0.968689
1470331553792194,-0.104919,-0.0715332,0.213257,0.968689
1470331553810176,-0.104919,-0.0715332,0.213257,0.968689
1470331553829727,-0.104919,-0.0715332,0.213257,0.968689
1470331553852241,-0.104919,-0.0715332,0.213257,0.968689
1470331553870229,-0.104919,-0.0715332,0.213257,0.968689
1470331553889747,-0.104919,-0.0715942,0.213257,0.968689
1470331553912314,-0.104919,-0.0715942,0.213257,0.968689
1470331553930283,-0.104919,-0.0715942,0.213257,0.968689
1470331553949825,-0.104919,-0.0715332,0.213257,0.968689
1470331553972356,-0.104919,-0.0715332,0.213257,0.968689
1470331553997344,-0.104919,-0.0715942,0.213257,0.968689
1470331554009879,-0.104919,-0.0715942,0.213257,0.968689
1470331554032378,-0.104919,-0.0715942,0.213257,0.968689
1470331554050132,-0.104919,-0.0715942,0.213257,0.968689
1470331554069661,-0.104919,-0.0715942,0.213257,0.968689
1470331554092180,-0.105164,-0.0714111,0.213196,0.968689
1470331554110219,-0.105347,-0.0712891,0.213135,0.968689
1470331554131241,-0.105347,-0.0712891,0.213135,0.968689
1470331554152257,-0.105347,-0.0712891,0.213135,0.968689
1470331554170274,-0.105347,-0.0712891,0.213135,0.968689
1470331554189804,-0.10553,-0.0713501,0.213074,0.968689
1470331554212311,-0.105835,-0.0714111,0.213074,0.968628
1470331554230390,-0.105835,-0.0714111,0.213074,0.968628
1470331554249875,-0.105835,-0.0714111,0.213074,0.968628
1470331554272399,-0.105835,-0.0714111,0.213074,0.968628
1470331554289884,-0.105835,-0.0714111,0.213074,0.968628
1470331554311400,-0.105835,-0.0714111,0.213074,0.968628
1470331554332418,-0.105835,-0.0714111,0.213074,0.968628
1470331554349935,-0.105835,-0.0714111,0.213074,0.968628
1470331554371454,-0.105835,-0.0714111,0.213074,0.968628
1470331554392473,-0.105896,-0.0714111,0.213074,0.968628
1470331554410001,-0.105896,-0.0714111,0.213074,0.968628
1470331554432532,-0.105896,-0.0714111,0.213135,0.968628
1470331554452627,-0.105896,-0.0714111,0.213135,0.968628
1470331554470077,-0.105896,-0.0714111,0.213135,0.968628
1470331554491076,-0.105896,-0.0714111,0.213074,0.968628
1470331554512114,-0.105896,-0.0714111,0.213074,0.968628
1470331554530145,-0.105896,-0.0714111,0.213074,0.968628
1470331554551116,-0.105896,-0.0714111,0.213074,0.968628
1470331554572135,-0.105896,-0.0714111,0.213074,0.968628
1470331554590151,-0.106201,-0.071228,0.213196,0.968567
1470331554612693,-0.106384,-0.0709229,0.21344,0.968506
1470331554632190,-0.105896,-0.0707397,0.21344,0.968567
1470331554650205,-0.104858,-0.0705566,0.213562,0.968689
1470331554672734,-0.10437,-0.0704346,0.213684,0.968689
1470331554692258,-0.104675,-0.0703735,0.213806,0.968689
1470331554710258,-0.105286,-0.0701294,0.214111,0.968567
1470331554732811,-0.105774,-0.0695801,0.2146,0.968445
1470331554752328,-0.105835,-0.0689087,0.214844,0.968445
1470331554770313,-0.105591,-0.0685425,0.214966,0.968445
1470331554792833,-0.105469,-0.0684204,0.214966,0.968445
1470331554812349,-0.104858,-0.0679321,0.215027,0.968567
1470331554829898,-0.104004,-0.0675049,0.215149,0.968628
1470331554852386,-0.103516,-0.0675659,0.215149,0.968689
1470331554872404,-0.103271,-0.0675049,0.215088,0.96875
1470331554890447,-0.102905,-0.0672607,0.21521,0.96875
1470331554912467,-0.102539,-0.0672607,0.215393,0.96875
1470331554932485,-0.102112,-0.0673218,0.215515,0.96875
1470331554950001,-0.101929,-0.0673828,0.21521,0.968872
1470331554972521,-0.101563,-0.0674438,0.214661,0.968994
1470331554992038,-0.102173,-0.067749,0.214417,0.968994
1470331555010055,-0.102905,-0.0681763,0.214417,0.968872
1470331555032575,-0.102478,-0.0684204,0.214172,0.968933
1470331555052094,-0.101318,-0.0680542,0.213989,0.969177
1470331555070140,-0.100525,-0.067749,0.21405,0.969238
1470331555092655,-0.100342,-0.0671997,0.214417,0.969238
1470331555112174,-0.100342,-0.0669556,0.214783,0.969177
1470331555130162,-0.100647,-0.0668335,0.215088,0.969055
1470331555152701,-0.10083,-0.0670166,0.215454,0.968933
1470331555172249,-0.100891,-0.0670166,0.215454,0.968933
1470331555190245,-0.100525,-0.0668945,0.215393,0.968994
1470331555212736,-0.100098,-0.0667725,0.215454,0.969055
1470331555233755,-0.100098,-0.0670776,0.215698,0.968994
1470331555250270,-0.100159,-0.0670776,0.215637,0.968994
1470331555272806,-0.100159,-0.0670776,0.215637,0.968994
1470331555293848,-0.100037,-0.0675049,0.215759,0.968933
1470331555309861,-0.0999756,-0.067749,0.215759,0.968933
1470331555332843,-0.100403,-0.0678711,0.215637,0.968872
1470331555353862,-0.100647,-0.0681152,0.215149,0.968933
1470331555370459,-0.100891,-0.0686646,0.214539,0.968994
1470331555391947,-0.101318,-0.0689087,0.214233,0.969055
1470331555412918,-0.101563,-0.0690918,0.214233,0.968994
1470331555429430,-0.101257,-0.069397,0.214111,0.969055
1470331555451950,-0.100342,-0.0692749,0.213928,0.969177
1470331555472969,-0.0997925,-0.0690308,0.213745,0.969299
1470331555489484,-0.100342,-0.0689697,0.213745,0.969238
1470331555512006,-0.100769,-0.0681763,0.213989,0.969177
1470331555533023,-0.100708,-0.0675049,0.214478,0.969177
1470331555549538,-0.100342,-0.0668945,0.215027,0.969116
1470331555572059,-0.100281,-0.0666504,0.215393,0.969055
1470331555594081,-0.100464,-0.0663452,0.215454,0.969055
1470331555609593,-0.100281,-0.0658569,0.215515,0.969055
1470331555631613,-0.100281,-0.0658569,0.215515,0.969055
1470331555654132,-0.100281,-0.065918,0.215515,0.969055
1470331555669146,-0.10022,-0.065918,0.215515,0.969055
1470331555691674,-0.10022,-0.065918,0.215515,0.969055
1470331555714188,-0.100708,-0.0662842,0.215637,0.968994
1470331555728699,-0.101074,-0.0665283,0.215637,0.968933
1470331555751758,-0.101563,-0.0668945,0.215332,0.968933
1470331555774241,-0.101746,-0.0671997,0.214844,0.968994
1470331555788755,-0.10199,-0.0674438,0.2146,0.968994
1470331555811776,-0.1026,-0.0675659,0.2146,0.968933
1470331555834295,-0.102905,-0.0675659,0.214722,0.968872
1470331555848807,-0.102661,-0.0675659,0.214539,0.968933
1470331555871828,-0.102295,-0.0672607,0.214417,0.968994
1470331555894349,-0.102417,-0.0670776,0.214294,0.969055
1470331555908861,-0.10321,-0.0669556,0.214294,0.968933
1470331555931978,-0.10376,-0.0664673,0.2146,0.968872
1470331555954403,-0.10376,-0.0656738,0.215088,0.968811
1470331555968915,-0.103333,-0.0650635,0.215454,0.968811
1470331555991937,-0.103088,-0.0647583,0.215942,0.96875
1470331556014456,-0.103271,-0.0647583,0.216187,0.968689
1470331556028970,-0.103271,-0.0647583,0.216187,0.968689
1470331556051990,-0.102844,-0.0646973,0.21637,0.968689
1470331556075015,-0.103027,-0.0650635,0.216492,0.968628
1470331556095533,-0.103271,-0.0651855,0.216431,0.968567
1470331556112044,-0.103333,-0.0651855,0.216431,0.968567
1470331556134565,-0.103394,-0.0651855,0.216431,0.968567
1470331556155598,-0.103394,-0.0651855,0.216431,0.968567
1470331556172098,-0.103516,-0.0648193,0.216248,0.968628
1470331556194121,-0.103821,-0.0648804,0.216125,0.968628
1470331556215637,-0.104187,-0.0648193,0.215942,0.968628
1470331556231692,-0.10437,-0.0646973,0.215637,0.968689
1470331556254176,-0.104431,-0.0646973,0.215271,0.96875
1470331556275690,-0.104492,-0.0646362,0.214966,0.968811
1470331556291706,-0.104736,-0.0647583,0.214722,0.968872
1470331556314226,-0.104675,-0.0647583,0.214722,0.968872
1470331556335744,-0.104675,-0.0651245,0.2146,0.968872
1470331556351759,-0.104614,-0.0654907,0.214539,0.968872
1470331556374279,-0.104309,-0.0656738,0.214661,0.968872
1470331556395342,-0.10437,-0.065918,0.214783,0.968811
1470331556411813,-0.104736,-0.0661011,0.214905,0.96875
1470331556434333,-0.104797,-0.0661011,0.214905,0.968689
1470331556455360,-0.104675,-0.065979,0.214905,0.96875
1470331556471867,-0.104736,-0.065979,0.214905,0.96875
1470331556494390,-0.104736,-0.065979,0.214905,0.96875
1470331556516908,-0.10498,-0.0658569,0.214661,0.96875
1470331556531922,-0.105164,-0.0658569,0.214355,0.968811
1470331556554492,-0.105225,-0.0657959,0.21405,0.968872
1470331556576961,-0.105286,-0.0654907,0.213867,0.968933
1470331556591974,-0.105591,-0.0653687,0.213684,0.968933
1470331556614022,-0.105591,-0.0651855,0.213562,0.968994
1470331556637016,-0.105591,-0.0651855,0.213562,0.968994
1470331556652028,-0.10553,-0.0651855,0.213501,0.968994
1470331556674069,-0.105286,-0.0650024,0.213684,0.968994
1470331556697068,-0.105347,-0.0648804,0.213867,0.968994
1470331556711125,-0.105164,-0.0648804,0.21405,0.968933
1470331556734102,-0.10498,-0.0647583,0.214294,0.968933
1470331556756624,-0.104614,-0.06427,0.214539,0.968933
1470331556771162,-0.104431,-0.0640259,0.214722,0.968933
1470331556794668,-0.104492,-0.0637817,0.214966,0.968872
1470331556816720,-0.104553,-0.0634766,0.215088,0.968872
1470331556831190,-0.104553,-0.0631714,0.214966,0.968933
1470331556854711,-0.104553,-0.0631714,0.214966,0.968933
1470331556876772,-0.104736,-0.0633545,0.214722,0.968933
1470331556891248,-0.104919,-0.0635376,0.214539,0.968933
1470331556914265,-0.10498,-0.0637817,0.214478,0.968933
1470331556936788,-0.10498,-0.0640869,0.214355,0.968933
1470331556951298,-0.104736,-0.0641479,0.214294,0.968994
1470331556974318,-0.104492,-0.0643921,0.214111,0.969055
1470331556996838,-0.104553,-0.0646973,0.213928,0.969055
1470331557017914,-0.104614,-0.0650024,0.213867,0.969055
1470331557034372,-0.104675,-0.0652466,0.213745,0.969055
1470331557056892,-0.104614,-0.0652466,0.213745,0.969055
1470331557077911,-0.10437,-0.0651245,0.213928,0.969055
1470331557094426,-0.104065,-0.0650024,0.21405,0.969055
1470331557116982,-0.103882,-0.0648804,0.214233,0.969055
1470331557137989,-0.103882,-0.0645142,0.214417,0.969055
1470331557154480,-0.103699,-0.0640259,0.214539,0.969055
1470331557177000,-0.103516,-0.0637207,0.214478,0.969116
1470331557198019,-0.103333,-0.0634766,0.214233,0.969177
1470331557214033,-0.103333,-0.0634155,0.213928,0.969238
1470331557237054,-0.103394,-0.0635376,0.213745,0.969299
1470331557258101,-0.103394,-0.0635376,0.213745,0.969299
1470331557274092,-0.103394,-0.0634766,0.213745,0.969299
1470331557297108,-0.103455,-0.0637817,0.213623,0.969299
1470331557325634,-0.103577,-0.0641479,0.213501,0.969299
1470331557334184,-0.10376,-0.0646362,0.213318,0.969299
1470331557356706,-0.103821,-0.0651855,0.212891,0.969299
1470331557378181,-0.104065,-0.0654907,0.212708,0.969299
1470331557394195,-0.104431,-0.0657959,0.212952,0.969177
1470331557416715,-0.104492,-0.0663452,0.212646,0.969238
1470331557437736,-0.10376,-0.0662231,0.212708,0.969299
1470331557461756,-0.10321,-0.0655518,0.213135,0.969299
1470331557476769,-0.103271,-0.0653076,0.213806,0.969177
1470331557499290,-0.103271,-0.0648804,0.214294,0.969116
1470331557514303,-0.103333,-0.0645142,0.214539,0.969055
1470331557536822,-0.102905,-0.06427,0.2146,0.969116
1470331557559343,-0.102112,-0.0639648,0.214539,0.969238
1470331557574375,-0.101685,-0.0635986,0.214478,0.969299
1470331557596378,-0.102112,-0.0637817,0.214417,0.969238
1470331557619420,-0.102478,-0.0641479,0.214355,0.969238
1470331557633410,-0.102295,-0.0639648,0.214111,0.969299
1470331557656931,-0.102417,-0.0639648,0.213867,0.96936
1470331557679451,-0.102844,-0.0644531,0.213684,0.969299
1470331557693463,-0.102905,-0.0645752,0.213501,0.969299
1470331557716984,-0.10321,-0.0647583,0.213196,0.96936
1470331557739507,-0.10321,-0.0649414,0.212646,0.969482
1470331557753518,-0.103394,-0.0653687,0.212158,0.969543
1470331557777039,-0.103455,-0.065918,0.211914,0.969543
1470331557799560,-0.103455,-0.065918,0.211914,0.969543
1470331557813573,-0.10376,-0.0658569,0.211914,0.969482
1470331557836592,-0.104126,-0.0658569,0.211914,0.969482
1470331557859113,-0.103699,-0.065918,0.21167,0.969543
1470331557873626,-0.10321,-0.0656738,0.211548,0.969666
1470331557897147,-0.103394,-0.0655518,0.211548,0.969604
1470331557919166,-0.103821,-0.0653687,0.211731,0.969543
1470331557933679,-0.103943,-0.0650635,0.212097,0.969482
1470331557957201,-0.103516,-0.0645752,0.212219,0.969543
1470331557979224,-0.102783,-0.0641479,0.212402,0.969604
1470331558000755,-0.102356,-0.0640869,0.212524,0.969604
1470331558016755,-0.102173,-0.0641479,0.212708,0.969604
1470331558039274,-0.102112,-0.0641479,0.212708,0.969604
1470331558060320,-0.102234,-0.0640259,0.213013,0.969543
1470331558076808,-0.102234,-0.0640869,0.213013,0.969543
1470331558099332,-0.101868,-0.0639038,0.213013,0.969604
1470331558120391,-0.101685,-0.0636597,0.213013,0.969604
1470331558136862,-0.101929,-0.0637207,0.213196,0.969543
1470331558159382,-0.101929,-0.0637207,0.213196,0.969543
1470331558180434,-0.102417,-0.0635986,0.213318,0.969482
1470331558196920,-0.102356,-0.0634766,0.213135,0.969543
1470331558219437,-0.102417,-0.0631104,0.212769,0.969666
1470331558240505,-0.103455,-0.0632935,0.21283,0.969482
1470331558256969,-0.10437,-0.0639648,0.212708,0.96936
1470331558279490,-0.103516,-0.0639038,0.212463,0.969543
1470331558300509,-0.101563,-0.0632935,0.212219,0.969849
1470331558317023,-0.100891,-0.0631714,0.212158,0.96991
1470331558339559,-0.101501,-0.0634766,0.212402,0.969788
1470331558360596,-0.101501,-0.0634766,0.212646,0.969727
1470331558376581,-0.101074,-0.0634766,0.212891,0.969727
1470331558399598,-0.100281,-0.0632324,0.213074,0.969788
1470331558422119,-0.098938,-0.0626221,0.213257,0.96991
1470331558436632,-0.098938,-0.0626221,0.213257,0.96991
1470331558459685,-0.0993652,-0.0626831,0.213318,0.969849
1470331558481710,-0.0994873,-0.062439,0.213562,0.969849
1470331558496185,-0.100159,-0.0626831,0.213867,0.969666
1470331558519205,-0.100586,-0.0628052,0.213989,0.969604
1470331558541725,-0.100281,-0.062561,0.213135,0.969849
1470331558556739,-0.0997314,-0.0625,0.212219,0.970093
1470331558579259,-0.100403,-0.0628052,0.211975,0.970032
1470331558601779,-0.10083,-0.0631714,0.211731,0.970032
1470331558616292,-0.100037,-0.0630493,0.211731,0.970093
1470331558639364,-0.0988159,-0.062561,0.211731,0.970276
1470331558661832,-0.0985107,-0.062439,0.212036,0.970215
1470331558676346,-0.0980835,-0.0623169,0.212463,0.970215
1470331558699367,-0.0977173,-0.0623169,0.212891,0.970154
1470331558721887,-0.0978394,-0.0627441,0.213135,0.970032
1470331558736400,-0.0967407,-0.0621338,0.213379,0.970154
1470331558759426,-0.0962524,-0.0621948,0.213501,0.970154
1470331558781965,-0.0963745,-0.0625,0.21344,0.970154
1470331558796454,-0.0964355,-0.062561,0.21344,0.970154
1470331558819489,-0.0967407,-0.0626221,0.213623,0.970032
1470331558848004,-0.0968628,-0.0626221,0.213623,0.970032
1470331558856511,-0.0971069,-0.062561,0.213013,0.970154
1470331558879528,-0.0970459,-0.0625,0.211975,0.970398
1470331558902549,-0.0977783,-0.0626221,0.211548,0.970398
1470331558923069,-0.0985718,-0.0631714,0.211426,0.970337
1470331558940084,-0.0977173,-0.0634155,0.211182,0.970459
1470331558962102,-0.0963745,-0.0631104,0.210999,0.970642
1470331558983121,-0.0962524,-0.0629883,0.211121,0.970642
1470331558999636,-0.0969849,-0.0630493,0.211609,0.970459
1470331559021661,-0.0969238,-0.0630493,0.211975,0.970398
1470331559043175,-0.0964966,-0.0630493,0.212219,0.970398
1470331559059699,-0.0958862,-0.0629272,0.212341,0.970398
1470331559081710,-0.0953369,-0.0626221,0.212341,0.970459
1470331559103259,-0.0953369,-0.062439,0.21228,0.97052
1470331559119247,-0.0958862,-0.0625,0.21228,0.970459
1470331559141764,-0.0959473,-0.062561,0.21228,0.970459
1470331559162784,-0.0958252,-0.062439,0.212097,0.97052
1470331559179300,-0.0957031,-0.062561,0.211731,0.970581
1470331559201818,-0.0957642,-0.0626831,0.211304,0.970642
1470331559222901,-0.0962524,-0.0629272,0.210999,0.970642
1470331559239869,-0.0964355,-0.0628052,0.210999,0.970642
1470331559261872,-0.0968628,-0.0629272,0.211121,0.970581
1470331559282905,-0.0974731,-0.0630493,0.211121,0.97052
1470331559299418,-0.0983887,-0.0631104,0.210938,0.970459
1470331559321926,-0.0992432,-0.0633545,0.210754,0.970398
1470331559342959,-0.0994263,-0.0637207,0.210571,0.970398
1470331559359962,-0.098938,-0.0639038,0.210449,0.970459
1470331559381982,-0.0993042,-0.0646973,0.210205,0.970398
1470331559405001,-0.100525,-0.0656738,0.210144,0.970215
1470331559419515,-0.101135,-0.0663452,0.210266,0.970093
1470331559442033,-0.100769,-0.0666504,0.210449,0.970093
1470331559464554,-0.0996094,-0.0667114,0.210449,0.970215
1470331559479067,-0.0982666,-0.0665283,0.210388,0.970337
1470331559502089,-0.0980225,-0.0668945,0.210144,0.970398
1470331559524607,-0.0987549,-0.0671997,0.209961,0.970337
1470331559538620,-0.0997314,-0.067688,0.209717,0.970276
1470331559562141,-0.100098,-0.0678711,0.209595,0.970276
1470331559584661,-0.0996704,-0.0675659,0.209473,0.970337
1470331559598675,-0.0994263,-0.0674438,0.20929,0.970398
1470331559621695,-0.0997314,-0.0675049,0.209167,0.970398
1470331559644216,-0.0999146,-0.0671997,0.209045,0.970459
1470331559658728,-0.10022,-0.0669556,0.209167,0.970398
1470331559682249,-0.100159,-0.0665283,0.209229,0.970398
1470331559704268,-0.0992432,-0.0661011,0.209473,0.97052
1470331559718782,-0.0988159,-0.0657349,0.209717,0.97052
1470331559741806,-0.098938,-0.0656128,0.2099,0.970459
1470331559764328,-0.0992432,-0.0658569,0.2099,0.970398
1470331559778843,-0.0999146,-0.0661621,0.209961,0.970276
1470331559801858,-0.0999756,-0.0662231,0.209961,0.970276
1470331559824376,-0.0997925,-0.0663452,0.209961,0.970337
1470331559838890,-0.0997925,-0.0666504,0.210083,0.970276
1470331559861929,-0.100159,-0.0670776,0.210266,0.970154
1470331559884431,-0.100769,-0.067627,0.210388,0.970032
1470331559905477,-0.101379,-0.0679321,0.210327,0.969971
1470331559921963,-0.101929,-0.0682983,0.210388,0.969849
1470331559944485,-0.102173,-0.0686646,0.210449,0.969788
1470331559965531,-0.102295,-0.0689697,0.21051,0.969727
1470331559982018,-0.102234,-0.0690918,0.210571,0.969727
1470331560004538,-0.102478,-0.0692139,0.210632,0.969666
1470331560025559,-0.102844,-0.0693359,0.210754,0.969604
1470331560042072,-0.102783,-0.069397,0.210754,0.969604
1470331560064595,-0.102722,-0.0692139,0.210999,0.969604
1470331560085613,-0.102783,-0.0690308,0.211243,0.969543
1470331560101626,-0.102661,-0.0687866,0.211426,0.969482
1470331560124646,-0.102722,-0.0687256,0.211609,0.969482
1470331560145665,-0.103149,-0.0687866,0.21167,0.969421
1470331560162180,-0.103516,-0.0689697,0.211548,0.96936
1470331560184200,-0.103638,-0.0691528,0.211487,0.96936
1470331560206720,-0.103638,-0.0691528,0.211487,0.96936
1470331560221734,-0.103638,-0.0691528,0.211487,0.96936
1470331560244254,-0.103882,-0.0692749,0.211548,0.969299
1470331560265774,-0.104065,-0.0693359,0.211548,0.969299
1470331560281788,-0.104065,-0.0693359,0.211548,0.969299
1470331560304308,-0.104004,-0.0693359,0.211548,0.969299
1470331560326830,-0.104248,-0.069458,0.211548,0.969299
1470331560341842,-0.104248,-0.069519,0.211548,0.969299
1470331560364362,-0.103943,-0.069397,0.211609,0.969299
1470331560386886,-0.103943,-0.069397,0.211609,0.969299
1470331560401900,-0.103882,-0.0692749,0.211731,0.969299
1470331560424420,-0.103821,-0.0690918,0.211792,0.969299
1470331560446937,-0.103882,-0.0689087,0.211853,0.969299
1470331560467957,-0.103882,-0.0689697,0.211853,0.969299
1470331560484482,-0.103943,-0.0689697,0.211426,0.96936
1470331560514501,-0.103943,-0.0689697,0.21106,0.969421
1470331560521504,-0.103943,-0.0689697,0.210815,0.969482
1470331560544523,-0.103943,-0.0689697,0.210876,0.969482
1470331560567044,-0.103699,-0.0687866,0.210632,0.969604
1470331560581056,-0.103577,-0.0687866,0.210327,0.969666
1470331560604619,-0.103577,-0.0688477,0.210144,0.969727
1470331560627130,-0.103271,-0.0688477,0.210083,0.969727
1470331560641112,-0.102966,-0.0688477,0.210022,0.969788
1470331560656126,-0.102966,-0.0688477,0.210022,0.969788
1470331560669637,-0.102783,-0.0687866,0.2099,0.969849
1470331560692159,-0.102722,-0.0687866,0.2099,0.969849
1470331560708674,-0.102783,-0.0687256,0.2099,0.969849
1470331560730191,-0.102844,-0.0686646,0.209961,0.969849
1470331560752227,-0.102661,-0.0684204,0.209839,0.96991
1470331560768725,-0.102539,-0.0682373,0.209595,0.969971
1470331560790246,-0.102539,-0.0681763,0.209351,0.970032
1470331560812264,-0.102478,-0.0681763,0.209351,0.970032
1470331560828779,-0.102539,-0.0681763,0.209167,0.970093
1470331560849812,-0.102722,-0.0682373,0.209045,0.970093
1470331560872321,-0.102722,-0.0682373,0.209045,0.970093
1470331560888837,-0.102722,-0.0682373,0.208984,0.970093
1470331560909869,-0.102722,-0.0682373,0.208984,0.970093
1470331560932402,-0.102722,-0.0684204,0.208862,0.970093
1470331560948886,-0.102966,-0.0686646,0.208801,0.970093
1470331560969934,-0.102966,-0.0686646,0.208801,0.970093
1470331560992516,-0.102661,-0.0686646,0.208862,0.970093
1470331561008942,-0.102112,-0.0685425,0.208984,0.970093
1470331561029986,-0.101868,-0.0682983,0.209229,0.970154
1470331561052510,-0.102112,-0.0681152,0.20929,0.970093
1470331561069000,-0.102478,-0.0680542,0.209167,0.970093
1470331561090013,-0.102722,-0.0678711,0.208984,0.970093
1470331561112533,-0.102661,-0.067749,0.20874,0.970154
1470331561128550,-0.102417,-0.0675659,0.208496,0.970276
1470331561150067,-0.102661,-0.0675659,0.208374,0.970276
1470331561172088,-0.1026,-0.0675049,0.208374,0.970276
1470331561188647,-0.1026,-0.0675049,0.208374,0.970276
1470331561209621,-0.1026,-0.0675049,0.208374,0.970276
1470331561232148,-0.102783,-0.0675659,0.208313,0.970276
1470331561248657,-0.102783,-0.0675659,0.208313,0.970276
1470331561269676,-0.1026,-0.067749,0.208252,0.970276
1470331561292195,-0.102783,-0.0679932,0.208252,0.970276
1470331561310211,-0.102783,-0.0679932,0.208252,0.970276
1470331561329730,-0.102539,-0.0679932,0.208374,0.970276
1470331561352251,-0.102173,-0.0678101,0.208557,0.970276
1470331561370268,-0.102051,-0.067627,0.208679,0.970276
1470331561389783,-0.102356,-0.0673828,0.208618,0.970276
1470331561412303,-0.102722,-0.0672607,0.208557,0.970215
1470331561430346,-0.102722,-0.0672607,0.208557,0.970215
1470331561449856,-0.102173,-0.0670776,0.208435,0.970337
1470331561472358,-0.102112,-0.0670776,0.208435,0.970337
1470331561490388,-0.102356,-0.0671997,0.208435,0.970337
1470331561509932,-0.102478,-0.0673828,0.208496,0.970276
1470331561532429,-0.102539,-0.067627,0.208557,0.970215
1470331561550426,-0.102661,-0.0678711,0.208679,0.970154
1470331561569944,-0.102661,-0.0681152,0.208923,0.970093
1470331561592464,-0.102661,-0.0683594,0.209351,0.969971
1470331561610493,-0.102783,-0.0687256,0.209778,0.969849
1470331561630004,-0.102844,-0.0691528,0.210144,0.969727
1470331561652519,-0.102783,-0.069397,0.210571,0.969666
1470331561670561,-0.102905,-0.069458,0.210876,0.969543
1470331561690052,-0.103088,-0.0693359,0.21106,0.969482
1470331561712075,-0.103149,-0.0693359,0.211121,0.969482
1470331561730109,-0.103149,-0.0693359,0.211121,0.969482
1470331561751607,-0.103149,-0.069397,0.21106,0.969482
1470331561772126,-0.103149,-0.069397,0.21106,0.969482
1470331561790146,-0.103149,-0.069397,0.21106,0.969482
1470331561810164,-0.103149,-0.0693359,0.21106,0.969482
1470331561832694,-0.102905,-0.069397,0.211182,0.969482
1470331561850238,-0.102478,-0.0693359,0.211304,0.969543
1470331561871217,-0.102173,-0.069397,0.211426,0.969543
1470331561892736,-0.102478,-0.0697632,0.211426,0.969482
1470331561910250,-0.102905,-0.0701904,0.211609,0.96936
1470331561931270,-0.103455,-0.0706177,0.211792,0.969238
1470331561952292,-0.103455,-0.0706177,0.211792,0.969238
1470331561970303,-0.103149,-0.0705566,0.211792,0.969238
1470331561991325,-0.103149,-0.0705566,0.211792,0.969238
1470331562012341,-0.103149,-0.0705566,0.211792,0.969238
1470331562030404,-0.10321,-0.0704346,0.211792,0.969238
1470331562051404,-0.102722,-0.0701294,0.21167,0.96936
1470331562072443,-0.102539,-0.0698242,0.211487,0.969421
1470331562090437,-0.102966,-0.0697021,0.211243,0.969482
1470331562111430,-0.103516,-0.0698242,0.211121,0.969421
1470331562132501,-0.103516,-0.0698242,0.211121,0.969421
1470331562150465,-0.103394,-0.0697021,0.210938,0.969482
1470331562171488,-0.103394,-0.0696411,0.210938,0.969482
1470331562200009,-0.103394,-0.0696411,0.210938,0.969482
1470331562210647,-0.103149,-0.0697021,0.21106,0.969482
1470331562232539,-0.102844,-0.0696411,0.211121,0.969482
1470331562252557,-0.102844,-0.0696411,0.211121,0.969482
1470331562270646,-0.102783,-0.0695801,0.211304,0.969482
1470331562292593,-0.102417,-0.069397,0.211609,0.969482
1470331562312157,-0.102417,-0.0693359,0.211914,0.969421
1470331562330162,-0.102417,-0.0693359,0.211914,0.969421
1470331562353204,-0.102356,-0.0690308,0.211914,0.969421
1470331562372183,-0.102356,-0.0687866,0.211792,0.969482
1470331562390181,-0.102295,-0.0687256,0.21167,0.969482
1470331562412743,-0.101868,-0.0685425,0.211609,0.969543
1470331562432244,-0.101868,-0.0685425,0.211609,0.969604
1470331562450234,-0.10199,-0.0684814,0.211487,0.969604
1470331562472755,-0.102173,-0.0682983,0.211304,0.969604
1470331562492289,-0.102234,-0.0682983,0.211304,0.969604
1470331562510317,-0.10199,-0.0683594,0.211304,0.969666
1470331562532835,-0.101746,-0.0682373,0.211304,0.969666
1470331562552456,-0.101746,-0.0682373,0.211304,0.969666
1470331562574902,-0.10199,-0.0682983,0.211243,0.969666
1470331562592897,-0.10199,-0.0682983,0.211243,0.969666
1470331562612386,-0.101746,-0.0681152,0.211304,0.969666
1470331562630396,-0.101257,-0.0678101,0.211365,0.969727
1470331562652422,-0.101257,-0.0678101,0.211365,0.969727
1470331562672462,-0.101318,-0.0678101,0.211365,0.969727
1470331562690497,-0.101257,-0.067627,0.211304,0.969788
1470331562712970,-0.101013,-0.0673828,0.211121,0.969849
1470331562732487,-0.101013,-0.0673828,0.211121,0.969849
1470331562750504,-0.101013,-0.0673828,0.211121,0.969849
1470331562773024,-0.100952,-0.0673218,0.211121,0.969849
1470331562792623,-0.101013,-0.0675659,0.210999,0.969849
1470331562810714,-0.101013,-0.0678711,0.210876,0.969849
1470331562832578,-0.100769,-0.0679932,0.210693,0.96991
1470331562853596,-0.100586,-0.0681763,0.210449,0.969971
1470331562870113,-0.100586,-0.0681763,0.210449,0.969971
1470331562892632,-0.100586,-0.0682373,0.210449,0.969971
1470331562913650,-0.100586,-0.0682373,0.210449,0.969971
1470331562930667,-0.100586,-0.0682373,0.210449,0.969971
1470331562952862,-0.100525,-0.0679932,0.210449,0.970032
1470331562973705,-0.100586,-0.0678101,0.210327,0.970032
1470331562990224,-0.100586,-0.0678101,0.210327,0.970032
1470331563012743,-0.100586,-0.0678101,0.210327,0.970032
1470331563035277,-0.100525,-0.0678101,0.210327,0.970032
1470331563050274,-0.100708,-0.0679321,0.210266,0.970032
1470331563072797,-0.100708,-0.0679321,0.210266,0.970032
1470331563093814,-0.100708,-0.0679321,0.210266,0.970032
1470331563110328,-0.100464,-0.0678711,0.210205,0.970093
1470331563132876,-0.100464,-0.0679321,0.209961,0.970093
1470331563153866,-0.100525,-0.0680542,0.209839,0.970154
1470331563170468,-0.100342,-0.0681763,0.209656,0.970215
1470331563191930,-0.100342,-0.0681763,0.209656,0.970215
1470331563214426,-0.100342,-0.0681763,0.209656,0.970215
1470331563235465,-0.100281,-0.0680542,0.209656,0.970215
1470331563251955,-0.0999756,-0.067749,0.209717,0.970215
1470331563274475,-0.0996094,-0.0675049,0.209778,0.970276
1470331563288988,-0.0996094,-0.0675049,0.209778,0.970276
1470331563312009,-0.0997314,-0.0673828,0.209656,0.970337
1470331563334545,-0.0996704,-0.0671997,0.209473,0.970337
1470331563348540,-0.0996704,-0.0671997,0.209473,0.970398
1470331563372065,-0.0996094,-0.0671387,0.20929,0.970398
1470331563394583,-0.0996094,-0.0671387,0.20929,0.970398
1470331563408595,-0.0996094,-0.0671387,0.20929,0.970398
1470331563432116,-0.0996094,-0.0671387,0.20929,0.970398
1470331563454137,-0.0996094,-0.0671387,0.20929,0.970398
1470331563468651,-0.0995483,-0.0671387,0.20929,0.970398
1470331563492170,-0.0996094,-0.0671997,0.209167,0.970459
1470331563514690,-0.0997925,-0.0673828,0.209106,0.970398
1470331563528702,-0.0997314,-0.0673828,0.209106,0.970398
1470331563551723,-0.0997314,-0.0673828,0.209106,0.970398
1470331563574243,-0.0996094,-0.0673218,0.209229,0.970398
1470331563588757,-0.0996094,-0.0673218,0.209229,0.970398
1470331563611777,-0.0996094,-0.0670776,0.209229,0.970459
1470331563634297,-0.0995483,-0.0668335,0.209167,0.970459
1470331563648811,-0.0996704,-0.0665894,0.208923,0.97052
1470331563671834,-0.100159,-0.0665283,0.208557,0.970581
1470331563694353,-0.100525,-0.0664673,0.208313,0.970581
1470331563715370,-0.100708,-0.0663452,0.208252,0.970581
1470331563733387,-0.100586,-0.06604,0.208191,0.970642
1470331563754405,-0.100281,-0.0657349,0.208191,0.970703
1470331563775424,-0.100403,-0.0654297,0.207947,0.970764
1470331563791939,-0.100586,-0.0653076,0.207764,0.970764
1470331563814961,-0.100586,-0.0652466,0.207764,0.970764
1470331563835478,-0.100403,-0.0651245,0.207886,0.970764
1470331563851993,-0.0999146,-0.0649414,0.207886,0.970825
1470331563874513,-0.0999146,-0.0650024,0.207886,0.970825
1470331563895535,-0.10022,-0.0649414,0.207886,0.970825
1470331563912047,-0.100525,-0.0648804,0.207947,0.970764
1470331563934570,-0.100525,-0.0646362,0.208008,0.970764
1470331563955586,-0.10022,-0.06427,0.208008,0.970825
1470331563971602,-0.10022,-0.06427,0.208008,0.970825
1470331563994121,-0.100525,-0.0643311,0.207886,0.970825
1470331564015640,-0.100769,-0.06427,0.207703,0.970825
1470331564031655,-0.100952,-0.0640869,0.207581,0.970825
1470331564054174,-0.100952,-0.0640869,0.207581,0.970825
1470331564075779,-0.100952,-0.0641479,0.207581,0.970825
1470331564091709,-0.100769,-0.0639038,0.207764,0.970825
1470331564114228,-0.100708,-0.0639038,0.207764,0.970825
1470331564137750,-0.100708,-0.0639038,0.207764,0.970825
1470331564151762,-0.100708,-0.0639038,0.207764,0.970825
1470331564174282,-0.100952,-0.0637207,0.207825,0.970825
1470331564196803,-0.100952,-0.0635376,0.208069,0.970764
1470331564211816,-0.100647,-0.0630493,0.208313,0.970764
1470331564234336,-0.100525,-0.0626221,0.208557,0.970764
1470331564256856,-0.100525,-0.0622559,0.208618,0.970764
1470331564271369,-0.100647,-0.0621338,0.208679,0.970764
1470331564294390,-0.100647,-0.0621338,0.208679,0.970764
1470331564316910,-0.100647,-0.0621338,0.208679,0.970764
1470331564331424,-0.100647,-0.0620728,0.208679,0.970764
1470331564354444,-0.100952,-0.0621948,0.20874,0.970703
1470331564376964,-0.100952,-0.0621948,0.20874,0.970703
1470331564391477,-0.101013,-0.0621948,0.20874,0.970703
1470331564414498,-0.100891,-0.0619507,0.208923,0.970703
1470331564437018,-0.100769,-0.0617065,0.208984,0.970703
1470331564451031,-0.100647,-0.0614624,0.208984,0.970764
1470331564474552,-0.100891,-0.0614014,0.209045,0.970703
1470331564497072,-0.101135,-0.0612793,0.209106,0.970703
1470331564511085,-0.101318,-0.0609741,0.209045,0.970703
1470331564534607,-0.101563,-0.0606079,0.208862,0.970703
1470331564556626,-0.101563,-0.0602417,0.20874,0.970764
1470331564578145,-0.10144,-0.0599365,0.208679,0.970825
1470331564594160,-0.101563,-0.0597534,0.208679,0.970825
1470331564624188,-0.101501,-0.0596924,0.208679,0.970825
1470331564638230,-0.101501,-0.0596924,0.208679,0.970825
1470331564662223,-0.101501,-0.0596924,0.208679,0.970825
1470331564677276,-0.101501,-0.0596924,0.208679,0.970825
1470331564698253,-0.101501,-0.0596924,0.208679,0.970825
1470331564714268,-0.101501,-0.0596924,0.208679,0.970825
1470331564737789,-0.101563,-0.0596924,0.208679,0.970825
1470331564758307,-0.101501,-0.0598145,0.208557,0.970886
1470331564774345,-0.101563,-0.0599976,0.208374,0.970886
1470331564796842,-0.101807,-0.0601196,0.208313,0.970825
1470331564817862,-0.101807,-0.0601196,0.208313,0.970825
1470331564834377,-0.101624,-0.0598145,0.208313,0.970886
1470331564856897,-0.10144,-0.05896,0.20874,0.970886
1470331564877942,-0.101196,-0.0580444,0.209656,0.970764
1470331564894462,-0.101379,-0.0574951,0.210754,0.97052
1470331564916949,-0.101685,-0.0571899,0.211182,0.970459
1470331564939470,-0.10199,-0.0568848,0.211121,0.970398
1470331564954984,-0.102234,-0.0566406,0.210999,0.970459
1470331564977004,-0.102356,-0.0563354,0.210693,0.97052
1470331564998117,-0.102783,-0.0561523,0.210449,0.97052
1470331565014542,-0.103699,-0.0561523,0.210205,0.97052
1470331565037057,-0.104431,-0.0560303,0.209839,0.97052
1470331565059582,-0.10498,-0.0560913,0.209412,0.97052
1470331565073591,-0.105652,-0.0562744,0.209106,0.97052
1470331565097111,-0.106445,-0.0567017,0.208801,0.970459
1470331565119130,-0.107239,-0.0571899,0.208679,0.970337
1470331565134645,-0.107971,-0.0578003,0.208679,0.970276
1470331565157196,-0.108948,-0.0585938,0.20874,0.970093
1470331565179185,-0.109924,-0.0593262,0.208862,0.96991
1470331565193708,-0.110779,-0.0598145,0.208984,0.969727
1470331565217218,-0.111572,-0.0599976,0.209229,0.969604
1470331565239239,-0.111877,-0.0596924,0.209412,0.969543
1470331565253752,-0.111938,-0.05896,0.209595,0.969543
1470331565276774,-0.112061,-0.0581665,0.2099,0.969482
1470331565299303,-0.112305,-0.0574341,0.210205,0.969482
1470331565313806,-0.112488,-0.0565796,0.21051,0.969421
1470331565336828,-0.112732,-0.0556641,0.210999,0.96936
1470331565359366,-0.112976,-0.0549316,0.211548,0.969238
1470331565373863,-0.113098,-0.0542603,0.212036,0.969177
1470331565396894,-0.113281,-0.0535889,0.212524,0.969055
1470331565419402,-0.11377,-0.0530396,0.213135,0.968872
1470331565433914,-0.114258,-0.0524292,0.213867,0.968689
1470331565456948,-0.114807,-0.0519409,0.214661,0.968506
1470331565479455,-0.115417,-0.0517578,0.215393,0.968262
1470331565500473,-0.116272,-0.0516357,0.216064,0.968018
1470331565517016,-0.116943,-0.0513306,0.216675,0.967834
1470331565539509,-0.117615,-0.0510864,0.217163,0.967651
1470331565554022,-0.118164,-0.0509033,0.217529,0.967529
1470331565577071,-0.118713,-0.0506592,0.217773,0.967407
1470331565599562,-0.119202,-0.0505371,0.217957,0.967285
1470331565620621,-0.119385,-0.0501709,0.217957,0.967285
1470331565637103,-0.119873,-0.0497437,0.218018,0.967224
1470331565659617,-0.120483,-0.0498047,0.218262,0.967102
1470331565680636,-0.12085,-0.0500488,0.218567,0.96698
1470331565697150,-0.12085,-0.0501709,0.218872,0.966919
1470331565719670,-0.120789,-0.050354,0.219116,0.966858
1470331565740690,-0.120544,-0.0505981,0.219421,0.966797
1470331565757203,-0.120361,-0.0509644,0.219849,0.966736
1470331565787230,-0.120117,-0.0512695,0.220215,0.966614
1470331565800743,-0.119934,-0.0516357,0.220581,0.966553
1470331565816757,-0.11969,-0.0518188,0.220886,0.966492
1470331565839277,-0.119324,-0.052002,0.221252,0.966431
1470331565860797,-0.118958,-0.0522461,0.221497,0.966431
1470331565876812,-0.118835,-0.0524292,0.221497,0.966431
1470331565899331,-0.118652,-0.0525513,0.221191,0.966492
1470331565920350,-0.118896,-0.0526123,0.220825,0.966553
1470331565944372,-0.119141,-0.0526733,0.220398,0.966614
1470331565959387,-0.11908,-0.0527954,0.220032,0.966736
1470331565980423,-0.118652,-0.0526733,0.219604,0.966858
1470331565996919,-0.118286,-0.0524902,0.218994,0.967102
1470331566019439,-0.118103,-0.0525513,0.218262,0.967285
1470331566041986,-0.11853,-0.0527344,0.217529,0.967346
1470331566056997,-0.118652,-0.0529175,0.21698,0.967468
1470331566079493,-0.118896,-0.0530396,0.216431,0.967529
1470331566102015,-0.118958,-0.0534058,0.216064,0.96759
1470331566117028,-0.11853,-0.0537109,0.215637,0.967712
1470331566139547,-0.118286,-0.053894,0.215027,0.967896
1470331566162068,-0.11853,-0.0542603,0.214539,0.967957
1470331566176081,-0.118652,-0.0547485,0.214294,0.967957
1470331566207108,-0.118225,-0.0549927,0.21405,0.968079
1470331566222136,-0.118347,-0.0552979,0.213745,0.968079
1470331566236137,-0.120483,-0.0578613,0.213074,0.967834
1470331566259657,-0.125366,-0.0622559,0.212097,0.967163
1470331566282191,-0.13092,-0.0664063,0.211609,0.966248
1470331566303196,-0.134521,-0.0688477,0.211487,0.965576
1470331566319709,-0.135071,-0.069397,0.211121,0.965576
1470331566342228,-0.132996,-0.0686035,0.210571,0.966003
1470331566363249,-0.130737,-0.0675049,0.210144,0.966492
1470331566379263,-0.129456,-0.0665894,0.2099,0.966797
1470331566401828,-0.128723,-0.0656738,0.209839,0.96698
1470331566416298,-0.127686,-0.0643311,0.209778,0.967224
1470331566439316,-0.126099,-0.0629272,0.209595,0.967529
1470331566461838,-0.12439,-0.0615845,0.209473,0.967896
1470331566484357,-0.123291,-0.0604858,0.209473,0.968079
1470331566499371,-0.122681,-0.0595703,0.209656,0.968201
1470331566521890,-0.122375,-0.0588379,0.209656,0.968262
1470331566542909,-0.122375,-0.0582275,0.209656,0.968323
1470331566565431,-0.12207,-0.0574951,0.209778,0.968384
1470331566581944,-0.12146,-0.0562744,0.210205,0.968445
1470331566603040,-0.121033,-0.0559082,0.211304,0.968262
1470331566619478,-0.124023,-0.0587158,0.21344,0.967224
1470331566641998,-0.13446,-0.0662842,0.215027,0.965027
1470331566663050,-0.149231,-0.0761108,0.216858,0.96167
1470331566679571,-0.162415,-0.085083,0.21814,0.958496
1470331566702052,-0.164734,-0.0906982,0.22113,0.956909
1470331566724599,-0.156677,-0.0900879,0.231079,0.955994
1470331566739588,-0.147461,-0.0861206,0.248352,0.95343
1470331566762105,-0.148621,-0.0859375,0.270508,0.947266
1470331566783128,-0.156555,-0.0889282,0.2948,0.938416
1470331566799639,-0.161133,-0.0918579,0.320496,0.928894
1470331566822175,-0.160706,-0.0929565,0.346741,0.919373
1470331566843188,-0.160034,-0.0943604,0.371704,0.909546
1470331566859693,-0.16095,-0.0982666,0.394348,0.899353
1470331566882213,-0.16333,-0.104065,0.414246,0.889282
1470331566903233,-0.163635,-0.108093,0.430237,0.881104
1470331566918746,-0.1604,-0.110107,0.441345,0.875977
1470331566941767,-0.15625,-0.11322,0.448425,0.872742
1470331566964287,-0.154114,-0.119385,0.453125,0.869812
1470331566978800,-0.150696,-0.124756,0.456665,0.867859
1470331567001821,-0.144409,-0.123596,0.459167,0.867737
1470331567024351,-0.140198,-0.1203,0.460693,0.868042
1470331567038876,-0.141296,-0.121277,0.461243,0.867493
