timestamp,roll,pitch,yaw
1470261436221018,0.955251,0.112296,-2.26239
1470261436241036,0.955852,0.111825,-2.26259
1470261436263559,0.95627,0.111492,-2.2626
1470261436281076,0.956284,0.110909,-2.2627
1470261436301090,0.956583,0.110571,-2.26259
1470261436326112,0.956898,0.110185,-2.26241
1470261436341126,0.956825,0.110085,-2.26244
1470261436361144,0.956825,0.110085,-2.26244
1470261436383664,0.956825,0.110085,-2.26244
1470261436405684,0.956825,0.110085,-2.26244
1470261436422699,0.956769,0.109937,-2.2624
1470261436443717,0.956752,0.109985,-2.26247
1470261436461234,0.956769,0.109937,-2.2624
1470261436482253,0.95666,0.11001,-2.26247
1470261436503271,0.95666,0.11001,-2.26247
1470261436521290,0.95666,0.11001,-2.26247
1470261436542306,0.95666,0.11001,-2.26247
1470261436566328,0.95666,0.11001,-2.26247
1470261436581345,0.95666,0.11001,-2.26247
1470261436602362,0.95666,0.11001,-2.26247
1470261436623380,0.95666,0.11001,-2.26247
1470261436641396,0.95666,0.11001,-2.26247
1470261436662418,0.95666,0.11001,-2.26247
1470261436684935,0.95666,0.11001,-2.26247
1470261436701449,0.95666,0.11001,-2.26247
1470261436722469,0.95666,0.11001,-2.26247
1470261436743488,0.95666,0.11001,-2.26247
1470261436761503,0.95666,0.11001,-2.26247
1470261436784024,0.95645,0.109953,-2.26245
1470261436811047,0.95645,0.109953,-2.26245
1470261436821557,0.95645,0.109953,-2.26245
1470261436844077,0.95645,0.109953,-2.26245
1470261436863597,0.95645,0.109953,-2.26245
1470261436881113,0.95645,0.109953,-2.26245
1470261436903631,0.95645,0.109953,-2.26245
1470261436923649,0.956478,0.109983,-2.26257
1470261436943167,0.956414,0.110126,-2.26249
1470261436963687,0.956414,0.110126,-2.26249
1470261436983702,0.956414,0.110126,-2.26249
1470261437008225,0.956414,0.110126,-2.26249
1470261437023739,0.956414,0.110126,-2.26249
1470261437044257,0.956414,0.110126,-2.26249
1470261437060273,0.956277,0.110169,-2.26243
1470261437082792,0.956277,0.110169,-2.26243
1470261437104311,0.956277,0.110169,-2.26243
1470261437120325,0.95626,0.110218,-2.2625
1470261437142846,0.95626,0.110218,-2.2625
1470261437163871,0.95626,0.110218,-2.2625
1470261437180882,0.95626,0.110218,-2.2625
1470261437202900,0.956277,0.110169,-2.26243
1470261437223918,0.956277,0.110169,-2.26243
1470261437240434,0.956277,0.110169,-2.26243
1470261437262956,0.956277,0.110169,-2.26243
1470261437285474,0.956277,0.110169,-2.26243
1470261437300488,0.956277,0.110169,-2.26243
1470261437323007,0.956232,0.110099,-2.26259
1470261437344026,0.956095,0.110143,-2.26253
1470261437360541,0.956095,0.110143,-2.26253
1470261437383062,0.956095,0.110143,-2.26253
1470261437404080,0.956095,0.110143,-2.26253
1470261437420595,0.956095,0.110143,-2.26253
1470261437443116,0.956095,0.110143,-2.26253
1470261437464138,0.956095,0.110143,-2.26253
1470261437480653,0.956095,0.110143,-2.26253
1470261437503169,0.956022,0.110043,-2.26256
1470261437524188,0.956022,0.110043,-2.26256
1470261437540703,0.956022,0.110043,-2.26256
1470261437563225,0.956022,0.110043,-2.26256
1470261437584242,0.956022,0.110043,-2.26256
1470261437600757,0.956022,0.110043,-2.26256
1470261437622776,0.956039,0.109994,-2.2625
1470261437643796,0.955966,0.109894,-2.26253
1470261437660311,0.955966,0.109894,-2.26253
1470261437682830,0.955966,0.109894,-2.26253
1470261437705851,0.955966,0.109894,-2.26253
1470261437727871,0.955966,0.109894,-2.26253
1470261437742885,0.955966,0.109894,-2.26253
1470261437765905,0.955966,0.109894,-2.26253
1470261437780421,0.956103,0.109851,-2.26259
1470261437802938,0.955966,0.109894,-2.26253
1470261437825458,0.956387,0.109931,-2.26267
1470261437839971,0.956387,0.109931,-2.26267
1470261437863493,0.956387,0.109931,-2.26267
1470261437885513,0.956387,0.109931,-2.26267
1470261437900025,0.95689,0.109776,-2.26283
1470261437923046,0.95689,0.109776,-2.26283
1470261437945568,0.957228,0.109636,-2.26281
1470261437960079,0.957228,0.109636,-2.26281
1470261437983101,0.957228,0.109636,-2.26281
1470261438005621,0.957228,0.109636,-2.26281
1470261438019633,0.957256,0.109665,-2.26294
1470261438043156,0.957228,0.109636,-2.26281
1470261438065677,0.957256,0.109665,-2.26294
1470261438080188,0.957183,0.109565,-2.26297
1470261438103208,0.957183,0.109565,-2.26297
1470261438125228,0.957183,0.109565,-2.26297
1470261438139742,0.957183,0.109565,-2.26297
1470261438163263,0.957183,0.109565,-2.26297
1470261438185281,0.957183,0.109565,-2.26297
1470261438206801,0.957183,0.109565,-2.26297
1470261438222820,0.9572,0.109517,-2.2629
1470261438245838,0.9572,0.109517,-2.2629
1470261438266382,0.957063,0.10956,-2.26285
1470261438282869,0.957063,0.10956,-2.26285
1470261438305389,0.957063,0.10956,-2.26285
1470261438326408,0.957046,0.109609,-2.26291
1470261438348928,0.957046,0.109609,-2.26291
1470261438365445,0.957046,0.109609,-2.26291
1470261438386464,0.957046,0.109609,-2.26291
1470261438402977,0.956937,0.109682,-2.26298
1470261438425497,0.957046,0.109609,-2.26291
1470261438446537,0.956562,0.10955,-2.26299
1470261438463034,0.956562,0.10955,-2.26299
1470261438485552,0.9568,0.109725,-2.26293
1470261438506602,0.9568,0.109725,-2.26293
1470261438523086,0.9568,0.109725,-2.26293
1470261438545608,0.9568,0.109725,-2.26293
1470261438566625,0.9568,0.109725,-2.26293
1470261438583139,0.9568,0.109725,-2.26293
1470261438605664,0.9568,0.109725,-2.26293
1470261438626698,0.9568,0.109725,-2.26293
1470261438643192,0.9568,0.109725,-2.26293
1470261438665713,0.9568,0.109725,-2.26293
1470261438688234,0.9568,0.109725,-2.26293
1470261438702747,0.9568,0.109725,-2.26293
1470261438725284,0.956663,0.109769,-2.26287
1470261438755293,0.956691,0.109798,-2.263
1470261438763303,0.956691,0.109798,-2.263
1470261438785820,0.956691,0.109798,-2.263
1470261438807840,0.956691,0.109798,-2.263
1470261438822353,0.956691,0.109798,-2.263
1470261438845877,0.956691,0.109798,-2.263
1470261438867894,0.956691,0.109798,-2.263
1470261438882426,0.956691,0.109798,-2.263
1470261438905430,0.956691,0.109798,-2.263
1470261438927950,0.956691,0.109798,-2.263
1470261438942462,0.956691,0.109798,-2.263
1470261438965482,0.956618,0.109698,-2.26303
1470261438988003,0.956635,0.10965,-2.26296
1470261439002516,0.956635,0.10965,-2.26296
1470261439025536,0.956498,0.109693,-2.26291
1470261439048059,0.956498,0.109693,-2.26291
1470261439062570,0.956635,0.10965,-2.26296
1470261439085589,0.956498,0.109693,-2.26291
1470261439115617,0.956498,0.109693,-2.26291
1470261439122624,0.956425,0.109593,-2.26294
1470261439145646,0.956425,0.109593,-2.26294
1470261439167663,0.956425,0.109593,-2.26294
1470261439189201,0.956425,0.109593,-2.26294
1470261439205698,0.956425,0.109593,-2.26294
1470261439227762,0.956425,0.109593,-2.26294
1470261439249236,0.956453,0.109623,-2.26306
1470261439265753,0.956453,0.109623,-2.26306
1470261439287772,0.956243,0.109566,-2.26304
1470261439309338,0.95626,0.109518,-2.26298
1470261439325312,0.95626,0.109518,-2.26298
1470261439347827,0.95626,0.109518,-2.26298
1470261439369345,0.95626,0.109518,-2.26298
1470261439385359,0.956187,0.109418,-2.26301
1470261439407881,0.956187,0.109418,-2.26301
1470261439429400,0.956187,0.109418,-2.26301
1470261439445414,0.95605,0.109461,-2.26295
1470261439467933,0.956078,0.109491,-2.26308
1470261439489503,0.956078,0.109491,-2.26308
1470261439505467,0.956005,0.109391,-2.26311
1470261439542500,0.956022,0.109343,-2.26304
1470261439549061,0.956022,0.109343,-2.26304
1470261439565525,0.956022,0.109343,-2.26304
1470261439588041,0.956022,0.109343,-2.26304
1470261439610562,0.956022,0.109343,-2.26304
1470261439625575,0.956022,0.109343,-2.26304
1470261439648095,0.955812,0.109286,-2.26302
1470261439670616,0.955812,0.109286,-2.26302
1470261439685631,0.955812,0.109286,-2.26302
1470261439708148,0.955812,0.109286,-2.26302
1470261439736677,0.955812,0.109286,-2.26302
1470261439744683,0.955812,0.109286,-2.26302
1470261439768203,0.955812,0.109286,-2.26302
1470261439790723,0.955812,0.109286,-2.26302
1470261439813245,0.955812,0.109286,-2.26302
1470261439828257,0.95563,0.109259,-2.26312
1470261439850276,0.95563,0.109259,-2.26312
1470261439864797,0.955647,0.109211,-2.26306
1470261439888310,0.955647,0.109211,-2.26306
1470261439910332,0.955647,0.109211,-2.26306
1470261439924843,0.955574,0.109111,-2.26309
1470261439948365,0.955574,0.109111,-2.26309
1470261439970389,0.955574,0.109111,-2.26309
1470261439984898,0.955574,0.109111,-2.26309
1470261440014425,0.955574,0.109111,-2.26309
1470261440030944,0.955574,0.109111,-2.26309
1470261440044951,0.955574,0.109111,-2.26309
1470261440067975,0.955326,0.109393,-2.26279
1470261440090517,0.955253,0.109293,-2.26282
1470261440111512,0.955253,0.109293,-2.26282
1470261440128026,0.955326,0.109393,-2.26279
1470261440150547,0.955253,0.109293,-2.26282
1470261440171566,0.955253,0.109293,-2.26282
1470261440188080,0.95527,0.109244,-2.26276
1470261440210600,0.955298,0.109274,-2.26289
1470261440231693,0.955161,0.109317,-2.26283
1470261440248139,0.955161,0.109317,-2.26283
1470261440270656,0.955161,0.109317,-2.26283
1470261440291673,0.955161,0.109317,-2.26283
1470261440308188,0.955161,0.109317,-2.26283
1470261440330710,0.955161,0.109317,-2.26283
1470261440351727,0.955024,0.109361,-2.26277
1470261440368242,0.955326,0.109393,-2.26279
1470261440390762,0.955765,0.109381,-2.26287
1470261440411841,0.955765,0.109381,-2.26287
1470261440428297,0.955782,0.109333,-2.2628
1470261440450327,0.955765,0.109381,-2.26287
1470261440471835,0.955765,0.109381,-2.26287
1470261440487849,0.955765,0.109381,-2.26287
1470261440517378,0.955765,0.109381,-2.26287
1470261440532892,0.955765,0.109381,-2.26287
1470261440547906,0.955765,0.109381,-2.26287
1470261440570423,0.955765,0.109381,-2.26287
1470261440592945,0.955572,0.109276,-2.26278
1470261440607956,0.955709,0.109233,-2.26284
1470261440630477,0.955572,0.109276,-2.26278
1470261440652999,0.955572,0.109276,-2.26278
1470261440668012,0.955572,0.109276,-2.26278
1470261440690531,0.955572,0.109276,-2.26278
1470261440713054,0.955572,0.109276,-2.26278
1470261440727564,0.955499,0.109176,-2.26281
1470261440750585,0.955499,0.109176,-2.26281
1470261440773105,0.955499,0.109176,-2.26281
1470261440787618,0.955499,0.109176,-2.26281
1470261440810639,0.955527,0.109206,-2.26294
1470261440849174,0.955471,0.109057,-2.2629
1470261440854180,0.955334,0.109101,-2.26285
1470261440870694,0.955334,0.109101,-2.26285
1470261440893214,0.955334,0.109101,-2.26285
1470261440907725,0.955334,0.109101,-2.26285
1470261440930747,0.955261,0.109001,-2.26288
1470261440953267,0.955261,0.109001,-2.26288
1470261440967279,0.955261,0.109001,-2.26288
1470261440990301,0.955261,0.109001,-2.26288
1470261441013322,0.955188,0.108901,-2.26291
1470261441027333,0.955205,0.108853,-2.26285
1470261441058361,0.955205,0.108853,-2.26285
1470261441072875,0.955205,0.108853,-2.26285
1470261441094394,0.955023,0.108826,-2.26295
1470261441110408,0.955023,0.108826,-2.26295
1470261441132929,0.955023,0.108826,-2.26295
1470261441153947,0.955103,0.108634,-2.26297
1470261441170462,0.955103,0.108634,-2.26297
1470261441193482,0.954967,0.108677,-2.26291
1470261441214003,0.954894,0.108577,-2.26294
1470261441230519,0.955259,0.108466,-2.26305
1470261441253036,0.955186,0.108366,-2.26308
1470261441281562,0.955077,0.108439,-2.26315
1470261441290570,0.955021,0.108291,-2.26312
1470261441313106,0.955021,0.108291,-2.26312
1470261441334137,0.954948,0.108191,-2.26315
1470261441350624,0.954948,0.108191,-2.26315
1470261441373144,0.954948,0.108191,-2.26315
1470261441394165,0.954892,0.108043,-2.26312
1470261441410678,0.955185,0.107831,-2.26325
1470261441433198,0.955185,0.107831,-2.26325
1470261441454216,0.955065,0.107826,-2.26313
1470261441470731,0.954992,0.107726,-2.26316
1470261441493252,0.954992,0.107726,-2.26316
1470261441515771,0.954947,0.107656,-2.26332
1470261441530786,0.954947,0.107656,-2.26332
1470261441553305,0.954947,0.107656,-2.26332
1470261441575828,0.954891,0.107507,-2.26329
1470261441598346,0.954891,0.107507,-2.26329
1470261441613361,0.954891,0.107507,-2.26329
1470261441635379,0.954818,0.107408,-2.26332
1470261441649893,0.954818,0.107408,-2.26332
1470261441679419,0.954762,0.107259,-2.26329
1470261441695934,0.954762,0.107259,-2.26329
1470261441709947,0.954762,0.107259,-2.26329
1470261441732969,0.954689,0.107159,-2.26332
1470261441755488,0.954706,0.107111,-2.26325
1470261441770001,0.954633,0.107011,-2.26329
1470261441793021,0.954633,0.107011,-2.26329
1470261441815543,0.954633,0.107011,-2.26329
1470261441830056,0.954633,0.107011,-2.26329
1470261441853074,0.95456,0.106911,-2.26332
1470261441875596,0.954887,0.106603,-2.26333
1470261441889608,0.955242,0.106414,-2.26324
1470261441913131,0.955258,0.106365,-2.26318
1470261441935649,0.955258,0.106365,-2.26318
1470261441956669,0.955186,0.106266,-2.26321
1470261441973183,0.955186,0.106266,-2.26321
1470261441995704,0.95513,0.106117,-2.26318
1470261442016724,0.95513,0.106117,-2.26318
1470261442039242,0.955057,0.106017,-2.26321
1470261442056758,0.955057,0.106017,-2.26321
1470261442076775,0.955644,0.10571,-2.26283
1470261442093290,0.956211,0.105615,-2.26221
1470261442115812,0.956139,0.105516,-2.26224
1470261442136829,0.956139,0.105516,-2.26224
1470261442153345,0.956276,0.105472,-2.2623
1470261442175365,0.956219,0.105324,-2.26227
1470261442198385,0.956219,0.105324,-2.26227
1470261442213400,0.956219,0.105324,-2.26227
1470261442235418,0.956147,0.105224,-2.2623
1470261442256453,0.956627,0.104913,-2.26208
1470261442272952,0.957063,0.104532,-2.26202
1470261442278488,0.957063,0.104532,-2.26202
1470261442301047,0.957127,0.104389,-2.26211
1470261442323553,0.957555,0.104299,-2.262
1470261442338512,0.957555,0.104299,-2.262
1470261442361031,0.957985,0.104044,-2.26219
1470261442383553,0.958505,0.103841,-2.26229
1470261442398564,0.958505,0.103841,-2.26229
1470261442421086,0.958432,0.103741,-2.26232
1470261442443607,0.958432,0.103741,-2.26232
1470261442458621,0.958348,0.103563,-2.26217
1470261442481140,0.958485,0.10352,-2.26222
1470261442514171,0.958485,0.10352,-2.26222
1470261442518672,0.958905,0.103187,-2.26223
1470261442541192,0.959414,0.102906,-2.26214
1470261442563715,0.959722,0.102276,-2.26208
1470261442578726,0.959722,0.102276,-2.26208
1470261442601246,0.959649,0.102177,-2.26211
1470261442623766,0.959593,0.102028,-2.26208
1470261442641282,0.960301,0.101724,-2.26183
1470261442660801,0.960726,0.101265,-2.26158
1470261442683320,0.961162,0.100884,-2.26153
1470261442705840,0.961179,0.100835,-2.26146
1470261442720854,0.96166,0.100524,-2.26125
1470261442743378,0.962263,0.100218,-2.26116
1470261442758388,0.963019,0.0998194,-2.26106
1470261442783911,0.963565,0.0993651,-2.26094
1470261442803428,0.964933,0.0989031,-2.26063
1470261442818442,0.966851,0.0983561,-2.26034
1470261442840962,0.968798,0.0978379,-2.26017
1470261442863489,0.970545,0.0975061,-2.25986
1470261442878496,0.971353,0.0970487,-2.25936
1470261442901016,0.971987,0.0968068,-2.25884
1470261442923536,0.972888,0.0967686,-2.25838
1470261442946058,0.97377,0.0964092,-2.25785
1470261442961070,0.974526,0.0961721,-2.25745
1470261442983591,0.974889,0.0958537,-2.25712
1470261443001607,0.975709,0.0954734,-2.25681
1470261443021127,0.976339,0.0953584,-2.25654
1470261443043645,0.977079,0.0951702,-2.25621
1470261443060160,0.977726,0.0950052,-2.25588
1470261443082678,0.977874,0.0947036,-2.25543
1470261443103697,0.978172,0.0945272,-2.25502
1470261443120213,0.978644,0.0945776,-2.25467
1470261443143734,0.979148,0.0945848,-2.25453
1470261443163753,0.979811,0.0944258,-2.25448
1470261443180266,0.980619,0.0939316,-2.25454
1470261443200784,0.981364,0.0935802,-2.25452
1470261443223305,0.981876,0.0932959,-2.25444
1470261443239820,0.981876,0.0932959,-2.25444
1470261443260838,0.981792,0.0931178,-2.25429
1470261443284861,0.981792,0.0931178,-2.25429
1470261443299874,0.982491,0.0926969,-2.25442
1470261443320892,0.983158,0.0923762,-2.25468
1470261443344914,0.983463,0.0918754,-2.25489
1470261443359931,0.983463,0.0918754,-2.25489
1470261443380953,0.9835,0.0917035,-2.25486
1470261443403466,0.983516,0.0916534,-2.25479
1470261443421488,0.983516,0.0916534,-2.25479
1470261443441001,0.983443,0.0915548,-2.25482
1470261443463524,0.983443,0.0915548,-2.25482
1470261443481542,0.983581,0.0915109,-2.25488
1470261443501054,0.983525,0.0913621,-2.25485
1470261443523575,0.983525,0.0913621,-2.25485
1470261443541091,0.983562,0.0911903,-2.25482
1470261443561108,0.982951,0.091127,-2.25477
1470261443586633,0.982951,0.091127,-2.25477
1470261443601645,0.983016,0.0909844,-2.25486
1470261443624164,0.983016,0.0909844,-2.25486
1470261443643684,0.983033,0.0909344,-2.2548
1470261443661698,0.983098,0.0907918,-2.25489
1470261443681217,0.98307,0.0907625,-2.25477
1470261443706239,0.982997,0.0906639,-2.2548
1470261443721252,0.983135,0.09062,-2.25486
1470261443742271,0.983151,0.0905699,-2.25479
1470261443763792,0.983078,0.0904712,-2.25483
1470261443781808,0.983005,0.0903726,-2.25486
1470261443801324,0.98316,0.0902785,-2.25485
1470261443823343,0.982576,0.0894317,-2.25477
1470261443841360,0.981882,0.088658,-2.25475
1470261443862882,0.981639,0.0881133,-2.25469
1470261443883398,0.981639,0.0881133,-2.25469
1470261443901415,0.981705,0.0879706,-2.25478
1470261443920932,0.981705,0.0879706,-2.25478
1470261443946457,0.981654,0.0871601,-2.25468
1470261443961469,0.981553,0.0870325,-2.25459
1470261443980992,0.981707,0.0869383,-2.25458
1470261444003505,0.981635,0.0868398,-2.25461
1470261444021524,0.981635,0.0868398,-2.25461
1470261444044041,0.981578,0.0866911,-2.25458
1470261444063562,0.981643,0.0865484,-2.25468
1470261444081579,0.981587,0.0863997,-2.25464
1470261444102595,0.981587,0.0863997,-2.25464
1470261444123614,0.981652,0.086257,-2.25474
1470261444147637,0.981641,0.086178,-2.25455
1470261444170157,0.981568,0.0860794,-2.25458
1470261444183667,0.981706,0.0860353,-2.25464
1470261444201683,0.98165,0.0858866,-2.25461
1470261444222703,0.982261,0.0854501,-2.25428
1470261444243720,0.983367,0.0852533,-2.25342
1470261444269245,0.985108,0.084873,-2.25093
1470261444282257,0.985524,0.0848363,-2.24943
1470261444306278,0.984601,0.0845349,-2.24892
1470261444321291,0.983999,0.0841821,-2.24893
1470261444343811,0.984617,0.0839524,-2.24905
1470261444366331,0.984915,0.0837421,-2.24919
1470261444388852,0.984858,0.0835936,-2.24916
1470261444404366,0.984858,0.0835936,-2.24916
1470261444423385,0.984895,0.0834218,-2.24913
1470261444448906,0.984838,0.0832733,-2.2491
1470261444463922,0.984838,0.0832733,-2.2491
1470261444483438,0.984904,0.0831306,-2.24919
1470261444501454,0.984847,0.082982,-2.24916
1470261444523988,0.984847,0.082982,-2.24916
1470261444543503,0.984774,0.0828837,-2.24919
1470261444561521,0.98479,0.0828334,-2.24913
1470261444584027,0.984717,0.0827351,-2.24916
1470261444611083,0.98466,0.0825865,-2.24913
1470261444621593,0.984798,0.0825421,-2.24919
1470261444643583,0.984726,0.0824438,-2.24922
1470261444665100,0.984669,0.0822952,-2.24919
1470261444681617,0.984669,0.0822952,-2.24919
1470261444704134,0.984596,0.0821969,-2.24923
1470261444731160,0.984596,0.0821969,-2.24923
1470261444741667,0.984845,0.0820791,-2.24922
1470261444764190,0.984772,0.0819809,-2.24925
1470261444783706,0.984715,0.0818323,-2.24922
1470261444800724,0.984715,0.0818323,-2.24922
1470261444823242,0.98478,0.0816896,-2.24931
1470261444844268,0.984142,0.081599,-2.24914
1470261444860775,0.984158,0.0815487,-2.24908
1470261444883295,0.984085,0.0814504,-2.24911
1470261444904314,0.984223,0.081406,-2.24917
1470261444928335,0.984223,0.081406,-2.24917
1470261444942848,0.984151,0.0813076,-2.2492
1470261444971875,0.984167,0.0812574,-2.24914
1470261444980887,0.984094,0.0811591,-2.24917
1470261445008910,0.984021,0.0810608,-2.2492
1470261445023923,0.983484,0.0810975,-2.24912
1470261445040437,0.983427,0.0809489,-2.24909
1470261445062959,0.983354,0.0808506,-2.24912
1470261445083976,0.983533,0.081005,-2.24927
1470261445100490,0.983476,0.0808564,-2.24924
1470261445123011,0.983615,0.080812,-2.2493
1470261445144030,0.983587,0.0807831,-2.24918
1470261445168053,0.983339,0.0808682,-2.24974
1470261445183065,0.983429,0.0809745,-2.24999
1470261445204585,0.983372,0.0808259,-2.24996
1470261445220598,0.982946,0.0807564,-2.25037
1470261445243119,0.982735,0.0807025,-2.25034
1470261445264141,0.982817,0.0805095,-2.25037
1470261445281156,0.982817,0.0805095,-2.25037
1470261445303172,0.982236,0.0805344,-2.25078
1470261445327694,0.981794,0.0805147,-2.25126
1470261445340707,0.982095,0.080675,-2.25153
1470261445363228,0.982095,0.080675,-2.25153
1470261445393254,0.981779,0.0805319,-2.25188
1470261445399760,0.981337,0.0805119,-2.25235
1470261445423281,0.981317,0.0806911,-2.25266
1470261445445802,0.981695,0.0808209,-2.25266
1470261445459814,0.981695,0.0808209,-2.25266
1470261445483334,0.981062,0.0805673,-2.25279
1470261445505856,0.981062,0.0805673,-2.25279
1470261445519867,0.981006,0.0804186,-2.25276
1470261445542887,0.981006,0.0804186,-2.25276
1470261445565908,0.981072,0.0802759,-2.25285
1470261445579923,0.981072,0.0802759,-2.25285
1470261445602942,0.981072,0.0802759,-2.25285
1470261445625461,0.981015,0.0801272,-2.25282
1470261445647982,0.981015,0.0801272,-2.25282
1470261445662997,0.980943,0.0800288,-2.25285
1470261445685516,0.980943,0.0800288,-2.25285
1470261445700029,0.980887,0.0798802,-2.25282
1470261445723049,0.980887,0.0798802,-2.25282
1470261445745570,0.980814,0.0797817,-2.25285
1470261445760083,0.980814,0.0797817,-2.25285
1470261445789109,0.980758,0.0796331,-2.25282
1470261445805624,0.980758,0.0796331,-2.25282
1470261445826642,0.980758,0.0796331,-2.25282
1470261445843158,0.980686,0.0795346,-2.25286
1470261445865678,0.980686,0.0795346,-2.25286
1470261445886697,0.98084,0.0794401,-2.25285
1470261445903212,0.980767,0.0793417,-2.25288
1470261445925731,0.980767,0.0793417,-2.25288
1470261445946753,0.980629,0.079386,-2.25282
1470261445963265,0.980557,0.0792876,-2.25286
1470261445986786,0.980573,0.0792374,-2.25279
1470261446006808,0.980501,0.079139,-2.25283
1470261446023320,0.980501,0.079139,-2.25283
1470261446046841,0.980429,0.0790405,-2.25286
1470261446066860,0.980583,0.078946,-2.25286
1470261446083374,0.980583,0.078946,-2.25286
1470261446105892,0.98051,0.0788476,-2.25289
1470261446126912,0.98051,0.0788476,-2.25289
1470261446142926,0.980438,0.0787491,-2.25292
1470261446165947,0.980454,0.0786989,-2.25286
1470261446186465,0.980454,0.0786989,-2.25286
1470261446202981,0.980454,0.0786989,-2.25286
1470261446225501,0.980382,0.0786005,-2.25289
1470261446248522,0.980326,0.0784519,-2.25286
1470261446263036,0.979745,0.0785093,-2.25271
1470261446285557,0.979883,0.0784649,-2.25277
1470261446308076,0.979827,0.0783163,-2.25274
1470261446323088,0.979217,0.0782538,-2.25269
1470261446345608,0.979328,0.0781809,-2.25263
1470261446368130,0.979255,0.0780824,-2.25266
1470261446382643,0.979255,0.0780824,-2.25266
1470261446405662,0.979271,0.0780323,-2.2526
1470261446428183,0.979199,0.0779339,-2.25263
1470261446442696,0.978703,0.0781685,-2.25264
1470261446465717,0.978134,0.0783047,-2.25268
1470261446488237,0.977776,0.078495,-2.25275
1470261446502249,0.977345,0.0785867,-2.25285
1470261446525772,0.976955,0.078877,-2.25305
1470261446548291,0.976841,0.0790785,-2.25336
1470261446562806,0.976627,0.0791528,-2.25358
1470261446585825,0.976517,0.0792257,-2.25365
1470261446608344,0.975943,0.0791201,-2.25382
1470261446622357,0.975871,0.0790216,-2.25385
1470261446645880,0.975899,0.0790501,-2.25397
1470261446668399,0.975827,0.0789515,-2.254
1470261446689418,0.97513,0.0788401,-2.25405
1470261446705932,0.974325,0.0788016,-2.25416
1470261446727964,0.973723,0.0785756,-2.25442
1470261446749470,0.972968,0.0784437,-2.25468
1470261446765986,0.972461,0.0781945,-2.25494
1470261446788006,0.9717,0.0778205,-2.25532
1470261446809025,0.971062,0.0774517,-2.25583
1470261446825541,0.970497,0.0771813,-2.25631
1470261446848062,0.970069,0.0768663,-2.25684
1470261446869628,0.969409,0.0767104,-2.2571
1470261446885618,0.969366,0.0766398,-2.25726
1470261446915621,0.968861,0.0763896,-2.25752
1470261446929634,0.968065,0.0761854,-2.25794
1470261446947652,0.968009,0.0760368,-2.25791
1470261446968169,0.967871,0.0760812,-2.25785
1470261446989211,0.9673,0.0759739,-2.25801
1470261447006202,0.967257,0.0759031,-2.25817
1470261447028221,0.967229,0.0758751,-2.25804
1470261447058248,0.967201,0.0757546,-2.25814
1470261447065758,0.966564,0.0757903,-2.25821
1470261447088276,0.96569,0.0756511,-2.25836
1470261447109309,0.96569,0.0756511,-2.25836
1470261447125809,0.965706,0.0756015,-2.25829
1470261447148330,0.965706,0.0756015,-2.25829
1470261447169379,0.965634,0.0755026,-2.25833
1470261447184865,0.965634,0.0755026,-2.25833
1470261447208383,0.965634,0.0755026,-2.25833
1470261447230904,0.9657,0.0749901,-2.25829
1470261447245917,0.966084,0.0744597,-2.25821
1470261447268437,0.966198,0.0742602,-2.2579
1470261447290457,0.966213,0.0742105,-2.25783
1470261447305470,0.966142,0.0741117,-2.25787
1470261447328020,0.966142,0.0741117,-2.25787
1470261447358017,0.966142,0.0741117,-2.25787
1470261447365025,0.965591,0.0738275,-2.25772
1470261447388045,0.965536,0.0736791,-2.25769
1470261447411065,0.965536,0.0736791,-2.25769
1470261447425079,0.965464,0.0735803,-2.25772
1470261447448601,0.965039,0.0731743,-2.25745
1470261447470620,0.964374,0.0727205,-2.25749
1470261447485131,0.964374,0.0727205,-2.25749
1470261447508654,0.964483,0.0726482,-2.25742
1470261447530673,0.964483,0.0726482,-2.25742
1470261447545186,0.964428,0.0724997,-2.25739
1470261447568231,0.964172,0.0721322,-2.25764
1470261447590751,0.963928,0.071473,-2.25795
1470261447604764,0.963685,0.0708136,-2.25826
1470261447635792,0.963468,0.0702749,-2.25848
1470261447650810,0.963403,0.069769,-2.25894
1470261447665319,0.963199,0.0693075,-2.25934
1470261447688339,0.962919,0.0688188,-2.25969
1470261447710859,0.962848,0.06872,-2.25972
1470261447731901,0.962864,0.0686703,-2.25966
1470261447748394,0.962793,0.0685715,-2.25969
1470261447770912,0.962722,0.0684727,-2.25972
1470261447791931,0.962738,0.068423,-2.25966
1470261447807948,0.962668,0.0683242,-2.25969
1470261447838023,0.962597,0.0682253,-2.25972
1470261447851986,0.962613,0.0681757,-2.25966
1470261447868000,0.962542,0.0680769,-2.25969
1470261447890522,0.962542,0.0680769,-2.25969
1470261447912070,0.962487,0.0679284,-2.25966
1470261447928054,0.962487,0.0679284,-2.25966
1470261447952589,0.962417,0.0678296,-2.25969
1470261447979101,0.962802,0.0676685,-2.25974
1470261447988108,0.962789,0.0675914,-2.25955
1470261448010629,0.962747,0.0675201,-2.25971
1470261448031649,0.962747,0.0675201,-2.25971
1470261448054168,0.962677,0.0674212,-2.25974
1470261448070682,0.962664,0.0673441,-2.25955
1470261448091701,0.962692,0.0673716,-2.25968
1470261448108216,0.962622,0.0672728,-2.25971
1470261448138243,0.962551,0.0671739,-2.25974
1470261448153257,0.962539,0.0670968,-2.25955
1470261448168270,0.962606,0.0669535,-2.25964
1470261448190791,0.962606,0.0669535,-2.25964
1470261448213312,0.962551,0.066805,-2.25961
1470261448228324,0.962551,0.066805,-2.25961
1470261448250844,0.962481,0.0667062,-2.25965
1470261448273364,0.96241,0.0666074,-2.25968
1470261448287379,0.962426,0.0665577,-2.25961
1470261448310897,0.962426,0.0665577,-2.25961
1470261448340925,0.962494,0.0664144,-2.2597
1470261448347934,0.962494,0.0664144,-2.2597
1470261448370451,0.962494,0.0664144,-2.2597
1470261448392973,0.962439,0.0662659,-2.25967
1470261448407485,0.962439,0.0662659,-2.25967
1470261448431007,0.962368,0.066167,-2.25971
1470261448453025,0.962506,0.0661225,-2.25976
1470261448467539,0.962451,0.065974,-2.25973
1470261448490559,0.962423,0.0659467,-2.25961
1470261448513083,0.962353,0.0658479,-2.25964
1470261448527592,0.962353,0.0658479,-2.25964
1470261448550613,0.962353,0.0658479,-2.25964
1470261448573135,0.962506,0.0657536,-2.25964
1470261448587646,0.962298,0.0656994,-2.25961
1470261448610666,0.962436,0.0656548,-2.25967
1470261448633188,0.962366,0.065556,-2.2597
1470261448654330,0.962381,0.0655063,-2.25964
1470261448670721,0.962426,0.0658199,-2.25936
1470261448693243,0.96264,0.0659896,-2.25901
1470261448714262,0.962714,0.0659617,-2.25873
1470261448730777,0.963022,0.0661089,-2.25839
1470261448753295,0.962851,0.0660709,-2.25786
1470261448775816,0.962735,0.0661814,-2.25737
1470261448790830,0.962976,0.0661028,-2.2568
1470261448813351,0.9635,0.0660501,-2.25599
1470261448834369,0.963317,0.065935,-2.25527
1470261448850882,0.963317,0.065935,-2.25527
1470261448873404,0.963317,0.065935,-2.25527
1470261448895924,0.963246,0.0658363,-2.25531
1470261448917943,0.963262,0.0657867,-2.25524
1470261448940463,0.963191,0.065688,-2.25527
1470261448954476,0.963191,0.065688,-2.25527
1470261448970992,0.963191,0.065688,-2.25527
1470261448993011,0.96312,0.0655893,-2.25531
1470261449014532,0.96312,0.0655893,-2.25531
1470261449031549,0.963274,0.0654949,-2.2553
1470261449053065,0.963274,0.0654949,-2.2553
1470261449074083,0.963203,0.0653962,-2.25533
1470261449090598,0.963203,0.0653962,-2.25533
1470261449113120,0.963133,0.0652975,-2.25537
1470261449135639,0.963148,0.0652479,-2.2553
1470261449150652,0.963078,0.0651492,-2.25533
1470261449173172,0.963078,0.0651492,-2.25533
1470261449195692,0.963078,0.0651492,-2.25533
1470261449210723,0.963078,0.0651492,-2.25533
1470261449233726,0.963007,0.0650505,-2.25537
1470261449255746,0.963023,0.0650009,-2.2553
1470261449270259,0.962952,0.0649022,-2.25533
1470261449293279,0.962952,0.0649022,-2.25533
1470261449315803,0.962575,0.06453,-2.25546
1470261449330314,0.962591,0.0644804,-2.2554
1470261449353334,0.962591,0.0644804,-2.2554
1470261449375854,0.962521,0.0643817,-2.25543
1470261449389867,0.962521,0.0643817,-2.25543
1470261449413390,0.962658,0.0643369,-2.25549
1470261449435907,0.961827,0.0640279,-2.2556
1470261449449925,0.961772,0.0638796,-2.25557
1470261449473445,0.961839,0.063736,-2.25566
1470261449495962,0.961839,0.063736,-2.25566
1470261449509974,0.961784,0.0635877,-2.25563
1470261449533496,0.961122,0.0635034,-2.25579
1470261449555516,0.960416,0.0634412,-2.2559
1470261449570029,0.960554,0.0633964,-2.25596
1470261449593049,0.960483,0.0632976,-2.25599
1470261449616070,0.960499,0.0632481,-2.25593
1470261449637093,0.960429,0.0631493,-2.25596
1470261449653604,0.960567,0.0631045,-2.25602
1470261449675623,0.960121,0.0630021,-2.2563
1470261449696644,0.96005,0.0629033,-2.25634
1470261449713159,0.960066,0.0628538,-2.25627
1470261449735677,0.959996,0.062755,-2.2563
1470261449756729,0.959996,0.062755,-2.2563
1470261449773211,0.960115,0.0625174,-2.25655
1470261449795736,0.960115,0.0625174,-2.25655
1470261449816768,0.96006,0.0623691,-2.25652
1470261449833265,0.96006,0.0623691,-2.25652
1470261449855786,0.95999,0.0622704,-2.25655
1470261449876805,0.960237,0.0621535,-2.25654
1470261449893321,0.960167,0.0620547,-2.25657
1470261449915840,0.960167,0.0620547,-2.25657
1470261449936858,0.960097,0.061956,-2.25661
1470261449953373,0.960112,0.0619064,-2.25654
1470261449975893,0.960042,0.0618077,-2.25657
1470261449996412,0.960042,0.0618077,-2.25657
1470261450012927,0.959972,0.061709,-2.25661
1470261450035951,0.959987,0.0616594,-2.25654
1470261450048960,0.960055,0.0615158,-2.25663
1470261450063474,0.960055,0.0615158,-2.25663
1470261450078485,0.96,0.0613675,-2.2566
1470261450101005,0.96,0.0613675,-2.2566
1470261450123527,0.95993,0.0612687,-2.25663
1470261450138540,0.95993,0.0612687,-2.25663
1470261450164066,0.959896,0.0611868,-2.25617
1470261450184079,0.959826,0.0610881,-2.2562
1470261450198595,0.959935,0.0610161,-2.25614
1470261450221112,0.959886,0.0609838,-2.25573
1470261450246640,0.960139,0.0609827,-2.25536
1470261450258647,0.960321,0.0608829,-2.25501
1470261450281171,0.960343,0.0609492,-2.25458
1470261450303687,0.96048,0.0609042,-2.25464
1470261450318701,0.96041,0.0608055,-2.25467
1470261450341221,0.960785,0.0608089,-2.25441
1470261450363743,0.960785,0.0608089,-2.25441
1470261450378754,0.960596,0.0609479,-2.2542
1470261450401275,0.960229,0.0609341,-2.25383
1470261450423795,0.959561,0.0608896,-2.25344
1470261450438808,0.95914,0.0610966,-2.25317
1470261450461329,0.959085,0.0609484,-2.25314
1470261450492357,0.958517,0.060842,-2.25331
1470261450498866,0.957648,0.0607046,-2.25344
1470261450521382,0.95686,0.0604999,-2.25386
1470261450543903,0.955851,0.0601647,-2.25406
1470261450558917,0.955365,0.059622,-2.25438
1470261450583939,0.955601,0.0593026,-2.25394
1470261450603456,0.956675,0.0592821,-2.25277
1470261450618684,0.95748,0.0596559,-2.25065
1470261450640990,0.957361,0.0596821,-2.24935
1470261450664012,0.956681,0.0595631,-2.24877
1470261450687533,0.956027,0.0595976,-2.24857
1470261450701043,0.955915,0.059796,-2.24888
1470261450723564,0.955842,0.0598232,-2.24916
1470261450740078,0.956704,0.0598422,-2.2494
1470261450761097,0.957535,0.0599602,-2.24975
1470261450783618,0.958407,0.059814,-2.25029
1470261450800135,0.958683,0.0595352,-2.25087
1470261450821152,0.959059,0.0593825,-2.25155
1470261450843672,0.959358,0.0591707,-2.2517
1470261450860188,0.959287,0.0590721,-2.25173
1470261450882707,0.959685,0.0589862,-2.25197
1470261450903725,0.959971,0.0590664,-2.25206
1470261450920240,0.960456,0.058997,-2.25174
1470261450941259,0.960844,0.0590766,-2.25167
1470261450965283,0.960844,0.0590766,-2.25167
1470261450981299,0.961152,0.0592231,-2.25133
1470261451001315,0.96172,0.0593288,-2.25116
1470261451024835,0.961649,0.0592302,-2.2512
1470261451041349,0.961774,0.0591082,-2.25107
1470261451060866,0.961774,0.0591082,-2.25107
1470261451083388,0.961704,0.0590097,-2.2511
1470261451108910,0.962186,0.0590664,-2.25103
1470261451120921,0.962186,0.0590664,-2.25103
1470261451143941,0.962131,0.0589182,-2.251
1470261451168964,0.962131,0.0589182,-2.251
1470261451180979,0.962269,0.0588731,-2.25106
1470261451203495,0.961719,0.05896,-2.25104
1470261451221512,0.961475,0.0589511,-2.25079
1470261451241029,0.961462,0.0588742,-2.25061
1470261451264052,0.960928,0.0589117,-2.25052
1470261451281568,0.96012,0.0590398,-2.25032
1470261451301083,0.959609,0.058956,-2.25027
1470261451326605,0.959211,0.0587062,-2.25037
1470261451341619,0.959606,0.0587137,-2.25039
1470261451361137,0.960504,0.0588769,-2.25038
1470261451391163,0.960504,0.0588769,-2.25038
1470261451401675,0.960434,0.0587784,-2.25041
1470261451421192,0.960729,0.0588479,-2.24987
1470261451443712,0.961191,0.0588992,-2.24953
1470261451461727,0.961743,0.059054,-2.24943
1470261451481246,0.962325,0.0592361,-2.24945
1470261451503765,0.962296,0.0592087,-2.24933
1470261451521280,0.962226,0.0591103,-2.24936
1470261451541298,0.962363,0.059065,-2.24942
1470261451563819,0.962363,0.059065,-2.24942
1470261451581836,0.962608,0.0590739,-2.24966
1470261451602353,0.963036,0.0593509,-2.24969
1470261451623371,0.963173,0.0593057,-2.24975
1470261451641389,0.963197,0.0595533,-2.2499
1470261451668912,0.963474,0.0598318,-2.25015
1470261451683926,0.963623,0.0599571,-2.25018
1470261451701442,0.963993,0.0602129,-2.25042
1470261451722461,0.964418,0.060617,-2.25069
1470261451743980,0.964526,0.0610403,-2.251
1470261451761496,0.964468,0.0613879,-2.25135
1470261451782517,0.964604,0.0618387,-2.25178
1470261451803534,0.964558,0.0623569,-2.25209
1470261451821550,0.964124,0.0627019,-2.25269
1470261451842569,0.963761,0.0631453,-2.25326
1470261451864089,0.963052,0.0635797,-2.25374
1470261451881607,0.962747,0.0640443,-2.25409
1470261451902623,0.962125,0.0645272,-2.25448
1470261451923641,0.961306,0.0650331,-2.25503
1470261451941659,0.960919,0.0656903,-2.25535
1470261451964181,0.960473,0.0663256,-2.25589
1470261451991203,0.959671,0.0667811,-2.25638
1470261452001712,0.958911,0.0673076,-2.25671
1470261452024231,0.958289,0.0677892,-2.2571
1470261452043749,0.957416,0.0681449,-2.25762
1470261452061765,0.956955,0.0684595,-2.2581
1470261452084288,0.957199,0.0688375,-2.25847
1470261452103803,0.957619,0.069,-2.25887
1470261452121319,0.958284,0.0691722,-2.25951
1470261452143840,0.959253,0.0692505,-2.25992
1470261452163859,0.959253,0.0692505,-2.25992
1470261452188881,0.959253,0.0692505,-2.25992
1470261452203893,0.959269,0.069201,-2.25986
1470261452223410,0.959198,0.0691021,-2.25989
1470261452241427,0.959198,0.0691021,-2.25989
1470261452263950,0.959128,0.0690031,-2.25992
1470261452283965,0.959034,0.0690257,-2.25993
1470261452301481,0.958717,0.0690433,-2.25997
1470261452324001,0.9575,0.0690817,-2.25956
1470261452343519,0.954721,0.0692765,-2.25891
1470261452361534,0.952396,0.0691679,-2.25841
1470261452384056,0.95101,0.0692995,-2.25773
1470261452406575,0.950537,0.0693589,-2.25743
1470261452421589,0.950655,0.0691201,-2.25767
1470261452444110,0.952103,0.0686016,-2.25856
1470261452464128,0.953791,0.0688712,-2.25939
1470261452481645,0.954958,0.0695373,-2.25965
1470261452504163,0.953791,0.0688712,-2.25939
1470261452523681,0.951463,0.0677828,-2.25875
1470261452540696,0.951566,0.0679425,-2.25766
1470261452563216,0.95215,0.0685285,-2.25663
1470261452584736,0.951997,0.0684445,-2.25605
1470261452600750,0.950213,0.0673999,-2.25567
1470261452623271,0.948607,0.0661399,-2.25532
1470261452661304,0.947283,0.0656448,-2.25497
1470261452663808,0.946282,0.0660801,-2.25426
1470261452683324,0.945284,0.0664226,-2.25376
1470261452704342,0.944305,0.0667675,-2.25355
1470261452720857,0.944687,0.0672592,-2.25305
1470261452743378,0.945171,0.0669056,-2.2534
1470261452765901,0.946278,0.0656612,-2.25379
1470261452784419,0.948152,0.0656584,-2.25458
1470261452803432,0.948376,0.0662081,-2.25526
1470261452824450,0.946643,0.0665841,-2.255
1470261452839964,0.945184,0.0665027,-2.25473
1470261452863486,0.944412,0.0661655,-2.25428
1470261452885507,0.944792,0.0662894,-2.25365
1470261452900519,0.944812,0.0664841,-2.25347
1470261452930548,0.944113,0.066297,-2.25333
1470261452945559,0.943369,0.0661623,-2.25359
1470261452968080,0.943385,0.0661137,-2.25353
1470261452983094,0.943452,0.0659694,-2.25362
1470261453005613,0.943032,0.0663033,-2.2536
1470261453020626,0.943032,0.0663033,-2.2536
1470261453049653,0.942961,0.0662042,-2.25364
1470261453065667,0.942824,0.0662493,-2.25358
1470261453080182,0.942276,0.0660928,-2.25368
1470261453103201,0.941769,0.0660084,-2.25363
1470261453125721,0.941119,0.0660435,-2.25343
1470261453140233,0.940827,0.0661328,-2.25304
1470261453163256,0.940165,0.0660928,-2.25266
1470261453185776,0.940165,0.0660928,-2.25266
1470261453200289,0.939968,0.0660345,-2.25201
1470261453223308,0.940057,0.0655937,-2.25153
1470261453246330,0.940742,0.0653368,-2.25136
1470261453260342,0.941831,0.0651615,-2.25138
1470261453283363,0.941831,0.0651615,-2.25138
1470261453305883,0.941967,0.0654034,-2.25077
1470261453319896,0.941841,0.0654439,-2.25009
1470261453343416,0.942059,0.065125,-2.24936
1470261453365940,0.942623,0.0655188,-2.24852
1470261453386955,0.943025,0.0654694,-2.24758
1470261453402970,0.942901,0.0658775,-2.24703
1470261453425990,0.942609,0.0655996,-2.24651
1470261453447010,0.942683,0.0655743,-2.24623
1470261453463526,0.942699,0.0655258,-2.24617
1470261453485543,0.943072,0.0651619,-2.24578
1470261453507063,0.943895,0.0652251,-2.24579
1470261453530586,0.943866,0.0651979,-2.24567
1470261453545598,0.943311,0.065579,-2.2456
1470261453566617,0.94324,0.06548,-2.24563
1470261453583134,0.94423,0.0654935,-2.24535
1470261453605652,0.945286,0.0653622,-2.24517
1470261453626671,0.945438,0.0652681,-2.24517
1470261453643186,0.945367,0.0651692,-2.2452
1470261453665708,0.945296,0.0650703,-2.24523
1470261453686724,0.945313,0.0650216,-2.24517
1470261453703240,0.945313,0.0650216,-2.24517
1470261453725760,0.945911,0.064712,-2.24508
1470261453747280,0.946641,0.0648919,-2.24488
1470261453770800,0.947104,0.0653133,-2.24466
1470261453785816,0.947287,0.0652144,-2.24431
1470261453806832,0.94783,0.0646742,-2.24339
1470261453823348,0.948673,0.0649728,-2.24267
1470261453845868,0.948879,0.0645747,-2.24176
1470261453868389,0.94888,0.0644916,-2.24096
1470261453883402,0.949114,0.0645307,-2.23975
1470261453905921,0.94997,0.0644522,-2.23828
1470261453928442,0.951245,0.0649382,-2.23678
1470261453943456,0.953011,0.0657179,-2.23509
1470261453965478,0.953663,0.06702,-2.23336
1470261453988495,0.9534,0.0698107,-2.2322
1470261454002509,0.95331,0.0731188,-2.23106
1470261454025529,0.953429,0.0763276,-2.22984
1470261454048551,0.954006,0.0789342,-2.22882
1470261454062562,0.954597,0.0805126,-2.22788
1470261454086083,0.955656,0.0820998,-2.22714
1470261454108102,0.956605,0.0831508,-2.22673
1470261454129623,0.95744,0.0839072,-2.22626
1470261454145637,0.958232,0.0845177,-2.22602
1470261454168657,0.958807,0.0851128,-2.22623
1470261454182670,0.959337,0.0855625,-2.22668
1470261454205690,0.960128,0.0856784,-2.22737
1470261454228712,0.961073,0.0856244,-2.22814
1470261454242725,0.962635,0.0855385,-2.22944
1470261454265746,0.964735,0.0851193,-2.23088
1470261454296274,0.968291,0.0841603,-2.23259
1470261454302778,0.973499,0.0833337,-2.23365
1470261454325799,0.977736,0.0836874,-2.23426
1470261454348821,0.977158,0.0852457,-2.23524
1470261454369339,0.974312,0.0859535,-2.23649
1470261454385853,0.97566,0.0861507,-2.23689
1470261454408372,0.977389,0.0866722,-2.23642
1470261454436898,0.977868,0.0872519,-2.23589
1470261454445907,0.977158,0.0875661,-2.23612
1470261454468427,0.976476,0.0879096,-2.23648
1470261454489444,0.976865,0.0887769,-2.23673
1470261454505459,0.976391,0.0893912,-2.23715
1470261454528480,0.975756,0.0896404,-2.23766
1470261454549499,0.975474,0.0899324,-2.2377
1470261454566015,0.974466,0.0900888,-2.23767
1470261454588534,0.973429,0.0901267,-2.23773
1470261454609552,0.973176,0.0905373,-2.23768
1470261454626068,0.972501,0.0907517,-2.23779
1470261454655594,0.972118,0.0907526,-2.23805
1470261454669607,0.972118,0.0907526,-2.23805
1470261454685621,0.971369,0.0907049,-2.2385
1470261454708142,0.969683,0.0905416,-2.23877
1470261454729662,0.968495,0.0905094,-2.23914
1470261454745675,0.96749,0.0905014,-2.23942
1470261454771199,0.966257,0.0905632,-2.23964
1470261454790717,0.965243,0.0898154,-2.23966
1470261454805730,0.965323,0.0896227,-2.23969
1470261454828750,0.965699,0.0894174,-2.23899
1470261454850775,0.964503,0.089583,-2.23823
1470261454865785,0.961804,0.0899027,-2.23757
1470261454888304,0.961804,0.0899027,-2.23757
1470261454910825,0.962675,0.0898286,-2.23699
1470261454924837,0.961676,0.089603,-2.23594
1470261454948359,0.960353,0.0895261,-2.23518
1470261454970878,0.96086,0.0890732,-2.2354
1470261454985391,0.961056,0.0882742,-2.23581
1470261455008411,0.962173,0.0877507,-2.23583
1470261455030934,0.96308,0.0878346,-2.2359
1470261455044944,0.961646,0.0873887,-2.23646
1470261455075974,0.960003,0.0868886,-2.23699
1470261455090985,0.96014,0.0868433,-2.23705
1470261455104998,0.959453,0.0864456,-2.23716
1470261455128019,0.959002,0.0855206,-2.23768
1470261455151039,0.957886,0.0845686,-2.23871
1470261455165554,0.957619,0.0840488,-2.24016
1470261455201587,0.957284,0.0828836,-2.24092
1470261455210594,0.957161,0.0823063,-2.24154
1470261455225107,0.955509,0.082345,-2.24251
1470261455248629,0.954381,0.0820475,-2.24335
1470261455270648,0.956049,0.081807,-2.24351
1470261455291666,0.958206,0.0820293,-2.24317
1470261455308181,0.959141,0.0816885,-2.24243
1470261455330704,0.958857,0.0811152,-2.24196
1470261455351719,0.957964,0.0806108,-2.24171
1470261455368236,0.957755,0.0805572,-2.24168
1470261455390756,0.957781,0.0802559,-2.24112
1470261455412274,0.957708,0.0801571,-2.24115
1470261455428289,0.957446,0.0797905,-2.2414
1470261455450809,0.957373,0.0796918,-2.24143
1470261455471827,0.956955,0.0794938,-2.24159
1470261455488343,0.955901,0.0793359,-2.24184
1470261455510863,0.955652,0.0790859,-2.24171
1470261455531882,0.955652,0.0790859,-2.24171
1470261455548399,0.95558,0.0789871,-2.24174
1470261455570918,0.955717,0.0789419,-2.2418
1470261455591936,0.954949,0.0788613,-2.24213
1470261455608452,0.953888,0.07846,-2.24249
1470261455630972,0.953266,0.078042,-2.24294
1470261455651988,0.952941,0.0777783,-2.24366
1470261455669006,0.952287,0.0774572,-2.24422
1470261455691024,0.952143,0.0772186,-2.24484
1470261455712043,0.95216,0.0771699,-2.24478
1470261455728057,0.95216,0.0771699,-2.24478
1470261455750578,0.952088,0.077071,-2.24481
1470261455773098,0.952088,0.077071,-2.24481
1470261455788112,0.951486,0.0769718,-2.24532
1470261455810632,0.951135,0.0766791,-2.24591
1470261455833152,0.950999,0.0766832,-2.24641
1470261455848169,0.950943,0.0765355,-2.24638
1470261455870685,0.950943,0.0765355,-2.24638
1470261455893208,0.950872,0.0764366,-2.24641
1470261455907722,0.950872,0.0764366,-2.24641
1470261455930741,0.951008,0.0763914,-2.24647
1470261455953260,0.951102,0.076326,-2.24702
1470261455967773,0.951512,0.0762415,-2.24753
1470261455990795,0.951819,0.0761048,-2.24786
1470261456013317,0.952617,0.0761413,-2.24775
1470261456027827,0.953055,0.0761259,-2.24783
1470261456050847,0.953092,0.0759539,-2.24779
1470261456073369,0.953108,0.0759051,-2.24773
1470261456087880,0.952928,0.0758791,-2.24783
1470261456110901,0.953261,0.0758626,-2.24806
1470261456133423,0.953509,0.0757041,-2.24861
1470261456154497,0.953893,0.0755007,-2.24922
1470261456170955,0.954358,0.0751968,-2.24964
1470261456193476,0.954275,0.075021,-2.24948
1470261456207487,0.954275,0.075021,-2.24948
1470261456231010,0.955166,0.0753909,-2.24859
1470261456253544,0.957667,0.075541,-2.24754
1470261456274548,0.959788,0.0758519,-2.24644
1470261456291062,0.961241,0.0758379,-2.24563
1470261456313583,0.961821,0.0756891,-2.24496
1470261456334602,0.960853,0.0756179,-2.24455
1470261456350617,0.959806,0.0757401,-2.24412
1470261456373137,0.959552,0.075655,-2.24369
1470261456394689,0.959689,0.0756098,-2.24375
1470261456410670,0.959689,0.0756098,-2.24375
1470261456433242,0.959689,0.0756098,-2.24375
1470261456454760,0.960208,0.0754396,-2.2433
1470261456470724,0.960833,0.0753224,-2.24304
1470261456500752,0.960833,0.0753224,-2.24304
1470261456514768,0.960805,0.0752941,-2.24291
1470261456530781,0.960693,0.0749985,-2.24285
1470261456553300,0.959917,0.0746234,-2.24296
1470261456574317,0.959845,0.0745248,-2.24299
1470261456590832,0.960369,0.0742419,-2.24319
1470261456613355,0.961986,0.0738542,-2.24333
1470261456634392,0.963027,0.0735277,-2.24333
1470261456650885,0.962362,0.073448,-2.2435
1470261456673407,0.96062,0.0730551,-2.24354
1470261456695927,0.96062,0.0730551,-2.24354
1470261456710940,0.960548,0.0729565,-2.24357
1470261456733461,0.960548,0.0729565,-2.24357
1470261456755980,0.96029,0.0729978,-2.24339
1470261456770995,0.959614,0.0728407,-2.24337
1470261456793516,0.959124,0.0725436,-2.24357
1470261456816035,0.959124,0.0725436,-2.24357
1470261456830550,0.959124,0.0725436,-2.24357
1470261456853068,0.959069,0.0723958,-2.24354
1470261456875588,0.960059,0.0721641,-2.24339
1470261456890101,0.960059,0.0721641,-2.24339
1470261456913624,0.959497,0.0718074,-2.24306
1470261456941647,0.959497,0.0718074,-2.24306
1470261456950156,0.959634,0.0717622,-2.24311
1470261456973175,0.959634,0.0717622,-2.24311
1470261456995696,0.958886,0.0715066,-2.24313
1470261457010209,0.957838,0.0712219,-2.24312
1470261457033229,0.957284,0.0710688,-2.24322
1470261457056250,0.957228,0.070921,-2.24319
1470261457070263,0.957228,0.070921,-2.24319
1470261457093283,0.956744,0.0709063,-2.24271
1470261457115804,0.955819,0.071034,-2.24239
1470261457130319,0.955633,0.0711746,-2.24218
1470261457153337,0.955649,0.0711256,-2.24212
1470261457175857,0.956214,0.0713554,-2.2422
1470261457196879,0.956351,0.07131,-2.24226
1470261457219398,0.956323,0.0712821,-2.24214
1470261457235911,0.956323,0.0712821,-2.24214
1470261457256957,0.956251,0.0711834,-2.24217
1470261457273444,0.956251,0.0711834,-2.24217
1470261457295965,0.956196,0.0710357,-2.24214
1470261457316990,0.956196,0.0710357,-2.24214
1470261457333499,0.956196,0.0710357,-2.24214
1470261457356020,0.956196,0.0710357,-2.24214
1470261457377049,0.956124,0.0709371,-2.24217
1470261457393052,0.956261,0.0708917,-2.24223
1470261457416074,0.956261,0.0708917,-2.24223
1470261457437092,0.956277,0.0708427,-2.24217
1470261457453106,0.956205,0.070744,-2.2422
1470261457475626,0.956205,0.070744,-2.2422
1470261457497145,0.956205,0.070744,-2.2422
1470261457513662,0.955832,0.0706164,-2.2422
1470261457535682,0.955262,0.0705125,-2.24237
1470261457557201,0.955278,0.0704635,-2.24231
1470261457573214,0.955207,0.0703648,-2.24234
1470261457595734,0.955344,0.0703194,-2.2424
1470261457617254,0.955207,0.0703648,-2.24234
1470261457632771,0.955344,0.0703194,-2.2424
1470261457655789,0.955403,0.0703412,-2.24218
1470261457684316,0.955924,0.0705402,-2.24186
1470261457693321,0.955781,0.0707515,-2.24149
1470261457715843,0.955726,0.0706039,-2.24146
1470261457738362,0.955726,0.0706039,-2.24146
1470261457753376,0.955654,0.0705052,-2.24149
1470261457775896,0.955682,0.0705331,-2.24162
1470261457798419,0.955682,0.0705331,-2.24162
1470261457803921,0.95561,0.0704345,-2.24165
1470261457819936,0.956047,0.0704578,-2.24118
1470261457841454,0.956123,0.0704305,-2.2409
1470261457863975,0.955885,0.0702976,-2.24041
1470261457880491,0.955768,0.0701683,-2.24004
1470261457901508,0.95596,0.0703103,-2.23957
1470261457923586,0.956135,0.0704494,-2.23883
1470261457940043,0.955905,0.0705596,-2.23822
1470261457961078,0.955671,0.0707957,-2.23786
1470261457983584,0.955414,0.0708381,-2.23768
1470261458000098,0.954932,0.070785,-2.23776
1470261458021116,0.954543,0.0707071,-2.23782
1470261458043637,0.954499,0.0706365,-2.23798
1470261458061654,0.954499,0.0706365,-2.23798
1470261458081172,0.954471,0.0706085,-2.23785
1470261458103690,0.95411,0.0705585,-2.23805
1470261458120206,0.95411,0.0705585,-2.23805
1470261458141224,0.954054,0.0704111,-2.23802
1470261458163746,0.954054,0.0704111,-2.23802
1470261458180262,0.954054,0.0704111,-2.23802
1470261458208786,0.953982,0.0703125,-2.23805
1470261458223799,0.953982,0.0703125,-2.23805
1470261458241815,0.953926,0.070165,-2.23802
1470261458261331,0.953926,0.070165,-2.23802
1470261458291860,0.954227,0.0701932,-2.23804
1470261458300366,0.954364,0.0701476,-2.2381
1470261458328892,0.954364,0.0701476,-2.2381
1470261458343906,0.953657,0.0700902,-2.23821
1470261458359945,0.953958,0.0701184,-2.23823
1470261458381440,0.954577,0.0701261,-2.23821
1470261458406983,0.954713,0.0700804,-2.23827
1470261458420008,0.953979,0.0699035,-2.23848
1470261458441512,0.953547,0.0697548,-2.2387
1470261458464015,0.953475,0.0696561,-2.23873
1470261458480029,0.953475,0.0696561,-2.23873
1470261458504050,0.953228,0.0693662,-2.23917
1470261458526570,0.952478,0.0692377,-2.23943
1470261458541584,0.951785,0.0692564,-2.23972
1470261458562102,0.951785,0.0692564,-2.23972
1470261458583621,0.952112,0.0693536,-2.23932
1470261458607645,0.952039,0.0692959,-2.23879
1470261458624158,0.951923,0.0691674,-2.23842
1470261458643675,0.951894,0.0690888,-2.23796
1470261458661691,0.952151,0.0690871,-2.23758
1470261458682713,0.952691,0.0691621,-2.23729
1470261458703729,0.952691,0.0691621,-2.23729
1470261458721746,0.95262,0.0690635,-2.23732
1470261458755276,0.953402,0.069053,-2.23749
1470261458764786,0.953603,0.0689546,-2.23742
1470261458781801,0.953619,0.0689058,-2.23736
1470261458801318,0.953531,0.068805,-2.23712
1470261458823836,0.953579,0.0687501,-2.23671
1470261458841853,0.953952,0.0688767,-2.2367
1470261458861371,0.954325,0.0690032,-2.2367
1470261458883892,0.954943,0.0690103,-2.23668
1470261458901909,0.954943,0.0690103,-2.23668
1470261458921424,0.954943,0.0690103,-2.23668
1470261458943944,0.954871,0.0689118,-2.23671
1470261458961460,0.955024,0.0688172,-2.23671
1470261458981480,0.954815,0.0687644,-2.23668
1470261459003999,0.954699,0.0686355,-2.23631
1470261459021514,0.954462,0.0685036,-2.23582
1470261459044536,0.954352,0.0686177,-2.23534
1470261459063559,0.95485,0.0686213,-2.2352
1470261459082070,0.955971,0.0684658,-2.23536
1470261459101095,0.957077,0.0683593,-2.23558
1470261459123607,0.957077,0.0683593,-2.23558
1470261459141624,0.957077,0.0683593,-2.23558
1470261459161641,0.956868,0.0683067,-2.23555
1470261459183660,0.957532,0.0678497,-2.23556
1470261459201679,0.957548,0.0678007,-2.2355
1470261459222695,0.957548,0.0678007,-2.2355
1470261459243715,0.957476,0.0677022,-2.23553
1470261459261747,0.957476,0.0677022,-2.23553
1470261459282752,0.957476,0.0677022,-2.23553
1470261459311277,0.957673,0.0676778,-2.23537
1470261459321800,0.957738,0.0675336,-2.23546
1470261459342806,0.957738,0.0675336,-2.23546
1470261459371328,0.957738,0.0675336,-2.23546
1470261459381841,0.957738,0.0675336,-2.23546
1470261459404360,0.95812,0.0673683,-2.23552
1470261459423877,0.958048,0.0672699,-2.23555
1470261459441894,0.958048,0.0672699,-2.23555
1470261459469948,0.958048,0.0672699,-2.23555
1470261459486933,0.958048,0.0672699,-2.23555
1470261459501959,0.958346,0.0669291,-2.23544
1470261459524466,0.958845,0.0669326,-2.23531
1470261459543983,0.958845,0.0669326,-2.23531
1470261459561500,0.958773,0.0668343,-2.23534
1470261459584019,0.958773,0.0668343,-2.23534
1470261459603537,0.958701,0.0667359,-2.23537
1470261459621554,0.958717,0.0666868,-2.23531
1470261459644074,0.958717,0.0666868,-2.23531
1470261459664093,0.958717,0.0666868,-2.23531
1470261459681610,0.958645,0.0665884,-2.23534
1470261459704127,0.958645,0.0665884,-2.23534
1470261459723645,0.958645,0.0665884,-2.23534
1470261459741661,0.958573,0.06649,-2.23537
1470261459764185,0.958573,0.06649,-2.23537
1470261459783698,0.958617,0.0664688,-2.23543
1470261459801715,0.958517,0.0663425,-2.23534
1470261459824237,0.958517,0.0663425,-2.23534
1470261459843753,0.958517,0.0663425,-2.23534
1470261459861771,0.958517,0.0663425,-2.23534
1470261459884335,0.958445,0.0662442,-2.23537
1470261459903866,0.958762,0.066223,-2.23533
1470261459921828,0.959217,0.066156,-2.23536
1470261459944356,0.959463,0.0660365,-2.23535
1470261459963862,0.959752,0.0659873,-2.23519
1470261459981878,0.959752,0.0659873,-2.23519
1470261460004396,0.95968,0.065889,-2.23522
1470261460025416,0.95968,0.065889,-2.23522
1470261460041931,0.959833,0.065794,-2.23522
1470261460064453,0.959938,0.0658466,-2.2354
1470261460083969,0.960312,0.0659729,-2.23539
1470261460101484,0.960437,0.0658499,-2.23526
1470261460124006,0.960365,0.0657516,-2.2353
1470261460147026,0.960365,0.0657516,-2.2353
1470261460161547,0.960365,0.0657516,-2.2353
1470261460190107,0.960293,0.0656533,-2.23533
1470261460205080,0.960309,0.0656041,-2.23526
1470261460221592,0.960309,0.0656041,-2.23526
1470261460244114,0.960309,0.0656041,-2.23526
1470261460265634,0.960374,0.06546,-2.23536
1470261460281650,0.960196,0.0658042,-2.23558
1470261460304166,0.960124,0.0657059,-2.23561
1470261460324685,0.960124,0.0657059,-2.23561
1470261460341199,0.96014,0.0656567,-2.23555
1470261460363221,0.960068,0.0655584,-2.23558
1470261460384240,0.960068,0.0655584,-2.23558
1470261460400754,0.960068,0.0655584,-2.23558
1470261460430782,0.960068,0.0655584,-2.23558
1470261460444795,0.960068,0.0655584,-2.23558
1470261460466815,0.959996,0.06546,-2.23561
1470261460483830,0.960511,0.0654142,-2.23542
1470261460513357,0.960482,0.0653863,-2.23529
1470261460520861,0.959742,0.0653761,-2.23518
1470261460550888,0.959319,0.0653448,-2.23504
1470261460565901,0.959319,0.0653448,-2.23504
1470261460580916,0.959693,0.0654711,-2.23503
1470261460603436,0.95983,0.0654253,-2.23509
1470261460625955,0.95983,0.0654253,-2.23509
1470261460640468,0.959774,0.0652777,-2.23506
1470261460663491,0.959774,0.0652777,-2.23506
1470261460686009,0.960184,0.0652319,-2.23502
1470261460700022,0.960184,0.0652319,-2.23502
1470261460723043,0.960184,0.0652319,-2.23502
1470261460745563,0.960112,0.0651336,-2.23505
1470261460760076,0.960112,0.0651336,-2.23505
1470261460783597,0.960112,0.0651336,-2.23505
1470261460806116,0.960128,0.0650844,-2.23499
1470261460820130,0.960056,0.0649861,-2.23502
1470261460843153,0.960193,0.0649403,-2.23508
1470261460866172,0.960193,0.0649403,-2.23508
1470261460880185,0.960193,0.0649403,-2.23508
1470261460903204,0.960121,0.064842,-2.23511
1470261460925727,0.960121,0.064842,-2.23511
1470261460940238,0.960137,0.0647928,-2.23505
1470261460963259,0.960065,0.0646945,-2.23508
1470261460985778,0.960065,0.0646945,-2.23508
1470261461014330,0.960065,0.0646945,-2.23508
1470261461024845,0.959994,0.0645962,-2.23511
1470261461045832,0.960866,0.0647257,-2.23497
1470261461068354,0.961791,0.0651292,-2.23511
1470261461083370,0.962149,0.0653048,-2.23516
1470261461106387,0.962149,0.0653048,-2.23516
1470261461126921,0.961404,0.0654211,-2.2353
1470261461143420,0.96079,0.0652491,-2.23562
1470261461168443,0.960226,0.0653898,-2.23566
1470261461186959,0.959691,0.0655583,-2.23583
1470261461203974,0.95912,0.0654564,-2.236
1470261461225994,0.959048,0.0653581,-2.23603
1470261461247022,0.959048,0.0653581,-2.23603
1470261461263529,0.959048,0.0653581,-2.23603
1470261461286049,0.958369,0.0653297,-2.23626
1470261461307067,0.958297,0.0652313,-2.23629
1470261461323581,0.958297,0.0652313,-2.23629
1470261461346102,0.958241,0.0650838,-2.23626
1470261461367120,0.958241,0.0650838,-2.23626
1470261461383636,0.958241,0.0650838,-2.23626
1470261461406156,0.958241,0.0650838,-2.23626
1470261461428175,0.95817,0.0649854,-2.23629
1470261461443189,0.95817,0.0649854,-2.23629
1470261461465709,0.95817,0.0649854,-2.23629
1470261461488232,0.958126,0.0649149,-2.23644
1470261461503244,0.958142,0.0648658,-2.23638
1470261461525798,0.958142,0.0648658,-2.23638
1470261461550287,0.958042,0.0647396,-2.23629
1470261461562796,0.95807,0.0647674,-2.23641
1470261461585817,0.95807,0.0647674,-2.23641
1470261461608337,0.958014,0.0646199,-2.23638
1470261461622850,0.958014,0.0646199,-2.23638
1470261461653407,0.958014,0.0646199,-2.23638
1470261461674400,0.957943,0.0645215,-2.23641
1470261461682907,0.958244,0.0645496,-2.23644
1470261461705925,0.958244,0.0645496,-2.23644
1470261461735952,0.958172,0.0644512,-2.23647
1470261461742957,0.958172,0.0644512,-2.23647
1470261461768483,0.958172,0.0644512,-2.23647
1470261461788500,0.958172,0.0644512,-2.23647
1470261461802513,0.9581,0.0643529,-2.2365
1470261461826032,0.958116,0.0643037,-2.23644
1470261461848055,0.958045,0.0642053,-2.23647
1470261461862566,0.957936,0.0642789,-2.23653
1470261461886087,0.957864,0.0641806,-2.23656
1470261461908606,0.958001,0.0641347,-2.23662
1470261461929125,0.958017,0.0640856,-2.23656
1470261461945640,0.957945,0.0639872,-2.23659
1470261461968660,0.957808,0.064033,-2.23653
1470261461989679,0.957808,0.064033,-2.23653
1470261462006194,0.957989,0.0640578,-2.23644
1470261462028215,0.958261,0.0640057,-2.236
1470261462049238,0.958261,0.0640057,-2.236
1470261462066249,0.958694,0.0641534,-2.23578
1470261462088268,0.959432,0.0642029,-2.23533
1470261462109288,0.960606,0.0643605,-2.23522
1470261462131816,0.961479,0.06449,-2.23508
1470261462148324,0.961916,0.0645107,-2.23461
1470261462176906,0.962173,0.0645068,-2.23423
1470261462185856,0.962574,0.0646992,-2.2338
1470261462214885,0.962698,0.0646144,-2.23312
1470261462229409,0.962664,0.0646982,-2.23235
1470261462245910,0.962566,0.0649261,-2.23149
1470261462268931,0.962939,0.0650899,-2.23093
1470261462289449,0.963281,0.0652609,-2.23071
1470261462305984,0.963209,0.0651628,-2.23074
1470261462328483,0.963261,0.0654751,-2.23047
1470261462351003,0.962922,0.0656583,-2.22992
1470261462372024,0.961891,0.0657385,-2.22942
1470261462388538,0.96142,0.0658034,-2.22912
1470261462411058,0.960813,0.0659145,-2.22877
1470261462426101,0.960153,0.0657523,-2.22814
1470261462448593,0.959482,0.0660083,-2.22769
1470261462471112,0.958931,0.0662675,-2.22736
1470261462485625,0.958232,0.066405,-2.22702
1470261462508645,0.957356,0.0664443,-2.22685
1470261462531167,0.956316,0.066411,-2.22672
1470261462545178,0.954834,0.0665234,-2.22675
1470261462568200,0.953358,0.0665103,-2.22654
1470261462590719,0.951903,0.0668173,-2.2264
1470261462605232,0.950797,0.0670547,-2.22643
1470261462628253,0.949827,0.0672457,-2.22652
1470261462650773,0.948478,0.0676038,-2.22656
1470261462665286,0.947421,0.0677448,-2.22674
1470261462688307,0.946448,0.0675677,-2.2267
1470261462710829,0.945941,0.0680245,-2.22647
1470261462725340,0.94577,0.0682437,-2.22645
1470261462748365,0.94509,0.0683847,-2.22638
1470261462770881,0.944935,0.0685557,-2.2263
1470261462785394,0.944863,0.0684571,-2.22633
1470261462808415,0.944863,0.0684571,-2.22633
1470261462830936,0.944376,0.0686986,-2.22634
1470261462845448,0.944303,0.0686001,-2.22637
1470261462868471,0.944073,0.0688399,-2.22602
1470261462890988,0.944035,0.0691802,-2.22575
1470261462912008,0.943951,0.0690055,-2.22559
1470261462928523,0.943951,0.0690055,-2.22559
1470261462951044,0.944087,0.068959,-2.22565
1470261462972091,0.943907,0.0689348,-2.22575
1470261462988576,0.943907,0.0689348,-2.22575
1470261463011096,0.943907,0.0689348,-2.22575
1470261463032115,0.943851,0.0687881,-2.22572
1470261463048631,0.94374,0.0690299,-2.22548
1470261463070650,0.943668,0.0689313,-2.22551
1470261463093176,0.943804,0.0688849,-2.22557
1470261463108184,0.943232,0.0689519,-2.22543
1470261463131206,0.943232,0.0689519,-2.22543
1470261463159733,0.943232,0.0689519,-2.22543
1470261463168238,0.944644,0.0689832,-2.2253
1470261463190757,0.948822,0.0690545,-2.22512
1470261463211776,0.952256,0.0690023,-2.22522
1470261463228294,0.95486,0.0686019,-2.22509
1470261463250813,0.955965,0.0685296,-2.22475
1470261463272340,0.956339,0.068654,-2.22475
1470261463288345,0.957508,0.0689315,-2.22488
1470261463310903,0.961573,0.0695443,-2.22504
1470261463333391,0.969052,0.0703677,-2.22486
1470261463347901,0.974699,0.0712941,-2.22436
1470261463370920,0.979898,0.0731844,-2.22351
1470261463393440,0.983562,0.0760701,-2.22284
1470261463407952,0.985415,0.078036,-2.22115
1470261463430976,0.983293,0.0795308,-2.21993
1470261463453069,0.981589,0.0798643,-2.21898
1470261463468507,0.980969,0.0800703,-2.21943
1470261463491029,0.984884,0.0792272,-2.22021
1470261463513549,0.990082,0.0786107,-2.22168
1470261463536068,0.992119,0.0777065,-2.22362
1470261463551081,0.990675,0.076399,-2.2258
1470261463573602,0.987795,0.0753786,-2.22747
1470261463587614,0.98599,0.0750028,-2.22928
1470261463610637,0.985712,0.0748679,-2.23058
1470261463633157,0.985003,0.0750233,-2.23111
1470261463647670,0.983633,0.0753447,-2.23169
1470261463678196,0.982221,0.0760237,-2.23288
1470261463693209,0.981768,0.0762658,-2.23384
1470261463707722,0.980806,0.07683,-2.23432
1470261463731246,0.979135,0.0771536,-2.23432
1470261463753263,0.976151,0.0772164,-2.23324
1470261463767777,0.97186,0.0774147,-2.2321
1470261463790799,0.968972,0.077552,-2.23183
1470261463813316,0.966614,0.078271,-2.23226
1470261463827830,0.966009,0.0792089,-2.23296
1470261463850851,0.966034,0.0799513,-2.23349
1470261463880880,0.964464,0.0800495,-2.23436
1470261463894424,0.962211,0.0802835,-2.23516
1470261463910909,0.96055,0.0805691,-2.23574
1470261463933425,0.959189,0.0810472,-2.23603
1470261463954445,0.957766,0.081669,-2.23623
1470261463970959,0.957144,0.0823224,-2.23632
1470261463993479,0.956494,0.082857,-2.23651
1470261464014499,0.956049,0.0831661,-2.23637
1470261464031014,0.955559,0.0839,-2.23677
1470261464053533,0.955792,0.0841981,-2.23695
1470261464074566,0.956599,0.0844335,-2.23727
1470261464091076,0.957513,0.0847606,-2.23722
1470261464113588,0.95765,0.0847152,-2.23728
1470261464134606,0.95765,0.0847152,-2.23728
1470261464151120,0.957972,0.0844539,-2.23763
1470261464173640,0.957846,0.0838771,-2.23824
1470261464194659,0.957846,0.0838771,-2.23824
1470261464210674,0.957637,0.0838236,-2.23821
1470261464233196,0.95758,0.0836761,-2.23818
1470261464254769,0.957608,0.0837048,-2.23831
1470261464270727,0.956918,0.0836376,-2.2378
1470261464293250,0.956137,0.0835961,-2.2373
1470261464315769,0.955664,0.0832914,-2.23688
1470261464331286,0.955133,0.0835,-2.2365
1470261464353302,0.954289,0.0836038,-2.23591
1470261464375822,0.953602,0.0836543,-2.23477
1470261464398344,0.953171,0.083829,-2.23349
1470261464413857,0.953015,0.0838368,-2.23242
1470261464435880,0.952917,0.0838259,-2.23168
1470261464450392,0.952865,0.0835532,-2.2314
1470261464480919,0.952616,0.0833046,-2.23128
1470261464495929,0.952163,0.0827115,-2.23119
1470261464510442,0.951421,0.0821686,-2.23126
1470261464533464,0.95094,0.0814572,-2.23127
1470261464555484,0.95037,0.0806954,-2.23136
1470261464570497,0.949852,0.0797121,-2.23136
1470261464593518,0.949029,0.0788272,-2.23158
1470261464624046,0.948036,0.0781609,-2.23179
1470261464637057,0.947482,0.0773088,-2.23237
1470261464653572,0.946955,0.0767421,-2.23256
1470261464676091,0.945964,0.0760753,-2.23276
1470261464690104,0.944996,0.0757708,-2.23248
1470261464713627,0.944498,0.0754419,-2.23193
1470261464735644,0.944453,0.0753713,-2.23209
1470261464750158,0.944151,0.0750191,-2.23138
1470261464773179,0.943425,0.0747628,-2.23078
1470261464795698,0.942847,0.0745371,-2.23043
1470261464817217,0.942286,0.0743542,-2.2298
1470261464833734,0.942001,0.0739552,-2.22903
1470261464855756,0.941727,0.0736325,-2.22845
1470261464877272,0.941143,0.0732078,-2.22766
1470261464893309,0.940678,0.0727853,-2.227
1470261464915808,0.940739,0.0723162,-2.2264
1470261464938344,0.940559,0.0718002,-2.22612
1470261464953352,0.940007,0.0711597,-2.22584
1470261464975861,0.939811,0.0706918,-2.22562
1470261464997382,0.939694,0.0700309,-2.22543
1470261465013395,0.939385,0.0692699,-2.22515
1470261465035942,0.93918,0.0685584,-2.22505
1470261465056936,0.93872,0.0678011,-2.22499
1470261465073448,0.938025,0.0669641,-2.22477
1470261465095969,0.937823,0.0660846,-2.22498
1470261465116989,0.937729,0.0656219,-2.22549
1470261465134007,0.938402,0.0650682,-2.22599
1470261465156023,0.938928,0.0650213,-2.22606
1470261465177041,0.938956,0.065049,-2.22619
1470261465193556,0.938821,0.0650955,-2.22613
1470261465216081,0.938901,0.0649023,-2.22615
1470261465238597,0.938828,0.0648037,-2.22618
1470261465253642,0.9388,0.0647761,-2.22606
1470261465276131,0.939,0.0646287,-2.22565
1470261465298653,0.939,0.0646287,-2.22565
1470261465313665,0.939169,0.0645303,-2.22504
1470261465335684,0.939246,0.0645494,-2.2242
1470261465358204,0.939759,0.0645473,-2.22345
1470261465373217,0.939938,0.06408,-2.22298
1470261465395738,0.939938,0.06408,-2.22298
1470261465418260,0.940018,0.0638867,-2.22301
1470261465432771,0.939946,0.0637882,-2.22304
1470261465455793,0.939946,0.0637882,-2.22304
1470261465478313,0.939946,0.0637882,-2.22304
1470261465508339,0.939498,0.0636895,-2.22332
1470261465515849,0.938635,0.0633958,-2.22377
1470261465546373,0.937514,0.0627798,-2.22391
1470261465554381,0.938004,0.0623695,-2.2242
1470261465576401,0.939575,0.0624281,-2.22459
1470261465581406,0.940245,0.0630694,-2.22498
1470261465603925,0.940142,0.0635112,-2.22518
1470261465620439,0.940069,0.0634127,-2.2252
1470261465648966,0.940637,0.0635571,-2.22449
1470261465663981,0.942068,0.0639508,-2.22387
1470261465682498,0.943248,0.0642646,-2.22283
1470261465703014,0.943717,0.0653848,-2.22213
1470261465724032,0.94362,0.0657459,-2.22153
1470261465741549,0.943683,0.0656008,-2.22162
1470261465761567,0.943819,0.0655541,-2.22168
1470261465783588,0.943735,0.0653797,-2.22152
1470261465800605,0.944482,0.0654597,-2.22181
1470261465821119,0.94544,0.0655153,-2.22221
1470261465843640,0.945581,0.0657177,-2.22304
1470261465860155,0.945508,0.0660691,-2.224
1470261465881195,0.945037,0.0661011,-2.22514
1470261465904266,0.944767,0.065984,-2.22588
1470261465920209,0.945318,0.0655548,-2.22651
1470261465941243,0.945661,0.0650739,-2.22711
1470261465964751,0.945884,0.0656188,-2.22779
1470261465981265,0.945752,0.0665256,-2.22823
1470261466001784,0.945553,0.0671607,-2.22813
1470261466023801,0.945242,0.0675933,-2.22774
1470261466040317,0.945927,0.0683559,-2.22777
1470261466061336,0.946732,0.0691205,-2.22791
1470261466083855,0.946982,0.0699031,-2.22786
1470261466101872,0.946198,0.0704859,-2.22798
1470261466121391,0.945631,0.0709201,-2.22797
1470261466146912,0.945715,0.071095,-2.22813
1470261466160424,0.946432,0.0713169,-2.22799
1470261466181444,0.946568,0.0712706,-2.22805
1470261466203964,0.94667,0.070786,-2.2284
1470261466229487,0.946758,0.0701828,-2.22913
1470261466241497,0.947349,0.0699505,-2.22985
1470261466264018,0.94741,0.0698127,-2.23082
1470261466282035,0.94702,0.0696513,-2.232
1470261466301578,0.946739,0.0694156,-2.23311
1470261466324101,0.946398,0.0691996,-2.23388
1470261466342100,0.946263,0.068668,-2.23456
1470261466361127,0.94638,0.0682601,-2.2351
1470261466383624,0.94693,0.0680009,-2.23542
1470261466401642,0.947411,0.0675607,-2.23497
1470261466424665,0.949706,0.0673117,-2.23451
1470261466443782,0.953379,0.066954,-2.23417
1470261466462225,0.956856,0.0672286,-2.23372
1470261466481217,0.957788,0.067379,-2.23336
1470261466505234,0.957314,0.0670749,-2.23294
1470261466521749,0.956699,0.066943,-2.23271
1470261466541268,0.9577,0.0662884,-2.23237
1470261466563788,0.958987,0.06571,-2.23212
1470261466582307,0.959556,0.064908,-2.23201
1470261466601322,0.959778,0.0640997,-2.23182
1470261466623840,0.960085,0.0634668,-2.23177
1470261466641857,0.960931,0.063033,-2.23169
1470261466661380,0.962255,0.0627243,-2.23145
1470261466683894,0.963245,0.0625248,-2.23076
1470261466701910,0.964308,0.0618889,-2.23021
1470261466721429,0.964876,0.0611239,-2.22955
1470261466743951,0.964996,0.0606692,-2.22875
1470261466761971,0.964608,0.0604131,-2.22824
1470261466781492,0.964108,0.0599541,-2.22744
1470261466804004,0.963997,0.0601044,-2.2264
1470261466822019,0.963923,0.0599912,-2.22554
1470261466850045,0.963821,0.0598503,-2.22456
1470261466867560,0.963353,0.0597892,-2.22402
1470261466882079,0.962861,0.0595356,-2.22366
1470261466902592,0.962237,0.0592021,-2.22299
1470261466931118,0.96214,0.0588971,-2.22231
1470261466942146,0.961595,0.0583706,-2.22168
1470261466964148,0.961792,0.0578495,-2.22115
1470261466984163,0.96223,0.0573334,-2.22087
1470261467001680,0.963256,0.0569181,-2.22069
1470261467022703,0.964073,0.0563605,-2.22071
1470261467043719,0.964073,0.0563605,-2.22071
1470261467061734,0.964073,0.0563605,-2.22071
1470261467082756,0.964016,0.0562134,-2.22069
1470261467103773,0.964016,0.0562134,-2.22069
1470261467129296,0.964016,0.0562134,-2.22069
1470261467144309,0.963557,0.0559149,-2.22053
1470261467163827,0.962912,0.0556668,-2.22039
1470261467181844,0.962912,0.0556668,-2.22039
1470261467204364,0.96284,0.0555691,-2.22042
1470261467223879,0.962871,0.0555088,-2.21975
1470261467241896,0.962898,0.0556904,-2.21767
1470261467264420,0.963106,0.0564639,-2.21577
1470261467286935,0.96263,0.0568618,-2.21486
1470261467301949,0.962579,0.0571221,-2.21441
1470261467324469,0.963643,0.0574691,-2.21461
1470261467343987,0.964806,0.0574992,-2.21487
1470261467362056,0.966235,0.0578916,-2.21488
1470261467391530,0.96764,0.0581288,-2.21452
1470261467404041,0.968851,0.058175,-2.21429
1470261467422057,0.96967,0.0581482,-2.21413
1470261467444077,0.970676,0.0580699,-2.21396
1470261467464097,0.971996,0.0580043,-2.21422
1470261467486615,0.973581,0.0571968,-2.21414
1470261467504131,0.974674,0.0566335,-2.21406
1470261467523649,0.974674,0.0566335,-2.21406
1470261467541664,0.974582,0.0559981,-2.21401
1470261467564188,0.974179,0.0551867,-2.21383
1470261467584703,0.974491,0.0542952,-2.21331
1470261467601719,0.9753,0.0530312,-2.21255
1470261467624241,0.975972,0.052524,-2.20979
1470261467645759,0.977918,0.0539711,-2.20429
1470261467661773,0.980857,0.0549231,-2.2011
1470261467684293,0.981966,0.0548956,-2.19942
1470261467703810,0.983399,0.0544421,-2.1984
1470261467721826,0.985694,0.0534561,-2.19782
1470261467744346,0.987998,0.0526776,-2.19767
1470261467767369,0.990434,0.0516998,-2.19749
1470261467782383,0.992398,0.0504678,-2.19763
1470261467804401,0.992684,0.0490583,-2.19792
1470261467825420,0.992743,0.0476507,-2.19824
1470261467841969,0.993275,0.0462476,-2.19878
1470261467864455,0.993234,0.0452869,-2.19928
1470261467885473,0.993542,0.0438863,-2.19985
1470261467901987,0.993335,0.0421934,-2.20034
1470261467924538,0.992671,0.0412365,-2.20084
1470261467945027,0.993295,0.0407017,-2.20103
1470261467962042,0.993112,0.0400509,-2.20053
1470261467984563,0.99324,0.0398249,-2.19962
1470261468006582,0.994563,0.0402649,-2.19843
1470261468021595,0.995021,0.0408516,-2.19709
1470261468044116,0.995613,0.0412401,-2.19572
1470261468065136,0.996335,0.04137,-2.19399
1470261468081652,0.996605,0.0418859,-2.19201
1470261468103169,0.997567,0.0427311,-2.18921
1470261468126190,0.998689,0.0433744,-2.18705
1470261468147208,1.00032,0.0438155,-2.18563
1470261468163722,1.002,0.043931,-2.18476
1470261468186243,1.003,0.0438281,-2.18434
1470261468207271,1.00423,0.0438525,-2.18415
1470261468223276,1.00606,0.0437406,-2.18445
1470261468245797,1.00997,0.0436224,-2.1847
1470261468267316,1.01553,0.0441865,-2.18482
1470261468283332,1.01993,0.0446789,-2.18461
1470261468306851,1.02338,0.0455683,-2.18427
1470261468320364,1.02557,0.0464871,-2.18417
1470261468343385,1.02756,0.0473748,-2.1839
1470261468365906,1.03152,0.0486119,-2.18288
1470261468386924,1.03736,0.0507735,-2.18234
1470261468403439,1.04906,0.0527291,-2.18106
1470261468425959,1.05435,0.0551022,-2.17842
1470261468446977,1.05669,0.0598186,-2.17469
1470261468463492,1.05459,0.0644409,-2.17248
1470261468486012,1.05794,0.0629909,-2.16391
1470261468507032,1.06372,0.0571802,-2.14837
1470261468523546,1.07577,0.0492613,-2.12603
1470261468548069,1.09223,0.0389162,-2.09767
1470261468567090,1.10289,0.0291476,-2.06715
1470261468583605,1.11176,0.0198749,-2.03602
1470261468606120,1.12252,0.0119638,-2.00829
1470261468644154,1.13392,0.00692278,-1.98516
1470261468646156,1.14014,0.00493302,-1.9669
1470261468666175,1.14073,0.00583852,-1.95452
1470261468688695,1.13662,0.00800389,-1.94973
1470261468717222,1.13452,0.0106125,-1.95023
1470261468726227,1.13342,0.0150204,-1.95412
1470261468747247,1.13043,0.0209857,-1.96257
1470261468764765,1.12435,0.0269901,-1.97603
1470261468786282,1.11699,0.0324079,-1.99377
1470261468807301,1.11029,0.0371972,-2.01422
1470261468823316,1.10143,0.0416081,-2.03485
1470261468845836,1.09011,0.0474534,-2.05433
1470261468867357,1.07862,0.0551627,-2.07203
1470261468882870,1.07045,0.0638805,-2.08861
1470261468905889,1.0668,0.0726638,-2.10452
1470261468926908,1.06485,0.0802923,-2.11878
1470261468942922,1.06268,0.0860229,-2.12906
1470261468965945,1.0599,0.0870224,-2.13336
1470261468994470,1.04759,0.0835207,-2.13466
1470261469002976,1.04313,0.0839503,-2.13585
1470261469033505,1.04447,0.0863505,-2.13672
1470261469049021,1.04163,0.0885009,-2.13786
1470261469063031,1.03608,0.087086,-2.13883
1470261469086051,1.03557,0.0851776,-2.13899
1470261469116081,1.03614,0.0854104,-2.13821
1470261469123083,1.03419,0.0846094,-2.13842
1470261469153612,1.02953,0.0828929,-2.13995
1470261469168626,1.02442,0.081183,-2.14193
1470261469183638,1.01909,0.0790464,-2.14376
1470261469206159,1.01677,0.0771596,-2.1458
1470261469228679,1.01781,0.0763619,-2.14738
1470261469242692,1.01961,0.0761198,-2.14869
1470261469266214,1.02033,0.0755825,-2.14926
1470261469288733,1.02063,0.0749544,-2.15017
1470261469302746,1.02089,0.0742129,-2.15118
1470261469333273,1.02127,0.0733994,-2.15239
1470261469349290,1.02214,0.0726177,-2.15353
1470261469362799,1.02281,0.0716483,-2.15415
1470261469393327,1.02249,0.0709884,-2.15501
1470261469408341,1.02283,0.0705499,-2.15575
1470261469422853,1.0227,0.070245,-2.15649
1470261469445874,1.02233,0.0698017,-2.15677
1470261469475901,1.02243,0.0691426,-2.15685
1470261469482912,1.02193,0.0684074,-2.15707
1470261469505928,1.02123,0.0677813,-2.15737
1470261469528449,1.02102,0.0677349,-2.15733
1470261469552973,1.0216,0.0674392,-2.15707
1470261469565986,1.02201,0.0667376,-2.15645
1470261469588502,1.02143,0.0662523,-2.15563
1470261469609521,1.01935,0.0655994,-2.15508
1470261469626536,1.0186,0.0654815,-2.15472
1470261469648559,1.01867,0.0657751,-2.15418
1470261469671577,1.01824,0.0659639,-2.15378
1470261469686090,1.01781,0.0658124,-2.15339
1470261469708610,1.01665,0.065834,-2.15258
1470261469729629,1.01563,0.0658895,-2.15202
1470261469746144,1.0156,0.0656355,-2.15122
1470261469768663,1.01473,0.0658001,-2.15042
1470261469790184,1.01402,0.066081,-2.14963
1470261469806197,1.01447,0.0662048,-2.14942
1470261469828218,1.0155,0.0658823,-2.1495
1470261469849740,1.01663,0.0654714,-2.14928
1470261469873258,1.01631,0.0649513,-2.1489
1470261469902786,1.01633,0.0649006,-2.14885
1470261469909790,1.0163,0.0648692,-2.14872
1470261469926305,1.01581,0.064417,-2.14862
1470261469948328,1.01529,0.063801,-2.14815
1470261469969344,1.01579,0.0634087,-2.14792
1470261469985859,1.01555,0.0627022,-2.14784
1470261470008380,1.0147,0.0617568,-2.14796
1470261470031402,1.0137,0.0609114,-2.14806
1470261470045913,1.01311,0.0604153,-2.14804
1470261470068434,1.0121,0.0601163,-2.14829
1470261470090954,1.0102,0.0595951,-2.14842
1470261470113978,1.00932,0.0593227,-2.14825
1470261470128489,1.00942,0.0594436,-2.14768
1470261470151007,1.00988,0.060084,-2.14635
1470261470165521,1.01161,0.0611048,-2.14519
1470261470194546,1.0132,0.0620979,-2.14446
1470261470211061,1.01458,0.0629695,-2.14417
1470261470225573,1.01597,0.063219,-2.14423
1470261470256102,1.01706,0.063172,-2.14458
1470261470271115,1.01791,0.0633379,-2.14511
1470261470285628,1.01814,0.0633991,-2.14607
1470261470309149,1.01821,0.0632711,-2.14709
1470261470331170,1.01794,0.0629395,-2.14826
1470261470345182,1.01728,0.062579,-2.14961
1470261470368702,1.01668,0.0619918,-2.15088
1470261470398731,1.01605,0.0613645,-2.15176
1470261470419749,1.01518,0.0609477,-2.15282
1470261470428256,1.01467,0.0606104,-2.15375
1470261470450777,1.01399,0.0602071,-2.15472
1470261470472296,1.01418,0.0605118,-2.15456
1470261470488310,1.01563,0.062131,-2.15336
1470261470510830,1.01743,0.0635153,-2.15264
1470261470533852,1.02045,0.0648077,-2.15234
1470261470561876,1.02351,0.0665635,-2.15259
1470261470570884,1.02868,0.068499,-2.15319
1470261470591903,1.03543,0.0704002,-2.15395
1470261470616428,1.04271,0.0721351,-2.15491
1470261470630939,1.05026,0.0736135,-2.15566
1470261470653459,1.06268,0.0754918,-2.15578
1470261470668471,1.07663,0.0786707,-2.15405
1470261470699003,1.09068,0.0816803,-2.15046
1470261470712011,1.09851,0.0823715,-2.14327
1470261470736034,1.09861,0.0784063,-2.13092
1470261470751548,1.10483,0.068398,-2.11099
1470261470779572,1.12051,0.0521211,-2.08049
1470261470788079,1.13703,0.0338821,-2.04383
1470261470818607,1.14596,0.0163562,-2.00477
1470261470841127,1.15355,0.000351101,-1.96694
1470261470863647,1.15869,-0.00993059,-1.93335
1470261470871154,1.15854,-0.0144404,-1.90738
1470261470892174,1.15376,-0.0174258,-1.89052
1470261470909188,1.14957,-0.0193367,-1.88184
1470261470932713,1.1456,-0.0168775,-1.87867
1470261470953729,1.14373,-0.0104671,-1.88038
1470261470976249,1.14029,-0.00194731,-1.88549
1470261470990761,1.13368,0.00564671,-1.89249
1470261471013782,1.12577,0.011708,-1.89987
1470261471027794,1.1209,0.0170584,-1.90883
1470261471058322,1.11785,0.0217356,-1.92033
1470261471080845,1.11256,0.0256382,-1.93722
1470261471098361,1.10367,0.0279778,-1.96002
1470261471110869,1.09346,0.0288334,-1.98796
1470261471133396,1.08404,0.0289661,-2.01882
1470261471154409,1.07374,0.0292336,-2.05063
1470261471178429,1.06247,0.0310169,-2.0803
1470261471200951,1.0541,0.0368426,-2.10625
1470261471221969,1.0499,0.0449128,-2.12911
1470261471230979,1.04822,0.0525368,-2.14741
1470261471253498,1.05088,0.0610838,-2.15927
1470261471274536,1.05319,0.0733084,-2.16465
1470261471291051,1.04974,0.0867035,-2.16743
1470261471313572,1.04565,0.0950165,-2.16784
1470261471336092,1.04625,0.096093,-2.16509
1470261471351107,1.04511,0.0912397,-2.1612
1470261471373626,1.04184,0.0872587,-2.15827
1470261471394645,1.04079,0.0864205,-2.15725
1470261471426173,1.038,0.0856685,-2.15827
1470261471433681,1.03319,0.0831405,-2.16001
1470261471454698,1.03143,0.0799992,-2.1614
1470261471471213,1.0345,0.0773954,-2.16309
1470261471500243,1.0378,0.0750622,-2.16484
1470261471514755,1.03764,0.072956,-2.1661
1470261471538774,1.03427,0.0715338,-2.16741
1470261471569302,1.03071,0.0702898,-2.16935
1470261471582315,1.02817,0.0685626,-2.16997
1470261471590821,1.02902,0.0679667,-2.1682
1470261471613841,1.03248,0.0685247,-2.16576
1470261471634861,1.03573,0.0700901,-2.16297
1470261471650875,1.03664,0.0714591,-2.16107
1470261471673895,1.03611,0.0720193,-2.15985
1470261471695915,1.0359,0.0719799,-2.15901
1470261471710929,1.03733,0.0719827,-2.15885
1470261471733449,1.0399,0.0720163,-2.15932
1470261471755969,1.04188,0.0721116,-2.16016
1470261471785997,1.04281,0.0713926,-2.16171
1470261471793503,1.04394,0.0699906,-2.16376
1470261471814525,1.04537,0.0692953,-2.165
1470261471844551,1.04776,0.0692546,-2.16565
1470261471859562,1.05093,0.0691397,-2.16692
1470261471874577,1.05338,0.0688101,-2.16798
1470261471891090,1.05786,0.0686202,-2.16801
1470261471952146,1.06475,0.0686459,-2.16689
1470261471958652,1.0731,0.070743,-2.1631
1470261471974165,1.089,0.0729659,-2.14485
1470261472003692,1.08404,0.0682376,-2.12762
1470261472011198,1.08037,0.0606782,-2.10238
1470261472033721,1.08941,0.0525102,-2.06718
1470261472056240,1.10951,0.0455718,-2.02351
1470261472084765,1.13003,0.037596,-1.97633
1470261472107286,1.14267,0.0292914,-1.92978
1470261472116295,1.15118,0.0214113,-1.88603
1470261472138813,1.15567,0.0153773,-1.84407
1470261472153827,1.16065,0.00823358,-1.80717
1470261472175846,1.16412,0.000581473,-1.77688
1470261472198869,1.16672,-0.00493195,-1.75746
1470261472219885,1.16837,-0.00241846,-1.74408
1470261472235901,1.17049,0.000889957,-1.73727
1470261472257419,1.16255,-0.00245023,-1.73483
1470261472280942,1.15611,-0.00890475,-1.73384
1470261472295954,1.16384,-0.0138267,-1.73167
1470261472316973,1.17315,-0.013552,-1.72793
1470261472333489,1.1713,-0.0106804,-1.72349
1470261472371522,1.16344,-0.00578499,-1.71927
1470261472377027,1.15768,-0.0029642,-1.71596
1470261472393543,1.15309,-0.00314099,-1.71286
1470261472416064,1.14996,-0.00461997,-1.70967
1470261472444587,1.14867,-0.0055379,-1.7071
1470261472453595,1.1454,-0.00566173,-1.70545
1470261472477117,1.14196,-0.00603441,-1.7038
1470261472497135,1.13994,-0.00602022,-1.70203
1470261472513650,1.13983,-0.00561205,-1.7004
1470261472536170,1.13972,-0.00529918,-1.69888
1470261472557190,1.13892,-0.00496667,-1.69767
1470261472573703,1.13947,-0.00392045,-1.69736
1470261472595722,1.14161,-0.00215283,-1.69735
1470261472617242,1.14436,-0.000292391,-1.69682
1470261472641264,1.14326,0.00146216,-1.69533
1470261472655777,1.14058,0.00235737,-1.69339
1470261472677297,1.13796,0.0014492,-1.6913
1470261472694312,1.13789,0.00038594,-1.69016
1470261472723838,1.13643,-0.00148556,-1.68944
1470261472737351,1.13357,-0.00368527,-1.689
1470261472760871,1.1311,-0.00542876,-1.68856
1470261472776385,1.12807,-0.00594199,-1.68841
1470261472804912,1.12505,-0.00639377,-1.68706
1470261472813419,1.1217,-0.00706434,-1.6859
1470261472835938,1.11861,-0.00735984,-1.68502
1470261472865967,1.11691,-0.00780954,-1.68469
1470261472873473,1.11569,-0.00825185,-1.68436
1470261472895994,1.11542,-0.00890878,-1.68415
1470261472918515,1.11518,-0.010522,-1.68397
1470261472933530,1.11344,-0.0120591,-1.68393
1470261472956047,1.11185,-0.0138605,-1.68408
1470261472978566,1.11021,-0.0155166,-1.68425
1470261473001087,1.10902,-0.01683,-1.6848
1470261473016103,1.10744,-0.017985,-1.68519
1470261473039121,1.10607,-0.0193216,-1.68605
1470261473052633,1.10475,-0.0204367,-1.68694
1470261473083664,1.10345,-0.021421,-1.68812
1470261473098678,1.10134,-0.022083,-1.68959
1470261473112687,1.09898,-0.0224619,-1.69079
1470261473142714,1.09702,-0.022584,-1.69208
1470261473166237,1.09483,-0.0222914,-1.69339
1470261473172741,1.09256,-0.0220383,-1.69486
1470261473196262,1.08985,-0.0216069,-1.69595
1470261473226289,1.08743,-0.0208966,-1.69704
1470261473233296,1.08528,-0.0196222,-1.69819
1470261473256317,1.08281,-0.0180602,-1.69938
1470261473278836,1.08063,-0.016407,-1.70051
1470261473292849,1.07856,-0.014778,-1.70176
1470261473316371,1.07627,-0.0130727,-1.70308
1470261473338390,1.07448,-0.0110303,-1.7045
1470261473343896,1.07239,-0.00876164,-1.7062
1470261473362412,1.07044,-0.00681477,-1.70821
1470261473397944,1.06999,-0.00507342,-1.71013
1470261473403948,1.06827,-0.0033854,-1.7127
1470261473421965,1.06629,-0.00196049,-1.71569
1470261473450491,1.06414,-0.000808776,-1.71895
1470261473464005,1.06241,-4.50015e-05,-1.72186
1470261473482023,1.06159,0.000301361,-1.72439
1470261473501538,1.06155,0.00126401,-1.72726
1470261473527060,1.06186,0.00268808,-1.73014
1470261473542072,1.06212,0.00505518,-1.7333
1470261473561590,1.06384,0.00755204,-1.7359
1470261473591616,1.06664,0.0102789,-1.73823
1470261473601626,1.06986,0.0128226,-1.74026
1470261473621644,1.07122,0.0155631,-1.74207
1470261473643664,1.07053,0.0186637,-1.7438
1470261473670188,1.06874,0.0217964,-1.74534
1470261473681702,1.06905,0.0246589,-1.74683
1470261473706720,1.06895,0.0278243,-1.74827
1470261473721735,1.06838,0.0305912,-1.74963
1470261473757767,1.06682,0.0332066,-1.75126
1470261473766275,1.0643,0.0355338,-1.75301
1470261473784292,1.06209,0.0372118,-1.75434
1470261473802809,1.06,0.0386461,-1.75544
1470261473831834,1.05829,0.0405702,-1.75697
1470261473841842,1.0571,0.0433169,-1.75843
1470261473870368,1.05764,0.0459284,-1.75956
1470261473886883,1.05798,0.0482431,-1.76053
1470261473901899,1.0575,0.0508933,-1.76187
1470261473921413,1.05734,0.0547014,-1.76373
1470261473946937,1.06192,0.0611992,-1.76574
1470261473975462,1.06998,0.0698971,-1.76832
1470261473981468,1.07996,0.0779201,-1.77131
1470261474003988,1.09023,0.0829343,-1.77638
1470261474026508,1.098,0.0906806,-1.78579
1470261474041521,1.09578,0.0984829,-1.79897
1470261474065544,1.08569,0.103397,-1.81608
1470261474086561,1.07677,0.105874,-1.83982
1470261474117590,1.07098,0.107311,-1.86848
1470261474124095,1.06608,0.109139,-1.90052
1470261474146615,1.05799,0.111948,-1.93639
1470261474162630,1.05004,0.114485,-1.97519
1470261474191656,1.03848,0.115773,-2.01338
1470261474206671,1.02548,0.117494,-2.04891
1470261474224186,1.01229,0.120037,-2.08092
1470261474251710,0.998938,0.122163,-2.10719
1470261474275232,0.98745,0.1241,-2.1279
1470261474281740,0.979323,0.12587,-2.14414
1470261474306759,0.975781,0.128909,-2.15763
1470261474326779,0.974824,0.132321,-2.16911
1470261474342792,0.973237,0.134717,-2.17766
1470261474364313,0.96913,0.136805,-2.1819
1470261474386331,0.963777,0.138392,-2.18237
1470261474402846,0.954232,0.139104,-2.18325
1470261474426867,0.947033,0.138945,-2.18437
1470261474446385,0.948084,0.138337,-2.18583
1470261474470406,0.948448,0.138085,-2.18568
1470261474483922,0.945041,0.137958,-2.18522
1470261474506438,0.941919,0.137898,-2.18483
1470261474522954,0.940233,0.138049,-2.18603
1470261474551482,0.939579,0.137996,-2.18756
1470261474561989,0.93871,0.138093,-2.18951
1470261474584514,0.935286,0.138239,-2.19189
1470261474604028,0.931023,0.137256,-2.19401
1470261474622042,0.92701,0.13566,-2.19545
1470261474643061,0.924014,0.133918,-2.19659
1470261474664081,0.920446,0.132502,-2.19786
1470261474682098,0.916996,0.130789,-2.19929
1470261474703115,0.914598,0.129332,-2.20068
1470261474724134,0.912373,0.128232,-2.20199
1470261474749659,0.90981,0.127851,-2.20285
1470261474766173,0.906968,0.12762,-2.2034
1470261474784188,0.904732,0.127274,-2.20467
1470261474801704,0.903309,0.127387,-2.20612
1470261474831735,0.902874,0.127207,-2.2073
1470261474844243,0.902447,0.126614,-2.20828
1470261474861758,0.901184,0.125722,-2.20938
1470261474888883,0.899982,0.124973,-2.21052
1470261474911404,0.898564,0.124303,-2.21163
1470261474921913,0.897054,0.123867,-2.21277
1470261474944432,0.896578,0.123224,-2.21322
1470261474981466,0.895895,0.122832,-2.21334
1470261474983969,0.894096,0.122791,-2.21342
1470261475004488,0.891939,0.122786,-2.21348
1470261475024005,0.89018,0.122642,-2.21369
1470261475042020,0.889349,0.122647,-2.21352
1470261475064544,0.887857,0.122802,-2.2133
1470261475084562,0.886839,0.123002,-2.21299
1470261475109581,0.88732,0.122638,-2.21268
1470261475124595,0.888415,0.122346,-2.21252
1470261475144112,0.888491,0.122447,-2.2125
1470261475166632,0.887244,0.122246,-2.21276
1470261475184148,0.886206,0.122098,-2.21304
1470261475204165,0.885696,0.121848,-2.21331
1470261475222236,0.884875,0.121329,-2.21368
1470261475244759,0.884102,0.120881,-2.21388
1470261475264220,0.883056,0.120659,-2.21398
1470261475281738,0.881963,0.120365,-2.21423
1470261475304256,0.881013,0.1196,-2.21459
1470261475324278,0.880121,0.118687,-2.21502
1470261475342790,0.87935,0.118428,-2.21568
1470261475364310,0.878318,0.117969,-2.21627
1470261475385331,0.877559,0.117301,-2.21671
1470261475401861,0.877403,0.116631,-2.21711
1470261475424364,0.876672,0.115905,-2.21675
1470261475445384,0.876822,0.116554,-2.2132
1470261475461899,0.878936,0.118409,-2.20832
1470261475484418,0.880372,0.119044,-2.20615
1470261475505437,0.8801,0.1186,-2.20519
1470261475521953,0.879704,0.118175,-2.20487
1470261475548979,0.879054,0.117609,-2.20493
