timestamp,roll,pitch,yaw
1470261484737240,0.995252,0.0924403,-2.17996
1470261484746246,0.993257,0.0925477,-2.18007
1470261484768767,0.991197,0.0927186,-2.17989
1470261484789785,0.989567,0.0929885,-2.17979
1470261484806141,0.98866,0.0935099,-2.1796
1470261484828660,0.988969,0.094107,-2.17924
1470261484849688,0.989935,0.0945183,-2.17882
1470261484866697,0.990863,0.0950243,-2.17826
1470261484888714,0.990865,0.0960217,-2.17805
1470261484909732,0.989861,0.0969162,-2.17812
1470261484925747,0.99004,0.0979818,-2.17856
1470261484948769,0.991047,0.0989288,-2.17889
1470261484971288,0.992207,0.0997797,-2.17924
1470261484986302,0.993653,0.100909,-2.17941
1470261485008821,0.995069,0.102711,-2.17904
1470261485029841,0.997462,0.104288,-2.17765
1470261485046356,1.003,0.10614,-2.17525
1470261485068875,1.00545,0.110283,-2.17331
1470261485089894,1.00767,0.114384,-2.17101
1470261485106409,1.00967,0.113996,-2.16647
1470261485128930,1.01253,0.109827,-2.15954
1470261485149952,1.01288,0.0984723,-2.1492
1470261485165964,1.01485,0.079909,-2.13646
1470261485188985,1.02106,0.0571167,-2.12156
1470261485211004,1.02967,0.0322232,-2.10549
1470261485232524,1.03561,0.00638182,-2.08726
1470261485249039,1.03922,-0.019108,-2.06779
1470261485271058,1.04228,-0.0448846,-2.04714
1470261485285571,1.04488,-0.0702346,-2.02706
1470261485308591,1.04356,-0.0931988,-2.00845
1470261485332113,1.04114,-0.112558,-1.99121
1470261485352631,1.03152,-0.127182,-1.97403
1470261485368646,1.02614,-0.135053,-1.9582
1470261485391166,1.02194,-0.137325,-1.94443
1470261485412184,1.01621,-0.134413,-1.93232
1470261485428700,1.00863,-0.127422,-1.92261
1470261485451219,0.999888,-0.116045,-1.91561
1470261485472237,0.991278,-0.10126,-1.91108
1470261485488753,0.984421,-0.0839337,-1.90815
1470261485511273,0.979087,-0.0653864,-1.90628
1470261485532295,0.972919,-0.0466115,-1.90582
1470261485548809,0.964409,-0.0280816,-1.90639
1470261485571327,0.957027,-0.0101399,-1.90719
1470261485592345,0.95259,0.00701037,-1.90788
1470261485608861,0.951056,0.0228417,-1.90801
1470261485631381,0.947813,0.0366283,-1.90798
1470261485652400,0.940714,0.0489426,-1.90602
1470261485668914,0.928342,0.0589766,-1.9028
1470261485691434,0.916071,0.0682391,-1.90122
1470261485712453,0.908226,0.0754708,-1.90088
1470261485728468,0.903728,0.0812709,-1.90068
1470261485750990,0.898402,0.0863772,-1.90069
1470261485772507,0.890422,0.0888305,-1.90232
1470261485788522,0.884398,0.0870686,-1.90589
1470261485811042,0.885496,0.0814718,-1.91079
1470261485832561,0.892231,0.0756877,-1.91689
1470261485848577,0.896443,0.0708288,-1.92323
1470261485871096,0.900368,0.0667131,-1.92806
1470261485892616,0.903336,0.0611849,-1.93163
1470261485908630,0.903882,0.0555269,-1.93424
1470261485931150,0.904822,0.0520734,-1.93673
1470261485952170,0.904114,0.0512454,-1.93997
1470261485968685,0.902898,0.052612,-1.94321
1470261485991204,0.903592,0.052367,-1.94547
1470261486012224,0.905588,0.0518384,-1.94614
1470261486028737,0.90748,0.053419,-1.94655
1470261486051260,0.906773,0.0567461,-1.94626
1470261486072277,0.903699,0.060798,-1.94591
1470261486088792,0.900198,0.0648999,-1.94538
1470261486111312,0.896997,0.0681993,-1.94391
1470261486133834,0.894769,0.0708448,-1.94027
1470261486148848,0.891743,0.0739514,-1.93567
1470261486171365,0.885457,0.0764311,-1.93136
1470261486193886,0.881171,0.0772763,-1.92788
1470261486214907,0.880241,0.0762501,-1.92528
1470261486238926,0.884444,0.0747993,-1.92258
1470261486253439,0.888951,0.0748553,-1.91924
1470261486268453,0.892233,0.0747832,-1.9145
1470261486291474,0.891827,0.0740242,-1.90895
1470261486313493,0.887245,0.0720862,-1.90173
1470261486334514,0.878555,0.0686476,-1.89316
1470261486351030,0.872127,0.0653995,-1.88353
1470261486374047,0.867696,0.0629348,-1.87305
1470261486395067,0.862373,0.061949,-1.86126
1470261486411083,0.85414,0.0613791,-1.84911
1470261486433604,0.845822,0.0616397,-1.83805
1470261486462126,0.835023,0.06327,-1.82821
1470261486471135,0.824433,0.065666,-1.819
1470261486493655,0.815423,0.0686014,-1.81169
1470261486514674,0.808234,0.0713816,-1.80727
1470261486531189,0.804992,0.0735427,-1.80375
1470261486553709,0.802839,0.0750441,-1.80115
1470261486574743,0.799694,0.0773724,-1.80124
1470261486591243,0.795504,0.0796819,-1.80351
1470261486613763,0.792392,0.0819397,-1.80786
1470261486634782,0.788294,0.0847032,-1.81509
1470261486651297,0.782319,0.0875118,-1.8254
1470261486673816,0.773982,0.0894948,-1.83787
1470261486694852,0.768049,0.0915415,-1.85112
1470261486711350,0.765759,0.0943625,-1.86483
1470261486733874,0.765091,0.0965782,-1.8797
1470261486754889,0.765961,0.0969504,-1.89522
1470261486771404,0.768238,0.097601,-1.91045
1470261486793925,0.773118,0.10013,-1.92571
1470261486815945,0.779939,0.104414,-1.94149
1470261486831961,0.786839,0.109091,-1.95768
1470261486853978,0.794429,0.114077,-1.97256
1470261486874997,0.803089,0.119413,-1.98602
1470261486890512,0.812164,0.124512,-1.99837
1470261486914032,0.81925,0.128456,-2.01005
1470261486935051,0.826848,0.132109,-2.02032
1470261486950569,0.834054,0.136272,-2.02947
1470261486973586,0.840261,0.140454,-2.03817
1470261486995105,0.845136,0.144868,-2.0469
1470261487010619,0.850432,0.149062,-2.05406
1470261487039646,0.855444,0.15452,-2.06068
1470261487055159,0.861253,0.161232,-2.06741
1470261487070673,0.867865,0.169876,-2.07473
1470261487101201,0.874793,0.178378,-2.08388
1470261487116214,0.884996,0.175197,-2.09372
1470261487130727,0.870577,0.163766,-2.0985
1470261487153749,0.869228,0.159933,-2.10568
1470261487176268,0.888425,0.158856,-2.11108
1470261487190780,0.905347,0.157614,-2.11686
1470261487213803,0.909192,0.154932,-2.12253
1470261487236322,0.908148,0.151878,-2.12756
1470261487257341,0.907211,0.149927,-2.13197
1470261487273856,0.90828,0.147748,-2.13536
1470261487296376,0.911454,0.14568,-2.13829
1470261487310389,0.914844,0.14393,-2.14108
1470261487333910,0.916662,0.142554,-2.14396
1470261487356430,0.916911,0.140933,-2.1469
1470261487370442,0.917058,0.139456,-2.1493
1470261487393963,0.917592,0.138442,-2.15144
1470261487416485,0.917992,0.137949,-2.15354
1470261487430496,0.918468,0.13748,-2.15542
1470261487467529,0.918473,0.137132,-2.15673
1470261487476537,0.918425,0.136793,-2.15732
1470261487497556,0.91743,0.136547,-2.15807
1470261487513572,0.916509,0.135972,-2.15884
1470261487536091,0.91653,0.135502,-2.1599
1470261487551105,0.91662,0.135252,-2.16118
1470261487573625,0.916024,0.134785,-2.16253
1470261487596144,0.915856,0.13422,-2.1635
1470261487617165,0.91579,0.13336,-2.16464
1470261487634181,0.916093,0.13295,-2.16576
1470261487656198,0.915359,0.132588,-2.16687
1470261487677219,0.914184,0.132515,-2.16816
1470261487693733,0.913145,0.132195,-2.16907
1470261487716257,0.911897,0.132038,-2.16971
1470261487737287,0.91082,0.131744,-2.17029
1470261487753786,0.909849,0.131584,-2.17055
1470261487776306,0.909211,0.131351,-2.1707
1470261487797325,0.908533,0.13093,-2.17076
1470261487813840,0.908481,0.130862,-2.17093
1470261487836361,0.908454,0.130831,-2.17079
1470261487857380,0.908466,0.130556,-2.17122
1470261487873894,0.90872,0.130229,-2.17182
1470261487896415,0.909484,0.129773,-2.17202
1470261487917436,0.909896,0.129435,-2.17238
1470261487933951,0.910545,0.129179,-2.17291
1470261487955968,0.910905,0.128773,-2.17343
1470261487977487,0.911692,0.128336,-2.17401
1470261487994001,0.912704,0.127891,-2.17482
1470261488016525,0.913159,0.127528,-2.17551
1470261488039043,0.913896,0.127024,-2.17626
1470261488053556,0.914746,0.126733,-2.17688
1470261488076075,0.915405,0.126346,-2.17741
1470261488099096,0.916276,0.126011,-2.17798
1470261488113609,0.916902,0.125728,-2.17837
1470261488136130,0.917312,0.125527,-2.17873
1470261488158650,0.91759,0.125373,-2.17904
1470261488173663,0.917512,0.125274,-2.17907
1470261488196184,0.918052,0.12524,-2.17924
1470261488219205,0.917841,0.125189,-2.17921
1470261488233220,0.917841,0.125189,-2.17921
1470261488256240,0.917861,0.125144,-2.17916
1470261488278758,0.917992,0.125096,-2.17921
1470261488301778,0.917992,0.125096,-2.17921
1470261488316294,0.917913,0.124997,-2.17924
1470261488338812,0.917913,0.124997,-2.17924
1470261488352826,0.918288,0.125113,-2.17922
1470261488376345,0.918288,0.125113,-2.17922
1470261488398867,0.91842,0.125065,-2.17928
1470261488413378,0.918393,0.125034,-2.17914
1470261488436402,0.918393,0.125034,-2.17914
1470261488458920,0.918393,0.125034,-2.17914
1470261488473432,0.918393,0.125034,-2.17914
1470261488496453,0.918393,0.125034,-2.17914
1470261488518975,0.918821,0.125003,-2.1792
1470261488539992,0.918821,0.125003,-2.1792
1470261488556507,0.918821,0.125003,-2.1792
1470261488579528,0.918953,0.124955,-2.17926
1470261488600047,0.91923,0.125018,-2.17932
1470261488616561,0.919849,0.125083,-2.17948
1470261488638581,0.919822,0.125052,-2.17934
1470261488660600,0.919822,0.125052,-2.17934
1470261488676114,0.920416,0.124871,-2.1796
1470261488699137,0.920435,0.124826,-2.17954
1470261488719654,0.920435,0.124826,-2.17954
1470261488736170,0.920567,0.124778,-2.1796
1470261488760691,0.920488,0.124679,-2.17962
1470261488779707,0.920488,0.124679,-2.17962
1470261488796223,0.920488,0.124679,-2.17962
1470261488818742,0.920488,0.124679,-2.17962
1470261488839762,0.920488,0.124679,-2.17962
1470261488856276,0.92062,0.124631,-2.17968
1470261488878797,0.920593,0.1246,-2.17955
1470261488884316,0.920593,0.1246,-2.17955
1470261488906850,0.920593,0.1246,-2.17955
1470261488921922,0.920593,0.1246,-2.17955
1470261488944386,0.920725,0.124552,-2.1796
1470261488966876,0.920725,0.124552,-2.1796
1470261488981888,0.920725,0.124552,-2.1796
1470261489004409,0.920665,0.124408,-2.17957
1470261489026930,0.920665,0.124408,-2.17957
1470261489041943,0.920797,0.12436,-2.17963
1470261489064463,0.920829,0.124473,-2.17952
1470261489086983,0.920829,0.124473,-2.17952
1470261489102003,0.920848,0.124428,-2.17947
1470261489127019,0.920769,0.124329,-2.17949
1470261489147040,0.921277,0.124397,-2.17953
1470261489162096,0.921409,0.124349,-2.17959
1470261489184071,0.921409,0.124349,-2.17959
1470261489206641,0.921381,0.124318,-2.17945
1470261489221636,0.921381,0.124318,-2.17945
1470261489244163,0.921381,0.124318,-2.17945
1470261489266647,0.921513,0.12427,-2.17951
1470261489281659,0.921513,0.12427,-2.17951
1470261489304196,0.921513,0.12427,-2.17951
1470261489326754,0.921513,0.12427,-2.17951
1470261489341740,0.921645,0.124222,-2.17956
1470261489364279,0.921434,0.124171,-2.17953
1470261489386753,0.922125,0.124259,-2.17947
1470261489409273,0.922125,0.124259,-2.17947
1470261489424288,0.922125,0.124259,-2.17947
1470261489446825,0.922125,0.124259,-2.17947
1470261489461847,0.922065,0.124115,-2.17944
1470261489484413,0.922065,0.124115,-2.17944
1470261489506919,0.922197,0.124067,-2.17949
1470261489521931,0.922197,0.124067,-2.17949
1470261489544394,0.922197,0.124067,-2.17949
1470261489566916,0.92217,0.124036,-2.17936
1470261489583430,0.92217,0.124036,-2.17936
1470261489604451,0.92217,0.124036,-2.17936
1470261489626969,0.92217,0.124036,-2.17936
1470261489642983,0.922302,0.123988,-2.17941
1470261489664001,0.922302,0.123988,-2.17941
1470261489686523,0.922302,0.123988,-2.17941
1470261489703037,0.922302,0.123988,-2.17941
1470261489731563,0.922302,0.123988,-2.17941
1470261489746575,0.922434,0.12394,-2.17947
1470261489763091,0.922434,0.12394,-2.17947
1470261489784112,0.922434,0.12394,-2.17947
1470261489815138,0.922434,0.12394,-2.17947
1470261489823145,0.922406,0.123909,-2.17934
1470261489844164,0.922406,0.123909,-2.17934
1470261489866685,0.922538,0.123861,-2.17939
1470261489884702,0.922538,0.123861,-2.17939
1470261489911724,0.922538,0.123861,-2.17939
1470261489929740,0.92267,0.123813,-2.17945
1470261489944753,0.92267,0.123813,-2.17945
1470261489964272,0.922564,0.123683,-2.17934
1470261489986812,0.922643,0.123782,-2.17931
1470261490004836,0.922775,0.123734,-2.17937
1470261490024350,0.922775,0.123734,-2.17937
1470261490046854,0.922696,0.123635,-2.1794
1470261490064957,0.922696,0.123635,-2.1794
1470261490084381,0.922847,0.123541,-2.1794
1470261490106899,0.922847,0.123541,-2.1794
1470261490124940,0.922847,0.123541,-2.1794
1470261490144433,0.92282,0.12351,-2.17926
1470261490166954,0.922741,0.123411,-2.17929
1470261490184471,0.922873,0.123363,-2.17934
1470261490204488,0.922873,0.123363,-2.17934
1470261490227028,0.922873,0.123363,-2.17934
1470261490244523,0.923005,0.123315,-2.1794
1470261490264040,0.923024,0.12327,-2.17934
1470261490287112,0.922945,0.123171,-2.17937
1470261490304577,0.922945,0.123171,-2.17937
1470261490324610,0.92305,0.123092,-2.17929
1470261490346616,0.92305,0.123092,-2.17929
1470261490364675,0.923182,0.123044,-2.17935
1470261490384150,0.923182,0.123044,-2.17935
1470261490406673,0.923154,0.123013,-2.17921
1470261490439234,0.923286,0.122965,-2.17927
1470261490444237,0.923208,0.122866,-2.17929
1470261490466734,0.923208,0.122866,-2.17929
1470261490484738,0.923227,0.12282,-2.17924
1470261490504290,0.923359,0.122773,-2.17929
1470261490526832,0.923359,0.122773,-2.17929
1470261490544792,0.923359,0.122773,-2.17929
1470261490567314,0.923463,0.122693,-2.17922
1470261490586863,0.923384,0.122594,-2.17924
1470261490604869,0.923384,0.122594,-2.17924
1470261490625865,0.923517,0.122547,-2.1793
1470261490647416,0.923517,0.122547,-2.1793
1470261490664900,0.923517,0.122547,-2.1793
1470261490685919,0.923517,0.122547,-2.1793
1470261490706938,0.923668,0.122453,-2.1793
1470261490730960,0.923589,0.122354,-2.17932
1470261490745491,0.923561,0.122323,-2.17919
1470261490766991,0.923561,0.122323,-2.17919
1470261490790513,0.923615,0.122176,-2.17927
1470261490805539,0.923615,0.122176,-2.17927
1470261490826570,0.923615,0.122176,-2.17927
1470261490844562,0.923719,0.122097,-2.17919
1470261490873117,0.923851,0.122049,-2.17925
1470261490887104,0.92387,0.122004,-2.17919
1470261490912127,0.92387,0.122004,-2.17919
1470261490928140,0.924002,0.121956,-2.17925
1470261490946672,0.924002,0.121956,-2.17925
1470261490964683,0.924002,0.121956,-2.17925
1470261490987192,0.923975,0.121925,-2.17911
1470261491006764,0.924107,0.121877,-2.17917
1470261491024774,0.924028,0.121778,-2.1792
1470261491047368,0.924028,0.121778,-2.1792
1470261491066782,0.92416,0.12173,-2.17925
1470261491084795,0.92416,0.12173,-2.17925
1470261491107297,0.924133,0.121699,-2.17912
1470261491126818,0.924284,0.121605,-2.17912
1470261491144847,0.924284,0.121605,-2.17912
1470261491167353,0.924205,0.121506,-2.17914
1470261491186869,0.924337,0.121458,-2.1792
1470261491204934,0.924337,0.121458,-2.1792
1470261491227406,0.924442,0.121379,-2.17912
1470261491246922,0.924442,0.121379,-2.17912
1470261491269443,0.924574,0.121331,-2.17918
1470261491294470,0.924496,0.121232,-2.17921
1470261491307002,0.924514,0.121187,-2.17915
1470261491324530,0.924514,0.121187,-2.17915
1470261491346512,0.924619,0.121108,-2.17907
1470261491367036,0.924619,0.121108,-2.17907
1470261491384551,0.92454,0.121009,-2.1791
1470261491406566,0.924672,0.120961,-2.17915
1470261491427650,0.924672,0.120961,-2.17915
1470261491443601,0.924672,0.120961,-2.17915
1470261491466621,0.924823,0.120868,-2.17915
1470261491487639,0.924823,0.120868,-2.17915
1470261491503702,0.924717,0.120737,-2.17904
1470261491526173,0.924928,0.120788,-2.17908
1470261491547192,0.924849,0.12069,-2.1791
1470261491564208,0.924849,0.12069,-2.1791
1470261491586227,0.924903,0.120543,-2.17918
1470261491607259,0.924903,0.120543,-2.17918
1470261491623761,0.924876,0.120512,-2.17905
1470261491646282,0.924894,0.120466,-2.17899
1470261491667302,0.925027,0.120418,-2.17905
1470261491684318,0.925027,0.120418,-2.17905
1470261491706335,0.924948,0.120319,-2.17908
1470261491727353,0.92508,0.120271,-2.17913
1470261491743869,0.925053,0.12024,-2.179
1470261491766396,0.925053,0.12024,-2.179
1470261491787408,0.925422,0.120065,-2.17903
1470261491803923,0.925554,0.120017,-2.17909
1470261491826445,0.925554,0.120017,-2.17909
1470261491848966,0.925573,0.119972,-2.17903
1470261491863976,0.925678,0.119893,-2.17896
1470261491886497,0.925678,0.119893,-2.17896
1470261491909017,0.925599,0.119794,-2.17898
1470261491924030,0.925599,0.119794,-2.17898
1470261491946056,0.925731,0.119746,-2.17904
1470261491968571,0.925731,0.119746,-2.17904
1470261491983586,0.925785,0.119599,-2.17912
1470261492006604,0.925757,0.119568,-2.17899
1470261492028625,0.925776,0.119522,-2.17893
1470261492043138,0.925908,0.119474,-2.17899
1470261492066179,0.92583,0.119376,-2.17901
1470261492088678,0.92583,0.119376,-2.17901
1470261492103209,0.925962,0.119328,-2.17907
1470261492126233,0.925962,0.119328,-2.17907
1470261492148738,0.925874,0.119152,-2.1789
1470261492163246,0.926007,0.119104,-2.17896
1470261492186266,0.926007,0.119104,-2.17896
1470261492208786,0.926007,0.119104,-2.17896
1470261492223301,0.926007,0.119104,-2.17896
1470261492246322,0.92606,0.118957,-2.17904
1470261492268840,0.926033,0.118926,-2.17891
1470261492283353,0.926165,0.118878,-2.17897
1470261492306410,0.926184,0.118833,-2.17891
1470261492328894,0.926316,0.118785,-2.17897
1470261492349952,0.926237,0.118686,-2.17899
1470261492366431,0.926342,0.118607,-2.17892
1470261492388948,0.926342,0.118607,-2.17892
1470261492409971,0.926475,0.118559,-2.17897
1470261492426481,0.926415,0.118414,-2.17894
1470261492456008,0.926415,0.118414,-2.17894
1470261492470054,0.926547,0.118366,-2.179
1470261492486536,0.92652,0.118335,-2.17886
1470261492509056,0.926441,0.118237,-2.17889
1470261492530117,0.926573,0.118189,-2.17895
1470261492546089,0.926573,0.118189,-2.17895
1470261492568609,0.926697,0.118064,-2.17881
1470261492590172,0.926697,0.118064,-2.17881
1470261492606143,0.926697,0.118064,-2.17881
1470261492629164,0.92675,0.117917,-2.1789
1470261492657689,0.92675,0.117917,-2.1789
1470261492666701,0.926883,0.117869,-2.17895
1470261492688717,0.926855,0.117838,-2.17882
1470261492710237,0.926988,0.11779,-2.17888
1470261492739763,0.926988,0.11779,-2.17888
1470261492748773,0.926988,0.11779,-2.17888
1470261492769791,0.926909,0.117691,-2.1789
1470261492786305,0.92706,0.117598,-2.1789
1470261492808825,0.927033,0.117567,-2.17877
1470261492831345,0.927165,0.117519,-2.17883
1470261492846359,0.927165,0.117519,-2.17883
1470261492868879,0.927086,0.11742,-2.17885
1470261492891399,0.927086,0.11742,-2.17885
1470261492906415,0.927219,0.117372,-2.17891
1470261492928933,0.927324,0.117293,-2.17883
1470261492951454,0.927342,0.117247,-2.17877
1470261492965966,0.927475,0.117199,-2.17883
1470261492988986,0.927447,0.117168,-2.1787
1470261493011507,0.927579,0.11712,-2.17875
1470261493025523,0.927501,0.117021,-2.17878
1470261493049541,0.927501,0.117021,-2.17878
1470261493071084,0.927633,0.116973,-2.17884
1470261493094082,0.927606,0.116942,-2.1787
1470261493109094,0.927738,0.116894,-2.17876
1470261493131115,0.927678,0.11675,-2.17873
1470261493145628,0.927811,0.116702,-2.17879
1470261493176655,0.927811,0.116702,-2.17879
1470261493191170,0.927916,0.116623,-2.17871
1470261493205681,0.927916,0.116623,-2.17871
1470261493228722,0.927837,0.116524,-2.17874
1470261493251222,0.927969,0.116476,-2.17879
1470261493265737,0.927969,0.116476,-2.17879
1470261493296262,0.927988,0.11643,-2.17874
1470261493311278,0.92812,0.116383,-2.17879
1470261493332298,0.928014,0.116253,-2.17868
1470261493348812,0.928014,0.116253,-2.17868
1470261493371350,0.928147,0.116205,-2.17874
1470261493392365,0.928147,0.116205,-2.17874
1470261493408865,0.928147,0.116205,-2.17874
1470261493431386,0.928219,0.116012,-2.17877
1470261493452431,0.928192,0.115981,-2.17863
1470261493468923,0.928192,0.115981,-2.17863
1470261493491939,0.928324,0.115933,-2.17869
1470261493512508,0.928324,0.115933,-2.17869
1470261493528972,0.928378,0.115787,-2.17878
1470261493551497,0.928351,0.115756,-2.17864
1470261493572526,0.928483,0.115708,-2.1787
1470261493588527,0.929204,0.115403,-2.17883
1470261493618589,0.929223,0.115358,-2.17877
1470261493632570,0.929733,0.115003,-2.17887
1470261493649082,0.929866,0.114955,-2.17893
1470261493671600,0.929838,0.114924,-2.1788
1470261493692619,0.929892,0.114777,-2.17888
1470261493708633,0.929892,0.114777,-2.17888
1470261493731655,0.929997,0.114698,-2.1788
1470261493760180,0.930148,0.114604,-2.1788
1470261493769188,0.930148,0.114604,-2.1788
1470261493791207,0.930148,0.114604,-2.1788
1470261493813727,0.930202,0.114458,-2.17889
1470261493828741,0.930175,0.114427,-2.17875
1470261493851262,0.930307,0.114379,-2.17881
1470261493873782,0.93044,0.114331,-2.17887
1470261493888295,0.93038,0.114186,-2.17884
1470261493911320,0.930485,0.114107,-2.17876
1470261493934339,0.930485,0.114107,-2.17876
1470261493948348,0.930485,0.114107,-2.17876
1470261493971369,0.930618,0.114059,-2.17882
1470261493993891,0.930539,0.113961,-2.17885
1470261494007901,0.930644,0.113882,-2.17877
1470261494031423,0.930663,0.113836,-2.17871
1470261494053943,0.930795,0.113788,-2.17877
1470261494067957,0.931718,0.113449,-2.179
1470261494091479,0.932609,0.112996,-2.17933
1470261494113997,0.933476,0.1123,-2.17977
1470261494128510,0.934573,0.1116,-2.18045
1470261494151532,0.935143,0.110878,-2.18113
1470261494174051,0.936032,0.110129,-2.18178
1470261494188063,0.937132,0.109431,-2.18246
1470261494217611,0.937803,0.108763,-2.18307
1470261494234105,0.938226,0.108145,-2.1835
1470261494256624,0.938488,0.107752,-2.18393
1470261494271183,0.939146,0.10743,-2.18429
1470261494293658,0.939689,0.107108,-2.18453
1470261494315178,0.939611,0.10701,-2.18455
1470261494331192,0.939744,0.106962,-2.18461
1470261494353712,0.940098,0.106835,-2.18471
1470261494382740,0.94076,0.106603,-2.18458
1470261494399756,0.94076,0.106603,-2.18458
1470261494413767,0.940816,0.106457,-2.18466
1470261494434786,0.940788,0.106426,-2.18453
1470261494451301,0.940788,0.106426,-2.18453
1470261494473859,0.940921,0.106378,-2.18459
1470261494495366,0.940862,0.106233,-2.18456
1470261494511354,0.940995,0.106186,-2.18462
1470261494533877,0.940968,0.106155,-2.18448
1470261494554895,0.941101,0.106107,-2.18454
1470261494571407,0.941101,0.106107,-2.18454
1470261494593928,0.941157,0.105961,-2.18463
1470261494614981,0.941129,0.10593,-2.18449
1470261494631462,0.941129,0.10593,-2.18449
1470261494653982,0.941281,0.105836,-2.1845
1470261494675001,0.941281,0.105836,-2.1845
1470261494691516,0.941414,0.105788,-2.18455
1470261494714038,0.941386,0.105758,-2.18442
1470261494736556,0.94152,0.10571,-2.18448
1470261494751570,0.941575,0.105564,-2.18456
1470261494774090,0.941548,0.105533,-2.18443
1470261494796610,0.941681,0.105485,-2.18449
1470261494811623,0.941681,0.105485,-2.18449
1470261494834145,0.941815,0.105438,-2.18455
1470261494856665,0.941815,0.105438,-2.18455
1470261494870677,0.941805,0.10536,-2.18436
1470261494893697,0.941939,0.105313,-2.18442
1470261494916719,0.941861,0.105214,-2.18444
1470261494930732,0.941994,0.105167,-2.1845
1470261494953751,0.941967,0.105136,-2.18437
1470261494976271,0.9421,0.105088,-2.18443
1470261494990785,0.9421,0.105088,-2.18443
1470261495013805,0.942234,0.105041,-2.18449
1470261495043832,0.942234,0.105041,-2.18449
1470261495051339,0.942147,0.104865,-2.18432
1470261495073860,0.94228,0.104817,-2.18438
1470261495096380,0.94228,0.104817,-2.18438
1470261495110893,0.94228,0.104817,-2.18438
1470261495133920,0.942413,0.104769,-2.18444
1470261495156434,0.942336,0.104671,-2.18447
1470261495177504,0.942308,0.10464,-2.18434
1470261495193967,0.942442,0.104593,-2.18439
1470261495216489,0.942442,0.104593,-2.18439
1470261495237505,0.94246,0.104546,-2.18434
1470261495254021,0.942593,0.104498,-2.1844
1470261495276542,0.9424,0.104401,-2.18431
1470261495297616,0.9424,0.104401,-2.18431
1470261495314076,0.9424,0.104401,-2.18431
1470261495336594,0.9424,0.104401,-2.18431
1470261495357614,0.942456,0.104255,-2.18439
1470261495374128,0.942456,0.104255,-2.18439
1470261495396150,0.942428,0.104224,-2.18426
1470261495417670,0.942562,0.104176,-2.18432
1470261495434183,0.942562,0.104176,-2.18432
1470261495456203,0.942695,0.104129,-2.18438
1470261495477221,0.942635,0.103984,-2.18435
1470261495493736,0.942635,0.103984,-2.18435
1470261495517259,0.942635,0.103984,-2.18435
1470261495537775,0.942608,0.103953,-2.18422
1470261495553790,0.942741,0.103905,-2.18427
1470261495576310,0.942664,0.103807,-2.1843
1470261495597343,0.942664,0.103807,-2.1843
1470261495613844,0.942797,0.103759,-2.18436
1470261495636364,0.942797,0.103759,-2.18436
1470261495658885,0.942921,0.103634,-2.18423
1470261495673900,0.942921,0.103634,-2.18423
1470261495696417,0.942921,0.103634,-2.18423
1470261495718938,0.943055,0.103586,-2.18429
1470261495734455,0.942977,0.103488,-2.18432
1470261495756473,0.942977,0.103488,-2.18432
1470261495784998,0.942949,0.103457,-2.18418
1470261495794506,0.943083,0.10341,-2.18424
1470261495816530,0.943083,0.10341,-2.18424
1470261495839046,0.943217,0.103362,-2.1843
1470261495853058,0.943217,0.103362,-2.1843
1470261495876598,0.943322,0.103284,-2.18423
1470261495899100,0.943322,0.103284,-2.18423
1470261495913112,0.943263,0.103139,-2.1842
1470261495936634,0.943263,0.103139,-2.1842
1470261495959153,0.943263,0.103139,-2.1842
1470261495973166,0.943396,0.103091,-2.18425
1470261495996187,0.943396,0.103091,-2.18425
1470261496018723,0.943369,0.10306,-2.18412
1470261496033723,0.943502,0.103012,-2.18418
1470261496056253,0.943502,0.103012,-2.18418
1470261496078761,0.943502,0.103012,-2.18418
1470261496093274,0.943502,0.103012,-2.18418
1470261496116797,0.943636,0.102965,-2.18424
1470261496138817,0.943636,0.102965,-2.18424
1470261496159848,0.943636,0.102965,-2.18424
1470261496176373,0.943636,0.102965,-2.18424
1470261496199372,0.943742,0.102886,-2.18417
1470261496227904,0.943742,0.102886,-2.18417
1470261496236404,0.943742,0.102886,-2.18417
1470261496266431,0.943742,0.102886,-2.18417
1470261496279983,0.943742,0.102886,-2.18417
1470261496296457,0.943875,0.102839,-2.18422
1470261496318977,0.943875,0.102839,-2.18422
1470261496347503,0.943981,0.10276,-2.18415
1470261496356512,0.943981,0.10276,-2.18415
1470261496379035,0.943981,0.10276,-2.18415
1470261496400055,0.943981,0.10276,-2.18415
1470261496422586,0.944115,0.102712,-2.18421
1470261496439084,0.944115,0.102712,-2.18421
1470261496460103,0.944115,0.102712,-2.18421
1470261496476623,0.943549,0.102789,-2.18408
1470261496499140,0.942599,0.103169,-2.18389
1470261496520157,0.942199,0.104321,-2.18328
1470261496536227,0.94242,0.106467,-2.18247
1470261496558697,0.94452,0.109843,-2.1806
1470261496579710,0.948783,0.114806,-2.17517
1470261496595728,0.951905,0.122564,-2.16777
1470261496618749,0.95054,0.132875,-2.16053
1470261496641268,0.944381,0.144194,-2.15383
1470261496646772,0.939783,0.156207,-2.14733
1470261496663288,0.939738,0.165295,-2.14078
1470261496684310,0.93879,0.168613,-2.13729
1470261496706827,0.931018,0.163037,-2.13965
1470261496723342,0.915138,0.147572,-2.14691
1470261496751867,0.899228,0.123578,-2.16016
1470261496766881,0.892056,0.08642,-2.18125
1470261496783396,0.882342,0.034796,-2.21129
1470261496804413,0.869049,-0.0293147,-2.25034
1470261496826932,0.856678,-0.100979,-2.29624
1470261496843448,0.848811,-0.173713,-2.34555
1470261496864466,0.843212,-0.243697,-2.39417
1470261496886986,0.836496,-0.306787,-2.43582
1470261496905003,0.827656,-0.359196,-2.46738
1470261496924520,0.817917,-0.400481,-2.48767
1470261496947040,0.807461,-0.428702,-2.50015
1470261496963055,0.788166,-0.447132,-2.50645
1470261496984575,0.752535,-0.456918,-2.5042
1470261497007095,0.714966,-0.456997,-2.49821
1470261497029130,0.687415,-0.449439,-2.4932
1470261497044128,0.668139,-0.435554,-2.48845
1470261497067149,0.656108,-0.41714,-2.48401
1470261497083166,0.650216,-0.395528,-2.47981
1470261497104182,0.651304,-0.372481,-2.47704
1470261497126702,0.659313,-0.350194,-2.47697
1470261497144718,0.67178,-0.32959,-2.47871
1470261497164237,0.686183,-0.310158,-2.48155
1470261497186757,0.702128,-0.291663,-2.48435
1470261497203270,0.720696,-0.2743,-2.4866
1470261497224306,0.740215,-0.257519,-2.48671
1470261497246809,0.759239,-0.240867,-2.48492
1470261497263325,0.777108,-0.224221,-2.48058
1470261497284348,0.795112,-0.205843,-2.47364
1470261497309866,0.8102,-0.184701,-2.46465
1470261497323378,0.821612,-0.163783,-2.4543
1470261497344397,0.832193,-0.145137,-2.44164
1470261497366920,0.841732,-0.126193,-2.42636
1470261497389438,0.850315,-0.105353,-2.40879
1470261497404451,0.859182,-0.0849852,-2.38954
1470261497426971,0.871074,-0.0652087,-2.36968
1470261497452495,0.882821,-0.0446462,-2.34961
1470261497464504,0.889174,-0.0242175,-2.3287
1470261497487026,0.895863,-0.00436179,-2.3068
1470261497505042,0.907447,0.0141545,-2.28477
1470261497524558,0.918769,0.0316836,-2.26418
1470261497548080,0.924329,0.0465453,-2.24564
1470261497564597,0.928713,0.0595391,-2.22835
1470261497587118,0.935917,0.0715193,-2.21319
1470261497606665,0.944056,0.0823271,-2.19981
1470261497624687,0.951779,0.0910669,-2.18869
1470261497644199,0.960815,0.0980747,-2.17999
1470261497667189,0.9687,0.102207,-2.1729
1470261497684707,0.971655,0.105527,-2.1671
1470261497704220,0.97389,0.109518,-2.16281
1470261497734752,0.978699,0.113628,-2.15945
1470261497744771,0.984306,0.117109,-2.1562
1470261497764275,0.985709,0.120056,-2.15338
1470261497786795,0.983358,0.122482,-2.15076
1470261497804811,0.981402,0.125204,-2.14684
1470261497824328,0.980501,0.128367,-2.14171
1470261497846849,0.977257,0.129539,-2.13432
1470261497872373,0.963955,0.128685,-2.12074
1470261497884384,0.944691,0.131327,-2.0948
1470261497906903,0.923515,0.143841,-2.04973
1470261497924919,0.909514,0.165144,-1.9808
1470261497944437,0.908173,0.193179,-1.89153
1470261497966959,0.91407,0.227281,-1.79006
1470261497984973,0.921786,0.263248,-1.68424
1470261498014999,0.934017,0.29942,-1.57546
1470261498027010,0.956431,0.334107,-1.46518
1470261498045026,0.992611,0.366567,-1.35702
1470261498064543,1.03772,0.395531,-1.25833
1470261498087064,1.08378,0.419584,-1.1753
1470261498104581,1.12248,0.43985,-1.10605
1470261498124097,1.15265,0.458334,-1.04895
1470261498146617,1.18149,0.477206,-1.00329
1470261498164634,1.21044,0.498868,-0.971384
1470261498185653,1.23618,0.513306,-0.951019
1470261498206672,1.24949,0.521081,-0.939577
1470261498224689,1.25668,0.526463,-0.93548
1470261498245707,1.26155,0.527919,-0.936609
1470261498266729,1.25944,0.525429,-0.943095
1470261498284745,1.25354,0.520481,-0.954407
1470261498305761,1.24981,0.514247,-0.968726
1470261498326779,1.24393,0.508792,-0.985154
1470261498344797,1.23427,0.504078,-1.00304
1470261498365819,1.2236,0.499736,-1.02197
1470261498386834,1.21499,0.495118,-1.04054
1470261498404850,1.20765,0.490709,-1.05895
1470261498425869,1.20005,0.486982,-1.0768
1470261498446888,1.19317,0.483435,-1.09367
1470261498464904,1.18637,0.479361,-1.10885
1470261498487424,1.17934,0.474686,-1.12152
1470261498506942,1.17232,0.469794,-1.13123
1470261498524957,1.1679,0.465735,-1.13781
1470261498547478,1.16652,0.462934,-1.14109
1470261498566997,1.16637,0.461697,-1.14195
1470261498585013,1.1657,0.461264,-1.14046
1470261498607032,1.16513,0.462194,-1.13725
1470261498627049,1.16462,0.464294,-1.13259
1470261498644565,1.16632,0.467875,-1.12777
1470261498667587,1.16874,0.474376,-1.1222
1470261498687103,1.1733,0.483591,-1.11605
1470261498704632,1.178,0.494825,-1.1101
1470261498727139,1.18063,0.506173,-1.10527
1470261498746656,1.18324,0.518718,-1.10156
1470261498764673,1.18682,0.532375,-1.09895
1470261498787193,1.1926,0.549002,-1.09741
1470261498806710,1.19937,0.570289,-1.09765
1470261498824727,1.20713,0.589352,-1.09828
1470261498847748,1.21133,0.603027,-1.09846
1470261498866765,1.20696,0.613591,-1.10027
1470261498884783,1.2041,0.621255,-1.10191
1470261498907301,1.20807,0.626675,-1.10249
1470261498926835,1.21503,0.629476,-1.1021
1470261498944849,1.21909,0.630918,-1.10218
1470261498974861,1.22035,0.631589,-1.10298
1470261498986873,1.22116,0.632147,-1.1043
1470261499004889,1.22139,0.632352,-1.10546
1470261499027409,1.22164,0.631739,-1.10693
1470261499049932,1.22214,0.630152,-1.10857
1470261499064947,1.22174,0.62794,-1.11089
1470261499087462,1.22146,0.625084,-1.11375
1470261499108481,1.2214,0.621204,-1.1175
1470261499124995,1.22091,0.616493,-1.12126
1470261499147516,1.21952,0.611669,-1.12539
1470261499167570,1.21779,0.606685,-1.12951
1470261499184085,1.21578,0.601982,-1.13383
1470261499206602,1.2147,0.598469,-1.13783
1470261499227634,1.21361,0.596034,-1.14208
1470261499243635,1.21048,0.594117,-1.14608
1470261499266660,1.2074,0.593401,-1.14985
1470261499287675,1.20542,0.593725,-1.15318
1470261499303689,1.20518,0.59429,-1.15605
1470261499326709,1.20502,0.595022,-1.15861
1470261499347728,1.20448,0.595091,-1.16083
1470261499363756,1.20416,0.595027,-1.16254
1470261499386763,1.20397,0.594579,-1.16384
1470261499407783,1.20387,0.593947,-1.16505
1470261499423797,1.20399,0.593493,-1.16574
1470261499446317,1.20423,0.592842,-1.16637
1470261499468838,1.20453,0.592107,-1.16706
1470261499483854,1.20465,0.591071,-1.16723
1470261499506372,1.20528,0.590069,-1.1677
1470261499528892,1.20608,0.58833,-1.16838
1470261499543905,1.2073,0.585826,-1.16915
1470261499566928,1.20911,0.582378,-1.17016
1470261499588947,1.2114,0.577243,-1.17137
1470261499609965,1.2131,0.569945,-1.17352
1470261499626479,1.21391,0.560924,-1.1759
1470261499649000,1.21405,0.549796,-1.17854
1470261499670019,1.21435,0.535399,-1.18103
1470261499686533,1.21192,0.517758,-1.18427
1470261499709054,1.20626,0.498469,-1.19004
1470261499730072,1.19902,0.479213,-1.19869
1470261499746587,1.19171,0.461742,-1.21008
1470261499769107,1.18437,0.443965,-1.22333
1470261499790127,1.17385,0.425437,-1.23837
1470261499806641,1.15941,0.407096,-1.25698
1470261499836668,1.14519,0.389237,-1.27887
1470261499850181,1.13276,0.371463,-1.30334
1470261499866695,1.11721,0.353158,-1.33118
1470261499888715,1.09853,0.334977,-1.36152
1470261499910235,1.08161,0.315924,-1.3937
1470261499926749,1.0668,0.296221,-1.42765
1470261499955274,1.05252,0.275795,-1.46353
1470261499970287,1.03674,0.255526,-1.50155
1470261499986302,1.01941,0.236077,-1.54164
1470261500008822,1.00326,0.218108,-1.58395
1470261500037348,0.988996,0.201153,-1.62693
1470261500046357,0.973079,0.185269,-1.66988
1470261500069877,0.957862,0.171376,-1.71183
1470261500089895,0.944994,0.161165,-1.7518
1470261500106410,0.934043,0.154633,-1.78921
1470261500128930,0.924292,0.150165,-1.82447
1470261500149951,0.914909,0.146752,-1.85739
1470261500165964,0.907621,0.14304,-1.88585
1470261500196491,0.905642,0.140585,-1.90955
1470261500210004,0.90599,0.140998,-1.93037
1470261500225517,0.905867,0.145357,-1.94858
1470261500249040,0.907314,0.151902,-1.96453
1470261500270057,0.910965,0.159215,-1.97859
1470261500285572,0.909351,0.16432,-1.99032
1470261500309091,0.904985,0.166505,-1.99923
1470261500330112,0.902607,0.169552,-2.00545
1470261500345625,0.90734,0.175157,-2.00926
1470261500369147,0.916209,0.182804,-2.01203
1470261500391666,0.920889,0.190846,-2.01394
1470261500405679,0.92137,0.197714,-2.01572
1470261500429199,0.91968,0.189461,-2.0163
1470261500451721,0.901769,0.181273,-2.01547
1470261500465737,0.897209,0.179427,-2.01627
1470261500489254,0.909631,0.179027,-2.01474
1470261500511774,0.914841,0.178375,-2.01474
1470261500532794,0.911127,0.177087,-2.01687
1470261500549310,0.908846,0.176161,-2.01914
1470261500571328,0.910037,0.175377,-2.02085
1470261500593848,0.911595,0.174825,-2.0221
1470261500608862,0.91381,0.174394,-2.02337
1470261500631382,0.915745,0.173866,-2.02476
1470261500645894,0.917597,0.173401,-2.02656
1470261500668920,0.917885,0.172795,-2.02926
1470261500691435,0.917054,0.172301,-2.03253
1470261500705948,0.916487,0.171755,-2.03678
1470261500728971,0.916781,0.171057,-2.04145
1470261500751492,0.917445,0.170146,-2.04682
1470261500766004,0.916946,0.169358,-2.05315
1470261500789023,0.915164,0.169002,-2.06053
1470261500811543,0.912571,0.168053,-2.06817
1470261500832567,0.909138,0.166928,-2.0765
1470261500849578,0.907884,0.165861,-2.08407
1470261500877604,0.906434,0.164929,-2.09169
1470261500892618,0.906238,0.163698,-2.09804
1470261500916640,0.905147,0.161871,-2.10407
1470261500931652,0.9034,0.160462,-2.11058
1470261500952670,0.902519,0.158546,-2.11701
1470261500976692,0.902247,0.15661,-2.12126
1470261500991705,0.899271,0.155633,-2.12335
1470261501012724,0.893947,0.155108,-2.12508
1470261501029240,0.888078,0.154389,-2.12714
1470261501051759,0.885354,0.153526,-2.12983
1470261501072778,0.883319,0.15218,-2.13223
1470261501089292,0.882549,0.150505,-2.13396
1470261501111312,0.883516,0.149343,-2.13531
1470261501140339,0.884792,0.148481,-2.13707
1470261501149349,0.884227,0.147446,-2.13866
1470261501171367,0.883007,0.146368,-2.14047
1470261501192399,0.883291,0.145673,-2.14175
1470261501208900,0.883627,0.145252,-2.14224
1470261501231420,0.883706,0.14507,-2.14265
1470261501252451,0.883514,0.144963,-2.14362
1470261501268954,0.883586,0.144833,-2.14446
1470261501291473,0.884567,0.145122,-2.14519
1470261501312497,0.88692,0.146256,-2.14555
1470261501342578,0.890116,0.148615,-2.14537
1470261501351529,0.8933,0.151157,-2.14525
1470261501374048,0.893456,0.151893,-2.1446
1470261501389062,0.890983,0.151443,-2.14497
1470261501411581,0.889415,0.150915,-2.14547
1470261501434105,0.889412,0.150635,-2.1459
1470261501449116,0.88922,0.150263,-2.14624
1470261501471635,0.888017,0.150381,-2.14655
1470261501494156,0.88771,0.150488,-2.1468
1470261501508672,0.888552,0.150819,-2.14711
1470261501531190,0.889038,0.151126,-2.14801
1470261501554209,0.887717,0.150615,-2.14887
1470261501568225,0.886071,0.149434,-2.14963
1470261501591743,0.884434,0.148189,-2.15057
1470261501614265,0.883438,0.14717,-2.15136
1470261501628276,0.882978,0.146462,-2.15207
1470261501651800,0.882241,0.145894,-2.15273
1470261501673845,0.882061,0.145314,-2.15369
1470261501688330,0.882104,0.145075,-2.15464
1470261501711354,0.881856,0.144685,-2.15558
1470261501734372,0.881843,0.144023,-2.15692
1470261501748385,0.88161,0.143018,-2.15828
1470261501771440,0.881626,0.141894,-2.15998
1470261501793925,0.881965,0.140814,-2.16183
1470261501808438,0.88238,0.139761,-2.16346
1470261501833464,0.88239,0.138273,-2.16503
1470261501862514,0.882985,0.136949,-2.1666
1470261501875015,0.883786,0.135821,-2.16777
1470261501899021,0.884097,0.134704,-2.1691
1470261501914033,0.884498,0.133761,-2.17061
1470261501935051,0.8847,0.133059,-2.17204
1470261501951567,0.884991,0.132531,-2.17364
1470261501974087,0.885678,0.13194,-2.17517
1470261501995138,0.88677,0.131305,-2.17636
1470261502011621,0.886706,0.130764,-2.1775
1470261502034143,0.886956,0.130196,-2.17859
1470261502055175,0.887727,0.129653,-2.17965
1470261502071677,0.888231,0.129133,-2.18041
1470261502094196,0.888763,0.128644,-2.18131
1470261502115222,0.889469,0.128102,-2.18191
1470261502131728,0.890451,0.12783,-2.18276
1470261502154249,0.891147,0.127408,-2.18361
1470261502175272,0.8918,0.127208,-2.18458
1470261502191783,0.892283,0.12687,-2.1854
1470261502213835,0.892363,0.126795,-2.18631
1470261502235326,0.892637,0.126831,-2.18706
1470261502251339,0.893216,0.126767,-2.18756
1470261502273856,0.893216,0.126767,-2.18756
1470261502296376,0.893216,0.126767,-2.18756
1470261502311392,0.893216,0.126767,-2.18756
1470261502334412,0.892521,0.126561,-2.18838
1470261502356432,0.892182,0.126299,-2.18947
1470261502370943,0.892354,0.126181,-2.19079
1470261502393994,0.892352,0.12614,-2.19173
1470261502416486,0.891998,0.125729,-2.19244
1470261502431000,0.89151,0.125515,-2.19284
1470261502454520,0.890481,0.125552,-2.19283
1470261502476538,0.889195,0.125466,-2.19295
1470261502491051,0.888511,0.125565,-2.19347
1470261502514072,0.888959,0.12555,-2.19392
1470261502536592,0.889711,0.125435,-2.19412
1470261502552110,0.890178,0.125376,-2.19451
1470261502574125,0.890159,0.12542,-2.19457
1470261502596646,0.889891,0.125416,-2.19495
1470261502610677,0.889902,0.125256,-2.19564
1470261502634182,0.890347,0.12495,-2.19614
1470261502656700,0.890738,0.124792,-2.19655
1470261502670714,0.89058,0.124492,-2.19709
1470261502694234,0.890164,0.124069,-2.19777
1470261502716756,0.890023,0.123709,-2.19851
1470261502731266,0.889996,0.123362,-2.19911
1470261502753789,0.889973,0.123098,-2.19947
1470261502776307,0.890329,0.123044,-2.19975
1470261502797832,0.890329,0.123044,-2.19975
1470261502813841,0.890518,0.123141,-2.19983
1470261502836361,0.890518,0.123141,-2.19983
1470261502858381,0.890518,0.123141,-2.19983
1470261502873895,0.890518,0.123141,-2.19983
1470261502896415,0.890537,0.123097,-2.19977
1470261502917436,0.890518,0.123141,-2.19983
1470261502934452,0.89149,0.122964,-2.19981
1470261502956470,0.89149,0.122964,-2.19981
1470261502977502,0.891017,0.122922,-2.19991
1470261502994003,0.89094,0.122821,-2.19994
1470261503016525,0.891925,0.122818,-2.19962
1470261503037568,0.893041,0.122766,-2.19936
1470261503054059,0.894332,0.123148,-2.19919
1470261503076590,0.895924,0.123138,-2.19883
1470261503097611,0.897764,0.12337,-2.19858
1470261503114112,0.899851,0.123551,-2.19851
1470261503136633,0.901363,0.123851,-2.19838
1470261503159151,0.902369,0.123996,-2.19845
1470261503174164,0.90309,0.123988,-2.19852
1470261503196689,0.90309,0.123988,-2.19852
1470261503217704,0.903407,0.124255,-2.19842
1470261503234223,0.904455,0.124393,-2.19813
1470261503256238,0.905953,0.124752,-2.19781
1470261503279261,0.906956,0.125113,-2.19764
1470261503293772,0.907088,0.125065,-2.19769
1470261503316794,0.907165,0.125165,-2.19767
1470261503338812,0.907138,0.125135,-2.19753
1470261503361334,0.907491,0.125299,-2.19757
1470261503376346,0.908232,0.125246,-2.19758
1470261503399369,0.908954,0.125238,-2.19765
1470261503413379,0.909572,0.125309,-2.1978
1470261503443908,0.909677,0.125231,-2.19772
1470261503458920,0.909677,0.125231,-2.19772
1470261503473433,0.909677,0.125231,-2.19772
1470261503496453,0.909677,0.125231,-2.19772
1470261503526481,0.909677,0.125231,-2.19772
1470261503533488,0.909126,0.125381,-2.1978
1470261503556508,0.908517,0.125386,-2.19784
1470261503579028,0.908517,0.125386,-2.19784
1470261503593541,0.908649,0.125339,-2.1979
1470261503616564,0.908649,0.125339,-2.1979
1470261503639083,0.908649,0.125339,-2.1979
1470261503653596,0.908649,0.125339,-2.1979
1470261503676616,0.908649,0.125339,-2.1979
1470261503699137,0.908649,0.125339,-2.1979
1470261503720155,0.908781,0.125292,-2.19795
1470261503736672,0.908781,0.125292,-2.19795
1470261503759689,0.908781,0.125292,-2.19795
1470261503780208,0.9097,0.125477,-2.19761
1470261503804230,0.910851,0.125962,-2.1972
1470261503819244,0.911649,0.126282,-2.19675
1470261503840265,0.912368,0.12649,-2.19657
1470261503856778,0.913607,0.126433,-2.19643
1470261503879298,0.914578,0.126179,-2.19623
1470261503899815,0.914578,0.126179,-2.19623
1470261503916834,0.914711,0.126132,-2.19628
1470261503939351,0.914711,0.126132,-2.19628
1470261503967383,0.914711,0.126132,-2.19628
1470261503976385,0.91461,0.125786,-2.19642
1470261503999909,0.914591,0.125831,-2.19647
1470261504019925,0.914472,0.125739,-2.19685
1470261504036440,0.914361,0.125514,-2.19724
1470261504058958,0.91438,0.125469,-2.19718
1470261504079977,0.91438,0.125469,-2.19718
1470261504096492,0.91438,0.125469,-2.19718
1470261504119513,0.91438,0.125469,-2.19718
1470261504140032,0.91438,0.125469,-2.19718
1470261504156546,0.91438,0.125469,-2.19718
1470261504179067,0.914435,0.125322,-2.19726
1470261504207592,0.914485,0.125391,-2.1971
1470261504217103,0.914485,0.125391,-2.1971
1470261504239121,0.914617,0.125344,-2.19716
1470261504261641,0.914617,0.125344,-2.19716
1470261504276655,0.914098,0.125101,-2.19742
1470261504300180,0.913815,0.124733,-2.19766
1470261504329201,0.913315,0.124445,-2.19786
1470261504335708,0.912569,0.124205,-2.1979
1470261504359230,0.91144,0.123967,-2.19821
1470261504389255,0.910303,0.123653,-2.19832
1470261504395762,0.909699,0.123443,-2.1986
1470261504403269,0.909258,0.123299,-2.19884
1470261504424288,0.908534,0.123294,-2.19903
1470261504446807,0.908562,0.123324,-2.19916
1470261504470829,0.908562,0.123324,-2.19916
1470261504484345,0.908485,0.123224,-2.19919
1470261504506863,0.908485,0.123224,-2.19919
1470261504523376,0.908504,0.12318,-2.19913
1470261504544395,0.908504,0.12318,-2.19913
1470261504566933,0.908427,0.12308,-2.19916
1470261504583932,0.909045,0.12315,-2.19931
1470261504604450,0.909503,0.123237,-2.19927
1470261504626985,0.909426,0.123137,-2.19929
1470261504643484,0.909558,0.12309,-2.19935
1470261504664504,0.909558,0.12309,-2.19935
1470261504687025,0.909136,0.122901,-2.19953
1470261504703539,0.909031,0.122771,-2.19942
1470261504724576,0.90905,0.122726,-2.19936
1470261504747077,0.909078,0.122757,-2.19949
1470261504763591,0.909039,0.122371,-2.19896
1470261504784627,0.908886,0.121976,-2.19857
1470261504807132,0.908597,0.121544,-2.19836
1470261504823147,0.90852,0.121444,-2.19839
1470261504844664,0.908262,0.121322,-2.19852
1470261504868687,0.907505,0.120912,-2.19885
1470261504884202,0.906875,0.12067,-2.199
1470261504904719,0.907007,0.120623,-2.19906
1470261504926738,0.906607,0.120668,-2.19939
1470261504949761,0.905912,0.120693,-2.19971
1470261504966276,0.905912,0.120693,-2.19971
1470261504994818,0.905912,0.120693,-2.19971
1470261505003829,0.905912,0.120693,-2.19971
1470261505024344,0.905912,0.120693,-2.19971
1470261505046865,0.906044,0.120646,-2.19976
1470261505063380,0.906044,0.120646,-2.19976
1470261505084407,0.905986,0.120501,-2.19973
1470261505106919,0.905986,0.120501,-2.19973
1470261505124937,0.905986,0.120501,-2.19973
1470261505144453,0.905986,0.120501,-2.19973
1470261505166978,0.905909,0.120401,-2.19976
1470261505184991,0.905909,0.120401,-2.19976
1470261505204506,0.905909,0.120401,-2.19976
1470261505227026,0.905924,0.120052,-2.2
1470261505245054,0.906072,0.119656,-2.20031
1470261505264561,0.906204,0.119609,-2.20036
1470261505287081,0.906204,0.119609,-2.20036
1470261505305097,0.906128,0.119509,-2.20039
1470261505324614,0.906657,0.119113,-2.20042
1470261505347144,0.906956,0.118625,-2.20072
1470261505364650,0.906373,0.118161,-2.20076
1470261505384670,0.906373,0.118161,-2.20076
1470261505406687,0.906297,0.118061,-2.20078
1470261505424704,0.905886,0.117752,-2.20071
1470261505444721,0.905399,0.117342,-2.20066
1470261505469744,0.905399,0.117342,-2.20066
1470261505484761,0.905399,0.117342,-2.20066
1470261505504776,0.905399,0.117342,-2.20066
1470261505526819,0.905294,0.117212,-2.20056
1470261505552319,0.905016,0.116856,-2.20054
1470261505564329,0.904207,0.116396,-2.20035
1470261505586850,0.904131,0.116297,-2.20038
1470261505604866,0.904207,0.116396,-2.20035
1470261505624384,0.904131,0.116297,-2.20038
1470261505646904,0.904131,0.116297,-2.20038
1470261505664922,0.904131,0.116297,-2.20038
1470261505684448,0.904131,0.116297,-2.20038
1470261505714490,0.904205,0.116105,-2.2004
1470261505724987,0.904205,0.116105,-2.2004
1470261505745994,0.904205,0.116105,-2.2004
1470261505767014,0.903679,0.115494,-2.20052
1470261505785531,0.903679,0.115494,-2.20052
1470261505806047,0.903679,0.115494,-2.20052
1470261505827065,0.903391,0.114758,-2.20061
1470261505845087,0.902959,0.11391,-2.2007
1470261505867604,0.902548,0.113102,-2.20049
1470261505887119,0.902128,0.112427,-2.20027
1470261505905139,0.901348,0.111998,-2.20021
1470261505925654,0.900086,0.111439,-2.20032
1470261505947175,0.89887,0.110865,-2.2005
1470261505964689,0.898794,0.110765,-2.20053
1470261505993215,0.898767,0.110735,-2.20039
1470261506006730,0.898291,0.110208,-2.20009
1470261506024743,0.897893,0.110072,-2.19972
1470261506045763,0.897617,0.109814,-2.19921
1470261506067282,0.896916,0.109585,-2.19864
1470261506084800,0.896254,0.109544,-2.19816
1470261506107317,0.896424,0.109507,-2.1976
1470261506126836,0.896264,0.109538,-2.19716
1470261506144850,0.896055,0.1095,-2.19687
1470261506167874,0.896055,0.1095,-2.19687
1470261506186888,0.896055,0.1095,-2.19687
1470261506204907,0.896028,0.109471,-2.19674
1470261506227435,0.895952,0.109371,-2.19676
1470261506254450,0.89597,0.109326,-2.19671
1470261506264959,0.89597,0.109326,-2.19671
1470261506287479,0.89597,0.109326,-2.19671
1470261506306996,0.895894,0.109227,-2.19673
1470261506325045,0.895894,0.109227,-2.19673
1470261506347534,0.895846,0.109156,-2.19689
1470261506367052,0.895837,0.109082,-2.1967
1470261506385069,0.895968,0.109035,-2.19675
1470261506407586,0.895372,0.108922,-2.19655
1470261506428605,0.894823,0.108588,-2.19623
1470261506445120,0.893981,0.108235,-2.1959
1470261506467643,0.89241,0.107526,-2.19535
1470261506487173,0.891181,0.107115,-2.19485
1470261506504675,0.890237,0.106941,-2.19411
1470261506527194,0.889418,0.106938,-2.19318
1470261506547213,0.889241,0.107323,-2.19249
1470261506564728,0.889413,0.107578,-2.19189
1470261506587248,0.889153,0.107981,-2.19148
1470261506617778,0.889118,0.108377,-2.19129
1470261506624784,0.889118,0.108377,-2.19129
1470261506647331,0.889118,0.108377,-2.19129
1470261506667320,0.889118,0.108377,-2.19129
1470261506684840,0.889558,0.107996,-2.1916
1470261506707357,0.889584,0.107718,-2.19204
1470261506728376,0.889854,0.107389,-2.19264
1470261506744965,0.89006,0.107134,-2.19298
1470261506767413,0.890229,0.106982,-2.19317
1470261506788430,0.890153,0.106882,-2.19319
1470261506804972,0.890454,0.106798,-2.1927
1470261506827591,0.890608,0.106906,-2.19171
1470261506854490,0.890743,0.107073,-2.19053
1470261506865000,0.890946,0.107458,-2.18957
1470261506887517,0.891265,0.10813,-2.18868
1470261506908540,0.891158,0.108732,-2.18822
1470261506924050,0.890606,0.109103,-2.18805
1470261506946570,0.890258,0.109425,-2.18841
1470261506969092,0.890313,0.109277,-2.18849
1470261506983606,0.890541,0.10956,-2.18867
1470261507006625,0.891126,0.109788,-2.18912
1470261507029144,0.892023,0.109989,-2.18953
1470261507044158,0.893023,0.110114,-2.18986
1470261507066678,0.893371,0.110176,-2.19039
1470261507089199,0.893285,0.110195,-2.19066
1470261507103711,0.893181,0.110258,-2.191
1470261507126732,0.893361,0.110472,-2.19133
1470261507149754,0.893907,0.110513,-2.1917
1470261507163265,0.894597,0.110665,-2.19208
1470261507186786,0.895212,0.110731,-2.19223
1470261507216816,0.895212,0.110731,-2.19223
1470261507223319,0.895212,0.110731,-2.19223
1470261507246840,0.895212,0.110731,-2.19223
1470261507268860,0.895135,0.110632,-2.19226
1470261507283375,0.895135,0.110632,-2.19226
1470261507306394,0.895135,0.110632,-2.19226
1470261507328914,0.895154,0.110587,-2.1922
1470261507343427,0.895701,0.110436,-2.19212
1470261507366951,0.896071,0.110554,-2.19211
1470261507388969,0.896071,0.110554,-2.19211
1470261507403482,0.896071,0.110554,-2.19211
1470261507426502,0.896535,0.110713,-2.19226
1470261507449022,0.897168,0.110722,-2.19261
1470261507463535,0.898178,0.110632,-2.19318
1470261507486556,0.899339,0.110436,-2.194
1470261507509076,0.900682,0.110264,-2.19472
1470261507530094,0.902526,0.10986,-2.19579
1470261507546609,0.904855,0.109295,-2.19675
1470261507569130,0.907084,0.1087,-2.19711
1470261507590150,0.908089,0.108357,-2.1968
1470261507606664,0.90768,0.108253,-2.19548
1470261507629184,0.907795,0.108272,-2.19366
1470261507650205,0.908009,0.10882,-2.1924
1470261507667219,0.908499,0.109335,-2.1917
1470261507688759,0.909435,0.109765,-2.19126
1470261507717766,0.911396,0.109986,-2.19115
1470261507728341,0.91395,0.110442,-2.1915
1470261507749291,0.916495,0.110729,-2.19216
1470261507770353,0.917942,0.110607,-2.19306
1470261507786825,0.91891,0.110351,-2.19455
1470261507809344,0.919347,0.110192,-2.19631
1470261507830372,0.920245,0.110422,-2.19772
1470261507846881,0.920868,0.110484,-2.19814
1470261507869400,0.919814,0.110054,-2.19846
1470261507890420,0.918418,0.109328,-2.19875
1470261507906432,0.918053,0.108692,-2.19931
1470261507935458,0.91874,0.108391,-2.20005
1470261507950475,0.919047,0.108187,-2.20057
1470261507966989,0.918168,0.1079,-2.20103
1470261507996514,0.916614,0.107592,-2.20176
1470261508011526,0.915843,0.107519,-2.2021
1470261508032545,0.915434,0.107696,-2.20241
1470261508049060,0.914147,0.107775,-2.20221
1470261508079088,0.912775,0.107885,-2.20203
1470261508087095,0.912843,0.108201,-2.20176
1470261508109114,0.913785,0.108418,-2.20156
1470261508131634,0.913785,0.108418,-2.20156
1470261508145647,0.913498,0.108277,-2.2013
1470261508169168,0.913002,0.108083,-2.20101
1470261508191690,0.912658,0.107797,-2.20072
1470261508205701,0.912449,0.107745,-2.20069
1470261508229222,0.912077,0.108421,-2.1991
1470261508252244,0.911687,0.108851,-2.19763
1470261508266256,0.911192,0.108961,-2.19703
1470261508289275,0.910487,0.108923,-2.19689
1470261508311796,0.909679,0.108952,-2.19709
1470261508325817,0.908568,0.109081,-2.19754
1470261508349330,0.907324,0.109257,-2.19792
1470261508371349,0.906469,0.109216,-2.19828
1470261508385867,0.905682,0.109187,-2.19868
1470261508408883,0.9057,0.109142,-2.19862
1470261508431404,0.9057,0.109142,-2.19862
1470261508445916,0.905832,0.109094,-2.19868
1470261508468991,0.905832,0.109094,-2.19868
1470261508491457,0.905832,0.109094,-2.19868
1470261508512492,0.905832,0.109094,-2.19868
1470261508528991,0.906753,0.109064,-2.19859
1470261508559018,0.907476,0.109153,-2.19818
1470261508572530,0.908484,0.109393,-2.19776
1470261508589046,0.909303,0.109536,-2.19726
1470261508611565,0.909892,0.109587,-2.19702
1470261508634089,0.909892,0.109587,-2.19702
1470261508649099,0.909815,0.109488,-2.19705
1470261508671619,0.909948,0.10944,-2.19711
1470261508692640,0.909948,0.10944,-2.19711
1470261508709153,0.909892,0.109587,-2.19702
1470261508731675,0.909406,0.10947,-2.19693
1470261508752694,0.908788,0.109401,-2.19677
1470261508769208,0.908712,0.109301,-2.1968
1470261508797755,0.907988,0.109018,-2.19677
1470261508812763,0.907132,0.108782,-2.19669
1470261508829261,0.906314,0.108444,-2.19675
1470261508851782,0.905971,0.108355,-2.1969
1470261508873304,0.905335,0.108331,-2.19681
1470261508889314,0.905544,0.108382,-2.19684
1470261508911835,0.905107,0.108336,-2.19658
1470261508934358,0.904652,0.108346,-2.19613
1470261508949371,0.904652,0.108346,-2.19613
1470261508971388,0.904784,0.108298,-2.19618
1470261508993909,0.904784,0.108298,-2.19618
1470261509008922,0.90446,0.107958,-2.19609
1470261509031442,0.90446,0.107958,-2.19609
1470261509053965,0.904592,0.10791,-2.19614
1470261509076492,0.904592,0.10791,-2.19614
1470261509091496,0.904184,0.107589,-2.19633
1470261509114037,0.904184,0.107589,-2.19633
1470261509128529,0.904184,0.107589,-2.19633
1470261509152052,0.904237,0.106859,-2.19651
1470261509174071,0.903979,0.106142,-2.197
1470261509188584,0.904718,0.105688,-2.19781
1470261509211606,0.905611,0.105725,-2.19853
1470261509234628,0.905148,0.105745,-2.19907
1470261509248638,0.904685,0.105863,-2.19912
1470261509271658,0.904835,0.10577,-2.19912
1470261509294180,0.90473,0.105653,-2.19875
1470261509315216,0.904825,0.106096,-2.19813
1470261509331712,0.905099,0.105979,-2.1975
1470261509354234,0.904872,0.106275,-2.19722
1470261509368746,0.905004,0.106228,-2.19727
1470261509391767,0.905004,0.106228,-2.19727
1470261509414287,0.905004,0.106228,-2.19727
1470261509435305,0.905004,0.106228,-2.19727
1470261509451822,0.905136,0.10618,-2.19733
1470261509474339,0.905136,0.10618,-2.19733
1470261509495360,0.905136,0.10618,-2.19733
1470261509511380,0.905136,0.10618,-2.19733
1470261509534395,0.905136,0.10618,-2.19733
1470261509555412,0.905109,0.106151,-2.1972
1470261509571427,0.905136,0.10618,-2.19733
1470261509593948,0.905079,0.106036,-2.1973
1470261509615491,0.905497,0.106225,-2.19712
1470261509631488,0.905696,0.106202,-2.19696
1470261509654001,0.905791,0.106353,-2.19638
1470261509675036,0.905507,0.106506,-2.19607
1470261509691535,0.905688,0.106831,-2.19566
1470261509714056,0.906287,0.107042,-2.19538
1470261509735075,0.906287,0.107042,-2.19538
1470261509751593,0.906287,0.107042,-2.19538
1470261509774109,0.906306,0.106997,-2.19532
1470261509795183,0.906438,0.106949,-2.19538
1470261509811643,0.906438,0.106949,-2.19538
1470261509834165,0.906378,0.10621,-2.1957
1470261509855182,0.905911,0.105648,-2.19635
1470261509871697,0.905843,0.104833,-2.19648
1470261509894218,0.906741,0.103973,-2.19661
1470261509916739,0.907815,0.103837,-2.19678
1470261509945263,0.906696,0.104486,-2.19666
1470261509954271,0.907285,0.105228,-2.19558
1470261509976791,0.911813,0.106168,-2.19404
1470261509991804,0.916389,0.10701,-2.19239
1470261510014325,0.917613,0.107392,-2.19151
1470261510036844,0.916711,0.107777,-2.19074
1470261510050860,0.915659,0.108255,-2.18997
1470261510073879,0.915187,0.108798,-2.18996
1470261510096398,0.915111,0.108895,-2.19042
1470261510110912,0.91509,0.108846,-2.19097
1470261510134434,0.915057,0.108429,-2.19138
1470261510156452,0.914249,0.107454,-2.19174
1470261510170966,0.912747,0.106412,-2.1929
1470261510193988,0.911496,0.105611,-2.19419
1470261510224014,0.911103,0.104652,-2.19467
1470261510231020,0.913958,0.105021,-2.19454
1470261510254040,0.916192,0.106131,-2.19364
1470261510276561,0.916378,0.10684,-2.19269
1470261510291076,0.917285,0.106957,-2.19191
1470261510314095,0.917805,0.107594,-2.19085
1470261510336617,0.918507,0.10795,-2.19
1470261510351129,0.919453,0.108162,-2.18981
1470261510374149,0.919453,0.108162,-2.18981
1470261510396668,0.919253,0.108186,-2.18997
1470261510417691,0.918899,0.10822,-2.19037
1470261510434704,0.918317,0.108247,-2.19079
1470261510456722,0.917371,0.108232,-2.19142
1470261510477741,0.91671,0.107869,-2.19193
1470261510494256,0.91644,0.107578,-2.19236
1470261510516777,0.915752,0.107184,-2.19273
1470261510537804,0.915131,0.10702,-2.19306
1470261510554309,0.915055,0.106921,-2.19309
1470261510576374,0.915045,0.106947,-2.19383
1470261510597883,0.914616,0.106869,-2.19451
1470261510613863,0.914894,0.107131,-2.19502
1470261510636385,0.914971,0.10723,-2.195
1470261510657902,0.914971,0.10723,-2.195
1470261510673923,0.914971,0.10723,-2.195
1470261510696438,0.914894,0.107131,-2.19502
1470261510717958,0.914894,0.107131,-2.19502
1470261510733976,0.914894,0.107131,-2.19502
1470261510756523,0.914894,0.107131,-2.19502
1470261510777542,0.914532,0.107087,-2.19523
1470261510794025,0.914532,0.107087,-2.19523
1470261510816547,0.914532,0.107087,-2.19523
1470261510839074,0.914075,0.10699,-2.19552
1470261510853579,0.913502,0.106799,-2.19619
1470261510876599,0.913142,0.106745,-2.19666
1470261510899120,0.912675,0.106476,-2.19725
1470261510914133,0.912047,0.106431,-2.19784
1470261510936654,0.911694,0.105964,-2.1981
1470261510959173,0.911655,0.105472,-2.19832
1470261510974687,0.912462,0.105152,-2.19817
1470261510996707,0.913166,0.105201,-2.19805
1470261511019230,0.912967,0.105913,-2.19736
1470261511033742,0.913112,0.106725,-2.19626
1470261511056761,0.914581,0.107353,-2.19551
1470261511079282,0.916029,0.107442,-2.19492
1470261511093293,0.915536,0.107843,-2.19427
1470261511116816,0.915081,0.107946,-2.19332
1470261511139334,0.915184,0.107879,-2.19299
1470261511153348,0.915184,0.107879,-2.19299
1470261511176868,0.915184,0.107879,-2.19299
1470261511198891,0.915155,0.107754,-2.19334
1470261511213401,0.91524,0.107627,-2.19382
1470261511236422,0.915859,0.107696,-2.19397
1470261511258943,0.915859,0.107696,-2.19397
1470261511273455,0.915802,0.107541,-2.1942
1470261511296476,0.916152,0.107122,-2.19434
1470261511335010,0.916152,0.107122,-2.19434
1470261511340029,0.916152,0.107122,-2.19434
1470261511356532,0.916363,0.107269,-2.19388
1470261511379050,0.916839,0.10732,-2.19353
1470261511400571,0.916839,0.10732,-2.19353
1470261511417087,0.916762,0.107221,-2.19356
1470261511439105,0.916839,0.10732,-2.19353
1470261511460123,0.91636,0.106977,-2.19393
1470261511476638,0.916138,0.106464,-2.19426
1470261511499158,0.916586,0.106286,-2.19501
1470261511520213,0.916109,0.106139,-2.19586
1470261511536694,0.915976,0.106187,-2.1958
1470261511559213,0.916622,0.105893,-2.19521
1470261511580235,0.917089,0.106066,-2.19511
1470261511596746,0.916956,0.106113,-2.19505
1470261511619267,0.917061,0.106036,-2.19497
1470261511640285,0.916612,0.105818,-2.19502
1470261511656799,0.915933,0.105312,-2.19488
1470261511679320,0.915749,0.104802,-2.1946
1470261511700354,0.916314,0.103826,-2.19414
1470261511716854,0.916939,0.102985,-2.19396
1470261511739374,0.915898,0.102436,-2.19404
1470261511760479,0.914754,0.101955,-2.19444
1470261511776408,0.913918,0.10186,-2.19499
1470261511806433,0.91291,0.101526,-2.19589
1470261511821485,0.912777,0.101574,-2.19584
1470261511836461,0.913565,0.101007,-2.1958
1470261511858983,0.914269,0.100461,-2.19605
1470261511881502,0.914577,0.100547,-2.19651
1470261511896515,0.914605,0.100576,-2.19664
1470261511919537,0.913827,0.101605,-2.19632
1470261511947560,0.913426,0.101758,-2.19589
1470261511962575,0.912975,0.101354,-2.19524
1470261511979089,0.913059,0.101333,-2.19496
1470261512001612,0.913114,0.10099,-2.1946
1470261512016122,0.912696,0.101093,-2.19473
1470261512039143,0.912553,0.101272,-2.19466
1470261512061664,0.91242,0.10132,-2.19461
1470261512076175,0.912601,0.101342,-2.1945
1470261512099197,0.912583,0.101387,-2.19456
1470261512121717,0.912601,0.101342,-2.1945
1470261512142762,0.912583,0.101387,-2.19456
1470261512159251,0.912583,0.101387,-2.19456
1470261512181771,0.912601,0.101342,-2.1945
1470261512187344,0.912601,0.101342,-2.1945
1470261512203290,0.912525,0.101242,-2.19453
1470261512224309,0.912579,0.100513,-2.19472
1470261512247330,0.912428,0.0997209,-2.19513
1470261512263345,0.913557,0.09866,-2.19505
1470261512284867,0.915298,0.0986732,-2.19497
1470261512307385,0.913682,0.0996175,-2.19495
1470261512323899,0.910803,0.100202,-2.19546
1470261512344433,0.911145,0.100594,-2.19501
1470261512366946,0.912076,0.101326,-2.19426
1470261512383455,0.911743,0.101504,-2.19362
1470261512407474,0.910944,0.101414,-2.19357
1470261512427004,0.911657,0.101234,-2.19395
1470261512445034,0.91182,0.101206,-2.19439
1470261512464584,0.910919,0.101377,-2.19511
1470261512487049,0.911309,0.100857,-2.1954
1470261512503560,0.912647,0.100139,-2.1953
1470261512524583,0.912664,0.0990129,-2.19522
1470261512547100,0.913774,0.0985002,-2.19658
1470261512563614,0.916521,0.0975942,-2.19756
1470261512590138,0.918272,0.0969911,-2.1971
1470261512608156,0.915962,0.0976527,-2.19644
1470261512623667,0.910413,0.0983691,-2.1961
1470261512644686,0.910342,0.098548,-2.19508
1470261512667208,0.913202,0.0997776,-2.1938
1470261512683723,0.913078,0.100987,-2.19228
1470261512704741,0.910729,0.101392,-2.19134
1470261512726760,0.909808,0.101825,-2.19063
1470261512745285,0.910503,0.102088,-2.19027
1470261512764795,0.912027,0.102458,-2.19034
1470261512787815,0.911942,0.102479,-2.19062
1470261512804831,0.910582,0.102371,-2.19093
1470261512824848,0.909497,0.102035,-2.19137
1470261512846870,0.909011,0.101823,-2.19176
1470261512864885,0.908866,0.100814,-2.19242
1470261512884902,0.909828,0.100572,-2.19322
1470261512908424,0.911323,0.100723,-2.19415
1470261512924940,0.911295,0.100693,-2.19402
1470261512944455,0.910638,0.10063,-2.19422
1470261512967981,0.910638,0.10063,-2.19422
1470261512989496,0.911417,0.100183,-2.19443
1470261513004512,0.911703,0.100031,-2.19474
1470261513027030,0.912167,0.0994146,-2.19456
1470261513045047,0.912853,0.0997989,-2.19445
1470261513072070,0.913318,0.100756,-2.19301
1470261513087584,0.914268,0.101748,-2.19022
1470261513105102,0.915396,0.102579,-2.18789
1470261513124617,0.916113,0.102889,-2.18698
1470261513147138,0.916113,0.102889,-2.18698
1470261513171159,0.915777,0.102575,-2.18763
1470261513184671,0.915757,0.102526,-2.18817
1470261513207192,0.915757,0.102526,-2.18817
1470261513225208,0.915806,0.102595,-2.18801
1470261513244757,0.915493,0.102818,-2.1885
1470261513274752,0.914673,0.10268,-2.189
1470261513285262,0.913662,0.102445,-2.1894
1470261513304844,0.913662,0.102445,-2.1894
1470261513327299,0.914386,0.102434,-2.18948
1470261513345433,0.914518,0.102386,-2.18954
1470261513365850,0.914061,0.10229,-2.18983
1470261513387354,0.914061,0.10229,-2.18983
1470261513404870,0.914586,0.102304,-2.19007
1470261513425888,0.914718,0.102257,-2.19013
1470261513447407,0.914718,0.102257,-2.19013
1470261513472429,0.914767,0.102326,-2.18997
1470261513485943,0.914767,0.102326,-2.18997
1470261513507470,0.914767,0.102326,-2.18997
1470261513524977,0.914795,0.102356,-2.1901
1470261513545996,0.91469,0.102227,-2.18999
1470261513567059,0.91469,0.102227,-2.18999
1470261513585034,0.914384,0.102037,-2.19028
1470261513606050,0.914308,0.101938,-2.19031
1470261513627071,0.91444,0.10189,-2.19037
1470261513645092,0.91444,0.10189,-2.19037
1470261513666103,0.914517,0.101989,-2.19034
1470261513687124,0.914517,0.101989,-2.19034
1470261513705173,0.913576,0.102069,-2.19048
1470261513727659,0.913576,0.102069,-2.19048
1470261513747205,0.914358,0.102203,-2.19059
1470261513765193,0.914376,0.102158,-2.19053
1470261513787712,0.913585,0.102144,-2.19067
1470261513807232,0.913585,0.102144,-2.19067
1470261513832774,0.913644,0.102289,-2.1907
1470261513847767,0.913644,0.102289,-2.1907
1470261513867290,0.912968,0.102272,-2.19095
1470261513885303,0.912323,0.10237,-2.1911
1470261513907320,0.912341,0.102325,-2.19105
1470261513927338,0.912825,0.102149,-2.1912
1470261513944854,0.912843,0.102104,-2.19114
1470261513967376,0.912815,0.102074,-2.19101
1470261513987393,0.912797,0.102119,-2.19106
1470261514004908,0.912825,0.102149,-2.1912
1470261514027429,0.912825,0.102149,-2.1912
1470261514046946,0.912825,0.102149,-2.1912
1470261514064964,0.912769,0.102296,-2.19111
1470261514087483,0.912844,0.102199,-2.19065
1470261514110004,0.9135,0.102272,-2.1902
1470261514125036,0.913482,0.102317,-2.19025
1470261514147599,0.913757,0.102392,-2.19007
1470261514167056,0.915432,0.102171,-2.19002
1470261514185572,0.917737,0.101897,-2.18987
1470261514207627,0.919631,0.101512,-2.1901
1470261514227137,0.921004,0.101103,-2.19034
1470261514245145,0.922349,0.100664,-2.19045
1470261514267645,0.923551,0.100404,-2.1905
1470261514294684,0.924419,0.100225,-2.19039
1470261514305178,0.925029,0.0999265,-2.19042
1470261514327702,0.925106,0.100025,-2.19039
1470261514350221,0.925239,0.0999775,-2.19045
1470261514364731,0.925514,0.0994603,-2.19062
1470261514387251,0.925906,0.099233,-2.19086
1470261514408771,0.925878,0.0992031,-2.19073
1470261514424785,0.925159,0.0989966,-2.19089
1470261514447322,0.924508,0.0985132,-2.19115
1470261514468325,0.924508,0.0985132,-2.19115
1470261514484841,0.924508,0.0985132,-2.19115
1470261514507380,0.924584,0.098612,-2.19112
1470261514528378,0.923965,0.0987411,-2.1914
1470261514544893,0.923335,0.0987942,-2.19149
1470261514567414,0.922839,0.0987995,-2.19163
1470261514595939,0.92198,0.0987621,-2.19198
1470261514604947,0.921084,0.0986191,-2.19201
1470261514627467,0.920347,0.0987583,-2.19192
1470261514649991,0.919709,0.0987356,-2.19182
1470261514665020,0.919709,0.0987356,-2.19182
1470261514687522,0.919709,0.0987356,-2.19182
1470261514709040,0.91966,0.0986664,-2.19198
1470261514730059,0.918602,0.0984561,-2.19205
1470261514746574,0.917849,0.0983407,-2.19233
1470261514769097,0.917849,0.0983407,-2.19233
1470261514790617,0.917849,0.0983407,-2.19233
1470261514806628,0.917315,0.0984464,-2.19234
1470261514829149,0.916011,0.0985774,-2.19219
1470261514851671,0.914943,0.0984977,-2.19225
1470261514866684,0.914181,0.0980152,-2.19239
1470261514889202,0.914181,0.0980152,-2.19239
1470261514903715,0.914197,0.0983666,-2.19153
1470261514926736,0.913826,0.0989372,-2.1907
1470261514949256,0.913312,0.0990938,-2.19015
1470261514963268,0.912731,0.0992268,-2.18983
1470261514986791,0.913445,0.0991415,-2.18972
1470261515016818,0.915298,0.0988566,-2.1898
1470261515023822,0.916795,0.0989059,-2.18981
1470261515046957,0.916795,0.0989059,-2.18981
1470261515069478,0.916529,0.0989067,-2.19018
1470261515083493,0.916376,0.0986138,-2.19073
1470261515106511,0.91713,0.0983329,-2.19125
1470261515129031,0.917835,0.098078,-2.19144
1470261515150053,0.917835,0.098078,-2.19144
1470261515166566,0.917215,0.0979148,-2.19178
1470261515189085,0.916255,0.0977482,-2.19202
1470261515218114,0.915398,0.0977099,-2.19238
1470261515226619,0.914762,0.0975918,-2.19277
1470261515249139,0.914106,0.0972276,-2.19327
1470261515270158,0.913138,0.0968892,-2.19382
1470261515286678,0.911939,0.0968565,-2.19383
1470261515309194,0.911783,0.0967648,-2.19313
1470261515330212,0.911847,0.0970908,-2.19261
1470261515346727,0.911416,0.0973223,-2.1913
1470261515369248,0.911404,0.0976456,-2.19031
1470261515390266,0.911404,0.0976456,-2.19031
1470261515406780,0.911404,0.0976456,-2.19031
1470261515429301,0.911404,0.0976456,-2.19031
1470261515450339,0.911404,0.0976456,-2.19031
1470261515466834,0.911404,0.0976456,-2.19031
1470261515496861,0.912195,0.097855,-2.19061
1470261515510373,0.912195,0.097855,-2.19061
1470261515526888,0.912491,0.0977781,-2.19111
1470261515548908,0.912491,0.0977781,-2.19111
1470261515570507,0.912481,0.0977031,-2.19092
1470261515586941,0.912613,0.0976551,-2.19098
1470261515609462,0.912595,0.0977007,-2.19104
1470261515631482,0.914892,0.0980362,-2.19153
1470261515645995,0.924333,0.0994707,-2.19202
1470261515669016,0.942523,0.104222,-2.19047
1470261515691537,0.968841,0.110548,-2.18545
1470261515706050,0.991811,0.114466,-2.18012
1470261515736576,0.999622,0.116318,-2.17556
1470261515751592,0.997044,0.114444,-2.16366
1470261515772638,0.994946,0.107885,-2.14317
1470261515789125,1.00454,0.0966201,-2.11432
1470261515811644,1.02291,0.0854073,-2.0805
1470261515832706,1.03467,0.075329,-2.04385
1470261515849179,1.04375,0.0645491,-2.00734
1470261515873702,1.05382,0.0525704,-1.97315
1470261515892753,1.06428,0.0402044,-1.94337
1470261515909232,1.07008,0.0288958,-1.91802
1470261515931751,1.07335,0.0200017,-1.89846
1470261515952771,1.07253,0.0132273,-1.88512
1470261515969289,1.07164,0.0108783,-1.87651
1470261515991807,1.07448,0.0116694,-1.87182
1470261516012824,1.07626,0.012845,-1.86972
1470261516029339,1.07506,0.01231,-1.8691
1470261516051861,1.07435,0.0123673,-1.86921
1470261516072886,1.07518,0.014671,-1.86967
1470261516089393,1.07786,0.0184197,-1.86823
1470261516111913,1.07763,0.0222576,-1.86574
1470261516134435,1.07278,0.0255774,-1.86314
1470261516148994,1.06809,0.0278348,-1.8614
1470261516178974,1.06368,0.028939,-1.86136
1470261516193988,1.06054,0.029912,-1.86054
1470261516209502,1.05659,0.0294535,-1.86111
1470261516231521,1.05769,0.0281284,-1.86241
1470261516252540,1.05526,0.0301383,-1.86342
1470261516269055,1.05599,0.0346566,-1.86264
1470261516291575,1.05635,0.037387,-1.86166
1470261516312595,1.05517,0.0392076,-1.86114
1470261516329109,1.05173,0.0383612,-1.86083
1470261516351632,1.05128,0.0365766,-1.85959
1470261516381656,1.05125,0.0367872,-1.85804
1470261516389162,1.05228,0.03806,-1.85787
1470261516417697,1.05158,0.0394684,-1.85943
1470261516432701,1.04707,0.0402857,-1.86314
1470261516449217,1.04162,0.040887,-1.86898
1470261516471737,1.039,0.0431413,-1.8768
1470261516492755,1.0359,0.046567,-1.88614
1470261516508769,1.03218,0.0514137,-1.89669
1470261516531790,1.02755,0.0566861,-1.9088
1470261516554311,1.02091,0.0615483,-1.92318
1470261516568824,1.01513,0.0659513,-1.94022
1470261516591844,1.01044,0.0702977,-1.95862
1470261516614364,1.00477,0.075036,-1.97804
1470261516628377,0.996077,0.07924,-1.99877
1470261516651899,0.987375,0.0837462,-2.02005
1470261516674418,0.978397,0.0884247,-2.04101
1470261516695437,0.970554,0.0914836,-2.06016
1470261516711452,0.964039,0.0943846,-2.07682
1470261516734474,0.959723,0.09777,-2.09196
1470261516755491,0.956807,0.102241,-2.10573
1470261516771528,0.955853,0.10655,-2.11821
1470261516794026,0.956242,0.110693,-2.1283
1470261516815624,0.957675,0.116392,-2.13426
1470261516831560,0.960367,0.125461,-2.13601
1470261516854079,0.964812,0.131235,-2.13715
1470261516875099,0.960171,0.124629,-2.13704
1470261516891614,0.952235,0.119725,-2.13809
1470261516914134,0.959966,0.11906,-2.13886
1470261516935656,0.970635,0.120445,-2.13841
1470261516959174,0.969505,0.12083,-2.13833
1470261516974187,0.96207,0.119694,-2.13912
1470261516995206,0.958791,0.118847,-2.14006
1470261517011721,0.959952,0.118647,-2.1409
1470261517034244,0.961572,0.118576,-2.14151
1470261517055261,0.961705,0.118257,-2.14225
1470261517071776,0.959712,0.118102,-2.14339
1470261517094296,0.957303,0.118066,-2.14398
1470261517115314,0.955865,0.117802,-2.1442
1470261517131829,0.955051,0.117728,-2.14414
1470261517154350,0.954657,0.117672,-2.14396
1470261517175368,0.954625,0.117772,-2.14382
1470261517191882,0.954416,0.118279,-2.14329
1470261517214403,0.953903,0.118563,-2.14299
1470261517235437,0.953903,0.118563,-2.14299
1470261517251938,0.953711,0.118336,-2.14334
1470261517273958,0.953038,0.117948,-2.14378
1470261517295476,0.951389,0.117292,-2.14422
1470261517311490,0.950095,0.116713,-2.14494
1470261517334512,0.948869,0.116144,-2.14569
1470261517356531,0.948002,0.115864,-2.14647
1470261517371545,0.94802,0.115676,-2.1471
1470261517394064,0.947442,0.115532,-2.14814
1470261517415100,0.945868,0.115297,-2.14923
1470261517431598,0.944164,0.115109,-2.15025
1470261517454119,0.943342,0.114803,-2.15137
1470261517476639,0.943714,0.114693,-2.15185
1470261517491652,0.944298,0.114632,-2.15236
1470261517514173,0.944362,0.114219,-2.15288
1470261517536692,0.943634,0.114097,-2.15348
1470261517551708,0.942697,0.114138,-2.15424
1470261517574226,0.942093,0.113888,-2.15471
1470261517596747,0.941473,0.113898,-2.15499
1470261517611760,0.94095,0.113746,-2.15543
1470261517634284,0.941074,0.113619,-2.1553
1470261517656801,0.941074,0.113619,-2.1553
1470261517671313,0.940312,0.113741,-2.15508
1470261517694334,0.940281,0.11364,-2.15451
1470261517716857,0.940742,0.113648,-2.15404
1470261517731368,0.940742,0.113648,-2.15404
1470261517754389,0.940742,0.113648,-2.15404
1470261517776908,0.941533,0.113356,-2.15396
1470261517799429,0.942746,0.113366,-2.15395
1470261517814442,0.943845,0.113166,-2.15407
1470261517836962,0.944688,0.113142,-2.15427
1470261517850977,0.944762,0.113019,-2.15474
1470261517873995,0.94505,0.112945,-2.15524
1470261517896515,0.945524,0.112686,-2.1552
1470261517911528,0.945543,0.11264,-2.15515
1470261517934053,0.945839,0.112231,-2.15522
1470261517956569,0.946322,0.11205,-2.15538
1470261517978116,0.946454,0.112001,-2.15544
1470261517994104,0.945994,0.111791,-2.15548
1470261518017126,0.945933,0.111647,-2.15545
1470261518038144,0.945933,0.111647,-2.15545
1470261518054157,0.945933,0.111647,-2.15545
1470261518076678,0.945994,0.111791,-2.15548
1470261518097722,0.945994,0.111791,-2.15548
1470261518120234,0.945994,0.111791,-2.15548
1470261518136732,0.945994,0.111791,-2.15548
1470261518157770,0.946169,0.11172,-2.15587
1470261518173767,0.945733,0.111535,-2.15629
1470261518196785,0.945121,0.110995,-2.15682
1470261518217808,0.944643,0.110619,-2.15716
1470261518234323,0.944643,0.110619,-2.15716
1470261518256840,0.944643,0.110619,-2.15716
1470261518277937,0.944643,0.110619,-2.15716
1470261518294372,0.944775,0.11057,-2.15722
1470261518316894,0.945231,0.110358,-2.15724
1470261518345428,0.945231,0.110358,-2.15724
1470261518354426,0.944833,0.110079,-2.15755
1470261518376447,0.944118,0.109832,-2.15791
1470261518398056,0.944118,0.109832,-2.15791
1470261518413986,0.944281,0.109623,-2.15699
1470261518436501,0.943655,0.109926,-2.15565
1470261518459021,0.94305,0.110183,-2.15426
1470261518474034,0.94345,0.110259,-2.15351
1470261518496558,0.945327,0.110448,-2.15331
1470261518519576,0.948975,0.110687,-2.15348
1470261518534590,0.953202,0.11134,-2.15373
1470261518556608,0.957032,0.112689,-2.15442
1470261518579128,0.959784,0.113638,-2.15499
1470261518593642,0.959837,0.113144,-2.15601
1470261518616663,0.961055,0.112107,-2.15614
1470261518639183,0.959705,0.111464,-2.15342
1470261518653696,0.956838,0.111917,-2.14944
1470261518676735,0.95975,0.112494,-2.14309
1470261518699237,0.960857,0.110871,-2.1323
1470261518720255,0.960398,0.107144,-2.11824
1470261518736771,0.958948,0.100435,-2.09965
1470261518759293,0.960378,0.0915465,-2.0773
1470261518787815,0.967398,0.0817095,-2.05105
1470261518798340,0.976512,0.0718181,-2.02219
1470261518818848,0.98837,0.0627907,-1.99192
1470261518840379,1.00108,0.0545877,-1.96245
1470261518862886,1.01255,0.046822,-1.93643
1470261518879398,1.01987,0.0386633,-1.91347
1470261518900419,1.02011,0.0304623,-1.89322
1470261518916932,1.0172,0.02323,-1.87597
1470261518939452,1.01711,0.0195239,-1.86317
1470261518961973,1.021,0.0210772,-1.85346
1470261518982992,1.02937,0.0245,-1.84623
1470261518999505,1.0342,0.0277506,-1.84212
1470261519020524,1.03003,0.0296903,-1.84028
1470261519036540,1.02773,0.0298434,-1.83928
1470261519059060,1.0317,0.0309028,-1.83898
1470261519080578,1.03795,0.032568,-1.83963
1470261519096594,1.04217,0.0332062,-1.83972
1470261519119617,1.04102,0.0334852,-1.83934
1470261519140634,1.0371,0.0334088,-1.83872
1470261519156647,1.03343,0.0331414,-1.83767
1470261519186674,1.03264,0.0321588,-1.83738
1470261519200690,1.02871,0.0312918,-1.83846
1470261519222706,1.02647,0.0308558,-1.84035
1470261519239221,1.02957,0.0304577,-1.84259
1470261519260242,1.02779,0.0326921,-1.8429
1470261519276755,1.02898,0.0377294,-1.84146
1470261519299275,1.02621,0.041491,-1.84159
1470261519320310,1.0232,0.0448013,-1.84348
1470261519337309,1.02383,0.0480256,-1.846
1470261519359331,1.02514,0.0494814,-1.84947
1470261519381850,1.0244,0.0484921,-1.85404
1470261519396863,1.02146,0.0462164,-1.8585
1470261519419384,1.01959,0.0448444,-1.8609
1470261519441903,1.02013,0.0443346,-1.86068
1470261519456916,1.0218,0.0473452,-1.86035
1470261519479437,1.02272,0.0511978,-1.86222
1470261519508963,1.02034,0.0538651,-1.86551
1470261519522977,1.01442,0.0549872,-1.87156
1470261519546997,1.00783,0.0563339,-1.88044
1470261519577525,1.00482,0.0582646,-1.89173
1470261519583030,1.00106,0.0607361,-1.90531
1470261519599051,0.995771,0.0638776,-1.9212
1470261519621565,0.990194,0.0672269,-1.93891
1470261519643083,0.985244,0.0701443,-1.95868
1470261519659098,0.979179,0.0731108,-1.97952
1470261519681620,0.972671,0.0760797,-2.00064
1470261519704138,0.967659,0.0801707,-2.02145
1470261519719155,0.9627,0.0855346,-2.04141
1470261519748202,0.95798,0.0915007,-2.06012
1470261519762747,0.953339,0.0969286,-2.07711
1470261519779206,0.949636,0.102692,-2.0924
1470261519802230,0.947982,0.108917,-2.10616
1470261519822745,0.947233,0.116704,-2.11766
1470261519839261,0.944972,0.125435,-2.12684
1470261519861781,0.943313,0.133152,-2.13335
1470261519883801,0.946993,0.135053,-2.13566
1470261519899314,0.939566,0.126898,-2.13354
1470261519935854,0.932997,0.123357,-2.13315
1470261519942854,0.942187,0.121856,-2.13253
1470261519949859,0.949764,0.121432,-2.1327
1470261519964372,0.944346,0.119691,-2.13337
1470261519987393,0.93741,0.117774,-2.13435
1470261520009913,0.937318,0.116704,-2.13468
1470261520024927,0.940864,0.11529,-2.13497
1470261520047449,0.944726,0.11411,-2.13479
1470261520069969,0.945717,0.11302,-2.13463
1470261520084983,0.94491,0.111854,-2.13464
1470261520107501,0.943665,0.111267,-2.135
1470261520129521,0.942892,0.110415,-2.13533
1470261520146037,0.94386,0.109775,-2.13608
1470261520167058,0.946232,0.109362,-2.13648
1470261520189575,0.948942,0.109215,-2.13653
1470261520207591,0.949638,0.108388,-2.13722
1470261520227109,0.949234,0.107213,-2.13828
1470261520249629,0.948854,0.106203,-2.13904
1470261520264643,0.948392,0.105441,-2.13957
1470261520287163,0.947921,0.104803,-2.14035
1470261520309682,0.948392,0.104328,-2.14057
1470261520324695,0.948887,0.103674,-2.14073
1470261520347217,0.948048,0.102802,-2.14128
1470261520369737,0.946716,0.102027,-2.14216
1470261520384753,0.945605,0.101165,-2.14307
1470261520410272,0.94566,0.100461,-2.14365
1470261520429790,0.946993,0.100118,-2.14402
1470261520444803,0.949624,0.0996709,-2.14436
1470261520467325,0.951058,0.0991759,-2.14422
1470261520492347,0.951286,0.0987548,-2.14427
1470261520504858,0.950817,0.0982577,-2.14436
1470261520534886,0.950057,0.0978259,-2.14463
1470261520550402,0.948426,0.0978047,-2.14475
1470261520567416,0.947246,0.0974974,-2.14445
1470261520586933,0.945795,0.097624,-2.14447
1470261520609452,0.944932,0.0974855,-2.14456
1470261520624965,0.944754,0.097125,-2.14491
1470261520646987,0.94448,0.0967215,-2.1451
1470261520678514,0.943671,0.0964358,-2.14528
1470261520685023,0.94186,0.0959836,-2.14532
1470261520707040,0.940207,0.0957175,-2.14555
1470261520729560,0.940207,0.0957175,-2.14555
1470261520744573,0.940714,0.0955564,-2.14609
1470261520770097,0.940714,0.0955564,-2.14609
1470261520789615,0.940662,0.0957033,-2.146
1470261520804627,0.940898,0.0959868,-2.14617
1470261520827149,0.941601,0.0961408,-2.14631
1470261520849669,0.942462,0.09628,-2.14621
1470261520869688,0.943227,0.0965777,-2.14637
1470261520887228,0.943674,0.0964869,-2.14664
1470261520909721,0.94413,0.0964739,-2.1471
1470261520927737,0.944136,0.0963312,-2.14778
1470261520947256,0.944117,0.0959446,-2.14857
1470261520969779,0.944372,0.0955365,-2.14967
1470261520986294,0.944529,0.0952908,-2.15061
1470261521007308,0.944906,0.0951818,-2.15109
1470261521029828,0.945363,0.0951702,-2.15155
1470261521045843,0.945821,0.0951589,-2.15201
1470261521067364,0.946094,0.0951311,-2.15256
1470261521089383,0.946226,0.0950817,-2.15262
1470261521105897,0.946226,0.0950817,-2.15262
1470261521127416,0.946226,0.0950817,-2.15262
1470261521149936,0.946226,0.0950817,-2.15262
1470261521165951,0.946595,0.0953173,-2.15286
1470261521187470,0.946728,0.095268,-2.15292
1470261521209990,0.946728,0.095268,-2.15292
1470261521226005,0.946728,0.095268,-2.15292
1470261521247524,0.946701,0.0952369,-2.15278
1470261521269544,0.946701,0.0952369,-2.15278
1470261521287561,0.947177,0.0951795,-2.15318
1470261521307630,0.947529,0.0952495,-2.15372
1470261521329599,0.947855,0.0952885,-2.15411
1470261521347614,0.947934,0.0953858,-2.15409
1470261521367633,0.947855,0.0952885,-2.15411
1470261521389653,0.947855,0.0952885,-2.15411
1470261521407668,0.948287,0.0952536,-2.15419
1470261521427186,0.948753,0.0953316,-2.15416
1470261521449705,0.949379,0.0953915,-2.15432
1470261521467724,0.950428,0.0953386,-2.15437
1470261521487241,0.951759,0.0953473,-2.1545
1470261521509759,0.952714,0.0950323,-2.15488
1470261521527775,0.954384,0.094745,-2.1554
1470261521547294,0.956893,0.0945756,-2.15546
1470261521569814,0.959566,0.0941802,-2.15553
1470261521587830,0.963155,0.0936982,-2.15609
1470261521607347,0.967439,0.0938498,-2.1561
1470261521629879,0.971894,0.0949071,-2.15551
1470261521647383,0.97472,0.096015,-2.15496
1470261521667402,0.974709,0.0967752,-2.1542
1470261521689925,0.972616,0.0973342,-2.15322
1470261521707439,0.969789,0.0979131,-2.15239
1470261521727455,0.96843,0.0981646,-2.15181
1470261521749975,0.969248,0.0980348,-2.15145
1470261521767493,0.970518,0.0978201,-2.15137
1470261521787509,0.971042,0.0975421,-2.15168
1470261521810029,0.970838,0.0969459,-2.1519
1470261521827549,0.969647,0.0966304,-2.1516
1470261521847076,0.968457,0.0965288,-2.1508
1470261521869585,0.967818,0.0965981,-2.15063
1470261521887599,0.96867,0.0967871,-2.15059
1470261521910620,0.968812,0.0970281,-2.15059
1470261521929637,0.96756,0.0965694,-2.15026
1470261521947655,0.965617,0.0963186,-2.1506
1470261521968674,0.964348,0.0961137,-2.15075
1470261521989691,0.964348,0.0961137,-2.15075
1470261522007707,0.963879,0.0958304,-2.15035
1470261522028726,0.963879,0.0958304,-2.15035
1470261522049748,0.963799,0.0957336,-2.15038
1470261522067761,0.963799,0.0957336,-2.15038
1470261522088780,0.963808,0.0956071,-2.15014
1470261522109800,0.962647,0.0957421,-2.15015
1470261522127815,0.961859,0.0956978,-2.15022
1470261522155840,0.961416,0.0958591,-2.15038
1470261522169852,0.960593,0.0959094,-2.15055
1470261522187368,0.959867,0.0960092,-2.15065
1470261522208887,0.959363,0.0960261,-2.15079
1470261522229906,0.959363,0.0960261,-2.15079
1470261522247422,0.959363,0.0960261,-2.15079
1470261522269943,0.959363,0.0960261,-2.15079
1470261522289960,0.959363,0.0960261,-2.15079
1470261522312480,0.959363,0.0960261,-2.15079
1470261522329996,0.959363,0.0960261,-2.15079
1470261522350015,0.959018,0.0962369,-2.15087
1470261522367532,0.958594,0.0963507,-2.15098
1470261522390051,0.957938,0.096464,-2.15111
1470261522410568,0.957938,0.096464,-2.15111
1470261522432089,0.957938,0.096464,-2.15111
1470261522450105,0.957938,0.096464,-2.15111
1470261522469628,0.957938,0.096464,-2.15111
1470261522486638,0.957938,0.096464,-2.15111
1470261522509157,0.958407,0.0967507,-2.15126
1470261522530175,0.958389,0.0967979,-2.15131
1470261522546692,0.957708,0.0970887,-2.15149
1470261522569213,0.956913,0.0971697,-2.1518
1470261522590730,0.956913,0.0971697,-2.1518
1470261522606745,0.956913,0.0971697,-2.1518
1470261522629265,0.956913,0.0971697,-2.1518
1470261522650785,0.956913,0.0971697,-2.1518
1470261522666801,0.956913,0.0971697,-2.1518
1470261522689319,0.956453,0.0973824,-2.15177
1470261522710340,0.956302,0.0974788,-2.15176
1470261522726853,0.956621,0.0974459,-2.15173
1470261522748873,0.957407,0.0974906,-2.15166
1470261522770392,0.958,0.0976496,-2.15168
1470261522786906,0.958,0.0976496,-2.15168
1470261522809428,0.957725,0.0978738,-2.1518
1470261522830446,0.957035,0.097874,-2.15204
1470261522846961,0.957035,0.097874,-2.15204
1470261522869483,0.95693,0.0979547,-2.15211
1470261522890499,0.95693,0.0979547,-2.15211
1470261522907014,0.95693,0.0979547,-2.15211
1470261522929535,0.956426,0.0979712,-2.15225
1470261522950556,0.955887,0.0980868,-2.15225
1470261522967068,0.955869,0.0981338,-2.1523
1470261522989588,0.955869,0.0981338,-2.1523
1470261523010607,0.955869,0.0981338,-2.1523
1470261523026622,0.955869,0.0981338,-2.1523
1470261523049142,0.956002,0.0980847,-2.15236
1470261523070662,0.955869,0.0981338,-2.1523
1470261523086677,0.955869,0.0981338,-2.1523
1470261523109197,0.955869,0.0981338,-2.1523
1470261523130215,0.956081,0.0981817,-2.15234
1470261523146730,0.956081,0.0981817,-2.15234
1470261523169251,0.956081,0.0981817,-2.15234
1470261523191770,0.956081,0.0981817,-2.15234
1470261523206784,0.956081,0.0981817,-2.15234
1470261523229304,0.955948,0.0982309,-2.15227
1470261523251827,0.955948,0.0982309,-2.15227
1470261523266839,0.955948,0.0982309,-2.15227
1470261523289358,0.955948,0.0982309,-2.15227
1470261523311878,0.955577,0.0981981,-2.15247
1470261523325891,0.955445,0.0982473,-2.15241
1470261523349412,0.955445,0.0982473,-2.15241
1470261523371932,0.955445,0.0982473,-2.15241
1470261523394454,0.955445,0.0982473,-2.15241
1470261523409466,0.955445,0.0982473,-2.15241
1470261523431985,0.955445,0.0982473,-2.15241
1470261523446499,0.955445,0.0982473,-2.15241
1470261523477026,0.955445,0.0982473,-2.15241
1470261523492040,0.955365,0.0981502,-2.15244
1470261523506054,0.955383,0.0981032,-2.15238
1470261523529573,0.955365,0.0981502,-2.15244
1470261523552095,0.955383,0.0981032,-2.15238
1470261523566111,0.955383,0.0981032,-2.15238
1470261523589627,0.955383,0.0981032,-2.15238
1470261523611647,0.955383,0.0981032,-2.15238
1470261523626160,0.955692,0.0979919,-2.15216
1470261523649181,0.955692,0.0979919,-2.15216
1470261523671701,0.955692,0.0979919,-2.15216
1470261523692749,0.955559,0.0980411,-2.1521
1470261523709235,0.955559,0.0980411,-2.1521
1470261523731756,0.955507,0.0979755,-2.15226
1470261523752776,0.955507,0.0979755,-2.15226
1470261523769292,0.955525,0.0979284,-2.1522
1470261523791810,0.955127,0.0978642,-2.15227
1470261523821836,0.954544,0.0973676,-2.15225
1470261523829342,0.953917,0.0973079,-2.15208
1470261523851866,0.954902,0.0977049,-2.14883
1470261523872885,0.955727,0.0982484,-2.14539
1470261523889398,0.955022,0.0984639,-2.14315
1470261523912918,0.953429,0.0983647,-2.14223
1470261523932935,0.952698,0.0983893,-2.14214
1470261523949451,0.952608,0.0984175,-2.14241
1470261523979477,0.952569,0.0985025,-2.14319
1470261523992989,0.952784,0.0984036,-2.14415
