timestamp,x,y,z,w
1470344759340839,-0.263977,0.0897827,-0.451721,0.847473
1470344759363861,-0.265991,0.0895386,-0.451721,0.846863
1470344759378874,-0.269348,0.0892334,-0.451233,0.846069
1470344759400893,-0.273071,0.0888672,-0.450439,0.845337
1470344759422417,-0.275208,0.088501,-0.449646,0.845154
1470344759438437,-0.275208,0.0879517,-0.44928,0.845398
1470344759461459,-0.27417,0.0875244,-0.449402,0.845703
1470344759482477,-0.274048,0.0875854,-0.449402,0.845703
1470344759498491,-0.274658,0.0882568,-0.449036,0.845642
1470344759521516,-0.27533,0.0888062,-0.448547,0.845642
1470344759542536,-0.27356,0.0889282,-0.448547,0.846191
1470344759559050,-0.269897,0.0894775,-0.448792,0.847168
1470344759581570,-0.266541,0.0894775,-0.448853,0.848206
1470344759602589,-0.266357,0.0894775,-0.448425,0.848511
1470344759618603,-0.268066,0.0897217,-0.44751,0.848389
1470344759641624,-0.269897,0.0900269,-0.446838,0.848145
1470344759662643,-0.270081,0.0900269,-0.446533,0.848267
1470344759678659,-0.271545,0.0897217,-0.446716,0.847717
1470344759701178,-0.27533,0.0897827,-0.446411,0.84668
1470344759723698,-0.280579,0.0897827,-0.44519,0.845581
1470344759738211,-0.283997,0.0891113,-0.443176,0.845581
1470344759761264,-0.286377,0.0880737,-0.440735,0.846191
1470344759783285,-0.290466,0.0869751,-0.437256,0.84668
1470344759798298,-0.29657,0.0866089,-0.432373,0.847107
1470344759821318,-0.300354,0.086853,-0.424805,0.849548
1470344759843843,-0.302002,0.0864868,-0.414429,0.854126
1470344759857870,-0.305542,0.0870361,-0.399902,0.859741
1470344759880890,-0.311951,0.0875244,-0.381897,0.86554
1470344759903910,-0.317627,0.0869751,-0.362244,0.871948
1470344759918924,-0.32135,0.0845337,-0.342346,0.878845
1470344759941449,-0.324219,0.0806885,-0.322571,0.88562
1470344759963974,-0.327515,0.0766602,-0.302734,0.891724
1470344759977989,-0.330933,0.0716553,-0.283936,0.897095
1470344760001009,-0.334473,0.0668335,-0.266541,0.901428
1470344760024029,-0.33728,0.0623169,-0.250977,0.905151
1470344760045053,-0.340576,0.0584717,-0.23761,0.907837
1470344760061076,-0.342712,0.0559692,-0.226746,0.909912
1470344760083095,-0.343567,0.0551147,-0.218506,0.911682
1470344760105114,-0.345886,0.0549927,-0.212646,0.912231
1470344760136143,-0.349976,0.0543213,-0.209167,0.911499
1470344760143656,-0.353333,0.0524902,-0.207581,0.910645
1470344760181197,-0.354126,0.0496216,-0.207764,0.910461
1470344760184199,-0.354797,0.0472412,-0.209167,0.910034
1470344760203217,-0.355835,0.0466309,-0.210327,0.909363
1470344760232243,-0.358154,0.046814,-0.210938,0.908325
1470344760241259,-0.360413,0.0474854,-0.211731,0.907166
1470344760263284,-0.359619,0.0478516,-0.212708,0.907288
1470344760286306,-0.357117,0.0473022,-0.212952,0.908203
1470344760301319,-0.355713,0.0465088,-0.212463,0.908936
1470344760323338,-0.355774,0.0467529,-0.211243,0.90918
1470344760345865,-0.355225,0.0480347,-0.209839,0.909668
1470344760361386,-0.352844,0.0499878,-0.208557,0.910767
1470344760383404,-0.350281,0.0512695,-0.207703,0.911865
1470344760404425,-0.348694,0.0516357,-0.207703,0.912476
1470344760421440,-0.348267,0.0517578,-0.207642,0.912659
1470344760443965,-0.347351,0.0519409,-0.207764,0.912964
1470344760464983,-0.345581,0.0523682,-0.20752,0.913635
1470344760481498,-0.343445,0.0526733,-0.207397,0.91449
1470344760503519,-0.342163,0.0530396,-0.207031,0.914978
1470344760525037,-0.341309,0.0535278,-0.206787,0.915344
1470344760541553,-0.341919,0.0536499,-0.206665,0.915161
1470344760565074,-0.343445,0.0534668,-0.206299,0.914673
1470344760585092,-0.343811,0.0531616,-0.205811,0.914673
1470344760601106,-0.342102,0.053833,-0.20575,0.915283
1470344760623626,-0.340942,0.0558472,-0.205383,0.915649
1470344760646147,-0.340027,0.0583496,-0.204834,0.915955
1470344760661160,-0.340393,0.05896,-0.204956,0.915771
1470344760683681,-0.342651,0.0580444,-0.2052,0.914917
1470344760706201,-0.343811,0.0567017,-0.204773,0.914673
1470344760723216,-0.343079,0.0560303,-0.204224,0.9151
1470344760743735,-0.342102,0.0557251,-0.204041,0.915527
1470344760766255,-0.341675,0.0559692,-0.203918,0.91571
1470344760781268,-0.341003,0.0565186,-0.203369,0.916016
1470344760803788,-0.340088,0.0571289,-0.202393,0.916565
1470344760826532,-0.341187,0.0571289,-0.202087,0.916199
1470344760841044,-0.34491,0.0564575,-0.201965,0.914856
1470344760864566,-0.348328,0.055481,-0.201355,0.913757
1470344760886584,-0.349548,0.0540771,-0.2005,0.913574
1470344760900599,-0.348511,0.0526733,-0.200439,0.914063
1470344760923618,-0.347534,0.0510864,-0.200684,0.91449
1470344760946145,-0.347717,0.0498657,-0.200684,0.91449
1470344760960155,-0.346252,0.0500488,-0.200378,0.9151
1470344760983177,-0.346008,0.0514526,-0.199951,0.915222
1470344761006197,-0.347656,0.0523682,-0.199707,0.914612
1470344761020211,-0.348511,0.0517578,-0.19989,0.914246
1470344761043763,-0.348022,0.0513306,-0.200134,0.914429
1470344761066179,-0.347351,0.0511475,-0.200073,0.914734
1470344761080206,-0.347778,0.0511475,-0.199402,0.914673
1470344761103242,-0.3479,0.0512085,-0.198914,0.914734
1470344761126234,-0.348083,0.0512085,-0.19873,0.914734
1470344761147354,-0.348755,0.0509644,-0.198425,0.914551
1470344761171348,-0.349304,0.0509033,-0.198242,0.914368
1470344761186361,-0.349609,0.0514526,-0.197632,0.914368
1470344761207444,-0.350586,0.052124,-0.197021,0.914063
1470344761231478,-0.351013,0.0526123,-0.196899,0.91394
1470344761245521,-0.350708,0.0529785,-0.196838,0.914001
1470344761274601,-0.350708,0.0532837,-0.196899,0.914001
1470344761283553,-0.351196,0.0531616,-0.197205,0.913757
1470344761305572,-0.351746,0.0529785,-0.197571,0.913452
1470344761327605,-0.352356,0.0531006,-0.198181,0.913086
1470344761343693,-0.353149,0.0531006,-0.198608,0.912659
1470344761365771,-0.353821,0.0529175,-0.198853,0.912415
1470344761386793,-0.354004,0.0527344,-0.199097,0.912292
1470344761403807,-0.353821,0.0526733,-0.199158,0.912292
1470344761425826,-0.354919,0.0527344,-0.198975,0.911926
1470344761447635,-0.355042,0.0531006,-0.199463,0.911743
1470344761463652,-0.354553,0.0534668,-0.199402,0.911926
1470344761485685,-0.354492,0.0534668,-0.199402,0.911926
1470344761508690,-0.354797,0.0534668,-0.199524,0.911804
1470344761523703,-0.354797,0.0534668,-0.199524,0.911804
1470344761545228,-0.354492,0.0532227,-0.199463,0.911987
1470344761566745,-0.354126,0.0531616,-0.199585,0.912109
1470344761583730,-0.354309,0.0531006,-0.199524,0.912048
1470344761605747,-0.354675,0.0530396,-0.199524,0.911926
1470344761628770,-0.355225,0.0529175,-0.199158,0.911743
1470344761643788,-0.355896,0.0524292,-0.19873,0.911621
1470344761665813,-0.355591,0.0517578,-0.198242,0.911926
1470344761688834,-0.355408,0.0514526,-0.197571,0.912109
1470344761703850,-0.35498,0.0512085,-0.197205,0.912354
1470344761725870,-0.354431,0.0513306,-0.197205,0.912598
1470344761748935,-0.354065,0.0518799,-0.197144,0.91272
1470344761769986,-0.353516,0.0527954,-0.197021,0.912903
1470344761785987,-0.352478,0.053894,-0.196655,0.91333
1470344761808991,-0.351257,0.0547485,-0.19635,0.913818
1470344761823001,-0.350037,0.0554199,-0.19574,0.914368
1470344761845563,-0.348877,0.055603,-0.195068,0.914917
1470344761868749,-0.347046,0.0559692,-0.194824,0.915649
1470344761882748,-0.344116,0.0564575,-0.195435,0.916626
1470344761905769,-0.342285,0.0565186,-0.196228,0.917114
1470344761928790,-0.341736,0.0569458,-0.196594,0.917236
1470344761943315,-0.341248,0.057373,-0.19635,0.917419
1470344761966345,-0.340637,0.0577393,-0.195251,0.917847
1470344761988368,-0.342407,0.0582886,-0.194641,0.917297
1470344762009417,-0.346802,0.0592041,-0.19397,0.91571
1470344762026397,-0.350464,0.0599976,-0.193176,0.914429
1470344762048510,-0.352173,0.0608521,-0.19281,0.913818
1470344762069546,-0.351257,0.0610352,-0.192932,0.914124
1470344762086521,-0.351135,0.0610962,-0.191711,0.914429
1470344762114580,-0.351624,0.0609131,-0.190125,0.914612
1470344762129626,-0.352234,0.0604858,-0.188599,0.914734
1470344762146090,-0.352295,0.0596313,-0.1875,0.914978
1470344762176230,-0.352539,0.0582275,-0.186523,0.915161
1470344762189280,-0.353577,0.0565186,-0.185303,0.9151
1470344762206294,-0.35553,0.0543823,-0.183899,0.914795
1470344762228274,-0.356628,0.0513916,-0.1828,0.914734
1470344762249866,-0.355469,0.0497437,-0.182068,0.915405
1470344762265871,-0.352417,0.0494385,-0.181091,0.916809
1470344762288916,-0.350342,0.0497437,-0.180237,0.917786
1470344762309913,-0.349731,0.0499268,-0.180176,0.917969
1470344762325925,-0.348572,0.0497437,-0.180908,0.918335
1470344762349013,-0.346924,0.0496826,-0.18158,0.918823
1470344762370032,-0.34552,0.0495605,-0.181702,0.919312
1470344762386057,-0.344849,0.0494995,-0.181274,0.919617
1470344762409068,-0.343445,0.0491943,-0.180725,0.920288
1470344762430085,-0.34137,0.0493164,-0.180298,0.921143
1470344762446108,-0.339417,0.0502319,-0.180298,0.921814
1470344762469132,-0.338623,0.0512085,-0.180176,0.922058
1470344762490151,-0.33844,0.0515137,-0.180054,0.92218
1470344762506167,-0.337708,0.0518188,-0.180054,0.922424
1470344762529186,-0.33728,0.0528564,-0.180176,0.922485
1470344762550235,-0.337036,0.0541992,-0.180298,0.922485
1470344762566249,-0.336731,0.0552368,-0.179932,0.922546
1470344762588271,-0.335999,0.0557861,-0.179749,0.922852
1470344762611289,-0.334961,0.0563965,-0.179993,0.923157
1470344762626303,-0.333313,0.0574951,-0.179993,0.923645
1470344762649076,-0.33197,0.0588989,-0.179565,0.924133
1470344762671125,-0.331421,0.0594482,-0.179382,0.924377
1470344762686111,-0.332642,0.0597534,-0.179199,0.923889
1470344762709132,-0.335022,0.0600586,-0.178955,0.923096
1470344762731170,-0.336853,0.0595703,-0.179321,0.922424
1470344762745692,-0.337097,0.0592651,-0.17926,0.922302
1470344762768274,-0.338013,0.059021,-0.179321,0.921997
1470344762791291,-0.339661,0.0585327,-0.179199,0.921448
1470344762805360,-0.341431,0.0579224,-0.179138,0.920837
1470344762828323,-0.34259,0.057373,-0.179016,0.920471
1470344762851408,-0.343628,0.0571289,-0.178894,0.920105
1470344762865447,-0.343933,0.0567627,-0.179016,0.919983
1470344762888458,-0.344116,0.0566406,-0.179138,0.919922
1470344762911463,-0.344666,0.0565796,-0.179321,0.919678
1470344762925475,-0.344727,0.0566406,-0.179688,0.919556
1470344762948108,-0.344604,0.0568848,-0.179871,0.919556
1470344762971128,-0.344604,0.0568848,-0.179871,0.919617
1470344762985139,-0.34491,0.0569458,-0.179871,0.919434
1470344763008160,-0.345825,0.0568848,-0.179932,0.919128
1470344763031181,-0.346802,0.0565796,-0.179932,0.918762
1470344763045734,-0.346985,0.0563354,-0.180176,0.91864
1470344763068812,-0.347107,0.0563965,-0.180298,0.918579
1470344763090832,-0.347107,0.0565186,-0.18042,0.918579
1470344763111851,-0.347229,0.0563354,-0.18042,0.918518
1470344763128866,-0.347839,0.0558472,-0.180603,0.918274
1470344763150943,-0.34845,0.055542,-0.181213,0.917969
1470344763171991,-0.348511,0.0558472,-0.181885,0.917786
1470344763188959,-0.348694,0.0563965,-0.182251,0.917603
1470344763210984,-0.349182,0.0570068,-0.182617,0.917297
1470344763234007,-0.349304,0.0575562,-0.183044,0.917114
1470344763248840,-0.349121,0.0580444,-0.183594,0.917053
1470344763278867,-0.348999,0.0588379,-0.184143,0.916931
1470344763291906,-0.348755,0.0593262,-0.184692,0.91687
1470344763308895,-0.348511,0.0595703,-0.185059,0.916931
1470344763330917,-0.348267,0.0596313,-0.185486,0.916931
1470344763360032,-0.347961,0.0595703,-0.185791,0.916992
1470344763368999,-0.347839,0.0596313,-0.185791,0.916992
1470344763391019,-0.347839,0.0596313,-0.18573,0.916992
1470344763412039,-0.347778,0.0594482,-0.185547,0.917114
1470344763429053,-0.347839,0.059082,-0.185486,0.917114
1470344763434074,-0.348145,0.0588379,-0.185547,0.916992
1470344763456102,-0.348267,0.0585327,-0.185547,0.916992
1470344763479121,-0.348267,0.0580444,-0.185547,0.916992
1470344763494133,-0.348389,0.0576172,-0.185425,0.916992
1470344763516153,-0.348083,0.057312,-0.185364,0.917175
1470344763539198,-0.347534,0.057251,-0.185181,0.917419
1470344763553813,-0.346497,0.0575562,-0.184875,0.917847
1470344763576847,-0.344482,0.0584106,-0.184326,0.91864
1470344763598893,-0.343384,0.0588379,-0.183716,0.919128
1470344763613904,-0.344177,0.0583496,-0.18335,0.918945
1470344763636878,-0.345581,0.0578613,-0.183228,0.918457
1470344763659028,-0.346008,0.057251,-0.183228,0.918396
1470344763674127,-0.345459,0.0565796,-0.183228,0.91864
1470344763696057,-0.344849,0.0561523,-0.18335,0.918823
1470344763719080,-0.344666,0.055603,-0.183411,0.918945
1470344763734620,-0.344238,0.055603,-0.183411,0.919067
1470344763756701,-0.343567,0.0565796,-0.183044,0.919373
1470344763778690,-0.342957,0.0571899,-0.182861,0.919617
1470344763794736,-0.342896,0.0574341,-0.183044,0.919556
1470344763816812,-0.34314,0.0578613,-0.182434,0.919556
1470344763839289,-0.343628,0.057373,-0.182007,0.919495
1470344763853764,-0.343201,0.0568237,-0.181702,0.919739
1470344763876785,-0.341492,0.0565796,-0.181519,0.92041
1470344763898835,-0.339417,0.0570068,-0.181641,0.921143
1470344763913817,-0.338318,0.0591431,-0.181641,0.921448
1470344763936882,-0.336975,0.0623779,-0.181641,0.921692
1470344763958977,-0.336365,0.0663452,-0.179626,0.922058
1470344763974009,-0.335632,0.0668945,-0.177368,0.922729
1470344763997015,-0.3349,0.0646362,-0.17688,0.923218
1470344764019013,-0.334473,0.0634155,-0.178223,0.923218
1470344764034592,-0.334412,0.0629272,-0.178833,0.923157
1470344764056157,-0.336304,0.0630493,-0.178528,0.922485
1470344764082177,-0.339722,0.0626831,-0.17804,0.921387
1470344764094187,-0.341553,0.0616455,-0.177979,0.920776
1470344764116206,-0.34137,0.060791,-0.177734,0.920959
1470344764139291,-0.34198,0.0595093,-0.177917,0.920776
1470344764155313,-0.343872,0.0588379,-0.178162,0.920044
1470344764176365,-0.34552,0.0584717,-0.178772,0.919373
1470344764199392,-0.346802,0.0581665,-0.179199,0.918823
1470344764216363,-0.348083,0.0578003,-0.179749,0.918213
1470344764237005,-0.347656,0.057251,-0.180786,0.918213
1470344764259536,-0.347229,0.0570679,-0.181458,0.918274
1470344764275550,-0.347839,0.0568237,-0.181274,0.918091
1470344764296614,-0.348083,0.0566406,-0.181091,0.91803
1470344764319588,-0.347473,0.0565796,-0.181274,0.918274
1470344764335623,-0.3479,0.0567627,-0.181763,0.917969
1470344764356519,-0.347717,0.0571289,-0.1828,0.917847
1470344764379508,-0.345825,0.0582886,-0.184326,0.918152
1470344764395514,-0.343933,0.0604858,-0.185974,0.918396
1470344764416531,-0.343018,0.0625,-0.186951,0.918396
1470344764439557,-0.343018,0.06427,-0.187378,0.918213
1470344764462613,-0.343079,0.0649414,-0.186829,0.918213
1470344764476628,-0.340576,0.0649414,-0.186035,0.919312
1470344764498647,-0.338318,0.0641479,-0.186584,0.920105
1470344764516663,-0.339355,0.0639648,-0.187134,0.919617
1470344764537190,-0.342896,0.0628662,-0.186035,0.918579
1470344764558728,-0.344177,0.060791,-0.184448,0.918579
1470344764576725,-0.344177,0.0581055,-0.18396,0.918884
1470344764596746,-0.343933,0.0574341,-0.184143,0.918945
1470344764618791,-0.345154,0.0578003,-0.184631,0.918396
1470344764637287,-0.346497,0.0577393,-0.184204,0.917969
1470344764656407,-0.345642,0.0571289,-0.183228,0.918518
1470344764679482,-0.34314,0.0563965,-0.183533,0.919434
1470344764697446,-0.342224,0.0562744,-0.183228,0.919861
1470344764716464,-0.343018,0.0559692,-0.1828,0.919617
1470344764739577,-0.343994,0.0553589,-0.182312,0.919434
1470344764757090,-0.344482,0.0545654,-0.181946,0.919373
1470344764776126,-0.343628,0.0540771,-0.181885,0.919739
1470344764799161,-0.343079,0.0543823,-0.182129,0.919861
1470344764817144,-0.342529,0.0551147,-0.183105,0.9198
1470344764838211,-0.342163,0.0563354,-0.183411,0.919861
1470344764858886,-0.341614,0.057373,-0.183533,0.919922
1470344764876936,-0.340454,0.0576172,-0.183716,0.920349
1470344764896879,-0.338806,0.0576782,-0.183411,0.920959
1470344764918954,-0.336853,0.057251,-0.182434,0.921936
1470344764937477,-0.335327,0.0562134,-0.181763,0.922668
1470344764956542,-0.334412,0.0558472,-0.182129,0.922974
1470344764979521,-0.334778,0.0558472,-0.183105,0.922607
1470344764997537,-0.336487,0.0557861,-0.183105,0.921997
1470344765016589,-0.338745,0.0552368,-0.182434,0.921387
1470344765039712,-0.339172,0.0543213,-0.182251,0.921265
1470344765057178,-0.339539,0.0535278,-0.182251,0.921204
1470344765078188,-0.340942,0.0523071,-0.181335,0.920898
1470344765099235,-0.342285,0.0500488,-0.180786,0.920654
1470344765117281,-0.342834,0.0487671,-0.180298,0.920654
1470344765138300,-0.343872,0.0489502,-0.180664,0.920166
1470344765158855,-0.345154,0.0499878,-0.181702,0.919434
1470344765176872,-0.346558,0.0518188,-0.182007,0.918701
1470344765197892,-0.34668,0.0534058,-0.18103,0.918762
1470344765218943,-0.345581,0.0534058,-0.180237,0.919373
1470344765237534,-0.34613,0.0526733,-0.179871,0.91925
1470344765258088,-0.346985,0.0519409,-0.179443,0.919067
1470344765279112,-0.34729,0.0513916,-0.179749,0.918884
1470344765305173,-0.3479,0.0516357,-0.180176,0.918579
1470344765318144,-0.348145,0.0518799,-0.180115,0.918518
1470344765342225,-0.348389,0.0515747,-0.180359,0.918396
1470344765357302,-0.348022,0.0513306,-0.180237,0.918518
1470344765378262,-0.346741,0.0510864,-0.180237,0.919067
1470344765399280,-0.346313,0.0512695,-0.180176,0.919189
1470344765417298,-0.346924,0.0513306,-0.180054,0.919006
1470344765439834,-0.34729,0.0513306,-0.179993,0.918884
1470344765466375,-0.347412,0.0509033,-0.179993,0.918823
1470344765477384,-0.347229,0.050415,-0.180176,0.918945
1470344765507435,-0.346924,0.0499878,-0.18042,0.919006
1470344765519421,-0.347351,0.0496826,-0.180237,0.918884
1470344765537511,-0.347595,0.0494385,-0.180054,0.918823
1470344765559520,-0.347351,0.0494995,-0.17981,0.919006
1470344765579537,-0.347046,0.0497437,-0.17981,0.919128
1470344765597553,-0.346985,0.0501709,-0.179688,0.919128
1470344765619574,-0.34668,0.0505371,-0.179565,0.91925
1470344765639597,-0.346069,0.0508423,-0.179626,0.919434
1470344765657282,-0.345093,0.0512695,-0.179749,0.919739
1470344765679245,-0.344238,0.0516968,-0.179871,0.920044
1470344765699261,-0.343628,0.0527344,-0.180359,0.920105
1470344765726287,-0.34259,0.0539551,-0.180542,0.920349
1470344765747355,-0.341003,0.055603,-0.180969,0.920776
1470344765759465,-0.339905,0.0576172,-0.180725,0.921143
1470344765777479,-0.338257,0.059021,-0.180603,0.921692
1470344765799499,-0.336609,0.0595093,-0.179626,0.922424
1470344765819518,-0.334656,0.0591431,-0.179443,0.923218
1470344765837039,-0.333679,0.0581665,-0.180359,0.923401
1470344765859962,-0.334534,0.0571289,-0.181152,0.923035
1470344765880013,-0.33844,0.0559692,-0.181213,0.921692
1470344765896996,-0.343201,0.0551147,-0.180847,0.920044
1470344765920128,-0.345154,0.0539551,-0.181396,0.91925
1470344765940069,-0.343994,0.0533447,-0.183044,0.919434
1470344765956098,-0.341553,0.053772,-0.185547,0.9198
1470344765979120,-0.33905,0.0552979,-0.186951,0.920349
1470344766000138,-0.337646,0.0568237,-0.186523,0.920837
1470344766016154,-0.33844,0.0570679,-0.184692,0.920898
1470344766038681,-0.338806,0.0557251,-0.184021,0.920959
1470344766060019,-0.33844,0.0546875,-0.184387,0.921082
1470344766076003,-0.339294,0.0547485,-0.184143,0.920837
1470344766099023,-0.340759,0.0542603,-0.183533,0.920471
1470344766123045,-0.342529,0.0530396,-0.182251,0.920105
1470344766136563,-0.344666,0.0515747,-0.180664,0.919739
1470344766159104,-0.346313,0.050354,-0.18158,0.918945
1470344766180160,-0.347595,0.0513916,-0.184021,0.917969
1470344766196181,-0.347778,0.0545044,-0.186218,0.917236
1470344766218154,-0.34967,0.0571899,-0.186035,0.916443
1470344766240180,-0.352356,0.0562134,-0.18457,0.915771
1470344766255874,-0.352051,0.0531006,-0.184082,0.916138
1470344766278869,-0.349304,0.0512695,-0.184204,0.917297
1470344766299975,-0.347473,0.0522461,-0.18512,0.917725
1470344766315901,-0.347961,0.0550537,-0.185974,0.917236
1470344766338960,-0.348267,0.0568848,-0.186401,0.91687
1470344766361487,-0.348328,0.0563965,-0.18689,0.916809
1470344766375497,-0.347717,0.0543213,-0.188293,0.91687
1470344766398532,-0.347046,0.0532227,-0.189331,0.916992
1470344766421538,-0.3479,0.0529785,-0.187378,0.917053
1470344766436552,-0.346497,0.0507202,-0.186462,0.917908
1470344766458582,-0.343933,0.0488281,-0.186951,0.918884
1470344766481606,-0.341614,0.0471802,-0.188049,0.919617
1470344766496617,-0.342041,0.0463257,-0.188171,0.919434
1470344766518636,-0.343567,0.0457153,-0.187256,0.919128
1470344766541162,-0.344482,0.0447998,-0.186035,0.919067
1470344766555590,-0.345581,0.0435791,-0.185547,0.918823
1470344766578610,-0.347229,0.0418701,-0.186707,0.91803
1470344766617674,-0.347351,0.0412598,-0.188416,0.917664
1470344766622650,-0.346924,0.0406494,-0.189575,0.917603
1470344766639174,-0.346619,0.0397949,-0.191223,0.917419
1470344766668790,-0.345703,0.0393677,-0.19342,0.917297
1470344766689826,-0.342102,0.0395508,-0.19397,0.918579
1470344766698818,-0.33905,0.0396729,-0.191467,0.920227
1470344766728846,-0.337341,0.0388184,-0.189819,0.921204
1470344766742365,-0.336182,0.038269,-0.190002,0.921631
1470344766758908,-0.336548,0.0386963,-0.190613,0.921326
1470344766780928,-0.342346,0.0394897,-0.191223,0.919067
1470344766801947,-0.349182,0.0386353,-0.191101,0.916504
1470344766818962,-0.350769,0.0360718,-0.189819,0.916321
1470344766841514,-0.350037,0.0325928,-0.187805,0.917114
1470344766862815,-0.351318,0.0306396,-0.186096,0.917053
1470344766878825,-0.352234,0.0314941,-0.188782,0.916138
1470344766902846,-0.350403,0.0344849,-0.193848,0.915649
1470344766921917,-0.352539,0.0372314,-0.197083,0.914063
1470344766939386,-0.359375,0.0402832,-0.201416,0.910278
1470344766966876,-0.36792,0.0432129,-0.204651,0.906006
1470344766981887,-0.371521,0.0456543,-0.208191,0.903625
1470344766998903,-0.36499,0.0471191,-0.212341,0.905212
1470344767020941,-0.356567,0.0515137,-0.216003,0.907471
1470344767042490,-0.355225,0.0561523,-0.220764,0.906555
1470344767059024,-0.352539,0.0599365,-0.228882,0.905396
1470344767081043,-0.344482,0.064209,-0.240479,0.905151
1470344767102065,-0.33374,0.0689697,-0.254822,0.904968
1470344767119078,-0.324402,0.0738525,-0.270996,0.903259
1470344767143109,-0.317078,0.0787964,-0.289063,0.89978
1470344767162136,-0.31311,0.0828857,-0.308533,0.894348
1470344767178166,-0.309875,0.086792,-0.328552,0.887939
1470344767201173,-0.304565,0.0900269,-0.347473,0.882263
1470344767222190,-0.297546,0.0924683,-0.364807,0.87738
1470344767238208,-0.292236,0.0936279,-0.380859,0.872192
1470344767261233,-0.289185,0.09375,-0.396362,0.866333
1470344767283252,-0.285156,0.0923462,-0.409607,0.861633
1470344767298268,-0.280884,0.0888672,-0.420837,0.857971
1470344767321287,-0.280457,0.085083,-0.429626,0.854126
1470344767343817,-0.28418,0.0817871,-0.436523,0.84967
1470344767358015,-0.287781,0.078125,-0.441223,0.846375
1470344767381035,-0.288818,0.0737915,-0.442322,0.845886
1470344767404057,-0.288452,0.0686035,-0.440979,0.847107
1470344767418069,-0.284119,0.0647583,-0.440002,0.849365
1470344767441595,-0.277649,0.0629272,-0.439087,0.852173
1470344767463160,-0.273621,0.0615845,-0.438354,0.853943
1470344767478175,-0.272522,0.0600586,-0.4375,0.854797
1470344767501193,-0.271912,0.0595703,-0.437378,0.855103
1470344767523215,-0.268433,0.0591431,-0.439209,0.855286
1470344767545240,-0.264343,0.0597534,-0.441345,0.855408
1470344767561531,-0.262573,0.0609131,-0.442444,0.855347
1470344767583556,-0.261169,0.0610962,-0.443726,0.855103
1470344767604595,-0.25946,0.0616455,-0.445068,0.854858
1470344767621583,-0.258057,0.0623779,-0.446289,0.854614
1470344767644129,-0.256165,0.0629883,-0.447144,0.854675
1470344767657706,-0.254211,0.0639038,-0.448303,0.854614
1470344767680718,-0.25177,0.0648193,-0.449707,0.854492
1470344767703739,-0.249817,0.065979,-0.45105,0.854248
1470344767717759,-0.249634,0.067749,-0.451782,0.853821
1470344767741334,-0.250488,0.069397,-0.452087,0.853271
1470344767763861,-0.251099,0.0702515,-0.452393,0.852844
1470344767777873,-0.250671,0.0708008,-0.453003,0.8526
1470344767801894,-0.249451,0.071167,-0.453796,0.852539
1470344767823915,-0.248474,0.0715942,-0.454285,0.852478
1470344767844940,-0.247986,0.0717773,-0.454407,0.852539
1470344767861591,-0.247375,0.0718384,-0.454468,0.852661
1470344767883608,-0.246216,0.0718384,-0.454651,0.852966
1470344767904641,-0.244324,0.0717163,-0.455078,0.853271
1470344767920644,-0.243286,0.0717773,-0.45575,0.85321
1470344767944170,-0.244202,0.0720215,-0.456299,0.8526
1470344767966192,-0.247192,0.0726318,-0.456299,0.851746
1470344767981207,-0.250549,0.072937,-0.456055,0.85083
1470344768003231,-0.252075,0.0723877,-0.45636,0.850281
1470344768025247,-0.252319,0.0716553,-0.457031,0.849915
1470344768041266,-0.252197,0.0706787,-0.457458,0.849731
1470344768063291,-0.25238,0.0700073,-0.45752,0.849731
1470344768084310,-0.251953,0.0696411,-0.457397,0.849976
1470344768101324,-0.250549,0.0692139,-0.457336,0.850464
1470344768123343,-0.24884,0.0685425,-0.457031,0.851135
1470344768145385,-0.247437,0.0679321,-0.456909,0.851685
1470344768161151,-0.246765,0.067688,-0.457031,0.851807
1470344768184174,-0.245972,0.0675659,-0.457336,0.851929
1470344768205193,-0.244934,0.0670166,-0.457886,0.85199
1470344768228213,-0.244141,0.0662842,-0.458618,0.851868
1470344768243733,-0.244324,0.0664063,-0.459473,0.851379
1470344768265757,-0.244507,0.0668335,-0.4599,0.851013
1470344768281771,-0.244019,0.0671997,-0.460449,0.85083
1470344768303789,-0.243164,0.0668945,-0.461121,0.850769
1470344768326811,-0.242676,0.0665894,-0.461609,0.850647
1470344768341327,-0.241333,0.0653687,-0.461853,0.850952
1470344768363851,-0.239685,0.0639648,-0.462158,0.851379
1470344768385871,-0.238525,0.0631104,-0.462219,0.851746
1470344768400887,-0.237,0.0620117,-0.462463,0.852112
1470344768423911,-0.235901,0.060791,-0.462952,0.852234
1470344768446433,-0.23584,0.0599976,-0.463562,0.85199
1470344768460954,-0.236145,0.0595093,-0.463989,0.851746
1470344768483974,-0.235474,0.0584717,-0.464355,0.851746
1470344768505995,-0.234436,0.0576172,-0.4646,0.85199
1470344768520007,-0.233765,0.0569458,-0.465027,0.85199
1470344768544034,-0.233276,0.0564575,-0.465515,0.851868
1470344768565899,-0.232666,0.0559082,-0.465942,0.851868
1470344768580913,-0.232056,0.0552368,-0.466431,0.851807
1470344768603934,-0.231689,0.0549316,-0.466858,0.851685
1470344768625956,-0.231384,0.0543823,-0.467224,0.851563
1470344768640974,-0.230957,0.053833,-0.467712,0.85144
1470344768664000,-0.230774,0.0534058,-0.468201,0.851257
1470344768686020,-0.230774,0.0529175,-0.46875,0.851013
1470344768701036,-0.231018,0.0525513,-0.469238,0.850708
1470344768724054,-0.231262,0.052124,-0.469788,0.850342
1470344768746577,-0.231201,0.0515747,-0.47052,0.849976
1470344768767862,-0.231262,0.0514526,-0.471252,0.849609
1470344768783877,-0.231445,0.0513916,-0.471741,0.849243
1470344768805896,-0.231567,0.0515137,-0.472168,0.848999
1470344768826916,-0.231262,0.0516357,-0.472656,0.848755
1470344768843940,-0.231018,0.0518188,-0.473206,0.848511
1470344768866490,-0.231079,0.0519409,-0.473694,0.848267
1470344768887511,-0.231323,0.0523071,-0.474182,0.8479
1470344768903523,-0.23175,0.0526733,-0.474609,0.847473
1470344768926545,-0.231934,0.0529785,-0.475098,0.847168
1470344768947570,-0.231934,0.0534668,-0.475464,0.846924
1470344768963616,-0.231506,0.0539551,-0.475647,0.846924
1470344768985636,-0.231323,0.0547485,-0.475769,0.846802
1470344769007656,-0.230957,0.0562744,-0.47583,0.846802
1470344769023670,-0.229797,0.0569458,-0.475952,0.846985
1470344769046696,-0.227905,0.0571289,-0.476685,0.847046
1470344769067237,-0.226807,0.057251,-0.477356,0.846985
1470344769083236,-0.226379,0.0571899,-0.478027,0.846741
1470344769106253,-0.226196,0.0576782,-0.478699,0.846375
1470344769127272,-0.226135,0.0580444,-0.479248,0.846069
1470344769143811,-0.226135,0.0582275,-0.479553,0.845886
1470344769166354,-0.225464,0.0578613,-0.479614,0.846008
1470344769188373,-0.224548,0.0574341,-0.479858,0.846191
1470344769203387,-0.223938,0.0570679,-0.47998,0.846252
1470344769226409,-0.224243,0.0570679,-0.480347,0.846008
1470344769248942,-0.224915,0.057312,-0.480835,0.84552
1470344769263435,-0.225708,0.0575562,-0.481323,0.845032
1470344769286452,-0.22583,0.0571899,-0.48175,0.844788
1470344769308480,-0.225281,0.0566406,-0.482361,0.844604
1470344769323485,-0.225098,0.0565186,-0.482971,0.844299
1470344769346510,-0.225708,0.0570068,-0.483582,0.843811
1470344769368534,-0.226257,0.057312,-0.484253,0.843201
1470344769383548,-0.226624,0.0576172,-0.484985,0.842651
1470344769406568,-0.226624,0.0576782,-0.485779,0.842224
1470344769428591,-0.22644,0.0577393,-0.486572,0.841797
1470344769451614,-0.226379,0.0580444,-0.487183,0.841431
1470344769465632,-0.226685,0.0586548,-0.487854,0.840942
1470344769488652,-0.22699,0.0592651,-0.488281,0.840576
1470344769502670,-0.226624,0.0595093,-0.48877,0.840332
1470344769528688,-0.226074,0.0597534,-0.489319,0.840149
1470344769555722,-0.226013,0.0599365,-0.48999,0.839783
1470344769562733,-0.226257,0.0602417,-0.490479,0.839417
1470344769585755,-0.226257,0.0603027,-0.490906,0.839172
1470344769608773,-0.226135,0.0603027,-0.491333,0.838928
1470344769629798,-0.225952,0.0601807,-0.491638,0.838806
1470344769646313,-0.225586,0.0598145,-0.491943,0.838745
1470344769668837,-0.225464,0.0594482,-0.492188,0.838684
1470344769682848,-0.225769,0.0591431,-0.492432,0.838501
1470344769705869,-0.225769,0.059082,-0.492432,0.838501
1470344769728891,-0.225891,0.05896,-0.492432,0.83844
1470344769749922,-0.22583,0.059021,-0.492249,0.838562
1470344769766494,-0.225464,0.059082,-0.492065,0.838745
1470344769789513,-0.22467,0.059082,-0.492004,0.83905
1470344769809536,-0.22406,0.0592041,-0.491943,0.839233
1470344769826550,-0.223877,0.0593872,-0.491943,0.839233
1470344769849070,-0.223877,0.0597534,-0.492004,0.839172
1470344769870094,-0.224243,0.0601196,-0.492004,0.83905
1470344769886108,-0.224426,0.0603638,-0.491943,0.838989
1470344769909129,-0.224304,0.0604858,-0.492065,0.838989
1470344769937153,-0.224182,0.0606689,-0.492065,0.838989
1470344769946665,-0.224182,0.0606079,-0.492065,0.838989
1470344769969188,-0.224182,0.0606079,-0.492065,0.838989
1470344769990208,-0.224365,0.0606079,-0.492126,0.838928
1470344770006222,-0.224731,0.0605469,-0.492188,0.838745
1470344770028244,-0.225342,0.0603638,-0.492249,0.838623
1470344770050269,-0.226013,0.0601807,-0.492126,0.838501
1470344770066287,-0.226807,0.0601807,-0.491943,0.838379
1470344770088306,-0.227722,0.0604248,-0.491577,0.838379
1470344770111330,-0.227783,0.0604858,-0.491333,0.838501
1470344770125340,-0.227417,0.06073,-0.49115,0.838623
1470344770148871,-0.227417,0.0613403,-0.491028,0.838684
1470344770171393,-0.227539,0.0620728,-0.490967,0.838623
1470344770186408,-0.227844,0.0628662,-0.491028,0.83844
1470344770208427,-0.22821,0.0635986,-0.491089,0.838257
1470344770231448,-0.228516,0.064209,-0.49115,0.838074
1470344770246465,-0.228638,0.0645142,-0.491211,0.838013
1470344770268490,-0.228821,0.0646973,-0.491211,0.837952
1470344770291511,-0.22876,0.0646362,-0.491211,0.837952
1470344770305526,-0.228943,0.0645142,-0.491089,0.838013
1470344770328545,-0.229492,0.06427,-0.490967,0.837952
1470344770351568,-0.230286,0.0640869,-0.490845,0.83783
1470344770365585,-0.230896,0.0637817,-0.490662,0.837769
1470344770388606,-0.23114,0.0634766,-0.490356,0.837891
1470344770411628,-0.231384,0.0635376,-0.48999,0.838074
1470344770425640,-0.231445,0.0636597,-0.489563,0.838257
1470344770449166,-0.231323,0.0639648,-0.489197,0.838501
1470344770471693,-0.231262,0.0643921,-0.488953,0.838623
1470344770485706,-0.231567,0.0650024,-0.488647,0.838684
1470344770508726,-0.232361,0.065918,-0.488342,0.838562
1470344770530745,-0.233276,0.0668335,-0.488098,0.838379
1470344770545763,-0.233887,0.0675659,-0.487915,0.838257
1470344770568788,-0.234009,0.067688,-0.487732,0.838318
1470344770590807,-0.23407,0.0673828,-0.488037,0.838135
1470344770605823,-0.233765,0.0665894,-0.488647,0.837952
1470344770628844,-0.233459,0.0661621,-0.489014,0.83783
1470344770651370,-0.233459,0.0662231,-0.489014,0.83783
1470344770671893,-0.233887,0.065918,-0.488953,0.837769
1470344770688907,-0.234009,0.0653687,-0.488953,0.837769
1470344770710930,-0.233704,0.0650635,-0.488892,0.837952
1470344770731947,-0.233459,0.0649414,-0.488892,0.838013
1470344770748968,-0.233582,0.0652466,-0.489075,0.83783
1470344770779000,-0.233704,0.0657959,-0.489319,0.837646
1470344770792011,-0.233459,0.0662842,-0.489563,0.837524
1470344770809026,-0.232788,0.0666504,-0.489807,0.837524
1470344770831047,-0.231995,0.0670166,-0.490051,0.837585
1470344770852574,-0.231323,0.0673218,-0.490356,0.837524
1470344770869092,-0.230896,0.067627,-0.490784,0.837402
1470344770891111,-0.230652,0.0679932,-0.491211,0.837219
1470344770912132,-0.230286,0.0681763,-0.491455,0.837097
1470344770928145,-0.230042,0.0679321,-0.491699,0.837097
1470344770951672,-0.229675,0.0674438,-0.492004,0.837036
1470344770972233,-0.229675,0.0670166,-0.49231,0.836914
1470344770989221,-0.230164,0.0667114,-0.492554,0.836609
1470344771011240,-0.230652,0.0666504,-0.492737,0.836365
1470344771032325,-0.230957,0.0665894,-0.492859,0.836243
1470344771048814,-0.231201,0.0667114,-0.492859,0.836182
1470344771070907,-0.230896,0.0666504,-0.492859,0.836243
1470344771093927,-0.230347,0.0667114,-0.49292,0.836365
1470344771108940,-0.229919,0.0669556,-0.493042,0.836426
1470344771131961,-0.229492,0.0672607,-0.493164,0.836426
1470344771153583,-0.229004,0.0674438,-0.493225,0.836487
1470344771160610,-0.228577,0.0675049,-0.493164,0.836609
1470344771174621,-0.228271,0.0673828,-0.493225,0.83667
1470344771196676,-0.228088,0.0673828,-0.493286,0.836731
1470344771219759,-0.227722,0.0669556,-0.493347,0.836792
1470344771234678,-0.227356,0.0665894,-0.493469,0.836853
1470344771256814,-0.2276,0.0662842,-0.493652,0.836731
1470344771279600,-0.227966,0.065979,-0.493835,0.836548
1470344771294611,-0.228577,0.0657349,-0.493896,0.836365
1470344771316662,-0.229187,0.0654297,-0.493958,0.836121
1470344771339650,-0.229736,0.0650024,-0.49408,0.835999
1470344771354206,-0.23053,0.0648193,-0.493958,0.835876
1470344771376748,-0.231018,0.0646973,-0.493774,0.835815
1470344771399753,-0.230835,0.0645142,-0.493713,0.835938
1470344771413767,-0.230347,0.0645752,-0.49353,0.836182
1470344771436788,-0.230042,0.0648804,-0.493164,0.836426
1470344771458816,-0.229858,0.0653687,-0.492859,0.83667
1470344771473830,-0.229614,0.0658569,-0.492737,0.836731
1470344771496851,-0.22937,0.0662842,-0.492615,0.836853
1470344771518872,-0.229431,0.0666504,-0.492615,0.836792
1470344771534887,-0.229431,0.0665894,-0.492615,0.836792
1470344771556910,-0.229431,0.0666504,-0.492615,0.836792
1470344771579524,-0.229675,0.0665894,-0.492798,0.836609
1470344771594538,-0.230347,0.0666504,-0.492798,0.836487
1470344771616557,-0.230774,0.0666504,-0.492737,0.836365
1470344771639578,-0.231079,0.0666504,-0.492737,0.836304
1470344771654600,-0.231384,0.0666504,-0.492554,0.836304
1470344771677126,-0.231689,0.0667114,-0.492371,0.836304
1470344771699161,-0.231567,0.0667725,-0.492188,0.836487
1470344771715162,-0.231384,0.0667114,-0.492065,0.836548
1470344771737181,-0.231079,0.0667114,-0.492065,0.83667
1470344771759218,-0.230835,0.0669556,-0.492065,0.836731
1470344771776233,-0.230774,0.0669556,-0.492065,0.836731
1470344771796250,-0.231262,0.0673218,-0.492065,0.836609
1470344771819272,-0.231445,0.0675049,-0.492065,0.836548
1470344771835283,-0.231079,0.0673218,-0.492126,0.836609
1470344771856842,-0.231079,0.0673218,-0.492126,0.836609
1470344771879394,-0.231262,0.0672607,-0.492126,0.836548
1470344771895376,-0.231262,0.0671997,-0.492126,0.836548
1470344771916443,-0.231567,0.0671997,-0.492188,0.836426
1470344771939463,-0.231873,0.0670166,-0.492249,0.836304
1470344771955935,-0.232117,0.0667725,-0.492188,0.836304
1470344771977088,-0.232056,0.0664063,-0.492065,0.836426
1470344771999146,-0.231934,0.0661621,-0.491943,0.836548
1470344772015177,-0.231934,0.0661621,-0.491943,0.836548
1470344772037138,-0.23175,0.0661621,-0.491821,0.83667
1470344772058711,-0.231445,0.0662842,-0.491821,0.836731
1470344772076728,-0.23114,0.0664063,-0.491821,0.836792
1470344772096776,-0.230957,0.0665894,-0.491943,0.836792
1470344772118824,-0.230835,0.0668945,-0.492188,0.83667
1470344772136783,-0.230713,0.0671387,-0.492432,0.836487
1470344772156814,-0.23053,0.0672607,-0.492798,0.836365
1470344772178839,-0.230286,0.0672607,-0.492981,0.836304
1470344772196853,-0.230347,0.0672607,-0.493164,0.836182
1470344772216903,-0.230652,0.0670776,-0.493225,0.83606
1470344772238919,-0.230957,0.0668335,-0.493286,0.835999
1470344772257446,-0.231384,0.0665894,-0.493286,0.835876
1470344772277037,-0.231689,0.0664063,-0.493286,0.835815
1470344772299067,-0.231873,0.0661621,-0.493164,0.835815
1470344772317029,-0.231873,0.0661621,-0.493164,0.835815
1470344772337077,-0.231812,0.0661621,-0.493042,0.835938
1470344772359724,-0.231567,0.0663452,-0.492859,0.836121
1470344772376735,-0.231262,0.0665894,-0.492798,0.836182
1470344772396754,-0.231079,0.0668945,-0.492859,0.836182
1470344772418775,-0.231018,0.0673218,-0.493042,0.83606
1470344772436789,-0.231201,0.067688,-0.493286,0.835815
1470344772456812,-0.231384,0.0679321,-0.49353,0.835632
1470344772479337,-0.231384,0.0679321,-0.49353,0.835632
1470344772497353,-0.231323,0.0678711,-0.493591,0.835632
1470344772516371,-0.231567,0.067688,-0.493591,0.835571
1470344772539392,-0.23175,0.0674438,-0.493591,0.83551
1470344772557475,-0.231934,0.0672607,-0.49353,0.83551
1470344772577090,-0.232178,0.0670166,-0.493408,0.83551
1470344772599088,-0.232361,0.0668335,-0.493286,0.835571
1470344772617090,-0.232361,0.0668335,-0.493103,0.835693
1470344772638106,-0.2323,0.0667725,-0.492859,0.835876
1470344772659140,-0.232117,0.0669556,-0.492676,0.835999
1470344772677175,-0.231995,0.0672607,-0.492554,0.836121
1470344772698193,-0.231873,0.067627,-0.492432,0.836121
1470344772719215,-0.231812,0.0680542,-0.492432,0.836121
1470344772737230,-0.231812,0.0683594,-0.492554,0.83606
1470344772758261,-0.231812,0.0683594,-0.492554,0.83606
1470344772778787,-0.231873,0.0684814,-0.492615,0.835938
1470344772796804,-0.231873,0.0684814,-0.492615,0.835999
1470344772817823,-0.231812,0.0684204,-0.492676,0.835999
1470344772838842,-0.231812,0.0684204,-0.492676,0.835999
1470344772857367,-0.232056,0.0681152,-0.492615,0.835938
1470344772877892,-0.2323,0.0678711,-0.492554,0.835938
1470344772898911,-0.232544,0.067749,-0.492432,0.835938
1470344772916926,-0.232666,0.067627,-0.49231,0.835999
1470344772937948,-0.232666,0.067627,-0.49231,0.835999
1470344772959474,-0.232544,0.067749,-0.492188,0.836121
1470344772976997,-0.232483,0.0679321,-0.492065,0.836182
1470344772999016,-0.232178,0.0682373,-0.492065,0.836243
1470344773019033,-0.231995,0.0686035,-0.492065,0.836243
1470344773037050,-0.231873,0.0690308,-0.492126,0.836243
1470344773059575,-0.231812,0.0692749,-0.492249,0.836182
1470344773079099,-0.231689,0.069458,-0.492371,0.836121
1470344773097114,-0.231689,0.069458,-0.492371,0.836121
1470344773119135,-0.231628,0.069458,-0.492371,0.836121
1470344773139153,-0.231628,0.069397,-0.492371,0.836121
1470344773157173,-0.231995,0.0692139,-0.492432,0.835999
1470344773179197,-0.232422,0.0690308,-0.492432,0.835938
1470344773199241,-0.232849,0.0687866,-0.49231,0.835876
1470344773217232,-0.233154,0.0686035,-0.492188,0.835876
1470344773239251,-0.233215,0.0684204,-0.492065,0.835938
1470344773259366,-0.233215,0.0684204,-0.492065,0.835938
1470344773277390,-0.233215,0.0684204,-0.492065,0.835938
1470344773299408,-0.233093,0.0686035,-0.492004,0.835999
1470344773319469,-0.232971,0.0689697,-0.492004,0.835999
1470344773337486,-0.232788,0.0692749,-0.492004,0.835999
1470344773359595,-0.232666,0.0696411,-0.492065,0.835999
1470344773379619,-0.232544,0.0698242,-0.492249,0.835876
1470344773396635,-0.232422,0.0698853,-0.492432,0.835815
1470344773419657,-0.232361,0.0698242,-0.492676,0.835693
1470344773439674,-0.2323,0.0698242,-0.492676,0.835693
1470344773457196,-0.2323,0.0697632,-0.492676,0.835754
1470344773479722,-0.232605,0.0696411,-0.492676,0.835632
1470344773498738,-0.23291,0.069397,-0.492676,0.835571
1470344773517757,-0.233154,0.0692139,-0.492615,0.835571
1470344773539776,-0.233215,0.0689697,-0.492615,0.835571
1470344773559299,-0.233337,0.0688477,-0.492493,0.835632
1470344773575843,-0.233521,0.0689697,-0.492432,0.835571
1470344773599866,-0.233521,0.0690918,-0.492432,0.835571
1470344773620885,-0.233276,0.0693359,-0.492432,0.835632
1470344773636900,-0.232971,0.0696411,-0.492493,0.835632
1470344773659016,-0.232788,0.0699463,-0.492554,0.835632
1470344773680179,-0.232666,0.0702515,-0.492737,0.835571
1470344773696150,-0.232605,0.0704346,-0.49292,0.835449
1470344773719172,-0.232605,0.0703735,-0.49292,0.835449
1470344773740191,-0.232544,0.0703735,-0.49292,0.835449
1470344773756239,-0.232544,0.0703735,-0.49292,0.835449
1470344773784331,-0.232849,0.0701294,-0.492981,0.835388
1470344773800317,-0.233154,0.0699463,-0.492981,0.835266
1470344773816339,-0.233521,0.0697021,-0.493042,0.835205
1470344773838350,-0.233765,0.069519,-0.49292,0.835205
1470344773860411,-0.233948,0.069458,-0.492798,0.835205
1470344773876428,-0.233948,0.069458,-0.492798,0.835205
1470344773898452,-0.233948,0.069458,-0.492798,0.835205
1470344773919481,-0.233704,0.0697021,-0.492737,0.835266
1470344773936483,-0.233459,0.0700073,-0.492676,0.835388
1470344773959022,-0.233276,0.0703125,-0.492737,0.835388
1470344773981575,-0.233154,0.0706177,-0.492859,0.835266
1470344773996615,-0.233032,0.0708618,-0.493103,0.835144
1470344774018662,-0.23291,0.0709839,-0.493347,0.835022
1470344774041629,-0.232849,0.0709229,-0.493591,0.834961
1470344774056703,-0.232849,0.0709229,-0.493591,0.834961
1470344774078731,-0.233093,0.0707397,-0.493652,0.834839
1470344774100803,-0.233398,0.0704956,-0.493652,0.834778
1470344774115765,-0.233887,0.0702515,-0.493652,0.834656
1470344774138782,-0.234375,0.0700073,-0.49353,0.834656
1470344774161368,-0.23468,0.0698242,-0.493469,0.834595
1470344774175889,-0.234863,0.0697632,-0.493408,0.834595
1470344774198907,-0.234863,0.0697632,-0.493408,0.834595
1470344774220981,-0.234924,0.0697632,-0.493408,0.834595
1470344774235942,-0.234741,0.0700073,-0.493347,0.834656
1470344774259053,-0.234558,0.0704346,-0.493286,0.834656
1470344774281136,-0.234558,0.0707397,-0.493286,0.834656
1470344774295132,-0.234436,0.0709839,-0.493469,0.834595
1470344774319134,-0.234253,0.071167,-0.493591,0.834534
1470344774349192,-0.234192,0.071167,-0.493591,0.834534
1470344774355699,-0.234192,0.071167,-0.493591,0.834534
1470344774379836,-0.234131,0.071167,-0.493591,0.834534
1470344774400859,-0.234131,0.071106,-0.493591,0.834534
1470344774415868,-0.234314,0.0708618,-0.49353,0.834534
1470344774438889,-0.234436,0.0704956,-0.493469,0.834595
1470344774461414,-0.234741,0.0703125,-0.493408,0.834595
1470344774482453,-0.234863,0.0700073,-0.493286,0.834656
1470344774498452,-0.234863,0.0698242,-0.493103,0.834778
1470344774521473,-0.234924,0.0697632,-0.492859,0.8349
1470344774542490,-0.234802,0.0698242,-0.492615,0.835022
1470344774559010,-0.234558,0.0699463,-0.492554,0.835144
1470344774581533,-0.234436,0.0702515,-0.492432,0.835205
1470344774602556,-0.234375,0.0705566,-0.492432,0.835205
1470344774618566,-0.234192,0.0708008,-0.492554,0.835205
1470344774641589,-0.233948,0.0709839,-0.492676,0.835205
1470344774662155,-0.233826,0.071106,-0.492798,0.835083
1470344774678556,-0.233765,0.071106,-0.492798,0.835144
1470344774701578,-0.233765,0.071106,-0.492798,0.835144
1470344774722662,-0.234192,0.0709839,-0.492981,0.8349
1470344774738660,-0.234558,0.0707397,-0.492981,0.834839
1470344774761706,-0.234863,0.0705566,-0.493103,0.834717
1470344774782723,-0.235291,0.0704956,-0.493164,0.834534
1470344774798737,-0.235596,0.0704956,-0.493042,0.834534
1470344774821757,-0.235535,0.0705566,-0.493042,0.834534
1470344774842775,-0.235596,0.0705566,-0.493042,0.834534
1470344774858813,-0.235291,0.0706787,-0.493042,0.834595
1470344774880875,-0.234863,0.0708618,-0.493103,0.834656
1470344774903925,-0.234436,0.071106,-0.493225,0.834717
1470344774918895,-0.234009,0.0715332,-0.493347,0.834717
1470344774940931,-0.233643,0.0718994,-0.49353,0.834656
1470344774963659,-0.233398,0.0721436,-0.493713,0.834595
1470344774978724,-0.233276,0.0721436,-0.49408,0.834412
1470344775001693,-0.233398,0.0720215,-0.494263,0.83429
1470344775023712,-0.233459,0.0717163,-0.494324,0.834229
1470344775037725,-0.233643,0.0714111,-0.494385,0.834229
1470344775061759,-0.233826,0.071228,-0.494324,0.834167
1470344775083333,-0.233826,0.071167,-0.494263,0.834229
1470344775098299,-0.233765,0.071167,-0.494263,0.834229
1470344775121361,-0.233826,0.071167,-0.494263,0.834229
1470344775143383,-0.233398,0.0712891,-0.494324,0.83429
1470344775158460,-0.233032,0.0714111,-0.494324,0.834412
1470344775181533,-0.232788,0.0717163,-0.494324,0.834473
1470344775203558,-0.232422,0.0719604,-0.494324,0.834534
1470344775218556,-0.232117,0.0722656,-0.494446,0.834473
1470344775241579,-0.231873,0.0725708,-0.494629,0.834473
1470344775264232,-0.23175,0.0726929,-0.494812,0.834351
1470344775278248,-0.231689,0.0727539,-0.495056,0.834229
1470344775301281,-0.231689,0.0726929,-0.495056,0.834229
1470344775324285,-0.231934,0.0725098,-0.495117,0.834167
1470344775338351,-0.232361,0.0723267,-0.495056,0.834106
1470344775361442,-0.232666,0.0720825,-0.494934,0.834106
1470344775383977,-0.23291,0.0719604,-0.494751,0.834167
1470344775404951,-0.232971,0.0718994,-0.494568,0.834229
1470344775420965,-0.232971,0.0718994,-0.494568,0.834229
1470344775443987,-0.232666,0.0721436,-0.494507,0.834351
1470344775465016,-0.232422,0.0724487,-0.494385,0.834412
1470344775481030,-0.232117,0.0728149,-0.494385,0.834473
1470344775504050,-0.231873,0.0731201,-0.494446,0.834534
1470344775525086,-0.231689,0.0733032,-0.494507,0.834534
1470344775541083,-0.231628,0.0734863,-0.494629,0.834473
1470344775563658,-0.231628,0.0734253,-0.494629,0.834473
1470344775584744,-0.23175,0.0734253,-0.494751,0.834351
1470344775601726,-0.231995,0.0733032,-0.494812,0.834229
1470344775623745,-0.232361,0.0731201,-0.494873,0.834106
1470344775644810,-0.232666,0.072876,-0.494873,0.834045
1470344775661375,-0.23291,0.0726318,-0.494751,0.834045
1470344775683485,-0.233154,0.0725098,-0.494507,0.834167
1470344775712473,-0.233215,0.0725098,-0.494263,0.83429
1470344775721482,-0.232971,0.0725098,-0.494141,0.834412
1470344775743516,-0.232605,0.0726929,-0.494019,0.834595
1470344775764581,-0.232361,0.0730591,-0.493958,0.834656
1470344775781595,-0.232178,0.0734253,-0.493958,0.834656
1470344775803614,-0.231934,0.0737305,-0.494019,0.834717
1470344775824662,-0.231812,0.0739136,-0.494141,0.834656
1470344775841649,-0.23175,0.0739136,-0.494141,0.834656
1470344775864231,-0.23175,0.0738525,-0.494141,0.834656
1470344775886758,-0.23175,0.0738525,-0.494141,0.834656
1470344775900823,-0.232056,0.0736694,-0.494202,0.834534
1470344775923791,-0.232422,0.0734863,-0.494202,0.834473
1470344775945867,-0.232849,0.0733032,-0.494202,0.834351
1470344775961441,-0.233215,0.0730591,-0.494141,0.83429
1470344775983970,-0.233459,0.072998,-0.494019,0.834351
1470344776014045,-0.233704,0.072998,-0.493835,0.834351
1470344776021054,-0.233643,0.072998,-0.493713,0.834473
1470344776044017,-0.233337,0.0731201,-0.493591,0.834595
1470344776066759,-0.233276,0.0733643,-0.493469,0.834656
1470344776080818,-0.233276,0.0737915,-0.49353,0.834595
1470344776103793,-0.233154,0.0740967,-0.493713,0.834473
1470344776126813,-0.232971,0.0742188,-0.493958,0.834351
1470344776147831,-0.23291,0.0741577,-0.494202,0.834229
1470344776163852,-0.233032,0.0740967,-0.494324,0.834167
1470344776185923,-0.233398,0.0739746,-0.494385,0.834045
1470344776200916,-0.233948,0.0737305,-0.494446,0.833862
1470344776223938,-0.234497,0.0734253,-0.494446,0.83374
1470344776245957,-0.235046,0.0731812,-0.494385,0.833618
1470344776261018,-0.235474,0.072998,-0.494263,0.833618
1470344776283542,-0.23584,0.072998,-0.49408,0.833618
1470344776306566,-0.235901,0.072937,-0.494019,0.833679
1470344776320576,-0.235901,0.072937,-0.494019,0.833679
1470344776343597,-0.235718,0.072998,-0.493896,0.833801
1470344776366635,-0.235596,0.0730591,-0.493774,0.833862
1470344776387696,-0.235352,0.0732422,-0.493774,0.833923
1470344776403665,-0.235168,0.0733643,-0.493774,0.833984
1470344776426687,-0.235107,0.0735474,-0.493835,0.833923
1470344776447719,-0.235046,0.0736694,-0.494019,0.833862
1470344776463731,-0.235046,0.0737305,-0.49408,0.833801
1470344776493763,-0.235352,0.0736084,-0.49408,0.833679
1470344776507813,-0.235718,0.0734863,-0.493958,0.833679
1470344776523790,-0.236145,0.0733643,-0.493835,0.833679
1470344776545812,-0.236511,0.0731201,-0.493469,0.833801
1470344776567869,-0.236633,0.072937,-0.493042,0.834045
1470344776583884,-0.236694,0.0726929,-0.492554,0.834351
1470344776605982,-0.236511,0.0723877,-0.492065,0.834656
1470344776626922,-0.236511,0.0720215,-0.491577,0.835022
1470344776643939,-0.23645,0.0714722,-0.491089,0.835327
1470344776665544,-0.236511,0.0709229,-0.490662,0.835632
1470344776687985,-0.236877,0.0701294,-0.490356,0.835754
1470344776703993,-0.237427,0.0690918,-0.490173,0.835754
1470344776726093,-0.238403,0.0684204,-0.489807,0.835815
1470344776747075,-0.239563,0.0678711,-0.489319,0.835815
1470344776764129,-0.240234,0.0671387,-0.489136,0.835754
1470344776786156,-0.240967,0.0668335,-0.48877,0.835815
1470344776809177,-0.242493,0.0668945,-0.488342,0.835632
1470344776824188,-0.243835,0.0670776,-0.487976,0.835388
1470344776846260,-0.24469,0.0674438,-0.48761,0.835327
1470344776868889,-0.245056,0.0679321,-0.487305,0.835388
1470344776883906,-0.245178,0.0687256,-0.487122,0.835388
1470344776905943,-0.245422,0.0698242,-0.487,0.835327
1470344776928950,-0.245605,0.0710449,-0.487,0.835144
1470344776942958,-0.245911,0.0725098,-0.487061,0.8349
1470344776966057,-0.246277,0.0739136,-0.487183,0.834595
1470344776989233,-0.246765,0.0753784,-0.487305,0.834229
1470344777003245,-0.247742,0.0767822,-0.487427,0.83374
1470344777026267,-0.248901,0.0780029,-0.487488,0.833252
1470344777049285,-0.250061,0.0789795,-0.487549,0.832764
1470344777063332,-0.250977,0.0794678,-0.48761,0.832458
1470344777085901,-0.251526,0.0795898,-0.487549,0.832275
1470344777108904,-0.252136,0.0795288,-0.487427,0.832214
1470344777129966,-0.25293,0.0793457,-0.487061,0.832153
1470344777145944,-0.254028,0.0792236,-0.486572,0.832092
1470344777168824,-0.254883,0.0791626,-0.486084,0.832153
1470344777182830,-0.255554,0.0790405,-0.485474,0.832336
1470344777206835,-0.256165,0.0792236,-0.484802,0.83252
1470344777228854,-0.256531,0.0795898,-0.484192,0.832703
1470344777243869,-0.256653,0.0802002,-0.483643,0.832947
1470344777266396,-0.256836,0.0809326,-0.482971,0.833191
1470344777289034,-0.256775,0.0817261,-0.482422,0.833496
1470344777310054,-0.256531,0.0825806,-0.481689,0.833862
1470344777326113,-0.256409,0.0834351,-0.480957,0.834229
1470344777349088,-0.256409,0.0842896,-0.480347,0.834534
1470344777369731,-0.256531,0.085144,-0.479675,0.834778
1470344777386692,-0.256836,0.0861206,-0.479004,0.834961
1470344777408712,-0.25708,0.0871582,-0.478271,0.835205
1470344777429731,-0.257202,0.0878906,-0.477783,0.835388
1470344777446746,-0.257263,0.088623,-0.477234,0.835571
1470344777468493,-0.25769,0.0895386,-0.476624,0.835693
1470344777489527,-0.258057,0.09021,-0.476013,0.835876
1470344777513536,-0.25824,0.0907593,-0.475403,0.83606
1470344777528547,-0.258545,0.0913696,-0.474854,0.836243
1470344777549625,-0.259094,0.0921631,-0.474182,0.836365
1470344777566586,-0.259521,0.0930786,-0.473633,0.836487
1470344777588655,-0.259705,0.0939331,-0.473083,0.836609
1470344777609645,-0.259949,0.0949097,-0.472656,0.83667
1470344777626645,-0.260071,0.0957642,-0.472229,0.836792
1470344777648665,-0.260254,0.0965576,-0.471863,0.836853
1470344777669723,-0.260498,0.097229,-0.471497,0.836914
1470344777686738,-0.260864,0.0977783,-0.47113,0.836914
1470344777708756,-0.261108,0.0982056,-0.470764,0.836975
1470344777731776,-0.261108,0.0984497,-0.470337,0.837219
1470344777745825,-0.260864,0.0985107,-0.46991,0.837524
1470344777768949,-0.260559,0.0985718,-0.469543,0.83783
1470344777790948,-0.260132,0.0986328,-0.469238,0.838074
1470344777805959,-0.259827,0.0988159,-0.468872,0.838379
1470344777828983,-0.259644,0.098999,-0.468506,0.838623
1470344777851004,-0.259338,0.0991821,-0.468262,0.838867
1470344777866522,-0.25885,0.0993652,-0.46814,0.83905
1470344777889051,-0.258484,0.0994873,-0.46814,0.839111
1470344777911069,-0.25824,0.0997925,-0.468201,0.839111
1470344777926081,-0.257874,0.0999756,-0.468445,0.839111
1470344777949102,-0.257385,0.100098,-0.468567,0.839111
1470344777970955,-0.256958,0.10022,-0.468689,0.839172
1470344777985928,-0.256592,0.100342,-0.468872,0.839172
1470344778008948,-0.256287,0.100342,-0.469055,0.839172
1470344778030967,-0.25592,0.10022,-0.469299,0.839172
1470344778045982,-0.255615,0.0999756,-0.469482,0.839172
1470344778069134,-0.25531,0.0996704,-0.469727,0.839172
1470344778091150,-0.255127,0.0992432,-0.470093,0.839111
1470344778105210,-0.255188,0.098877,-0.470276,0.838989
1470344778129184,-0.255188,0.0985718,-0.470459,0.838928
1470344778151203,-0.255066,0.0982056,-0.470703,0.838867
1470344778165725,-0.254944,0.0977783,-0.470886,0.838867
1470344778189274,-0.254822,0.0974731,-0.471191,0.838745
1470344778211294,-0.254578,0.0971069,-0.471497,0.838745
1470344778232349,-0.254272,0.0967407,-0.47168,0.838745
1470344778249328,-0.253845,0.0963745,-0.471985,0.838745
1470344778271452,-0.253418,0.0960083,-0.47229,0.838745
1470344778292527,-0.253235,0.0956421,-0.472595,0.838684
1470344778308485,-0.253174,0.0952759,-0.472961,0.838501
1470344778331511,-0.253113,0.0949097,-0.473267,0.838379
1470344778352581,-0.25293,0.0944824,-0.473572,0.838318
1470344778368153,-0.252808,0.0941772,-0.473877,0.838257
1470344778391459,-0.252747,0.0939331,-0.474182,0.838135
1470344778412479,-0.252747,0.093811,-0.474426,0.838013
1470344778428492,-0.252625,0.093689,-0.47467,0.837891
1470344778451513,-0.252441,0.0935669,-0.475037,0.837769
1470344778472640,-0.25238,0.0934448,-0.475342,0.837646
1470344778488662,-0.252441,0.0932617,-0.475647,0.837463
1470344778511620,-0.252441,0.0930786,-0.476013,0.83728
1470344778532662,-0.252441,0.0929565,-0.476196,0.837158
1470344778548650,-0.252502,0.0929565,-0.476379,0.837036
1470344778571302,-0.252563,0.0928955,-0.476563,0.836914
1470344778592354,-0.252502,0.0928345,-0.476685,0.836853
1470344778609325,-0.252625,0.0927734,-0.476807,0.836792
1470344778631352,-0.252747,0.0927124,-0.476929,0.836731
1470344778652454,-0.252686,0.0924683,-0.477051,0.83667
1470344778669097,-0.252686,0.0924683,-0.477051,0.83667
1470344778691120,-0.252686,0.0924683,-0.477051,0.83667
1470344778714139,-0.252625,0.0924683,-0.477051,0.83667
1470344778729151,-0.252625,0.0924683,-0.477051,0.83667
1470344778751172,-0.252625,0.0924683,-0.477051,0.83667
1470344778773705,-0.252625,0.0924683,-0.477051,0.83667
1470344778788716,-0.252808,0.0924683,-0.477112,0.836609
1470344778811738,-0.253052,0.0925903,-0.477051,0.836548
1470344778833757,-0.253296,0.0926514,-0.477051,0.836426
1470344778847805,-0.253601,0.0928955,-0.47699,0.836365
1470344778870954,-0.254028,0.0930786,-0.476929,0.836243
1470344778876917,-0.254333,0.0933228,-0.476868,0.836182
1470344778898951,-0.254517,0.0935669,-0.476807,0.836121
1470344778915952,-0.254822,0.0938721,-0.476685,0.83606
1470344778937013,-0.255188,0.0942383,-0.476563,0.835999
1470344778959502,-0.255676,0.0946045,-0.47644,0.835876
1470344778975904,-0.256104,0.0950317,-0.476379,0.835693
1470344778996957,-0.25647,0.0953369,-0.476318,0.835571
1470344779018984,-0.256836,0.0955811,-0.476257,0.83551
1470344779035991,-0.256958,0.0957031,-0.476196,0.83551
1470344779057080,-0.257324,0.0958862,-0.476135,0.835388
1470344779079164,-0.257874,0.0960693,-0.476074,0.835266
1470344779095205,-0.258362,0.0960083,-0.476135,0.835083
1470344779117143,-0.258545,0.0957642,-0.476196,0.834961
1470344779139206,-0.258789,0.095459,-0.476318,0.834839
1470344779155765,-0.259033,0.0951538,-0.476501,0.834717
1470344779177060,-0.259338,0.0952148,-0.476624,0.834595
1470344779199111,-0.259888,0.0952148,-0.476685,0.834351
1470344779216080,-0.260193,0.0952148,-0.476929,0.834106
1470344779237101,-0.260071,0.0951538,-0.477112,0.834045
1470344779259626,-0.26001,0.0952148,-0.477478,0.833862
1470344779275643,-0.259705,0.0953369,-0.477661,0.833862
1470344779296696,-0.258972,0.0952759,-0.477844,0.833984
1470344779319713,-0.258057,0.0950317,-0.478027,0.834167
1470344779335716,-0.257202,0.0945435,-0.478394,0.83429
1470344779357315,-0.25647,0.093811,-0.478882,0.83429
1470344779379845,-0.256226,0.0933228,-0.479309,0.834229
1470344779395854,-0.256531,0.0928955,-0.479492,0.834045
1470344779416874,-0.256409,0.0922241,-0.479614,0.834106
1470344779438893,-0.256348,0.0915527,-0.479614,0.834167
1470344779455913,-0.256958,0.0911255,-0.47937,0.834167
1470344779476949,-0.257813,0.090271,-0.479187,0.834106
1470344779498960,-0.258179,0.0889893,-0.479431,0.833984
1470344779515972,-0.258545,0.0879517,-0.479431,0.833984
1470344779536990,-0.258911,0.0870972,-0.47937,0.833984
1470344779559541,-0.258606,0.0859985,-0.479553,0.834106
1470344779576148,-0.257568,0.0847168,-0.479858,0.834412
1470344779597107,-0.256042,0.083374,-0.480408,0.834656
1470344779619177,-0.254944,0.0822144,-0.480957,0.834839
1470344779637135,-0.254089,0.0818481,-0.481384,0.8349
1470344779657177,-0.252197,0.0811768,-0.481995,0.835144
1470344779679183,-0.250671,0.0806274,-0.483093,0.835022
1470344779697198,-0.249329,0.0801392,-0.484131,0.8349
1470344779717216,-0.247681,0.0795898,-0.485107,0.834839
1470344779739270,-0.246155,0.0790405,-0.486084,0.834778
1470344779780048,-0.24469,0.078125,-0.487244,0.834656
1470344779784059,-0.242798,0.0769653,-0.488586,0.834473
1470344779799055,-0.241028,0.0758667,-0.490173,0.834167
1470344779825047,-0.240234,0.0750122,-0.491699,0.833618
1470344779837093,-0.240356,0.0742188,-0.492981,0.832886
1470344779859586,-0.24115,0.0737915,-0.494385,0.831848
1470344779877184,-0.241882,0.0732422,-0.495972,0.83075
1470344779898225,-0.241699,0.0724487,-0.497864,0.829712
1470344779919287,-0.24115,0.0716553,-0.499756,0.828796
1470344779937238,-0.240417,0.0709839,-0.501343,0.828125
1470344779957312,-0.239014,0.0703125,-0.50293,0.827637
1470344779979837,-0.237305,0.069519,-0.504517,0.827209
1470344779996868,-0.235657,0.0690308,-0.50592,0.826904
1470344780016924,-0.234497,0.0687866,-0.507263,0.826416
1470344780038933,-0.233643,0.0684814,-0.508606,0.825867
1470344780057455,-0.232666,0.0678711,-0.510071,0.825256
1470344780076793,-0.23175,0.0670776,-0.511536,0.824707
1470344780099759,-0.231262,0.0664063,-0.512878,0.824036
1470344780116775,-0.231201,0.0658569,-0.514099,0.823364
1470344780136870,-0.23114,0.0653687,-0.515137,0.822754
1470344780159439,-0.230835,0.0645752,-0.516113,0.822327
1470344780176827,-0.23053,0.0636597,-0.516968,0.821899
1470344780196887,-0.230408,0.0626831,-0.5177,0.821594
1470344780218865,-0.230652,0.0617065,-0.518127,0.821289
1470344780236882,-0.230469,0.0604248,-0.518555,0.821167
1470344780258404,-0.229919,0.059021,-0.518921,0.821167
1470344780286947,-0.229553,0.0579224,-0.51886,0.821411
1470344780296956,-0.22876,0.0570068,-0.518555,0.821899
1470344780317975,-0.227234,0.0561523,-0.51825,0.822571
1470344780338996,-0.226013,0.0557861,-0.518005,0.82312
1470344780357513,-0.225281,0.0557861,-0.517822,0.823425
1470344780379781,-0.224854,0.0560913,-0.517822,0.823486
1470344780398798,-0.22467,0.0566406,-0.5177,0.823547
1470344780416815,-0.224487,0.057312,-0.517761,0.823547
1470344780437832,-0.223938,0.0579224,-0.518066,0.823486
1470344780459361,-0.223389,0.0585327,-0.518372,0.823364
1470344780476880,-0.223083,0.059082,-0.518738,0.823181
1470344780497896,-0.222839,0.0595093,-0.519104,0.822998
1470344780518919,-0.222839,0.0598755,-0.519409,0.822754
1470344780536934,-0.222778,0.0601196,-0.519653,0.822632
1470344780558457,-0.222656,0.0603027,-0.519714,0.822632
1470344780578794,-0.222656,0.0603027,-0.519714,0.822632
1470344780596812,-0.222595,0.0603027,-0.519714,0.822632
1470344780619832,-0.22229,0.0605469,-0.519592,0.822754
1470344780638852,-0.222046,0.0606689,-0.519653,0.822815
1470344780657371,-0.221863,0.0608521,-0.519714,0.822754
1470344780679524,-0.221741,0.0610352,-0.519897,0.822693
1470344780699540,-0.221497,0.0612183,-0.520081,0.822632
1470344780717556,-0.22113,0.0610962,-0.520325,0.822571
1470344780739577,-0.22113,0.0610962,-0.520325,0.822571
1470344780759603,-0.221069,0.0610962,-0.520325,0.822571
1470344780777124,-0.220825,0.060791,-0.520325,0.822693
1470344780800144,-0.22052,0.0606079,-0.520264,0.822815
1470344780822164,-0.22052,0.0606079,-0.520264,0.822815
1470344780837178,-0.220276,0.0604248,-0.520264,0.822876
1470344780860202,-0.220154,0.0601196,-0.520386,0.822876
1470344780879223,-0.219971,0.0599365,-0.520508,0.822815
1470344780897238,-0.21991,0.0599365,-0.520508,0.822876
1470344780919258,-0.21991,0.0599365,-0.520508,0.822876
1470344780939276,-0.219604,0.0598755,-0.52063,0.822876
1470344780957299,-0.218872,0.0597534,-0.520813,0.822998
1470344780979325,-0.218567,0.0599365,-0.520874,0.822998
1470344780999343,-0.218567,0.0601807,-0.520935,0.822937
1470344781017360,-0.218323,0.0602417,-0.521118,0.822876
1470344781039379,-0.218079,0.0601196,-0.521362,0.822815
1470344781059414,-0.218079,0.0601807,-0.521606,0.822632
1470344781077436,-0.218201,0.0601807,-0.521729,0.82251
1470344781099456,-0.21814,0.0599976,-0.521912,0.822449
1470344781119473,-0.21814,0.0599365,-0.521912,0.822449
1470344781137546,-0.21814,0.0599976,-0.521912,0.822449
1470344781160073,-0.21814,0.0599365,-0.522095,0.822327
1470344781180360,-0.21814,0.0599365,-0.522095,0.822327
1470344781197420,-0.21814,0.0599365,-0.522095,0.822327
1470344781219387,-0.21814,0.0599365,-0.522095,0.822327
1470344781240408,-0.217712,0.0598755,-0.522217,0.822388
1470344781257490,-0.217407,0.0599976,-0.522278,0.822449
1470344781278494,-0.217163,0.0601196,-0.522278,0.822449
1470344781300514,-0.217041,0.0603638,-0.5224,0.822388
1470344781317532,-0.217102,0.0606079,-0.522522,0.822266
1470344781339549,-0.217468,0.0608521,-0.522705,0.822083
1470344781361076,-0.217712,0.0609131,-0.522888,0.821899
1470344781376608,-0.217834,0.060791,-0.52301,0.821777
1470344781398629,-0.217773,0.060791,-0.52301,0.821777
1470344781419646,-0.217468,0.0606689,-0.52301,0.821838
1470344781436662,-0.217285,0.0604858,-0.52301,0.82196
1470344781459189,-0.217285,0.0604248,-0.52301,0.82196
1470344781479742,-0.217163,0.0602417,-0.52301,0.822021
1470344781496739,-0.216797,0.0601807,-0.522949,0.822144
1470344781518759,-0.216309,0.0600586,-0.522949,0.822266
1470344781541779,-0.21582,0.0599976,-0.522949,0.822388
1470344781556362,-0.21521,0.0599976,-0.522949,0.822571
1470344781578955,-0.214539,0.0599365,-0.522949,0.822754
1470344781600955,-0.21405,0.0599976,-0.52301,0.822815
1470344781615967,-0.213867,0.0601196,-0.523071,0.822815
1470344781638988,-0.213989,0.0602417,-0.523132,0.822754
1470344781661657,-0.214294,0.0603027,-0.523193,0.822632
1470344781676178,-0.214478,0.0601807,-0.523315,0.82251
1470344781699201,-0.214661,0.0598755,-0.523376,0.822449
1470344781721221,-0.214783,0.0596924,-0.523315,0.822449
1470344781735232,-0.215088,0.0596313,-0.523193,0.822449
1470344781759290,-0.215332,0.0595093,-0.523071,0.822449
1470344781781338,-0.215637,0.0593262,-0.523071,0.822449
1470344781795377,-0.215698,0.0593262,-0.523071,0.822449
1470344781819371,-0.215698,0.0591431,-0.523071,0.822388
1470344781841392,-0.215698,0.0591431,-0.523071,0.822388
1470344781855403,-0.215698,0.0591431,-0.523071,0.822449
1470344781878476,-0.215271,0.059082,-0.52301,0.822571
1470344781901498,-0.214722,0.0591431,-0.52301,0.822693
1470344781915509,-0.214539,0.0593872,-0.522949,0.822754
1470344781938530,-0.214294,0.0595703,-0.522949,0.822815
1470344781961610,-0.214539,0.0599976,-0.52301,0.822693
1470344781975280,-0.214966,0.0603638,-0.523071,0.82251
1470344781999268,-0.215393,0.0605469,-0.523254,0.822266
1470344782021289,-0.215637,0.0605469,-0.523376,0.822144
1470344782042308,-0.215942,0.0604858,-0.523315,0.822083
1470344782059351,-0.21637,0.0604248,-0.523315,0.822021
1470344782080925,-0.216736,0.0603027,-0.523254,0.82196
1470344782102949,-0.216797,0.0603027,-0.523254,0.821899
1470344782118960,-0.216797,0.0603027,-0.523254,0.821899
1470344782140981,-0.216797,0.0603027,-0.523254,0.821899
1470344782163086,-0.216797,0.0603027,-0.523254,0.821899
1470344782179106,-0.216736,0.0603027,-0.523254,0.82196
1470344782201126,-0.216431,0.0603638,-0.523315,0.82196
1470344782230211,-0.215942,0.0604248,-0.523254,0.822144
1470344782239161,-0.215393,0.0606079,-0.523254,0.822266
1470344782261235,-0.214905,0.060791,-0.523315,0.822327
1470344782282258,-0.214783,0.0610962,-0.523376,0.822327
1470344782299273,-0.214966,0.0613403,-0.523438,0.822205
1470344782321318,-0.21521,0.0614624,-0.52356,0.822083
1470344782342342,-0.215149,0.0614624,-0.52356,0.822083
1470344782359334,-0.215149,0.0614624,-0.523621,0.822083
1470344782381434,-0.21521,0.0613403,-0.52356,0.822083
1470344782402494,-0.21521,0.0613403,-0.52356,0.822083
1470344782426472,-0.21521,0.0613403,-0.52356,0.822083
1470344782441485,-0.215332,0.0610962,-0.523682,0.82196
1470344782462536,-0.215332,0.060791,-0.523804,0.821899
1470344782478531,-0.215271,0.060791,-0.523804,0.821899
1470344782501553,-0.215332,0.060791,-0.523804,0.821899
1470344782523575,-0.214783,0.0609131,-0.523743,0.822083
1470344782538585,-0.214172,0.0610962,-0.523743,0.822266
1470344782561631,-0.213745,0.0613403,-0.523682,0.822388
1470344782583542,-0.213257,0.0615234,-0.523682,0.82251
1470344782598532,-0.212952,0.0617676,-0.523621,0.822571
1470344782621523,-0.21283,0.0620117,-0.523682,0.822571
1470344782643539,-0.213013,0.0621948,-0.523743,0.82251
1470344782658612,-0.213135,0.0621338,-0.523743,0.822388
1470344782681185,-0.213196,0.0620117,-0.523743,0.822388
1470344782704206,-0.213318,0.0619507,-0.523621,0.82251
1470344782719221,-0.21344,0.0618286,-0.523438,0.822571
1470344782741257,-0.21344,0.0618286,-0.523438,0.822571
1470344782764297,-0.213806,0.0617676,-0.523438,0.82251
1470344782777846,-0.214233,0.0617065,-0.523499,0.822327
1470344782800922,-0.214172,0.0617065,-0.523499,0.822327
1470344782830898,-0.214172,0.0617065,-0.523499,0.822327
1470344782837905,-0.214172,0.0617065,-0.523499,0.822388
1470344782861468,-0.213806,0.0618286,-0.523376,0.82251
1470344782884046,-0.21344,0.0620117,-0.523315,0.822632
1470344782898057,-0.213318,0.0623169,-0.523193,0.822693
1470344782921079,-0.213196,0.0626831,-0.523132,0.822815
1470344782944101,-0.212952,0.0631104,-0.523071,0.822815
1470344782958675,-0.213074,0.0634766,-0.523071,0.822754
1470344782981825,-0.213196,0.0637207,-0.523071,0.822693
1470344783003866,-0.213196,0.0637207,-0.523071,0.822693
1470344783024915,-0.213196,0.0637207,-0.523071,0.822693
1470344783041878,-0.21344,0.0637207,-0.523071,0.822632
1470344783064452,-0.213745,0.0637207,-0.523071,0.822571
1470344783085559,-0.213989,0.0635376,-0.52301,0.822571
1470344783101538,-0.214172,0.0633545,-0.522949,0.822571
1470344783123558,-0.214172,0.0631714,-0.522827,0.822693
1470344783144577,-0.213928,0.0631714,-0.522644,0.822876
1470344783161647,-0.213806,0.0631714,-0.5224,0.822998
1470344783183778,-0.213318,0.0630493,-0.522278,0.823242
1470344783204831,-0.212585,0.0630493,-0.522095,0.823547
1470344783221761,-0.212036,0.0631714,-0.521851,0.823853
1470344783243782,-0.211304,0.0632935,-0.521729,0.824097
1470344783265443,-0.210876,0.0634766,-0.521729,0.824219
1470344783280967,-0.210876,0.0634766,-0.521729,0.824158
1470344783303964,-0.210999,0.0634155,-0.521912,0.824036
1470344783325017,-0.210999,0.0632935,-0.522034,0.823975
1470344783340978,-0.210999,0.0632324,-0.522095,0.823975
1470344783364556,-0.211243,0.0629883,-0.522095,0.823914
1470344783385134,-0.211609,0.0628052,-0.522095,0.823853
1470344783401092,-0.211914,0.0626831,-0.522095,0.82373
1470344783424114,-0.212158,0.062561,-0.522156,0.823669
1470344783446133,-0.212341,0.062439,-0.522278,0.823547
1470344783461686,-0.212463,0.062439,-0.522278,0.823486
1470344783483811,-0.212524,0.062439,-0.522278,0.823486
1470344783505885,-0.212036,0.062439,-0.522339,0.823547
1470344783520899,-0.211548,0.062561,-0.522278,0.82373
1470344783543874,-0.211243,0.0628662,-0.522217,0.823853
1470344783566461,-0.210999,0.0632935,-0.522217,0.823853
1470344783587227,-0.210876,0.0636597,-0.522339,0.823792
1470344783604241,-0.210815,0.0639038,-0.522461,0.82373
1470344783626260,-0.210815,0.0639038,-0.522705,0.823547
1470344783640318,-0.210999,0.0638428,-0.522827,0.823425
1470344783664344,-0.211182,0.0636597,-0.522888,0.823364
1470344783686413,-0.211304,0.0634766,-0.522888,0.823364
1470344783700425,-0.211609,0.0633545,-0.522827,0.823364
1470344783724448,-0.211731,0.0631714,-0.522766,0.823364
1470344783746467,-0.211792,0.0629883,-0.522827,0.823303
1470344783761041,-0.211792,0.0628052,-0.522827,0.823303
1470344783783622,-0.211792,0.0628052,-0.522827,0.823303
1470344783813648,-0.211792,0.0628052,-0.522827,0.823303
1470344783820657,-0.211487,0.0628662,-0.522766,0.823425
1470344783844677,-0.211243,0.0630493,-0.522705,0.823486
1470344783866737,-0.210938,0.0633545,-0.522705,0.823547
1470344783880350,-0.210876,0.0637207,-0.522766,0.823486
1470344783904342,-0.210815,0.0640259,-0.522888,0.823425
1470344783926367,-0.210876,0.06427,-0.52301,0.823364
1470344783947387,-0.210938,0.06427,-0.523132,0.823181
1470344783964404,-0.211121,0.06427,-0.523193,0.82312
1470344783986010,-0.211304,0.064209,-0.523193,0.82312
1470344784008036,-0.211548,0.0640259,-0.523132,0.82312
1470344784024053,-0.211731,0.0639038,-0.523071,0.823059
1470344784047022,-0.212097,0.0638428,-0.52301,0.822998
1470344784068052,-0.21228,0.0638428,-0.52301,0.822998
1470344784083734,-0.21228,0.0638428,-0.52301,0.822998
1470344784106740,-0.21228,0.0638428,-0.52301,0.822998
1470344784127803,-0.212097,0.0640259,-0.52301,0.823059
1470344784143774,-0.211731,0.0641479,-0.52301,0.82312
1470344784166803,-0.211426,0.0644531,-0.522949,0.823242
1470344784187427,-0.211365,0.0647583,-0.522888,0.823242
1470344784204395,-0.211304,0.0651245,-0.522888,0.823242
1470344784226451,-0.211365,0.0653687,-0.52301,0.82312
1470344784247474,-0.21167,0.0656738,-0.523132,0.822937
1470344784264457,-0.211914,0.0657959,-0.523254,0.822754
1470344784286464,-0.212463,0.065918,-0.523254,0.822632
1470344784307538,-0.213013,0.065979,-0.523071,0.822571
1470344784323579,-0.213684,0.065979,-0.522827,0.822571
1470344784346519,-0.21405,0.0658569,-0.522705,0.822571
1470344784368045,-0.214294,0.0656738,-0.522644,0.822571
1470344784384455,-0.214355,0.0656738,-0.522461,0.822632
1470344784406476,-0.214355,0.0657349,-0.522278,0.822754
1470344784428494,-0.214111,0.065918,-0.522217,0.822876
1470344784443508,-0.213623,0.06604,-0.522156,0.822998
1470344784466538,-0.213318,0.0663452,-0.522034,0.82312
1470344784489440,-0.212891,0.0665894,-0.522095,0.823181
1470344784504455,-0.212646,0.0667725,-0.522095,0.823242
1470344784526474,-0.212708,0.0671997,-0.522156,0.823181
1470344784548498,-0.212891,0.0673828,-0.522217,0.823059
1470344784563528,-0.212952,0.0674438,-0.522339,0.822998
1470344784586469,-0.212891,0.0674438,-0.522339,0.822998
1470344784608577,-0.212891,0.0674438,-0.522339,0.822998
1470344784623498,-0.212891,0.0674438,-0.522339,0.822998
1470344784646545,-0.213257,0.0674438,-0.522217,0.822937
1470344784669050,-0.213257,0.0674438,-0.522217,0.822937
1470344784683495,-0.213257,0.0674438,-0.522217,0.822937
1470344784706518,-0.213257,0.0674438,-0.522217,0.822937
1470344784728536,-0.213135,0.0675659,-0.522217,0.822998
1470344784743549,-0.212646,0.0678101,-0.522156,0.82312
1470344784766609,-0.21228,0.0682983,-0.521973,0.823303
1470344784788708,-0.211975,0.0686646,-0.52179,0.823425
1470344784802776,-0.21167,0.0689697,-0.521729,0.823547
1470344784826742,-0.211426,0.0692139,-0.521606,0.823669
1470344784848792,-0.211426,0.0692139,-0.521606,0.823669
1470344784863368,-0.211182,0.0692749,-0.521484,0.823792
1470344784894361,-0.211121,0.069519,-0.52124,0.823975
1470344784909373,-0.21106,0.069519,-0.52124,0.823975
1470344784930391,-0.211243,0.0698242,-0.521179,0.823975
1470344784946408,-0.211914,0.0701294,-0.521179,0.82373
1470344784969460,-0.212402,0.0701294,-0.521423,0.823425
1470344784990495,-0.212463,0.0701294,-0.521423,0.823425
1470344785006510,-0.211853,0.0700073,-0.521301,0.823669
1470344785029531,-0.211243,0.0701294,-0.520996,0.824036
1470344785050549,-0.21106,0.0703735,-0.520691,0.824219
1470344785066571,-0.210754,0.0706787,-0.520325,0.824524
1470344785088595,-0.210388,0.0708008,-0.520142,0.824707
1470344785109613,-0.210022,0.0709229,-0.519958,0.82489
1470344785127630,-0.209534,0.071106,-0.519958,0.825012
1470344785148648,-0.209656,0.0714722,-0.519958,0.824951
1470344785170195,-0.210205,0.0717163,-0.519958,0.824829
1470344785186715,-0.210449,0.0718994,-0.520081,0.824646
1470344785208735,-0.210449,0.0718994,-0.520081,0.824646
1470344785229753,-0.210571,0.0717163,-0.520142,0.824585
1470344785246775,-0.210693,0.0715942,-0.520203,0.824524
1470344785269299,-0.211121,0.0714722,-0.520203,0.824402
1470344785290402,-0.211548,0.0712891,-0.520264,0.824341
1470344785306358,-0.21167,0.0710449,-0.520264,0.82428
1470344785329378,-0.21167,0.0710449,-0.520264,0.82428
1470344785351399,-0.211487,0.0710449,-0.520203,0.824402
1470344785374426,-0.211182,0.071106,-0.520142,0.824463
1470344785388943,-0.210938,0.0712891,-0.520203,0.824524
1470344785411966,-0.210754,0.0715942,-0.520264,0.824463
1470344785426981,-0.210449,0.0718994,-0.520325,0.824463
1470344785448999,-0.210266,0.0722046,-0.520386,0.824463
1470344785471522,-0.210144,0.0724487,-0.520447,0.824463
1470344785486068,-0.210144,0.0724487,-0.520447,0.824463
1470344785509091,-0.210205,0.0724487,-0.520508,0.824402
1470344785531142,-0.210205,0.0724487,-0.520508,0.824402
1470344785546123,-0.21051,0.0723877,-0.520508,0.824341
1470344785569183,-0.210815,0.0722046,-0.520447,0.82428
1470344785591071,-0.211121,0.0720215,-0.520447,0.824219
1470344785605997,-0.211365,0.0718994,-0.520447,0.824219
1470344785629018,-0.211304,0.0719604,-0.520447,0.824219
1470344785651048,-0.211182,0.0720825,-0.520264,0.824341
1470344785666114,-0.210876,0.0722656,-0.520203,0.824463
1470344785689183,-0.21051,0.0724487,-0.520142,0.824524
1470344785712205,-0.21051,0.0727539,-0.520081,0.824524
1470344785726217,-0.21051,0.0730591,-0.520142,0.824524
1470344785749237,-0.210327,0.0733032,-0.520142,0.824524
1470344785771835,-0.210266,0.0733032,-0.520142,0.824524
1470344785785351,-0.210327,0.0732422,-0.520081,0.824524
1470344785809371,-0.210571,0.0731201,-0.519958,0.824585
1470344785839401,-0.210999,0.0731812,-0.519775,0.824585
1470344785852414,-0.211304,0.072998,-0.519775,0.824524
1470344785869472,-0.211304,0.0726929,-0.519775,0.824585
1470344785891549,-0.211243,0.0724487,-0.519775,0.824585
1470344785912623,-0.211304,0.0724487,-0.519775,0.824585
1470344785928583,-0.211304,0.0724487,-0.519775,0.824585
1470344785951602,-0.211365,0.0724487,-0.519775,0.824585
1470344785972676,-0.210876,0.0724487,-0.519836,0.824646
1470344785988693,-0.210388,0.0725708,-0.519897,0.824707
1470344786011714,-0.210083,0.0726318,-0.519836,0.824829
1470344786039739,-0.209839,0.0727539,-0.519836,0.82489
1470344786048747,-0.209778,0.072937,-0.519836,0.82489
1470344786071798,-0.209778,0.072937,-0.519836,0.82489
1470344786092912,-0.209778,0.072937,-0.519836,0.82489
1470344786108865,-0.210022,0.0730591,-0.519897,0.824768
1470344786131887,-0.210144,0.0730591,-0.52002,0.824707
1470344786152905,-0.210327,0.0731201,-0.52002,0.824646
1470344786168970,-0.210571,0.0731812,-0.519958,0.824585
1470344786191710,-0.210571,0.0731812,-0.519958,0.824585
1470344786212733,-0.210571,0.0731812,-0.519958,0.824585
1470344786228747,-0.21051,0.0731812,-0.519958,0.824585
1470344786251764,-0.210266,0.0731201,-0.519897,0.824707
1470344786274323,-0.210022,0.0731812,-0.519836,0.824829
1470344786289411,-0.209778,0.0733643,-0.519714,0.82489
1470344786319440,-0.209534,0.0736694,-0.519592,0.825012
1470344786333482,-0.209473,0.0737915,-0.519531,0.825073
1470344786348467,-0.209412,0.0739136,-0.51947,0.825073
1470344786371494,-0.209534,0.0742188,-0.51947,0.825073
1470344786394025,-0.209717,0.0742798,-0.519592,0.824951
1470344786408036,-0.209961,0.0742798,-0.519653,0.824829
1470344786431058,-0.210266,0.0742188,-0.519714,0.824707
1470344786454078,-0.210571,0.0742798,-0.519653,0.824646
1470344786468600,-0.210571,0.0742798,-0.519653,0.824646
1470344786491125,-0.210571,0.0742798,-0.519653,0.824646
1470344786514147,-0.210571,0.0742798,-0.519653,0.824646
1470344786528159,-0.210571,0.0742798,-0.519653,0.824646
1470344786551179,-0.210571,0.0742798,-0.519653,0.824646
1470344786574204,-0.210571,0.0742798,-0.519653,0.824646
1470344786588220,-0.210632,0.0742798,-0.519653,0.824646
1470344786611240,-0.210388,0.0742798,-0.519714,0.824707
1470344786617245,-0.210388,0.0742798,-0.519714,0.824707
1470344786639266,-0.21051,0.0744019,-0.519714,0.824646
1470344786655282,-0.21051,0.0744019,-0.519714,0.824646
1470344786677307,-0.21051,0.0744019,-0.519714,0.824646
1470344786699335,-0.210571,0.0745239,-0.519653,0.824646
1470344786715350,-0.210938,0.0747681,-0.519592,0.824585
1470344786736369,-0.211243,0.0748901,-0.519592,0.824524
1470344786759390,-0.211243,0.0748901,-0.519592,0.824524
1470344786775913,-0.211243,0.0748901,-0.519592,0.824524
1470344786796465,-0.211243,0.0748901,-0.519592,0.824524
1470344786822488,-0.211243,0.0748901,-0.519592,0.824524
1470344786835496,-0.211243,0.0748901,-0.519531,0.824524
1470344786856519,-0.211243,0.0748901,-0.519531,0.824524
1470344786879546,-0.21106,0.074707,-0.519714,0.824463
1470344786895566,-0.21106,0.074707,-0.519714,0.824463
1470344786916651,-0.21106,0.074707,-0.519714,0.824463
1470344786939620,-0.210999,0.074646,-0.519714,0.824463
1470344786955643,-0.210999,0.074646,-0.519714,0.824463
1470344786977176,-0.210999,0.074646,-0.519714,0.824463
1470344786999804,-0.210999,0.074646,-0.519714,0.824463
1470344787015805,-0.21106,0.074646,-0.519714,0.824463
1470344787036839,-0.211243,0.074585,-0.519836,0.824341
1470344787059802,-0.211243,0.074585,-0.519836,0.824341
1470344787075879,-0.211304,0.074585,-0.519836,0.824341
1470344787096905,-0.211243,0.074585,-0.519836,0.824341
1470344787118924,-0.211243,0.0745239,-0.519836,0.824341
1470344787135938,-0.211243,0.074585,-0.519836,0.824341
1470344787156983,-0.211243,0.074585,-0.519836,0.824402
1470344787179560,-0.211243,0.0745239,-0.519836,0.824402
1470344787195841,-0.211426,0.0745239,-0.519836,0.824341
1470344787216861,-0.211426,0.0745239,-0.519836,0.824341
1470344787239838,-0.211365,0.0745239,-0.519836,0.824341
1470344787257879,-0.211365,0.0745239,-0.519836,0.824341
1470344787277377,-0.211365,0.0745239,-0.519836,0.824341
1470344787299944,-0.211609,0.074646,-0.519714,0.824341
1470344787316957,-0.211609,0.074646,-0.519714,0.824341
1470344787337008,-0.211609,0.074646,-0.519714,0.824341
1470344787360030,-0.211609,0.074646,-0.519714,0.824341
1470344787377563,-0.211853,0.0748291,-0.519592,0.824341
1470344787396990,-0.212097,0.0750732,-0.519531,0.82428
1470344787426948,-0.212097,0.0750732,-0.519531,0.82428
1470344787436956,-0.212097,0.0750732,-0.519531,0.82428
1470344787457007,-0.21228,0.0752563,-0.519409,0.824341
1470344787479529,-0.21228,0.0752563,-0.519409,0.824341
1470344787498040,-0.21228,0.0752563,-0.519409,0.824341
1470344787541057,-0.212341,0.0752563,-0.519409,0.824341
1470344787544061,-0.212341,0.0752563,-0.519409,0.824341
1470344787557071,-0.212341,0.0752563,-0.519409,0.824341
1470344787577177,-0.212341,0.0752563,-0.519409,0.82428
1470344787599799,-0.212341,0.0752563,-0.519409,0.824341
1470344787616813,-0.212341,0.0752563,-0.519409,0.824341
1470344787636861,-0.212341,0.0752563,-0.519409,0.824341
1470344787659855,-0.212341,0.0752563,-0.519409,0.824341
1470344787677423,-0.21228,0.0752563,-0.519409,0.824341
1470344787698124,-0.21228,0.0752563,-0.519409,0.824341
1470344787720145,-0.21228,0.0752563,-0.519409,0.824341
1470344787737159,-0.21228,0.0752563,-0.519409,0.824341
1470344787757175,-0.21228,0.0752563,-0.519409,0.824341
1470344787779747,-0.21228,0.0752563,-0.519409,0.824341
1470344787797767,-0.21228,0.0752563,-0.519409,0.824341
1470344787816742,-0.21228,0.0753174,-0.519348,0.824341
1470344787839808,-0.211975,0.0754395,-0.519409,0.824341
1470344787856778,-0.211731,0.0755005,-0.51947,0.824402
1470344787878802,-0.211731,0.0755005,-0.51947,0.824402
1470344787899838,-0.211731,0.0755005,-0.51947,0.824402
1470344787917863,-0.211731,0.0755615,-0.51947,0.824402
1470344787938874,-0.211487,0.0755005,-0.519409,0.824463
1470344787959894,-0.211121,0.0755005,-0.519409,0.824585
1470344787977417,-0.211121,0.0755615,-0.519409,0.824585
1470344787998648,-0.210876,0.0755005,-0.519409,0.824646
1470344788019709,-0.210876,0.0755005,-0.519409,0.824646
1470344788037731,-0.210876,0.0755005,-0.519409,0.824646
1470344788058704,-0.210876,0.0754395,-0.519409,0.824646
1470344788079818,-0.210693,0.0753784,-0.519531,0.824646
1470344788096925,-0.210327,0.0753784,-0.519592,0.824707
1470344788117945,-0.2099,0.0753174,-0.519775,0.824707
1470344788138991,-0.208862,0.0751343,-0.520203,0.824707
1470344788156979,-0.207336,0.0750732,-0.520508,0.82489
1470344788180052,-0.205872,0.0747681,-0.520691,0.825195
1470344788199607,-0.204285,0.0744629,-0.520813,0.825562
1470344788224599,-0.203247,0.0743408,-0.520691,0.825867
1470344788239611,-0.202637,0.0742798,-0.520508,0.826172
1470344788259673,-0.202332,0.0740356,-0.520325,0.826355
1470344788277818,-0.202576,0.0741577,-0.520081,0.826416
1470344788299804,-0.203003,0.0742798,-0.519897,0.826416
1470344788319852,-0.203918,0.0744019,-0.519531,0.826416
1470344788337838,-0.204285,0.0740356,-0.519226,0.826538
1470344788367417,-0.204773,0.0737915,-0.518982,0.826599
1470344788379933,-0.205139,0.0737305,-0.51886,0.826599
1470344788397001,-0.205505,0.0736694,-0.518799,0.826538
1470344788424027,-0.205933,0.0740967,-0.51886,0.826355
1470344788439043,-0.206238,0.074646,-0.518921,0.826233
1470344788457055,-0.206726,0.0749512,-0.519043,0.825989
1470344788480085,-0.206848,0.0743408,-0.519348,0.825806
1470344788499107,-0.206238,0.0740356,-0.51947,0.825928
1470344788517124,-0.205688,0.0739746,-0.519409,0.826111
1470344788540147,-0.205688,0.0741577,-0.519104,0.826233
1470344788559162,-0.206177,0.0745239,-0.518982,0.826172
1470344788577683,-0.206177,0.0745239,-0.518982,0.826172
1470344788599896,-0.205322,0.074707,-0.519287,0.826172
1470344788618914,-0.204346,0.0749512,-0.519836,0.82605
1470344788636929,-0.204041,0.0752563,-0.520264,0.825867
1470344788659952,-0.203979,0.0755005,-0.520325,0.825806
1470344788679980,-0.20343,0.0755615,-0.520447,0.825867
1470344788697499,-0.203003,0.0758057,-0.520691,0.825745
1470344788719518,-0.202332,0.0762939,-0.520996,0.825684
1470344788739536,-0.201904,0.0768433,-0.521301,0.825562
1470344788757552,-0.201538,0.0772705,-0.521545,0.8255
1470344788780134,-0.201294,0.0776978,-0.521729,0.825378
1470344788800656,-0.200867,0.0780029,-0.522034,0.825256
1470344788817674,-0.2005,0.0783081,-0.522339,0.825134
1470344788839692,-0.200317,0.0786133,-0.522705,0.82489
1470344788860734,-0.200317,0.0791016,-0.522888,0.824768
1470344788882255,-0.200195,0.0794678,-0.523071,0.824646
1470344788900504,-0.199829,0.0796509,-0.523254,0.824585
1470344788920415,-0.199829,0.0800171,-0.523438,0.824463
1470344788937429,-0.200012,0.0804443,-0.523499,0.824341
1470344788959448,-0.200256,0.0808105,-0.523499,0.824219
1470344788982474,-0.200623,0.0811768,-0.523438,0.824097
1470344788997625,-0.20105,0.0814209,-0.523132,0.824158
1470344789019608,-0.201477,0.081543,-0.522888,0.824219
1470344789040632,-0.201477,0.0814819,-0.522888,0.824219
1470344789057642,-0.201477,0.0814819,-0.522888,0.824219
1470344789080170,-0.201538,0.081543,-0.52301,0.824158
1470344789101219,-0.201294,0.081543,-0.523132,0.824097
1470344789123238,-0.200745,0.081604,-0.52356,0.823975
1470344789139258,-0.200439,0.0820923,-0.523987,0.82373
1470344789161271,-0.200378,0.0821533,-0.523987,0.82373
1470344789182834,-0.200378,0.0821533,-0.523987,0.82373
1470344789199060,-0.200562,0.0823364,-0.523865,0.82373
1470344789221079,-0.201233,0.0825195,-0.523743,0.823608
1470344789242128,-0.202148,0.0823364,-0.52356,0.823547
1470344789259114,-0.202515,0.0819092,-0.523438,0.823608
1470344789281674,-0.20343,0.0818481,-0.523193,0.823486
1470344789296190,-0.204651,0.0819702,-0.522949,0.823364
1470344789319210,-0.205627,0.0819702,-0.522827,0.823181
1470344789341229,-0.206238,0.0819092,-0.522888,0.822998
1470344789356243,-0.206848,0.0820313,-0.522949,0.822815
1470344789379283,-0.207825,0.0820313,-0.522888,0.822632
1470344789401322,-0.208923,0.0819702,-0.522827,0.822388
1470344789416333,-0.209961,0.0819702,-0.522827,0.822083
1470344789439353,-0.210571,0.0817261,-0.522949,0.821899
1470344789461374,-0.210938,0.0814819,-0.52301,0.821777
1470344789475893,-0.211487,0.0813599,-0.523071,0.821594
1470344789499286,-0.212585,0.0814819,-0.522949,0.821411
1470344789521305,-0.213745,0.081665,-0.522705,0.821228
1470344789536319,-0.214233,0.081665,-0.522766,0.821045
1470344789559340,-0.214294,0.0819092,-0.522888,0.820984
1470344789581864,-0.214355,0.0822754,-0.522644,0.821045
1470344789596381,-0.2146,0.0822144,-0.522278,0.821228
1470344789619403,-0.214844,0.0820313,-0.52179,0.821472
1470344789641422,-0.215637,0.0819092,-0.521179,0.821655
1470344789662442,-0.21637,0.0817261,-0.520813,0.821716
1470344789679461,-0.216187,0.0814819,-0.520813,0.821838
1470344789701486,-0.21637,0.0812378,-0.520569,0.82196
1470344789722514,-0.217102,0.0806885,-0.520325,0.82196
1470344789738520,-0.217712,0.0805054,-0.520142,0.82196
1470344789761542,-0.217834,0.0800781,-0.52002,0.822021
1470344789783070,-0.217957,0.0797119,-0.520203,0.821899
1470344789798588,-0.218201,0.079895,-0.520081,0.821899
1470344789821610,-0.218506,0.079895,-0.519958,0.821899
1470344789842627,-0.218811,0.0799561,-0.519958,0.821777
1470344789875163,-0.218811,0.0799561,-0.519958,0.821777
1470344789881666,-0.218994,0.079895,-0.520203,0.821594
1470344789902687,-0.219116,0.0799561,-0.520386,0.821472
1470344789926709,-0.21936,0.0800781,-0.520569,0.821289
1470344789941725,-0.219543,0.0801392,-0.520752,0.821106
1470344789962743,-0.219543,0.0800781,-0.520752,0.821106
1470344789979263,-0.219543,0.0800781,-0.520752,0.821106
1470344790001788,-0.219482,0.0800781,-0.520935,0.820984
1470344790029814,-0.219482,0.0800781,-0.520935,0.820984
1470344790038821,-0.219299,0.0800171,-0.521118,0.820923
1470344790061844,-0.219116,0.0799561,-0.521362,0.820801
1470344790084369,-0.219116,0.079895,-0.521667,0.820618
1470344790099383,-0.219116,0.0796509,-0.521912,0.820496
1470344790121902,-0.218994,0.0793457,-0.522217,0.820374
1470344790143929,-0.218994,0.0790405,-0.522461,0.820251
1470344790158941,-0.219116,0.0787964,-0.522705,0.820068
1470344790180960,-0.219238,0.0784912,-0.522949,0.819946
1470344790203981,-0.219238,0.078064,-0.523193,0.819824
1470344790218506,-0.219238,0.0777588,-0.523376,0.819763
1470344790242036,-0.219421,0.0773926,-0.523499,0.819641
1470344790264057,-0.219421,0.0770874,-0.523499,0.819641
1470344790278067,-0.21936,0.0767822,-0.523499,0.819702
1470344790301089,-0.21936,0.0767822,-0.523499,0.819702
1470344790323622,-0.219421,0.0766602,-0.523682,0.819641
1470344790338771,-0.219482,0.0765381,-0.523865,0.819458
1470344790361794,-0.21936,0.0762939,-0.524048,0.819397
1470344790383812,-0.219238,0.0760498,-0.524231,0.819336
1470344790397824,-0.219238,0.0760498,-0.524231,0.819336
1470344790421849,-0.219238,0.0759277,-0.524353,0.819275
1470344790444377,-0.21936,0.0758057,-0.524536,0.819153
1470344790458388,-0.219421,0.0756226,-0.524719,0.81897
1470344790481409,-0.21936,0.0754395,-0.524963,0.818848
1470344790504430,-0.219299,0.0753174,-0.525146,0.818787
1470344790518447,-0.219116,0.0751343,-0.52533,0.818787
1470344790541060,-0.218933,0.0748901,-0.525452,0.818726
1470344790564082,-0.218506,0.074585,-0.525574,0.818787
1470344790585118,-0.218201,0.0744019,-0.525757,0.818787
1470344790601142,-0.218201,0.0744019,-0.525757,0.818787
1470344790624670,-0.218201,0.0744019,-0.525757,0.818787
1470344790644695,-0.218079,0.0745239,-0.525757,0.818848
1470344790661710,-0.217529,0.0745239,-0.525757,0.81897
1470344790683732,-0.217102,0.0744629,-0.52594,0.81897
1470344790704760,-0.217102,0.0744629,-0.52594,0.81897
1470344790722270,-0.217346,0.074585,-0.526001,0.818848
1470344790743653,-0.21759,0.0747681,-0.526001,0.818787
1470344790764706,-0.21759,0.0747681,-0.526001,0.818787
1470344790781687,-0.21759,0.074707,-0.526001,0.818787
1470344790803710,-0.21759,0.0747681,-0.526001,0.818787
1470344790824798,-0.217529,0.0747681,-0.526001,0.818787
1470344790841812,-0.217651,0.074707,-0.526123,0.818665
1470344790863834,-0.217834,0.074646,-0.526123,0.818604
1470344790884855,-0.218018,0.074585,-0.526123,0.818542
1470344790901869,-0.218018,0.074585,-0.526123,0.818604
1470344790924410,-0.218018,0.074585,-0.526123,0.818604
1470344790945501,-0.218018,0.074646,-0.526123,0.818604
1470344790961504,-0.218018,0.074646,-0.526123,0.818542
1470344790983537,-0.217957,0.0747681,-0.526245,0.818481
1470344791005542,-0.217773,0.0749512,-0.526428,0.81842
1470344791028827,-0.217834,0.0753174,-0.52655,0.818298
1470344791043839,-0.217834,0.0755615,-0.52655,0.818237
1470344791066859,-0.217834,0.0755615,-0.52655,0.818237
1470344791081876,-0.217834,0.0755615,-0.52655,0.818298
1470344791111932,-0.217773,0.0755615,-0.52655,0.818298
1470344791126489,-0.217834,0.0755615,-0.52655,0.818298
1470344791141499,-0.217651,0.0755005,-0.526611,0.818298
1470344791163583,-0.21759,0.0754395,-0.526611,0.818298
1470344791186536,-0.21759,0.0754395,-0.526611,0.818298
1470344791200550,-0.217346,0.0753784,-0.526489,0.81842
1470344791224148,-0.21698,0.0753784,-0.526428,0.818604
1470344791246374,-0.216553,0.0753174,-0.526367,0.818726
1470344791261367,-0.216187,0.0753784,-0.526306,0.818848
1470344791284421,-0.215942,0.0756226,-0.526306,0.81897
1470344791306427,-0.215637,0.0758667,-0.526306,0.81897
1470344791321016,-0.215576,0.0762329,-0.526306,0.81897
1470344791344541,-0.215515,0.0765381,-0.526367,0.818909
1470344791366563,-0.215454,0.0767212,-0.526428,0.818848
1470344791380574,-0.215515,0.0768433,-0.526489,0.818848
1470344791404595,-0.215637,0.0769653,-0.526428,0.818787
1470344791426626,-0.21582,0.0770264,-0.526367,0.818787
1470344791440638,-0.21582,0.0770264,-0.526367,0.818787
1470344791463658,-0.21582,0.0770264,-0.526367,0.818787
1470344791486679,-0.216003,0.0770874,-0.526428,0.818726
1470344791500693,-0.215942,0.0770874,-0.526428,0.818726
1470344791524224,-0.215942,0.0771484,-0.526428,0.818726
1470344791546749,-0.215759,0.0773315,-0.526367,0.818787
1470344791567769,-0.215576,0.0775757,-0.526367,0.818848
1470344791583781,-0.215393,0.0778198,-0.526245,0.818909
1470344791606802,-0.215271,0.0780029,-0.526184,0.81897
1470344791627837,-0.215088,0.078186,-0.526184,0.81897
1470344791643850,-0.215088,0.078186,-0.526184,0.81897
1470344791666916,-0.215088,0.078186,-0.526184,0.819031
1470344791687947,-0.215088,0.078186,-0.526184,0.819031
1470344791703907,-0.215088,0.078186,-0.526184,0.819031
1470344791726998,-0.215271,0.078186,-0.526123,0.81897
1470344791748016,-0.215515,0.078125,-0.526062,0.81897
1470344791764032,-0.215576,0.078125,-0.526062,0.81897
1470344791786074,-0.215576,0.078125,-0.526062,0.81897
1470344791807085,-0.215515,0.078125,-0.526062,0.81897
1470344791824095,-0.215637,0.078125,-0.526001,0.81897
1470344791846133,-0.215637,0.078125,-0.526001,0.81897
1470344791868153,-0.215576,0.0782471,-0.52594,0.819031
1470344791884201,-0.215576,0.0784912,-0.525879,0.819031
1470344791906187,-0.215637,0.0787964,-0.525879,0.81897
1470344791927326,-0.215637,0.0787964,-0.525879,0.81897
1470344791944343,-0.215637,0.0787964,-0.525879,0.81897
1470344791966362,-0.215576,0.0787964,-0.525879,0.81897
1470344791989384,-0.215637,0.0787964,-0.525879,0.81897
1470344792004396,-0.215576,0.0787964,-0.525879,0.81897
1470344792025977,-0.215576,0.0787964,-0.525879,0.81897
1470344792049110,-0.215637,0.0787964,-0.525879,0.81897
1470344792064121,-0.215393,0.0784302,-0.52594,0.819031
1470344792086143,-0.215149,0.0782471,-0.525818,0.819214
1470344792109161,-0.215149,0.0783691,-0.525696,0.819275
1470344792123713,-0.214478,0.0787354,-0.525574,0.819519
1470344792146797,-0.213135,0.0785522,-0.524963,0.820251
1470344792168816,-0.212341,0.0785522,-0.524414,0.820801
1470344792183830,-0.212036,0.0787354,-0.52417,0.821045
1470344792206851,-0.212036,0.0787964,-0.52417,0.820984
1470344792229550,-0.21228,0.0790405,-0.524353,0.820801
1470344792243563,-0.212463,0.0791016,-0.524658,0.820557
1470344792266583,-0.212891,0.0792847,-0.525024,0.82019
1470344792288602,-0.213257,0.0792847,-0.525391,0.819885
1470344792303617,-0.213501,0.0791626,-0.525757,0.81958
1470344792326647,-0.213867,0.0789795,-0.526001,0.819336
1470344792348736,-0.214111,0.0788574,-0.526184,0.819214
1470344792363749,-0.214233,0.0787354,-0.526306,0.819092
1470344792386769,-0.214233,0.0784912,-0.526428,0.819031
1470344792408792,-0.214294,0.0783691,-0.526489,0.81897
1470344792423811,-0.214294,0.0783691,-0.526489,0.819031
1470344792446342,-0.214233,0.0783691,-0.526489,0.819031
1470344792476363,-0.214172,0.0783691,-0.526428,0.819092
1470344792491377,-0.213867,0.0782471,-0.526428,0.819153
1470344792506393,-0.213562,0.0782471,-0.526428,0.819214
1470344792529427,-0.213562,0.0782471,-0.526428,0.819214
1470344792550447,-0.213745,0.0785522,-0.526428,0.819153
1470344792566460,-0.213928,0.0787354,-0.526428,0.819092
1470344792589481,-0.213867,0.0787354,-0.526428,0.819092
1470344792610500,-0.213989,0.0786743,-0.526489,0.819031
1470344792627023,-0.214233,0.0786133,-0.526489,0.81897
1470344792649553,-0.2146,0.0785522,-0.526489,0.818909
1470344792670572,-0.214905,0.0785522,-0.526367,0.818848
1470344792686585,-0.214905,0.0785522,-0.526367,0.818848
1470344792708604,-0.214966,0.0786133,-0.526367,0.818848
1470344792730637,-0.214966,0.0786133,-0.526367,0.818848
1470344792746651,-0.214966,0.0786133,-0.526367,0.818848
1470344792768670,-0.214661,0.0787354,-0.526367,0.81897
1470344792789691,-0.214417,0.0789185,-0.526306,0.819031
1470344792806706,-0.214294,0.0792236,-0.526184,0.819092
1470344792828737,-0.214233,0.0795288,-0.526184,0.819092
1470344792857763,-0.214294,0.079834,-0.526184,0.819031
1470344792866774,-0.214478,0.0800171,-0.526245,0.818909
1470344792888791,-0.214783,0.0802002,-0.526245,0.818848
1470344792911811,-0.215027,0.0803223,-0.526306,0.818726
1470344792926831,-0.215271,0.0803223,-0.526306,0.818665
1470344792948731,-0.215515,0.0802612,-0.526245,0.818604
1470344792971749,-0.215759,0.0802612,-0.526245,0.818542
1470344792986763,-0.215759,0.0802612,-0.526245,0.818604
1470344793009783,-0.215759,0.0802612,-0.526245,0.818604
1470344793031401,-0.215698,0.0802612,-0.526245,0.818604
1470344793047418,-0.215698,0.0802612,-0.526245,0.818604
1470344793069436,-0.215332,0.0803833,-0.526184,0.818726
1470344793091457,-0.215027,0.0805664,-0.526062,0.818848
1470344793105468,-0.214905,0.0809326,-0.526001,0.818909
1470344793129005,-0.214722,0.0812378,-0.526001,0.818909
1470344793152026,-0.214844,0.0814819,-0.526001,0.818848
1470344793166039,-0.215027,0.081665,-0.526001,0.818787
1470344793189059,-0.21521,0.0817261,-0.52594,0.818726
1470344793218093,-0.21521,0.0817261,-0.52594,0.818726
1470344793226101,-0.21521,0.081665,-0.525818,0.818848
1470344793248946,-0.215515,0.081665,-0.525696,0.818848
1470344793273970,-0.215759,0.081543,-0.525696,0.818787
1470344793285982,-0.215759,0.081543,-0.525696,0.818787
1470344793309001,-0.215759,0.081543,-0.525696,0.818787
1470344793332037,-0.215759,0.081543,-0.525696,0.818787
1470344793346050,-0.215515,0.0817261,-0.525635,0.818848
1470344793369070,-0.215332,0.0819702,-0.525574,0.81897
1470344793391089,-0.215149,0.0822144,-0.525452,0.819031
1470344793406104,-0.214966,0.0823364,-0.525391,0.819092
1470344793428826,-0.214966,0.0823975,-0.525391,0.819092
1470344793451846,-0.214966,0.0823975,-0.525391,0.819092
1470344793472865,-0.215088,0.0825195,-0.52533,0.819092
1470344793496888,-0.215149,0.0826416,-0.525269,0.819153
1470344793512909,-0.215393,0.0827637,-0.525085,0.819153
1470344793532435,-0.215759,0.0830078,-0.524841,0.819153
1470344793549448,-0.216248,0.0831299,-0.524536,0.819214
1470344793571468,-0.216614,0.083252,-0.524353,0.819275
1470344793592486,-0.217102,0.0834351,-0.52417,0.819275
1470344793609502,-0.217468,0.0836182,-0.523987,0.819214
1470344793632030,-0.217529,0.0839233,-0.523865,0.819275
1470344793653048,-0.217712,0.0844116,-0.523926,0.819153
1470344793669062,-0.218018,0.0848999,-0.524109,0.818909
1470344793691584,-0.217896,0.0849609,-0.523926,0.819031
1470344793712471,-0.216919,0.0845947,-0.523804,0.819397
1470344793729487,-0.216125,0.0845947,-0.524109,0.819397
1470344793751506,-0.216125,0.0848999,-0.524353,0.819214
1470344793772525,-0.21637,0.085022,-0.524414,0.819092
1470344793789547,-0.21637,0.085022,-0.524414,0.819092
1470344793811572,-0.21637,0.085022,-0.524414,0.819092
1470344793833591,-0.21637,0.085022,-0.524414,0.819092
1470344793848605,-0.216125,0.0848999,-0.524414,0.819153
1470344793871625,-0.21582,0.0848999,-0.524414,0.819275
1470344793894653,-0.215576,0.0848999,-0.524536,0.819275
1470344793908669,-0.215271,0.0847168,-0.524597,0.819275
1470344793931689,-0.2146,0.0842896,-0.52478,0.819397
1470344793953709,-0.213562,0.0841064,-0.52478,0.819702
1470344793969723,-0.212769,0.0844116,-0.524658,0.819946
1470344793991756,-0.212646,0.0846558,-0.524536,0.820068
1470344794013781,-0.212646,0.0847168,-0.524536,0.820068
1470344794028798,-0.212769,0.0848999,-0.524536,0.820007
1470344794051816,-0.213013,0.085083,-0.524536,0.819885
1470344794073834,-0.213196,0.0852051,-0.524658,0.819763
1470344794088853,-0.213623,0.0853882,-0.524658,0.819641
1470344794111879,-0.213989,0.0855103,-0.524658,0.819519
1470344794133920,-0.213989,0.0855103,-0.524658,0.819519
1470344794147912,-0.213989,0.0855103,-0.524658,0.819519
1470344794171934,-0.21405,0.0855103,-0.524658,0.819519
1470344794194472,-0.21405,0.0855103,-0.524658,0.819519
1470344794207990,-0.21405,0.0855103,-0.524658,0.819519
1470344794232010,-0.21405,0.0855103,-0.524658,0.819519
1470344794254032,-0.213867,0.0856934,-0.524597,0.81958
1470344794268043,-0.213684,0.0859985,-0.524597,0.81958
1470344794291594,-0.213623,0.0862427,-0.524536,0.81958
1470344794314145,-0.213623,0.0862427,-0.524536,0.81958
1470344794328157,-0.213989,0.0865479,-0.524536,0.819519
1470344794336164,-0.214355,0.086853,-0.524536,0.819397
1470344794357239,-0.2146,0.0869141,-0.524658,0.819214
1470344794379247,-0.214722,0.0869141,-0.524719,0.819153
1470344794402290,-0.215027,0.0869751,-0.524719,0.819031
1470344794417283,-0.215332,0.0870361,-0.524719,0.81897
1470344794442304,-0.215515,0.0870972,-0.524719,0.818909
1470344794457318,-0.215515,0.0870972,-0.524719,0.818909
1470344794477336,-0.215454,0.0870972,-0.524719,0.818909
1470344794499396,-0.215454,0.0870972,-0.524719,0.818909
1470344794517412,-0.215515,0.0870972,-0.524719,0.818909
1470344794537431,-0.215515,0.0870972,-0.524719,0.818909
1470344794559528,-0.215515,0.0870972,-0.524719,0.818909
1470344794577469,-0.215515,0.0870972,-0.524719,0.818909
1470344794597032,-0.215515,0.0870972,-0.524719,0.818909
1470344794619559,-0.215515,0.0870972,-0.524719,0.818909
1470344794637576,-0.215515,0.0871582,-0.524719,0.818909
1470344794657609,-0.215515,0.0871582,-0.524719,0.818909
1470344794679642,-0.21582,0.0870361,-0.524719,0.818848
1470344794697652,-0.216064,0.086853,-0.52478,0.818787
1470344794716680,-0.216125,0.0866699,-0.524841,0.818726
1470344794739779,-0.216187,0.0864868,-0.524841,0.818726
1470344794757762,-0.216187,0.0864868,-0.524841,0.818726
1470344794776731,-0.216187,0.0864868,-0.524841,0.818726
1470344794799303,-0.216187,0.0864868,-0.524841,0.818726
1470344794817630,-0.216187,0.0864868,-0.524841,0.818726
1470344794836647,-0.216187,0.0864868,-0.524841,0.818726
1470344794859669,-0.216187,0.0864868,-0.524841,0.818726
1470344794883687,-0.216187,0.0864868,-0.524841,0.818726
1470344794897234,-0.216187,0.0864868,-0.524841,0.818726
1470344794922787,-0.216492,0.0865479,-0.524902,0.818604
1470344794936803,-0.216675,0.0865479,-0.525024,0.818481
1470344794956908,-0.216858,0.0864868,-0.525208,0.818359
1470344794979875,-0.217102,0.0863647,-0.525269,0.818237
1470344794997905,-0.217468,0.0862427,-0.52533,0.818115
1470344795017027,-0.217712,0.0861206,-0.525391,0.817993
1470344795040003,-0.218079,0.0861206,-0.525452,0.817871
1470344795057018,-0.218079,0.0861206,-0.525452,0.817871
1470344795077068,-0.218018,0.0861206,-0.525452,0.817871
1470344795099652,-0.218018,0.0861206,-0.525513,0.817871
1470344795117918,-0.218018,0.0860596,-0.525513,0.817871
1470344795136870,-0.218018,0.0860596,-0.525513,0.817871
1470344795161896,-0.218018,0.0861206,-0.525452,0.817871
1470344795177961,-0.218018,0.0861206,-0.525452,0.817871
1470344795197567,-0.218018,0.0861206,-0.525452,0.817871
1470344795219085,-0.218323,0.0860596,-0.525574,0.817749
1470344795237045,-0.218506,0.0858154,-0.525757,0.817566
1470344795257111,-0.218506,0.0858154,-0.525757,0.817566
1470344795279083,-0.218628,0.0856323,-0.525818,0.817566
1470344795297711,-0.21875,0.0855103,-0.525818,0.817505
1470344795317188,-0.218994,0.0853271,-0.525879,0.817444
1470344795339285,-0.219177,0.085144,-0.52594,0.817322
1470344795357212,-0.219055,0.0847168,-0.526123,0.817322
1470344795377232,-0.218872,0.0844116,-0.526123,0.817383
1470344795399845,-0.218872,0.0844727,-0.526123,0.817383
1470344795417130,-0.218872,0.0844116,-0.526123,0.817383
1470344795438147,-0.218628,0.0844116,-0.526184,0.817444
1470344795459215,-0.218506,0.0843506,-0.526245,0.817444
1470344795477184,-0.218384,0.0842285,-0.526428,0.817383
1470344795498720,-0.218384,0.0842285,-0.526428,0.817383
1470344795519767,-0.218445,0.0839844,-0.52655,0.817261
1470344795537801,-0.218506,0.0837402,-0.526733,0.8172
1470344795558779,-0.218445,0.0834961,-0.526917,0.817139
1470344795579797,-0.218506,0.083313,-0.526978,0.817078
1470344795597957,-0.218628,0.0830688,-0.5271,0.817017
1470344795618891,-0.218689,0.0828247,-0.527161,0.816956
1470344795639907,-0.21875,0.0826416,-0.527222,0.816895
1470344795657923,-0.218628,0.0823975,-0.527344,0.816895
1470344795678034,-0.218445,0.0821533,-0.527405,0.816956
1470344795699522,-0.218445,0.0821533,-0.527405,0.816956
1470344795722073,-0.218445,0.0821533,-0.527405,0.816895
1470344795747070,-0.218445,0.0821533,-0.527405,0.816895
1470344795760098,-0.218445,0.0821533,-0.527405,0.816895
1470344795777097,-0.218506,0.0821533,-0.527405,0.816895
1470344795800152,-0.218506,0.0821533,-0.527405,0.816895
1470344795819207,-0.218445,0.0821533,-0.527405,0.816895
1470344795837190,-0.218567,0.0822144,-0.527466,0.816833
1470344795860258,-0.218689,0.0822144,-0.527588,0.816711
1470344795879230,-0.218689,0.0822144,-0.527588,0.816711
1470344795897823,-0.21875,0.0820313,-0.527649,0.816711
1470344795920408,-0.21875,0.0817871,-0.527649,0.816711
1470344795939430,-0.218872,0.0814819,-0.527649,0.816711
1470344795957441,-0.218933,0.0812988,-0.527527,0.816833
1470344795980462,-0.218933,0.0812988,-0.527527,0.816833
1470344796000016,-0.21875,0.0811768,-0.527405,0.816956
1470344796017599,-0.218628,0.0810547,-0.527344,0.817017
1470344796039581,-0.218628,0.0810547,-0.527344,0.817017
1470344796059652,-0.218628,0.0811157,-0.527344,0.817017
1470344796077613,-0.218689,0.0811157,-0.527344,0.817017
1470344796100194,-0.218628,0.0811157,-0.527344,0.817017
1470344796119906,-0.218933,0.0811157,-0.527344,0.816956
1470344796137831,-0.219116,0.0811157,-0.527405,0.816833
1470344796159852,-0.21936,0.0811157,-0.527405,0.816772
1470344796179868,-0.21936,0.0811157,-0.527405,0.816772
1470344796197891,-0.21936,0.0811157,-0.527405,0.816772
1470344796219943,-0.21936,0.0811157,-0.527405,0.816772
1470344796239984,-0.21936,0.0811157,-0.527405,0.816772
1470344796256976,-0.21936,0.0811157,-0.527405,0.816772
1470344796279998,-0.219299,0.0810547,-0.527405,0.816772
1470344796299611,-0.21936,0.0810547,-0.527405,0.816772
1470344796317076,-0.219055,0.0810547,-0.527405,0.816895
1470344796340097,-0.219055,0.0810547,-0.527405,0.816895
1470344796361117,-0.219055,0.0811157,-0.527344,0.816895
1470344796377135,-0.219055,0.0811157,-0.527344,0.816895
1470344796400158,-0.219055,0.0811157,-0.527344,0.816895
1470344796422184,-0.219177,0.0811768,-0.527405,0.816833
1470344796437210,-0.219421,0.0812988,-0.527466,0.816711
1470344796460234,-0.219666,0.0814819,-0.527527,0.816589
1470344796481237,-0.219849,0.0817871,-0.527527,0.816467
1470344796497804,-0.220032,0.0820923,-0.527649,0.816345
1470344796519898,-0.220276,0.0823975,-0.527832,0.816101
1470344796540974,-0.220459,0.0827637,-0.528015,0.815918
1470344796557931,-0.220703,0.0830688,-0.528137,0.815735
1470344796579951,-0.221008,0.0834961,-0.528259,0.815552
1470344796600980,-0.221375,0.0838623,-0.528442,0.815308
1470344796617660,-0.221924,0.0842285,-0.528625,0.815002
1470344796640654,-0.222595,0.0845337,-0.528748,0.814697
1470344796660711,-0.223389,0.0847168,-0.528992,0.814331
1470344796677659,-0.224426,0.0848389,-0.529297,0.813782
1470344796700277,-0.225769,0.085022,-0.529663,0.813171
1470344796722871,-0.226868,0.0848999,-0.530151,0.812561
1470344796737855,-0.227966,0.0847168,-0.530579,0.812012
1470344796759835,-0.229065,0.0845337,-0.531006,0.811462
1470344796782856,-0.230164,0.0844727,-0.531311,0.810913
1470344796797877,-0.231323,0.0844116,-0.531616,0.810425
1470344796824908,-0.232422,0.0842896,-0.531921,0.809875
1470344796841924,-0.233521,0.0840454,-0.532349,0.809326
1470344796862975,-0.234619,0.0839844,-0.532776,0.808716
1470344796878956,-0.235657,0.0838623,-0.533264,0.808105
1470344796902027,-0.23645,0.0836792,-0.533752,0.807556
1470344796923157,-0.236938,0.0836182,-0.534241,0.807129
1470344796939082,-0.237244,0.0835571,-0.534668,0.806763
1470344796969107,-0.237122,0.0834351,-0.535156,0.806458
1470344796983134,-0.236877,0.083313,-0.535706,0.806213
1470344796999167,-0.236816,0.083313,-0.536133,0.805908
1470344797021927,-0.236633,0.083252,-0.53656,0.805664
1470344797035941,-0.236328,0.0831909,-0.537048,0.805481
1470344797058966,-0.236328,0.0831909,-0.537476,0.805237
1470344797081981,-0.23645,0.0831909,-0.537781,0.804932
1470344797102626,-0.236633,0.0831299,-0.538208,0.804626
1470344797118796,-0.236755,0.0829468,-0.538513,0.804382
1470344797141743,-0.236816,0.0827026,-0.538879,0.804199
1470344797155764,-0.237,0.0826416,-0.539124,0.803955
1470344797178776,-0.237366,0.0825806,-0.539307,0.803711
1470344797201884,-0.237854,0.0826416,-0.53949,0.803467
1470344797222461,-0.238281,0.0825806,-0.539612,0.803223
1470344797239429,-0.238586,0.0825806,-0.539795,0.80304
1470344797261446,-0.238953,0.0826416,-0.539795,0.802917
1470344797282467,-0.23938,0.0828857,-0.539734,0.802856
1470344797299531,-0.239563,0.0831299,-0.539612,0.802795
1470344797321591,-0.239685,0.083374,-0.539551,0.802795
1470344797342573,-0.239685,0.0836182,-0.53949,0.802795
1470344797358660,-0.239929,0.0839233,-0.539368,0.802795
1470344797381656,-0.23999,0.0842896,-0.539185,0.802856
1470344797403175,-0.239807,0.0844116,-0.539124,0.802979
1470344797419350,-0.239685,0.0845947,-0.53894,0.80304
1470344797441369,-0.239746,0.0848389,-0.538757,0.803162
1470344797462390,-0.239868,0.085144,-0.538574,0.803223
1470344797479404,-0.23999,0.0853271,-0.538391,0.803284
1470344797501929,-0.23999,0.0853271,-0.538391,0.803284
1470344797522953,-0.240112,0.0853882,-0.538269,0.803284
1470344797539022,-0.240662,0.0856323,-0.538086,0.803223
1470344797561988,-0.241211,0.0859375,-0.537842,0.803223
1470344797583086,-0.241699,0.0861206,-0.537659,0.803162
1470344797599581,-0.242188,0.0861816,-0.537476,0.803162
1470344797621189,-0.242554,0.0862427,-0.53717,0.803223
1470344797643164,-0.242981,0.0864258,-0.536865,0.803284
1470344797659180,-0.243408,0.0865479,-0.53656,0.803345
1470344797681200,-0.243713,0.0865479,-0.536438,0.803345
1470344797704227,-0.244141,0.0865479,-0.536316,0.803284
1470344797721276,-0.244629,0.0866089,-0.536133,0.803284
1470344797741273,-0.24469,0.0866089,-0.536072,0.803223
1470344797764286,-0.24469,0.0866089,-0.536133,0.803223
1470344797779299,-0.244995,0.086792,-0.535889,0.803284
1470344797801860,-0.245483,0.0870972,-0.535706,0.803223
1470344797824422,-0.245483,0.0870972,-0.535706,0.803223
1470344797838436,-0.245483,0.0870361,-0.535706,0.803223
1470344797861502,-0.24585,0.0872192,-0.535522,0.803223
1470344797884476,-0.246399,0.0873413,-0.535339,0.803162
1470344797898513,-0.246948,0.0872803,-0.535217,0.803101
1470344797921542,-0.247437,0.0870361,-0.535095,0.80304
1470344797944563,-0.247925,0.086792,-0.534973,0.802979
1470344797965639,-0.248535,0.0866089,-0.534729,0.802979
1470344797981594,-0.249146,0.0865479,-0.534546,0.802917
1470344798004646,-0.249634,0.0865479,-0.534363,0.802917
1470344798025671,-0.250244,0.0862427,-0.534241,0.802856
1470344798041685,-0.250793,0.0856934,-0.534119,0.802795
1470344798063756,-0.250854,0.0852051,-0.533875,0.802979
1470344798078718,-0.250549,0.0847778,-0.533691,0.803223
1470344798101788,-0.250427,0.0845947,-0.533569,0.803345
1470344798124565,-0.250366,0.0843506,-0.533569,0.803406
1470344798138578,-0.250366,0.0844116,-0.533569,0.803406
1470344798161631,-0.249939,0.0845337,-0.533569,0.803589
1470344798184617,-0.249084,0.0844116,-0.533691,0.803711
1470344798204745,-0.248657,0.0845337,-0.533936,0.803711
1470344798221760,-0.248474,0.0846558,-0.53418,0.803589
1470344798243779,-0.24823,0.0848999,-0.534302,0.803528
1470344798264890,-0.247864,0.085083,-0.534363,0.803589
1470344798281815,-0.247375,0.0852051,-0.534485,0.80365
1470344798304383,-0.246643,0.085144,-0.534607,0.803772
1470344798326911,-0.245911,0.085022,-0.534668,0.804016
1470344798341926,-0.245361,0.085022,-0.534546,0.80426
1470344798363943,-0.244446,0.0849609,-0.534485,0.804565
1470344798385004,-0.24353,0.0847778,-0.534607,0.80481
1470344798401562,-0.243042,0.0847778,-0.53479,0.80481
1470344798423842,-0.242615,0.085083,-0.534729,0.804932
1470344798444833,-0.242065,0.0856323,-0.534729,0.805054
1470344798461845,-0.241577,0.0863037,-0.534668,0.805176
1470344798483864,-0.240662,0.0869141,-0.534668,0.805359
1470344798504948,-0.239929,0.0877075,-0.534729,0.805481
1470344798521962,-0.239258,0.0883789,-0.534729,0.805603
1470344798543981,-0.238647,0.0887451,-0.53479,0.805725
1470344798565001,-0.237854,0.0888672,-0.53479,0.805908
1470344798582016,-0.236816,0.0888672,-0.534912,0.806152
1470344798604548,-0.235962,0.0888062,-0.534973,0.806335
1470344798632624,-0.235596,0.0890503,-0.535034,0.806396
1470344798641631,-0.235352,0.0894775,-0.535034,0.806458
1470344798663635,-0.235352,0.0894775,-0.535034,0.806458
1470344798686658,-0.235352,0.0894775,-0.535034,0.806458
1470344798702174,-0.235535,0.0894775,-0.535034,0.806396
1470344798723942,-0.23584,0.0894165,-0.535156,0.806213
1470344798746965,-0.236267,0.0894165,-0.535156,0.806091
1470344798760978,-0.236877,0.0894775,-0.535217,0.805847
1470344798784045,-0.237427,0.0893555,-0.535339,0.805664
1470344798813794,-0.237793,0.0889282,-0.535583,0.80542
1470344798820797,-0.237732,0.0883789,-0.535889,0.805298
1470344798843820,-0.23761,0.0877686,-0.536133,0.805237
1470344798866837,-0.237854,0.0869141,-0.536499,0.804993
1470344798880852,-0.238647,0.0862427,-0.536865,0.804626
1470344798903892,-0.239807,0.0855713,-0.537109,0.804199
1470344798926915,-0.240479,0.0847168,-0.537415,0.803833
1470344798940929,-0.240845,0.0836792,-0.537537,0.803772
1470344798963990,-0.241211,0.0827637,-0.537598,0.803711
1470344798986970,-0.241699,0.0822754,-0.537537,0.80365
1470344799000995,-0.242126,0.0820313,-0.537476,0.803589
1470344799024608,-0.242615,0.0818481,-0.537415,0.803467
1470344799046657,-0.242798,0.0814819,-0.537476,0.803406
1470344799060641,-0.242737,0.0811157,-0.537598,0.803406
1470344799083707,-0.242798,0.0809326,-0.537659,0.803345
1470344799106765,-0.243225,0.0808716,-0.53772,0.803223
1470344799127817,-0.243713,0.0810547,-0.53772,0.80304
1470344799143798,-0.244202,0.0812988,-0.537781,0.802856
1470344799166821,-0.244385,0.0813599,-0.537903,0.802673
1470344799187879,-0.244324,0.0813599,-0.537903,0.802673
1470344799204362,-0.244507,0.0814209,-0.537964,0.802612
1470344799226388,-0.244751,0.081543,-0.537964,0.80249
1470344799247405,-0.244934,0.081604,-0.538086,0.802368
1470344799264420,-0.245056,0.081543,-0.538208,0.802246
1470344799286440,-0.245239,0.0814819,-0.53833,0.802124
1470344799307591,-0.245728,0.0814209,-0.538391,0.801941
1470344799324572,-0.246155,0.0812988,-0.538391,0.801819
1470344799346639,-0.246521,0.0811768,-0.538391,0.801758
1470344799367644,-0.246887,0.0809937,-0.538391,0.801636
1470344799384626,-0.247192,0.0808716,-0.538391,0.801575
1470344799406730,-0.247559,0.0806885,-0.53833,0.801514
1470344799427749,-0.248047,0.0805664,-0.53833,0.801331
1470344799444765,-0.248413,0.0803833,-0.53833,0.80127
1470344799466783,-0.248901,0.0802002,-0.538269,0.801147
1470344799487801,-0.249329,0.079895,-0.538269,0.801086
1470344799504321,-0.249756,0.0796509,-0.538086,0.801086
1470344799526599,-0.250244,0.0796509,-0.537964,0.801025
1470344799547642,-0.250732,0.0795898,-0.537964,0.800842
1470344799563631,-0.251404,0.0794678,-0.537964,0.800659
1470344799586652,-0.25177,0.0794067,-0.537903,0.800598
1470344799609686,-0.252197,0.0793457,-0.537842,0.800476
1470344799623699,-0.252625,0.0792847,-0.537781,0.800415
1470344799646719,-0.253113,0.0793457,-0.537659,0.800354
1470344799668737,-0.253418,0.0792847,-0.537598,0.800293
1470344799683750,-0.253601,0.0791016,-0.537537,0.800293
1470344799712789,-0.253967,0.0788574,-0.537476,0.800232
1470344799728803,-0.25415,0.0784912,-0.537476,0.800232
1470344799743818,-0.254395,0.0780029,-0.537476,0.800171
1470344799767840,-0.2547,0.0773926,-0.537537,0.80011
1470344799788856,-0.25531,0.0769043,-0.537354,0.800049
1470344799803875,-0.255981,0.076416,-0.537109,0.80011
1470344799826543,-0.256531,0.0756226,-0.536865,0.800171
1470344799856571,-0.256958,0.0747681,-0.536682,0.800232
1470344799863576,-0.257507,0.0740356,-0.536438,0.800293
1470344799886597,-0.25824,0.0735474,-0.536133,0.800293
1470344799909132,-0.25885,0.072937,-0.53595,0.800293
1470344799923140,-0.259216,0.0723267,-0.535828,0.800293
1470344799947165,-0.259644,0.0717773,-0.535706,0.800293
1470344799969181,-0.260254,0.0712891,-0.535583,0.800232
1470344799983194,-0.260803,0.0708008,-0.5354,0.800171
1470344800006323,-0.26123,0.0701294,-0.535339,0.800171
1470344800029342,-0.261536,0.069519,-0.535278,0.800171
1470344800043354,-0.261902,0.0689087,-0.535217,0.80011
1470344800066375,-0.262329,0.0684204,-0.535217,0.800049
1470344800089397,-0.262878,0.0679321,-0.535156,0.799927
1470344800110428,-0.263611,0.067627,-0.535095,0.799744
1470344800126445,-0.264343,0.0671387,-0.534973,0.799622
1470344800155466,-0.264771,0.0665283,-0.534973,0.799561
1470344800170509,-0.265137,0.0656738,-0.534912,0.7995
1470344800186538,-0.26532,0.0646362,-0.534973,0.7995
1470344800209557,-0.265686,0.0634766,-0.535034,0.799438
1470344800230576,-0.266357,0.062561,-0.534973,0.799377
1470344800246592,-0.266968,0.0617065,-0.534851,0.799255
1470344800269611,-0.267273,0.0609131,-0.534851,0.799255
1470344800290630,-0.267395,0.0599976,-0.534729,0.799316
1470344800306177,-0.267578,0.0593262,-0.534607,0.799377
1470344800329475,-0.268005,0.0588379,-0.534424,0.799438
1470344800350499,-0.268433,0.0585327,-0.534302,0.799438
1470344800366508,-0.268738,0.0582275,-0.53418,0.799377
1470344800389529,-0.268738,0.0577393,-0.53418,0.799438
1470344800410590,-0.268799,0.057373,-0.534302,0.799377
1470344800434613,-0.269043,0.0568848,-0.534424,0.799255
1470344800449626,-0.269836,0.0565796,-0.534424,0.799011
1470344800470645,-0.27063,0.0560913,-0.534363,0.798828
1470344800486660,-0.271423,0.0552979,-0.534424,0.798523
1470344800509450,-0.272522,0.0543213,-0.534424,0.798218
1470344800531470,-0.273621,0.0534668,-0.534241,0.798035
1470344800546484,-0.274658,0.0526733,-0.533875,0.797974
1470344800569503,-0.275208,0.0518188,-0.533569,0.798035
1470344800592090,-0.275391,0.0509033,-0.533508,0.798096
1470344800606159,-0.276062,0.0500488,-0.533264,0.798096
1470344800629385,-0.276855,0.0493774,-0.532959,0.798035
1470344800651403,-0.277344,0.0484619,-0.532776,0.798035
1470344800666416,-0.277405,0.0475464,-0.532593,0.798157
1470344800689437,-0.277527,0.046814,-0.53241,0.798279
1470344800711498,-0.277588,0.0462646,-0.532227,0.798462
1470344800725508,-0.277405,0.0460205,-0.531982,0.798706
1470344800749530,-0.276917,0.0460205,-0.531677,0.799072
1470344800771550,-0.276184,0.0462646,-0.531494,0.799438
1470344800785561,-0.275208,0.0465698,-0.531372,0.799805
1470344800809146,-0.274292,0.0469971,-0.531311,0.800171
1470344800831184,-0.273376,0.0476685,-0.531128,0.800537
1470344800846179,-0.272644,0.0484009,-0.531189,0.80072
1470344800869200,-0.271912,0.0491333,-0.531372,0.800781
1470344800891740,-0.271423,0.0499878,-0.531616,0.800781
1470344800906251,-0.270935,0.0508423,-0.531799,0.800781
1470344800929463,-0.270508,0.0514526,-0.531982,0.80072
1470344800951481,-0.27002,0.0518188,-0.532227,0.80072
1470344800966494,-0.269592,0.052124,-0.532288,0.800781
1470344800989517,-0.269165,0.0524902,-0.532166,0.800964
1470344801011618,-0.268677,0.0527954,-0.532166,0.801147
1470344801032624,-0.268372,0.0531006,-0.532043,0.801331
1470344801048665,-0.268188,0.0534668,-0.531982,0.801392
1470344801071653,-0.267883,0.053833,-0.532104,0.801392
1470344801093318,-0.267761,0.0541382,-0.532166,0.801392
1470344801109229,-0.267578,0.0546265,-0.532104,0.801453
1470344801131248,-0.267151,0.0551147,-0.532104,0.801575
1470344801152283,-0.266846,0.055603,-0.532166,0.801575
1470344801169283,-0.266541,0.0560303,-0.532227,0.801575
1470344801191922,-0.266235,0.0566406,-0.532166,0.801697
1470344801212476,-0.265808,0.057251,-0.532104,0.801819
1470344801229463,-0.265259,0.0576782,-0.532166,0.801941
1470344801251483,-0.264893,0.0580444,-0.532349,0.801941
1470344801272507,-0.264832,0.0583496,-0.532471,0.80188
1470344801289518,-0.264771,0.0587769,-0.53241,0.80188
1470344801311608,-0.264587,0.0591431,-0.532288,0.801941
1470344801332662,-0.264526,0.0594482,-0.532227,0.802002
1470344801349636,-0.264526,0.0596313,-0.532288,0.801941
1470344801371656,-0.264771,0.0598145,-0.532227,0.80188
1470344801393224,-0.264709,0.0601807,-0.531982,0.802063
1470344801408738,-0.264282,0.0605469,-0.531799,0.802246
1470344801431759,-0.263855,0.06073,-0.531799,0.802429
1470344801453790,-0.263855,0.0610352,-0.531738,0.802429
1470344801468789,-0.263855,0.0615234,-0.531677,0.802429
1470344801491811,-0.263672,0.0618896,-0.531738,0.802429
1470344801513838,-0.263428,0.0621338,-0.531738,0.80249
1470344801528858,-0.263184,0.0623779,-0.531677,0.802551
1470344801551873,-0.263245,0.0626831,-0.531677,0.802551
1470344801573893,-0.263367,0.0628662,-0.531738,0.80249
1470344801588961,-0.263367,0.0628662,-0.531738,0.802429
1470344801611059,-0.263367,0.0628662,-0.531738,0.80249
1470344801634075,-0.263367,0.0628662,-0.531738,0.80249
1470344801656070,-0.263367,0.0628662,-0.531738,0.80249
1470344801672112,-0.263367,0.0629272,-0.531738,0.80249
1470344801694693,-0.263367,0.0629272,-0.531738,0.80249
1470344801708202,-0.263367,0.0629272,-0.531738,0.80249
1470344801732286,-0.263489,0.0626831,-0.53186,0.802368
1470344801754252,-0.26355,0.0626831,-0.53186,0.802368
1470344801768266,-0.26355,0.0626831,-0.53186,0.802368
1470344801791315,-0.26355,0.0626831,-0.53186,0.802368
1470344801814363,-0.263428,0.0627441,-0.531982,0.802307
1470344801828382,-0.263428,0.0628662,-0.532227,0.802124
1470344801851398,-0.263306,0.0629272,-0.532349,0.802063
1470344801874416,-0.263062,0.0629272,-0.532593,0.802002
1470344801888468,-0.262634,0.0628662,-0.532837,0.801941
1470344801911517,-0.262329,0.0627441,-0.533142,0.80188
1470344801934524,-0.262329,0.0628052,-0.533325,0.801758
1470344801955655,-0.262268,0.0628052,-0.533508,0.801636
1470344801971556,-0.262024,0.062561,-0.533752,0.801575
1470344801994627,-0.261719,0.0623169,-0.533997,0.801514
1470344802015652,-0.261597,0.0621948,-0.53418,0.801453
1470344802031668,-0.261597,0.0621948,-0.53418,0.801453
1470344802053736,-0.261536,0.0621948,-0.53418,0.801453
1470344802075717,-0.261353,0.0620728,-0.534424,0.801392
1470344802081758,-0.261169,0.0619507,-0.534607,0.801331
1470344802097294,-0.261047,0.0618896,-0.53479,0.80127
1470344802119494,-0.261047,0.0618896,-0.53479,0.80127
1470344802142472,-0.260986,0.0618896,-0.53479,0.80127
1470344802157495,-0.260986,0.0618896,-0.53479,0.80127
1470344802179561,-0.260986,0.0618896,-0.53479,0.80127
1470344802202540,-0.260986,0.0618286,-0.53479,0.80127
1470344802217150,-0.260925,0.0618286,-0.53479,0.80127
1470344802239182,-0.260742,0.0618286,-0.534851,0.801331
1470344802262186,-0.260498,0.0617676,-0.534912,0.801331
1470344802277162,-0.26062,0.0617065,-0.535095,0.801208
1470344802299689,-0.260681,0.0615234,-0.535339,0.801025
1470344802322243,-0.260559,0.0613403,-0.535522,0.800964
1470344802337262,-0.260498,0.0610962,-0.535828,0.800842
1470344802359280,-0.260681,0.0609131,-0.536011,0.800598
1470344802382301,-0.261047,0.0609131,-0.536194,0.800415
1470344802397371,-0.261353,0.060791,-0.536438,0.80011
1470344802419355,-0.261597,0.0604858,-0.536804,0.799866
1470344802442405,-0.26178,0.0599365,-0.537109,0.799622
1470344802457419,-0.261902,0.0595093,-0.537476,0.799377
1470344802479411,-0.262024,0.05896,-0.537903,0.799072
1470344802502435,-0.262268,0.0583496,-0.538452,0.798645
1470344802517454,-0.26239,0.0577393,-0.539124,0.798218
