timestamp,x,y,z,w
1470262627996216,-0.00683594,-0.19043,-0.820068,-0.539673
1470262628010729,-0.00683594,-0.19043,-0.820068,-0.539673
1470262628033749,-0.00689697,-0.190613,-0.820068,-0.539673
1470262628056270,-0.00695801,-0.190552,-0.820068,-0.539612
1470262628070782,-0.00695801,-0.190552,-0.820068,-0.539612
1470262628093804,-0.00689697,-0.190552,-0.820068,-0.539673
1470262628116323,-0.00689697,-0.190552,-0.820068,-0.539673
1470262628138844,-0.00695801,-0.190613,-0.820068,-0.539612
1470262628153858,-0.00695801,-0.190552,-0.820068,-0.539612
1470262628176377,-0.00695801,-0.190552,-0.820068,-0.539612
1470262628190390,-0.00695801,-0.190552,-0.820068,-0.539612
1470262628213912,-0.00695801,-0.190491,-0.820068,-0.539612
1470262628236431,-0.00695801,-0.190491,-0.820068,-0.539612
1470262628250944,-0.00701904,-0.190491,-0.820068,-0.539612
1470262628273965,-0.00701904,-0.190491,-0.820068,-0.539612
1470262628295985,-0.00701904,-0.190491,-0.820068,-0.539612
1470262628317505,-0.00701904,-0.190735,-0.820068,-0.539551
1470262628333518,-0.00701904,-0.190735,-0.820068,-0.539551
1470262628356539,-0.00701904,-0.190735,-0.820068,-0.539551
1470262628377558,-0.00701904,-0.190674,-0.820068,-0.539551
1470262628393573,-0.00701904,-0.190674,-0.820068,-0.539551
1470262628416593,-0.00701904,-0.190674,-0.820068,-0.539551
1470262628437612,-0.00701904,-0.190674,-0.820068,-0.539551
1470262628454127,-0.00708008,-0.190674,-0.820068,-0.539551
1470262628476647,-0.00695801,-0.190552,-0.820129,-0.53949
1470262628497668,-0.00695801,-0.190552,-0.820129,-0.539551
1470262628513680,-0.00695801,-0.190552,-0.82019,-0.539551
1470262628536200,-0.00695801,-0.190552,-0.820129,-0.539551
1470262628557219,-0.00701904,-0.190491,-0.82019,-0.539551
1470262628573735,-0.00701904,-0.190491,-0.82019,-0.539551
1470262628596255,-0.00701904,-0.190491,-0.82019,-0.539551
1470262628617273,-0.00701904,-0.190491,-0.82019,-0.539551
1470262628633788,-0.00701904,-0.190491,-0.82019,-0.539551
1470262628656310,-0.00701904,-0.190491,-0.82019,-0.53949
1470262628677327,-0.00701904,-0.190491,-0.82019,-0.539551
1470262628693842,-0.00701904,-0.19043,-0.82019,-0.539551
1470262628716362,-0.00701904,-0.19043,-0.82019,-0.539551
1470262628737381,-0.00701904,-0.19043,-0.82019,-0.539551
1470262628753896,-0.00701904,-0.19043,-0.82019,-0.539551
1470262628776417,-0.00701904,-0.190491,-0.82019,-0.539551
1470262628798936,-0.00701904,-0.19043,-0.82019,-0.539551
1470262628813950,-0.00701904,-0.19043,-0.82019,-0.539551
1470262628835970,-0.00701904,-0.19043,-0.82019,-0.539551
1470262628858991,-0.00701904,-0.19043,-0.82019,-0.539551
1470262628873503,-0.00701904,-0.19043,-0.82019,-0.539551
1470262628896524,-0.00708008,-0.19043,-0.82019,-0.539551
1470262628918544,-0.00708008,-0.19043,-0.82019,-0.53949
1470262628933057,-0.00708008,-0.19043,-0.82019,-0.53949
1470262628956578,-0.00708008,-0.19043,-0.82019,-0.53949
1470262628979098,-0.00708008,-0.19043,-0.82019,-0.53949
1470262628993111,-0.00708008,-0.19043,-0.82019,-0.53949
1470262629016132,-0.00708008,-0.19043,-0.82019,-0.53949
1470262629038652,-0.00708008,-0.190369,-0.82019,-0.53949
1470262629053165,-0.00708008,-0.190369,-0.82019,-0.53949
1470262629076186,-0.00708008,-0.190369,-0.82019,-0.53949
1470262629098706,-0.00714111,-0.190369,-0.82019,-0.53949
1470262629119725,-0.00714111,-0.190369,-0.82019,-0.53949
1470262629136239,-0.00714111,-0.190369,-0.82019,-0.53949
1470262629158760,-0.00714111,-0.190369,-0.82019,-0.53949
1470262629173273,-0.00714111,-0.190369,-0.82019,-0.53949
1470262629196293,-0.00714111,-0.190369,-0.82019,-0.53949
1470262629218813,-0.00720215,-0.190308,-0.82019,-0.53949
1470262629233326,-0.00720215,-0.190308,-0.82019,-0.53949
1470262629256347,-0.00720215,-0.190308,-0.82019,-0.53949
1470262629278868,-0.00720215,-0.190308,-0.82019,-0.53949
1470262629299886,-0.00720215,-0.190308,-0.82019,-0.53949
1470262629316401,-0.00720215,-0.190308,-0.82019,-0.53949
1470262629338921,-0.00726318,-0.190308,-0.82019,-0.53949
1470262629359940,-0.00726318,-0.190308,-0.820251,-0.53949
1470262629376455,-0.00726318,-0.190308,-0.820251,-0.53949
1470262629398976,-0.00726318,-0.190308,-0.820251,-0.53949
1470262629419994,-0.00726318,-0.190308,-0.820251,-0.53949
1470262629436010,-0.00726318,-0.190308,-0.820251,-0.53949
1470262629459029,-0.00726318,-0.190308,-0.820251,-0.53949
1470262629480048,-0.00726318,-0.190308,-0.820251,-0.53949
1470262629504070,-0.00726318,-0.190308,-0.820251,-0.53949
1470262629519083,-0.00726318,-0.190247,-0.820251,-0.53949
1470262629540102,-0.00726318,-0.190247,-0.820251,-0.53949
1470262629556617,-0.00726318,-0.190247,-0.820251,-0.53949
1470262629579137,-0.00732422,-0.190247,-0.820251,-0.53949
1470262629600155,-0.00732422,-0.190247,-0.820251,-0.53949
1470262629616171,-0.00732422,-0.190247,-0.820251,-0.53949
1470262629638691,-0.00732422,-0.190247,-0.820251,-0.53949
1470262629659709,-0.00732422,-0.190247,-0.820251,-0.53949
1470262629676224,-0.00738525,-0.190247,-0.820251,-0.53949
1470262629698744,-0.00738525,-0.190247,-0.820251,-0.53949
1470262629721265,-0.00738525,-0.190247,-0.820251,-0.53949
1470262629736278,-0.00738525,-0.190247,-0.820251,-0.53949
1470262629758799,-0.00738525,-0.190247,-0.820251,-0.53949
1470262629781819,-0.00744629,-0.190247,-0.820251,-0.53949
1470262629786823,-0.00744629,-0.190247,-0.820251,-0.53949
1470262629804339,-0.00744629,-0.190247,-0.820251,-0.53949
1470262629824357,-0.00744629,-0.190247,-0.820251,-0.53949
1470262629846878,-0.00744629,-0.190247,-0.820251,-0.53949
1470262629861891,-0.00756836,-0.190491,-0.820251,-0.539368
1470262629884410,-0.00762939,-0.190491,-0.820251,-0.539368
1470262629906931,-0.00762939,-0.190491,-0.820251,-0.539368
1470262629921944,-0.00762939,-0.190491,-0.820251,-0.539368
1470262629944466,-0.00762939,-0.190491,-0.820251,-0.539368
1470262629966986,-0.00775146,-0.190796,-0.820251,-0.539246
1470262629983500,-0.0078125,-0.190979,-0.820251,-0.539185
1470262630004519,-0.0078125,-0.19104,-0.820251,-0.539185
1470262630027039,-0.0078125,-0.19104,-0.820251,-0.539185
1470262630042180,-0.00811768,-0.19104,-0.820374,-0.539001
1470262630064130,-0.00842285,-0.191101,-0.820496,-0.538818
1470262630087098,-0.00872803,-0.191223,-0.820557,-0.538635
1470262630102114,-0.0090332,-0.191284,-0.820618,-0.538513
1470262630124142,-0.00933838,-0.191284,-0.82074,-0.53833
1470262630146675,-0.00958252,-0.191284,-0.820801,-0.538208
1470262630164663,-0.0101318,-0.191467,-0.820862,-0.538086
1470262630184222,-0.0112915,-0.191833,-0.820862,-0.537903
1470262630206742,-0.0132446,-0.191956,-0.820984,-0.537659
1470262630229262,-0.0151367,-0.191833,-0.821167,-0.537354
1470262630244289,-0.0167847,-0.191467,-0.821533,-0.536865
1470262630266755,-0.0183105,-0.190735,-0.822021,-0.536316
1470262630283269,-0.0202026,-0.190308,-0.822388,-0.535889
1470262630304330,-0.022583,-0.190186,-0.822632,-0.535461
1470262630326810,-0.0250854,-0.190186,-0.822815,-0.535034
1470262630343323,-0.0272217,-0.190247,-0.822937,-0.534729
1470262630364342,-0.0290527,-0.190125,-0.823059,-0.534485
1470262630386895,-0.0309448,-0.190125,-0.82312,-0.534241
1470262630403377,-0.0327759,-0.190186,-0.823242,-0.533997
1470262630424442,-0.0344849,-0.190063,-0.823425,-0.533691
1470262630446916,-0.0360107,-0.189941,-0.823547,-0.533386
1470262630463430,-0.0374756,-0.18988,-0.823608,-0.533203
1470262630484449,-0.0386963,-0.189575,-0.82373,-0.53302
1470262630506970,-0.0394287,-0.189148,-0.823853,-0.53302
1470262630522995,-0.0397949,-0.188721,-0.823853,-0.533081
1470262630544504,-0.039917,-0.188416,-0.82373,-0.533325
1470262630567024,-0.0402222,-0.188232,-0.823608,-0.533569
1470262630583039,-0.0404053,-0.18811,-0.823547,-0.533752
1470262630604593,-0.0407715,-0.188171,-0.823547,-0.53363
1470262630627077,-0.041687,-0.18866,-0.823547,-0.533386
1470262630643092,-0.0435181,-0.190063,-0.823547,-0.532837
1470262630665612,-0.0465698,-0.192871,-0.823669,-0.531311
1470262630686633,-0.050354,-0.19635,-0.824341,-0.528687
1470262630704677,-0.0546875,-0.199707,-0.825073,-0.525818
1470262630724210,-0.0593262,-0.202454,-0.825684,-0.523315
1470262630748187,-0.0641479,-0.203979,-0.826355,-0.521057
1470262630764702,-0.0688477,-0.204834,-0.827332,-0.518555
1470262630787222,-0.0736084,-0.206421,-0.828491,-0.515442
1470262630806739,-0.0787964,-0.208984,-0.829529,-0.511902
1470262630824757,-0.0845337,-0.21228,-0.830444,-0.508179
1470262630844272,-0.0906982,-0.216187,-0.831421,-0.503845
1470262630866811,-0.0970459,-0.220032,-0.833069,-0.49823
1470262630884809,-0.103699,-0.223267,-0.835388,-0.491577
1470262630904353,-0.110901,-0.226013,-0.838074,-0.484131
1470262630926894,-0.119141,-0.229431,-0.840515,-0.476318
1470262630944877,-0.127747,-0.233765,-0.842651,-0.468079
1470262630964429,-0.136475,-0.238281,-0.844788,-0.459351
1470262630986944,-0.145508,-0.242126,-0.847168,-0.450195
1470262631004416,-0.154663,-0.245361,-0.849304,-0.441223
1470262631024435,-0.164429,-0.249512,-0.850769,-0.432434
1470262631046961,-0.173767,-0.255432,-0.85144,-0.42395
1470262631064472,-0.183105,-0.26178,-0.85199,-0.414856
1470262631084488,-0.192566,-0.266602,-0.852722,-0.405945
1470262631107132,-0.20166,-0.269897,-0.853088,-0.398621
1470262631125027,-0.209961,-0.273621,-0.853333,-0.391174
1470262631144648,-0.217224,-0.276428,-0.853699,-0.384277
1470262631167066,-0.223511,-0.277832,-0.854309,-0.378357
1470262631184628,-0.229065,-0.279724,-0.854553,-0.373047
1470262631205597,-0.233887,-0.282227,-0.854492,-0.368225
1470262631226651,-0.237732,-0.284485,-0.854431,-0.364197
1470262631244633,-0.240601,-0.2854,-0.854614,-0.361145
1470262631265652,-0.242737,-0.2854,-0.854858,-0.359192
1470262631287187,-0.244385,-0.28595,-0.854858,-0.357483
1470262631304695,-0.245605,-0.286682,-0.854736,-0.356445
1470262631325705,-0.245667,-0.286621,-0.854736,-0.356384
1470262631346746,-0.244934,-0.28595,-0.855103,-0.356628
1470262631364741,-0.244019,-0.285522,-0.855347,-0.356995
1470262631385759,-0.243225,-0.285461,-0.855286,-0.357666
1470262631406795,-0.242371,-0.285828,-0.855103,-0.358337
1470262631424794,-0.241333,-0.285889,-0.855103,-0.359009
1470262631447819,-0.240295,-0.285706,-0.855286,-0.359558
1470262631466833,-0.239563,-0.285522,-0.855347,-0.359985
1470262631484854,-0.239014,-0.285339,-0.855286,-0.360657
1470262631505866,-0.238342,-0.285034,-0.855286,-0.361206
1470262631526897,-0.237488,-0.284424,-0.855652,-0.36145
1470262631550912,-0.237305,-0.283875,-0.855835,-0.361633
1470262631565921,-0.237305,-0.283447,-0.855774,-0.362061
1470262631586941,-0.236511,-0.282349,-0.855896,-0.363098
1470262631604975,-0.23468,-0.279114,-0.856689,-0.36499
1470262631626975,-0.232422,-0.27478,-0.857788,-0.367065
1470262631646993,-0.230164,-0.270386,-0.858704,-0.369751
1470262631665011,-0.226624,-0.265808,-0.859375,-0.373535
1470262631695040,-0.219849,-0.262634,-0.859375,-0.379822
1470262631706549,-0.209167,-0.263855,-0.858032,-0.387939
1470262631724563,-0.19574,-0.269287,-0.85553,-0.396606
1470262631747137,-0.17926,-0.276672,-0.852844,-0.40509
1470262631766603,-0.158752,-0.284485,-0.850037,-0.414001
1470262631784617,-0.134644,-0.290833,-0.846985,-0.424194
1470262631807146,-0.107117,-0.297241,-0.843079,-0.435303
1470262631826698,-0.0776978,-0.307312,-0.836609,-0.446838
1470262631844731,-0.0476685,-0.321899,-0.826904,-0.45874
1470262631867193,-0.0167236,-0.339417,-0.813416,-0.472168
1470262631894216,0.0165405,-0.357056,-0.796997,-0.487
1470262631904725,0.0531616,-0.374451,-0.777832,-0.502075
1470262631927299,0.09198,-0.392273,-0.756348,-0.515442
1470262631946790,0.131165,-0.411438,-0.732788,-0.52594
1470262631964780,0.168701,-0.4328,-0.707092,-0.533264
1470262631987313,0.203796,-0.455078,-0.679932,-0.53772
1470262632006858,0.235962,-0.477844,-0.651794,-0.539673
1470262632025834,0.265442,-0.499756,-0.623596,-0.539429
1470262632047368,0.292725,-0.520142,-0.595459,-0.537842
1470262632066903,0.318054,-0.539185,-0.568176,-0.534241
1470262632084901,0.340088,-0.557678,-0.541016,-0.529846
1470262632106906,0.35968,-0.575867,-0.514648,-0.523621
1470262632134432,0.379089,-0.593506,-0.488464,-0.51532
1470262632144945,0.395508,-0.611145,-0.462524,-0.506165
1470262632174468,0.410034,-0.627258,-0.438477,-0.496277
1470262632187997,0.422668,-0.641663,-0.416382,-0.486145
1470262632204999,0.434509,-0.655212,-0.396057,-0.474487
1470262632227521,0.444458,-0.669067,-0.377136,-0.461121
1470262632248034,0.451721,-0.683777,-0.358582,-0.447021
1470262632264550,0.456238,-0.69928,-0.339722,-0.433044
1470262632286568,0.458313,-0.715271,-0.320496,-0.419128
1470262632307586,0.458313,-0.731201,-0.301697,-0.405396
1470262632330106,0.456482,-0.745789,-0.284912,-0.392822
1470262632346122,0.454102,-0.757019,-0.272583,-0.382629
1470262632367640,0.451904,-0.763,-0.266418,-0.377747
1470262632390185,0.449158,-0.764038,-0.265869,-0.379272
1470262632406176,0.445557,-0.761963,-0.269592,-0.38501
1470262632427694,0.441467,-0.758545,-0.276428,-0.391663
1470262632451235,0.437561,-0.754639,-0.284241,-0.397888
1470262632466230,0.434387,-0.750793,-0.291809,-0.403198
1470262632487748,0.431946,-0.747131,-0.298462,-0.407715
1470262632503262,0.429749,-0.743958,-0.303772,-0.411926
1470262632526785,0.427612,-0.741394,-0.307861,-0.415649
1470262632548803,0.42572,-0.73938,-0.310974,-0.418945
1470262632563316,0.424438,-0.737671,-0.313171,-0.42157
1470262632586338,0.423462,-0.736694,-0.314331,-0.423401
1470262632608857,0.422852,-0.73645,-0.31427,-0.424438
1470262632623370,0.422546,-0.737122,-0.312805,-0.424622
1470262632646391,0.422546,-0.738708,-0.310669,-0.423462
1470262632668911,0.422668,-0.740906,-0.307983,-0.421509
1470262632691431,0.423157,-0.743286,-0.305237,-0.418701
1470262632706446,0.423767,-0.745911,-0.302673,-0.415344
1470262632728965,0.4245,-0.748291,-0.300293,-0.411926
1470262632743478,0.425232,-0.750427,-0.29834,-0.408691
1470262632772505,0.426025,-0.752136,-0.297119,-0.405762
1470262632789018,0.426758,-0.753174,-0.296387,-0.403503
1470262632810038,0.427429,-0.75354,-0.296326,-0.402161
1470262632826552,0.427979,-0.753113,-0.297668,-0.401489
1470262632849072,0.428345,-0.751953,-0.300598,-0.401001
1470262632870091,0.428833,-0.750061,-0.304504,-0.401123
1470262632886609,0.429321,-0.747498,-0.308655,-0.402161
1470262632908628,0.429749,-0.74469,-0.3125,-0.403931
1470262632930172,0.429871,-0.741577,-0.316833,-0.406189
1470262632946660,0.430481,-0.737183,-0.322205,-0.40918
1470262632968681,0.431519,-0.732422,-0.327209,-0.41272
1470262632990200,0.432434,-0.727966,-0.330811,-0.416809
1470262633006714,0.433105,-0.723816,-0.333191,-0.421326
1470262633028787,0.434509,-0.719116,-0.33551,-0.426147
1470262633050271,0.43689,-0.713684,-0.337341,-0.431335
1470262633066270,0.439941,-0.708191,-0.337219,-0.437317
1470262633088824,0.443665,-0.70282,-0.335388,-0.443604
1470262633109836,0.447815,-0.697693,-0.332214,-0.449829
1470262633126322,0.453735,-0.691833,-0.328979,-0.455383
1470262633148842,0.461792,-0.685425,-0.326172,-0.458862
1470262633169860,0.470398,-0.679688,-0.322998,-0.460938
1470262633186378,0.479126,-0.674072,-0.319153,-0.46283
1470262633208896,0.488892,-0.667664,-0.315491,-0.464417
1470262633229931,0.499817,-0.660828,-0.312317,-0.464722
1470262633246429,0.510925,-0.654114,-0.309082,-0.464294
1470262633268950,0.521484,-0.647339,-0.305237,-0.464722
1470262633290024,0.531616,-0.639709,-0.301331,-0.466248
1470262633305488,0.54126,-0.631531,-0.297974,-0.468506
1470262633329003,0.549255,-0.623718,-0.294983,-0.471497
1470262633350080,0.555603,-0.616394,-0.292786,-0.475098
1470262633365537,0.560364,-0.608887,-0.291931,-0.479614
1470262633389057,0.564392,-0.600586,-0.293457,-0.484497
1470262633410076,0.567017,-0.592285,-0.296387,-0.489807
1470262633425638,0.56781,-0.584595,-0.299927,-0.495972
1470262633448611,0.567261,-0.577026,-0.304504,-0.502625
1470262633470206,0.566162,-0.569214,-0.309509,-0.509583
1470262633485644,0.565247,-0.561096,-0.315613,-0.515869
1470262633509165,0.563782,-0.553528,-0.321655,-0.521912
1470262633531686,0.561707,-0.546448,-0.326965,-0.528259
1470262633552708,0.559082,-0.539673,-0.332642,-0.534424
1470262633569220,0.556946,-0.53241,-0.339844,-0.539368
1470262633592240,0.55542,-0.525391,-0.347229,-0.543091
1470262633612758,0.553711,-0.518921,-0.352661,-0.547546
1470262633628773,0.551453,-0.51178,-0.357788,-0.553223
1470262633651294,0.548889,-0.503601,-0.36499,-0.558533
1470262633672312,0.546387,-0.496094,-0.373718,-0.56189
1470262633689327,0.542908,-0.489502,-0.380554,-0.566467
1470262633718857,0.538452,-0.482666,-0.386169,-0.572754
1470262633732871,0.533386,-0.476074,-0.391296,-0.579468
1470262633748882,0.527893,-0.470093,-0.395386,-0.586548
1470262633771401,0.521973,-0.464233,-0.398621,-0.594299
1470262633792433,0.51593,-0.45813,-0.401855,-0.602051
1470262633808935,0.510437,-0.452087,-0.404907,-0.609253
1470262633837482,0.505676,-0.445801,-0.407288,-0.616211
1470262633852486,0.501709,-0.438904,-0.409241,-0.623047
1470262633868989,0.498901,-0.431213,-0.410645,-0.629761
1470262633891509,0.497314,-0.422974,-0.411621,-0.635925
1470262633914028,0.496643,-0.414734,-0.412109,-0.641541
1470262633929042,0.496948,-0.406311,-0.412048,-0.646667
1470262633951563,0.497375,-0.397156,-0.412231,-0.651917
1470262633972637,0.497375,-0.387573,-0.413696,-0.656738
1470262633988596,0.495728,-0.377991,-0.417114,-0.661377
1470262634011617,0.491943,-0.367981,-0.423401,-0.665833
1470262634032708,0.485596,-0.357849,-0.43335,-0.669678
1470262634049150,0.475952,-0.348328,-0.445496,-0.673584
1470262634077676,0.46167,-0.3396,-0.457642,-0.67981
1470262634092689,0.442444,-0.330872,-0.469421,-0.688843
1470262634108703,0.418762,-0.322937,-0.480591,-0.699585
1470262634131225,0.390747,-0.315918,-0.491028,-0.71167
1470262634160274,0.35907,-0.309204,-0.501343,-0.723999
1470262634175264,0.324829,-0.302856,-0.511658,-0.735535
1470262634191278,0.289673,-0.295898,-0.521973,-0.745789
1470262634212798,0.254822,-0.287598,-0.532349,-0.754333
1470262634228312,0.221191,-0.27832,-0.542908,-0.760864
1470262634251346,0.189209,-0.268677,-0.553711,-0.765137
1470262634274353,0.155273,-0.259949,-0.564392,-0.768066
1470262634288366,0.12439,-0.250061,-0.574219,-0.769653
1470262634311386,0.0975952,-0.238037,-0.585754,-0.768616
1470262634332406,0.0702515,-0.226868,-0.595825,-0.767273
1470262634348419,0.041687,-0.219543,-0.602295,-0.766418
1470262634371440,0.0158691,-0.215332,-0.605103,-0.766357
1470262634392492,-0.00354004,-0.209778,-0.60614,-0.767273
1470262634407973,-0.0180664,-0.20459,-0.607666,-0.767212
1470262634431494,-0.0300903,-0.199219,-0.611084,-0.765564
1470262634460019,-0.0397339,-0.190857,-0.615845,-0.763428
1470262634468026,-0.0480347,-0.180176,-0.620605,-0.761658
1470262634491548,-0.0535278,-0.166138,-0.625061,-0.760864
1470262634514068,-0.0597534,-0.149963,-0.629578,-0.760071
1470262634528080,-0.0691528,-0.134766,-0.632629,-0.759583
1470262634552103,-0.0811768,-0.121948,-0.634216,-0.759216
1470262634574121,-0.0932617,-0.111389,-0.634705,-0.759033
1470262634595162,-0.103882,-0.101746,-0.635132,-0.758667
1470262634611655,-0.11322,-0.0915527,-0.635925,-0.757935
1470262634634175,-0.120117,-0.0804443,-0.636597,-0.757568
1470262634648190,-0.124939,-0.069519,-0.636963,-0.757629
1470262634671209,-0.129639,-0.060791,-0.636841,-0.757629
1470262634693729,-0.135071,-0.0544434,-0.636597,-0.757385
1470262634708242,-0.140625,-0.0499268,-0.636597,-0.756714
1470262634731764,-0.144897,-0.0462036,-0.636963,-0.755798
1470262634753783,-0.147644,-0.0427856,-0.637817,-0.754761
1470262634774802,-0.149719,-0.0403442,-0.638794,-0.753662
1470262634791317,-0.150574,-0.0387573,-0.639648,-0.752869
1470262634813837,-0.150635,-0.0375977,-0.640503,-0.752136
1470262634834881,-0.14978,-0.0360718,-0.641479,-0.751587
1470262634851371,-0.148438,-0.0349731,-0.642822,-0.750732
1470262634873891,-0.147583,-0.0348511,-0.644226,-0.749695
1470262634888403,-0.146973,-0.0355835,-0.645203,-0.748962
1470262634911426,-0.147339,-0.0372314,-0.646057,-0.748108
1470262634933945,-0.147461,-0.0379639,-0.646667,-0.747437
1470262634954963,-0.147461,-0.038147,-0.6474,-0.746826
1470262634971478,-0.147217,-0.0375366,-0.647705,-0.746643
1470262634993998,-0.147217,-0.036377,-0.647644,-0.746765
1470262635015018,-0.147461,-0.0355835,-0.647339,-0.747009
1470262635031532,-0.146851,-0.0346069,-0.646912,-0.747498
1470262635054053,-0.145081,-0.0325317,-0.646606,-0.748291
1470262635075095,-0.142395,-0.0298462,-0.646118,-0.749329
1470262635091586,-0.138794,-0.0265503,-0.645203,-0.750854
1470262635114109,-0.133667,-0.0220947,-0.643677,-0.753235
1470262635134667,-0.127136,-0.0163574,-0.641785,-0.756165
1470262635151640,-0.120361,-0.00976563,-0.639709,-0.759155
1470262635173664,-0.114746,-0.00305176,-0.637573,-0.761841
1470262635195179,-0.111328,0.00286865,-0.634583,-0.764832
1470262635211196,-0.108154,0.00952148,-0.631836,-0.767517
1470262635233738,-0.106079,0.0163574,-0.628479,-0.770447
1470262635255233,-0.103577,0.0224609,-0.625122,-0.773376
1470262635270747,-0.100159,0.024353,-0.623169,-0.775269
1470262635293767,-0.0976563,0.0232544,-0.622925,-0.775818
1470262635315289,-0.0915527,0.024231,-0.622375,-0.777039
1470262635330801,-0.0845337,0.0272217,-0.621094,-0.778748
1470262635353874,-0.0831299,0.0264893,-0.620667,-0.779297
1470262635382851,-0.0814209,0.0244141,-0.619995,-0.780029
1470262635390855,-0.0776978,0.0239868,-0.619629,-0.780701
1470262635413877,-0.0749512,0.0234375,-0.619568,-0.781067
1470262635436397,-0.0740967,0.0213013,-0.619507,-0.78125
1470262635450909,-0.0738525,0.0184937,-0.619507,-0.781372
1470262635473931,-0.0731812,0.0169067,-0.619446,-0.781494
1470262635502457,-0.0723877,0.0158081,-0.619202,-0.781799
1470262635517472,-0.0722046,0.0148926,-0.618652,-0.782288
1470262635533984,-0.0720215,0.0142822,-0.617798,-0.782959
1470262635556504,-0.0714722,0.0140991,-0.616821,-0.783813
1470262635570516,-0.0708008,0.0137939,-0.616028,-0.784485
1470262635594037,-0.0703125,0.0132446,-0.615845,-0.784668
1470262635616558,-0.069397,0.0133057,-0.616028,-0.784607
1470262635631071,-0.0678711,0.0132446,-0.616089,-0.784729
1470262635654091,-0.0663452,0.012085,-0.615662,-0.785156
1470262635676612,-0.0650024,0.0101929,-0.615234,-0.785645
1470262635690624,-0.0637207,0.00811768,-0.615234,-0.785767
1470262635714144,-0.0629883,0.00640869,-0.615662,-0.785522
1470262635736665,-0.062439,0.00518799,-0.616333,-0.785034
1470262635750709,-0.0620728,0.00427246,-0.616821,-0.784668
1470262635774199,-0.0622559,0.0032959,-0.61731,-0.784302
1470262635796219,-0.0622559,0.00286865,-0.617737,-0.783936
1470262635810732,-0.062439,0.00311279,-0.617859,-0.783813
1470262635833753,-0.0628052,0.003479,-0.617676,-0.783936
1470262635856273,-0.0629272,0.00415039,-0.617615,-0.783997
1470262635877308,-0.0631714,0.00488281,-0.617737,-0.783875
1470262635893808,-0.0635376,0.00567627,-0.617981,-0.783691
1470262635916327,-0.0635986,0.00640869,-0.618103,-0.783508
1470262635938847,-0.0634766,0.0067749,-0.618103,-0.783569
1470262635953860,-0.0634155,0.00701904,-0.618103,-0.783569
1470262635976381,-0.0632935,0.00726318,-0.618225,-0.783508
1470262635997900,-0.0634766,0.00775146,-0.618408,-0.783325
1470262636021425,-0.0636597,0.00817871,-0.618469,-0.783203
1470262636036435,-0.0636597,0.00860596,-0.618469,-0.783203
1470262636057471,-0.0635376,0.00891113,-0.61853,-0.783203
1470262636073969,-0.0633545,0.00927734,-0.618591,-0.783142
1470262636103995,-0.0631104,0.00958252,-0.618652,-0.783081
1470262636117508,-0.0629883,0.0098877,-0.618713,-0.783081
1470262636134024,-0.0627441,0.0100708,-0.618652,-0.783142
1470262636156544,-0.0626831,0.0101318,-0.618652,-0.783142
1470262636179097,-0.0626831,0.0101318,-0.618652,-0.783142
1470262636194078,-0.0628052,0.0101929,-0.618652,-0.783142
1470262636216596,-0.0629883,0.0101318,-0.61853,-0.783203
1470262636237671,-0.0631714,0.0101929,-0.618408,-0.783264
1470262636254130,-0.0633545,0.0103149,-0.618286,-0.783386
1470262636276650,-0.0637207,0.0101929,-0.618225,-0.783386
1470262636299171,-0.0643311,0.00994873,-0.618164,-0.783447
1470262636313686,-0.0649414,0.00982666,-0.618164,-0.783386
1470262636336704,-0.0656128,0.00958252,-0.618286,-0.783203
1470262636359226,-0.06604,0.00958252,-0.618347,-0.783142
1470262636373737,-0.0662231,0.00982666,-0.618347,-0.783081
1470262636396258,-0.0664673,0.0101929,-0.618408,-0.78302
1470262636418778,-0.0664673,0.0106201,-0.618591,-0.782898
1470262636433791,-0.0665894,0.0113525,-0.618835,-0.782654
1470262636456312,-0.0667725,0.0122681,-0.619141,-0.78241
1470262636478832,-0.0669556,0.0133667,-0.619629,-0.781982
1470262636493347,-0.0681763,0.0148926,-0.620422,-0.781189
1470262636516369,-0.0712891,0.0167236,-0.621399,-0.78009
1470262636538886,-0.0759888,0.0185547,-0.622437,-0.778809
1470262636559936,-0.0870361,0.0232544,-0.623901,-0.776367
1470262636576419,-0.0960693,0.0192261,-0.625244,-0.774353
1470262636598940,-0.10791,0.0159912,-0.625977,-0.772217
1470262636619988,-0.131042,0.00384521,-0.626709,-0.768188
1470262636636475,-0.162781,-0.0139771,-0.627625,-0.76123
1470262636658994,-0.20166,-0.0374756,-0.626282,-0.752197
1470262636680047,-0.232483,-0.0567017,-0.625549,-0.742676
1470262636697027,-0.256897,-0.0701904,-0.624817,-0.734009
1470262636719049,-0.279114,-0.081604,-0.623718,-0.725586
1470262636740095,-0.30249,-0.0949097,-0.621582,-0.71637
1470262636756583,-0.32782,-0.110596,-0.618469,-0.705627
1470262636779101,-0.355408,-0.12854,-0.614197,-0.692871
1470262636801621,-0.384766,-0.148621,-0.608276,-0.678223
1470262636816635,-0.412109,-0.167847,-0.60144,-0.663574
1470262636839155,-0.434326,-0.183105,-0.595093,-0.651001
1470262636860174,-0.451965,-0.195068,-0.589783,-0.64032
1470262636876189,-0.466858,-0.204773,-0.585144,-0.630737
1470262636898709,-0.481323,-0.215149,-0.580444,-0.620728
1470262636920228,-0.493591,-0.223572,-0.576416,-0.611755
1470262636936243,-0.500977,-0.22876,-0.574463,-0.605652
1470262636958763,-0.504944,-0.231201,-0.574097,-0.601685
1470262636980389,-0.506775,-0.232361,-0.574646,-0.599243
1470262636996296,-0.504211,-0.22998,-0.576904,-0.600159
1470262637018817,-0.499878,-0.225952,-0.579834,-0.602478
1470262637039877,-0.49762,-0.224243,-0.581726,-0.603149
1470262637056384,-0.497192,-0.225098,-0.582397,-0.602539
1470262637078870,-0.4953,-0.224548,-0.583435,-0.603333
1470262637099932,-0.493042,-0.222473,-0.584839,-0.604553
1470262637116404,-0.494629,-0.224182,-0.584534,-0.602966
1470262637138925,-0.497375,-0.227234,-0.583435,-0.600586
1470262637159943,-0.498047,-0.228455,-0.583191,-0.599792
1470262637175958,-0.49762,-0.227783,-0.583618,-0.599976
1470262637198978,-0.497742,-0.227722,-0.583862,-0.59967
1470262637220042,-0.498352,-0.228333,-0.58374,-0.59906
1470262637236513,-0.499084,-0.229248,-0.583313,-0.59845
1470262637259033,-0.498901,-0.229309,-0.583313,-0.598633
1470262637281555,-0.497986,-0.228394,-0.583679,-0.599426
1470262637296566,-0.497314,-0.228027,-0.584045,-0.599731
1470262637319088,-0.497131,-0.228149,-0.584106,-0.599731
1470262637341607,-0.496765,-0.228394,-0.58429,-0.599792
1470262637356620,-0.49585,-0.227966,-0.584778,-0.600281
1470262637379140,-0.494629,-0.227173,-0.585388,-0.600952
1470262637401660,-0.493652,-0.226624,-0.585876,-0.601501
1470262637422688,-0.492432,-0.225952,-0.586365,-0.602295
1470262637439794,-0.491028,-0.225037,-0.586853,-0.603271
1470262637461232,-0.48938,-0.223755,-0.587402,-0.604553
1470262637483284,-0.487183,-0.221985,-0.588196,-0.606262
1470262637484735,-0.483826,-0.219177,-0.589355,-0.608765
1470262637504280,-0.480713,-0.216675,-0.590393,-0.611206
1470262637526796,-0.477539,-0.214661,-0.591003,-0.613708
1470262637543288,-0.471008,-0.210022,-0.592896,-0.61853
1470262637564327,-0.458923,-0.200806,-0.596985,-0.62677
1470262637586854,-0.445251,-0.189819,-0.60144,-0.635681
1470262637604843,-0.433289,-0.181641,-0.604919,-0.643005
1470262637624386,-0.421753,-0.175476,-0.607544,-0.649902
1470262637646914,-0.403564,-0.165283,-0.612122,-0.659729
1470262637664902,-0.382935,-0.149902,-0.617493,-0.670593
1470262637687417,-0.367432,-0.139587,-0.619995,-0.679138
1470262637706934,-0.355042,-0.13324,-0.620544,-0.686462
1470262637724969,-0.340698,-0.124451,-0.621765,-0.694214
1470262637744563,-0.32489,-0.113159,-0.62262,-0.702942
1470262637767012,-0.310425,-0.103027,-0.622192,-0.711304
1470262637784505,-0.296326,-0.0936279,-0.621155,-0.719543
1470262637804522,-0.278503,-0.0823364,-0.619507,-0.72937
1470262637827042,-0.254944,-0.0665894,-0.617493,-0.741211
1470262637845081,-0.229248,-0.0482788,-0.615356,-0.752686
1470262637864576,-0.20575,-0.0306396,-0.613098,-0.762207
1470262637887096,-0.183044,-0.015686,-0.609436,-0.771301
1470262637903111,-0.156372,0.00292969,-0.605469,-0.780396
1470262637924647,-0.129395,0.0232544,-0.602173,-0.787537
1470262637947156,-0.108643,0.0388794,-0.598694,-0.792664
1470262637963166,-0.0925903,0.050415,-0.594666,-0.797058
1470262637984694,-0.0756836,0.0628052,-0.590576,-0.801025
1470262638006708,-0.0595093,0.0753174,-0.587402,-0.80365
1470262638024720,-0.0476074,0.0848999,-0.584412,-0.805664
1470262638045738,-0.0372314,0.0921631,-0.581055,-0.807861
1470262638066758,-0.0255127,0.0999756,-0.577698,-0.809753
1470262638084823,-0.0125122,0.108032,-0.574707,-0.811157
1470262638104294,-0.0010376,0.114746,-0.572144,-0.812134
1470262638126847,0.00769043,0.119568,-0.570496,-0.812561
1470262638144872,0.0136719,0.12262,-0.569397,-0.812805
1470262638164376,0.0182495,0.124817,-0.568726,-0.812805
1470262638186914,0.0216064,0.126404,-0.568787,-0.8125
1470262638204924,0.0228882,0.126892,-0.569458,-0.81189
1470262638224433,0.0206909,0.125488,-0.57074,-0.811279
1470262638246937,0.0160522,0.122803,-0.571899,-0.810974
1470262638264939,0.0117188,0.120117,-0.572754,-0.810852
1470262638284478,0.0102539,0.119324,-0.573181,-0.810669
1470262638307049,0.0109253,0.119873,-0.573547,-0.810303
1470262638325037,0.0117188,0.120361,-0.574097,-0.809814
1470262638352045,0.0106201,0.119629,-0.574768,-0.809509
1470262638367044,0.00823975,0.117981,-0.575073,-0.809509
1470262638385043,0.00817871,0.117249,-0.574707,-0.809937
1470262638404560,0.012146,0.119141,-0.574219,-0.809937
1470262638427081,0.0166626,0.121643,-0.573975,-0.809631
1470262638447600,0.019104,0.123108,-0.573608,-0.809631
1470262638464615,0.0202026,0.123535,-0.572998,-0.809998
1470262638487134,0.0231323,0.124634,-0.571899,-0.810547
1470262638510657,0.0290527,0.128052,-0.57074,-0.810608
1470262638524769,0.0355835,0.131836,-0.56958,-0.810547
1470262638557256,0.041687,0.134705,-0.568115,-0.810791
1470262638569208,0.0490723,0.136963,-0.566589,-0.811096
1470262638584736,0.0567627,0.138977,-0.565735,-0.810852
1470262638606773,0.0640869,0.14032,-0.564941,-0.810608
1470262638624759,0.0726318,0.142212,-0.563843,-0.810303
1470262638644276,0.083374,0.144653,-0.562744,-0.809631
1470262638666796,0.0958252,0.147278,-0.561157,-0.808899
1470262638684813,0.111145,0.151733,-0.559143,-0.807495
1470262638713338,0.126343,0.156189,-0.5578,-0.805359
1470262638726870,0.14325,0.158569,-0.556213,-0.803162
1470262638744866,0.161072,0.156494,-0.555298,-0.800781
1470262638767389,0.177856,0.147888,-0.555664,-0.798645
1470262638786906,0.194763,0.133728,-0.558044,-0.795471
1470262638804964,0.211914,0.116028,-0.561157,-0.791748
1470262638824479,0.228943,0.0956421,-0.564087,-0.787598
1470262638848459,0.248474,0.0739136,-0.566895,-0.781982
1470262638864976,0.269958,0.0513306,-0.569031,-0.775085
1470262638885993,0.292847,0.027771,-0.570801,-0.766663
1470262638910015,0.315735,0.00335693,-0.572388,-0.756836
1470262638925047,0.33844,-0.0217896,-0.573364,-0.74585
1470262638946051,0.361023,-0.046875,-0.573242,-0.734131
1470262638967066,0.383118,-0.0713501,-0.572205,-0.72168
1470262638992589,0.403809,-0.0960693,-0.570557,-0.708679
1470262639005601,0.422913,-0.121765,-0.568359,-0.695251
1470262639027143,0.440979,-0.148376,-0.565613,-0.680908
1470262639045232,0.458313,-0.175232,-0.562134,-0.665771
1470262639073209,0.474609,-0.202087,-0.557983,-0.650085
1470262639088177,0.490173,-0.228821,-0.553345,-0.633484
1470262639104690,0.505432,-0.255554,-0.548401,-0.615295
1470262639125709,0.520203,-0.281982,-0.542847,-0.596008
1470262639154234,0.532532,-0.307983,-0.537903,-0.576416
1470262639169265,0.544006,-0.334229,-0.532043,-0.556213
1470262639187265,0.554932,-0.361755,-0.523987,-0.535461
1470262639206783,0.564026,-0.387573,-0.517517,-0.513733
1470262639229340,0.573059,-0.413757,-0.508728,-0.491638
1470262639247318,0.580322,-0.439697,-0.499268,-0.469727
1470262639266836,0.585754,-0.465637,-0.488892,-0.448486
1470262639284851,0.59021,-0.491028,-0.477112,-0.427734
1470262639307872,0.594116,-0.514648,-0.465088,-0.407288
1470262639326889,0.597595,-0.536194,-0.454102,-0.386292
1470262639344905,0.599854,-0.556763,-0.443909,-0.364929
1470262639367428,0.60022,-0.577271,-0.434082,-0.343567
1470262639389958,0.598938,-0.597534,-0.425049,-0.321899
1470262639404959,0.59613,-0.617004,-0.417053,-0.300171
1470262639434986,0.591919,-0.635193,-0.410095,-0.279358
1470262639446997,0.585999,-0.652771,-0.403687,-0.259949
1470262639465013,0.578674,-0.670105,-0.397278,-0.241394
1470262639487533,0.570251,-0.687134,-0.390991,-0.223389
1470262639514584,0.56134,-0.703003,-0.385132,-0.205933
1470262639525067,0.552002,-0.718323,-0.378967,-0.188965
1470262639547588,0.542419,-0.73291,-0.372864,-0.172241
1470262639567105,0.532776,-0.746582,-0.366821,-0.155945
1470262639597153,0.524048,-0.758789,-0.360657,-0.140076
1470262639607642,0.51709,-0.768799,-0.354797,-0.125122
1470262639629661,0.51239,-0.775818,-0.350586,-0.112549
1470262639644676,0.509216,-0.780396,-0.347778,-0.103699
1470262639667195,0.506714,-0.782898,-0.347473,-0.0984497
1470262639687215,0.504944,-0.783081,-0.350281,-0.0958252
1470262639709732,0.504028,-0.781494,-0.355225,-0.0952759
1470262639727251,0.503723,-0.778809,-0.361328,-0.0960693
1470262639746766,0.503357,-0.775879,-0.367737,-0.0973511
1470262639769287,0.502625,-0.773071,-0.374146,-0.098999
1470262639787302,0.501709,-0.770325,-0.380493,-0.10083
1470262639806846,0.500488,-0.767883,-0.386536,-0.102722
1470262639829849,0.498596,-0.765869,-0.392578,-0.104126
1470262639854887,0.495667,-0.764404,-0.398865,-0.104492
1470262639868375,0.492676,-0.762695,-0.406006,-0.103943
1470262639889394,0.489868,-0.760803,-0.412903,-0.103821
1470262639907410,0.486938,-0.759521,-0.418518,-0.10437
1470262639928429,0.483582,-0.758423,-0.424438,-0.10437
1470262639949448,0.479553,-0.75708,-0.431458,-0.103638
1470262639967465,0.475281,-0.755737,-0.438782,-0.102539
1470262639988984,0.471191,-0.754395,-0.445618,-0.101563
1470262640010029,0.467529,-0.753235,-0.451538,-0.101257
1470262640026523,0.464111,-0.752014,-0.457031,-0.101196
1470262640047587,0.460754,-0.751099,-0.462036,-0.100891
1470262640070112,0.457581,-0.749878,-0.467163,-0.100342
1470262640086571,0.454773,-0.748535,-0.472229,-0.0998535
1470262640107689,0.452148,-0.747253,-0.476746,-0.0995483
1470262640130136,0.449951,-0.746338,-0.480286,-0.0997314
1470262640146626,0.448181,-0.745483,-0.483093,-0.100281
1470262640169146,0.446594,-0.744568,-0.48584,-0.100647
1470262640190164,0.445435,-0.743713,-0.488281,-0.100769
1470262640206208,0.444458,-0.743103,-0.490051,-0.100891
1470262640229199,0.444031,-0.742615,-0.491089,-0.101196
1470262640243217,0.44397,-0.742554,-0.491272,-0.101257
1470262640266733,0.443787,-0.742493,-0.491394,-0.101685
1470262640288757,0.44397,-0.74231,-0.491333,-0.102234
1470262640303269,0.444275,-0.742126,-0.491211,-0.102844
1470262640326786,0.44458,-0.742065,-0.490967,-0.103455
1470262640349307,0.444641,-0.742126,-0.490601,-0.104065
1470262640363319,0.444885,-0.742004,-0.49054,-0.104736
1470262640386340,0.445068,-0.741943,-0.490295,-0.105347
1470262640408860,0.445129,-0.742004,-0.490051,-0.105896
1470262640423374,0.445068,-0.742188,-0.489746,-0.106506
1470262640448396,0.445129,-0.742126,-0.489563,-0.107056
1470262640468915,0.445313,-0.742004,-0.489502,-0.107666
1470262640483428,0.445496,-0.742065,-0.489136,-0.108276
1470262640506448,0.44574,-0.742065,-0.48877,-0.108765
1470262640528970,0.446106,-0.742004,-0.488403,-0.109375
1470262640543482,0.446533,-0.741821,-0.488098,-0.109924
1470262640566523,0.44696,-0.741882,-0.487549,-0.110413
1470262640589022,0.447388,-0.741943,-0.487,-0.11084
1470262640603536,0.447998,-0.741699,-0.486694,-0.111389
1470262640626556,0.448486,-0.741516,-0.486389,-0.111694
1470262640649077,0.448975,-0.741455,-0.485962,-0.112183
1470262640670095,0.449463,-0.741211,-0.485718,-0.112671
1470262640686609,0.449768,-0.740967,-0.485718,-0.113037
1470262640709130,0.449951,-0.740845,-0.485718,-0.113342
1470262640730166,0.450134,-0.740601,-0.48584,-0.113708
1470262640746664,0.450195,-0.740356,-0.486023,-0.114136
1470262640768683,0.450317,-0.740051,-0.486267,-0.114685
1470262640790315,0.450439,-0.739746,-0.486511,-0.115112
1470262640806229,0.450439,-0.739502,-0.486755,-0.115479
1470262640829238,0.450562,-0.739075,-0.487122,-0.115906
1470262640850256,0.450806,-0.738647,-0.487488,-0.116455
1470262640866272,0.45105,-0.738281,-0.487671,-0.117004
1470262640888791,0.451416,-0.737854,-0.487854,-0.117554
1470262640910314,0.451721,-0.737183,-0.488464,-0.118225
1470262640926342,0.452026,-0.736267,-0.489319,-0.119141
1470262640948845,0.452026,-0.735596,-0.490051,-0.120422
1470262640970364,0.452026,-0.734497,-0.491333,-0.121887
1470262640986380,0.452148,-0.732849,-0.493164,-0.123962
1470262641016406,0.452209,-0.730896,-0.4953,-0.126831
1470262641030477,0.452148,-0.72876,-0.497498,-0.130432
1470262641052980,0.451782,-0.726135,-0.500549,-0.134766
1470262641068953,0.450928,-0.722351,-0.505188,-0.140442
1470262641089972,0.450317,-0.71814,-0.510132,-0.146057
1470262641105986,0.449341,-0.714966,-0.513916,-0.151184
1470262641129012,0.447632,-0.712585,-0.517151,-0.156433
1470262641151527,0.445679,-0.709961,-0.520935,-0.161499
1470262641166040,0.44342,-0.706909,-0.525452,-0.16626
1470262641189084,0.440918,-0.703796,-0.530151,-0.171143
1470262641211584,0.438232,-0.700867,-0.534424,-0.176575
1470262641232647,0.435242,-0.697754,-0.538879,-0.182678
1470262641249114,0.432007,-0.694458,-0.543213,-0.189941
1470262641271635,0.429016,-0.690613,-0.547668,-0.197876
1470262641292654,0.426514,-0.686096,-0.552063,-0.206543
1470262641309170,0.424072,-0.68158,-0.555786,-0.216187
1470262641331691,0.421509,-0.676697,-0.559509,-0.226563
1470262641353722,0.418518,-0.671265,-0.563843,-0.237427
1470262641369222,0.415344,-0.664978,-0.56897,-0.248352
1470262641391242,0.412415,-0.657959,-0.573853,-0.260376
1470262641412762,0.410706,-0.650452,-0.577942,-0.272461
1470262641429276,0.409058,-0.642761,-0.581055,-0.286377
1470262641451797,0.406006,-0.637817,-0.581848,-0.299683
1470262641472820,0.399963,-0.629089,-0.58844,-0.313171
1470262641488839,0.396912,-0.622681,-0.589844,-0.326904
1470262641511350,0.3927,-0.614136,-0.593689,-0.341003
1470262641532370,0.388245,-0.604797,-0.598145,-0.354675
1470262641548884,0.383606,-0.595703,-0.601807,-0.368591
1470262641571404,0.378296,-0.586914,-0.605042,-0.38269
1470262641592950,0.372498,-0.578064,-0.608032,-0.39679
1470262641608938,0.366821,-0.568298,-0.611511,-0.410583
1470262641631959,0.361511,-0.558411,-0.614624,-0.424072
1470262641652987,0.356079,-0.548523,-0.617065,-0.437744
1470262641668992,0.350342,-0.538696,-0.61908,-0.451538
1470262641691513,0.34436,-0.52832,-0.62146,-0.464905
1470262641712533,0.338379,-0.5177,-0.624023,-0.4776
1470262641729046,0.332397,-0.507141,-0.626038,-0.490356
1470262641751569,0.32605,-0.496399,-0.627502,-0.50354
1470262641772585,0.319214,-0.485596,-0.628601,-0.516968
1470262641795106,0.31189,-0.474731,-0.629456,-0.530334
1470262641811620,0.304626,-0.463928,-0.630005,-0.543274
1470262641832639,0.296875,-0.452759,-0.630615,-0.556152
1470262641848653,0.288757,-0.44043,-0.631775,-0.568848
1470262641871674,0.280518,-0.427246,-0.633789,-0.580688
1470262641892726,0.272766,-0.41333,-0.636047,-0.591858
1470262641908222,0.265381,-0.398804,-0.638,-0.602905
1470262641932229,0.257385,-0.384949,-0.639038,-0.614197
1470262641952747,0.248291,-0.371948,-0.63916,-0.625793
1470262641968260,0.238892,-0.359558,-0.638794,-0.636963
1470262641991781,0.230164,-0.347046,-0.638611,-0.647156
1470262642012801,0.222046,-0.334045,-0.638611,-0.656799
1470262642028317,0.213684,-0.320496,-0.63855,-0.666321
1470262642051340,0.204163,-0.307007,-0.638062,-0.676025
1470262642074856,0.194641,-0.292969,-0.637512,-0.685486
1470262642088370,0.18512,-0.278687,-0.636902,-0.694641
1470262642111389,0.176025,-0.264282,-0.636047,-0.703308
1470262642133912,0.167114,-0.25,-0.634888,-0.711731
1470262642148424,0.158508,-0.236145,-0.633423,-0.719727
1470262642171443,0.150024,-0.222778,-0.631775,-0.727173
1470262642193964,0.141541,-0.209961,-0.629944,-0.734253
1470262642214983,0.132935,-0.197754,-0.627869,-0.741028
1470262642239004,0.124573,-0.186096,-0.625671,-0.747314
1470262642254017,0.11615,-0.174927,-0.623474,-0.753174
1470262642275036,0.10791,-0.163696,-0.621521,-0.758545
1470262642291551,0.0998535,-0.15271,-0.619934,-0.763245
1470262642314073,0.0924072,-0.14209,-0.618591,-0.767273
1470262642335118,0.0855103,-0.131775,-0.61731,-0.770935
1470262642351604,0.0786743,-0.121826,-0.615845,-0.774475
1470262642374625,0.0707397,-0.112732,-0.61438,-0.777771
1470262642395144,0.0629883,-0.103699,-0.613159,-0.78064
1470262642411660,0.0560913,-0.0941162,-0.612122,-0.783203
1470262642441687,0.0497437,-0.0847168,-0.611206,-0.7854
1470262642455198,0.0439453,-0.0761719,-0.610046,-0.787537
1470262642471212,0.0388794,-0.0679321,-0.608826,-0.78949
1470262642494232,0.0341187,-0.0599365,-0.608093,-0.790955
1470262642515253,0.0289307,-0.0528564,-0.607544,-0.792053
1470262642531767,0.0238037,-0.046814,-0.606873,-0.793091
1470262642554287,0.0186157,-0.0415039,-0.60614,-0.794128
1470262642575306,0.0135498,-0.0368652,-0.605774,-0.794739
1470262642591320,0.00854492,-0.0327148,-0.605896,-0.794922
1470262642614341,0.00402832,-0.0289307,-0.606018,-0.794922
1470262642636361,0.000183105,-0.0254517,-0.606079,-0.795044
1470262642651374,-0.003479,-0.0220337,-0.606262,-0.795044
1470262642673894,-0.00732422,-0.019043,-0.606567,-0.794861
1470262642694913,-0.0113525,-0.0163574,-0.606812,-0.794678
1470262642718935,-0.0151367,-0.0133057,-0.606812,-0.794678
1470262642733949,-0.0187988,-0.0101318,-0.606873,-0.794556
1470262642754967,-0.022522,-0.00708008,-0.606995,-0.794434
1470262642770981,-0.0263062,-0.00372314,-0.606995,-0.794312
1470262642794004,-0.0300903,-0.000488281,-0.606995,-0.794189
1470262642816522,-0.0337524,0.00250244,-0.606995,-0.794067
1470262642831036,-0.0371094,0.00561523,-0.606934,-0.793945
1470262642854056,-0.0412598,0.00817871,-0.606689,-0.793884
1470262642875075,-0.0441895,0.0101929,-0.605835,-0.794312
1470262642891090,-0.0479126,0.0122681,-0.605835,-0.794128
1470262642914110,-0.0512695,0.0136719,-0.605286,-0.794312
1470262642935128,-0.0543823,0.0161133,-0.604675,-0.794495
1470262642950643,-0.0570679,0.0186157,-0.604126,-0.794678
1470262642974164,-0.0588379,0.0217285,-0.603821,-0.794739
1470262642995183,-0.0598145,0.0250244,-0.603455,-0.7948
1470262643011197,-0.0604248,0.0280762,-0.602783,-0.795166
1470262643034218,-0.0612793,0.0304565,-0.602417,-0.795288
1470262643056737,-0.0627441,0.0317993,-0.602417,-0.795105
1470262643071751,-0.0648804,0.0318604,-0.6026,-0.7948
1470262643094271,-0.0671387,0.031189,-0.602966,-0.794373
1470262643116791,-0.0687866,0.0300903,-0.603455,-0.793945
1470262643131807,-0.0698242,0.0286255,-0.60376,-0.79364
1470262643153825,-0.0712891,0.0270386,-0.604004,-0.793396
1470262643176346,-0.0736084,0.0253296,-0.604309,-0.792969
1470262643190858,-0.0762329,0.0233154,-0.604797,-0.792419
1470262643213879,-0.0791626,0.0219116,-0.605347,-0.791748
1470262643236400,-0.0813599,0.0198975,-0.605652,-0.791382
1470262643250912,-0.0838013,0.0186157,-0.606018,-0.790833
1470262643273933,-0.0858765,0.0171509,-0.606628,-0.790222
1470262643296454,-0.0875854,0.0159302,-0.607178,-0.789612
1470262643310967,-0.0905762,0.0160522,-0.607971,-0.788696
1470262643333987,-0.0923462,0.0142212,-0.608521,-0.788086
1470262643356508,-0.0948486,0.0130615,-0.608826,-0.787598
1470262643371022,-0.097168,0.0119629,-0.608948,-0.78717
1470262643394041,-0.0994263,0.0115356,-0.609131,-0.786804
1470262643416562,-0.101196,0.0109863,-0.609314,-0.786438
1470262643437579,-0.1026,0.0109253,-0.609375,-0.786194
1470262643454095,-0.103943,0.0106201,-0.609192,-0.786133
1470262643476615,-0.105347,0.0101929,-0.608826,-0.786255
1470262643490627,-0.106628,0.00946045,-0.608276,-0.78656
1470262643514149,-0.107605,0.00897217,-0.607666,-0.786865
1470262643536670,-0.108459,0.00842285,-0.607178,-0.787109
1470262643557688,-0.10968,0.00762939,-0.606873,-0.787231
1470262643574203,-0.110901,0.00683594,-0.606567,-0.787292
1470262643596722,-0.111816,0.00640869,-0.606384,-0.787292
1470262643617743,-0.112305,0.00610352,-0.606262,-0.787354
1470262643634256,-0.11261,0.00567627,-0.606262,-0.787292
1470262643656779,-0.11261,0.00567627,-0.606262,-0.787292
1470262643679297,-0.11261,0.00561523,-0.606262,-0.787292
1470262643694310,-0.112183,0.00561523,-0.606323,-0.787292
1470262643716330,-0.111694,0.00561523,-0.606506,-0.787231
1470262643737849,-0.111267,0.0057373,-0.60675,-0.787109
1470262643753865,-0.110657,0.00592041,-0.606995,-0.786987
1470262643776384,-0.10968,0.00634766,-0.607239,-0.786926
1470262643797403,-0.108643,0.00689697,-0.607666,-0.786743
1470262643813918,-0.107483,0.00744629,-0.608276,-0.786438
1470262643836438,-0.105652,0.00805664,-0.609131,-0.786011
1470262643857457,-0.103088,0.00921631,-0.609985,-0.785706
1470262643873972,-0.101257,0.010376,-0.610901,-0.785217
1470262643896491,-0.0981445,0.0122681,-0.611816,-0.784851
1470262643917542,-0.0944214,0.0144653,-0.612732,-0.784546
1470262643933526,-0.0889893,0.0170288,-0.613342,-0.784668
1470262643956547,-0.0848999,0.0184937,-0.614075,-0.784546
1470262643986574,-0.0806274,0.0183105,-0.614502,-0.784668
1470262643993579,-0.0757446,0.0163574,-0.615295,-0.784546
1470262644017100,-0.0688477,0.0134277,-0.616638,-0.784119
1470262644039120,-0.0585327,0.0107422,-0.618042,-0.783936
1470262644053633,-0.0494995,0.00567627,-0.619995,-0.783081
1470262644076653,-0.0488892,-0.00775146,-0.621094,-0.782227
1470262644105705,-0.0462646,-0.0245361,-0.624084,-0.779663
1470262644120209,-0.0384521,-0.0405273,-0.628723,-0.775696
1470262644136710,-0.0247192,-0.0540771,-0.634033,-0.771057
1470262644159227,-0.00872803,-0.0683594,-0.639832,-0.765503
1470262644180247,0.00292969,-0.0883789,-0.646118,-0.758118
1470262644196762,0.00946045,-0.11499,-0.652527,-0.749023
1470262644218783,0.0129395,-0.145508,-0.659607,-0.737305
1470262644240301,0.0166626,-0.176208,-0.66803,-0.7229
1470262644256343,0.0203857,-0.206238,-0.677673,-0.705627
1470262644278837,0.020813,-0.237915,-0.687805,-0.685547
1470262644300354,0.0175781,-0.27124,-0.697998,-0.662598
1470262644316371,0.0118408,-0.305481,-0.708069,-0.636597
1470262644338925,0.00360107,-0.339905,-0.717957,-0.607544
1470262644359964,-0.00494385,-0.37262,-0.727539,-0.576111
1470262644376424,-0.0131836,-0.40332,-0.736572,-0.542847
1470262644399444,-0.0213013,-0.432312,-0.744934,-0.507813
1470262644419979,-0.0305176,-0.46051,-0.751892,-0.470886
1470262644436478,-0.0403442,-0.488464,-0.757263,-0.431824
1470262644458999,-0.0492554,-0.515259,-0.761414,-0.390442
1470262644480030,-0.0571899,-0.539612,-0.764832,-0.34729
1470262644496531,-0.0645142,-0.560974,-0.7677,-0.303223
1470262644519051,-0.0700684,-0.578735,-0.770508,-0.258057
1470262644540069,-0.0739746,-0.593689,-0.772888,-0.211792
1470262644556587,-0.0767822,-0.606689,-0.773926,-0.164795
1470262644579106,-0.0789185,-0.618286,-0.773193,-0.117371
1470262644600134,-0.0805054,-0.627319,-0.771484,-0.0702515
1470262644616638,-0.081604,-0.633545,-0.769104,-0.0239868
1470262644639160,-0.0824585,-0.636597,-0.766541,0.020752
1470262644660196,-0.0836182,-0.636108,-0.764526,0.0626831
1470262644675692,-0.0847168,-0.633179,-0.762817,0.100891
1470262644699213,-0.0847168,-0.628357,-0.76178,0.133423
1470262644720235,-0.0814209,-0.622192,-0.762085,0.159973
1470262644735748,-0.0762329,-0.614746,-0.763794,0.18158
1470262644759266,-0.0721436,-0.606262,-0.766174,0.200867
1470262644780286,-0.0664673,-0.597778,-0.769348,0.215515
1470262644795800,-0.06073,-0.586853,-0.775269,0.225769
1470262644818820,-0.0571289,-0.573975,-0.782959,0.233093
1470262644840412,-0.053894,-0.562073,-0.789917,0.239502
1470262644855854,-0.0499878,-0.552002,-0.795471,0.245239
1470262644878888,-0.0472412,-0.54364,-0.799988,0.249634
1470262644900394,-0.0455322,-0.537415,-0.803162,0.253174
1470262644915907,-0.0447998,-0.532593,-0.805298,0.256775
1470262644938930,-0.0447388,-0.528748,-0.806763,0.260071
1470262644961448,-0.0453491,-0.525024,-0.808044,0.263428
1470262644982498,-0.0471191,-0.520996,-0.809509,0.266602
1470262644998982,-0.0495605,-0.517273,-0.811096,0.268738
1470262645021502,-0.0517578,-0.51416,-0.812561,0.269714
1470262645042521,-0.0534668,-0.512573,-0.813354,0.270081
1470262645066543,-0.0543823,-0.512634,-0.813538,0.269226
1470262645081557,-0.0544434,-0.513123,-0.814087,0.266602
1470262645096069,-0.0545654,-0.513489,-0.815247,0.262268
1470262645119089,-0.0551758,-0.51355,-0.817139,0.256104
1470262645141610,-0.0556641,-0.513489,-0.819519,0.248474
1470262645147116,-0.0559082,-0.513855,-0.822083,0.238892
1470262645163629,-0.0559692,-0.514893,-0.824707,0.227295
1470262645184648,-0.0560913,-0.515808,-0.827881,0.213257
1470262645207168,-0.0560913,-0.516174,-0.831726,0.196899
1470262645223183,-0.0534668,-0.517273,-0.835632,0.177124
1470262645244702,-0.0493164,-0.519653,-0.838928,0.154297
1470262645266724,-0.0431519,-0.522583,-0.84198,0.12738
1470262645284739,-0.0353394,-0.525085,-0.844971,0.0957642
1470262645304256,-0.0248413,-0.526917,-0.847534,0.0592651
1470262645326792,-0.0113525,-0.528687,-0.848633,0.0172729
1470262645343291,0.00579834,-0.53064,-0.847046,-0.03125
1470262645364323,0.0267334,-0.532227,-0.841797,-0.0861816
1470262645386845,0.0499268,-0.532654,-0.832153,-0.146484
1470262645412353,0.0731201,-0.53125,-0.817505,-0.210144
1470262645424364,0.0947876,-0.526672,-0.798645,-0.275574
1470262645446918,0.114807,-0.518494,-0.775818,-0.340881
1470262645464903,0.133545,-0.505615,-0.750732,-0.403809
1470262645484430,0.149963,-0.489258,-0.723633,-0.463257
1470262645506939,0.162476,-0.470032,-0.695374,-0.518799
1470262645529460,0.172607,-0.448425,-0.667053,-0.569458
1470262645544505,0.180786,-0.427063,-0.638,-0.614807
1470262645568493,0.184021,-0.409058,-0.606689,-0.656372
1470262645589545,0.181274,-0.393616,-0.574219,-0.694641
1470262645604558,0.175293,-0.377563,-0.543274,-0.729126
1470262645627079,0.170044,-0.360229,-0.51532,-0.758911
1470262645645097,0.167419,-0.341431,-0.489807,-0.784607
1470262645664579,0.165955,-0.322632,-0.466064,-0.807007
1470262645687100,0.166443,-0.303284,-0.443604,-0.826843
1470262645705115,0.167664,-0.284424,-0.421143,-0.844849
1470262645724633,0.168823,-0.266296,-0.399475,-0.860901
1470262645747154,0.171082,-0.248352,-0.380005,-0.874451
1470262645769673,0.176636,-0.22998,-0.362793,-0.88562
1470262645784687,0.18396,-0.211243,-0.347412,-0.894958
1470262645806708,0.192139,-0.192078,-0.333313,-0.902832
1470262645824724,0.198975,-0.173035,-0.320068,-0.909973
1470262645844241,0.207214,-0.153381,-0.307495,-0.916016
1470262645868263,0.214783,-0.133728,-0.297058,-0.920776
1470262645884777,0.219971,-0.114075,-0.289368,-0.924622
1470262645904296,0.221069,-0.0947876,-0.285095,-0.927856
1470262645926814,0.218445,-0.0770264,-0.283936,-0.930481
1470262645949335,0.213745,-0.0614014,-0.285156,-0.932373
1470262645964351,0.209045,-0.0485229,-0.287476,-0.933472
1470262645988372,0.206665,-0.0390625,-0.290161,-0.933594
1470262646012392,0.20636,-0.0336304,-0.294678,-0.932495
1470262646027406,0.208069,-0.0322266,-0.301941,-0.92981
1470262646049927,0.213745,-0.0336304,-0.311035,-0.925476
1470262646072448,0.223572,-0.0368042,-0.321472,-0.919434
1470262646084472,0.23645,-0.0422974,-0.333862,-0.911499
1470262646106977,0.24762,-0.0535889,-0.351257,-0.901367
1470262646129497,0.26355,-0.0688477,-0.373108,-0.886902
1470262646144512,0.286682,-0.0898438,-0.400574,-0.865662
1470262646167031,0.306824,-0.124817,-0.438171,-0.835693
1470262646189551,0.315186,-0.17157,-0.487915,-0.795776
1470262646207567,0.307739,-0.222168,-0.549072,-0.74469
1470262646227087,0.286377,-0.281372,-0.616394,-0.677429
1470262646249605,0.256531,-0.34198,-0.682312,-0.59314
1470262646264618,0.221558,-0.392517,-0.739624,-0.499878
1470262646288640,0.189636,-0.42218,-0.789673,-0.402771
1470262646309658,0.160461,-0.431702,-0.833435,-0.305481
1470262646324672,0.136841,-0.432007,-0.864502,-0.217651
1470262646347192,0.121765,-0.427856,-0.88269,-0.151733
1470262646364708,0.110596,-0.427124,-0.891907,-0.0993042
1470262646384726,0.0997925,-0.42334,-0.898865,-0.0539551
1470262646407246,0.09198,-0.40918,-0.907776,-0.0117188
1470262646425313,0.0874634,-0.392212,-0.915405,0.0245972
1470262646445781,0.0866699,-0.382507,-0.918335,0.0536499
1470262646467301,0.0905151,-0.384094,-0.91571,0.0761108
1470262646484816,0.0916748,-0.38739,-0.912292,0.0966187
1470262646505835,0.0923462,-0.386414,-0.910522,0.114685
1470262646534360,0.0911255,-0.383545,-0.909729,0.130493
1470262646546373,0.0899658,-0.381653,-0.908813,0.142761
1470262646565889,0.0897217,-0.382324,-0.907227,0.150818
1470262646586908,0.0877075,-0.383911,-0.905762,0.156799
1470262646609427,0.0820313,-0.383667,-0.905396,0.162659
1470262646625943,0.0739746,-0.380737,-0.906494,0.167236
1470262646649964,0.0655518,-0.376465,-0.908386,0.170105
1470262646669482,0.0583496,-0.37262,-0.910156,0.171692
1470262646686002,0.052063,-0.37085,-0.911133,0.172241
1470262646707034,0.0466919,-0.370056,-0.911682,0.172668
1470262646729618,0.0430298,-0.370056,-0.911804,0.172852
1470262646746075,0.0408936,-0.371399,-0.911438,0.172546
1470262646767095,0.0401001,-0.374756,-0.910156,0.172119
1470262646789614,0.0385742,-0.379272,-0.908691,0.170471
1470262646807631,0.0338135,-0.383667,-0.908142,0.164307
1470262646827148,0.0188599,-0.380493,-0.912659,0.148376
1470262646844664,0.0147095,-0.371948,-0.9198,0.124634
1470262646867684,0.0194092,-0.37323,-0.921875,0.102966
1470262646887203,0.0284424,-0.384521,-0.919617,0.0755005
1470262646909725,0.0446777,-0.399719,-0.915039,0.0324097
1470262646927240,0.06427,-0.414673,-0.90741,-0.0253296
1470262646954799,0.0874023,-0.427612,-0.894531,-0.0973511
1470262646965273,0.113892,-0.434631,-0.874268,-0.18396
1470262646987849,0.144104,-0.438538,-0.842773,-0.277039
1470262647008343,0.173767,-0.448425,-0.795105,-0.36969
1470262647036841,0.195618,-0.467834,-0.729919,-0.458374
1470262647052350,0.204895,-0.488098,-0.65625,-0.537781
1470262647068378,0.209229,-0.490723,-0.589172,-0.606873
1470262647089398,0.208801,-0.485291,-0.526489,-0.666199
1470262647113405,0.206848,-0.46991,-0.471252,-0.717224
1470262647126918,0.204041,-0.455383,-0.424316,-0.755676
1470262647149438,0.203918,-0.440247,-0.385193,-0.785034
1470262647167457,0.209045,-0.424561,-0.352905,-0.80719
1470262647186986,0.21637,-0.401917,-0.329407,-0.826599
1470262647209492,0.224854,-0.381714,-0.308289,-0.841858
1470262647227510,0.230774,-0.363342,-0.291809,-0.854187
1470262647247026,0.239685,-0.345154,-0.277222,-0.864075
1470262647269546,0.245544,-0.329468,-0.267456,-0.871582
1470262647287562,0.250488,-0.311951,-0.263062,-0.87793
1470262647307079,0.253723,-0.293762,-0.261536,-0.883728
1470262647329601,0.255249,-0.276489,-0.261108,-0.888977
1470262647347616,0.255554,-0.259827,-0.263428,-0.89325
1470262647370136,0.254028,-0.245056,-0.268433,-0.896362
1470262647397160,0.250488,-0.228027,-0.274353,-0.900024
1470262647407170,0.246765,-0.215454,-0.280396,-0.902283
1470262647428188,0.23938,-0.201782,-0.286743,-0.905396
1470262647449707,0.234436,-0.190735,-0.293823,-0.90686
1470262647467224,0.228027,-0.181763,-0.302673,-0.90741
1470262647488742,0.223328,-0.174805,-0.311218,-0.907043
1470262647509261,0.220032,-0.170105,-0.318665,-0.906189
1470262647527778,0.215088,-0.168274,-0.326599,-0.904907
1470262647550799,0.210022,-0.169189,-0.335388,-0.90271
1470262647569819,0.207031,-0.171509,-0.34436,-0.899536
1470262647593336,0.204529,-0.174377,-0.354004,-0.895813
1470262647608349,0.201721,-0.177246,-0.364502,-0.891663
1470262647629371,0.198547,-0.181152,-0.374878,-0.887268
1470262647647387,0.19519,-0.186646,-0.384583,-0.882751
1470262647675412,0.191284,-0.193115,-0.394226,-0.87793
1470262647690424,0.187195,-0.199463,-0.403931,-0.872986
1470262647714445,0.184937,-0.2052,-0.41333,-0.867737
1470262647728959,0.184448,-0.209778,-0.422302,-0.862366
1470262647750477,0.183777,-0.213806,-0.431641,-0.856934
1470262647766492,0.182007,-0.217712,-0.441772,-0.851074
1470262647796518,0.180115,-0.221619,-0.452454,-0.844849
1470262647813033,0.17981,-0.225647,-0.462463,-0.83844
1470262647826545,0.180176,-0.230286,-0.471619,-0.83197
1470262647855072,0.178589,-0.235779,-0.480713,-0.825562
1470262647870087,0.175293,-0.24231,-0.490051,-0.818848
1470262647886599,0.172668,-0.249084,-0.499512,-0.811646
1470262647916629,0.171814,-0.255371,-0.509033,-0.803894
1470262647930641,0.171204,-0.261719,-0.518677,-0.795776
1470262647946654,0.169128,-0.268555,-0.528748,-0.787231
1470262647969175,0.166199,-0.276001,-0.53894,-0.778381
1470262647990217,0.16449,-0.282593,-0.548889,-0.769348
1470262648006707,0.163513,-0.287292,-0.559509,-0.760071
1470262648029227,0.161804,-0.290649,-0.571411,-0.750244
1470262648050281,0.15918,-0.293762,-0.584534,-0.739441
1470262648066764,0.155334,-0.297058,-0.598511,-0.727661
1470262648089282,0.148499,-0.299561,-0.613831,-0.71521
1470262648110300,0.137451,-0.30127,-0.630859,-0.701782
1470262648126816,0.121643,-0.302856,-0.64917,-0.687134
1470262648149336,0.102905,-0.304932,-0.667419,-0.671631
1470262648170354,0.0830078,-0.308411,-0.682983,-0.656982
1470262648192875,0.0662231,-0.309875,-0.695862,-0.644592
1470262648209390,0.0521851,-0.309143,-0.708191,-0.63269
1470262648230408,0.0370483,-0.307373,-0.720154,-0.620972
1470262648246422,0.0223389,-0.302673,-0.732605,-0.609314
1470262648269443,0.012146,-0.293213,-0.745911,-0.597961
1470262648290462,0.00579834,-0.280762,-0.758362,-0.588318
1470262648313983,0.000549316,-0.268921,-0.768982,-0.580078
1470262648328996,-0.00878906,-0.262573,-0.778137,-0.570557
1470262648350015,-0.022644,-0.261414,-0.786804,-0.558777
1470262648367031,-0.038269,-0.262451,-0.79541,-0.545105
1470262648389051,-0.0562134,-0.26593,-0.803772,-0.529358
1470262648410070,-0.0761719,-0.271606,-0.811584,-0.511719
1470262648426585,-0.097229,-0.283691,-0.817139,-0.492371
1470262648449105,-0.117126,-0.302063,-0.818237,-0.475037
1470262648470124,-0.130188,-0.328735,-0.811584,-0.46521
1470262648486638,-0.130188,-0.358215,-0.798523,-0.466125
1470262648509159,-0.119995,-0.396118,-0.776367,-0.475403
1470262648530178,-0.0980225,-0.432617,-0.748291,-0.493347
1470262648547194,-0.0591431,-0.458801,-0.718872,-0.518982
1470262648569213,-0.0088501,-0.47937,-0.686951,-0.546204
1470262648590231,0.0424805,-0.500183,-0.650452,-0.570129
1470262648605745,0.0908813,-0.518921,-0.612854,-0.58905
1470262648629268,0.134583,-0.536194,-0.575684,-0.602539
1470262648650303,0.169739,-0.552917,-0.540161,-0.611389
1470262648665800,0.191223,-0.568054,-0.511475,-0.615845
1470262648689320,0.203735,-0.579285,-0.490234,-0.618591
1470262648711840,0.211487,-0.586914,-0.476074,-0.619812
1470262648725855,0.213745,-0.593079,-0.46759,-0.61969
1470262648749374,0.208191,-0.595581,-0.467407,-0.619324
1470262648771894,0.202759,-0.599487,-0.466736,-0.617859
1470262648785908,0.19281,-0.6026,-0.470215,-0.615356
1470262648816435,0.18512,-0.603638,-0.475281,-0.612793
1470262648832449,0.179443,-0.602905,-0.483459,-0.608826
1470262648845963,0.174805,-0.59906,-0.495483,-0.604248
1470262648868982,0.164185,-0.591248,-0.51355,-0.599854
1470262648891502,0.148254,-0.578552,-0.537476,-0.595459
1470262648906015,0.126221,-0.560669,-0.568726,-0.588501
1470262648929035,0.098877,-0.537842,-0.607178,-0.576538
1470262648952056,0.0603027,-0.513977,-0.64917,-0.557556
1470262648972607,0.0175781,-0.489807,-0.69104,-0.531372
1470262648989089,-0.0181274,-0.461243,-0.730713,-0.503113
1470262649011609,-0.0438843,-0.431702,-0.764954,-0.476135
1470262649032628,-0.0645142,-0.409424,-0.790466,-0.451111
1470262649049145,-0.0775146,-0.392517,-0.810181,-0.428528
1470262649071665,-0.0802612,-0.374878,-0.826782,-0.411804
1470262649100191,-0.0769043,-0.357483,-0.839722,-0.401611
1470262649109197,-0.0713501,-0.342529,-0.84845,-0.397278
1470262649131718,-0.0645142,-0.326355,-0.85614,-0.395569
1470262649152736,-0.0575562,-0.305969,-0.865417,-0.3927
1470262649169251,-0.0513916,-0.285828,-0.873657,-0.390442
1470262649191771,-0.0473633,-0.271667,-0.878235,-0.390808
1470262649212790,-0.0462646,-0.267395,-0.878662,-0.393005
1470262649229305,-0.0494385,-0.271362,-0.876831,-0.393921
1470262649251825,-0.0528564,-0.275879,-0.875305,-0.393799
1470262649272844,-0.0546875,-0.275818,-0.875122,-0.394043
1470262649289358,-0.0554199,-0.271362,-0.875977,-0.394958
1470262649311879,-0.0559692,-0.264771,-0.877014,-0.397095
1470262649332897,-0.0570068,-0.258179,-0.877258,-0.400757
1470262649349413,-0.0583496,-0.253235,-0.876526,-0.405273
1470262649371433,-0.0592041,-0.250183,-0.875244,-0.409851
1470262649392952,-0.0592651,-0.246765,-0.874023,-0.41449
1470262649408967,-0.0588379,-0.242188,-0.872681,-0.419983
1470262649431487,-0.0585327,-0.237305,-0.870728,-0.42688
1470262649452505,-0.059021,-0.233276,-0.868225,-0.434082
1470262649469021,-0.0598145,-0.229614,-0.865356,-0.441528
1470262649491541,-0.0610352,-0.226624,-0.861694,-0.449951
1470262649512559,-0.0623779,-0.223389,-0.857544,-0.45929
1470262649528575,-0.06427,-0.219604,-0.85321,-0.468811
1470262649551595,-0.0670166,-0.21637,-0.848816,-0.477783
1470262649572613,-0.0706177,-0.214417,-0.844177,-0.486267
1470262649588627,-0.0750732,-0.214294,-0.839355,-0.494019
1470262649619155,-0.0811157,-0.215393,-0.834595,-0.500549
1470262649632668,-0.0880737,-0.216492,-0.83075,-0.505249
1470262649656689,-0.0962524,-0.217896,-0.828491,-0.506897
1470262649671702,-0.103088,-0.215454,-0.827576,-0.508118
1470262649694223,-0.108887,-0.21051,-0.827332,-0.509338
1470262649715241,-0.113708,-0.205078,-0.827087,-0.510986
1470262649731756,-0.117615,-0.202454,-0.826416,-0.512207
1470262649754276,-0.118958,-0.203674,-0.8255,-0.512817
1470262649775296,-0.117371,-0.204285,-0.824829,-0.514038
1470262649791810,-0.113892,-0.201599,-0.825195,-0.51532
1470262649814331,-0.109619,-0.196655,-0.82605,-0.516724
1470262649828343,-0.106995,-0.193237,-0.826477,-0.517883
1470262649851865,-0.106873,-0.193604,-0.826233,-0.518188
1470262649874384,-0.108398,-0.196899,-0.825562,-0.5177
1470262649895403,-0.110229,-0.20105,-0.825012,-0.516663
1470262649911417,-0.110901,-0.20282,-0.825134,-0.515564
1470262649933938,-0.109985,-0.201782,-0.826233,-0.514404
1470262649954956,-0.108398,-0.199585,-0.827698,-0.513306
1470262649978978,-0.107239,-0.198914,-0.828613,-0.512329
1470262649993992,-0.107483,-0.200806,-0.82843,-0.51178
1470262650008505,-0.107727,-0.202148,-0.828247,-0.511536
1470262650031525,-0.107483,-0.201782,-0.828308,-0.511597
1470262650054045,-0.107117,-0.200378,-0.828552,-0.51178
1470262650068558,-0.106812,-0.198975,-0.828735,-0.512146
1470262650091579,-0.106812,-0.198181,-0.828674,-0.512573
1470262650114100,-0.107056,-0.197632,-0.82843,-0.513062
1470262650128612,-0.106812,-0.196899,-0.828064,-0.514038
1470262650151636,-0.106018,-0.196167,-0.82782,-0.514893
1470262650174154,-0.10553,-0.195801,-0.827576,-0.515503
1470262650195172,-0.105591,-0.195618,-0.827454,-0.515808
1470262650211687,-0.106201,-0.195801,-0.827209,-0.515991
1470262650234208,-0.107056,-0.196411,-0.826965,-0.515991
1470262650255226,-0.108276,-0.19751,-0.826599,-0.515869
1470262650271742,-0.109863,-0.198364,-0.826355,-0.515625
1470262650294261,-0.111267,-0.198669,-0.826416,-0.515076
1470262650315280,-0.112,-0.198364,-0.826599,-0.514771
1470262650331795,-0.112366,-0.197754,-0.826721,-0.514709
1470262650353815,-0.112854,-0.197449,-0.82666,-0.514771
1470262650375335,-0.113647,-0.19812,-0.826416,-0.514832
1470262650391849,-0.114685,-0.198914,-0.82605,-0.514832
1470262650414369,-0.115479,-0.199646,-0.825623,-0.514954
1470262650435387,-0.115845,-0.200256,-0.825317,-0.515259
1470262650451403,-0.115906,-0.200562,-0.824951,-0.515686
1470262650473923,-0.11615,-0.201233,-0.824463,-0.516113
1470262650495442,-0.116455,-0.202026,-0.823914,-0.516602
1470262650511456,-0.116699,-0.202942,-0.823364,-0.51709
1470262650533977,-0.116577,-0.203735,-0.822815,-0.517639
1470262650554995,-0.116272,-0.204224,-0.822388,-0.51825
1470262650571510,-0.116272,-0.204651,-0.822021,-0.518616
1470262650594031,-0.116577,-0.204956,-0.821838,-0.518738
1470262650616550,-0.116638,-0.205017,-0.821838,-0.518738
1470262650631564,-0.116638,-0.205017,-0.821838,-0.518677
1470262650654085,-0.116638,-0.205017,-0.821838,-0.518677
1470262650676605,-0.116943,-0.204834,-0.821899,-0.518555
1470262650699125,-0.117249,-0.204529,-0.822083,-0.518372
1470262650714138,-0.117432,-0.204102,-0.822266,-0.51825
1470262650736659,-0.117615,-0.203735,-0.822388,-0.518066
1470262650751673,-0.117615,-0.203674,-0.822388,-0.518066
1470262650774193,-0.11792,-0.203796,-0.822388,-0.518066
1470262650796712,-0.118286,-0.203918,-0.822266,-0.518066
1470262650811225,-0.11853,-0.203979,-0.822266,-0.518066
1470262650834246,-0.11853,-0.203918,-0.822266,-0.518066
1470262650856767,-0.118896,-0.203857,-0.822266,-0.517944
1470262650871280,-0.119385,-0.203857,-0.822327,-0.517761
1470262650893799,-0.120056,-0.204163,-0.822388,-0.517395
1470262650916820,-0.120605,-0.204163,-0.82251,-0.517029
1470262650930833,-0.121094,-0.204041,-0.822632,-0.516785
1470262650954354,-0.12146,-0.203735,-0.822815,-0.516541
1470262650976374,-0.121704,-0.20343,-0.822937,-0.516357
1470262650990887,-0.121704,-0.20343,-0.822937,-0.516357
1470262651014408,-0.121765,-0.203369,-0.822998,-0.516357
1470262651042933,-0.121765,-0.203308,-0.822998,-0.516357
1470262651050941,-0.121826,-0.203308,-0.822998,-0.516357
1470262651073962,-0.121948,-0.20343,-0.822937,-0.516357
1470262651096482,-0.122131,-0.203491,-0.822815,-0.516418
1470262651118001,-0.122131,-0.203491,-0.822815,-0.516418
1470262651134015,-0.122192,-0.203247,-0.822937,-0.516418
1470262651156537,-0.122253,-0.203247,-0.822937,-0.516418
1470262651177555,-0.122437,-0.203369,-0.822876,-0.516357
1470262651194070,-0.122681,-0.203552,-0.822876,-0.516174
1470262651216591,-0.122925,-0.203613,-0.822937,-0.516052
1470262651239111,-0.123291,-0.204285,-0.822998,-0.515564
1470262651254123,-0.125977,-0.201111,-0.823669,-0.515198
1470262651276643,-0.131287,-0.156616,-0.828308,-0.521851
1470262651297676,-0.101013,-0.0975952,-0.842346,-0.520447
1470262651306172,-0.0698242,-0.09729,-0.846375,-0.519043
1470262651329193,-0.0522461,-0.12854,-0.852661,-0.503784
1470262651350209,-0.036377,-0.191772,-0.846313,-0.495728
1470262651366223,-0.0148315,-0.266113,-0.826843,-0.495361
1470262651389245,0.00866699,-0.322876,-0.809387,-0.490601
1470262651425277,0.0266113,-0.36322,-0.796692,-0.482422
1470262651434286,0.0354004,-0.387634,-0.791077,-0.471985
1470262651456805,0.0360107,-0.402832,-0.789001,-0.462646
1470262651477823,0.0291138,-0.412231,-0.789001,-0.454773
1470262651493338,0.0195313,-0.415833,-0.791199,-0.448059
1470262651516859,0.00939941,-0.415222,-0.795715,-0.44104
1470262651537891,-0.000732422,-0.413757,-0.800903,-0.432983
1470262651553392,-0.00982666,-0.413757,-0.805054,-0.42511
1470262651576413,-0.0162354,-0.414246,-0.808105,-0.418518
1470262651598933,-0.0197754,-0.413147,-0.811096,-0.413757
1470262651613446,-0.0217285,-0.410156,-0.814087,-0.410645
1470262651636467,-0.0223389,-0.405273,-0.817566,-0.408569
1470262651658986,-0.0213013,-0.398621,-0.821594,-0.407043
1470262651681507,-0.0192871,-0.390747,-0.825989,-0.405945
1470262651696521,-0.0181885,-0.382874,-0.829956,-0.405396
1470262651719040,-0.0183105,-0.375977,-0.833252,-0.405151
1470262651733554,-0.0193481,-0.370239,-0.835999,-0.404663
1470262651756574,-0.0212402,-0.365601,-0.838379,-0.40387
1470262651779095,-0.0235596,-0.360901,-0.840698,-0.403137
1470262651800113,-0.0266113,-0.354797,-0.843445,-0.402649
1470262651816628,-0.0299072,-0.346252,-0.847168,-0.402039
1470262651839149,-0.0332031,-0.33606,-0.851868,-0.400452
1470262651860168,-0.0370483,-0.325684,-0.856812,-0.398132
1470262651876682,-0.0438232,-0.31665,-0.861572,-0.39447
1470262651899203,-0.0593872,-0.297791,-0.869324,-0.390137
1470262651920223,-0.0799561,-0.255798,-0.882751,-0.386047
1470262651936736,-0.0682983,-0.258606,-0.890747,-0.367615
1470262651959258,-0.0571289,-0.308838,-0.886414,-0.34021
1470262651980291,-0.0327148,-0.397034,-0.860535,-0.317627
1470262651996790,0.0167847,-0.486633,-0.812805,-0.320007
1470262652019310,0.0737305,-0.555786,-0.757751,-0.334045
1470262652040328,0.125732,-0.600586,-0.707642,-0.350403
1470262652056843,0.164856,-0.628845,-0.665894,-0.366089
1470262652079363,0.191528,-0.646301,-0.634399,-0.378418
1470262652100382,0.20343,-0.664063,-0.604431,-0.390259
1470262652116397,0.207458,-0.676514,-0.582275,-0.400452
1470262652138918,0.210999,-0.683838,-0.568237,-0.40625
1470262652160436,0.212952,-0.686523,-0.563843,-0.406799
1470262652176451,0.212524,-0.687378,-0.565491,-0.40332
1470262652198973,0.208618,-0.688416,-0.569336,-0.39801
1470262652220490,0.202026,-0.688049,-0.577393,-0.390503
1470262652236506,0.198059,-0.684937,-0.587402,-0.383057
1470262652259026,0.191528,-0.684509,-0.597046,-0.372009
1470262652281546,0.186279,-0.679016,-0.611145,-0.361694
1470262652296060,0.180847,-0.674805,-0.625,-0.348389
1470262652319080,0.175659,-0.668945,-0.640381,-0.334167
1470262652340099,0.170166,-0.661682,-0.657166,-0.318481
1470262652356113,0.165405,-0.652161,-0.675415,-0.302002
1470262652379134,0.161377,-0.640503,-0.694519,-0.285278
1470262652400653,0.15686,-0.627808,-0.713196,-0.269592
1470262652424175,0.151245,-0.615845,-0.729736,-0.255798
1470262652439188,0.145325,-0.602783,-0.746216,-0.242432
1470262652460207,0.13916,-0.588135,-0.763184,-0.228821
1470262652476220,0.131958,-0.572937,-0.779724,-0.215637
1470262652499243,0.12439,-0.559082,-0.793945,-0.204224
1470262652521761,0.117004,-0.545959,-0.806213,-0.195618
1470262652536274,0.10968,-0.532349,-0.817688,-0.189697
1470262652559295,0.100952,-0.517578,-0.829285,-0.185242
1470262652589323,0.0927124,-0.501709,-0.840454,-0.182922
1470262652595829,0.0856934,-0.485291,-0.850952,-0.181946
1470262652619349,0.0800171,-0.470337,-0.859314,-0.18457
1470262652641869,0.0742188,-0.457764,-0.865417,-0.190063
1470262652655882,0.0669556,-0.446411,-0.8703,-0.197327
1470262652678903,0.0588989,-0.434814,-0.874573,-0.206543
1470262652701422,0.0516357,-0.422424,-0.878357,-0.217957
1470262652722942,0.0450439,-0.40918,-0.881653,-0.230957
1470262652738956,0.038147,-0.393921,-0.885071,-0.245178
1470262652761477,0.0314331,-0.377502,-0.888,-0.260742
1470262652782996,0.0263062,-0.361145,-0.889771,-0.277954
1470262652800011,0.0218506,-0.345825,-0.890259,-0.295715
1470262652822031,0.0172729,-0.331177,-0.890137,-0.312683
1470262652843050,0.0130005,-0.316895,-0.889343,-0.32959
1470262652859064,0.00976563,-0.304199,-0.887268,-0.34668
1470262652864569,0.00579834,-0.293457,-0.884766,-0.362122
1470262652887090,0.00128174,-0.283142,-0.882751,-0.375122
1470262652909609,-0.00201416,-0.272827,-0.880798,-0.387146
1470262652924622,-0.00396729,-0.264282,-0.878052,-0.399109
1470262652947143,-0.00598145,-0.258423,-0.874695,-0.410095
1470262652969663,-0.00872803,-0.254395,-0.871216,-0.419922
1470262652986178,-0.0107422,-0.249573,-0.867981,-0.429382
1470262653007196,-0.0117798,-0.243347,-0.864929,-0.438904
1470262653032719,-0.0115967,-0.236389,-0.862244,-0.447815
1470262653044730,-0.010498,-0.229675,-0.859802,-0.455994
1470262653067251,-0.00860596,-0.223022,-0.857361,-0.463867
1470262653089771,-0.00634766,-0.2146,-0.856018,-0.470337
1470262653104785,-0.00457764,-0.188171,-0.860718,-0.473145
1470262653127305,0.0152588,-0.15387,-0.865906,-0.475769
1470262653149325,0.0429077,-0.166626,-0.872131,-0.45813
1470262653164839,0.0706177,-0.204163,-0.879272,-0.424622
1470262653186858,0.113831,-0.242371,-0.884277,-0.38269
1470262653209378,0.159241,-0.280396,-0.883911,-0.338867
1470262653224892,0.200806,-0.321045,-0.87677,-0.296509
1470262653246921,0.240234,-0.355713,-0.865784,-0.257446
1470262653269440,0.270508,-0.375366,-0.856934,-0.227295
1470262653284454,0.285339,-0.379211,-0.854553,-0.211304
1470262653306986,0.281616,-0.373535,-0.858765,-0.20929
1470262653329495,0.265991,-0.36792,-0.86438,-0.21637
1470262653344541,0.243774,-0.358215,-0.872192,-0.227112
1470262653367028,0.21698,-0.341553,-0.882507,-0.239685
1470262653392550,0.190369,-0.320801,-0.8927,-0.252869
1470262653404560,0.16626,-0.304016,-0.899414,-0.266479
1470262653427080,0.144348,-0.292725,-0.902588,-0.280823
1470262653449601,0.125061,-0.281006,-0.904785,-0.2948
1470262653464617,0.10968,-0.267212,-0.906738,-0.307373
1470262653487134,0.0971069,-0.253418,-0.908447,-0.318115
1470262653509656,0.0857544,-0.241394,-0.909668,-0.327026
1470262653524670,0.0766602,-0.233643,-0.909607,-0.335083
1470262653547201,0.0691528,-0.22876,-0.90863,-0.342651
1470262653569708,0.0619507,-0.223999,-0.907288,-0.350525
1470262653584722,0.0548706,-0.219177,-0.906006,-0.358032
1470262653607242,0.0489502,-0.212769,-0.90564,-0.363708
1470262653629763,0.0442505,-0.191345,-0.908997,-0.367798
1470262653644776,0.0470581,-0.153748,-0.914612,-0.371155
1470262653667297,0.0762939,-0.156189,-0.916016,-0.361633
1470262653689816,0.103943,-0.182068,-0.91925,-0.333374
1470262653704329,0.143188,-0.215515,-0.918518,-0.299133
1470262653726866,0.182739,-0.250732,-0.912537,-0.266724
1470262653749370,0.217346,-0.282532,-0.903442,-0.238403
1470262653764383,0.240662,-0.305054,-0.894653,-0.220703
1470262653786903,0.253357,-0.318481,-0.887878,-0.214783
1470262653809426,0.251038,-0.322693,-0.885681,-0.220093
1470262653824453,0.237366,-0.3172,-0.888123,-0.233154
1470262653846958,0.217712,-0.306091,-0.892822,-0.248596
1470262653869477,0.195679,-0.28717,-0.899963,-0.263367
1470262653884491,0.176147,-0.264282,-0.906677,-0.277649
1470262653907025,0.159363,-0.24823,-0.910217,-0.290833
1470262653929547,0.144897,-0.239502,-0.911194,-0.302429
1470262653944558,0.131897,-0.231201,-0.911865,-0.312561
1470262653967066,0.121338,-0.221558,-0.913208,-0.319885
1470262653989586,0.11322,-0.211182,-0.914978,-0.324829
1470262654004630,0.107788,-0.202148,-0.916443,-0.328247
1470262654030153,0.103149,-0.194519,-0.917725,-0.33075
1470262654049640,0.097168,-0.19104,-0.918701,-0.331848
1470262654066155,0.0897217,-0.191284,-0.919312,-0.332153
1470262654087187,0.0800781,-0.19519,-0.917969,-0.33606
1470262654109693,0.0817261,-0.192444,-0.911926,-0.353149
1470262654126208,0.103516,-0.199158,-0.898621,-0.377075
1470262654147226,0.128357,-0.221008,-0.878418,-0.403931
1470262654169749,0.158081,-0.245789,-0.854126,-0.430298
1470262654185761,0.195496,-0.266296,-0.825134,-0.458313
1470262654207297,0.224609,-0.295105,-0.792419,-0.484436
1470262654229825,0.240723,-0.331116,-0.757568,-0.508545
1470262654245816,0.247131,-0.359619,-0.726929,-0.530334
1470262654267335,0.246399,-0.379211,-0.704407,-0.54718
1470262654289855,0.242126,-0.388855,-0.691833,-0.558167
1470262654305869,0.236816,-0.387756,-0.688721,-0.565063
1470262654327388,0.23175,-0.379578,-0.690735,-0.570251
1470262654349909,0.225037,-0.370422,-0.694092,-0.57489
1470262654367425,0.216003,-0.363281,-0.697571,-0.578674
1470262654386942,0.206482,-0.356628,-0.701294,-0.581787
1470262654409462,0.197815,-0.348572,-0.705994,-0.583984
1470262654434988,0.190552,-0.339783,-0.711853,-0.584534
1470262654463526,0.184204,-0.330688,-0.71875,-0.583313
1470262654469531,0.17688,-0.320801,-0.727905,-0.579651
1470262654487533,0.167236,-0.310608,-0.740356,-0.572266
1470262654507052,0.159729,-0.297424,-0.755798,-0.561096
1470262654529571,0.155029,-0.282715,-0.771545,-0.548462
1470262654547603,0.149719,-0.273193,-0.783691,-0.537476
1470262654567118,0.14325,-0.272705,-0.790466,-0.529541
1470262654589626,0.135925,-0.280029,-0.79364,-0.522827
1470262654609642,0.12915,-0.287964,-0.797241,-0.514709
1470262654627159,0.124451,-0.2901,-0.803162,-0.505371
1470262654649681,0.122314,-0.283997,-0.81134,-0.496216
1470262654664692,0.112305,-0.270569,-0.822083,-0.488342
1470262654687214,0.0998535,-0.261658,-0.8302,-0.482117
1470262654709734,0.0872803,-0.261292,-0.833557,-0.478882
1470262654724745,0.0889893,-0.274292,-0.828613,-0.479919
1470262654747267,0.0908813,-0.271545,-0.82666,-0.484497
1470262654769787,0.101257,-0.265198,-0.822083,-0.493652
1470262654784809,0.123108,-0.27179,-0.808838,-0.506775
1470262654807320,0.152527,-0.273254,-0.791992,-0.524292
1470262654829840,0.190491,-0.264404,-0.774658,-0.541992
1470262654844853,0.222412,-0.260132,-0.756836,-0.556885
1470262654867373,0.240967,-0.267334,-0.736389,-0.572998
1470262654889894,0.2453,-0.280884,-0.717651,-0.588257
1470262654904907,0.240784,-0.292908,-0.704773,-0.59967
1470262654928429,0.234802,-0.301819,-0.697937,-0.605591
1470262654949448,0.228088,-0.304016,-0.698486,-0.606445
1470262654964463,0.22467,-0.301331,-0.702881,-0.603943
1470262654986981,0.216919,-0.2901,-0.711426,-0.602295
1470262655010002,0.207336,-0.281311,-0.718689,-0.601196
1470262655024533,0.197815,-0.273499,-0.723877,-0.601746
1470262655047536,0.188782,-0.266418,-0.727844,-0.603149
1470262655069558,0.179321,-0.261475,-0.730408,-0.605042
1470262655087572,0.170349,-0.25824,-0.732117,-0.606934
1470262655108590,0.162354,-0.255859,-0.733459,-0.608521
1470262655138617,0.155579,-0.253601,-0.734802,-0.609619
1470262655144622,0.148438,-0.251343,-0.736694,-0.610046
1470262655167143,0.142273,-0.246338,-0.739868,-0.609741
1470262655189663,0.136353,-0.239807,-0.74353,-0.609192
1470262655207679,0.128601,-0.234436,-0.746765,-0.609009
1470262655227196,0.118225,-0.230713,-0.749878,-0.608704
1470262655251219,0.107239,-0.228088,-0.752991,-0.60791
1470262655264730,0.0975952,-0.224915,-0.756165,-0.60675
1470262655287250,0.0900269,-0.219543,-0.759827,-0.605347
1470262655309771,0.0818481,-0.213135,-0.763733,-0.603882
1470262655324785,0.0731812,-0.20697,-0.767334,-0.6026
1470262655347812,0.0649414,-0.201965,-0.769897,-0.601929
1470262655369828,0.0564575,-0.199219,-0.771484,-0.601685
1470262655386340,0.0458374,-0.198669,-0.772522,-0.60144
1470262655407360,0.0348511,-0.194885,-0.774292,-0.601135
1470262655429880,0.0222168,-0.192993,-0.775635,-0.600647
1470262655445894,0.0185547,-0.193481,-0.775452,-0.600769
1470262655466912,0.0203857,-0.193787,-0.774963,-0.601318
1470262655489433,0.0234375,-0.194519,-0.773865,-0.602356
1470262655506949,0.0261841,-0.196106,-0.7724,-0.603577
1470262655529468,0.0286255,-0.198303,-0.770996,-0.604614
1470262655557993,0.0308228,-0.198792,-0.770203,-0.605347
1470262655567002,0.0319824,-0.196899,-0.770569,-0.605408
1470262655589023,0.0309448,-0.193604,-0.771912,-0.604797
1470262655610541,0.0272217,-0.189148,-0.774109,-0.603577
1470262655626556,0.0205078,-0.18396,-0.777283,-0.60144
1470262655649076,0.0110474,-0.178406,-0.780884,-0.598633
1470262655670126,-0.00152588,-0.172852,-0.784729,-0.595337
1470262655686609,-0.00616455,-0.177551,-0.786255,-0.591858
1470262655709171,-0.0151367,-0.178345,-0.788696,-0.588196
1470262655730204,-0.0269165,-0.173035,-0.792358,-0.584412
1470262655746664,-0.0297852,-0.173706,-0.793945,-0.58197
1470262655769184,-0.0288086,-0.181274,-0.793335,-0.580566
1470262655790202,-0.0344849,-0.181152,-0.794067,-0.579285
1470262655806718,-0.039917,-0.174561,-0.79541,-0.579041
1470262655835269,-0.0446777,-0.169006,-0.796387,-0.579041
1470262655850256,-0.0460815,-0.16864,-0.796265,-0.579285
1470262655866771,-0.0473022,-0.168213,-0.796021,-0.57959
1470262655889792,-0.0487671,-0.167847,-0.795837,-0.579834
1470262655910309,-0.0501099,-0.167358,-0.795776,-0.579895
1470262655926825,-0.0509644,-0.167114,-0.795715,-0.580017
1470262655949347,-0.0516357,-0.167847,-0.795288,-0.580261
1470262655971866,-0.0586548,-0.16687,-0.795349,-0.579834
1470262655986881,-0.0540161,-0.172668,-0.793762,-0.580811
1470262656009400,-0.0509033,-0.173767,-0.793091,-0.581665
1470262656037977,-0.0492554,-0.178284,-0.791565,-0.58252
1470262656046947,-0.0518188,-0.179688,-0.790771,-0.582947
1470262656069452,-0.0552979,-0.181152,-0.790039,-0.583191
1470262656090519,-0.057373,-0.183472,-0.789001,-0.583618
1470262656106506,-0.0571899,-0.187073,-0.787476,-0.584595
1470262656129008,-0.0548706,-0.191711,-0.785645,-0.585693
1470262656150526,-0.0509033,-0.197327,-0.78363,-0.586914
1470262656167043,-0.0460815,-0.203125,-0.781433,-0.588318
1470262656189061,-0.0406494,-0.208618,-0.779236,-0.589661
1470262656210579,-0.0350342,-0.213562,-0.777161,-0.590942
1470262656227117,-0.029541,-0.217346,-0.775452,-0.592163
1470262656249137,-0.0246582,-0.219666,-0.774292,-0.593079
1470262656272157,-0.020752,-0.22052,-0.773499,-0.593872
1470262656286670,-0.0175171,-0.219666,-0.773193,-0.594727
1470262656317197,-0.0184937,-0.215332,-0.774353,-0.594788
1470262656331710,-0.0189209,-0.212708,-0.774841,-0.595032
1470262656346724,-0.0180054,-0.209839,-0.775146,-0.595703
1470262656369248,-0.0167236,-0.207031,-0.775269,-0.596558
1470262656391766,-0.0157471,-0.205261,-0.775085,-0.597473
1470262656406278,-0.0151978,-0.204407,-0.774597,-0.598389
1470262656429298,-0.0145874,-0.203552,-0.774231,-0.599182
1470262656451820,-0.0136719,-0.202393,-0.773926,-0.600037
1470262656465831,-0.0128174,-0.201355,-0.773621,-0.600708
1470262656489352,-0.0123901,-0.200562,-0.773376,-0.601318
1470262656511872,-0.0125732,-0.200195,-0.773071,-0.601868
1470262656525884,-0.0129395,-0.199707,-0.772888,-0.602234
1470262656549406,-0.0133667,-0.198914,-0.772827,-0.602539
1470262656571926,-0.0137939,-0.197998,-0.772827,-0.602905
1470262656594446,-0.0140381,-0.19696,-0.772705,-0.603394
1470262656609460,-0.0140381,-0.195679,-0.772461,-0.604065
1470262656631480,-0.0136108,-0.194397,-0.772034,-0.605042
1470262656645993,-0.0130615,-0.193115,-0.771545,-0.60614
1470262656669515,-0.0124512,-0.191895,-0.770996,-0.607178
1470262656691533,-0.0120239,-0.19104,-0.770569,-0.608032
1470262656706047,-0.0117798,-0.190125,-0.770264,-0.608704
1470262656729067,-0.0114136,-0.188965,-0.770081,-0.609314
1470262656751587,-0.0112915,-0.187866,-0.769897,-0.609863
1470262656772618,-0.0113525,-0.186951,-0.769653,-0.610413
1470262656789121,-0.0114136,-0.185913,-0.769531,-0.610901
1470262656811641,-0.0117798,-0.185242,-0.769409,-0.611206
1470262656832691,-0.0115967,-0.184082,-0.769531,-0.611511
1470262656849175,-0.0125122,-0.184631,-0.769592,-0.611206
1470262656871695,-0.0108032,-0.181213,-0.770569,-0.611084
1470262656892727,-0.00762939,-0.175903,-0.771118,-0.611938
1470262656909229,-0.00421143,-0.171448,-0.771729,-0.612488
1470262656931749,0.00177002,-0.165894,-0.772461,-0.613098
1470262656952768,0.010437,-0.162109,-0.772217,-0.614258
1470262656969283,0.0205078,-0.163635,-0.770691,-0.615601
1470262656991803,0.029541,-0.171875,-0.767761,-0.616577
1470262657012849,0.0377808,-0.18219,-0.764282,-0.617493
1470262657029339,0.0474243,-0.189453,-0.762634,-0.61676
1470262657051864,0.0631714,-0.188965,-0.763428,-0.614502
1470262657072902,0.0819092,-0.184631,-0.764832,-0.611816
1470262657089391,0.0962524,-0.184937,-0.765747,-0.608521
1470262657111910,0.106567,-0.190491,-0.765747,-0.605042
1470262657132929,0.115479,-0.198608,-0.764709,-0.602112
1470262657148445,0.124878,-0.206787,-0.763672,-0.598816
1470262657171965,0.13562,-0.216125,-0.762817,-0.594238
1470262657193985,0.14917,-0.227356,-0.761536,-0.58844
1470262657208497,0.164307,-0.238708,-0.759766,-0.582153
1470262657231520,0.180237,-0.250244,-0.757202,-0.575867
1470262657255040,0.196228,-0.262085,-0.754089,-0.569397
1470262657282564,0.211548,-0.274048,-0.750732,-0.562683
1470262657291572,0.225708,-0.285461,-0.74707,-0.556396
1470262657314593,0.238892,-0.295715,-0.742981,-0.550964
1470262657328606,0.250488,-0.305237,-0.738647,-0.546387
1470262657359133,0.260376,-0.313477,-0.734497,-0.542664
1470262657374147,0.268982,-0.320068,-0.730957,-0.539429
1470262657388659,0.276611,-0.32489,-0.727966,-0.536743
1470262657411680,0.283203,-0.328186,-0.725647,-0.534424
1470262657434202,0.288452,-0.330994,-0.723389,-0.532959
1470262657455246,0.29248,-0.333008,-0.721375,-0.532227
1470262657472234,0.295654,-0.334717,-0.719482,-0.531982
1470262657501761,0.298584,-0.335815,-0.717651,-0.532043
1470262657515274,0.301331,-0.336182,-0.71637,-0.532043
1470262657531788,0.303162,-0.335938,-0.715942,-0.531799
1470262657554396,0.303955,-0.336365,-0.715454,-0.531677
1470262657575542,0.302917,-0.335876,-0.716003,-0.531799
1470262657591932,0.304016,-0.335938,-0.715027,-0.532471
1470262657614448,0.303162,-0.33844,-0.714417,-0.532227
1470262657628462,0.302368,-0.336548,-0.71582,-0.531921
1470262657651983,0.301453,-0.336121,-0.717102,-0.531067
1470262657674503,0.300659,-0.335388,-0.718262,-0.530334
1470262657695522,0.299866,-0.335083,-0.719238,-0.529663
1470262657711536,0.299194,-0.335205,-0.719849,-0.529114
1470262657734556,0.298706,-0.334778,-0.720642,-0.528625
1470262657763081,0.298035,-0.334229,-0.721497,-0.528198
1470262657771590,0.297058,-0.334106,-0.72229,-0.52771
1470262657794109,0.296204,-0.333984,-0.723022,-0.527344
1470262657815661,0.295532,-0.333801,-0.723511,-0.527039
1470262657831643,0.294861,-0.333496,-0.72406,-0.526917
1470262657854164,0.29425,-0.332825,-0.724731,-0.526794
1470262657875745,0.293518,-0.332214,-0.725403,-0.526611
1470262657891697,0.292786,-0.331787,-0.726013,-0.526489
1470262657914218,0.292175,-0.331177,-0.726379,-0.526672
1470262657935236,0.291809,-0.330872,-0.72644,-0.527039
1470262657951752,0.29126,-0.330933,-0.726257,-0.527466
1470262657981778,0.290771,-0.331421,-0.726074,-0.52771
1470262657995314,0.290527,-0.331909,-0.725952,-0.527771
1470262658011804,0.29071,-0.332336,-0.725647,-0.527771
1470262658035326,0.290344,-0.333801,-0.725342,-0.527527
1470262658055345,0.287476,-0.335144,-0.726563,-0.526489
1470262658071358,0.28125,-0.33667,-0.730042,-0.524109
1470262658094379,0.271484,-0.338623,-0.735107,-0.520874
1470262658122905,0.257874,-0.340698,-0.741943,-0.516724
1470262658130911,0.241272,-0.342041,-0.750732,-0.511169
1470262658154433,0.221558,-0.342651,-0.761597,-0.503601
1470262658176953,0.199036,-0.340027,-0.774109,-0.495605
1470262658197973,0.176392,-0.33374,-0.787903,-0.486694
1470262658222494,0.152893,-0.330811,-0.799255,-0.477966
1470262658244014,0.128418,-0.333984,-0.806396,-0.470886
1470262658259027,0.105042,-0.339539,-0.810974,-0.464844
1470262658274043,0.0846558,-0.34491,-0.814758,-0.458435
1470262658296561,0.0681763,-0.347351,-0.818909,-0.451904
1470262658311074,0.0545044,-0.347717,-0.823425,-0.445129
1470262658334094,0.041687,-0.348328,-0.827515,-0.438477
1470262658356615,0.0299683,-0.351135,-0.829834,-0.4328
1470262658378133,0.0196533,-0.355042,-0.830994,-0.427917
1470262658394150,0.010376,-0.358765,-0.832092,-0.422974
1470262658416668,0.00231934,-0.36145,-0.833557,-0.417786
1470262658437687,-0.00396729,-0.362976,-0.835327,-0.412964
1470262658454203,-0.00860596,-0.364563,-0.836914,-0.408325
1470262658476722,-0.0110474,-0.36792,-0.837891,-0.403198
1470262658497742,-0.0103149,-0.372803,-0.837769,-0.398926
1470262658514257,-0.00622559,-0.376831,-0.836426,-0.398132
1470262658536776,0.00476074,-0.375427,-0.8349,-0.402588
1470262658557809,0.00134277,-0.353394,-0.840881,-0.410034
1470262658574311,-0.0177002,-0.339233,-0.835632,-0.431824
1470262658596833,-0.0484619,-0.332336,-0.819885,-0.463745
1470262658617864,-0.0830078,-0.31189,-0.805664,-0.496887
1470262658634365,-0.104919,-0.310425,-0.79071,-0.517212
1470262658656884,-0.133606,-0.296204,-0.791992,-0.516968
1470262658677902,-0.147644,-0.289429,-0.796021,-0.510803
1470262658694419,-0.152893,-0.287659,-0.796448,-0.509583
1470262658716938,-0.155884,-0.290283,-0.797729,-0.505066
1470262658737957,-0.156738,-0.295105,-0.799377,-0.499451
1470262658754472,-0.15448,-0.299316,-0.800537,-0.495789
1470262658776491,-0.152283,-0.302063,-0.801453,-0.493286
1470262658798011,-0.151855,-0.303345,-0.802429,-0.491028
1470262658814026,-0.152466,-0.303772,-0.803223,-0.489319
1470262658836545,-0.153809,-0.30426,-0.803772,-0.487671
1470262658859066,-0.155762,-0.305298,-0.803711,-0.48645
1470262658874579,-0.157837,-0.305969,-0.80365,-0.485474
1470262658897100,-0.15918,-0.305847,-0.803894,-0.484741
1470262658925626,-0.159241,-0.305054,-0.804504,-0.484192
1470262658934633,-0.158203,-0.304626,-0.80542,-0.483337
1470262658956655,-0.156311,-0.304932,-0.806335,-0.482239
1470262658978173,-0.153564,-0.306152,-0.807373,-0.480591
1470262658994187,-0.150208,-0.308472,-0.808594,-0.478149
1470262659016708,-0.146606,-0.311768,-0.809875,-0.474915
1470262659037726,-0.143127,-0.315796,-0.811157,-0.47113
1470262659053741,-0.139343,-0.320068,-0.8125,-0.467041
1470262659084268,-0.134949,-0.324707,-0.813904,-0.462585
1470262659098324,-0.130127,-0.329895,-0.815247,-0.457947
1470262659113797,-0.125061,-0.335266,-0.816223,-0.453674
1470262659136818,-0.120361,-0.340454,-0.817078,-0.449585
1470262659166841,-0.11554,-0.344971,-0.817871,-0.445984
1470262659173348,-0.110352,-0.348083,-0.819153,-0.442383
1470262659196869,-0.103882,-0.349792,-0.82135,-0.438599
1470262659219390,-0.0966797,-0.350952,-0.823914,-0.434509
1470262659240411,-0.0872192,-0.352112,-0.827026,-0.429565
1470262659257423,-0.074585,-0.355042,-0.830017,-0.423767
1470262659279443,-0.0602417,-0.361267,-0.831543,-0.417664
1470262659300462,-0.0438843,-0.371948,-0.831238,-0.410889
1470262659324483,-0.0272217,-0.386169,-0.828613,-0.404541
1470262659338997,-0.0125732,-0.401184,-0.824402,-0.399231
1470262659353510,0.000915527,-0.413635,-0.820923,-0.393799
1470262659376532,0.0137329,-0.424622,-0.81781,-0.388367
1470262659399553,0.0239258,-0.43335,-0.815369,-0.383362
1470262659420570,0.0316772,-0.439026,-0.813843,-0.379517
1470262659436585,0.0372925,-0.442261,-0.813538,-0.375916
1470262659459605,0.0407715,-0.44519,-0.813293,-0.372498
1470262659480624,0.0424194,-0.447815,-0.813232,-0.369324
1470262659496638,0.0442505,-0.449097,-0.814148,-0.36554
1470262659519160,0.0476074,-0.449646,-0.815369,-0.361633
1470262659540678,0.0505981,-0.45343,-0.814758,-0.35791
1470262659556694,0.0524902,-0.458923,-0.813293,-0.353943
1470262659579212,0.0560913,-0.462952,-0.8125,-0.349854
1470262659600732,0.062561,-0.465271,-0.812561,-0.345581
1470262659616746,0.0717773,-0.469116,-0.811157,-0.341858
1470262659645272,0.0822144,-0.47406,-0.807861,-0.340515
1470262659660286,0.0864868,-0.456726,-0.814758,-0.34668
1470262659676800,0.0807495,-0.42572,-0.824463,-0.364197
1470262659699320,0.0480347,-0.390137,-0.828186,-0.399658
1470262659720355,-0.00756836,-0.325928,-0.830627,-0.451538
1470262659744360,-0.0458984,-0.289063,-0.824646,-0.484131
1470262659759374,-0.0675659,-0.295654,-0.807007,-0.506775
1470262659780419,-0.0983887,-0.299744,-0.819885,-0.477905
1470262659796908,-0.107178,-0.304321,-0.826477,-0.461487
1470262659819453,-0.0995483,-0.314087,-0.828552,-0.452881
1470262659840479,-0.0949097,-0.328064,-0.829895,-0.441345
1470262659856964,-0.0884399,-0.341309,-0.828369,-0.435425
1470262659879482,-0.0838013,-0.351318,-0.825256,-0.434326
1470262659900534,-0.0861206,-0.358032,-0.822266,-0.434021
1470262659916515,-0.0915527,-0.358154,-0.821106,-0.434937
1470262659939535,-0.0975952,-0.354675,-0.820984,-0.436768
1470262659960575,-0.103271,-0.350891,-0.821472,-0.437622
1470262659976071,-0.108398,-0.349487,-0.821167,-0.438049
1470262659999590,-0.112671,-0.350525,-0.819946,-0.438416
1470262660020608,-0.115479,-0.35144,-0.818909,-0.438965
1470262660036125,-0.116699,-0.351563,-0.818481,-0.439209
1470262660059187,-0.116394,-0.351379,-0.81842,-0.439697
1470262660081690,-0.115417,-0.350769,-0.818542,-0.440186
1470262660096677,-0.113464,-0.35022,-0.818787,-0.440613
1470262660119197,-0.110535,-0.350342,-0.81897,-0.440979
1470262660141717,-0.1073,-0.351563,-0.818909,-0.440857
1470262660156230,-0.104187,-0.35321,-0.818726,-0.440674
1470262660179253,-0.10083,-0.35437,-0.818909,-0.440186
1470262660201771,-0.0977173,-0.356323,-0.818909,-0.43927
1470262660217307,-0.0956421,-0.359253,-0.818665,-0.437866
1470262660239305,-0.0940552,-0.362854,-0.818176,-0.436096
1470262660261825,-0.0911865,-0.36554,-0.818604,-0.433655
1470262660275838,-0.0862427,-0.367737,-0.819519,-0.431091
1470262660306869,-0.0799561,-0.370483,-0.820435,-0.428223
1470262660322380,-0.0732422,-0.372681,-0.821533,-0.425354
1470262660342901,-0.0656738,-0.373901,-0.822937,-0.422852
1470262660359413,-0.0564575,-0.375366,-0.824341,-0.420105
1470262660381933,-0.0461426,-0.379272,-0.825073,-0.416443
1470262660402968,-0.0351563,-0.386719,-0.824158,-0.412415
1470262660419469,-0.0244751,-0.3974,-0.821594,-0.408081
1470262660441989,-0.0136719,-0.409607,-0.818237,-0.403259
1470262660463063,-0.00195313,-0.42157,-0.814636,-0.398376
1470262660479521,0.0109253,-0.432129,-0.811401,-0.393555
1470262660501589,0.0246582,-0.441162,-0.808472,-0.388855
1470262660523105,0.038269,-0.449219,-0.805725,-0.384277
1470262660539574,0.0515747,-0.457642,-0.802246,-0.380005
1470262660561596,0.0648193,-0.466919,-0.797668,-0.376282
1470262660567099,0.0771484,-0.477112,-0.79187,-0.373413
1470262660589620,0.0887451,-0.486694,-0.785767,-0.371399
1470262660605171,0.0995483,-0.49353,-0.781189,-0.369324
1470262660634664,0.109619,-0.499146,-0.777222,-0.367188
1470262660649675,0.118286,-0.504883,-0.77301,-0.365601
1470262660664688,0.125427,-0.510498,-0.768921,-0.364014
1470262660687207,0.13147,-0.515808,-0.765137,-0.362427
1470262660709744,0.137146,-0.520813,-0.761658,-0.360474
1470262660724740,0.142273,-0.525269,-0.758606,-0.358398
1470262660754768,0.147278,-0.529297,-0.755859,-0.356262
1470262660769782,0.152161,-0.533752,-0.752747,-0.354126
1470262660784795,0.156982,-0.53833,-0.749512,-0.351868
1470262660807316,0.162415,-0.54187,-0.746948,-0.349487
1470262660832838,0.169189,-0.544617,-0.744507,-0.347229
1470262660844849,0.177734,-0.547302,-0.741089,-0.346069
1470262660867368,0.187866,-0.550476,-0.73645,-0.345581
1470262660889889,0.199951,-0.55365,-0.730591,-0.34613
1470262660904955,0.213196,-0.551575,-0.725342,-0.352539
1470262660927519,0.208923,-0.521423,-0.740723,-0.368591
1470262660949489,0.182983,-0.493042,-0.758667,-0.384583
1470262660964986,0.125122,-0.454956,-0.782166,-0.407043
1470262660986977,0.0371704,-0.384216,-0.806091,-0.44873
1470262661009498,-0.00341797,-0.346375,-0.81134,-0.471069
1470262661026012,-0.0287476,-0.340515,-0.800903,-0.491882
1470262661047555,-0.0622559,-0.352661,-0.810852,-0.462952
1470262661070180,-0.0671387,-0.361267,-0.813171,-0.451477
1470262661084607,-0.0528564,-0.369446,-0.812744,-0.44751
1470262661107681,-0.0446167,-0.377258,-0.815552,-0.436646
1470262661129604,-0.0380859,-0.38446,-0.816467,-0.429199
1470262661146119,-0.034668,-0.391174,-0.815491,-0.425293
1470262661167138,-0.0386963,-0.396606,-0.81427,-0.422241
1470262661189661,-0.0454102,-0.399231,-0.812988,-0.421509
1470262661204687,-0.0524292,-0.398438,-0.812622,-0.42218
1470262661230210,-0.0596313,-0.395508,-0.813293,-0.422729
1470262661249712,-0.065918,-0.392517,-0.814026,-0.423096
1470262661264726,-0.0709839,-0.391113,-0.813904,-0.423828
1470262661287246,-0.074646,-0.390381,-0.813538,-0.424622
1470262661309766,-0.0760498,-0.388855,-0.81366,-0.425476
1470262661326280,-0.0759277,-0.386536,-0.814209,-0.426636
1470262661354808,-0.0754395,-0.384033,-0.814636,-0.428101
1470262661365316,-0.0749512,-0.381836,-0.814941,-0.429565
1470262661386335,-0.0742798,-0.380249,-0.815308,-0.430481
1470262661409356,-0.0732422,-0.379822,-0.815369,-0.430847
1470262661424870,-0.0720215,-0.380554,-0.815063,-0.430908
1470262661444888,-0.0703125,-0.381775,-0.814758,-0.430786
1470262661483424,-0.0678711,-0.382996,-0.814636,-0.430298
1470262661489428,-0.0647583,-0.384827,-0.814453,-0.429443
1470262661504941,-0.0609131,-0.387451,-0.81427,-0.428101
1470262661528464,-0.0560913,-0.390991,-0.813904,-0.426208
1470262661552990,-0.0499878,-0.395325,-0.813477,-0.423767
1470262661565106,-0.0419922,-0.400085,-0.813171,-0.420715
1470262661590542,-0.0318604,-0.404541,-0.812927,-0.417786
1470262661610123,-0.0198364,-0.408081,-0.813232,-0.41449
1470262661625051,-0.00506592,-0.411621,-0.813721,-0.410461
1470262661647071,0.0130005,-0.416504,-0.813416,-0.405945
1470262661669591,0.0335693,-0.423462,-0.811401,-0.401611
1470262661693611,0.0565796,-0.430786,-0.807983,-0.39801
1470262661708624,0.0809937,-0.43219,-0.80542,-0.397583
1470262661729657,0.101013,-0.408447,-0.813293,-0.401978
1470262661746158,0.0848389,-0.383362,-0.819519,-0.41748
1470262661767177,0.015625,-0.351868,-0.824219,-0.443481
1470262661789699,-0.0556641,-0.300964,-0.822205,-0.480042
1470262661807811,-0.0957031,-0.269653,-0.812744,-0.507568
1470262661827297,-0.125366,-0.282593,-0.799988,-0.514404
1470262661849751,-0.153076,-0.29895,-0.808167,-0.483948
1470262661867767,-0.153809,-0.306396,-0.810486,-0.475037
1470262661887284,-0.135986,-0.310486,-0.814453,-0.471008
1470262661909806,-0.120117,-0.314514,-0.819885,-0.463257
1470262661926320,-0.107056,-0.31842,-0.821289,-0.461182
1470262661947338,-0.100403,-0.323547,-0.820313,-0.460938
1470262661969875,-0.101501,-0.329651,-0.818298,-0.459961
1470262661992378,-0.104431,-0.333801,-0.815857,-0.460571
1470262662007393,-0.107361,-0.3349,-0.814026,-0.462402
1470262662029942,-0.110107,-0.333374,-0.81311,-0.464417
1470262662047434,-0.111755,-0.331055,-0.812805,-0.466187
1470262662067447,-0.112549,-0.330078,-0.812439,-0.467407
1470262662089966,-0.112732,-0.330688,-0.811951,-0.467712
1470262662107482,-0.111938,-0.332886,-0.811707,-0.466797
1470262662127500,-0.109314,-0.335449,-0.81189,-0.465271
1470262662152523,-0.104797,-0.338074,-0.812561,-0.463196
1470262662167537,-0.0993652,-0.341309,-0.813538,-0.460388
1470262662190101,-0.0929565,-0.345032,-0.814392,-0.457336
1470262662209574,-0.0858154,-0.349426,-0.815002,-0.454285
1470262662232122,-0.0791016,-0.355225,-0.815063,-0.450928
1470262662247688,-0.0717773,-0.360718,-0.815552,-0.446899
1470262662269628,-0.0618896,-0.366272,-0.816528,-0.442017
1470262662287644,-0.0493774,-0.372986,-0.817566,-0.436096
1470262662307162,-0.0344238,-0.381592,-0.81781,-0.429504
1470262662329724,-0.0158691,-0.388794,-0.818481,-0.422852
1470262662347709,0.0065918,-0.394287,-0.819702,-0.415588
1470262662367215,0.0310669,-0.400391,-0.820068,-0.407837
1470262662389778,0.0553589,-0.409607,-0.817993,-0.400208
1470262662413758,0.079895,-0.421448,-0.813232,-0.393372
1470262662434778,0.104614,-0.434265,-0.806519,-0.38739
1470262662449792,0.129395,-0.447449,-0.79834,-0.381897
1470262662467805,0.154175,-0.461426,-0.788269,-0.376892
1470262662487342,0.178467,-0.475586,-0.77655,-0.372803
1470262662509877,0.200928,-0.490234,-0.763245,-0.369934
1470262662527861,0.219177,-0.503967,-0.749695,-0.368835
1470262662547472,0.234985,-0.514221,-0.737793,-0.368958
1470262662569983,0.249207,-0.521484,-0.728577,-0.367676
1470262662592465,0.260681,-0.527588,-0.721313,-0.365356
1470262662608432,0.269531,-0.532776,-0.716003,-0.361816
1470262662629950,0.275757,-0.537903,-0.71167,-0.358093
1470262662647467,0.279602,-0.543518,-0.707703,-0.354492
1470262662668986,0.281494,-0.550232,-0.703308,-0.351318
1470262662692508,0.283508,-0.55603,-0.699097,-0.349121
1470262662707521,0.284058,-0.562134,-0.695374,-0.346252
1470262662728540,0.280518,-0.565796,-0.695862,-0.342102
1470262662757569,0.281494,-0.568054,-0.694336,-0.340698
1470262662767576,0.279053,-0.570374,-0.694824,-0.337708
1470262662788595,0.279175,-0.57074,-0.695923,-0.334778
1470262662809613,0.280823,-0.571655,-0.695251,-0.333313
1470262662827629,0.282471,-0.566406,-0.697571,-0.335999
1470262662848648,0.271484,-0.532654,-0.725464,-0.341125
1470262662869682,0.232849,-0.489075,-0.765747,-0.346802
1470262662887703,0.163879,-0.464539,-0.796265,-0.351196
1470262662910204,0.0745239,-0.451294,-0.80011,-0.388123
1470262662929720,0.00280762,-0.402954,-0.81012,-0.425842
1470262662955244,-0.0432739,-0.380005,-0.809387,-0.445801
1470262662976266,-0.0791626,-0.37616,-0.804138,-0.453491
1470262662989794,-0.100037,-0.376831,-0.805359,-0.446716
1470262663007824,-0.0969238,-0.373535,-0.80481,-0.45105
1470262663030813,-0.0843506,-0.368042,-0.808838,-0.450867
1470262663050329,-0.0723877,-0.364502,-0.814758,-0.44519
1470262663067345,-0.0639648,-0.365173,-0.817505,-0.440796
1470262663090865,-0.0599365,-0.369324,-0.817993,-0.437012
1470262663110383,-0.0615234,-0.374084,-0.817444,-0.433838
1470262663126436,-0.065979,-0.377808,-0.816528,-0.43158
1470262663149418,-0.0714111,-0.379761,-0.815491,-0.430969
1470262663170452,-0.0778809,-0.379333,-0.814514,-0.43219
1470262663186952,-0.0847778,-0.376831,-0.813416,-0.434998
1470262663209474,-0.0932617,-0.373779,-0.812012,-0.438599
1470262663230501,-0.101807,-0.367554,-0.812134,-0.44165
1470262663247006,-0.107666,-0.358948,-0.814209,-0.443542
1470262663269526,-0.108765,-0.352722,-0.815491,-0.445923
1470262663290546,-0.107727,-0.350342,-0.815491,-0.448059
1470262663307061,-0.105103,-0.349609,-0.815247,-0.449646
1470262663329579,-0.100525,-0.348206,-0.815308,-0.451721
1470262663350600,-0.0953979,-0.346008,-0.815735,-0.453674
1470262663367114,-0.0903931,-0.34314,-0.816467,-0.455566
1470262663389133,-0.0855713,-0.340271,-0.817261,-0.457275
1470262663410652,-0.0808716,-0.337585,-0.817871,-0.459045
1470262663426667,-0.0759277,-0.334595,-0.818542,-0.460815
1470262663449189,-0.0704956,-0.331543,-0.819214,-0.462646
1470262663470706,-0.0643921,-0.327759,-0.820251,-0.464478
1470262663486721,-0.0583496,-0.323792,-0.821411,-0.466003
1470262663509244,-0.0523682,-0.319458,-0.822693,-0.467407
1470262663530315,-0.0460815,-0.314575,-0.824158,-0.468872
1470262663546777,-0.039856,-0.310425,-0.825195,-0.470337
1470262663569295,-0.0338745,-0.306824,-0.826294,-0.471252
1470262663590314,-0.0285645,-0.303955,-0.827026,-0.472107
1470262663606830,-0.0232544,-0.301086,-0.827576,-0.473267
1470262663629349,-0.0181885,-0.298767,-0.828064,-0.474121
1470262663650367,-0.013916,-0.296753,-0.828918,-0.473999
1470262663666882,-0.0101318,-0.294739,-0.829956,-0.473633
1470262663689403,-0.00640869,-0.291809,-0.83075,-0.47406
1470262663710421,-0.0032959,-0.288452,-0.831238,-0.475281
1470262663726937,-0.00164795,-0.285583,-0.831909,-0.475891
1470262663749456,-0.000793457,-0.283936,-0.832886,-0.475159
1470262663770477,0.000427246,-0.281921,-0.833801,-0.474731
1470262663786490,0.00152588,-0.279297,-0.834412,-0.47522
1470262663809511,0.00201416,-0.275818,-0.835083,-0.476074
1470262663830593,0.00231934,-0.272217,-0.835999,-0.476501
1470262663846044,0.0032959,-0.268066,-0.837036,-0.477051
1470262663869565,0.00469971,-0.263855,-0.83783,-0.478027
1470262663892085,0.00579834,-0.259216,-0.838623,-0.479187
1470262663906099,0.00518799,-0.2547,-0.839294,-0.480408
1470262663929148,0.00366211,-0.249512,-0.840332,-0.481323
1470262663951638,0.00189209,-0.244263,-0.841431,-0.482117
1470262663966153,0.00012207,-0.239685,-0.84198,-0.483459
1470262663989172,-0.00177002,-0.236206,-0.842102,-0.484863
1470262664011694,-0.00360107,-0.233215,-0.842407,-0.48584
1470262664026206,-0.00445557,-0.229614,-0.843079,-0.486389
1470262664049726,-0.00439453,-0.225891,-0.843689,-0.487122
1470262664071746,-0.0043335,-0.223083,-0.843872,-0.488037
1470262664086260,-0.00384521,-0.220825,-0.843994,-0.488892
1470262664109282,-0.00299072,-0.21936,-0.844055,-0.48938
1470262664131813,-0.00177002,-0.21875,-0.84375,-0.490173
1470262664146313,-0.000244141,-0.218811,-0.843201,-0.491211
1470262664169335,0.0012207,-0.218628,-0.842468,-0.492493
1470262664191856,0.00231934,-0.21814,-0.841919,-0.493652
1470262664206367,0.00256348,-0.217896,-0.841553,-0.494385
1470262664229387,0.00238037,-0.217896,-0.841125,-0.495056
1470262664251908,0.00262451,-0.21698,-0.841003,-0.495667
1470262664266421,0.00311279,-0.215393,-0.841309,-0.49585
1470262664289442,0.00378418,-0.213867,-0.841736,-0.495789
1470262664311963,0.0045166,-0.213074,-0.841736,-0.496094
1470262664326475,0.00531006,-0.212769,-0.841309,-0.497009
1470262664349496,0.00604248,-0.212891,-0.840515,-0.49823
1470262664372016,0.00683594,-0.213013,-0.839783,-0.49939
1470262664393035,0.00732422,-0.213257,-0.839233,-0.500305
1470262664409550,0.00756836,-0.214294,-0.83844,-0.50116
1470262664432072,0.00769043,-0.215393,-0.837708,-0.501892
1470262664453088,0.00769043,-0.216309,-0.837036,-0.502563
1470262664469605,0.00756836,-0.21698,-0.836548,-0.503113
1470262664492123,0.00744629,-0.217285,-0.836304,-0.503418
1470262664512642,0.00744629,-0.217163,-0.836243,-0.503601
1470262664529160,0.00769043,-0.216614,-0.836243,-0.503784
1470262664551726,0.00793457,-0.216187,-0.836182,-0.504028
1470262664573294,0.00817871,-0.215698,-0.836121,-0.504395
1470262664589242,0.00860596,-0.214905,-0.83606,-0.504822
1470262664611747,0.00891113,-0.214294,-0.835876,-0.50531
1470262664632756,0.00933838,-0.21405,-0.835632,-0.505859
1470262664649265,0.00982666,-0.213867,-0.835388,-0.506348
1470262664671786,0.010376,-0.213806,-0.835144,-0.506714
1470262664692804,0.010437,-0.214294,-0.834961,-0.506897
1470262664709319,0.0103149,-0.215027,-0.834717,-0.507019
1470262664731864,0.010376,-0.215698,-0.834412,-0.507202
1470262664753366,0.0106812,-0.216125,-0.834167,-0.507385
1470262664769372,0.0112915,-0.216248,-0.833984,-0.507629
1470262664797944,0.0119629,-0.216248,-0.833679,-0.508118
1470262664812955,0.0126343,-0.216125,-0.833313,-0.508789
1470262664829426,0.0131226,-0.215942,-0.832886,-0.509521
1470262664851946,0.0133057,-0.216064,-0.832397,-0.510193
1470262664874467,0.0133667,-0.216064,-0.832092,-0.510681
1470262664889480,0.0134888,-0.216003,-0.831909,-0.511047
1470262664912003,0.0136108,-0.215881,-0.831848,-0.51123
1470262664934521,0.0136108,-0.215881,-0.831848,-0.51123
1470262664949534,0.0134277,-0.21582,-0.831726,-0.511414
1470262664972054,0.0130005,-0.215881,-0.831665,-0.511475
1470262664994574,0.0125732,-0.21582,-0.831665,-0.511597
1470262665008587,0.012146,-0.215515,-0.831665,-0.511719
1470262665032108,0.0118408,-0.215149,-0.831665,-0.511841
1470262665054146,0.0115356,-0.214844,-0.831665,-0.511963
1470262665068651,0.0111084,-0.214722,-0.831604,-0.512146
1470262665091662,0.0106812,-0.214661,-0.831543,-0.512268
1470262665114684,0.0102539,-0.214539,-0.831543,-0.512329
1470262665128696,0.00976563,-0.214417,-0.831604,-0.512329
1470262665159222,0.00927734,-0.214294,-0.831665,-0.512268
1470262665174237,0.0088501,-0.213989,-0.831848,-0.512146
1470262665188749,0.00854492,-0.213501,-0.83197,-0.512085
1470262665211770,0.00823975,-0.213013,-0.832092,-0.512146
1470262665234291,0.00811768,-0.212463,-0.832153,-0.512268
1470262665248803,0.00817871,-0.211975,-0.832214,-0.51239
1470262665271823,0.00842285,-0.21167,-0.832214,-0.512451
1470262665294344,0.00842285,-0.21167,-0.832214,-0.512451
1470262665308856,0.00866699,-0.211792,-0.832092,-0.512573
1470262665331878,0.00891113,-0.212097,-0.831909,-0.512756
1470262665353897,0.00939941,-0.21228,-0.831726,-0.512939
1470262665375435,0.00982666,-0.212585,-0.831543,-0.513123
1470262665391932,0.0102539,-0.212891,-0.831299,-0.513428
1470262665414451,0.0105591,-0.213196,-0.830994,-0.513794
1470262665435472,0.0107422,-0.21344,-0.830627,-0.514282
1470262665451986,0.0109253,-0.213257,-0.830444,-0.514709
1470262665474505,0.0111084,-0.212952,-0.830322,-0.515015
1470262665495524,0.0111694,-0.212708,-0.8302,-0.515259
1470262665518048,0.0111694,-0.212585,-0.830139,-0.515442
1470262665534560,0.0111694,-0.212585,-0.830139,-0.515442
1470262665555578,0.0108643,-0.212646,-0.830078,-0.515503
1470262665571592,0.0108032,-0.212646,-0.830078,-0.515503
1470262665600618,0.0108032,-0.212585,-0.830078,-0.515503
1470262665615688,0.0108643,-0.212402,-0.830017,-0.515686
1470262665631648,0.0110474,-0.212341,-0.829895,-0.51593
1470262665654667,0.0112915,-0.212402,-0.829712,-0.516174
1470262665675686,0.0115967,-0.212524,-0.829529,-0.516418
1470262665691700,0.0119629,-0.212585,-0.829407,-0.516602
1470262665714221,0.0123901,-0.212646,-0.829285,-0.516785
1470262665735797,0.0127563,-0.21283,-0.829102,-0.516907
1470262665751755,0.0130005,-0.213013,-0.828979,-0.517029
1470262665774275,0.0133667,-0.213074,-0.828918,-0.517151
1470262665796795,0.0136108,-0.213196,-0.828857,-0.517212
1470262665811808,0.0137939,-0.213196,-0.828796,-0.517212
1470262665834333,0.0140381,-0.213196,-0.828857,-0.517151
1470262665856849,0.0144043,-0.213135,-0.828857,-0.517151
1470262665871862,0.0147095,-0.213196,-0.828796,-0.517212
1470262665894382,0.0150146,-0.213379,-0.828735,-0.517273
1470262665916903,0.0153198,-0.213623,-0.828613,-0.517334
1470262665931916,0.015625,-0.213745,-0.828552,-0.517395
1470262665954460,0.0159912,-0.213745,-0.828491,-0.517456
1470262665976959,0.0162964,-0.213867,-0.828369,-0.517517
1470262665991470,0.0164795,-0.214111,-0.828308,-0.517578
1470262666014490,0.0167847,-0.214233,-0.828186,-0.517639
1470262666037010,0.0170288,-0.214294,-0.828186,-0.5177
1470262666051023,0.0170288,-0.214539,-0.828064,-0.517761
1470262666074544,0.0169678,-0.214722,-0.827942,-0.517883
1470262666103069,0.0167847,-0.214722,-0.82782,-0.518127
1470262666111077,0.0166626,-0.214722,-0.827637,-0.518433
1470262666134098,0.0164795,-0.214539,-0.827576,-0.518616
1470262666156634,0.0161743,-0.214233,-0.827515,-0.518799
1470262666171133,0.0157471,-0.213989,-0.827454,-0.519043
1470262666194152,0.0154419,-0.213806,-0.827393,-0.519226
1470262666217172,0.0152588,-0.213684,-0.827332,-0.519409
1470262666231185,0.0150146,-0.213623,-0.827209,-0.519592
1470262666254205,0.0147095,-0.213867,-0.827087,-0.519714
1470262666276726,0.0145264,-0.213928,-0.826965,-0.519897
1470262666305753,0.0145264,-0.213928,-0.826965,-0.519897
1470262666314260,0.0145264,-0.213928,-0.826965,-0.519897
1470262666336780,0.0145264,-0.213928,-0.826965,-0.519836
1470262666358299,0.0145264,-0.213928,-0.826965,-0.519836
1470262666374313,0.0145264,-0.213928,-0.826965,-0.519836
1470262666396834,0.0144653,-0.214233,-0.827026,-0.519653
1470262666417853,0.0143433,-0.2146,-0.827148,-0.519287
1470262666434368,0.0142822,-0.215088,-0.827209,-0.518982
1470262666456887,0.0142822,-0.215393,-0.827393,-0.518555
1470262666477920,0.0143433,-0.215637,-0.827576,-0.518127
1470262666494421,0.0144653,-0.215881,-0.827759,-0.517761
1470262666516942,0.0146484,-0.216064,-0.827942,-0.517456
1470262666537976,0.0148315,-0.21637,-0.827942,-0.517273
1470262666554476,0.0151978,-0.216736,-0.827881,-0.517212
1470262666583002,0.015625,-0.217041,-0.827698,-0.517334
1470262666599516,0.0162354,-0.217224,-0.827637,-0.517334
1470262666614529,0.0168457,-0.217285,-0.827576,-0.517395
1470262666637049,0.017334,-0.217468,-0.827515,-0.517395
1470262666658083,0.0175781,-0.217651,-0.827515,-0.517334
1470262666674583,0.0176392,-0.217651,-0.827576,-0.517212
1470262666696620,0.0177612,-0.217651,-0.827698,-0.51709
1470262666718137,0.0178833,-0.217468,-0.82782,-0.516907
1470262666734136,0.0180664,-0.217346,-0.828003,-0.516724
1470262666757159,0.0183105,-0.217346,-0.828125,-0.516479
1470262666779178,0.0185547,-0.217346,-0.828247,-0.516235
1470262666794190,0.0188599,-0.217407,-0.828369,-0.516052
1470262666817211,0.019104,-0.217407,-0.82843,-0.515869
1470262666839233,0.0194092,-0.217468,-0.828491,-0.515747
1470262666854745,0.0196533,-0.217468,-0.828552,-0.515625
1470262666882772,0.0197144,-0.217773,-0.828613,-0.515442
1470262666899285,0.0196533,-0.218018,-0.828674,-0.515259
1470262666913798,0.0196533,-0.218018,-0.828674,-0.515259
1470262666936819,0.0195923,-0.217957,-0.828796,-0.515076
1470262666959339,0.0194092,-0.217773,-0.828918,-0.514893
1470262666973852,0.019165,-0.217651,-0.829102,-0.514709
1470262666996873,0.0187988,-0.217651,-0.829224,-0.514526
1470262667025899,0.0184326,-0.217529,-0.829468,-0.514221
1470262667033907,0.0179443,-0.217407,-0.829712,-0.513916
1470262667057427,0.0176392,-0.217163,-0.829834,-0.513794
1470262667079447,0.017334,-0.216919,-0.829956,-0.513733
1470262667093461,0.0170898,-0.216736,-0.830017,-0.513733
1470262667116980,0.0170898,-0.216675,-0.830017,-0.513733
1470262667139502,0.0170898,-0.216675,-0.830017,-0.513733
1470262667153513,0.0172119,-0.216614,-0.829895,-0.513916
1470262667177034,0.0171509,-0.216797,-0.829712,-0.51416
1470262667199555,0.0170288,-0.216919,-0.82959,-0.514343
1470262667213567,0.0169678,-0.21698,-0.829468,-0.514465
1470262667237088,0.0168457,-0.216675,-0.829529,-0.514526
1470262667259608,0.0166626,-0.216431,-0.829651,-0.514465
1470262667280627,0.0163574,-0.216309,-0.829712,-0.514404
1470262667297142,0.0159302,-0.216187,-0.829895,-0.51416
1470262667327169,0.0155029,-0.215942,-0.830139,-0.513855
1470262667340697,0.0152588,-0.215698,-0.830383,-0.513611
1470262667356695,0.0148926,-0.215698,-0.830627,-0.513245
1470262667379220,0.0140381,-0.216309,-0.830811,-0.512634
1470262667400734,0.0126343,-0.217041,-0.831238,-0.511658
1470262667417250,0.0111084,-0.217773,-0.831909,-0.510376
1470262667439270,0.00952148,-0.218384,-0.832703,-0.50885
1470262667460807,0.00793457,-0.218201,-0.83374,-0.507202
1470262667476803,0.00494385,-0.216187,-0.835266,-0.505676
1470262667499323,0.000671387,-0.210144,-0.837646,-0.504272
1470262667520912,-0.000976563,-0.201721,-0.840454,-0.502991
1470262667536857,-6.10352e-05,-0.193726,-0.842896,-0.502014
1470262667559377,0.000488281,-0.189392,-0.844421,-0.501221
1470262667580902,-0.000488281,-0.189514,-0.844543,-0.500854
1470262667596911,-0.00231934,-0.192383,-0.843933,-0.500854
1470262667626939,-0.00402832,-0.195374,-0.843506,-0.500427
1470262667640450,-0.00476074,-0.197205,-0.843445,-0.499756
1470262667655966,-0.00476074,-0.197815,-0.843628,-0.499207
1470262667679486,-0.00494385,-0.197449,-0.843994,-0.498718
1470262667702006,-0.00549316,-0.196045,-0.84491,-0.497803
1470262667717019,-0.0057373,-0.194824,-0.846191,-0.496033
1470262667739540,-0.0055542,-0.195435,-0.847107,-0.494263
1470262667769566,-0.00561523,-0.197205,-0.847473,-0.492859
1470262667777073,-0.0057373,-0.199646,-0.847839,-0.491333
1470262667799593,-0.00561523,-0.202271,-0.848328,-0.489441
1470262667822113,-0.00561523,-0.206055,-0.848633,-0.487305
1470262667836127,-0.00537109,-0.210205,-0.84906,-0.48468
1470262667859646,-0.00457764,-0.214478,-0.849792,-0.481567
1470262667882167,-0.00354004,-0.218628,-0.851013,-0.4776
1470262667903186,-0.00195313,-0.221252,-0.853516,-0.471863
1470262667919200,0.000305176,-0.221985,-0.857178,-0.464844
1470262667942221,0.00311279,-0.223328,-0.860413,-0.458191
1470262667963240,0.00543213,-0.227661,-0.862793,-0.451416
1470262667979256,0.0078125,-0.235413,-0.864319,-0.444458
1470262668001774,0.010437,-0.243958,-0.865295,-0.437866
1470262668023415,0.0134277,-0.251343,-0.866516,-0.431152
1470262668046826,0.0171509,-0.257324,-0.868164,-0.424194
1470262668061828,0.0216064,-0.262268,-0.869812,-0.41748
1470262668083349,0.0264282,-0.267029,-0.871338,-0.41095
1470262668099362,0.0305176,-0.2724,-0.872375,-0.404846
1470262668127890,0.0341187,-0.27887,-0.872986,-0.398804
1470262668142902,0.038147,-0.286133,-0.873047,-0.393066
1470262668159416,0.0432129,-0.293213,-0.872864,-0.387756
1470262668181937,0.0485229,-0.301025,-0.872131,-0.382813
1470262668202955,0.0545044,-0.308899,-0.871094,-0.377991
1470262668219472,0.060791,-0.316711,-0.869751,-0.373657
1470262668241994,0.0670776,-0.324646,-0.868225,-0.369263
1470262668264510,0.0725708,-0.333374,-0.866577,-0.36438
1470262668270016,0.0769653,-0.342896,-0.864746,-0.358826
1470262668285041,0.0804443,-0.351807,-0.863464,-0.3526
1470262668307549,0.0834961,-0.358704,-0.863281,-0.345276
1470262668330077,0.0860596,-0.364258,-0.864075,-0.336792
1470262668345091,0.0880737,-0.368591,-0.865784,-0.326904
1470262668367604,0.0888672,-0.371826,-0.868347,-0.316101
1470262668390123,0.0889282,-0.373474,-0.871826,-0.304382
1470262668404680,0.088623,-0.373962,-0.876038,-0.291443
1470262668427657,0.0882568,-0.373657,-0.880859,-0.277161
1470262668449676,0.0872192,-0.372131,-0.886353,-0.261536
1470262668464735,0.085144,-0.368774,-0.892883,-0.24408
1470262668494773,0.0823364,-0.364563,-0.899841,-0.225281
1470262668509787,0.0782471,-0.359924,-0.906738,-0.205566
1470262668526246,0.0733032,-0.354736,-0.913452,-0.185608
1470262668547264,0.067627,-0.348145,-0.920227,-0.165649
1470262668578793,0.0609741,-0.340393,-0.926941,-0.145874
1470262668584798,0.0531006,-0.332703,-0.932983,-0.126892
1470262668607319,0.0444946,-0.324524,-0.938477,-0.109619
1470262668629839,0.0346069,-0.315491,-0.943604,-0.0949097
1470262668644876,0.0241699,-0.305786,-0.948181,-0.083252
1470262668667375,0.0147705,-0.296753,-0.951965,-0.0743408
1470262668689936,0.00604248,-0.290344,-0.954529,-0.067749
1470262668704949,-0.0012207,-0.287048,-0.955933,-0.062561
1470262668727430,-0.00683594,-0.285706,-0.956543,-0.0581665
1470262668749985,-0.0123291,-0.285156,-0.956909,-0.0546265
1470262668766461,-0.0180664,-0.284912,-0.95697,-0.0521851
1470262668787480,-0.0248413,-0.284485,-0.957031,-0.0508423
1470262668810061,-0.0315552,-0.286011,-0.956482,-0.0496216
1470262668825014,-0.0366211,-0.293335,-0.954102,-0.0492554
1470262668847533,-0.038208,-0.309387,-0.94873,-0.0526123
1470262668870054,-0.0281372,-0.333496,-0.93988,-0.0686646
1470262668885068,-0.00341797,-0.363342,-0.925964,-0.103027
1470262668907587,0.0338745,-0.392395,-0.906006,-0.155151
1470262668938690,0.0834351,-0.41272,-0.878967,-0.224121
1470262668945121,0.144592,-0.419067,-0.844177,-0.301453
1470262668967642,0.211853,-0.41272,-0.80188,-0.376648
1470262668990162,0.278748,-0.394958,-0.754272,-0.444336
1470262669005177,0.340454,-0.368469,-0.707092,-0.498413
1470262669027697,0.392151,-0.344238,-0.660583,-0.539856
1470262669049715,0.42688,-0.328674,-0.62207,-0.568176
1470262669064729,0.433716,-0.32251,-0.606445,-0.583191
1470262669087250,0.409241,-0.324707,-0.622437,-0.582825
1470262669109787,0.363037,-0.334778,-0.655945,-0.570862
1470262669124784,0.305176,-0.349304,-0.69574,-0.548523
1470262669147316,0.238525,-0.362122,-0.740845,-0.513062
1470262669169828,0.176819,-0.37207,-0.782104,-0.467651
1470262669184838,0.122437,-0.376831,-0.816528,-0.419983
1470262669207357,0.0768433,-0.383301,-0.840454,-0.375427
1470262669229878,0.039917,-0.392273,-0.855896,-0.334778
1470262669246392,0.0131226,-0.394775,-0.868408,-0.299927
1470262669267414,-0.00634766,-0.386536,-0.881592,-0.271118
1470262669289931,-0.020813,-0.371582,-0.894775,-0.246765
1470262669306446,-0.0292969,-0.357788,-0.904663,-0.229675
1470262669327466,-0.0344238,-0.349854,-0.909973,-0.220154
1470262669352488,-0.0394287,-0.346069,-0.912781,-0.213501
1470262669372505,-0.0441284,-0.339722,-0.916321,-0.20752
1470262669387520,-0.0480957,-0.331726,-0.920288,-0.202087
1470262669410039,-0.0511475,-0.327332,-0.922791,-0.196838
1470262669426554,-0.0545654,-0.328186,-0.923218,-0.192505
1470262669447573,-0.0581055,-0.330261,-0.923096,-0.18866
1470262669470104,-0.0617676,-0.329834,-0.923889,-0.184143
1470262669486108,-0.0656128,-0.328247,-0.92511,-0.179565
1470262669507627,-0.0692139,-0.326172,-0.926208,-0.176086
1470262669530159,-0.0719604,-0.325439,-0.926575,-0.174622
1470262669546162,-0.0737915,-0.327576,-0.925537,-0.17511
1470262669567180,-0.0744019,-0.332031,-0.923523,-0.177429
1470262669589719,-0.0737305,-0.337524,-0.920471,-0.182922
1470262669607716,-0.0719604,-0.343323,-0.915955,-0.195129
1470262669627234,-0.0670776,-0.344238,-0.911133,-0.216675
1470262669649754,-0.0639648,-0.340149,-0.903809,-0.251953
1470262669667771,-0.0637207,-0.324829,-0.891968,-0.307983
1470262669687320,-0.050415,-0.292114,-0.875671,-0.381409
1470262669709810,-0.0291748,-0.253723,-0.84967,-0.461487
1470262669727826,-0.0133667,-0.236877,-0.821838,-0.518005
1470262669747342,-0.00213623,-0.222534,-0.808655,-0.544678
1470262669769877,-0.00427246,-0.20575,-0.80957,-0.549866
1470262669787899,-0.0202637,-0.222412,-0.812561,-0.538452
1470262669807410,-0.0462036,-0.255188,-0.81604,-0.516663
1470262669829916,-0.0678101,-0.287964,-0.818604,-0.492432
1470262669847932,-0.0792236,-0.313843,-0.820862,-0.470703
1470262669867450,-0.0784912,-0.332153,-0.82312,-0.453979
1470262669889970,-0.071228,-0.34314,-0.825684,-0.442139
1470262669915494,-0.0606689,-0.349182,-0.828125,-0.434448
1470262669927504,-0.0488892,-0.351135,-0.830627,-0.429504
1470262669950024,-0.0374756,-0.349243,-0.83429,-0.425049
1470262669968040,-0.0281372,-0.345032,-0.838562,-0.420776
1470262669987557,-0.020813,-0.339172,-0.843323,-0.416382
1470262670010092,-0.0159302,-0.332703,-0.848328,-0.411682
1470262670027595,-0.0123291,-0.325989,-0.853149,-0.407166
1470262670047611,-0.00964355,-0.319641,-0.857422,-0.40332
1470262670069632,-0.0088501,-0.317139,-0.860046,-0.399719
1470262670088151,-0.00939941,-0.318115,-0.861084,-0.396667
1470262670107182,-0.010376,-0.320984,-0.861206,-0.394104
1470262670130274,-0.0110474,-0.322998,-0.861633,-0.391479
1470262670147746,-0.0107422,-0.323608,-0.862488,-0.38916
1470262670167235,-0.00970459,-0.322876,-0.863342,-0.387756
1470262670190259,-0.00817871,-0.321838,-0.864014,-0.387268
1470262670207771,-0.00653076,-0.321655,-0.863953,-0.387512
1470262670228776,-0.00488281,-0.321899,-0.863281,-0.388855
