timestamp,roll,pitch,yaw
1470243051945778,-0.364399,0.0786912,-2.5635
1470243051969799,-0.364399,0.0786912,-2.5635
1470243051984813,-0.364399,0.0786912,-2.5635
1470243052005832,-0.364399,0.0786912,-2.5635
1470243052014840,-0.364522,0.0787264,-2.56352
1470243052035858,-0.364522,0.0787264,-2.56352
1470243052050872,-0.364522,0.0787264,-2.56352
1470243052074394,-0.364522,0.0787264,-2.56352
1470243052128942,-0.364522,0.0787264,-2.56352
1470243052131444,-0.364522,0.0787264,-2.56352
1470243052136950,-0.364524,0.078749,-2.56343
1470243052166977,-0.364522,0.0787264,-2.56352
1470243052171482,-0.364522,0.0787264,-2.56352
1470243052195502,-0.364522,0.0787264,-2.56352
1470243052218523,-0.364522,0.0787264,-2.56352
1470243052247048,-0.364908,0.0787411,-2.56338
1470243052256557,-0.364908,0.0787411,-2.56338
1470243052276574,-0.365031,0.0787762,-2.56341
1470243052290587,-0.365031,0.0787762,-2.56341
1470243052313107,-0.365031,0.0787762,-2.56341
1470243052335628,-0.365031,0.0787762,-2.56341
1470243052350641,-0.365031,0.0787762,-2.56341
1470243052373163,-0.365031,0.0787762,-2.56341
1470243052395683,-0.365031,0.0787762,-2.56341
1470243052410696,-0.365031,0.0787762,-2.56341
1470243052433216,-0.365155,0.0788114,-2.56343
1470243052455736,-0.365155,0.0788114,-2.56343
1470243052470754,-0.365155,0.0788114,-2.56343
1470243052493270,-0.365031,0.0787762,-2.56341
1470243052515790,-0.365155,0.0788114,-2.56343
1470243052530804,-0.365155,0.0788114,-2.56343
1470243052553324,-0.365155,0.0788114,-2.56343
1470243052575843,-0.365155,0.0788114,-2.56343
1470243052590858,-0.365155,0.0788114,-2.56343
1470243052613378,-0.365155,0.0788114,-2.56343
1470243052635897,-0.365155,0.0788114,-2.56343
1470243052650910,-0.365155,0.0788114,-2.56343
1470243052683441,-0.365155,0.0788114,-2.56343
1470243052695952,-0.365155,0.0788114,-2.56343
1470243052713467,-0.365155,0.0788114,-2.56343
1470243052733485,-0.365155,0.0788114,-2.56343
1470243052756005,-0.365155,0.0788114,-2.56343
1470243052771019,-0.365155,0.0788114,-2.56343
1470243052793540,-0.365155,0.0788114,-2.56343
1470243052816059,-0.365155,0.0788114,-2.56343
1470243052831072,-0.365155,0.0788114,-2.56343
1470243052853092,-0.365155,0.0788114,-2.56343
1470243052878616,-0.365155,0.0788114,-2.56343
1470243052890626,-0.365155,0.0788114,-2.56343
1470243052913147,-0.365505,0.0789186,-2.5634
1470243052935666,-0.365505,0.0789186,-2.5634
1470243052959688,-0.365505,0.0789186,-2.5634
1470243052973201,-0.365629,0.0789537,-2.56343
1470243052996221,-0.365629,0.0789537,-2.56343
1470243053012736,-0.365629,0.0789537,-2.56343
1470243053033255,-0.365629,0.0789537,-2.56343
1470243053055775,-0.365629,0.0789537,-2.56343
1470243053073790,-0.365629,0.0789537,-2.56343
1470243053093308,-0.365629,0.0789537,-2.56343
1470243053115831,-0.365629,0.0789537,-2.56343
1470243053132343,-0.365629,0.0789537,-2.56343
1470243053156365,-0.365629,0.0789537,-2.56343
1470243053175883,-0.365629,0.0789537,-2.56343
1470243053192396,-0.365629,0.0789537,-2.56343
1470243053213417,-0.365629,0.0789537,-2.56343
1470243053236438,-0.365629,0.0789537,-2.56343
1470243053252952,-0.365505,0.0789186,-2.5634
1470243053275472,-0.365471,0.0790337,-2.56342
1470243053296491,-0.365471,0.0790337,-2.56342
1470243053313507,-0.365505,0.0789186,-2.5634
1470243053335525,-0.365471,0.0790337,-2.56342
1470243053356544,-0.365471,0.0790337,-2.56342
1470243053373059,-0.365471,0.0790337,-2.56342
1470243053395579,-0.365471,0.0790337,-2.56342
1470243053416599,-0.365471,0.0790337,-2.56342
1470243053433113,-0.365471,0.0790337,-2.56342
1470243053462640,-0.365471,0.0790337,-2.56342
1470243053476653,-0.365471,0.0790337,-2.56342
1470243053492668,-0.365471,0.0790337,-2.56342
1470243053515187,-0.365437,0.0791487,-2.56344
1470243053536206,-0.365437,0.0791487,-2.56344
1470243053552721,-0.365437,0.0791487,-2.56344
1470243053575241,-0.365437,0.0791487,-2.56344
1470243053596261,-0.365437,0.0791487,-2.56344
1470243053612775,-0.365471,0.0790337,-2.56342
1470243053635795,-0.365438,0.0791714,-2.56334
1470243053656343,-0.365315,0.0791363,-2.56332
1470243053672830,-0.365313,0.0791136,-2.56342
1470243053695349,-0.365347,0.0789985,-2.5634
1470243053716400,-0.365471,0.0790337,-2.56342
1470243053740397,-0.365471,0.0790337,-2.56342
1470243053755403,-0.365471,0.0790337,-2.56342
1470243053776421,-0.365471,0.0790337,-2.56342
1470243053792936,-0.365471,0.0790337,-2.56342
1470243053815457,-0.365471,0.0790337,-2.56342
1470243053836475,-0.365471,0.0790337,-2.56342
1470243053852990,-0.365471,0.0790337,-2.56342
1470243053875510,-0.365471,0.0790337,-2.56342
1470243053898030,-0.365471,0.0790337,-2.56342
1470243053913544,-0.365471,0.0790337,-2.56342
1470243053935564,-0.365471,0.0790337,-2.56342
1470243053958084,-0.365471,0.0790337,-2.56342
1470243053972598,-0.365471,0.0790337,-2.56342
1470243053995118,-0.365471,0.0790337,-2.56342
1470243054017638,-0.365471,0.0790337,-2.56342
1470243054032151,-0.365471,0.0790337,-2.56342
1470243054055172,-0.365471,0.0790337,-2.56342
1470243054077692,-0.365471,0.0790337,-2.56342
1470243054092207,-0.365471,0.0790337,-2.56342
1470243054115227,-0.365471,0.0790337,-2.56342
1470243054137746,-0.365471,0.0790337,-2.56342
1470243054152258,-0.365471,0.0790337,-2.56342
1470243054175280,-0.365471,0.0790337,-2.56342
1470243054197800,-0.365471,0.0790337,-2.56342
1470243054212313,-0.365471,0.0790337,-2.56342
1470243054235335,-0.365471,0.0790337,-2.56342
1470243054257858,-0.365471,0.0790337,-2.56342
1470243054272366,-0.365471,0.0790337,-2.56342
1470243054295391,-0.365471,0.0790337,-2.56342
1470243054317908,-0.365347,0.0789985,-2.5634
1470243054338926,-0.365471,0.0790337,-2.56342
1470243054355458,-0.365471,0.0790337,-2.56342
1470243054377961,-0.365471,0.0790337,-2.56342
1470243054399009,-0.365471,0.0790337,-2.56342
1470243054415497,-0.365471,0.0790337,-2.56342
1470243054438050,-0.365471,0.0790337,-2.56342
1470243054466555,-0.365471,0.0790337,-2.56342
1470243054475549,-0.365471,0.0790337,-2.56342
1470243054498071,-0.365471,0.0790337,-2.56342
1470243054519113,-0.365629,0.0789537,-2.56343
1470243054535106,-0.365629,0.0789537,-2.56343
1470243054557624,-0.365629,0.0789537,-2.56343
1470243054579142,-0.365629,0.0789537,-2.56343
1470243054595156,-0.365629,0.0789537,-2.56343
1470243054617683,-0.365629,0.0789537,-2.56343
1470243054639257,-0.365629,0.0789537,-2.56343
1470243054655243,-0.365629,0.0789537,-2.56343
1470243054677731,-0.365629,0.0789537,-2.56343
1470243054699254,-0.365629,0.0789537,-2.56343
1470243054715264,-0.365663,0.0788387,-2.56341
1470243054745291,-0.365663,0.0788387,-2.56341
1470243054758803,-0.365663,0.0788387,-2.56341
1470243054775318,-0.365663,0.0788387,-2.56341
1470243054798338,-0.365663,0.0788387,-2.56341
1470243054820383,-0.365663,0.0788387,-2.56341
1470243054835372,-0.365663,0.0788387,-2.56341
1470243054857892,-0.365663,0.0788387,-2.56341
1470243054880413,-0.365663,0.0788387,-2.56341
1470243054902933,-0.365663,0.0788387,-2.56341
1470243054917946,-0.365663,0.0788387,-2.56341
1470243054940493,-0.365663,0.0788387,-2.56341
1470243054954979,-0.365663,0.0788387,-2.56341
1470243054978000,-0.365663,0.0788387,-2.56341
1470243055000519,-0.365663,0.0788387,-2.56341
1470243055015033,-0.365539,0.0788035,-2.56338
1470243055038054,-0.365821,0.0787587,-2.56341
1470243055060574,-0.365978,0.0786788,-2.56341
1470243055074589,-0.365978,0.0786788,-2.56341
1470243055098108,-0.365944,0.0787939,-2.56343
1470243055120132,-0.365944,0.0787939,-2.56343
1470243055134642,-0.365978,0.0786788,-2.56341
1470243055157703,-0.365978,0.0786788,-2.56341
1470243055180182,-0.365978,0.0786788,-2.56341
1470243055194694,-0.365978,0.0786788,-2.56341
1470243055217717,-0.365978,0.0786788,-2.56341
1470243055240298,-0.365978,0.0786788,-2.56341
1470243055254749,-0.365978,0.0786788,-2.56341
1470243055277770,-0.366102,0.0787139,-2.56344
1470243055300290,-0.366102,0.0787139,-2.56344
1470243055321814,-0.366102,0.0787139,-2.56344
1470243055337826,-0.366102,0.0787139,-2.56344
1470243055360352,-0.366102,0.0787139,-2.56344
1470243055381453,-0.366102,0.0787139,-2.56344
1470243055397377,-0.366102,0.0787139,-2.56344
1470243055420397,-0.366102,0.0787139,-2.56344
1470243055441466,-0.366102,0.0787139,-2.56344
1470243055457933,-0.366102,0.0787139,-2.56344
1470243055487958,-0.366136,0.0785989,-2.56342
1470243055501994,-0.366136,0.0785989,-2.56342
1470243055517985,-0.366136,0.0785989,-2.56342
1470243055540533,-0.366136,0.0785989,-2.56342
1470243055561567,-0.366136,0.0785989,-2.56342
1470243055578038,-0.366136,0.0785989,-2.56342
1470243055600559,-0.366136,0.0785989,-2.56342
1470243055621580,-0.366136,0.0785989,-2.56342
1470243055638092,-0.366136,0.0785989,-2.56342
1470243055660113,-0.36617,0.0784838,-2.5634
1470243055681632,-0.36617,0.0784838,-2.5634
1470243055697647,-0.36617,0.0784838,-2.5634
1470243055720166,-0.36617,0.0784838,-2.5634
1470243055742687,-0.366136,0.0785989,-2.56342
1470243055758200,-0.366136,0.0785989,-2.56342
1470243055780221,-0.36617,0.0784838,-2.5634
1470243055803241,-0.36617,0.0784838,-2.5634
1470243055817762,-0.36617,0.0784838,-2.5634
1470243055840280,-0.36617,0.0784838,-2.5634
1470243055862797,-0.36617,0.0784838,-2.5634
1470243055877858,-0.36617,0.0784838,-2.5634
1470243055900330,-0.36617,0.0784838,-2.5634
1470243055922848,-0.36617,0.0784838,-2.5634
1470243055937363,-0.36617,0.0784838,-2.5634
1470243055960382,-0.36617,0.0784838,-2.5634
1470243055982915,-0.366204,0.0783687,-2.56338
1470243055997421,-0.366204,0.0783687,-2.56338
1470243056020436,-0.366307,0.0784057,-2.56331
1470243056042956,-0.366307,0.0784057,-2.56331
1470243056056975,-0.366305,0.078383,-2.5634
1470243056080490,-0.366305,0.078383,-2.5634
1470243056103010,-0.366305,0.078383,-2.5634
1470243056133037,-0.366305,0.078383,-2.5634
1470243056140546,-0.366307,0.0784057,-2.56331
1470243056163064,-0.366326,0.0783812,-2.5635
1470243056177076,-0.366326,0.0783812,-2.5635
1470243056208105,-0.366326,0.0783812,-2.5635
1470243056222635,-0.366326,0.0783812,-2.5635
1470243056244137,-0.366326,0.0783812,-2.5635
1470243056260653,-0.366326,0.0783812,-2.5635
1470243056282672,-0.366326,0.0783812,-2.5635
1470243056304190,-0.366203,0.078346,-2.56348
1470243056320206,-0.366203,0.078346,-2.56348
1470243056342731,-0.366203,0.078346,-2.56348
1470243056364245,-0.366237,0.078231,-2.56346
1470243056380296,-0.366203,0.078346,-2.56348
1470243056402791,-0.366203,0.078346,-2.56348
1470243056424414,-0.366657,0.0781308,-2.5633
1470243056440346,-0.366622,0.0782459,-2.56332
1470243056462834,-0.366657,0.0781308,-2.5633
1470243056483865,-0.366657,0.0781308,-2.5633
1470243056500367,-0.366622,0.0782459,-2.56332
1470243056522888,-0.366622,0.0782459,-2.56332
1470243056544422,-0.366657,0.0781308,-2.5633
1470243056560421,-0.366657,0.0781308,-2.5633
1470243056582960,-0.366657,0.0781308,-2.5633
1470243056604016,-0.366657,0.0781308,-2.5633
1470243056620485,-0.366657,0.0781308,-2.5633
1470243056642998,-0.366657,0.0781308,-2.5633
1470243056664029,-0.366657,0.0781308,-2.5633
1470243056680529,-0.366657,0.0781308,-2.5633
1470243056703116,-0.366657,0.0781308,-2.5633
1470243056725636,-0.366655,0.0781081,-2.56339
1470243056740149,-0.366655,0.0781081,-2.56339
1470243056763171,-0.366657,0.0781308,-2.5633
1470243056785189,-0.366533,0.0780957,-2.56327
1470243056800202,-0.366657,0.0781308,-2.5633
1470243056822723,-0.366533,0.0780957,-2.56327
1470243056845244,-0.366533,0.0780957,-2.56327
1470243056859758,-0.366533,0.0780957,-2.56327
1470243056882777,-0.366533,0.0780957,-2.56327
1470243056905297,-0.366533,0.0780957,-2.56327
1470243056919817,-0.366533,0.0780957,-2.56327
1470243056942831,-0.366565,0.0779579,-2.56335
1470243056965852,-0.366567,0.0779806,-2.56326
1470243056979865,-0.366443,0.0779455,-2.56323
1470243057002885,-0.366443,0.0779455,-2.56323
1470243057025407,-0.366443,0.0779455,-2.56323
1470243057039918,-0.366442,0.0779228,-2.56333
1470243057062940,-0.366443,0.0779455,-2.56323
1470243057085459,-0.366443,0.0779455,-2.56323
1470243057106568,-0.366442,0.0779228,-2.56333
1470243057122994,-0.366442,0.0779228,-2.56333
1470243057145534,-0.36632,0.0779103,-2.56321
1470243057159527,-0.366341,0.0779085,-2.5633
1470243057183046,-0.366341,0.0779085,-2.5633
1470243057205569,-0.366339,0.0778858,-2.5634
1470243057226611,-0.366339,0.0778858,-2.5634
1470243057242628,-0.366341,0.0779085,-2.5633
1470243057265665,-0.366339,0.0778858,-2.5634
1470243057286691,-0.366339,0.0778858,-2.5634
1470243057303156,-0.366339,0.0778858,-2.5634
1470243057325180,-0.366339,0.0778858,-2.5634
1470243057346694,-0.366318,0.0778876,-2.5633
1470243057363208,-0.366339,0.0778858,-2.5634
1470243057385246,-0.366339,0.0778858,-2.5634
1470243057406747,-0.366339,0.0778858,-2.5634
1470243057422808,-0.366339,0.0778858,-2.5634
1470243057445783,-0.366339,0.0778858,-2.5634
1470243057466881,-0.366339,0.0778858,-2.5634
1470243057482816,-0.366339,0.0778858,-2.5634
1470243057505336,-0.366339,0.0778858,-2.5634
1470243057526408,-0.366339,0.0778858,-2.5634
1470243057542904,-0.366373,0.0777707,-2.56338
1470243057565390,-0.366339,0.0778858,-2.5634
1470243057586452,-0.366373,0.0777707,-2.56338
1470243057602924,-0.366373,0.0777707,-2.56338
1470243057625444,-0.366373,0.0777707,-2.56338
1470243057647997,-0.366373,0.0777707,-2.56338
1470243057662984,-0.366373,0.0777707,-2.56338
1470243057685502,-0.366373,0.0777707,-2.56338
1470243057708018,-0.366373,0.0777707,-2.56338
1470243057729038,-0.366373,0.0777707,-2.56338
1470243057745552,-0.366373,0.0777707,-2.56338
1470243057768106,-0.366373,0.0777707,-2.56338
1470243057783085,-0.366373,0.0777707,-2.56338
1470243057805105,-0.366373,0.0777707,-2.56338
1470243057828125,-0.36625,0.0777356,-2.56336
1470243057842140,-0.36625,0.0777356,-2.56336
1470243057865659,-0.36625,0.0777356,-2.56336
1470243057888180,-0.36625,0.0777356,-2.56336
1470243057902212,-0.36625,0.0777356,-2.56336
1470243057925713,-0.36625,0.0777356,-2.56336
1470243057947755,-0.36625,0.0777356,-2.56336
1470243057962271,-0.36625,0.0777356,-2.56336
1470243057985309,-0.36625,0.0777356,-2.56336
1470243058008288,-0.36625,0.0777356,-2.56336
1470243058022300,-0.36625,0.0777356,-2.56336
1470243058045822,-0.36625,0.0777356,-2.56336
1470243058075348,-0.366002,0.0776653,-2.56331
1470243058082370,-0.366002,0.0776653,-2.56331
1470243058105375,-0.366126,0.0777004,-2.56334
1470243058127898,-0.366126,0.0777004,-2.56334
1470243058148988,-0.366126,0.0777004,-2.56334
1470243058165455,-0.366126,0.0777004,-2.56334
1470243058187949,-0.366092,0.0778155,-2.56335
1470243058208984,-0.366092,0.0778155,-2.56335
1470243058225484,-0.366126,0.0777004,-2.56334
1470243058248003,-0.365742,0.0777082,-2.56338
1470243058269022,-0.365303,0.077833,-2.56335
1470243058285536,-0.365303,0.077833,-2.56335
1470243058308101,-0.365303,0.077833,-2.56335
1470243058329076,-0.365303,0.077833,-2.56335
1470243058353100,-0.365042,0.077876,-2.56342
1470243058368112,-0.364919,0.0778408,-2.5634
1470243058373616,-0.364919,0.0778408,-2.5634
1470243058399157,-0.364919,0.0778408,-2.5634
1470243058411243,-0.364919,0.0778408,-2.5634
1470243058433169,-0.364919,0.0778408,-2.5634
1470243058455740,-0.364919,0.0778408,-2.5634
1470243058470720,-0.364919,0.0778408,-2.5634
1470243058493252,-0.364919,0.0778408,-2.5634
1470243058516289,-0.364919,0.0778408,-2.5634
1470243058531276,-0.364919,0.0778408,-2.5634
1470243058553277,-0.364919,0.0778408,-2.5634
1470243058576297,-0.364919,0.0778408,-2.5634
1470243058590846,-0.364919,0.0778408,-2.5634
1470243058629845,-0.364919,0.0778408,-2.5634
1470243058635852,-0.364919,0.0778408,-2.5634
1470243058650866,-0.364919,0.0778408,-2.5634
1470243058673403,-0.364919,0.0778408,-2.5634
1470243058695905,-0.364919,0.0778408,-2.5634
1470243058710962,-0.364919,0.0778408,-2.5634
1470243058733465,-0.364919,0.0778408,-2.5634
1470243058755960,-0.364919,0.0778408,-2.5634
1470243058770973,-0.364919,0.0778408,-2.5634
1470243058793547,-0.364499,0.0779412,-2.56356
1470243058819131,-0.364499,0.0779412,-2.56356
1470243058831087,-0.364499,0.0779412,-2.56356
1470243058853562,-0.364499,0.0779412,-2.56356
1470243058876066,-0.364499,0.0779412,-2.56356
1470243058891080,-0.364499,0.0779412,-2.56356
1470243058913601,-0.364499,0.0779412,-2.56356
1470243058936121,-0.364499,0.0779412,-2.56356
1470243058951135,-0.364499,0.0779412,-2.56356
1470243058981161,-0.364499,0.0779412,-2.56356
1470243058995691,-0.364499,0.0779412,-2.56356
1470243059012190,-0.364375,0.0779061,-2.56353
1470243059033787,-0.364375,0.0779061,-2.56353
1470243059056282,-0.364375,0.0779061,-2.56353
1470243059071288,-0.364375,0.0779061,-2.56353
1470243059096265,-0.364341,0.0780211,-2.56355
1470243059115784,-0.364761,0.0779208,-2.56339
1470243059130795,-0.364761,0.0779208,-2.56339
1470243059153373,-0.364761,0.0779208,-2.56339
1470243059175837,-0.364761,0.0779208,-2.56339
1470243059192351,-0.364761,0.0779208,-2.56339
1470243059213372,-0.364761,0.0779208,-2.56339
1470243059235956,-0.364637,0.0778857,-2.56337
1470243059259911,-0.364637,0.0778857,-2.56337
1470243059273423,-0.364637,0.0778857,-2.56337
1470243059295945,-0.364761,0.0779208,-2.56339
1470243059312459,-0.364761,0.0779208,-2.56339
1470243059333479,-0.364761,0.0779208,-2.56339
1470243059356003,-0.364637,0.0778857,-2.56337
1470243059372016,-0.364637,0.0778857,-2.56337
1470243059393532,-0.365234,0.0776809,-2.5634
1470243059416079,-0.365234,0.0776809,-2.5634
1470243059432566,-0.364885,0.0779559,-2.56341
1470243059453585,-0.364761,0.0779208,-2.56339
1470243059476106,-0.364761,0.0779208,-2.56339
1470243059492119,-0.364761,0.0779208,-2.56339
1470243059513639,-0.364761,0.0779208,-2.56339
1470243059536159,-0.364761,0.0779208,-2.56339
1470243059553675,-0.364761,0.0779208,-2.56339
1470243059573787,-0.364727,0.0780359,-2.56341
1470243059595715,-0.364727,0.0780359,-2.56341
1470243059613730,-0.364761,0.0779208,-2.56339
1470243059633783,-0.364219,0.0780086,-2.56343
1470243059656268,-0.364219,0.0780086,-2.56343
1470243059673843,-0.364219,0.0780086,-2.56343
1470243059693803,-0.364219,0.0780086,-2.56343
1470243059715876,-0.364219,0.0780086,-2.56343
1470243059741354,-0.364219,0.0780086,-2.56343
1470243059753380,-0.364219,0.0780086,-2.56343
1470243059783381,-0.364219,0.0780086,-2.56343
1470243059793891,-0.364219,0.0780086,-2.56343
1470243059813409,-0.364219,0.0780086,-2.56343
1470243059835929,-0.364219,0.0780086,-2.56343
1470243059853945,-0.364219,0.0780086,-2.56343
1470243059873461,-0.364219,0.0780086,-2.56343
1470243059895983,-0.364219,0.0780086,-2.56343
1470243059913998,-0.364219,0.0780086,-2.56343
1470243059933570,-0.364219,0.0780086,-2.56343
1470243059956036,-0.364219,0.0780086,-2.56343
1470243059973586,-0.364096,0.0779735,-2.56341
1470243059993571,-0.364096,0.0779735,-2.56341
1470243060016090,-0.364096,0.0779735,-2.56341
1470243060033606,-0.364096,0.0779735,-2.56341
1470243060053142,-0.364096,0.0779735,-2.56341
1470243060075660,-0.364096,0.0779735,-2.56341
1470243060093662,-0.364096,0.0779735,-2.56341
1470243060113178,-0.364096,0.0779735,-2.56341
1470243060135698,-0.364096,0.0779735,-2.56341
1470243060153714,-0.364096,0.0779735,-2.56341
1470243060176239,-0.364096,0.0779735,-2.56341
1470243060196253,-0.363765,0.0782241,-2.56361
1470243060213769,-0.363192,0.0788319,-2.56356
1470243060234788,-0.363091,0.0791997,-2.56352
1470243060255806,-0.363061,0.0797421,-2.56333
1470243060273826,-0.363061,0.0797421,-2.56333
1470243060296844,-0.363471,0.0801824,-2.56308
1470243060315863,-0.363471,0.0801824,-2.56308
1470243060333879,-0.363594,0.0802175,-2.5631
1470243060354896,-0.363368,0.0805277,-2.56313
1470243060375930,-0.363368,0.0805277,-2.56313
1470243060393930,-0.363774,0.0809003,-2.56317
1470243060414949,-0.363483,0.0818442,-2.56382
1470243060435968,-0.363087,0.08273,-2.56395
1470243060454055,-0.361604,0.0829835,-2.56369
1470243060475019,-0.358716,0.0831006,-2.56321
1470243060496021,-0.355728,0.0835844,-2.56269
1470243060513537,-0.354349,0.0838729,-2.56236
1470243060536580,-0.35433,0.0839184,-2.56207
1470243060556101,-0.354718,0.0839769,-2.56174
1470243060574096,-0.354594,0.0839415,-2.56171
1470243060596112,-0.354594,0.0839415,-2.56171
1470243060616130,-0.354944,0.0840488,-2.56169
1470243060633645,-0.355697,0.0841468,-2.56171
1470243060656165,-0.356485,0.0841297,-2.56172
1470243060676222,-0.357148,0.084055,-2.5618
1470243060693703,-0.357025,0.0840197,-2.56177
1470243060716220,-0.357148,0.084055,-2.5618
1470243060736237,-0.357025,0.0840197,-2.56177
1470243060753783,-0.357395,0.0841256,-2.56184
1470243060776274,-0.357395,0.0841256,-2.56184
1470243060795819,-0.357519,0.084161,-2.56187
1470243060813807,-0.357519,0.084161,-2.56187
1470243060836326,-0.357519,0.084161,-2.56187
1470243060855846,-0.357519,0.084161,-2.56187
1470243060873861,-0.356486,0.084152,-2.56162
1470243060895380,-0.356887,0.0840971,-2.56117
1470243060916900,-0.356925,0.0844309,-2.56085
1470243060932916,-0.355638,0.0853384,-2.55946
1470243060955434,-0.355729,0.0859364,-2.5585
1470243060976484,-0.356346,0.086135,-2.55783
1470243060992967,-0.356711,0.0857916,-2.55751
1470243061015488,-0.356812,0.0854017,-2.55765
1470243061036533,-0.356812,0.0854017,-2.55765
1470243061053021,-0.357023,0.0855656,-2.55781
1470243061075544,-0.358334,0.0854878,-2.55828
1470243061096570,-0.359525,0.0854187,-2.55853
1470243061113076,-0.360243,0.0852061,-2.55878
1470243061135595,-0.360345,0.0852429,-2.55871
1470243061156631,-0.360243,0.0852061,-2.55878
1470243061173129,-0.360243,0.0852061,-2.55878
1470243061195649,-0.360734,0.085303,-2.55907
1470243061216675,-0.36143,0.085069,-2.55932
1470243061232683,-0.362111,0.0849258,-2.55979
1470243061255203,-0.362376,0.08495,-2.56012
1470243061284231,-0.362376,0.08495,-2.56012
1470243061292749,-0.362376,0.08495,-2.56012
1470243061315257,-0.362376,0.08495,-2.56012
1470243061336276,-0.362376,0.08495,-2.56012
1470243061352790,-0.362376,0.08495,-2.56012
1470243061375311,-0.362376,0.08495,-2.56012
1470243061396331,-0.362253,0.0849146,-2.5601
1470243061412844,-0.362691,0.0847681,-2.56023
1470243061435366,-0.362691,0.0847681,-2.56023
1470243061457887,-0.362691,0.0847681,-2.56023
1470243061472898,-0.362725,0.084653,-2.56021
1470243061495419,-0.362725,0.084653,-2.56021
1470243061517955,-0.362725,0.084653,-2.56021
1470243061532953,-0.363164,0.0849112,-2.56023
1470243061555473,-0.363164,0.0849112,-2.56023
1470243061577994,-0.363288,0.0849466,-2.56025
1470243061592506,-0.363288,0.0849466,-2.56025
1470243061615527,-0.362868,0.0850464,-2.56041
1470243061638047,-0.362745,0.085011,-2.56039
1470243061652562,-0.362868,0.0850464,-2.56041
1470243061683087,-0.362745,0.085011,-2.56039
1470243061698103,-0.363218,0.0851541,-2.56038
1470243061712113,-0.363218,0.0851541,-2.56038
1470243061735634,-0.363218,0.0851541,-2.56038
1470243061758155,-0.363218,0.0851541,-2.56038
1470243061772169,-0.363342,0.0851895,-2.56041
1470243061795689,-0.363218,0.0851541,-2.56038
1470243061817708,-0.363342,0.0851895,-2.56041
1470243061839228,-0.363342,0.0851895,-2.56041
1470243061855242,-0.363342,0.0851895,-2.56041
1470243061877762,-0.363342,0.0851895,-2.56041
1470243061892275,-0.363342,0.0851895,-2.56041
1470243061915297,-0.363342,0.0851895,-2.56041
1470243061937817,-0.363342,0.0851895,-2.56041
1470243061959335,-0.363308,0.0853045,-2.56043
1470243061975349,-0.363431,0.0853399,-2.56045
1470243061997871,-0.363431,0.0853399,-2.56045
1470243062018889,-0.363431,0.0853399,-2.56045
1470243062035403,-0.363431,0.0853399,-2.56045
1470243062057924,-0.363555,0.0853753,-2.56047
1470243062078942,-0.363555,0.0853753,-2.56047
1470243062095458,-0.363555,0.0853753,-2.56047
1470243062117978,-0.363555,0.0853753,-2.56047
1470243062139025,-0.363534,0.0853767,-2.56038
1470243062155511,-0.363534,0.0853767,-2.56038
1470243062178032,-0.363534,0.0853767,-2.56038
1470243062199067,-0.363534,0.0853767,-2.56038
1470243062215565,-0.363534,0.0853767,-2.56038
1470243062238103,-0.363555,0.0853753,-2.56047
1470243062259130,-0.363555,0.0853753,-2.56047
1470243062275619,-0.363555,0.0853753,-2.56047
1470243062298140,-0.364061,0.0853806,-2.56055
1470243062319171,-0.364061,0.0853806,-2.56055
1470243062334672,-0.364063,0.0854033,-2.56045
1470243062358195,-0.364186,0.0854387,-2.56048
1470243062379213,-0.363815,0.0853325,-2.56041
1470243062395260,-0.363815,0.0853325,-2.56041
1470243062417747,-0.363781,0.0854475,-2.56042
1470243062440267,-0.363781,0.0854475,-2.56042
1470243062455280,-0.364007,0.0851377,-2.56039
1470243062477801,-0.364705,0.0849483,-2.56045
1470243062500321,-0.364705,0.0849483,-2.56045
1470243062515334,-0.364705,0.0849483,-2.56045
1470243062537856,-0.364705,0.0849483,-2.56045
1470243062560379,-0.364705,0.0849483,-2.56045
1470243062574893,-0.364705,0.0849483,-2.56045
1470243062597909,-0.364705,0.0849483,-2.56045
1470243062620429,-0.364705,0.0849483,-2.56045
1470243062634942,-0.364705,0.0849483,-2.56045
1470243062657963,-0.364705,0.0849483,-2.56045
1470243062680483,-0.364705,0.0849483,-2.56045
1470243062694996,-0.364705,0.0849483,-2.56045
1470243062718016,-0.364829,0.0849837,-2.56048
1470243062740536,-0.364705,0.0849483,-2.56045
1470243062755052,-0.364863,0.0848686,-2.56046
1470243062778071,-0.364863,0.0848686,-2.56046
1470243062800590,-0.364863,0.0848686,-2.56046
1470243062815104,-0.364863,0.0848686,-2.56046
1470243062838127,-0.364863,0.0848686,-2.56046
1470243062860644,-0.364863,0.0848686,-2.56046
1470243062874658,-0.364829,0.0849837,-2.56048
1470243062898680,-0.364829,0.0849837,-2.56048
1470243062920700,-0.364321,0.0849557,-2.5605
1470243062941771,-0.364321,0.0849557,-2.5605
1470243062957733,-0.364321,0.0849557,-2.5605
1470243062980252,-0.364321,0.0849557,-2.5605
1470243063001874,-0.364321,0.0849557,-2.5605
1470243063018285,-0.364321,0.0849557,-2.5605
1470243063040305,-0.364445,0.0849911,-2.56052
1470243063069331,-0.364445,0.0849911,-2.56052
1470243063077841,-0.364321,0.0849557,-2.5605
1470243063100362,-0.364321,0.0849557,-2.5605
1470243063121380,-0.364321,0.0849557,-2.5605
1470243063137894,-0.364445,0.0849911,-2.56052
1470243063160414,-0.364445,0.0849911,-2.56052
1470243063181932,-0.364445,0.0849911,-2.56052
1470243063197948,-0.364445,0.0849911,-2.56052
1470243063220467,-0.364038,0.0849773,-2.56056
1470243063241502,-0.364038,0.0849773,-2.56056
1470243063258002,-0.3646,0.084866,-2.56072
1470243063280522,-0.3646,0.084866,-2.56072
1470243063301568,-0.3646,0.084866,-2.56072
1470243063318055,-0.364724,0.0849013,-2.56074
1470243063340577,-0.364724,0.0849013,-2.56074
1470243063363096,-0.364724,0.0849013,-2.56074
1470243063378109,-0.3646,0.084866,-2.56072
1470243063400630,-0.364181,0.0849658,-2.56088
1470243063423149,-0.364688,0.0849937,-2.56086
1470243063438162,-0.365264,0.0847914,-2.5608
1470243063460683,-0.365264,0.0847914,-2.5608
1470243063482703,-0.364846,0.084914,-2.56086
1470243063497217,-0.364846,0.084914,-2.56086
1470243063520740,-0.364309,0.0854514,-2.5606
1470243063542757,-0.364031,0.0859458,-2.56026
1470243063557270,-0.363721,0.0865779,-2.55985
1470243063580291,-0.36369,0.0871203,-2.55966
1470243063602811,-0.36369,0.0871203,-2.55966
1470243063625831,-0.363813,0.0871558,-2.55969
1470243063640350,-0.363848,0.0870408,-2.55967
1470243063663866,-0.363848,0.0870408,-2.55967
1470243063677412,-0.363552,0.0871759,-2.55985
1470243063700398,-0.36329,0.0871961,-2.56002
1470243063722919,-0.363167,0.0871606,-2.55999
1470243063737433,-0.363167,0.0871606,-2.55999
1470243063760474,-0.363167,0.0871606,-2.55999
1470243063782975,-0.363167,0.0871606,-2.55999
1470243063797486,-0.363167,0.0871606,-2.55999
1470243063820507,-0.363167,0.0871606,-2.55999
1470243063843026,-0.363167,0.0871606,-2.55999
1470243063865547,-0.363167,0.0871606,-2.55999
1470243063880560,-0.363133,0.0872757,-2.56001
1470243063903080,-0.363133,0.0872757,-2.56001
1470243063924099,-0.363549,0.0871305,-2.56004
1470243063940614,-0.363549,0.0871305,-2.56004
1470243063963136,-0.363549,0.0871305,-2.56004
1470243063984154,-0.363426,0.0870951,-2.56002
1470243064006674,-0.363707,0.0870509,-2.56005
1470243064023189,-0.363707,0.0870509,-2.56005
1470243064044208,-0.363831,0.0870863,-2.56007
1470243064060221,-0.363831,0.0870863,-2.56007
1470243064090749,-0.363707,0.0870509,-2.56005
1470243064104269,-0.363707,0.0870509,-2.56005
1470243064120775,-0.363707,0.0870509,-2.56005
1470243064143296,-0.363707,0.0870509,-2.56005
1470243064181331,-0.363673,0.087166,-2.56007
1470243064183332,-0.364091,0.0870435,-2.56
1470243064202849,-0.364215,0.0870789,-2.56003
1470243064223870,-0.364249,0.0869639,-2.56001
1470243064240383,-0.364215,0.0870789,-2.56003
1470243064262904,-0.364215,0.0870789,-2.56003
1470243064285424,-0.364654,0.0869551,-2.56006
1470243064300439,-0.364654,0.0869551,-2.56006
1470243064322957,-0.364654,0.0869551,-2.56006
1470243064345478,-0.364654,0.0869551,-2.56006
1470243064360491,-0.364654,0.0869551,-2.56006
1470243064383012,-0.364654,0.0869551,-2.56006
1470243064405531,-0.364654,0.0869551,-2.56006
1470243064420545,-0.364654,0.0869551,-2.56006
1470243064443065,-0.364778,0.0869906,-2.56009
1470243064465585,-0.364654,0.0869551,-2.56006
1470243064479599,-0.364778,0.0869906,-2.56009
1470243064503119,-0.364778,0.0869906,-2.56009
1470243064525639,-0.364393,0.0869752,-2.56023
1470243064539654,-0.364393,0.0869752,-2.56023
1470243064563176,-0.364269,0.0869398,-2.5602
1470243064585694,-0.364303,0.0868247,-2.56018
1470243064599707,-0.364405,0.0868615,-2.56011
1470243064623227,-0.364371,0.0869765,-2.56013
1470243064645264,-0.364405,0.0868615,-2.56011
1470243064659785,-0.364405,0.0868615,-2.56011
1470243064683280,-0.364405,0.0868615,-2.56011
1470243064705801,-0.364405,0.0868615,-2.56011
1470243064727841,-0.364529,0.0868969,-2.56013
1470243064742848,-0.364529,0.0868969,-2.56013
1470243064765355,-0.364405,0.0868615,-2.56011
1470243064780368,-0.364529,0.0868969,-2.56013
1470243064802889,-0.364405,0.0868615,-2.56011
1470243064825442,-0.364529,0.0868969,-2.56013
1470243064846428,-0.364528,0.0868742,-2.56023
1470243064862943,-0.364528,0.0868742,-2.56023
1470243064885462,-0.364529,0.0868969,-2.56013
1470243064907005,-0.364438,0.0867237,-2.56019
1470243064922996,-0.364562,0.0867591,-2.56021
1470243064945516,-0.364438,0.0867237,-2.56019
1470243064966566,-0.364438,0.0867237,-2.56019
1470243064983052,-0.364438,0.0867237,-2.56019
1470243065013079,-0.364438,0.0867237,-2.56019
1470243065026589,-0.364562,0.0867591,-2.56021
1470243065043104,-0.364562,0.0867591,-2.56021
1470243065065628,-0.364562,0.0867591,-2.56021
1470243065086674,-0.364528,0.0868742,-2.56023
1470243065103158,-0.364933,0.0868654,-2.56028
1470243065125680,-0.364933,0.0868654,-2.56028
1470243065146698,-0.365057,0.0869008,-2.56031
1470243065163214,-0.365057,0.0869008,-2.56031
1470243065185759,-0.365057,0.0869008,-2.56031
1470243065206751,-0.365057,0.0869008,-2.56031
1470243065223266,-0.365091,0.0867857,-2.56029
1470243065245785,-0.365091,0.0867857,-2.56029
1470243065268306,-0.365057,0.0869008,-2.56031
1470243065282819,-0.365057,0.0869008,-2.56031
1470243065305341,-0.365057,0.0869008,-2.56031
1470243065327859,-0.365215,0.0868212,-2.56031
1470243065342875,-0.365181,0.0869362,-2.56033
1470243065365424,-0.365181,0.0869362,-2.56033
1470243065387913,-0.365181,0.0869362,-2.56033
1470243065402428,-0.365181,0.0869362,-2.56033
1470243065425447,-0.365215,0.0868212,-2.56031
1470243065447969,-0.365181,0.0869362,-2.56033
1470243065462481,-0.365181,0.0869362,-2.56033
1470243065485501,-0.365181,0.0869362,-2.56033
1470243065508021,-0.365317,0.086858,-2.56024
1470243065522534,-0.365283,0.086973,-2.56026
1470243065545555,-0.365283,0.086973,-2.56026
1470243065568088,-0.365283,0.086973,-2.56026
1470243065582590,-0.365282,0.0869502,-2.56035
1470243065613116,-0.365316,0.0868352,-2.56034
1470243065628129,-0.365316,0.0868352,-2.56034
1470243065642642,-0.365283,0.086973,-2.56026
1470243065665664,-0.365406,0.0869856,-2.56038
1470243065688185,-0.36544,0.0868706,-2.56036
1470243065702697,-0.365406,0.0869856,-2.56038
1470243065725717,-0.365406,0.0869856,-2.56038
1470243065748251,-0.365406,0.0869856,-2.56038
1470243065769255,-0.365564,0.086906,-2.56038
1470243065785771,-0.365564,0.086906,-2.56038
1470243065808292,-0.365564,0.086906,-2.56038
1470243065846325,-0.365529,0.0870211,-2.5604
1470243065848326,-0.365529,0.0870211,-2.5604
1470243065867847,-0.365529,0.0870211,-2.5604
1470243065889364,-0.365564,0.086906,-2.56038
1470243065905381,-0.365283,0.086973,-2.56026
1470243065927898,-0.364638,0.0870005,-2.56047
1470243065948917,-0.364638,0.0870005,-2.56047
1470243065965432,-0.365215,0.0868212,-2.56031
1470243065987953,-0.365215,0.0868212,-2.56031
1470243066009472,-0.365215,0.0868212,-2.56031
1470243066025486,-0.365215,0.0868212,-2.56031
1470243066048028,-0.365194,0.0868225,-2.56021
1470243066069025,-0.365845,0.0868618,-2.56041
1470243066076032,-0.365879,0.0867467,-2.56039
1470243066091047,-0.365879,0.0867467,-2.56039
1470243066113565,-0.366003,0.0867821,-2.56042
1470243066136086,-0.366003,0.0867821,-2.56042
1470243066151100,-0.365982,0.0867835,-2.56032
1470243066173619,-0.365982,0.0867835,-2.56032
1470243066196140,-0.365982,0.0867835,-2.56032
1470243066211153,-0.365982,0.0867835,-2.56032
1470243066233672,-0.365982,0.0867835,-2.56032
1470243066255693,-0.365982,0.0867835,-2.56032
1470243066271207,-0.365982,0.0867835,-2.56032
1470243066293246,-0.36544,0.0868706,-2.56036
1470243066316247,-0.36544,0.0868706,-2.56036
1470243066330760,-0.365564,0.086906,-2.56038
1470243066353283,-0.36544,0.0868706,-2.56036
1470243066375831,-0.36544,0.0868706,-2.56036
1470243066398828,-0.36544,0.0868706,-2.56036
1470243066413835,-0.36544,0.0868706,-2.56036
1470243066435902,-0.36544,0.0868706,-2.56036
1470243066451383,-0.36544,0.0868706,-2.56036
1470243066473419,-0.36544,0.0868706,-2.56036
1470243066495954,-0.36544,0.0868706,-2.56036
1470243066510938,-0.36544,0.0868706,-2.56036
1470243066533498,-0.36544,0.0868706,-2.56036
1470243066555993,-0.36544,0.0868706,-2.56036
1470243066570977,-0.36544,0.0868706,-2.56036
1470243066593498,-0.365564,0.086906,-2.56038
1470243066616033,-0.365564,0.086906,-2.56038
1470243066631031,-0.365059,0.0873056,-2.5602
1470243066653567,-0.363911,0.08816,-2.56001
1470243066676161,-0.362939,0.0892937,-2.55931
1470243066691174,-0.362595,0.0904452,-2.5588
1470243066713603,-0.360987,0.0910415,-2.5585
1470243066736124,-0.359789,0.0925285,-2.55764
1470243066751143,-0.361036,0.0914668,-2.55512
1470243066773660,-0.366804,0.0853864,-2.54972
1470243066796192,-0.376873,0.077979,-2.54096
1470243066812238,-0.381931,0.0718641,-2.53226
1470243066833799,-0.374689,0.0665308,-2.52258
1470243066856232,-0.357177,0.0636891,-2.51241
1470243066872246,-0.345298,0.0615059,-2.49371
1470243066893879,-0.348217,0.0666585,-2.47283
1470243066916356,-0.352774,0.077824,-2.44823
1470243066932304,-0.35015,0.0884398,-2.42494
1470243066953374,-0.339983,0.100031,-2.40255
1470243066975846,-0.328887,0.110097,-2.38337
1470243066992354,-0.322777,0.119178,-2.36696
1470243067013873,-0.323613,0.126315,-2.34997
1470243067035895,-0.325376,0.13044,-2.333
1470243067052408,-0.324093,0.133937,-2.31951
1470243067073450,-0.317973,0.13654,-2.30842
1470243067095967,-0.311212,0.137047,-2.29939
1470243067113964,-0.305707,0.132288,-2.2918
1470243067133498,-0.302128,0.123545,-2.28533
1470243067156014,-0.298487,0.115013,-2.2827
1470243067174034,-0.289377,0.109503,-2.28224
1470243067193553,-0.280549,0.105855,-2.28204
1470243067216055,-0.277956,0.101643,-2.28136
1470243067234072,-0.279058,0.0965062,-2.28111
1470243067253599,-0.279458,0.0920192,-2.28157
1470243067276151,-0.27842,0.0882369,-2.28272
1470243067294196,-0.275906,0.0841123,-2.28436
1470243067313642,-0.273864,0.0810313,-2.28592
1470243067336163,-0.27268,0.07965,-2.28784
1470243067354226,-0.27347,0.079301,-2.28981
1470243067373696,-0.2748,0.079588,-2.29098
1470243067396240,-0.276904,0.0803394,-2.29149
1470243067413734,-0.279792,0.0811028,-2.29243
1470243067433251,-0.280939,0.0815141,-2.29401
1470243067456272,-0.280993,0.0822122,-2.29571
1470243067473821,-0.280719,0.0839706,-2.29745
1470243067493865,-0.279169,0.0852103,-2.29963
1470243067515824,-0.277906,0.0855555,-2.30154
1470243067534419,-0.280744,0.0842607,-2.30242
1470243067553908,-0.283486,0.0813509,-2.3039
1470243067575896,-0.279972,0.0803476,-2.30538
1470243067593943,-0.273589,0.0825538,-2.30569
1470243067613414,-0.269109,0.0835332,-2.30552
1470243067635932,-0.269403,0.0837592,-2.30575
1470243067654038,-0.269846,0.0836705,-2.30588
1470243067673481,-0.26933,0.083908,-2.30633
1470243067696001,-0.269443,0.0838895,-2.30763
1470243067714002,-0.26943,0.0838744,-2.30856
1470243067735021,-0.269142,0.0839221,-2.30922
1470243067756084,-0.269006,0.0842009,-2.30961
1470243067774098,-0.268623,0.0841265,-2.30983
1470243067795085,-0.268623,0.0841265,-2.30983
1470243067816159,-0.269265,0.0845008,-2.31013
1470243067834165,-0.270533,0.0849951,-2.31062
1470243067855128,-0.273148,0.0848567,-2.31122
1470243067876149,-0.278444,0.0832335,-2.31176
1470243067893665,-0.285329,0.0801567,-2.31146
1470243067915184,-0.289859,0.0772927,-2.31003
1470243067943709,-0.290035,0.0754307,-2.30873
1470243067954218,-0.287705,0.0740591,-2.30747
1470243067974742,-0.286958,0.0728208,-2.30466
1470243067996349,-0.287743,0.0718971,-2.30085
1470243068013771,-0.28723,0.0709153,-2.29627
1470243068034790,-0.282659,0.0705215,-2.29161
1470243068063316,-0.275326,0.0710889,-2.28723
1470243068073826,-0.268887,0.0720555,-2.28369
1470243068096347,-0.264529,0.0725049,-2.28075
1470243068116377,-0.262431,0.0722505,-2.27682
1470243068141441,-0.25979,0.0729034,-2.27331
1470243068156469,-0.255614,0.0738226,-2.27029
1470243068175949,-0.251029,0.0747238,-2.2679
1470243068194017,-0.248051,0.0744419,-2.26669
1470243068216493,-0.246635,0.0751287,-2.26771
1470243068235989,-0.247537,0.0771401,-2.27081
1470243068254004,-0.25075,0.0794545,-2.27561
1470243068276594,-0.255613,0.0815935,-2.2829
1470243068296057,-0.256638,0.084668,-2.29272
1470243068314041,-0.245172,0.0909672,-2.30247
1470243068344131,-0.232705,0.0908421,-2.31837
1470243068356161,-0.23171,0.0894985,-2.33792
1470243068374144,-0.246172,0.0901291,-2.35925
1470243068396614,-0.259947,0.0882899,-2.38261
1470243068416143,-0.268034,0.0884634,-2.40812
1470243068434162,-0.274835,0.0909819,-2.43606
1470243068456688,-0.283459,0.091527,-2.46366
1470243068476187,-0.295573,0.09057,-2.48871
1470243068494202,-0.310298,0.0882675,-2.51133
1470243068516723,-0.328971,0.0820332,-2.53362
1470243068535740,-0.350089,0.0757436,-2.55471
1470243068553770,-0.369762,0.0735475,-2.57225
1470243068575775,-0.389658,0.0772602,-2.58429
1470243068596795,-0.412832,0.0785571,-2.5905
1470243068620316,-0.432829,0.0780618,-2.59255
1470243068635329,-0.43672,0.0803764,-2.59355
1470243068656850,-0.424764,0.0839706,-2.59559
1470243068673364,-0.408601,0.0854806,-2.59817
1470243068695385,-0.399508,0.0854647,-2.59936
1470243068716904,-0.397257,0.0842148,-2.59793
1470243068732417,-0.395187,0.0829135,-2.5958
1470243068755437,-0.39066,0.0823538,-2.5953
1470243068776958,-0.38555,0.0825098,-2.59617
1470243068792971,-0.38333,0.0825462,-2.59795
1470243068815492,-0.383037,0.0825842,-2.59922
1470243068836510,-0.385081,0.0831938,-2.59976
1470243068853525,-0.387967,0.083923,-2.60016
1470243068875545,-0.388617,0.0843713,-2.60076
1470243068896566,-0.386496,0.0849949,-2.60168
1470243068913579,-0.38391,0.0859163,-2.6024
1470243068935599,-0.382503,0.0863443,-2.60278
1470243068956619,-0.381609,0.0863187,-2.60293
1470243068973133,-0.380587,0.0862128,-2.60326
1470243068995653,-0.379723,0.0860484,-2.6035
1470243069018173,-0.379723,0.0860484,-2.6035
1470243069033186,-0.378663,0.0857251,-2.60366
1470243069055707,-0.376885,0.0855611,-2.60387
1470243069078226,-0.376853,0.0856767,-2.60389
1470243069093240,-0.377706,0.0854126,-2.60386
1470243069115788,-0.378445,0.0855437,-2.6036
1470243069138307,-0.378601,0.0854609,-2.6036
1470243069153294,-0.377363,0.0857172,-2.60377
1470243069176315,-0.376386,0.0859485,-2.60378
1470243069198335,-0.37623,0.0860547,-2.60368
1470243069212347,-0.37704,0.0859738,-2.60398
1470243069235368,-0.377889,0.0856155,-2.60434
1470243069257948,-0.378635,0.0852465,-2.60467
1470243069279408,-0.379331,0.0850413,-2.60474
1470243069295474,-0.379331,0.0850413,-2.60474
1470243069317946,-0.379456,0.0850741,-2.60476
1470243069332461,-0.379456,0.0850741,-2.60476
1470243069362983,-0.378718,0.0849669,-2.60492
1470243069378014,-0.378084,0.0849172,-2.60492
1470243069392509,-0.377959,0.0848844,-2.60489
1470243069415531,-0.377709,0.0853143,-2.60495
1470243069438050,-0.378293,0.0855513,-2.60459
1470243069452563,-0.378511,0.0857327,-2.60465
1470243069475584,-0.378511,0.0857327,-2.60465
1470243069498104,-0.378636,0.0857655,-2.60468
1470243069512617,-0.378636,0.0857655,-2.60468
1470243069535432,-0.378511,0.0857327,-2.60465
1470243069557954,-0.378046,0.0855563,-2.60424
1470243069579554,-0.377382,0.0856456,-2.60416
1470243069595486,-0.376621,0.085516,-2.60433
1470243069618007,-0.376998,0.0851425,-2.6042
1470243069640530,-0.378235,0.0843669,-2.60402
1470243069655546,-0.380144,0.0831015,-2.60342
1470243069678102,-0.383041,0.0814692,-2.6028
1470243069699084,-0.388713,0.0797429,-2.60086
1470243069715598,-0.398514,0.076384,-2.59577
1470243069738116,-0.408559,0.0710533,-2.58894
1470243069759166,-0.409885,0.0671859,-2.57932
1470243069774661,-0.394385,0.0670499,-2.56614
1470243069798171,-0.369805,0.0715396,-2.54777
1470243069819251,-0.354009,0.0794183,-2.52474
1470243069834701,-0.350767,0.0890317,-2.49544
1470243069858224,-0.353557,0.101621,-2.46255
1470243069879284,-0.355748,0.116212,-2.4302
1470243069894774,-0.354215,0.130263,-2.40097
1470243069918280,-0.351358,0.143007,-2.37583
1470243069939339,-0.352292,0.156498,-2.35328
1470243069954814,-0.352723,0.16509,-2.33249
1470243069978359,-0.345942,0.168547,-2.31393
1470243070008357,-0.333549,0.170056,-2.29975
1470243070014878,-0.323019,0.167554,-2.29003
1470243070038435,-0.317301,0.159963,-2.28414
1470243070060455,-0.316615,0.146796,-2.28048
1470243070074968,-0.315845,0.128814,-2.27755
1470243070098034,-0.311911,0.111597,-2.27471
1470243070120509,-0.300378,0.098548,-2.27332
1470243070141530,-0.289004,0.0884966,-2.27311
1470243070158044,-0.286318,0.0800953,-2.27281
1470243070180564,-0.290282,0.0741474,-2.27328
1470243070201582,-0.293217,0.0706636,-2.2739
1470243070218096,-0.292228,0.0700785,-2.27463
1470243070248123,-0.286829,0.0719319,-2.27611
1470243070255129,-0.280877,0.0747103,-2.27787
1470243070278150,-0.281728,0.0758084,-2.2786
1470243070300671,-0.287019,0.0739764,-2.28001
1470243070314684,-0.286809,0.0722289,-2.28185
1470243070338211,-0.279747,0.0729526,-2.28402
1470243070360724,-0.275092,0.0738657,-2.28525
1470243070381762,-0.277463,0.0734041,-2.28566
1470243070398300,-0.278062,0.0732978,-2.28552
1470243070420778,-0.273575,0.0747379,-2.28644
1470243070441830,-0.26952,0.0767857,-2.28647
1470243070458312,-0.269674,0.0770533,-2.28605
1470243070480832,-0.271035,0.07678,-2.28577
1470243070501851,-0.271238,0.0772092,-2.28623
1470243070518366,-0.268414,0.0792241,-2.28664
1470243070540887,-0.267051,0.0822832,-2.28645
1470243070561914,-0.268671,0.0840699,-2.28664
1470243070577920,-0.270579,0.0843611,-2.28698
1470243070600442,-0.272211,0.085549,-2.28673
1470243070621960,-0.272313,0.0853461,-2.28663
1470243070637973,-0.27056,0.0855942,-2.28677
1470243070660495,-0.26894,0.0861988,-2.28683
1470243070681569,-0.269349,0.0867858,-2.28685
1470243070698027,-0.271625,0.0868678,-2.287
1470243070721048,-0.272068,0.0867658,-2.28719
1470243070741568,-0.273233,0.0880923,-2.28732
1470243070758081,-0.273675,0.0892388,-2.28737
1470243070780603,-0.274258,0.0906354,-2.28791
1470243070801623,-0.275024,0.0910122,-2.2886
1470243070818158,-0.274333,0.0919008,-2.28949
1470243070841159,-0.273493,0.0916708,-2.28939
1470243070861691,-0.27413,0.0917428,-2.28992
1470243070878189,-0.273668,0.0912491,-2.28998
1470243070900739,-0.274173,0.0919401,-2.29053
1470243070921728,-0.275294,0.092161,-2.29067
1470243070938243,-0.277308,0.0915777,-2.29075
1470243070960281,-0.27926,0.0905782,-2.29081
1470243070983284,-0.279016,0.0890095,-2.29064
1470243070997297,-0.279484,0.0885981,-2.29035
1470243071020818,-0.279707,0.0881051,-2.28981
1470243071043337,-0.280057,0.0876254,-2.28957
1470243071058354,-0.281047,0.087234,-2.2898
1470243071081371,-0.281223,0.087119,-2.29016
1470243071103391,-0.28102,0.0872506,-2.29044
1470243071117904,-0.281694,0.0872483,-2.29068
1470243071140925,-0.28245,0.0876776,-2.29102
1470243071163446,-0.28168,0.0881674,-2.29169
1470243071177459,-0.279772,0.0893809,-2.29216
1470243071200479,-0.276581,0.0898027,-2.29217
1470243071222999,-0.275745,0.0901726,-2.29168
1470243071237529,-0.278776,0.0907188,-2.29105
1470243071260532,-0.2814,0.0906992,-2.29032
1470243071283055,-0.281498,0.090752,-2.29021
1470243071297567,-0.280605,0.0903238,-2.29034
1470243071320586,-0.279704,0.089319,-2.28981
1470243071343110,-0.281364,0.0889491,-2.28924
1470243071357642,-0.282881,0.0874413,-2.28871
1470243071381141,-0.28338,0.0866143,-2.28851
1470243071403160,-0.285044,0.0859736,-2.28802
1470243071417195,-0.287294,0.0847289,-2.28631
1470243071440696,-0.290875,0.0823618,-2.28356
1470243071470721,-0.292249,0.0789213,-2.28034
1470243071484250,-0.290815,0.0766248,-2.2762
1470243071506774,-0.288763,0.0758552,-2.27005
1470243071523268,-0.287379,0.0764252,-2.26167
1470243071544289,-0.286098,0.0782983,-2.25224
1470243071560803,-0.28406,0.0811799,-2.24276
1470243071583322,-0.281772,0.0850014,-2.23421
1470243071604341,-0.278451,0.0882982,-2.22565
1470243071620856,-0.27214,0.091438,-2.21719
1470243071643380,-0.264878,0.0941204,-2.21007
1470243071671902,-0.259748,0.0962655,-2.20516
1470243071679909,-0.257339,0.0975672,-2.20209
1470243071702934,-0.25521,0.0980173,-2.20016
1470243071724449,-0.253686,0.0980111,-2.19953
1470243071740465,-0.252164,0.0985366,-2.20097
1470243071762984,-0.25377,0.0977368,-2.20249
1470243071784003,-0.254601,0.0971719,-2.20361
1470243071800518,-0.25446,0.0971713,-2.20407
1470243071823038,-0.252244,0.0977377,-2.20378
1470243071844057,-0.248101,0.0985341,-2.2036
1470243071860572,-0.245024,0.099675,-2.20382
1470243071883092,-0.244219,0.100159,-2.20426
1470243071905612,-0.246274,0.100205,-2.20456
1470243071920626,-0.249267,0.100316,-2.20487
1470243071943146,-0.251473,0.100055,-2.20494
1470243071965666,-0.251094,0.0999782,-2.20507
1470243071980679,-0.248305,0.100562,-2.20545
1470243072003208,-0.246288,0.101282,-2.20576
1470243072025720,-0.245636,0.101731,-2.20601
1470243072039734,-0.24659,0.102018,-2.2064
1470243072063259,-0.247501,0.10214,-2.20689
1470243072085773,-0.247614,0.102195,-2.20692
1470243072099787,-0.247067,0.102156,-2.2071
1470243072123309,-0.246092,0.102438,-2.20742
1470243072145832,-0.245728,0.102345,-2.20777
1470243072159895,-0.246339,0.102193,-2.20803
1470243072183361,-0.246972,0.102328,-2.20842
1470243072205881,-0.247495,0.102663,-2.20889
1470243072228401,-0.246956,0.103168,-2.20917
1470243072243415,-0.245206,0.103896,-2.20938
1470243072265435,-0.242542,0.105071,-2.20994
1470243072279948,-0.239154,0.106329,-2.21027
1470243072303469,-0.235841,0.107149,-2.21007
1470243072325489,-0.233802,0.107352,-2.20906
1470243072340004,-0.235941,0.106701,-2.20782
1470243072363022,-0.239544,0.104757,-2.20734
1470243072385543,-0.240976,0.10327,-2.20744
1470243072407089,-0.244931,0.101429,-2.20744
1470243072423076,-0.249895,0.0995282,-2.20763
1470243072445597,-0.256411,0.0975564,-2.20804
1470243072466616,-0.263823,0.0954328,-2.20876
1470243072483172,-0.269049,0.0938233,-2.20967
1470243072505650,-0.271246,0.0932293,-2.21085
1470243072526725,-0.270522,0.0929645,-2.21193
1470243072543203,-0.269908,0.0908343,-2.21306
1470243072565706,-0.270711,0.0879738,-2.21544
1470243072586739,-0.271939,0.0849797,-2.22006
1470243072610765,-0.270809,0.0838119,-2.22741
1470243072625780,-0.268399,0.0856986,-2.23747
1470243072646777,-0.266952,0.0890549,-2.25003
1470243072662291,-0.269974,0.0928595,-2.26459
1470243072685812,-0.278033,0.0976011,-2.28064
1470243072706852,-0.289585,0.103413,-2.29887
1470243072722361,-0.301462,0.110115,-2.31906
1470243072745866,-0.311155,0.117091,-2.34059
1470243072766885,-0.32001,0.123412,-2.36303
1470243072782915,-0.328484,0.127573,-2.38702
1470243072805421,-0.336097,0.129332,-2.41236
1470243072827030,-0.342791,0.129251,-2.43814
1470243072842457,-0.349961,0.126622,-2.46355
1470243072865488,-0.358517,0.120424,-2.48821
1470243072887994,-0.358417,0.114521,-2.50904
1470243072902507,-0.357568,0.106216,-2.52792
1470243072925527,-0.359437,0.0940152,-2.54749
1470243072948048,-0.370465,0.0809615,-2.56661
1470243072969068,-0.382697,0.0700016,-2.58012
1470243072985582,-0.393654,0.0680368,-2.5901
1470243073008116,-0.405659,0.0725557,-2.59609
1470243073029148,-0.416911,0.074708,-2.60093
1470243073045635,-0.42551,0.0751848,-2.60564
1470243073068166,-0.422965,0.0771727,-2.60854
1470243073089203,-0.415217,0.0789591,-2.60934
1470243073105690,-0.414999,0.079298,-2.60928
1470243073128211,-0.417873,0.0787916,-2.60821
1470243073149241,-0.418433,0.0786834,-2.60766
1470243073165743,-0.412587,0.0786291,-2.60864
1470243073188282,-0.406035,0.0784222,-2.60888
1470243073202306,-0.400993,0.0783829,-2.60909
1470243073225810,-0.399381,0.0785552,-2.60979
1470243073248318,-0.401813,0.0785664,-2.61049
1470243073262371,-0.406021,0.0787518,-2.61149
1470243073285886,-0.409568,0.0790517,-2.61231
1470243073308371,-0.410675,0.0792936,-2.61263
1470243073336897,-0.409181,0.0800055,-2.61277
1470243073345905,-0.40685,0.0804379,-2.61311
1470243073367925,-0.404334,0.0806259,-2.61317
1470243073389444,-0.402227,0.0807957,-2.61327
1470243073405459,-0.400942,0.0807649,-2.61357
1470243073427979,-0.400816,0.0807326,-2.61354
1470243073448998,-0.400691,0.0807004,-2.61352
1470243073465512,-0.400691,0.0807004,-2.61352
1470243073495539,-0.400565,0.0806682,-2.6135
1470243073509106,-0.399838,0.0805471,-2.61314
1470243073525566,-0.399248,0.080369,-2.61261
1470243073548086,-0.39853,0.0801336,-2.61215
1470243073569118,-0.398427,0.0800996,-2.61221
1470243073585620,-0.398301,0.0800673,-2.61219
1470243073608140,-0.398301,0.0800673,-2.61219
1470243073629169,-0.398342,0.0798626,-2.61196
1470243073645691,-0.398812,0.079613,-2.61196
1470243073668196,-0.398812,0.079613,-2.61196
1470243073689257,-0.398812,0.079613,-2.61196
1470243073705732,-0.398687,0.0795807,-2.61194
1470243073728259,-0.39853,0.0796639,-2.61194
1470243073749267,-0.39853,0.0796639,-2.61194
1470243073756273,-0.398561,0.0795484,-2.61192
1470243073771287,-0.398436,0.0795161,-2.61189
1470243073793807,-0.398625,0.079342,-2.61177
1470243073816327,-0.398625,0.079342,-2.61177
1470243073831340,-0.398625,0.079342,-2.61177
1470243073853872,-0.398625,0.079342,-2.61177
1470243073876262,-0.3985,0.0793097,-2.61175
1470243073892801,-0.3985,0.0793097,-2.61175
1470243073913796,-0.3985,0.0793097,-2.61175
1470243073936317,-0.398374,0.0792773,-2.61173
1470243073951399,-0.398374,0.0792773,-2.61173
1470243073973914,-0.397896,0.0791708,-2.61162
1470243073996370,-0.397448,0.0789242,-2.6116
1470243074011413,-0.397322,0.0788919,-2.61157
1470243074033931,-0.397322,0.0788919,-2.61157
1470243074056436,-0.397197,0.0788595,-2.61155
1470243074078985,-0.397197,0.0788595,-2.61155
1470243074093503,-0.397071,0.0788272,-2.61153
1470243074116488,-0.397071,0.0788272,-2.61153
1470243074130992,-0.397071,0.0788272,-2.61153
1470243074153567,-0.396562,0.0788361,-2.61144
1470243074176077,-0.396564,0.0788606,-2.61135
1470243074191047,-0.396439,0.0788283,-2.61132
1470243074216568,-0.396439,0.0788283,-2.61132
1470243074245110,-0.396545,0.0789114,-2.61106
1470243074251112,-0.396966,0.0788528,-2.6107
1470243074273672,-0.396966,0.0788528,-2.6107
1470243074296157,-0.396966,0.0788528,-2.6107
1470243074311190,-0.396155,0.0789629,-2.6103
1470243074333673,-0.395596,0.0791376,-2.60995
1470243074356220,-0.39547,0.0791051,-2.60993
1470243074371209,-0.395639,0.0789572,-2.60962
1470243074393728,-0.395639,0.0789572,-2.60962
1470243074416248,-0.395639,0.0789572,-2.60962
1470243074432764,-0.395536,0.078923,-2.60969
1470243074453463,-0.395536,0.078923,-2.60969
1470243074476484,-0.395536,0.078923,-2.60969
1470243074492499,-0.395411,0.0788905,-2.60966
1470243074513518,-0.395411,0.0788905,-2.60966
1470243074536068,-0.395411,0.0788905,-2.60966
1470243074552552,-0.39538,0.079006,-2.60968
1470243074573572,-0.395254,0.0789736,-2.60966
1470243074604601,-0.395285,0.0788581,-2.60964
1470243074612608,-0.39516,0.0788256,-2.60962
1470243074633625,-0.39516,0.0788256,-2.60962
1470243074656147,-0.39516,0.0788256,-2.60962
1470243074674163,-0.39516,0.0788256,-2.60962
1470243074693695,-0.395035,0.0787932,-2.60959
1470243074725226,-0.395035,0.0787932,-2.60959
1470243074734215,-0.395035,0.0787932,-2.60959
1470243074753780,-0.394651,0.078834,-2.60953
1470243074776256,-0.394526,0.0788015,-2.60951
1470243074801777,-0.394526,0.0788015,-2.60951
1470243074813786,-0.394839,0.0786354,-2.60952
1470243074836307,-0.394839,0.0786354,-2.60952
1470243074854423,-0.394683,0.0787185,-2.60951
1470243074873841,-0.394683,0.0787185,-2.60951
1470243074896452,-0.394683,0.0787185,-2.60951
1470243074913877,-0.394683,0.0787185,-2.60951
1470243074933915,-0.394557,0.078686,-2.60949
1470243074963421,-0.394557,0.078686,-2.60949
1470243074973931,-0.394589,0.0785705,-2.60947
1470243074993964,-0.394589,0.0785705,-2.60947
1470243075024000,-0.394589,0.0785705,-2.60947
1470243075034016,-0.394589,0.0785705,-2.60947
1470243075053502,-0.394589,0.0785705,-2.60947
1470243075076024,-0.394463,0.078538,-2.60945
1470243075094068,-0.394463,0.078538,-2.60945
1470243075113587,-0.394463,0.078538,-2.60945
1470243075136095,-0.394463,0.078538,-2.60945
1470243075154110,-0.394338,0.0785056,-2.60942
1470243075175125,-0.394338,0.0785056,-2.60942
1470243075196227,-0.394338,0.0785056,-2.60942
1470243075214147,-0.394212,0.0784731,-2.6094
1470243075241213,-0.394212,0.0784731,-2.6094
1470243075256188,-0.394212,0.0784731,-2.6094
1470243075274200,-0.394235,0.0784714,-2.60949
1470243075293749,-0.394235,0.0784714,-2.60949
1470243075316238,-0.394235,0.0784714,-2.60949
1470243075334254,-0.394235,0.0784714,-2.60949
1470243075355306,-0.39411,0.0784389,-2.60947
1470243075376293,-0.39411,0.0784389,-2.60947
1470243075394338,-0.39411,0.0784389,-2.60947
1470243075415327,-0.39411,0.0784389,-2.60947
1470243075439352,-0.39411,0.0784389,-2.60947
1470243075454465,-0.394526,0.078307,-2.6094
1470243075474920,-0.394526,0.078307,-2.6094
1470243075495900,-0.394526,0.078307,-2.6094
1470243075513917,-0.394526,0.078307,-2.6094
1470243075534936,-0.3944,0.0782746,-2.60938
1470243075559476,-0.3944,0.0782746,-2.60938
1470243075581478,-0.3944,0.0782746,-2.60938
1470243075594989,-0.394432,0.078159,-2.60936
1470243075616012,-0.3944,0.0782746,-2.60938
1470243075634041,-0.3944,0.0782746,-2.60938
1470243075655079,-0.394432,0.078159,-2.60936
1470243075676111,-0.394432,0.078159,-2.60936
1470243075694122,-0.394432,0.078159,-2.60936
1470243075716615,-0.394306,0.0781266,-2.60934
1470243075736130,-0.394306,0.0781266,-2.60934
1470243075754165,-0.394329,0.0781248,-2.60943
1470243075776716,-0.394329,0.0781248,-2.60943
1470243075796226,-0.394204,0.0780924,-2.6094
1470243075814186,-0.394204,0.0780924,-2.6094
1470243075837205,-0.394204,0.0780924,-2.6094
1470243075856255,-0.394204,0.0780924,-2.6094
1470243075874290,-0.394204,0.0780924,-2.6094
1470243075896790,-0.394204,0.0780924,-2.6094
1470243075916278,-0.394204,0.0780924,-2.6094
1470243075934293,-0.394235,0.0779768,-2.60938
1470243075955813,-0.394235,0.0779768,-2.60938
1470243075976397,-0.394204,0.0780924,-2.6094
1470243075993878,-0.394204,0.0780924,-2.6094
1470243076016988,-0.394078,0.0780599,-2.60938
1470243076036385,-0.394109,0.0779444,-2.60936
1470243076054478,-0.394109,0.0779444,-2.60936
1470243076076988,-0.394109,0.0779444,-2.60936
1470243076096582,-0.393984,0.0779119,-2.60933
1470243076114455,-0.393984,0.0779119,-2.60933
1470243076136475,-0.393984,0.0779119,-2.60933
1470243076155992,-0.393984,0.0779119,-2.60933
1470243076174024,-0.393984,0.0779119,-2.60933
1470243076196623,-0.393859,0.0778795,-2.60931
1470243076216550,-0.393859,0.0778795,-2.60931
1470243076234080,-0.393859,0.0778795,-2.60931
1470243076256596,-0.393859,0.0778795,-2.60931
1470243076277214,-0.393859,0.0778795,-2.60931
1470243076293120,-0.393859,0.0778795,-2.60931
1470243076315668,-0.393756,0.0778452,-2.60938
1470243076337164,-0.393756,0.0778452,-2.60938
1470243076353169,-0.393756,0.0778452,-2.60938
1470243076375690,-0.393631,0.0778128,-2.60935
1470243076396751,-0.393662,0.0776972,-2.60933
1470243076413223,-0.393662,0.0776972,-2.60933
1470243076435754,-0.393662,0.0776972,-2.60933
1470243076456777,-0.393537,0.0776648,-2.60931
1470243076473328,-0.393537,0.0776648,-2.60931
1470243076495820,-0.393848,0.0774743,-2.60941
1470243076516838,-0.393723,0.0774419,-2.60939
1470243076533330,-0.393723,0.0774419,-2.60939
1470243076555853,-0.393723,0.0774419,-2.60939
1470243076576947,-0.393723,0.0774419,-2.60939
1470243076592893,-0.393723,0.0774419,-2.60939
1470243076615413,-0.393723,0.0774419,-2.60939
1470243076638425,-0.393598,0.0774095,-2.60937
1470243076652938,-0.393598,0.0774095,-2.60937
1470243076675966,-0.393598,0.0774095,-2.60937
1470243076697979,-0.393598,0.0774095,-2.60937
1470243076712492,-0.393629,0.0772939,-2.60935
1470243076735513,-0.393504,0.0772615,-2.60932
1470243076758037,-0.393504,0.0772615,-2.60932
1470243076773046,-0.393504,0.0772615,-2.60932
1470243076795623,-0.393504,0.0772615,-2.60932
1470243076818087,-0.393472,0.077377,-2.60935
1470243076832599,-0.393378,0.077229,-2.6093
1470243076855620,-0.393369,0.0773427,-2.60941
1470243076878143,-0.393369,0.0773427,-2.60941
1470243076892660,-0.393369,0.0773427,-2.60941
1470243076915674,-0.393244,0.0773103,-2.60939
1470243076945730,-0.393276,0.0771948,-2.60937
1470243076952708,-0.393276,0.0771948,-2.60937
1470243076975728,-0.39315,0.0771623,-2.60934
1470243076998248,-0.39315,0.0771623,-2.60934
1470243077012762,-0.39315,0.0771623,-2.60934
1470243077035795,-0.39315,0.0771623,-2.60934
1470243077058305,-0.39315,0.0771623,-2.60934
1470243077072314,-0.39315,0.0771623,-2.60934
1470243077095844,-0.393025,0.0771299,-2.60932
1470243077118356,-0.393025,0.0771299,-2.60932
1470243077139405,-0.393025,0.0771299,-2.60932
1470243077155389,-0.393025,0.0771299,-2.60932
1470243077178410,-0.393025,0.0771299,-2.60932
1470243077199512,-0.392931,0.0769819,-2.60928
1470243077215944,-0.392931,0.0769819,-2.60928
1470243077238464,-0.392931,0.0769819,-2.60928
1470243077259500,-0.3929,0.0770974,-2.6093
1470243077275997,-0.3929,0.0770974,-2.6093
1470243077298018,-0.3929,0.0770974,-2.6093
1470243077319583,-0.3929,0.0770974,-2.6093
1470243077336051,-0.392931,0.0769819,-2.60928
1470243077358073,-0.392797,0.0770632,-2.60936
1470243077379591,-0.392797,0.0770632,-2.60936
1470243077395605,-0.392671,0.0770307,-2.60934
1470243077418125,-0.392797,0.0770632,-2.60936
1470243077439716,-0.392671,0.0770307,-2.60934
1470243077455660,-0.392671,0.0770307,-2.60934
1470243077478183,-0.392671,0.0770307,-2.60934
1470243077499275,-0.392671,0.0770307,-2.60934
1470243077515737,-0.392671,0.0770307,-2.60934
1470243077538243,-0.392671,0.0770307,-2.60934
1470243077559252,-0.392546,0.0769983,-2.60932
1470243077575767,-0.392546,0.0769983,-2.60932
1470243077598288,-0.392577,0.0768828,-2.6093
1470243077620809,-0.392546,0.0769983,-2.60932
1470243077635836,-0.392577,0.0768828,-2.6093
1470243077658340,-0.392034,0.076958,-2.60944
1470243077680862,-0.392003,0.0770736,-2.60946
1470243077695877,-0.392003,0.0770736,-2.60946
1470243077717895,-0.392034,0.076958,-2.60944
1470243077740918,-0.391909,0.0769256,-2.60941
1470243077754928,-0.391878,0.0770411,-2.60943
1470243077777948,-0.391879,0.0770653,-2.60933
1470243077800969,-0.391878,0.0770411,-2.60943
1470243077814998,-0.391878,0.0770411,-2.60943
1470243077838502,-0.391909,0.0769256,-2.60941
1470243077861023,-0.391909,0.0769256,-2.60941
1470243077883043,-0.391909,0.0769256,-2.60941
1470243077898057,-0.391909,0.0769256,-2.60941
1470243077920593,-0.391909,0.0769256,-2.60941
1470243077935089,-0.391909,0.0769256,-2.60941
1470243077958121,-0.391784,0.0768931,-2.60939
1470243077981131,-0.391784,0.0768931,-2.60939
1470243078001694,-0.391784,0.0768931,-2.60939
1470243078018176,-0.391806,0.0768913,-2.60948
1470243078055743,-0.391806,0.0768913,-2.60948
1470243078058200,-0.392161,0.0770147,-2.60936
1470243078078218,-0.392161,0.0770147,-2.60936
1470243078100738,-0.392161,0.0770147,-2.60936
1470243078121771,-0.392161,0.0770147,-2.60936
1470243078138272,-0.392161,0.0770147,-2.60936
1470243078160797,-0.392161,0.0770147,-2.60936
1470243078181811,-0.392161,0.0770147,-2.60936
1470243078198328,-0.392193,0.0768991,-2.60934
1470243078220875,-0.392193,0.0768991,-2.60934
1470243078243403,-0.392193,0.0768991,-2.60934
1470243078258380,-0.392161,0.0770147,-2.60936
1470243078280901,-0.392161,0.0770147,-2.60936
1470243078301919,-0.392193,0.0768991,-2.60934
1470243078318434,-0.392193,0.0768991,-2.60934
1470243078340953,-0.392193,0.0768991,-2.60934
1470243078361987,-0.392193,0.0768991,-2.60934
1470243078378487,-0.392193,0.0768991,-2.60934
1470243078400508,-0.392193,0.0768991,-2.60934
1470243078422027,-0.391556,0.0768265,-2.60943
1470243078438553,-0.391556,0.0768265,-2.60943
1470243078460581,-0.391556,0.0768265,-2.60943
1470243078482081,-0.391556,0.0768265,-2.60943
1470243078498112,-0.391556,0.0768265,-2.60943
1470243078521116,-0.39143,0.076794,-2.60941
1470243078543137,-0.39143,0.076794,-2.60941
1470243078558151,-0.39143,0.076794,-2.60941
1470243078580670,-0.39143,0.076794,-2.60941
1470243078603248,-0.391305,0.0767616,-2.60939
1470243078618217,-0.391305,0.0767616,-2.60939
1470243078640724,-0.391328,0.0767598,-2.60948
1470243078663248,-0.391328,0.0767598,-2.60948
1470243078677793,-0.391328,0.0767598,-2.60948
1470243078700809,-0.391328,0.0767598,-2.60948
1470243078723297,-0.391328,0.0767598,-2.60948
1470243078737810,-0.391202,0.0767273,-2.60945
1470243078768338,-0.391202,0.0767273,-2.60945
1470243078783351,-0.391202,0.0767273,-2.60945
1470243078797364,-0.391202,0.0767273,-2.60945
1470243078820884,-0.391202,0.0767273,-2.60945
1470243078843409,-0.391202,0.0767273,-2.60945
1470243078857417,-0.391202,0.0767273,-2.60945
1470243078880938,-0.391202,0.0767273,-2.60945
1470243078903466,-0.391202,0.0767273,-2.60945
1470243078917474,-0.391202,0.0767273,-2.60945
1470243078940992,-0.391077,0.0766949,-2.60943
1470243078969518,-0.391077,0.0766949,-2.60943
1470243078977525,-0.391077,0.0766949,-2.60943
1470243079000582,-0.391077,0.0766949,-2.60943
1470243079023110,-0.391077,0.0766949,-2.60943
1470243079044706,-0.391077,0.0766949,-2.60943
1470243079060634,-0.391077,0.0766949,-2.60943
1470243079083131,-0.391077,0.0766949,-2.60943
1470243079104197,-0.391077,0.0766949,-2.60943
1470243079128161,-0.390952,0.0766625,-2.60941
1470243079143178,-0.390952,0.0766625,-2.60941
1470243079164195,-0.390952,0.0766625,-2.60941
1470243079180709,-0.390952,0.0766625,-2.60941
1470243079209234,-0.390952,0.0766625,-2.60941
1470243079224252,-0.390952,0.0766625,-2.60941
1470243079240764,-0.390827,0.07663,-2.60939
1470243079263281,-0.390827,0.07663,-2.60939
1470243079284347,-0.390827,0.07663,-2.60939
1470243079300816,-0.390827,0.07663,-2.60939
1470243079323337,-0.390701,0.0765976,-2.60936
1470243079344410,-0.390724,0.0765958,-2.60945
1470243079360871,-0.390724,0.0765958,-2.60945
1470243079383391,-0.390724,0.0765958,-2.60945
1470243079404423,-0.390724,0.0765958,-2.60945
1470243079420923,-0.390724,0.0765958,-2.60945
1470243079443449,-0.390724,0.0765958,-2.60945
1470243079464462,-0.390599,0.0765633,-2.60943
1470243079480977,-0.390567,0.0766789,-2.60945
1470243079503498,-0.390567,0.0766789,-2.60945
1470243079526017,-0.390567,0.0766789,-2.60945
1470243079547037,-0.390567,0.0766789,-2.60945
1470243079563076,-0.390536,0.0767944,-2.60947
1470243079585579,-0.390411,0.076762,-2.60945
1470243079600111,-0.390411,0.076762,-2.60945
1470243079623105,-0.390411,0.076762,-2.60945
1470243079645626,-0.390411,0.076762,-2.60945
1470243079660138,-0.390412,0.0767861,-2.60935
1470243079683159,-0.390412,0.0767861,-2.60935
1470243079705721,-0.390411,0.076762,-2.60945
1470243079720193,-0.390412,0.0767861,-2.60935
1470243079743215,-0.390381,0.0769017,-2.60937
1470243079765736,-0.390381,0.0769017,-2.60937
1470243079780247,-0.390381,0.0769017,-2.60937
1470243079803322,-0.390381,0.0769017,-2.60937
1470243079825787,-0.390256,0.0768692,-2.60935
1470243079840300,-0.390256,0.0768692,-2.60935
1470243079863321,-0.390256,0.0768692,-2.60935
1470243079885858,-0.390256,0.0768692,-2.60935
1470243079900353,-0.390256,0.0768692,-2.60935
1470243079923375,-0.39013,0.0768368,-2.60932
1470243079945895,-0.39013,0.0768368,-2.60932
1470243079960407,-0.39013,0.0768368,-2.60932
1470243079983428,-0.39013,0.0768368,-2.60932
1470243080005949,-0.39013,0.0768368,-2.60932
1470243080026989,-0.390005,0.0768043,-2.6093
1470243080043482,-0.390005,0.0768043,-2.6093
1470243080065503,-0.390005,0.0768043,-2.6093
1470243080087022,-0.390005,0.0768043,-2.6093
1470243080103035,-0.390005,0.0768043,-2.6093
1470243080125559,-0.390005,0.0768043,-2.6093
1470243080147180,-0.390005,0.0768043,-2.6093
1470243080163116,-0.389902,0.0767701,-2.60937
1470243080185612,-0.389902,0.0767701,-2.60937
1470243080206685,-0.389902,0.0767701,-2.60937
1470243080223144,-0.389902,0.0767701,-2.60937
1470243080245664,-0.39016,0.0766971,-2.6094
1470243080274308,-0.39016,0.0766971,-2.6094
1470243080283263,-0.39016,0.0766971,-2.6094
1470243080305784,-0.390162,0.0767212,-2.6093
1470243080326822,-0.390162,0.0767212,-2.6093
1470243080343341,-0.390162,0.0767212,-2.6093
1470243080365837,-0.390162,0.0767212,-2.6093
1470243080386874,-0.390162,0.0767212,-2.6093
1470243080403372,-0.390162,0.0767212,-2.6093
1470243080425925,-0.390724,0.0765958,-2.60945
1470243080448411,-0.390755,0.0764802,-2.60943
1470243080463925,-0.390724,0.0765958,-2.60945
1470243080485945,-0.39063,0.0764478,-2.60941
1470243080508466,-0.390599,0.0765633,-2.60943
1470243080523478,-0.39063,0.0764478,-2.60941
1470243080545498,-0.39063,0.0764478,-2.60941
1470243080568518,-0.39063,0.0764478,-2.60941
1470243080582533,-0.390599,0.0765633,-2.60943
1470243080605595,-0.390599,0.0765633,-2.60943
1470243080628072,-0.390599,0.0765633,-2.60943
1470243080642585,-0.390599,0.0765633,-2.60943
1470243080665608,-0.390599,0.0765633,-2.60943
1470243080688136,-0.390599,0.0765633,-2.60943
1470243080702639,-0.390599,0.0765633,-2.60943
1470243080725659,-0.39063,0.0764478,-2.60941
1470243080748182,-0.390473,0.0765309,-2.60941
1470243080762709,-0.390473,0.0765309,-2.60941
1470243080785738,-0.390473,0.0765309,-2.60941
1470243080808234,-0.390473,0.0765309,-2.60941
1470243080830755,-0.390505,0.0764153,-2.60938
1470243080845767,-0.390379,0.0763829,-2.60936
1470243080868315,-0.390379,0.0763829,-2.60936
1470243080882800,-0.390379,0.0763829,-2.60936
1470243080905823,-0.390379,0.0763829,-2.60936
1470243080928342,-0.390379,0.0763829,-2.60936
1470243080949381,-0.390379,0.0763829,-2.60936
1470243080965876,-0.390379,0.0763829,-2.60936
1470243080988398,-0.390254,0.0763505,-2.60934
1470243081016946,-0.390254,0.0763505,-2.60934
1470243081025959,-0.390254,0.0763505,-2.60934
1470243081048449,-0.390254,0.0763505,-2.60934
1470243081069474,-0.390129,0.076318,-2.60932
1470243081085983,-0.390151,0.0763162,-2.60941
1470243081109022,-0.390151,0.0763162,-2.60941
1470243081129522,-0.390151,0.0763162,-2.60941
1470243081145537,-0.390151,0.0763162,-2.60941
1470243081168558,-0.390151,0.0763162,-2.60941
1470243081189622,-0.390026,0.0762838,-2.60938
1470243081213126,-0.390026,0.0762838,-2.60938
1470243081228112,-0.390026,0.0762838,-2.60938
1470243081249631,-0.390026,0.0762838,-2.60938
1470243081265661,-0.389901,0.0762513,-2.60936
1470243081288165,-0.389901,0.0762513,-2.60936
1470243081309226,-0.389901,0.0762513,-2.60936
1470243081325719,-0.389901,0.0762513,-2.60936
1470243081348223,-0.389901,0.0762513,-2.60936
1470243081369239,-0.38987,0.0763669,-2.60938
1470243081386253,-0.389744,0.0763345,-2.60936
1470243081408272,-0.389744,0.0763345,-2.60936
1470243081430793,-0.389744,0.0763345,-2.60936
1470243081445806,-0.389744,0.0763345,-2.60936
1470243081468384,-0.389619,0.076302,-2.60933
1470243081473842,-0.389619,0.076302,-2.60933
1470243081496352,-0.389619,0.076302,-2.60933
1470243081511365,-0.389619,0.076302,-2.60933
1470243081536889,-0.389463,0.0763851,-2.60933
1470243081556406,-0.389485,0.0763833,-2.60942
1470243081571419,-0.389361,0.0763749,-2.6093
1470243081593439,-0.389361,0.0763749,-2.6093
1470243081625021,-0.38933,0.0764905,-2.60932
1470243081631473,-0.38933,0.0764905,-2.60932
1470243081654049,-0.389205,0.0764581,-2.6093
1470243081676536,-0.389205,0.0764581,-2.6093
1470243081691535,-0.389205,0.0764581,-2.6093
1470243081714046,-0.389205,0.0764581,-2.6093
1470243081736066,-0.38908,0.0764256,-2.60927
1470243081751098,-0.389048,0.0765412,-2.6093
1470243081773656,-0.389048,0.0765412,-2.6093
1470243081796121,-0.388892,0.0766243,-2.60929
1470243081811140,-0.388892,0.0766243,-2.60929
1470243081833669,-0.388767,0.0765919,-2.60927
1470243081856202,-0.388735,0.0767074,-2.60929
1470243081871205,-0.388735,0.0767074,-2.60929
1470243081901268,-0.388737,0.0767314,-2.60919
1470243081916246,-0.388634,0.0766972,-2.60926
1470243081941818,-0.388477,0.0767803,-2.60926
1470243081953779,-0.388477,0.0767803,-2.60926
1470243081984336,-0.388321,0.0768635,-2.60925
1470243081992800,-0.388321,0.0768635,-2.60925
1470243082016820,-0.388321,0.0768635,-2.60925
1470243082036336,-0.388196,0.076831,-2.60923
1470243082052852,-0.388196,0.076831,-2.60923
1470243082073870,-0.388664,0.0765576,-2.60934
1470243082099394,-0.3888,0.0765003,-2.60915
1470243082113906,-0.388768,0.0766159,-2.60917
1470243082133924,-0.388643,0.0765834,-2.60915
1470243082156457,-0.388643,0.0765834,-2.60915
1470243082172459,-0.388643,0.0765834,-2.60915
1470243082194048,-0.388518,0.076551,-2.60913
1470243082217499,-0.388509,0.0766648,-2.60924
1470243082232513,-0.388509,0.0766648,-2.60924
1470243082261039,-0.388384,0.0766323,-2.60921
1470243082276055,-0.38905,0.0765652,-2.6092
1470243082292566,-0.388925,0.0765328,-2.60917
1470243082313586,-0.388925,0.0765328,-2.60917
1470243082336107,-0.388925,0.0765328,-2.60917
1470243082354155,-0.388768,0.0766159,-2.60917
1470243082373670,-0.38908,0.0764256,-2.60927
1470243082396188,-0.38908,0.0764256,-2.60927
1470243082414176,-0.38908,0.0764256,-2.60927
1470243082433722,-0.38905,0.0765652,-2.6092
1470243082456212,-0.388925,0.0765328,-2.60917
1470243082474229,-0.388925,0.0765328,-2.60917
1470243082493763,-0.3888,0.0765003,-2.60915
1470243082516268,-0.388768,0.0766159,-2.60917
1470243082540316,-0.388768,0.0766159,-2.60917
1470243082553800,-0.388643,0.0765834,-2.60915
1470243082576344,-0.388643,0.0765834,-2.60915
1470243082594337,-0.388643,0.0765834,-2.60915
1470243082613855,-0.388509,0.0766648,-2.60924
1470243082636375,-0.38854,0.0765492,-2.60921
1470243082654392,-0.38854,0.0765492,-2.60921
1470243082673908,-0.388384,0.0766323,-2.60921
1470243082696430,-0.388384,0.0766323,-2.60921
1470243082713945,-0.388259,0.0765999,-2.60919
1470243082734964,-0.388259,0.0765999,-2.60919
1470243082756503,-0.388259,0.0765999,-2.60919
1470243082773999,-0.388259,0.0765999,-2.60919
1470243082795019,-0.388102,0.076683,-2.60919
1470243082816553,-0.388102,0.076683,-2.60919
1470243082834105,-0.388415,0.0765167,-2.60919
1470243082853619,-0.38854,0.0765492,-2.60921
1470243082876105,-0.38854,0.0765492,-2.60921
1470243082894108,-0.388415,0.0765167,-2.60919
1470243082915126,-0.388415,0.0765167,-2.60919
1470243082936197,-0.388415,0.0765167,-2.60919
1470243082954209,-0.388259,0.0765999,-2.60919
1470243082975193,-0.388259,0.0765999,-2.60919
1470243082996224,-0.388133,0.0765674,-2.60917
1470243083014215,-0.388133,0.0765674,-2.60917
1470243083035272,-0.388133,0.0765674,-2.60917
1470243083056267,-0.388102,0.076683,-2.60919
1470243083074359,-0.388102,0.076683,-2.60919
1470243083095295,-0.387979,0.0766745,-2.60906
1470243083116329,-0.388259,0.0765999,-2.60919
1470243083134322,-0.388259,0.0765999,-2.60919
1470243083155341,-0.388104,0.076707,-2.60909
1470243083176360,-0.388104,0.076707,-2.60909
1470243083194376,-0.388104,0.076707,-2.60909
1470243083214895,-0.388104,0.076707,-2.60909
1470243083236556,-0.388104,0.076707,-2.60909
1470243083254551,-0.387947,0.0767901,-2.60909
1470243083276969,-0.387947,0.0767901,-2.60909
1470243083296558,-0.388135,0.0765914,-2.60907
1470243083314485,-0.388135,0.0765914,-2.60907
1470243083336524,-0.388135,0.0765914,-2.60907
1470243083356121,-0.388135,0.0765914,-2.60907
1470243083374038,-0.388292,0.0765083,-2.60907
1470243083396602,-0.388292,0.0765083,-2.60907
1470243083416577,-0.388292,0.0765083,-2.60907
1470243083434143,-0.388166,0.0764758,-2.60905
1470243083456627,-0.388415,0.0765167,-2.60919
1470243083476130,-0.388706,0.0763523,-2.60911
1470243083494245,-0.388675,0.0764678,-2.60913
1470243083516708,-0.388675,0.0764678,-2.60913
1470243083536183,-0.388675,0.0764678,-2.60913
1470243083554283,-0.388551,0.0764594,-2.609
1470243083576762,-0.388551,0.0764594,-2.609
1470243083597739,-0.388551,0.0764594,-2.609
1470243083614253,-0.38852,0.076575,-2.60903
1470243083636864,-0.38852,0.076575,-2.60903
1470243083656331,-0.388395,0.0765425,-2.609
1470243083674356,-0.388417,0.0765407,-2.60909
1470243083696867,-0.388417,0.0765407,-2.60909
1470243083716346,-0.388417,0.0765407,-2.60909
1470243083734360,-0.388385,0.0766563,-2.60911
1470243083764388,-0.388385,0.0766563,-2.60911
1470243083776399,-0.38826,0.0766238,-2.60909
1470243083802022,-0.38826,0.0766238,-2.60909
1470243083816451,-0.38826,0.0766238,-2.60909
1470243083843458,-0.388104,0.076707,-2.60909
1470243083853974,-0.388104,0.076707,-2.60909
1470243083884563,-0.388104,0.076707,-2.60909
1470243083897509,-0.387979,0.0766745,-2.60906
1470243083914023,-0.387979,0.0766745,-2.60906
1470243083936568,-0.387979,0.0766745,-2.60906
1470243083957562,-0.387979,0.0766745,-2.60906
1470243083973079,-0.387853,0.076642,-2.60904
1470243083995601,-0.387853,0.076642,-2.60904
1470243084017115,-0.387853,0.076642,-2.60904
1470243084040684,-0.387853,0.076642,-2.60904
1470243084055665,-0.387728,0.0766096,-2.60902
1470243084077171,-0.387728,0.0766096,-2.60902
1470243084093183,-0.387728,0.0766096,-2.60902
1470243084115707,-0.387699,0.0767491,-2.60894
1470243084137223,-0.387596,0.0767149,-2.60901
1470243084160744,-0.387596,0.0767149,-2.60901
1470243084175758,-0.387596,0.0767149,-2.60901
1470243084204302,-0.387596,0.0767149,-2.60901
1470243084213300,-0.387564,0.0768305,-2.60903
1470243084235846,-0.387439,0.076798,-2.609
1470243084258331,-0.387439,0.076798,-2.609
1470243084273346,-0.387439,0.076798,-2.609
1470243084295889,-0.387439,0.076798,-2.609
1470243084318385,-0.387439,0.076798,-2.609
1470243084333398,-0.387439,0.076798,-2.609
1470243084355951,-0.387439,0.076798,-2.609
1470243084378439,-0.387314,0.0767655,-2.60898
1470243084392484,-0.387314,0.0767655,-2.60898
1470243084415973,-0.387314,0.0767655,-2.60898
1470243084438513,-0.387314,0.0767655,-2.60898
1470243084452509,-0.387314,0.0767655,-2.60898
1470243084482032,-0.387158,0.0768486,-2.60898
1470243084498547,-0.387596,0.0767149,-2.60901
1470243084512593,-0.38773,0.0766335,-2.60892
1470243084535582,-0.38773,0.0766335,-2.60892
1470243084558659,-0.38773,0.0766335,-2.60892
1470243084572613,-0.38773,0.0766335,-2.60892
1470243084595635,-0.38773,0.0766335,-2.60892
1470243084624661,-0.387627,0.0765993,-2.60899
1470243084632669,-0.387627,0.0765993,-2.60899
1470243084655691,-0.387627,0.0765993,-2.60899
1470243084678210,-0.387627,0.0765993,-2.60899
1470243084692722,-0.387627,0.0765993,-2.60899
1470243084716265,-0.387627,0.0765993,-2.60899
1470243084738263,-0.387502,0.0765668,-2.60896
1470243084759281,-0.387502,0.0765668,-2.60896
1470243084775857,-0.387471,0.0766824,-2.60898
1470243084798377,-0.387471,0.0766824,-2.60898
1470243084819396,-0.387471,0.0766824,-2.60898
1470243084835912,-0.387471,0.0766824,-2.60898
1470243084858431,-0.387471,0.0766824,-2.60898
1470243084879507,-0.387345,0.0766499,-2.60896
1470243084895965,-0.387345,0.0766499,-2.60896
1470243084918485,-0.387345,0.0766499,-2.60896
1470243084939596,-0.387345,0.0766499,-2.60896
1470243084956056,-0.387314,0.0767655,-2.60898
1470243084978584,-0.387314,0.0767655,-2.60898
1470243084999559,-0.387189,0.0767331,-2.60896
1470243085015572,-0.387189,0.0767331,-2.60896
1470243085038593,-0.387189,0.0767331,-2.60896
1470243085067118,-0.387189,0.0767331,-2.60896
1470243085076126,-0.387189,0.0767331,-2.60896
1470243085098646,-0.387064,0.0767006,-2.60894
1470243085119666,-0.386399,0.0772864,-2.60896
1470243085135680,-0.385994,0.0778233,-2.60892
1470243085158204,-0.386087,0.0779714,-2.60896
1470243085180721,-0.384957,0.0783594,-2.60867
1470243085195735,-0.384337,0.078787,-2.60826
1470243085218254,-0.383946,0.079281,-2.60781
1470243085240775,-0.383512,0.0794858,-2.60749
1470243085255788,-0.383419,0.0793376,-2.60744
1470243085278308,-0.383494,0.0795586,-2.6071
1470243085300830,-0.383494,0.0795586,-2.6071
1470243085315842,-0.383463,0.0796742,-2.60712
1470243085338362,-0.383463,0.0796742,-2.60712
1470243085360884,-0.383463,0.0796742,-2.60712
1470243085375395,-0.383338,0.0796416,-2.60709
1470243085398416,-0.383849,0.0796818,-2.60698
1470243085420951,-0.383817,0.0797974,-2.607
1470243085434948,-0.383692,0.0797648,-2.60697
1470243085458470,-0.383692,0.0797648,-2.60697
1470243085480992,-0.383692,0.0797648,-2.60697
1470243085495002,-0.383692,0.0797648,-2.60697
1470243085518534,-0.383694,0.0797885,-2.60687
1470243085540543,-0.383569,0.0797559,-2.60685
1470243085555057,-0.383537,0.0798715,-2.60687
1470243085578577,-0.383537,0.0798715,-2.60687
1470243085601131,-0.382516,0.0797912,-2.60711
1470243085615113,-0.382538,0.0797897,-2.6072
1470243085638133,-0.382413,0.0797571,-2.60718
1470243085661151,-0.382382,0.0798727,-2.6072
1470243085682170,-0.382382,0.0798727,-2.6072
1470243085698685,-0.382382,0.0798727,-2.6072
1470243085720708,-0.382382,0.0798727,-2.6072
1470243085741749,-0.382537,0.079766,-2.6073
1470243085758252,-0.382796,0.0797171,-2.60723
1470243085780759,-0.382796,0.0797171,-2.60723
1470243085801799,-0.382764,0.0798327,-2.60725
1470243085818293,-0.38264,0.0798001,-2.60723
1470243085840850,-0.38264,0.0798001,-2.60723
1470243085861895,-0.382951,0.0796104,-2.60734
1470243085878347,-0.382826,0.0795778,-2.60731
1470243085900867,-0.382826,0.0795778,-2.60731
1470243085921919,-0.382826,0.0795778,-2.60731
1470243085938400,-0.383077,0.0796667,-2.60726
1470243085960939,-0.383046,0.0797823,-2.60728
1470243085981953,-0.382921,0.0797497,-2.60726
1470243085998455,-0.382952,0.0796341,-2.60724
1470243086020974,-0.382921,0.0797497,-2.60726
1470243086042047,-0.382952,0.0796341,-2.60724
1470243086058508,-0.383648,0.0794281,-2.6073
1470243086081029,-0.383648,0.0794281,-2.6073
1470243086103555,-0.383493,0.0795349,-2.6072
1470243086118562,-0.383493,0.0795349,-2.6072
1470243086141082,-0.383493,0.0795349,-2.6072
1470243086163613,-0.383493,0.0795349,-2.6072
1470243086178637,-0.383493,0.0795349,-2.6072
1470243086200638,-0.383368,0.0795023,-2.60717
1470243086223169,-0.383368,0.0795023,-2.60717
1470243086238182,-0.383337,0.0796179,-2.60719
1470243086260732,-0.383359,0.0796163,-2.60728
1470243086283212,-0.383234,0.0795837,-2.60726
1470243086297724,-0.383234,0.0795837,-2.60726
1470243086320744,-0.383234,0.0795837,-2.60726
1470243086343264,-0.383234,0.0795837,-2.60726
1470243086357777,-0.383109,0.0795511,-2.60724
1470243086380798,-0.383109,0.0795511,-2.60724
1470243086403344,-0.383109,0.0795511,-2.60724
1470243086417331,-0.382984,0.0795185,-2.60722
1470243086440887,-0.382952,0.0796341,-2.60724
1470243086463374,-0.382952,0.0796341,-2.60724
1470243086477385,-0.382952,0.0796341,-2.60724
1470243086500929,-0.382412,0.0797334,-2.60728
1470243086523445,-0.382412,0.0797334,-2.60728
1470243086537938,-0.382255,0.0798164,-2.60727
1470243086560959,-0.382255,0.0798164,-2.60727
1470243086583512,-0.382255,0.0798164,-2.60727
1470243086604516,-0.382255,0.0798164,-2.60727
1470243086621014,-0.38213,0.0797838,-2.60725
1470243086643541,-0.382099,0.0798994,-2.60727
1470243086664557,-0.382099,0.0798994,-2.60727
1470243086681067,-0.382099,0.0798994,-2.60727
1470243086703625,-0.381974,0.0798668,-2.60725
1470243086724606,-0.381974,0.0798668,-2.60725
1470243086740661,-0.381943,0.0799825,-2.60727
1470243086763641,-0.381965,0.079981,-2.60736
1470243086784160,-0.381965,0.079981,-2.60736
1470243086800674,-0.38184,0.0799483,-2.60733
1470243086823195,-0.381841,0.079972,-2.60724
1470243086845715,-0.38181,0.0800876,-2.60726
1470243086860729,-0.381685,0.080055,-2.60723
1470243086883252,-0.381913,0.0801218,-2.60719
1470243086904813,-0.382038,0.0801544,-2.60721
1470243086920807,-0.382038,0.0801544,-2.60721
1470243086943303,-0.381913,0.0801218,-2.60719
1470243086964322,-0.381913,0.0801218,-2.60719
1470243086980837,-0.381913,0.0801218,-2.60719
1470243087003357,-0.381788,0.0800891,-2.60717
1470243087024411,-0.381788,0.0800891,-2.60717
1470243087040890,-0.381788,0.0800891,-2.60717
1470243087063411,-0.381789,0.0801128,-2.60707
1470243087085931,-0.381789,0.0801128,-2.60707
1470243087100944,-0.381633,0.0801958,-2.60706
1470243087123467,-0.381655,0.0801943,-2.60715
1470243087145984,-0.381655,0.0801943,-2.60715
1470243087161040,-0.381113,0.08027,-2.60729
1470243087183519,-0.380957,0.080353,-2.60729
1470243087206038,-0.380957,0.080353,-2.60729
1470243087220052,-0.380957,0.080353,-2.60729
1470243087243572,-0.380957,0.080353,-2.60729
1470243087266108,-0.380333,0.0807087,-2.60718
1470243087280107,-0.379502,0.0809728,-2.6073
1470243087303629,-0.379377,0.0809402,-2.60728
1470243087325663,-0.379346,0.0810558,-2.6073
1470243087340159,-0.379015,0.0812939,-2.60691
1470243087363182,-0.378676,0.0816696,-2.60653
1470243087385725,-0.378676,0.0816696,-2.60653
1470243087400215,-0.378552,0.0816369,-2.6065
1470243087423234,-0.377824,0.0819349,-2.60656
1470243087446265,-0.377699,0.0819022,-2.60654
1470243087460272,-0.378332,0.0824466,-2.60664
1470243087483288,-0.379537,0.0827761,-2.60669
1470243087505810,-0.37986,0.0830147,-2.60659
1470243087520341,-0.379413,0.0832623,-2.60667
1470243087543348,-0.378965,0.0834864,-2.60686
1470243087565862,-0.378965,0.0834864,-2.60686
1470243087586895,-0.379132,0.083808,-2.60675
1470243087603411,-0.379454,0.0840466,-2.60665
1470243087625924,-0.380057,0.0842113,-2.60668
1470243087648437,-0.380661,0.0843997,-2.6066
1470243087663450,-0.381048,0.0844309,-2.60636
1470243087685970,-0.381527,0.0845867,-2.60627
1470243087708490,-0.381713,0.0848597,-2.60645
1470243087729510,-0.381691,0.0853563,-2.60647
1470243087746023,-0.382013,0.0855713,-2.60647
1470243087768544,-0.382293,0.0859926,-2.6067
1470243087783559,-0.382478,0.0872085,-2.6073
1470243087806078,-0.384433,0.0881335,-2.608
1470243087827096,-0.386076,0.0887522,-2.60849
1470243087843111,-0.386993,0.0892216,-2.60873
1470243087865631,-0.386004,0.0899923,-2.60925
1470243087886665,-0.384612,0.0908535,-2.60942
1470243087903165,-0.385581,0.0906266,-2.60872
1470243087925686,-0.385416,0.0902689,-2.60771
1470243087947238,-0.384005,0.0898357,-2.60668
1470243087963221,-0.381252,0.0894672,-2.60528
1470243087985741,-0.378815,0.0894492,-2.60389
1470243088008279,-0.377107,0.0891079,-2.60255
1470243088023273,-0.376003,0.0884587,-2.60103
1470243088045793,-0.375318,0.0876773,-2.59946
1470243088068314,-0.374311,0.0866319,-2.59809
1470243088083326,-0.373577,0.0856276,-2.59695
1470243088105848,-0.372933,0.0847016,-2.59615
1470243088128371,-0.372089,0.0840178,-2.59578
1470243088143380,-0.372061,0.0836609,-2.5956
1470243088165902,-0.373485,0.0831415,-2.59571
1470243088188422,-0.375346,0.0824909,-2.59584
1470243088202934,-0.377406,0.0820706,-2.59576
1470243088225955,-0.378334,0.0820072,-2.59548
1470243088248516,-0.37797,0.0823354,-2.5952
1470243088262487,-0.377177,0.0828836,-2.5952
1470243088286008,-0.377515,0.0835711,-2.59549
1470243088308529,-0.378777,0.0841481,-2.5957
1470243088323044,-0.380611,0.0844657,-2.59606
1470243088346062,-0.382379,0.0847039,-2.59616
1470243088368608,-0.382504,0.0847373,-2.59618
1470243088382596,-0.381754,0.08508,-2.59595
1470243088405621,-0.381597,0.0851621,-2.59595
1470243088428638,-0.382401,0.085066,-2.59565
1470243088442656,-0.384745,0.0845981,-2.59559
1470243088465670,-0.387102,0.0840408,-2.59532
1470243088488190,-0.387243,0.0835134,-2.59493
1470243088509225,-0.385728,0.0834125,-2.59458
1470243088525725,-0.384348,0.0832307,-2.59413
1470243088548245,-0.383098,0.0831532,-2.59342
1470243088569763,-0.381969,0.0830371,-2.59302
1470243088585780,-0.381937,0.0831526,-2.59304
1470243088608303,-0.381348,0.0829171,-2.59271
1470243088629939,-0.380747,0.0827718,-2.59259
1470243088645838,-0.380282,0.082546,-2.59237
1470243088668352,-0.380304,0.0825445,-2.59247
1470243088689396,-0.380179,0.082511,-2.59244
1470243088705886,-0.380179,0.082511,-2.59244
1470243088728408,-0.380179,0.082511,-2.59244
1470243088749427,-0.380179,0.082511,-2.59244
1470243088766440,-0.379701,0.0823519,-2.59254
1470243088788464,-0.379576,0.0823184,-2.59252
1470243088809504,-0.379576,0.0823184,-2.59252
1470243088826006,-0.379576,0.0823184,-2.59252
1470243088848513,-0.379576,0.0823184,-2.59252
1470243088877039,-0.379453,0.0823084,-2.59239
1470243088886048,-0.379421,0.0824239,-2.59242
1470243088908567,-0.379296,0.0823904,-2.59239
1470243088929586,-0.379296,0.0823904,-2.59239
1470243088945602,-0.379296,0.0823904,-2.59239
1470243088968178,-0.379296,0.0823904,-2.59239
1470243088990643,-0.379296,0.0823904,-2.59239
1470243089005654,-0.379172,0.0823568,-2.59237
1470243089028178,-0.379484,0.0821695,-2.59247
1470243089050740,-0.379484,0.0821695,-2.59247
1470243089065747,-0.379484,0.0821695,-2.59247
1470243089088729,-0.379484,0.0821695,-2.59247
1470243089110774,-0.379361,0.0821595,-2.59235
1470243089125262,-0.379359,0.082136,-2.59245
1470243089155828,-0.379359,0.082136,-2.59245
1470243089170803,-0.379359,0.082136,-2.59245
1470243089176308,-0.379236,0.082126,-2.59233
1470243089198831,-0.379236,0.082126,-2.59233
1470243089213867,-0.379235,0.0821025,-2.59243
1470243089236395,-0.379236,0.082126,-2.59233
1470243089252876,-0.379111,0.0820925,-2.5923
1470243089273979,-0.379111,0.0820925,-2.5923
1470243089296466,-0.379393,0.0820441,-2.59233
1470243089312931,-0.379642,0.0821111,-2.59238
1470243089341456,-0.379518,0.0820776,-2.59235
1470243089356470,-0.37962,0.0821126,-2.59229
1470243089372984,-0.379518,0.0820776,-2.59235
1470243089394006,-0.379518,0.0820776,-2.59235
1470243089416523,-0.379518,0.0820776,-2.59235
1470243089432538,-0.379518,0.0820776,-2.59235
1470243089454156,-0.379518,0.0820776,-2.59235
1470243089476676,-0.379518,0.0820776,-2.59235
1470243089492593,-0.379518,0.0820776,-2.59235
1470243089514137,-0.379518,0.0820776,-2.59235
1470243089536647,-0.379518,0.0820776,-2.59235
1470243089552645,-0.379518,0.0820776,-2.59235
1470243089574186,-0.379393,0.0820441,-2.59233
1470243089596205,-0.379393,0.0820441,-2.59233
1470243089612700,-0.379518,0.0820776,-2.59235
1470243089633718,-0.379393,0.0820441,-2.59233
1470243089656264,-0.379393,0.0820441,-2.59233
1470243089672753,-0.379394,0.0820676,-2.59223
1470243089693818,-0.379394,0.0820676,-2.59223
1470243089716322,-0.379393,0.0820441,-2.59233
1470243089732808,-0.379394,0.0820676,-2.59223
1470243089753830,-0.37927,0.0820341,-2.59221
1470243089776365,-0.37927,0.0820341,-2.59221
1470243089792861,-0.37927,0.0820341,-2.59221
1470243089816884,-0.37927,0.0820341,-2.59221
1470243089836400,-0.37927,0.0820341,-2.59221
1470243089852915,-0.37927,0.0820341,-2.59221
1470243089873933,-0.379238,0.0821495,-2.59223
1470243089896456,-0.379145,0.0820006,-2.59219
1470243089913970,-0.379145,0.0820006,-2.59219
1470243089933988,-0.379145,0.0820006,-2.59219
1470243089956508,-0.379113,0.082116,-2.59221
1470243089974525,-0.379113,0.082116,-2.59221
1470243089994160,-0.379113,0.082116,-2.59221
1470243090016077,-0.378988,0.0820825,-2.59218
1470243090034078,-0.37902,0.0819671,-2.59216
1470243090053596,-0.37902,0.0819671,-2.59216
1470243090076116,-0.378988,0.0820825,-2.59218
1470243090094132,-0.37902,0.0819671,-2.59216
1470243090113650,-0.378988,0.0820825,-2.59218
1470243090136169,-0.378988,0.0820825,-2.59218
1470243090154186,-0.37902,0.0819671,-2.59216
1470243090173703,-0.378988,0.0820825,-2.59218
1470243090196223,-0.378988,0.0820825,-2.59218
1470243090214240,-0.378988,0.0820825,-2.59218
1470243090233757,-0.378988,0.0820825,-2.59218
1470243090266787,-0.378988,0.0820825,-2.59218
1470243090274294,-0.378864,0.082049,-2.59216
1470243090293812,-0.378864,0.082049,-2.59216
1470243090316331,-0.378885,0.0820475,-2.59225
1470243090334349,-0.378885,0.0820475,-2.59225
1470243090353865,-0.378885,0.0820475,-2.59225
1470243090376386,-0.378885,0.0820475,-2.59225
1470243090394401,-0.378885,0.0820475,-2.59225
1470243090413920,-0.378885,0.0820475,-2.59225
1470243090436439,-0.378885,0.0820475,-2.59225
1470243090454457,-0.378885,0.0820475,-2.59225
1470243090473973,-0.378729,0.0821294,-2.59225
1470243090496493,-0.378729,0.0821294,-2.59225
1470243090514022,-0.378729,0.0821294,-2.59225
1470243090542536,-0.378729,0.0821294,-2.59225
1470243090556606,-0.378729,0.0821294,-2.59225
1470243090574064,-0.378729,0.0821294,-2.59225
1470243090595126,-0.378729,0.0821294,-2.59225
1470243090616643,-0.378155,0.0823402,-2.59231
1470243090634149,-0.378155,0.0823402,-2.59231
1470243090655136,-0.378155,0.0823402,-2.59231
1470243090676155,-0.378155,0.0823402,-2.59231
1470243090701677,-0.378155,0.0823402,-2.59231
1470243090715189,-0.378155,0.0823402,-2.59231
1470243090736242,-0.377495,0.0827833,-2.59231
1470243090754239,-0.377463,0.0828988,-2.59233
1470243090775248,-0.377463,0.0828988,-2.59233
1470243090796296,-0.377463,0.0828988,-2.59233
1470243090821802,-0.377463,0.0828988,-2.59233
1470243090835298,-0.377463,0.0828988,-2.59233
1470243090856317,-0.377306,0.0829807,-2.59233
1470243090874350,-0.377306,0.0829807,-2.59233
1470243090896864,-0.377682,0.0831048,-2.5923
1470243090916407,-0.377846,0.0834276,-2.5922
1470243090934393,-0.378041,0.0841773,-2.59198
1470243090956910,-0.378577,0.0845538,-2.59215
1470243090976424,-0.379591,0.0850893,-2.59221
1470243090994440,-0.380036,0.0853403,-2.59224
1470243091016960,-0.380344,0.0856482,-2.59245
1470243091036482,-0.380344,0.0856482,-2.59245
1470243091055009,-0.38054,0.085832,-2.59242
1470243091077014,-0.381133,0.0861389,-2.59246
1470243091097532,-0.38142,0.086448,-2.59258
1470243091114048,-0.38142,0.086448,-2.59258
1470243091136568,-0.38142,0.086448,-2.59258
1470243091156586,-0.38142,0.086448,-2.59258
1470243091174102,-0.38142,0.086448,-2.59258
1470243091196624,-0.381388,0.0865634,-2.5926
1470243091216640,-0.381264,0.0865536,-2.59248
1470243091234157,-0.381264,0.0865536,-2.59248
1470243091256678,-0.381793,0.0865248,-2.59275
1470243091276285,-0.382332,0.0863819,-2.59291
1470243091294210,-0.382332,0.0863819,-2.59291
1470243091316773,-0.382072,0.0864289,-2.59297
1470243091336248,-0.382072,0.0864289,-2.59297
1470243091354263,-0.38204,0.0865444,-2.59299
1470243091376786,-0.382041,0.0865681,-2.59289
1470243091399304,-0.382041,0.0865681,-2.59289
1470243091414317,-0.382041,0.0865681,-2.59289
1470243091436839,-0.381572,0.0868376,-2.59279
1470243091463862,-0.380875,0.0870386,-2.59272
1470243091481879,-0.379681,0.0871527,-2.59236
1470243091496894,-0.378644,0.0871846,-2.59201
1470243091525419,-0.377545,0.0869046,-2.59179
1470243091534427,-0.376537,0.08675,-2.59172
1470243091556946,-0.376559,0.0867488,-2.59181
1470243091577469,-0.376479,0.0865324,-2.59146
1470243091594479,-0.376348,0.0861176,-2.59144
1470243091617000,-0.376348,0.0861176,-2.59144
1470243091638021,-0.376348,0.0861176,-2.59144
1470243091654659,-0.376348,0.0861176,-2.59144
1470243091676052,-0.376316,0.086233,-2.59146
1470243091697097,-0.376192,0.0861994,-2.59144
1470243091713586,-0.376192,0.0861994,-2.59144
1470243091736127,-0.376192,0.0861994,-2.59144
1470243091757148,-0.376159,0.0863149,-2.59146
1470243091773640,-0.376192,0.0861994,-2.59144
1470243091796161,-0.376159,0.0863149,-2.59146
1470243091818682,-0.375755,0.0863529,-2.59131
1470243091840700,-0.375755,0.0863529,-2.59131
1470243091856219,-0.375755,0.0863529,-2.59131
1470243091878234,-0.375722,0.0864684,-2.59133
1470243091899753,-0.375722,0.0864684,-2.59133
1470243091916283,-0.375722,0.0864684,-2.59133
1470243091938310,-0.375722,0.0864684,-2.59133
1470243091953301,-0.375722,0.0864684,-2.59133
1470243091975823,-0.375722,0.0864684,-2.59133
1470243091998342,-0.375722,0.0864684,-2.59133
1470243092012855,-0.375598,0.0864348,-2.59131
1470243092035899,-0.375598,0.0864348,-2.59131
1470243092058395,-0.376004,0.0864202,-2.59136
1470243092072909,-0.376004,0.0864202,-2.59136
1470243092095936,-0.376004,0.0864202,-2.59136
1470243092118449,-0.376004,0.0864202,-2.59136
1470243092132962,-0.376004,0.0864202,-2.59136
1470243092155984,-0.375879,0.0863866,-2.59133
1470243092178505,-0.376193,0.0862229,-2.59134
1470243092193016,-0.376193,0.0862229,-2.59134
1470243092216037,-0.376451,0.0861524,-2.59137
1470243092238559,-0.376451,0.0861524,-2.59137
1470243092252570,-0.376451,0.0861524,-2.59137
1470243092276091,-0.376857,0.0861378,-2.59142
1470243092298111,-0.376857,0.0861378,-2.59142
1470243092319684,-0.376857,0.0861378,-2.59142
1470243092336145,-0.377429,0.0859037,-2.59146
1470243092358665,-0.377991,0.0857837,-2.59162
1470243092379713,-0.377991,0.0857837,-2.59162
1470243092396199,-0.378116,0.0858173,-2.59164
1470243092418719,-0.378116,0.0858173,-2.59164
1470243092439738,-0.378116,0.0858173,-2.59164
1470243092455752,-0.378116,0.0858173,-2.59164
1470243092478273,-0.378116,0.0858173,-2.59164
1470243092499293,-0.378116,0.0858173,-2.59164
1470243092515807,-0.378408,0.0856549,-2.59156
1470243092538328,-0.378845,0.0855012,-2.59168
1470243092559903,-0.378813,0.0856166,-2.5917
1470243092575862,-0.378845,0.0855012,-2.59168
1470243092598381,-0.378845,0.0855012,-2.59168
1470243092619426,-0.378845,0.0855012,-2.59168
1470243092635914,-0.378845,0.0855012,-2.59168
1470243092658434,-0.378845,0.0855012,-2.59168
1470243092679453,-0.378845,0.0855012,-2.59168
1470243092695976,-0.378845,0.0855012,-2.59168
1470243092718488,-0.378845,0.0855012,-2.59168
1470243092739508,-0.378845,0.0855012,-2.59168
1470243092756022,-0.378845,0.0855012,-2.59168
1470243092778542,-0.378845,0.0855012,-2.59168
1470243092801063,-0.378845,0.0855012,-2.59168
1470243092816076,-0.378845,0.0855012,-2.59168
1470243092838596,-0.378845,0.0855012,-2.59168
1470243092868623,-0.378813,0.0856166,-2.5917
1470243092876130,-0.378688,0.0855831,-2.59168
1470243092898649,-0.378688,0.0855831,-2.59168
1470243092921170,-0.378688,0.0855831,-2.59168
1470243092935183,-0.378688,0.0855831,-2.59168
1470243092958705,-0.378688,0.0855831,-2.59168
1470243092980728,-0.378688,0.0855831,-2.59168
1470243092995236,-0.378688,0.0855831,-2.59168
1470243093018267,-0.378688,0.0855831,-2.59168
1470243093041280,-0.378688,0.0855831,-2.59168
1470243093055292,-0.378688,0.0855831,-2.59168
1470243093078311,-0.378688,0.0855831,-2.59168
1470243093100851,-0.378563,0.0855495,-2.59166
1470243093115345,-0.378563,0.0855495,-2.59166
1470243093138387,-0.378563,0.0855495,-2.59166
1470243093160885,-0.378563,0.0855495,-2.59166
1470243093175398,-0.378283,0.0856213,-2.59153
1470243093198420,-0.377868,0.0857736,-2.59149
1470243093220939,-0.377868,0.0857736,-2.59149
1470243093235452,-0.377868,0.0857736,-2.59149
1470243093258472,-0.377743,0.08574,-2.59147
1470243093280995,-0.377743,0.08574,-2.59147
1470243093309521,-0.377743,0.08574,-2.59147
1470243093318527,-0.377743,0.08574,-2.59147
1470243093341054,-0.377743,0.08574,-2.59147
1470243093362095,-0.377743,0.08574,-2.59147
1470243093378581,-0.377711,0.0858554,-2.59149
1470243093401101,-0.377202,0.0858352,-2.59151
1470243093422120,-0.377171,0.0859741,-2.59143
1470243093438639,-0.377046,0.0859405,-2.59141
1470243093461160,-0.377046,0.0859405,-2.59141
1470243093482176,-0.377077,0.0858016,-2.59149
1470243093498189,-0.377202,0.0858352,-2.59151
1470243093520709,-0.377171,0.0859741,-2.59143
1470243093542289,-0.377171,0.0859741,-2.59143
1470243093558244,-0.377461,0.0857882,-2.59144
1470243093580764,-0.377461,0.0857882,-2.59144
1470243093602321,-0.377586,0.0858218,-2.59147
1470243093618312,-0.377461,0.0857882,-2.59144
1470243093640820,-0.377461,0.0857882,-2.59144
1470243093662340,-0.377494,0.0856728,-2.59142
1470243093678352,-0.377494,0.0856728,-2.59142
1470243093700873,-0.377618,0.0857064,-2.59145
1470243093723412,-0.377618,0.0857064,-2.59145
1470243093738404,-0.377586,0.0858218,-2.59147
1470243093760930,-0.377618,0.0857064,-2.59145
1470243093783450,-0.377618,0.0857064,-2.59145
1470243093798459,-0.377618,0.0857064,-2.59145
1470243093820986,-0.377325,0.0858453,-2.59163
1470243093843500,-0.377325,0.0858453,-2.59163
1470243093858527,-0.377325,0.0858453,-2.59163
1470243093881065,-0.377325,0.0858453,-2.59163
1470243093903567,-0.377325,0.0858453,-2.59163
1470243093918066,-0.377325,0.0858453,-2.59163
1470243093941105,-0.377293,0.0859608,-2.59165
1470243093963609,-0.377293,0.0859608,-2.59165
1470243093977619,-0.376825,0.0862533,-2.59144
1470243094001140,-0.375784,0.0867564,-2.5913
1470243094031166,-0.375896,0.0872427,-2.59092
1470243094037673,-0.374958,0.0883695,-2.59041
1470243094060694,-0.374022,0.0899507,-2.58891
1470243094083714,-0.373756,0.0908545,-2.58847
1470243094097726,-0.374386,0.0914283,-2.58848
1470243094121247,-0.375176,0.091378,-2.58859
