timestamp,x,y,z,w
1470332122675083,-0.195435,-0.190796,0.412659,0.868958
1470332122698105,-0.195435,-0.190796,0.412659,0.868958
1470332122713119,-0.195435,-0.190796,0.41272,0.868958
1470332122736639,-0.195435,-0.190796,0.412659,0.868958
1470332122758158,-0.195435,-0.190796,0.412659,0.868896
1470332122773171,-0.195435,-0.190796,0.412659,0.868958
1470332122796693,-0.195435,-0.190796,0.412659,0.868896
1470332122851242,-0.195496,-0.190796,0.412659,0.868896
1470332122853244,-0.195496,-0.190796,0.412659,0.868896
1470332122858248,-0.19574,-0.190857,0.41272,0.868835
1470332122879267,-0.19574,-0.190918,0.41272,0.868835
1470332122896783,-0.19574,-0.190918,0.41272,0.868835
1470332122927310,-0.19574,-0.190857,0.41272,0.868835
1470332122977856,-0.195801,-0.190857,0.41272,0.868835
1470332122978857,-0.195801,-0.190857,0.41272,0.868835
1470332122979357,-0.195801,-0.190857,0.41272,0.868835
1470332122998374,-0.195801,-0.190857,0.41272,0.868835
1470332123014389,-0.195801,-0.190857,0.41272,0.868835
1470332123035408,-0.195679,-0.190918,0.412781,0.868835
1470332123057928,-0.195557,-0.190857,0.412903,0.868774
1470332123075443,-0.195557,-0.190796,0.412903,0.868774
1470332123095462,-0.195557,-0.190796,0.412903,0.868774
1470332123117981,-0.195557,-0.190796,0.412903,0.868774
1470332123135497,-0.195557,-0.190857,0.412903,0.868774
1470332123155515,-0.195557,-0.190857,0.412903,0.868774
1470332123178035,-0.195618,-0.190857,0.412903,0.868774
1470332123195551,-0.195618,-0.190857,0.412903,0.868774
1470332123215569,-0.195618,-0.190857,0.412903,0.868774
1470332123240591,-0.195618,-0.190857,0.412903,0.868774
1470332123255607,-0.195618,-0.190796,0.412903,0.868774
1470332123276623,-0.195679,-0.190796,0.412903,0.868774
1470332123297643,-0.195679,-0.190796,0.412903,0.868774
1470332123315659,-0.19574,-0.190796,0.412903,0.868774
1470332123336679,-0.19574,-0.190796,0.412903,0.868774
1470332123357696,-0.19574,-0.190796,0.412903,0.868774
1470332123383219,-0.19574,-0.190796,0.412964,0.868774
1470332123396734,-0.19574,-0.190796,0.412964,0.868774
1470332123417750,-0.19574,-0.190796,0.412964,0.868713
1470332123435768,-0.19574,-0.190796,0.412964,0.868713
1470332123456787,-0.195801,-0.190796,0.412964,0.868713
1470332123479307,-0.195801,-0.190796,0.412964,0.868713
1470332123495864,-0.195801,-0.190735,0.412964,0.868713
1470332123516839,-0.195862,-0.190735,0.412964,0.868713
1470332123537857,-0.195862,-0.190735,0.412964,0.868713
1470332123555874,-0.195862,-0.190735,0.412964,0.868713
1470332123578397,-0.195862,-0.190735,0.412964,0.868713
1470332123597912,-0.195923,-0.190735,0.412964,0.868713
1470332123615428,-0.195923,-0.190735,0.412964,0.868713
1470332123636447,-0.196289,-0.190735,0.413025,0.868591
1470332123657467,-0.196289,-0.190735,0.413025,0.868591
1470332123675483,-0.196289,-0.190735,0.413025,0.868591
1470332123697002,-0.196289,-0.190735,0.413025,0.868591
1470332123718021,-0.196289,-0.190735,0.413025,0.868591
1470332123735536,-0.19635,-0.190674,0.413025,0.868591
1470332123758056,-0.19635,-0.190674,0.413025,0.868591
1470332123778074,-0.19635,-0.190674,0.413025,0.868591
1470332123795590,-0.19635,-0.190674,0.413025,0.868591
1470332123818111,-0.196411,-0.190735,0.413025,0.868591
1470332123837628,-0.196411,-0.190735,0.413025,0.86853
1470332123855645,-0.196411,-0.190674,0.413025,0.86853
1470332123878164,-0.196472,-0.190674,0.413025,0.86853
1470332123897681,-0.196472,-0.190674,0.413025,0.86853
1470332123916198,-0.196472,-0.190552,0.413086,0.86853
1470332123938218,-0.196472,-0.190552,0.413086,0.86853
1470332123959737,-0.196533,-0.190552,0.413086,0.86853
1470332123980758,-0.196533,-0.190552,0.413086,0.86853
1470332123997271,-0.196533,-0.190552,0.413086,0.86853
1470332124019791,-0.196533,-0.190552,0.413086,0.86853
1470332124040839,-0.196533,-0.190552,0.413086,0.86853
1470332124057326,-0.196533,-0.190552,0.413086,0.86853
1470332124079846,-0.196594,-0.190552,0.413147,0.86853
1470332124100865,-0.196594,-0.190552,0.413147,0.86853
1470332124124885,-0.196655,-0.190491,0.413147,0.86853
1470332124139899,-0.196655,-0.190491,0.413147,0.86853
1470332124160918,-0.196899,-0.190552,0.413086,0.868469
1470332124177433,-0.197266,-0.190613,0.413025,0.868408
1470332124199953,-0.197327,-0.190613,0.413025,0.868408
1470332124229981,-0.197327,-0.190613,0.413025,0.868408
1470332124237487,-0.197327,-0.190613,0.413025,0.868347
1470332124260026,-0.197693,-0.190552,0.412964,0.868347
1470332124282528,-0.197693,-0.190552,0.412964,0.868347
1470332124297570,-0.197998,-0.190552,0.412903,0.868286
1470332124320060,-0.198242,-0.190552,0.412781,0.868286
1470332124342581,-0.198486,-0.190552,0.412598,0.868286
1470332124357594,-0.198975,-0.190613,0.412476,0.868286
1470332124379615,-0.199463,-0.190552,0.412292,0.868286
1470332124402657,-0.19989,-0.190491,0.412048,0.868286
1470332124416664,-0.200623,-0.190735,0.411743,0.868225
1470332124439668,-0.201599,-0.19104,0.411255,0.868103
1470332124462190,-0.202637,-0.191528,0.410767,0.868042
1470332124476702,-0.203735,-0.191772,0.410278,0.86792
1470332124499723,-0.204712,-0.192078,0.409668,0.86792
1470332124522243,-0.205139,-0.192261,0.409119,0.868042
1470332124536756,-0.205444,-0.192444,0.408691,0.868164
1470332124559777,-0.20575,-0.192749,0.408264,0.868164
1470332124582297,-0.205994,-0.193115,0.407959,0.868225
1470332124596810,-0.206116,-0.19342,0.407715,0.868225
1470332124619830,-0.206299,-0.193726,0.407532,0.868225
1470332124642371,-0.20636,-0.194092,0.407288,0.868225
1470332124656889,-0.20636,-0.194458,0.407043,0.868286
1470332124679885,-0.206238,-0.194885,0.406738,0.868347
1470332124702404,-0.206299,-0.19519,0.406494,0.868347
1470332124723427,-0.206543,-0.195618,0.40625,0.868286
1470332124739938,-0.206482,-0.195923,0.406006,0.868347
1470332124762460,-0.20636,-0.196045,0.405762,0.86853
1470332124783478,-0.206299,-0.196106,0.405518,0.868591
1470332124799993,-0.206116,-0.196167,0.405334,0.868713
1470332124828520,-0.205933,-0.196167,0.405212,0.868835
1470332124843532,-0.205688,-0.196106,0.40509,0.868958
1470332124860066,-0.205444,-0.196045,0.404907,0.869141
1470332124882565,-0.205139,-0.196106,0.404663,0.869324
1470332124903585,-0.204773,-0.196228,0.404358,0.869507
1470332124920099,-0.204468,-0.196472,0.404053,0.869629
1470332124942638,-0.204285,-0.196655,0.403809,0.869751
1470332124963638,-0.203735,-0.196716,0.403564,0.869995
1470332124979655,-0.203247,-0.196777,0.403381,0.870178
1470332125002174,-0.202942,-0.197021,0.403137,0.8703
1470332125023707,-0.202637,-0.197021,0.402893,0.870483
1470332125039708,-0.202148,-0.19696,0.402771,0.870667
1470332125062229,-0.201599,-0.196838,0.402588,0.870911
1470332125083747,-0.201172,-0.196716,0.402405,0.871094
1470332125099760,-0.200806,-0.196716,0.402222,0.871277
1470332125122313,-0.200439,-0.196594,0.402039,0.87146
1470332125143808,-0.200134,-0.196472,0.401855,0.871643
1470332125159815,-0.199829,-0.196289,0.401672,0.871826
1470332125182334,-0.199524,-0.196167,0.401489,0.87207
1470332125204858,-0.19928,-0.196106,0.401306,0.872192
1470332125219368,-0.198914,-0.195984,0.401123,0.872375
1470332125242409,-0.198425,-0.195923,0.40094,0.87262
1470332125264910,-0.198059,-0.195801,0.400879,0.872742
1470332125279922,-0.197754,-0.195679,0.400818,0.872864
1470332125302443,-0.197449,-0.195679,0.400757,0.872986
1470332125324963,-0.197266,-0.195679,0.400696,0.873047
1470332125339475,-0.196899,-0.19574,0.400696,0.873108
1470332125362496,-0.196899,-0.19574,0.400696,0.873108
1470332125385017,-0.196655,-0.195801,0.400635,0.873169
1470332125399532,-0.196533,-0.195679,0.400757,0.873169
1470332125422550,-0.196411,-0.195496,0.400818,0.87323
1470332125445070,-0.196167,-0.195129,0.40094,0.873291
1470332125459083,-0.196106,-0.194885,0.401184,0.873291
1470332125482649,-0.196228,-0.194824,0.401367,0.873169
1470332125505125,-0.196533,-0.194763,0.401489,0.873047
1470332125519142,-0.196838,-0.194641,0.401611,0.872925
1470332125542658,-0.197266,-0.19458,0.401672,0.872864
1470332125564679,-0.197815,-0.194702,0.40155,0.872742
1470332125579192,-0.198242,-0.194885,0.401367,0.872681
1470332125602213,-0.198547,-0.194885,0.401184,0.872681
1470332125624733,-0.198975,-0.195007,0.40094,0.872681
1470332125639246,-0.19928,-0.194946,0.400757,0.872681
1470332125662267,-0.199585,-0.194946,0.400635,0.872681
1470332125684787,-0.199585,-0.194946,0.400635,0.872681
1470332125705837,-0.199585,-0.194946,0.400635,0.872681
1470332125722338,-0.200012,-0.194885,0.400513,0.872681
1470332125744840,-0.200317,-0.194824,0.40033,0.872681
1470332125765902,-0.200317,-0.194641,0.400208,0.872803
1470332125782375,-0.200317,-0.194641,0.400208,0.872803
1470332125804894,-0.200317,-0.194641,0.400208,0.872803
1470332125825946,-0.200378,-0.194641,0.400269,0.872803
1470332125842471,-0.200378,-0.194641,0.400269,0.872742
1470332125864961,-0.200378,-0.194641,0.400269,0.872742
1470332125885967,-0.200378,-0.194641,0.400269,0.872742
1470332125902481,-0.200378,-0.194641,0.400269,0.872742
1470332125925002,-0.200378,-0.19458,0.400269,0.872742
1470332125946021,-0.200439,-0.19458,0.400269,0.872742
1470332125963037,-0.200439,-0.19458,0.400269,0.872742
1470332125985064,-0.200439,-0.19458,0.400269,0.872742
1470332126006098,-0.200439,-0.19458,0.400269,0.872742
1470332126022589,-0.200439,-0.194519,0.400269,0.872742
1470332126045110,-0.200378,-0.194519,0.400269,0.872742
1470332126066129,-0.200378,-0.194519,0.400269,0.872742
1470332126082644,-0.200439,-0.194458,0.400269,0.872742
1470332126104672,-0.200256,-0.194397,0.400269,0.872803
1470332126127185,-0.19989,-0.194275,0.40033,0.872925
1470332126142198,-0.199463,-0.194092,0.40033,0.873047
1470332126171229,-0.199219,-0.194031,0.400269,0.873169
1470332126187237,-0.198914,-0.193909,0.400269,0.87323
1470332126202250,-0.198547,-0.193787,0.400269,0.873352
1470332126224771,-0.198242,-0.193787,0.400269,0.873413
1470332126247291,-0.197876,-0.193665,0.40033,0.873474
1470332126262305,-0.197571,-0.193665,0.400452,0.873535
1470332126284824,-0.197327,-0.193665,0.400452,0.873596
1470332126307345,-0.196777,-0.193542,0.400513,0.873718
1470332126321362,-0.19635,-0.193359,0.400879,0.873657
1470332126344882,-0.194397,-0.192871,0.401794,0.873779
1470332126367426,-0.191284,-0.191956,0.403137,0.874084
1470332126381911,-0.189209,-0.1922,0.403992,0.874084
1470332126404947,-0.188232,-0.194397,0.403809,0.87384
1470332126427457,-0.189209,-0.198547,0.403748,0.872742
1470332126450022,-0.190796,-0.203308,0.404663,0.870911
1470332126464987,-0.190369,-0.205566,0.407227,0.869263
1470332126487507,-0.187805,-0.206543,0.410706,0.867981
1470332126508526,-0.186768,-0.207214,0.416016,0.865479
1470332126525042,-0.189209,-0.207092,0.424133,0.861023
1470332126547561,-0.192993,-0.203796,0.434143,0.855957
1470332126568585,-0.198914,-0.197632,0.446106,0.849854
1470332126585096,-0.208862,-0.191467,0.458435,0.842285
1470332126607114,-0.218506,-0.185913,0.471619,0.833801
1470332126628633,-0.228821,-0.179749,0.487122,0.823425
1470332126644652,-0.238098,-0.172424,0.505798,0.810974
1470332126667173,-0.244629,-0.166016,0.528259,0.795898
1470332126688688,-0.247925,-0.163696,0.554443,0.777344
1470332126704706,-0.246643,-0.165344,0.584534,0.755066
1470332126727223,-0.240479,-0.17218,0.617554,0.72876
1470332126748742,-0.229248,-0.18396,0.651794,0.699097
1470332126764256,-0.212463,-0.199951,0.685608,0.66687
1470332126787278,-0.192566,-0.21936,0.71759,0.632263
1470332126808313,-0.172302,-0.239807,0.74585,0.597046
1470332126824811,-0.155701,-0.260254,0.767822,0.564331
1470332126847331,-0.141235,-0.2771,0.785828,0.534546
1470332126868404,-0.130066,-0.292908,0.798828,0.509033
1470332126884379,-0.12323,-0.309631,0.807495,0.486694
1470332126907383,-0.117432,-0.327209,0.811768,0.469177
1470332126928435,-0.114014,-0.342041,0.812988,0.457214
1470332126944417,-0.112183,-0.350464,0.811829,0.453247
1470332126967438,-0.119141,-0.359802,0.805481,0.455505
1470332126988509,-0.129089,-0.365784,0.798218,0.460815
1470332127004471,-0.135559,-0.366089,0.792908,0.467834
1470332127027491,-0.139587,-0.364563,0.789063,0.474304
1470332127049030,-0.144226,-0.367676,0.785034,0.477112
1470332127064525,-0.147522,-0.373474,0.781555,0.477356
1470332127093642,-0.147156,-0.376953,0.78064,0.476257
1470332127110072,-0.144531,-0.378845,0.781311,0.474426
1470332127124097,-0.141479,-0.380737,0.781921,0.472839
1470332127147599,-0.139709,-0.383789,0.780762,0.472778
1470332127170119,-0.140076,-0.386658,0.778442,0.474182
1470332127184133,-0.140747,-0.387695,0.776978,0.475586
1470332127207153,-0.140015,-0.387512,0.776672,0.47644
1470332127229673,-0.139343,-0.388428,0.776428,0.476257
1470332127251254,-0.139709,-0.391357,0.775452,0.475403
1470332127267208,-0.14032,-0.393799,0.774475,0.474731
1470332127289729,-0.140564,-0.39447,0.774292,0.474426
1470332127311319,-0.140259,-0.393982,0.77478,0.474121
1470332127327262,-0.139771,-0.393799,0.775574,0.473206
1470332127349781,-0.138916,-0.39386,0.776306,0.472046
1470332127364294,-0.137695,-0.393677,0.777222,0.471191
1470332127387315,-0.135803,-0.392395,0.778625,0.470398
1470332127409837,-0.133423,-0.390808,0.780273,0.469666
1470332127424374,-0.13092,-0.389465,0.78186,0.468811
1470332127447369,-0.128296,-0.388367,0.783203,0.468262
1470332127469890,-0.125854,-0.387207,0.784424,0.467834
1470332127484436,-0.123535,-0.385986,0.785522,0.467651
1470332127507426,-0.121582,-0.384644,0.786499,0.46759
1470332127529944,-0.119995,-0.383911,0.787231,0.467346
1470332127544457,-0.118896,-0.383667,0.787842,0.466858
1470332127567492,-0.118103,-0.383484,0.788269,0.466431
1470332127589997,-0.117676,-0.383789,0.788208,0.46637
1470332127611032,-0.117676,-0.384277,0.787903,0.466492
1470332127627530,-0.117981,-0.384583,0.787659,0.466553
1470332127650060,-0.118469,-0.385437,0.787231,0.466553
1470332127671072,-0.118958,-0.386108,0.786743,0.466614
1470332127687585,-0.119202,-0.385986,0.786499,0.467102
1470332127710148,-0.119568,-0.386169,0.785767,0.468018
1470332127731123,-0.120483,-0.387146,0.784485,0.469177
1470332127747138,-0.121521,-0.387634,0.783569,0.470032
1470332127770158,-0.122375,-0.387512,0.783081,0.470764
1470332127791178,-0.122742,-0.38678,0.782898,0.471558
1470332127807192,-0.122803,-0.385437,0.783081,0.472351
1470332127829712,-0.122803,-0.384033,0.783325,0.473083
1470332127850763,-0.122742,-0.382751,0.783569,0.473694
1470332127867267,-0.122253,-0.381287,0.784119,0.474121
1470332127889766,-0.121704,-0.38031,0.784546,0.474304
1470332127911285,-0.121033,-0.379761,0.784973,0.474182
1470332127927300,-0.120361,-0.379822,0.785278,0.473877
1470332127949854,-0.119812,-0.38031,0.785217,0.473694
1470332127970884,-0.119507,-0.38147,0.78479,0.473511
1470332127987354,-0.11908,-0.383057,0.784058,0.473633
1470332127992880,-0.118652,-0.384949,0.783081,0.473755
1470332128015420,-0.118042,-0.38623,0.782532,0.473816
1470332128037899,-0.117432,-0.387512,0.781982,0.473816
1470332128054414,-0.117004,-0.388977,0.781372,0.473755
1470332128075451,-0.116394,-0.390259,0.780762,0.473816
1470332128097958,-0.115295,-0.391479,0.780151,0.474121
1470332128112966,-0.114258,-0.392456,0.779541,0.474548
1470332128135487,-0.113464,-0.392761,0.779358,0.474792
1470332128158007,-0.112854,-0.393066,0.779297,0.474792
1470332128173059,-0.112122,-0.393555,0.779114,0.474915
1470332128195540,-0.111145,-0.393982,0.778748,0.475281
1470332128226569,-0.110291,-0.394104,0.778625,0.475586
1470332128232617,-0.109436,-0.394287,0.778564,0.475769
1470332128255098,-0.108459,-0.394409,0.778442,0.476074
1470332128278115,-0.1073,-0.394714,0.778198,0.47644
1470332128292631,-0.10614,-0.395325,0.777771,0.47699
1470332128315683,-0.105225,-0.395752,0.777405,0.477356
1470332128337711,-0.104614,-0.395691,0.777588,0.477295
1470332128352723,-0.104248,-0.395508,0.777893,0.47699
1470332128375218,-0.103821,-0.394775,0.778381,0.476868
1470332128397723,-0.103271,-0.394348,0.778687,0.476929
1470332128412796,-0.102783,-0.395264,0.778015,0.477356
1470332128435273,-0.1026,-0.395813,0.777527,0.477661
1470332128457824,-0.1026,-0.395386,0.777893,0.477478
1470332128472790,-0.102417,-0.394592,0.778442,0.477234
1470332128495811,-0.102478,-0.393921,0.77887,0.477051
1470332128517890,-0.102417,-0.393555,0.779175,0.476929
1470332128532871,-0.102478,-0.393555,0.779175,0.476929
1470332128555410,-0.102478,-0.393555,0.779175,0.476868
1470332128577969,-0.102539,-0.393555,0.779175,0.476868
1470332128592909,-0.102844,-0.393555,0.779236,0.476685
1470332128615445,-0.10321,-0.393311,0.779419,0.476563
1470332128637966,-0.103516,-0.393127,0.77948,0.476563
1470332128654452,-0.103882,-0.3927,0.779602,0.476563
1470332128675472,-0.104248,-0.392212,0.779785,0.476624
1470332128697992,-0.104675,-0.391479,0.78009,0.476624
1470332128714006,-0.105225,-0.390747,0.780457,0.476563
1470332128735525,-0.105713,-0.389954,0.780701,0.476685
1470332128758054,-0.106079,-0.388855,0.781006,0.47699
1470332128774059,-0.106506,-0.387573,0.781372,0.477295
1470332128795080,-0.106873,-0.386658,0.781677,0.477539
1470332128818116,-0.107117,-0.385742,0.781921,0.477783
1470332128835615,-0.107239,-0.384705,0.782288,0.478027
1470332128855188,-0.107361,-0.384277,0.782349,0.478271
1470332128877665,-0.107544,-0.384277,0.782227,0.478394
1470332128894168,-0.107788,-0.384705,0.781982,0.478333
1470332128915189,-0.107788,-0.385681,0.781494,0.478394
1470332128937725,-0.107727,-0.387512,0.780457,0.478577
1470332128954235,-0.107666,-0.390076,0.778931,0.479004
1470332128975271,-0.10791,-0.393005,0.776978,0.479797
1470332128998265,-0.108459,-0.396179,0.774109,0.481628
1470332129015820,-0.110657,-0.399963,0.770264,0.484192
1470332129035294,-0.114624,-0.40332,0.765686,0.487671
1470332129057856,-0.119995,-0.405151,0.761169,0.492004
1470332129075923,-0.126099,-0.406006,0.756287,0.497253
1470332129095398,-0.132629,-0.405945,0.75116,0.503357
1470332129117883,-0.139648,-0.403076,0.746887,0.510071
1470332129135889,-0.145935,-0.397583,0.743164,0.518005
1470332129155403,-0.151978,-0.392151,0.738586,0.526794
1470332129177923,-0.157898,-0.387451,0.733459,0.535706
1470332129195939,-0.163757,-0.383423,0.727966,0.544189
1470332129215456,-0.168823,-0.378845,0.722351,0.553284
1470332129237976,-0.172974,-0.372803,0.716614,0.563477
1470332129256017,-0.176331,-0.365662,0.710266,0.575073
1470332129275569,-0.179382,-0.357239,0.703796,0.587219
1470332129298098,-0.182251,-0.348694,0.69696,0.599487
1470332129316115,-0.186096,-0.342285,0.688843,0.611267
1470332129335107,-0.189758,-0.336609,0.680176,0.622925
1470332129357612,-0.191772,-0.330261,0.671997,0.63446
1470332129376105,-0.194397,-0.324829,0.66333,0.645447
1470332129395618,-0.196899,-0.319336,0.654724,0.656189
1470332129418138,-0.199341,-0.314087,0.64679,0.66571
1470332129435682,-0.201355,-0.308777,0.639954,0.674194
1470332129455172,-0.202759,-0.303711,0.634277,0.681396
1470332129477718,-0.203491,-0.299072,0.6297,0.687439
1470332129501729,-0.203674,-0.295105,0.626038,0.692383
1470332129515260,-0.20459,-0.293701,0.62262,0.695801
1470332129537745,-0.204163,-0.292542,0.620667,0.698181
1470332129555822,-0.201599,-0.29126,0.620117,0.699951
1470332129576781,-0.197266,-0.290466,0.620178,0.701416
1470332129597799,-0.192139,-0.290649,0.620728,0.702271
1470332129621838,-0.185486,-0.290894,0.622253,0.702637
1470332129636836,-0.175537,-0.290588,0.624878,0.703064
1470332129657855,-0.164307,-0.291016,0.62738,0.703308
1470332129675872,-0.154907,-0.292297,0.629517,0.703003
1470332129696936,-0.14624,-0.292847,0.631653,0.702759
1470332129717946,-0.13855,-0.292603,0.633667,0.702576
1470332129735938,-0.132141,-0.291687,0.634888,0.703125
1470332129756942,-0.126465,-0.289734,0.635254,0.70459
1470332129778013,-0.121765,-0.286316,0.634949,0.707092
1470332129795977,-0.11908,-0.28186,0.634338,0.709839
1470332129818498,-0.118958,-0.277161,0.633057,0.712891
1470332129838015,-0.121582,-0.272766,0.630798,0.716125
1470332129855531,-0.125305,-0.268127,0.627686,0.719971
1470332129876550,-0.127686,-0.262573,0.624084,0.724731
1470332129898104,-0.130554,-0.256836,0.620483,0.72937
1470332129916188,-0.13501,-0.251648,0.616455,0.733704
1470332129938106,-0.140503,-0.247192,0.612122,0.737854
1470332129958122,-0.147461,-0.24408,0.6073,0.741516
1470332129975691,-0.154785,-0.241699,0.6026,0.744629
1470332129998218,-0.16095,-0.239624,0.598938,0.746887
1470332130018177,-0.166443,-0.238403,0.596313,0.74823
1470332130035692,-0.170593,-0.23822,0.595093,0.748352
1470332130058212,-0.172241,-0.239929,0.595825,0.746765
1470332130077745,-0.171326,-0.244385,0.59845,0.743469
1470332130095749,-0.167419,-0.249756,0.602295,0.739441
1470332130118267,-0.159912,-0.254211,0.606995,0.735779
1470332130137784,-0.149414,-0.257874,0.611633,0.732788
1470332130155801,-0.137512,-0.258789,0.615967,0.731201
1470332130178323,-0.127563,-0.257874,0.618591,0.731079
1470332130197838,-0.121704,-0.255371,0.618225,0.733337
1470332130215888,-0.118591,-0.249695,0.615417,0.738098
1470332130238375,-0.118103,-0.242004,0.610779,0.744568
1470332130257892,-0.119385,-0.232727,0.602417,0.754028
1470332130275908,-0.12384,-0.224426,0.590576,0.765198
1470332130298428,-0.130798,-0.218384,0.576111,0.776672
1470332130317946,-0.139587,-0.216492,0.560059,0.787354
1470332130336056,-0.148987,-0.216675,0.543274,0.797241
1470332130357986,-0.156921,-0.213989,0.528442,0.806396
1470332130378000,-0.161194,-0.208923,0.516418,0.814636
1470332130395516,-0.163696,-0.206299,0.505859,0.821411
1470332130418543,-0.166138,-0.207458,0.496582,0.826233
1470332130438054,-0.168274,-0.211365,0.489197,0.829224
1470332130455570,-0.168884,-0.215271,0.48468,0.83075
1470332130478590,-0.166565,-0.21759,0.4823,0.832031
1470332130498107,-0.163391,-0.21936,0.480408,0.833252
1470332130521161,-0.159912,-0.221497,0.47937,0.833984
1470332130537149,-0.157593,-0.224854,0.478821,0.833862
1470332130558704,-0.155884,-0.228638,0.478088,0.833557
1470332130581200,-0.154053,-0.231506,0.477295,0.833557
1470332130597697,-0.151367,-0.232422,0.476135,0.834412
1470332130618717,-0.148254,-0.2323,0.474609,0.835938
1470332130641236,-0.145203,-0.231628,0.473022,0.837524
1470332130657272,-0.143982,-0.232117,0.471985,0.838196
1470332130678777,-0.144592,-0.233459,0.471497,0.838013
1470332130694288,-0.144531,-0.234192,0.471252,0.837952
1470332130717305,-0.143127,-0.234314,0.471008,0.838318
1470332130738349,-0.140808,-0.234924,0.470581,0.838745
1470332130754851,-0.137695,-0.23584,0.470093,0.839294
1470332130783866,-0.13446,-0.236572,0.469543,0.839905
1470332130798885,-0.131592,-0.237061,0.468811,0.840576
1470332130814892,-0.1297,-0.238098,0.467651,0.841248
1470332130837412,-0.129272,-0.239746,0.466125,0.841736
1470332130858459,-0.129578,-0.241272,0.464661,0.842041
1470332130874446,-0.130798,-0.240967,0.463623,0.842529
1470332130897467,-0.129517,-0.238037,0.464111,0.843262
1470332130919986,-0.130066,-0.237244,0.463806,0.843567
1470332130934019,-0.133301,-0.238647,0.46283,0.843201
1470332130957520,-0.13385,-0.238159,0.46283,0.843262
1470332130980042,-0.131531,-0.235413,0.463745,0.843933
1470332130994053,-0.130615,-0.233521,0.463928,0.844482
1470332131017574,-0.131592,-0.233459,0.463379,0.844604
1470332131040094,-0.133545,-0.23407,0.462646,0.844604
1470332131062615,-0.135498,-0.234802,0.461792,0.844482
1470332131077677,-0.136841,-0.234863,0.461365,0.844482
1470332131100151,-0.137756,-0.23468,0.460938,0.844666
1470332131114161,-0.138672,-0.234497,0.460754,0.844666
1470332131137683,-0.139099,-0.234375,0.460938,0.844543
1470332131159709,-0.139343,-0.234192,0.460938,0.844543
1470332131174214,-0.140198,-0.234375,0.460632,0.844482
1470332131197738,-0.141174,-0.234619,0.460388,0.844421
1470332131219756,-0.141418,-0.234436,0.460571,0.84436
1470332131234269,-0.140991,-0.233521,0.460938,0.844421
1470332131257320,-0.140198,-0.232422,0.461243,0.844666
1470332131279850,-0.139282,-0.231323,0.46167,0.84491
1470332131294323,-0.138855,-0.230652,0.462158,0.84491
1470332131317343,-0.138916,-0.230225,0.463013,0.844543
1470332131339865,-0.139282,-0.230103,0.463318,0.84436
1470332131354376,-0.139893,-0.22998,0.463318,0.844299
1470332131377397,-0.140381,-0.229858,0.463562,0.844116
1470332131399917,-0.141052,-0.229675,0.463562,0.844055
1470332131420954,-0.142029,-0.22998,0.463135,0.843994
1470332131437451,-0.1427,-0.230652,0.462463,0.844055
1470332131459976,-0.142822,-0.230957,0.462036,0.844238
1470332131481021,-0.142761,-0.231079,0.461548,0.844482
1470332131497505,-0.143066,-0.231689,0.460632,0.844727
1470332131520025,-0.143616,-0.232483,0.459778,0.84491
1470332131541088,-0.144043,-0.232971,0.458862,0.845215
1470332131557558,-0.144348,-0.233398,0.457947,0.845581
1470332131580079,-0.144226,-0.233398,0.45697,0.846069
1470332131601098,-0.14447,-0.233337,0.455872,0.846619
1470332131617613,-0.14502,-0.233337,0.454651,0.847229
1470332131640142,-0.145386,-0.232727,0.453491,0.847961
1470332131661153,-0.145874,-0.231934,0.452698,0.848511
1470332131677667,-0.146057,-0.231384,0.451965,0.848999
1470332131700238,-0.146179,-0.230713,0.451233,0.849548
1470332131722738,-0.147095,-0.230103,0.450623,0.849854
1470332131737220,-0.148315,-0.229797,0.449951,0.850098
1470332131759755,-0.149048,-0.229187,0.449768,0.85022
1470332131781273,-0.149292,-0.228149,0.450012,0.850342
1470332131797282,-0.149597,-0.227112,0.450378,0.850342
1470332131819800,-0.150574,-0.226929,0.450378,0.85022
1470332131842318,-0.150879,-0.226624,0.450378,0.850281
1470332131857328,-0.150513,-0.225952,0.450378,0.850525
1470332131880348,-0.150452,-0.225464,0.450378,0.850647
1470332131902372,-0.150818,-0.225464,0.450317,0.850647
1470332131917382,-0.151611,-0.225586,0.450256,0.850525
1470332131939903,-0.152222,-0.225586,0.450195,0.850403
1470332131962425,-0.152405,-0.225403,0.450195,0.850464
1470332131976938,-0.152283,-0.225037,0.450317,0.850464
1470332131999957,-0.152161,-0.224792,0.4505,0.850464
1470332132022508,-0.152283,-0.224854,0.450684,0.850342
1470332132036992,-0.152344,-0.225098,0.450684,0.85022
1470332132060022,-0.152588,-0.225342,0.450806,0.850098
1470332132082534,-0.152954,-0.225586,0.450928,0.849854
1470332132097043,-0.153503,-0.225891,0.45105,0.84967
1470332132120064,-0.153503,-0.225891,0.45105,0.84967
1470332132142584,-0.153503,-0.225891,0.45105,0.84967
1470332132157098,-0.153564,-0.225586,0.45105,0.849731
1470332132180118,-0.153564,-0.225159,0.451111,0.849792
1470332132202642,-0.153625,-0.224731,0.451111,0.849915
1470332132216668,-0.153748,-0.224304,0.451111,0.849976
1470332132240175,-0.15387,-0.223816,0.451111,0.850098
1470332132262692,-0.154236,-0.223389,0.451111,0.850159
1470332132276705,-0.154785,-0.222778,0.451233,0.850159
1470332132300225,-0.155029,-0.222107,0.451294,0.85022
1470332132322746,-0.154846,-0.221375,0.451416,0.850403
1470332132343769,-0.154907,-0.220825,0.451355,0.850525
1470332132359780,-0.155151,-0.220398,0.451355,0.850647
1470332132389806,-0.155396,-0.220215,0.451233,0.850708
1470332132403823,-0.155762,-0.21991,0.451111,0.850769
1470332132419839,-0.155823,-0.219482,0.451111,0.850891
1470332132442353,-0.155579,-0.218994,0.451172,0.851013
1470332132463398,-0.155212,-0.218445,0.451416,0.851074
1470332132479887,-0.155334,-0.218201,0.451477,0.851135
1470332132502407,-0.155273,-0.217773,0.451538,0.851196
1470332132523945,-0.155151,-0.217468,0.451538,0.851257
1470332132539941,-0.155029,-0.217102,0.451538,0.851379
1470332132562461,-0.155151,-0.216919,0.451477,0.85144
1470332132591057,-0.155151,-0.216919,0.451477,0.85144
1470332132599996,-0.154968,-0.216736,0.451477,0.851501
1470332132622515,-0.154724,-0.21637,0.451538,0.851624
1470332132643611,-0.154663,-0.216125,0.451599,0.851685
1470332132660048,-0.154663,-0.216125,0.451599,0.851685
1470332132682572,-0.154663,-0.216187,0.451599,0.851685
1470332132703616,-0.154663,-0.216187,0.451599,0.851685
1470332132720102,-0.154968,-0.216125,0.451538,0.851685
1470332132742639,-0.154968,-0.216125,0.451538,0.851685
1470332132765143,-0.154785,-0.215942,0.451538,0.851746
1470332132780163,-0.154724,-0.215942,0.451538,0.851746
1470332132802676,-0.154724,-0.215942,0.451538,0.851746
1470332132825199,-0.15509,-0.216003,0.451477,0.851685
1470332132839711,-0.155212,-0.216125,0.451416,0.851685
1470332132868736,-0.155212,-0.216125,0.451416,0.851685
1470332132884759,-0.155212,-0.216125,0.451416,0.851685
1470332132900265,-0.155212,-0.216125,0.451416,0.851685
1470332132922289,-0.155212,-0.216125,0.451416,0.851685
1470332132944806,-0.155396,-0.216248,0.451355,0.851624
1470332132959351,-0.15564,-0.21637,0.451233,0.851624
1470332132982340,-0.15564,-0.21637,0.451233,0.851624
1470332133004860,-0.15564,-0.21637,0.451233,0.851624
1470332133019371,-0.15564,-0.21637,0.451233,0.851624
1470332133042393,-0.15564,-0.21637,0.451233,0.851624
1470332133064913,-0.15564,-0.21637,0.451233,0.851624
1470332133079425,-0.155701,-0.21637,0.451233,0.851624
1470332133102448,-0.155701,-0.21637,0.451233,0.851624
1470332133124966,-0.155945,-0.21637,0.451233,0.851624
1470332133139479,-0.156128,-0.216309,0.451111,0.851624
1470332133162501,-0.156128,-0.216309,0.451111,0.851624
1470332133185020,-0.156128,-0.216309,0.451111,0.851624
1470332133199546,-0.156128,-0.216309,0.451111,0.851624
1470332133222553,-0.156067,-0.216309,0.451111,0.851624
1470332133245074,-0.156067,-0.216309,0.451111,0.851624
1470332133266096,-0.156189,-0.21637,0.451111,0.851624
1470332133282610,-0.15625,-0.21637,0.451111,0.851624
1470332133305151,-0.156067,-0.216248,0.451111,0.851685
1470332133326177,-0.156067,-0.216187,0.451111,0.851685
1470332133342661,-0.156128,-0.216187,0.451111,0.851685
1470332133365181,-0.156128,-0.216187,0.451111,0.851685
1470332133386200,-0.156128,-0.216187,0.451111,0.851685
1470332133402716,-0.15625,-0.216003,0.45105,0.851685
1470332133424780,-0.156433,-0.215881,0.45105,0.851746
1470332133446254,-0.156494,-0.215637,0.45105,0.851746
1470332133462269,-0.156494,-0.215332,0.451111,0.851807
1470332133484791,-0.156799,-0.215088,0.451111,0.851807
1470332133506379,-0.157104,-0.215027,0.45105,0.851807
1470332133522323,-0.15741,-0.214905,0.450928,0.851807
1470332133544851,-0.157532,-0.214722,0.450867,0.851929
1470332133565862,-0.157593,-0.214417,0.450867,0.85199
1470332133582377,-0.157776,-0.214111,0.450806,0.852051
1470332133604897,-0.157837,-0.213867,0.450806,0.852112
1470332133626419,-0.157837,-0.213867,0.450806,0.852112
1470332133642431,-0.157776,-0.213806,0.450806,0.852112
1470332133664951,-0.158081,-0.21405,0.450806,0.85199
1470332133685972,-0.158264,-0.214294,0.450867,0.851868
1470332133701984,-0.158264,-0.214294,0.450867,0.851868
1470332133725010,-0.158264,-0.214294,0.450867,0.851868
1470332133747547,-0.158325,-0.214355,0.450867,0.851868
1470332133762539,-0.158325,-0.214355,0.450867,0.851868
1470332133785061,-0.158325,-0.214355,0.450867,0.851868
1470332133807579,-0.158386,-0.214355,0.450867,0.851868
1470332133822594,-0.158386,-0.214294,0.450867,0.851868
1470332133845113,-0.158569,-0.214294,0.450806,0.851868
1470332133867637,-0.158691,-0.214233,0.450806,0.851868
1470332133881647,-0.158691,-0.214172,0.450806,0.851868
1470332133905171,-0.158508,-0.213989,0.450928,0.851868
1470332133927686,-0.158264,-0.213867,0.45105,0.851868
1470332133941715,-0.158081,-0.213806,0.451233,0.851807
1470332133964768,-0.157898,-0.213867,0.451416,0.851746
1470332133987240,-0.157593,-0.213928,0.451599,0.851685
1470332134001755,-0.157349,-0.213928,0.451782,0.851685
1470332134024776,-0.157349,-0.214111,0.451843,0.851563
1470332134047302,-0.157349,-0.214111,0.451843,0.851563
1470332134061807,-0.157349,-0.214111,0.451904,0.851563
1470332134084828,-0.15741,-0.214111,0.451843,0.851563
1470332134114856,-0.15741,-0.214172,0.451843,0.851563
1470332134121861,-0.157776,-0.214233,0.451782,0.851501
1470332134152400,-0.158264,-0.214233,0.45166,0.85144
1470332134167402,-0.158752,-0.214233,0.451477,0.851501
1470332134181932,-0.159302,-0.214294,0.451172,0.851501
1470332134204937,-0.160095,-0.214478,0.450867,0.851501
1470332134227472,-0.161072,-0.2146,0.450562,0.85144
1470332134248477,-0.162048,-0.2146,0.450195,0.85144
1470332134264989,-0.162964,-0.214478,0.449707,0.851563
1470332134287510,-0.164001,-0.214294,0.449219,0.851624
1470332134308573,-0.165039,-0.213867,0.448853,0.851807
1470332134325063,-0.166199,-0.213623,0.448425,0.851807
1470332134347566,-0.167419,-0.213379,0.447937,0.851868
1470332134368597,-0.168518,-0.212891,0.44751,0.852051
1470332134392604,-0.169495,-0.212524,0.447083,0.852173
1470332134407617,-0.17041,-0.212097,0.446655,0.852295
1470332134430163,-0.171204,-0.211792,0.446167,0.852478
1470332134445151,-0.172058,-0.211487,0.44574,0.8526
1470332134467671,-0.172668,-0.211121,0.445435,0.852722
1470332134488691,-0.173157,-0.210754,0.44519,0.852844
1470332134505206,-0.173523,-0.210449,0.445007,0.852966
1470332134527226,-0.173767,-0.210144,0.444885,0.853027
1470332134548745,-0.174133,-0.209961,0.444763,0.853027
1470332134564759,-0.174744,-0.210022,0.44458,0.853027
1470332134587279,-0.175171,-0.210022,0.444458,0.853027
1470332134608799,-0.175171,-0.209778,0.444397,0.853088
1470332134624812,-0.17511,-0.209534,0.444336,0.85321
1470332134647335,-0.17511,-0.209534,0.444336,0.85321
1470332134669912,-0.17511,-0.209534,0.444336,0.85321
1470332134684869,-0.17511,-0.209534,0.444336,0.85321
1470332134707387,-0.174927,-0.209351,0.444275,0.853333
1470332134729910,-0.174927,-0.209351,0.444275,0.853333
1470332134744920,-0.174927,-0.209351,0.444275,0.853333
1470332134767455,-0.174927,-0.209351,0.444275,0.853333
1470332134789961,-0.174927,-0.209351,0.444275,0.853333
1470332134804991,-0.174805,-0.20929,0.444336,0.853333
1470332134827495,-0.174805,-0.209229,0.444336,0.853333
1470332134850016,-0.175049,-0.20929,0.444214,0.853333
1470332134864528,-0.175049,-0.20929,0.444214,0.853333
1470332134887554,-0.175049,-0.209106,0.444153,0.853394
1470332134910086,-0.175049,-0.209106,0.444153,0.853394
1470332134924582,-0.175049,-0.209045,0.444153,0.853455
1470332134947608,-0.175293,-0.209045,0.44397,0.853455
1470332134970129,-0.175293,-0.209045,0.44397,0.853455
1470332134991144,-0.175293,-0.209045,0.44397,0.853455
1470332135007657,-0.175293,-0.209045,0.44397,0.853455
1470332135030177,-0.175293,-0.209045,0.44397,0.853455
1470332135051197,-0.175476,-0.208984,0.44397,0.853455
1470332135067210,-0.175476,-0.208984,0.44397,0.853455
1470332135089730,-0.175476,-0.208984,0.44397,0.853455
1470332135104244,-0.175476,-0.208984,0.44397,0.853455
1470332135127265,-0.175476,-0.208984,0.44397,0.853455
1470332135149784,-0.175476,-0.208923,0.44397,0.853455
1470332135171334,-0.175476,-0.208923,0.44397,0.853455
1470332135187352,-0.175415,-0.208984,0.44397,0.853455
1470332135209839,-0.175476,-0.208923,0.44397,0.853455
1470332135231357,-0.175476,-0.208923,0.44397,0.853455
1470332135247372,-0.175476,-0.208923,0.44397,0.853455
1470332135269893,-0.17572,-0.208984,0.443726,0.853516
1470332135290940,-0.176086,-0.208984,0.443359,0.853638
1470332135307427,-0.176392,-0.208923,0.442932,0.853821
1470332135329948,-0.17688,-0.208862,0.442444,0.853943
1470332135350991,-0.177368,-0.208862,0.441895,0.854126
1470332135367481,-0.177734,-0.208618,0.441345,0.854431
1470332135390016,-0.177734,-0.208252,0.440796,0.854797
1470332135411020,-0.177612,-0.207947,0.440247,0.855164
1470332135427537,-0.177368,-0.207642,0.439758,0.855591
1470332135450054,-0.177063,-0.207092,0.439392,0.855896
1470332135471095,-0.176758,-0.206604,0.439148,0.856262
1470332135487589,-0.176086,-0.205994,0.438904,0.856628
1470332135510107,-0.175354,-0.205383,0.438782,0.857056
1470332135531171,-0.174866,-0.204834,0.438721,0.8573
1470332135547651,-0.1745,-0.204346,0.438721,0.857483
1470332135570161,-0.174255,-0.203918,0.438721,0.857605
1470332135591184,-0.17395,-0.20343,0.438721,0.857788
1470332135607695,-0.173767,-0.203003,0.43866,0.857971
1470332135630215,-0.173767,-0.203003,0.43866,0.857971
1470332135652236,-0.173706,-0.203003,0.43866,0.857971
1470332135667249,-0.17395,-0.203064,0.438599,0.857971
1470332135689769,-0.17395,-0.203064,0.438599,0.857971
1470332135712290,-0.173889,-0.203003,0.438599,0.857971
1470332135717836,-0.174133,-0.203064,0.438721,0.857849
1470332135733355,-0.174377,-0.203247,0.438904,0.857666
1470332135755353,-0.1745,-0.203247,0.439148,0.857483
1470332135777904,-0.174561,-0.203125,0.439453,0.857361
1470332135792889,-0.174744,-0.203247,0.439697,0.857178
1470332135815427,-0.175171,-0.203308,0.43988,0.856995
1470332135837903,-0.175415,-0.203308,0.440125,0.856812
1470332135852915,-0.175842,-0.20343,0.440308,0.856628
1470332135875435,-0.17627,-0.203613,0.44043,0.856384
1470332135897956,-0.176575,-0.203796,0.440552,0.856262
1470332135912972,-0.177063,-0.203979,0.440735,0.856018
1470332135935553,-0.177551,-0.204163,0.440796,0.855835
1470332135958009,-0.177917,-0.204102,0.440918,0.855713
1470332135973024,-0.178406,-0.204163,0.440979,0.85553
1470332135995543,-0.179138,-0.204163,0.44104,0.855408
1470332136018064,-0.179749,-0.204163,0.44104,0.855225
1470332136036080,-0.180298,-0.204041,0.441162,0.855103
1470332136055596,-0.180969,-0.203979,0.441223,0.854919
1470332136078117,-0.18158,-0.203918,0.441223,0.854797
1470332136093131,-0.182312,-0.204041,0.441223,0.854614
1470332136115187,-0.182983,-0.204163,0.441284,0.854431
1470332136138273,-0.183472,-0.204224,0.441345,0.854309
1470332136154192,-0.184021,-0.204285,0.441467,0.854126
1470332136175765,-0.184753,-0.20459,0.441528,0.853821
1470332136198235,-0.185364,-0.204712,0.441772,0.853516
1470332136214287,-0.185852,-0.204773,0.441956,0.853333
1470332136235277,-0.186401,-0.204834,0.442139,0.853088
1470332136257786,-0.187134,-0.204895,0.442261,0.852844
1470332136280299,-0.187744,-0.204956,0.442322,0.852661
1470332136295313,-0.188293,-0.205078,0.442322,0.852539
1470332136317836,-0.188965,-0.205261,0.442383,0.852295
1470332136334350,-0.189697,-0.205566,0.442383,0.852051
1470332136355367,-0.190247,-0.205811,0.442444,0.851868
1470332136377886,-0.190491,-0.205994,0.442505,0.851685
1470332136394402,-0.190857,-0.206116,0.442688,0.851501
1470332136415420,-0.191162,-0.206421,0.442871,0.851257
1470332136437941,-0.191528,-0.206848,0.442993,0.851013
1470332136454456,-0.191711,-0.207214,0.443054,0.850891
1470332136475475,-0.19165,-0.20752,0.443176,0.850769
1470332136497994,-0.191772,-0.207886,0.443237,0.850586
1470332136514509,-0.192017,-0.208313,0.443298,0.850403
1470332136535528,-0.192139,-0.208679,0.443359,0.850281
1470332136558048,-0.192078,-0.208679,0.443359,0.850281
1470332136576064,-0.192139,-0.208801,0.443481,0.850159
1470332136595582,-0.192139,-0.208923,0.443542,0.850098
1470332136617601,-0.192139,-0.208923,0.443604,0.850098
1470332136635618,-0.192139,-0.208923,0.443542,0.850098
1470332136655636,-0.192139,-0.208923,0.443542,0.850037
1470332136678156,-0.1922,-0.208923,0.443542,0.850037
1470332136695672,-0.1922,-0.208923,0.443542,0.850037
1470332136715190,-0.1922,-0.208923,0.443542,0.850037
1470332136737710,-0.1922,-0.208984,0.443542,0.850037
1470332136755728,-0.192261,-0.208984,0.443542,0.850037
1470332136775245,-0.192261,-0.208984,0.443542,0.850037
1470332136797793,-0.192322,-0.209106,0.443359,0.850098
1470332136815784,-0.192444,-0.20929,0.443054,0.850159
1470332136835356,-0.192139,-0.209412,0.44281,0.850342
1470332136857873,-0.191711,-0.209534,0.442566,0.850586
1470332136875834,-0.191162,-0.209595,0.442383,0.850769
1470332136895355,-0.190552,-0.209717,0.442322,0.850891
1470332136917892,-0.190186,-0.209961,0.442383,0.850891
1470332136935889,-0.189392,-0.210083,0.442444,0.851013
1470332136955470,-0.188538,-0.210205,0.442444,0.851135
1470332136977985,-0.188049,-0.210388,0.442566,0.851135
1470332136996000,-0.187805,-0.210693,0.442566,0.851135
1470332137015518,-0.187683,-0.210754,0.442627,0.851135
1470332137038038,-0.187439,-0.210693,0.442566,0.851196
1470332137056054,-0.187317,-0.210632,0.442444,0.851318
1470332137075693,-0.187378,-0.210632,0.442444,0.851318
1470332137098112,-0.187439,-0.210693,0.442261,0.851379
1470332137116152,-0.187195,-0.21051,0.442078,0.851563
1470332137135757,-0.186951,-0.210571,0.441833,0.851746
1470332137158145,-0.186523,-0.210632,0.44165,0.851929
1470332137175662,-0.185852,-0.210571,0.44165,0.852051
1470332137196680,-0.185608,-0.210876,0.441772,0.85199
1470332137218200,-0.18512,-0.21106,0.441833,0.85199
1470332137235715,-0.184631,-0.21106,0.441895,0.852051
1470332137257286,-0.184509,-0.211182,0.442139,0.851929
1470332137277796,-0.184387,-0.211243,0.442444,0.851807
1470332137295769,-0.184326,-0.211121,0.442749,0.851685
1470332137316834,-0.184326,-0.210938,0.442993,0.851624
1470332137338370,-0.184509,-0.210815,0.442993,0.851563
1470332137355857,-0.184998,-0.210938,0.442749,0.851624
1470332137376842,-0.185364,-0.210693,0.442505,0.851685
1470332137397896,-0.185852,-0.210266,0.442383,0.851746
1470332137415878,-0.186157,-0.209778,0.442322,0.851868
1470332137436915,-0.186096,-0.209229,0.442322,0.85199
1470332137457959,-0.185852,-0.208862,0.442383,0.852112
1470332137475931,-0.185791,-0.208801,0.442383,0.852112
1470332137496950,-0.185242,-0.208435,0.442505,0.852295
1470332137518072,-0.185059,-0.208191,0.442932,0.852112
1470332137535988,-0.184998,-0.208069,0.443359,0.85199
1470332137558523,-0.184692,-0.207764,0.443604,0.85199
1470332137578066,-0.184448,-0.207703,0.443909,0.851929
1470332137596039,-0.184692,-0.207886,0.444153,0.851685
1470332137618559,-0.184875,-0.207947,0.444336,0.851501
1470332137638077,-0.184814,-0.207886,0.444519,0.85144
1470332137656092,-0.184875,-0.207886,0.444519,0.85144
1470332137678615,-0.185486,-0.208069,0.444458,0.851318
1470332137698250,-0.186096,-0.208008,0.444336,0.851257
1470332137715679,-0.186584,-0.207703,0.444336,0.851196
1470332137738169,-0.18689,-0.207275,0.444336,0.851257
1470332137758185,-0.187012,-0.206848,0.444397,0.851318
1470332137775700,-0.187195,-0.206482,0.444458,0.851318
1470332137798725,-0.187317,-0.206116,0.444519,0.851318
1470332137818239,-0.187378,-0.205872,0.444519,0.851379
1470332137835754,-0.187378,-0.205811,0.444519,0.851379
1470332137858370,-0.187317,-0.205811,0.444519,0.85144
1470332137877844,-0.187378,-0.205811,0.444763,0.851318
1470332137895808,-0.187073,-0.205688,0.444946,0.851257
1470332137918347,-0.186646,-0.20575,0.445129,0.851257
1470332137937901,-0.186584,-0.205933,0.445313,0.851135
1470332137955862,-0.186523,-0.206116,0.445618,0.850952
1470332137978439,-0.186401,-0.206177,0.445801,0.85083
1470332137997944,-0.186462,-0.206177,0.445801,0.85083
1470332138015919,-0.186523,-0.206238,0.445801,0.85083
1470332138038437,-0.186707,-0.206238,0.445618,0.85083
1470332138057954,-0.187012,-0.206116,0.445557,0.850891
1470332138075970,-0.187317,-0.205872,0.445496,0.850891
1470332138098517,-0.1875,-0.205627,0.445435,0.850952
1470332138119518,-0.187317,-0.205322,0.445435,0.851074
1470332138136093,-0.187317,-0.205261,0.445435,0.851074
1470332138158543,-0.187317,-0.205261,0.445435,0.851074
1470332138179562,-0.187256,-0.205261,0.445435,0.851074
1470332138196113,-0.187256,-0.205627,0.445496,0.850952
1470332138224608,-0.187195,-0.205994,0.445557,0.85083
1470332138239616,-0.186707,-0.205994,0.445679,0.850891
1470332138255131,-0.186462,-0.206116,0.445801,0.850891
1470332138277651,-0.186646,-0.206421,0.445862,0.850708
1470332138298669,-0.186584,-0.206604,0.445862,0.850647
1470332138321205,-0.186401,-0.206482,0.445923,0.850708
1470332138337704,-0.186523,-0.20636,0.445862,0.850769
1470332138358795,-0.186951,-0.206299,0.445679,0.850769
1470332138375267,-0.187317,-0.206116,0.445496,0.85083
1470332138397758,-0.187622,-0.20575,0.445313,0.850952
1470332138418808,-0.187927,-0.205383,0.445129,0.851074
1470332138435291,-0.188171,-0.205078,0.445068,0.851135
1470332138457818,-0.188171,-0.205078,0.445068,0.851135
1470332138480333,-0.187927,-0.205078,0.444946,0.851257
1470332138494846,-0.187439,-0.205139,0.444885,0.851379
1470332138517418,-0.187134,-0.2052,0.444824,0.85144
1470332138539886,-0.186829,-0.205566,0.444885,0.851379
1470332138555429,-0.186462,-0.205811,0.445068,0.851318
1470332138577419,-0.185913,-0.205872,0.445251,0.851318
1470332138599941,-0.185791,-0.206055,0.445435,0.851196
1470332138614453,-0.185852,-0.206299,0.445557,0.851074
1470332138637474,-0.185913,-0.206299,0.445557,0.851074
1470332138659994,-0.186829,-0.206604,0.445374,0.850891
1470332138674507,-0.189026,-0.207458,0.444702,0.850525
1470332138697529,-0.191345,-0.208374,0.444214,0.850037
1470332138720048,-0.192627,-0.208801,0.444031,0.849731
1470332138734573,-0.192505,-0.208374,0.444214,0.849792
1470332138757582,-0.1922,-0.207764,0.444397,0.849915
1470332138780102,-0.19165,-0.20752,0.444397,0.850098
1470332138794114,-0.191711,-0.207581,0.444153,0.85022
1470332138817637,-0.192566,-0.208008,0.44397,0.849976
1470332138840155,-0.193359,-0.20874,0.443665,0.849792
1470332138854668,-0.193359,-0.209045,0.443604,0.849731
1470332138877691,-0.19281,-0.20874,0.443787,0.849854
1470332138900209,-0.1922,-0.208252,0.44397,0.849976
1470332138914722,-0.191406,-0.207825,0.444153,0.85022
1470332138937745,-0.190796,-0.207703,0.444092,0.850403
1470332138960264,-0.19043,-0.207703,0.44397,0.850586
1470332138981282,-0.189758,-0.207336,0.444031,0.850769
1470332138997296,-0.188965,-0.206482,0.444275,0.851013
1470332139019821,-0.18866,-0.20575,0.444397,0.851196
1470332139040854,-0.188721,-0.205383,0.444214,0.851318
1470332139057862,-0.188965,-0.205261,0.444031,0.85144
1470332139079872,-0.188965,-0.204956,0.444031,0.851501
1470332139100927,-0.188965,-0.204956,0.444031,0.851501
1470332139117409,-0.188904,-0.204956,0.444031,0.851563
1470332139139925,-0.189087,-0.205139,0.44397,0.851501
1470332139160945,-0.189209,-0.205505,0.443848,0.85144
1470332139177960,-0.189209,-0.205505,0.443848,0.851379
1470332139199981,-0.189209,-0.205505,0.443848,0.851379
1470332139221498,-0.189209,-0.205505,0.443848,0.851379
1470332139237512,-0.189209,-0.205505,0.443848,0.851379
1470332139260042,-0.189209,-0.205444,0.443909,0.85144
1470332139281051,-0.189453,-0.205566,0.443909,0.851318
1470332139297588,-0.189514,-0.205566,0.443909,0.851257
1470332139320087,-0.189636,-0.205383,0.443909,0.851318
1470332139341107,-0.190125,-0.205322,0.443787,0.851318
1470332139357620,-0.190613,-0.205383,0.443542,0.851257
1470332139380140,-0.191162,-0.205383,0.443359,0.851257
1470332139401178,-0.19165,-0.2052,0.443237,0.851257
1470332139417674,-0.19165,-0.204895,0.443176,0.851379
1470332139440194,-0.19165,-0.204834,0.443176,0.851379
1470332139462717,-0.191711,-0.204834,0.443176,0.851379
1470332139477743,-0.191589,-0.204895,0.443054,0.85144
1470332139500264,-0.191284,-0.205078,0.442871,0.851563
1470332139528776,-0.190735,-0.2052,0.442871,0.851685
1470332139537801,-0.190369,-0.205505,0.442932,0.851624
1470332139560302,-0.190247,-0.205933,0.443054,0.851501
1470332139583322,-0.190063,-0.206177,0.443176,0.851379
1470332139596837,-0.190125,-0.206421,0.443298,0.851257
1470332139619857,-0.19043,-0.206787,0.443359,0.851074
1470332139642426,-0.190857,-0.207031,0.44342,0.850891
1470332139656890,-0.191345,-0.207214,0.44342,0.850769
1470332139679914,-0.191406,-0.207214,0.44342,0.850708
1470332139702431,-0.191528,-0.207153,0.443176,0.85083
1470332139716943,-0.19165,-0.20697,0.442871,0.851013
1470332139740021,-0.191895,-0.206909,0.442688,0.851074
1470332139762484,-0.1922,-0.206848,0.442505,0.851135
1470332139776996,-0.192261,-0.206787,0.442322,0.851196
1470332139800019,-0.1922,-0.206726,0.442322,0.851257
1470332139822538,-0.191833,-0.206665,0.442322,0.851318
1470332139837050,-0.191223,-0.206543,0.442383,0.85144
1470332139860073,-0.190979,-0.206726,0.442566,0.85144
1470332139882592,-0.190796,-0.20697,0.442749,0.851257
1470332139897106,-0.190491,-0.207214,0.442932,0.851196
1470332139920129,-0.190063,-0.207336,0.443054,0.851196
1470332139942646,-0.189819,-0.207581,0.443176,0.851135
1470332139963667,-0.189636,-0.207764,0.443298,0.851074
1470332139980184,-0.189453,-0.208008,0.443298,0.851013
1470332140002701,-0.189453,-0.208313,0.443176,0.851013
1470332140023720,-0.189453,-0.208313,0.443176,0.851013
1470332140040234,-0.189453,-0.208435,0.442993,0.851074
1470332140062754,-0.189453,-0.208435,0.442993,0.851074
1470332140083786,-0.189453,-0.208435,0.442993,0.851074
1470332140100287,-0.189453,-0.208435,0.442993,0.851074
1470332140122807,-0.189453,-0.208435,0.442993,0.851074
1470332140143827,-0.189331,-0.208374,0.442871,0.851196
1470332140159868,-0.189331,-0.208496,0.442749,0.851257
1470332140190369,-0.189331,-0.208496,0.442749,0.851257
1470332140203884,-0.188965,-0.208435,0.442749,0.851318
1470332140220396,-0.188782,-0.208557,0.44281,0.851318
1470332140242415,-0.18866,-0.208679,0.44281,0.851318
1470332140263934,-0.188416,-0.208801,0.44281,0.851318
1470332140279949,-0.188354,-0.209045,0.44281,0.851257
1470332140302488,-0.188354,-0.209045,0.44281,0.851257
1470332140323532,-0.188354,-0.209045,0.44281,0.851257
1470332140340045,-0.188416,-0.209106,0.44281,0.851257
1470332140362524,-0.18866,-0.209106,0.442566,0.851318
1470332140385043,-0.188782,-0.208923,0.442322,0.85144
1470332140400057,-0.188904,-0.208801,0.442139,0.851563
1470332140422581,-0.189087,-0.208618,0.442017,0.851624
1470332140445097,-0.189087,-0.208374,0.441956,0.851746
1470332140460111,-0.189087,-0.208313,0.441956,0.851746
1470332140482660,-0.189087,-0.208313,0.441956,0.851746
1470332140505179,-0.188843,-0.208252,0.441833,0.851868
1470332140519667,-0.188477,-0.208069,0.441833,0.85199
1470332140542685,-0.188477,-0.208069,0.441833,0.85199
1470332140565205,-0.188477,-0.208008,0.441833,0.85199
1470332140579218,-0.188477,-0.208069,0.441833,0.85199
1470332140602738,-0.188171,-0.208008,0.441956,0.852051
1470332140625258,-0.188232,-0.208008,0.441956,0.852051
1470332140639307,-0.188232,-0.208008,0.441956,0.852051
1470332140662792,-0.188232,-0.208008,0.441895,0.85199
1470332140685813,-0.188293,-0.208008,0.441895,0.85199
1470332140699325,-0.188477,-0.208008,0.441772,0.852051
1470332140722351,-0.188599,-0.207886,0.44165,0.852112
1470332140744865,-0.188782,-0.207703,0.441589,0.852173
1470332140759426,-0.188843,-0.207397,0.441589,0.852234
1470332140782401,-0.189026,-0.207214,0.441528,0.852234
1470332140804920,-0.189026,-0.207214,0.441528,0.852234
1470332140819433,-0.189026,-0.207214,0.441528,0.852295
1470332140842456,-0.188599,-0.207092,0.441467,0.852417
1470332140864975,-0.188538,-0.207092,0.441467,0.852417
1470332140886493,-0.188538,-0.207275,0.441589,0.852356
1470332140902507,-0.188538,-0.207397,0.44165,0.852234
1470332140925037,-0.188354,-0.207397,0.441711,0.852234
1470332140946047,-0.188049,-0.207336,0.441772,0.852295
1470332140962561,-0.188049,-0.207336,0.441772,0.852295
1470332140985095,-0.188232,-0.207458,0.441772,0.852234
1470332141006148,-0.188538,-0.207642,0.441711,0.852173
1470332141022617,-0.188599,-0.207642,0.441711,0.852173
1470332141051156,-0.188782,-0.207581,0.441589,0.852173
1470332141066197,-0.188965,-0.207458,0.441406,0.852295
1470332141082669,-0.189087,-0.207275,0.441284,0.852356
1470332141105192,-0.189209,-0.207031,0.441223,0.852417
1470332141126250,-0.189209,-0.206848,0.441101,0.852539
1470332141142723,-0.189209,-0.206787,0.441101,0.852539
1470332141165243,-0.189209,-0.206787,0.441101,0.852539
1470332141193802,-0.189209,-0.206787,0.441101,0.852539
1470332141202777,-0.188782,-0.206726,0.44104,0.852661
1470332141225798,-0.188538,-0.206787,0.44104,0.852722
1470332141246316,-0.188477,-0.207031,0.441101,0.852661
1470332141262334,-0.188293,-0.207153,0.441162,0.8526
1470332141285390,-0.188293,-0.207092,0.441162,0.8526
1470332141307372,-0.188293,-0.207092,0.441162,0.8526
1470332141322425,-0.188354,-0.207153,0.441162,0.8526
1470332141345406,-0.188354,-0.207153,0.441162,0.8526
1470332141367425,-0.188354,-0.207153,0.441162,0.8526
1470332141382442,-0.188477,-0.207031,0.44104,0.852661
1470332141404959,-0.188782,-0.206848,0.440918,0.852722
1470332141427983,-0.189514,-0.206543,0.440613,0.852783
1470332141442493,-0.189636,-0.206238,0.440552,0.852844
1470332141465014,-0.189514,-0.205505,0.44104,0.852783
1470332141487535,-0.189331,-0.205017,0.441284,0.852844
1470332141502048,-0.189819,-0.205078,0.441162,0.852783
1470332141525067,-0.190552,-0.205811,0.440918,0.852539
1470332141547586,-0.19043,-0.206299,0.440918,0.852478
1470332141562108,-0.189758,-0.20636,0.441284,0.852417
1470332141585120,-0.189148,-0.20636,0.44165,0.852356
1470332141607641,-0.189026,-0.206421,0.441956,0.852234
1470332141622153,-0.189087,-0.206421,0.441956,0.852234
1470332141645189,-0.188965,-0.20636,0.441956,0.852234
1470332141667742,-0.188843,-0.206299,0.442017,0.852295
1470332141682207,-0.188843,-0.206238,0.442017,0.852295
1470332141705276,-0.188904,-0.206238,0.442017,0.852234
1470332141727748,-0.189148,-0.20636,0.441895,0.852234
1470332141741761,-0.189331,-0.206421,0.441589,0.852356
1470332141765283,-0.189331,-0.206238,0.441467,0.852417
1470332141787302,-0.189331,-0.206238,0.441528,0.852417
1470332141801815,-0.18927,-0.206177,0.441528,0.852478
1470332141825336,-0.18927,-0.206177,0.441528,0.852478
1470332141847372,-0.18927,-0.206177,0.441528,0.852478
1470332141868875,-0.189209,-0.206177,0.441528,0.852478
1470332141885389,-0.189026,-0.206238,0.441528,0.852478
1470332141907412,-0.188599,-0.206055,0.441711,0.852539
1470332141928484,-0.188171,-0.205872,0.441895,0.852539
1470332141944945,-0.187988,-0.20575,0.442078,0.852539
1470332141967463,-0.187988,-0.20575,0.442078,0.852539
1470332141988484,-0.187988,-0.205688,0.442139,0.852539
1470332142005000,-0.187927,-0.205566,0.442139,0.8526
1470332142027564,-0.187927,-0.205627,0.442078,0.8526
1470332142048606,-0.188354,-0.205811,0.441833,0.8526
1470332142065051,-0.188599,-0.205994,0.441467,0.852661
1470332142087575,-0.188721,-0.205994,0.441284,0.852722
1470332142108646,-0.188904,-0.206116,0.44104,0.852783
1470332142125110,-0.189209,-0.206238,0.44104,0.852722
1470332142147625,-0.189209,-0.206238,0.44104,0.852722
1470332142168698,-0.189209,-0.206177,0.44104,0.852722
1470332142185159,-0.189209,-0.206177,0.44104,0.852722
1470332142207679,-0.189209,-0.206238,0.44104,0.852722
1470332142228732,-0.189209,-0.206177,0.44104,0.852722
1470332142245228,-0.189209,-0.206177,0.44104,0.852722
1470332142268233,-0.188965,-0.206299,0.44104,0.852722
1470332142290253,-0.188538,-0.20636,0.441101,0.852783
1470332142305267,-0.188538,-0.206299,0.441101,0.852783
1470332142327787,-0.188538,-0.20636,0.441101,0.852783
1470332142350331,-0.188538,-0.20636,0.441101,0.852783
1470332142364845,-0.188538,-0.20636,0.441101,0.852783
1470332142387352,-0.188599,-0.20636,0.441101,0.852783
1470332142410361,-0.188843,-0.206482,0.440918,0.852783
1470332142431379,-0.188843,-0.206482,0.440918,0.852783
1470332142447394,-0.189087,-0.206421,0.440796,0.852844
1470332142469915,-0.189148,-0.20636,0.440674,0.852844
1470332142484428,-0.189392,-0.206421,0.440552,0.852844
1470332142507448,-0.189392,-0.206421,0.440552,0.852844
1470332142529972,-0.189392,-0.206421,0.440613,0.852844
1470332142544486,-0.189392,-0.206421,0.440613,0.852844
1470332142567535,-0.189392,-0.206421,0.440613,0.852844
1470332142590024,-0.189087,-0.206421,0.440613,0.852905
1470332142604539,-0.188782,-0.20636,0.440735,0.852905
1470332142627558,-0.188782,-0.206299,0.440735,0.852905
1470332142650078,-0.188782,-0.20636,0.440735,0.852905
1470332142664592,-0.188782,-0.20636,0.440735,0.852905
1470332142687610,-0.188782,-0.20636,0.440735,0.852905
1470332142710130,-0.188782,-0.20636,0.440735,0.852905
1470332142724648,-0.188782,-0.20636,0.440735,0.852905
1470332142747664,-0.189026,-0.206665,0.440735,0.852783
1470332142770218,-0.189026,-0.206665,0.440735,0.852783
1470332142791258,-0.189087,-0.206665,0.440735,0.852783
1470332142807720,-0.189087,-0.206848,0.440613,0.852783
1470332142830238,-0.18927,-0.207153,0.44043,0.852783
1470332142851257,-0.189331,-0.207336,0.440308,0.852783
1470332142867772,-0.189331,-0.207397,0.440308,0.852783
1470332142890305,-0.189331,-0.207397,0.440308,0.852783
1470332142911336,-0.189331,-0.207336,0.440308,0.852783
1470332142927326,-0.189453,-0.20752,0.440247,0.852783
1470332142950347,-0.189514,-0.20752,0.440247,0.852722
1470332142971419,-0.189514,-0.20752,0.440186,0.852722
1470332142987385,-0.189514,-0.20752,0.440247,0.852722
1470332143009904,-0.189514,-0.20752,0.440247,0.852722
1470332143031419,-0.189636,-0.207703,0.440063,0.852722
1470332143047934,-0.189575,-0.207703,0.440063,0.852722
1470332143069958,-0.189575,-0.207703,0.440063,0.852722
1470332143091473,-0.189636,-0.207947,0.440002,0.852722
1470332143107492,-0.189697,-0.207947,0.440002,0.852722
1470332143130013,-0.189575,-0.208191,0.440002,0.852661
1470332143151527,-0.189636,-0.208496,0.439941,0.8526
1470332143167541,-0.189636,-0.208801,0.439819,0.8526
1470332143190061,-0.189636,-0.209106,0.439697,0.8526
1470332143212582,-0.189636,-0.209473,0.439575,0.8526
1470332143227595,-0.189636,-0.209839,0.439392,0.852539
1470332143250159,-0.189697,-0.210144,0.439209,0.8526
1470332143272636,-0.18988,-0.210449,0.439087,0.852539
1470332143287650,-0.18988,-0.210693,0.439087,0.852478
1470332143310171,-0.18988,-0.210693,0.439087,0.852478
1470332143332723,-0.190002,-0.210754,0.439026,0.852478
1470332143347704,-0.190002,-0.210754,0.439026,0.852478
1470332143370224,-0.190002,-0.210754,0.439026,0.852478
1470332143392744,-0.190002,-0.210754,0.439026,0.852478
1470332143406757,-0.190002,-0.210754,0.439026,0.852478
1470332143430287,-0.190002,-0.210754,0.439026,0.852478
1470332143452797,-0.190002,-0.210754,0.439026,0.852478
1470332143466810,-0.190002,-0.210754,0.439026,0.852417
1470332143474321,-0.190063,-0.210815,0.439026,0.852417
1470332143495337,-0.190063,-0.210815,0.439026,0.852417
1470332143518357,-0.190063,-0.210815,0.439026,0.852417
1470332143534371,-0.190063,-0.210815,0.439026,0.852417
1470332143555912,-0.190002,-0.210815,0.439026,0.852417
1470332143577954,-0.190063,-0.210815,0.439026,0.852417
1470332143594424,-0.190063,-0.210815,0.439026,0.852417
1470332143615957,-0.190063,-0.210876,0.439026,0.852417
1470332143637991,-0.190063,-0.210876,0.438965,0.852417
1470332143654479,-0.190063,-0.210938,0.438965,0.852417
1470332143675539,-0.190063,-0.210938,0.438965,0.852417
1470332143698036,-0.190063,-0.210938,0.438965,0.852417
1470332143714533,-0.190063,-0.210938,0.438965,0.852417
1470332143735552,-0.190125,-0.210938,0.438965,0.852417
1470332143758096,-0.190247,-0.210815,0.438965,0.852417
1470332143776144,-0.190308,-0.210693,0.438965,0.852417
1470332143795621,-0.190308,-0.210693,0.438965,0.852417
1470332143818152,-0.190308,-0.210693,0.438965,0.852417
1470332143834640,-0.190308,-0.210693,0.438965,0.852417
1470332143855678,-0.190308,-0.210632,0.438965,0.852417
1470332143878204,-0.190369,-0.210632,0.438965,0.852417
1470332143894721,-0.190369,-0.210632,0.438965,0.852417
1470332143915727,-0.190308,-0.210449,0.439026,0.852417
1470332143938281,-0.190369,-0.210449,0.439026,0.852417
1470332143954249,-0.190369,-0.210449,0.439026,0.852417
1470332143975767,-0.190369,-0.210449,0.439026,0.852417
1470332143997791,-0.19043,-0.21051,0.439026,0.852417
1470332144014301,-0.19043,-0.210449,0.439087,0.852417
1470332144043345,-0.19043,-0.210449,0.439087,0.852417
1470332144058345,-0.19043,-0.210449,0.439087,0.852417
1470332144074372,-0.19043,-0.210449,0.439087,0.852417
1470332144103381,-0.19043,-0.210449,0.439087,0.852417
1470332144117895,-0.19043,-0.210449,0.439087,0.852417
1470332144134409,-0.190491,-0.210388,0.439087,0.852417
1470332144155430,-0.190491,-0.210388,0.439087,0.852417
1470332144177974,-0.190491,-0.210388,0.439087,0.852417
1470332144196025,-0.190491,-0.210388,0.439087,0.852417
1470332144215996,-0.190491,-0.210388,0.439087,0.852417
1470332144238004,-0.190735,-0.210327,0.439148,0.852356
1470332144256019,-0.190796,-0.210327,0.439148,0.852356
1470332144275596,-0.190735,-0.210327,0.439148,0.852356
1470332144298098,-0.191223,-0.210449,0.43927,0.852112
1470332144316073,-0.192261,-0.210876,0.43927,0.851807
1470332144335590,-0.193542,-0.211121,0.43927,0.85144
1470332144358114,-0.194458,-0.211304,0.439392,0.851135
1470332144382132,-0.194641,-0.211426,0.439636,0.850952
1470332144395655,-0.194214,-0.211304,0.440002,0.850891
1470332144418187,-0.193665,-0.210938,0.440491,0.85083
1470332144435682,-0.193359,-0.210754,0.440918,0.850708
1470332144455702,-0.193359,-0.210876,0.441162,0.850586
1470332144478223,-0.193237,-0.21106,0.441284,0.850464
1470332144495753,-0.193298,-0.211121,0.441284,0.850464
1470332144515789,-0.193176,-0.210999,0.441467,0.850403
1470332144538289,-0.192871,-0.210693,0.44165,0.850464
1470332144556379,-0.192871,-0.210693,0.44165,0.850464
1470332144575807,-0.193237,-0.210815,0.441772,0.850281
1470332144597826,-0.193481,-0.210876,0.441833,0.85022
1470332144615841,-0.193481,-0.210876,0.441833,0.85022
1470332144643370,-0.193542,-0.210876,0.441833,0.850159
1470332144657893,-0.193542,-0.210876,0.441833,0.850159
1470332144675944,-0.193542,-0.210876,0.441833,0.850159
1470332144695441,-0.193604,-0.210815,0.441833,0.850159
1470332144717961,-0.193298,-0.21051,0.441956,0.850281
1470332144735954,-0.19281,-0.210144,0.442078,0.850403
1470332144755479,-0.192627,-0.209961,0.4422,0.850464
1470332144778019,-0.192444,-0.209778,0.442383,0.850403
1470332144796019,-0.1922,-0.209412,0.442566,0.850464
1470332144817022,-0.192017,-0.209106,0.442749,0.850464
1470332144838148,-0.192078,-0.209106,0.442749,0.850464
1470332144856085,-0.192139,-0.209106,0.442749,0.850464
1470332144877107,-0.192139,-0.209106,0.442749,0.850464
1470332144898113,-0.192017,-0.208862,0.442749,0.850525
1470332144916110,-0.191833,-0.208435,0.442749,0.850708
1470332144937129,-0.191589,-0.208008,0.442627,0.850891
1470332144958167,-0.191528,-0.207825,0.442505,0.851013
1470332144976171,-0.191528,-0.207825,0.442261,0.851135
1470332144996684,-0.191528,-0.207825,0.442261,0.851135
1470332145018202,-0.191406,-0.207642,0.442322,0.851196
1470332145035719,-0.190979,-0.207397,0.442261,0.851379
1470332145056739,-0.190979,-0.207397,0.442261,0.851379
1470332145078314,-0.191223,-0.20752,0.442261,0.851318
1470332145095772,-0.19165,-0.207581,0.4422,0.851196
1470332145118334,-0.191711,-0.207581,0.4422,0.851196
1470332145138310,-0.191528,-0.207458,0.442322,0.851196
1470332145156363,-0.191284,-0.207214,0.442383,0.851318
1470332145178375,-0.191284,-0.207214,0.442383,0.851318
1470332145198383,-0.191345,-0.207214,0.442383,0.851318
1470332145215881,-0.191101,-0.207092,0.442383,0.851379
1470332145238401,-0.190857,-0.206909,0.442383,0.85144
1470332145257920,-0.190674,-0.206726,0.442383,0.851563
1470332145275966,-0.190674,-0.206726,0.442444,0.851563
1470332145298454,-0.190918,-0.206726,0.442444,0.85144
1470332145317989,-0.190918,-0.206726,0.442444,0.85144
1470332145336057,-0.190735,-0.206543,0.442505,0.851501
1470332145358513,-0.190552,-0.206421,0.442627,0.851563
1470332145378053,-0.190857,-0.206604,0.442627,0.85144
1470332145396043,-0.191284,-0.206848,0.442627,0.851257
1470332145418606,-0.191711,-0.207031,0.442566,0.851135
1470332145438114,-0.191772,-0.207031,0.442566,0.851135
1470332145456099,-0.191467,-0.206665,0.442627,0.851257
1470332145478630,-0.191223,-0.206299,0.442688,0.851379
1470332145498133,-0.191223,-0.206299,0.442688,0.851379
1470332145516149,-0.191223,-0.206299,0.442688,0.851379
1470332145538670,-0.191284,-0.206055,0.442932,0.851318
1470332145558210,-0.191528,-0.205872,0.443359,0.851074
1470332145576236,-0.191589,-0.205627,0.443909,0.85083
1470332145598745,-0.191711,-0.205444,0.444275,0.850647
1470332145618266,-0.191528,-0.205383,0.444519,0.850586
1470332145636299,-0.191406,-0.205383,0.444763,0.850464
1470332145658867,-0.191467,-0.205505,0.444763,0.850403
1470332145679322,-0.19165,-0.205688,0.444885,0.850281
1470332145695835,-0.191956,-0.205872,0.444946,0.850159
1470332145718355,-0.191956,-0.205933,0.444946,0.850098
1470332145739429,-0.192017,-0.205933,0.444946,0.850098
1470332145755906,-0.192139,-0.20575,0.444824,0.85022
1470332145778410,-0.192261,-0.205566,0.444702,0.850281
1470332145799428,-0.192261,-0.205566,0.444702,0.850281
1470332145815943,-0.192078,-0.205444,0.444641,0.850342
1470332145838497,-0.192078,-0.205444,0.444641,0.850342
1470332145859482,-0.192078,-0.205444,0.444641,0.850342
1470332145875997,-0.192078,-0.205444,0.444641,0.850342
1470332145898518,-0.192383,-0.205627,0.444519,0.850342
1470332145919540,-0.192688,-0.205933,0.444336,0.850281
1470332145936070,-0.193176,-0.206177,0.444031,0.850281
1470332145958629,-0.193726,-0.206421,0.443848,0.850159
1470332145979122,-0.19397,-0.206604,0.443848,0.850098
1470332145994637,-0.193542,-0.20636,0.44397,0.85022
1470332146017624,-0.192871,-0.205872,0.444092,0.850342
1470332146040144,-0.192322,-0.205566,0.444214,0.850525
1470332146054658,-0.191895,-0.2052,0.444275,0.850647
1470332146077678,-0.191711,-0.204895,0.444275,0.850769
1470332146100198,-0.191528,-0.204651,0.444275,0.850891
1470332146114213,-0.191467,-0.20459,0.444275,0.850891
1470332146137734,-0.19165,-0.204529,0.444214,0.850891
1470332146160252,-0.191956,-0.204712,0.444153,0.85083
1470332146174278,-0.192261,-0.204956,0.444214,0.850647
1470332146197791,-0.192261,-0.204956,0.444214,0.850647
1470332146220342,-0.192261,-0.204956,0.444214,0.850647
1470332146241409,-0.192505,-0.205139,0.444214,0.850586
1470332146257876,-0.192505,-0.205139,0.444214,0.850586
1470332146280359,-0.192505,-0.205139,0.444214,0.850586
1470332146294372,-0.192566,-0.205139,0.444214,0.850586
1470332146317893,-0.192566,-0.205139,0.444214,0.850586
1470332146340414,-0.192566,-0.205139,0.444214,0.850586
1470332146354426,-0.192566,-0.205139,0.444214,0.850586
1470332146377950,-0.19281,-0.2052,0.444153,0.850525
1470332146400016,-0.193115,-0.205261,0.444153,0.850464
1470332146414483,-0.193176,-0.205261,0.444153,0.850464
1470332146437501,-0.193176,-0.205261,0.444153,0.850403
1470332146460021,-0.192871,-0.205078,0.444336,0.850464
1470332146474534,-0.192932,-0.205078,0.444336,0.850464
1470332146497555,-0.192932,-0.205078,0.444336,0.850403
1470332146520076,-0.192932,-0.205078,0.444336,0.850403
1470332146541095,-0.192932,-0.205078,0.444336,0.850403
1470332146557612,-0.192871,-0.205017,0.444458,0.850403
1470332146580167,-0.192566,-0.204834,0.444641,0.850403
1470332146601163,-0.192566,-0.204773,0.444641,0.850403
1470332146625205,-0.192688,-0.205017,0.444702,0.850342
1470332146640184,-0.192688,-0.205017,0.444702,0.850342
1470332146661290,-0.192688,-0.205017,0.444702,0.850342
1470332146677719,-0.192688,-0.205017,0.444702,0.850342
1470332146699740,-0.192566,-0.205017,0.444824,0.850281
1470332146721274,-0.192261,-0.205139,0.444946,0.85022
1470332146737771,-0.191711,-0.2052,0.445251,0.85022
1470332146760291,-0.190857,-0.2052,0.445679,0.850159
1470332146781309,-0.189392,-0.205017,0.446411,0.850159
1470332146797824,-0.187439,-0.204773,0.44751,0.850098
1470332146827851,-0.185242,-0.205017,0.44873,0.849854
1470332146841378,-0.183044,-0.205688,0.450073,0.849426
1470332146857878,-0.180908,-0.206543,0.451477,0.848938
1470332146880399,-0.178284,-0.207336,0.453064,0.84845
1470332146901417,-0.175293,-0.208252,0.454956,0.8479
1470332146916950,-0.172302,-0.209473,0.456726,0.847229
1470332146940460,-0.169739,-0.21106,0.458374,0.846436
1470332146961472,-0.166565,-0.212341,0.460327,0.845703
1470332146976986,-0.163208,-0.213745,0.462402,0.844849
1470332147000033,-0.159546,-0.215271,0.4646,0.843994
1470332147022526,-0.155579,-0.216614,0.466736,0.843201
1470332147037040,-0.152039,-0.217896,0.46875,0.842407
1470332147060060,-0.148987,-0.219421,0.470703,0.841431
1470332147082593,-0.146057,-0.220764,0.472595,0.840515
1470332147097093,-0.143066,-0.222046,0.474487,0.839661
1470332147120120,-0.139832,-0.222534,0.476746,0.838806
1470332147142637,-0.136475,-0.223022,0.479187,0.83783
1470332147163654,-0.133423,-0.223938,0.481445,0.836792
1470332147180170,-0.130798,-0.225098,0.483459,0.835693
1470332147202689,-0.128418,-0.226257,0.485046,0.834839
1470332147223711,-0.127197,-0.227661,0.486023,0.834106
1470332147240222,-0.127686,-0.229187,0.486328,0.833435
1470332147262742,-0.129883,-0.230713,0.48584,0.832947
1470332147277090,-0.13324,-0.232117,0.484558,0.832764
1470332147300109,-0.137573,-0.232788,0.482422,0.83313
1470332147322670,-0.143188,-0.232788,0.479553,0.833862
1470332147343692,-0.149536,-0.232056,0.47583,0.835022
1470332147360163,-0.156494,-0.230408,0.471619,0.836609
1470332147382684,-0.164673,-0.227844,0.466858,0.83844
1470332147403703,-0.172607,-0.224182,0.461853,0.840576
1470332147420217,-0.178772,-0.219299,0.457092,0.843201
1470332147442741,-0.183716,-0.214355,0.452454,0.845886
1470332147463806,-0.189148,-0.210205,0.44812,0.848022
1470332147480271,-0.19458,-0.206909,0.444397,0.849548
1470332147502795,-0.198181,-0.20343,0.441711,0.851013
1470332147523856,-0.199036,-0.2005,0.440796,0.85199
1470332147540381,-0.197205,-0.19873,0.440857,0.852783
1470332147562845,-0.194458,-0.198181,0.442078,0.852905
1470332147583907,-0.191101,-0.198853,0.443909,0.852539
1470332147600379,-0.186584,-0.200256,0.446411,0.851929
1470332147622899,-0.18158,-0.202148,0.44928,0.851013
1470332147643917,-0.176453,-0.204285,0.452271,0.849976
1470332147660433,-0.171021,-0.206238,0.455383,0.848999
1470332147682952,-0.165771,-0.208191,0.458374,0.847961
1470332147703524,-0.161255,-0.210144,0.46106,0.846863
1470332147719986,-0.157043,-0.211792,0.463684,0.845825
1470332147742554,-0.152893,-0.213623,0.466125,0.844788
1470332147764027,-0.149353,-0.215576,0.468201,0.84375
1470332147779539,-0.146179,-0.217163,0.470093,0.842834
1470332147802560,-0.143188,-0.218506,0.471863,0.842041
1470332147823588,-0.140442,-0.219727,0.473633,0.841187
1470332147839593,-0.138,-0.220947,0.47522,0.840393
1470332147862614,-0.135925,-0.222107,0.476501,0.839722
1470332147883659,-0.134338,-0.223022,0.477417,0.839172
1470332147899647,-0.133972,-0.22406,0.477844,0.838745
1470332147922668,-0.134888,-0.225159,0.477722,0.838318
1470332147943702,-0.137024,-0.226257,0.477051,0.838074
1470332147960202,-0.14032,-0.226807,0.475708,0.838196
1470332147982740,-0.145447,-0.227051,0.47345,0.838501
1470332148005284,-0.152527,-0.227417,0.470154,0.838989
1470332148019755,-0.160339,-0.227234,0.466125,0.839844
1470332148042795,-0.168518,-0.226074,0.461365,0.841187
1470332148065296,-0.176514,-0.223877,0.456177,0.842957
1470332148079319,-0.184692,-0.220703,0.450928,0.844849
1470332148102859,-0.192383,-0.216858,0.446411,0.846497
1470332148125358,-0.197083,-0.212097,0.442932,0.848511
1470332148146368,-0.19812,-0.206238,0.440613,0.850891
1470332148162883,-0.195923,-0.200256,0.440125,0.853088
1470332148185403,-0.191467,-0.196045,0.44165,0.854309
1470332148206477,-0.184204,-0.194092,0.444946,0.854614
1470332148223449,-0.174683,-0.194153,0.450317,0.85376
1470332148245008,-0.163025,-0.195984,0.456848,0.852173
1470332148267478,-0.15033,-0.19873,0.464172,0.849915
1470332148282491,-0.138184,-0.202148,0.471375,0.847229
1470332148305011,-0.127563,-0.206421,0.477417,0.844482
1470332148326533,-0.119812,-0.212036,0.482239,0.841492
1470332148342546,-0.114136,-0.218384,0.486023,0.838501
1470332148365067,-0.109009,-0.223694,0.489441,0.835754
1470332148386088,-0.104492,-0.227905,0.492188,0.833557
1470332148402600,-0.101746,-0.231323,0.493774,0.832031
1470332148425125,-0.10199,-0.234436,0.49408,0.830933
1470332148446139,-0.105164,-0.236938,0.49292,0.830505
1470332148462653,-0.111328,-0.238892,0.490662,0.830505
1470332148485176,-0.119812,-0.239746,0.486816,0.831299
1470332148506193,-0.130005,-0.239319,0.481689,0.832947
1470332148522708,-0.141479,-0.237366,0.47583,0.834961
1470332148545229,-0.153381,-0.234009,0.469666,0.83728
1470332148567747,-0.164551,-0.229187,0.463379,0.840027
1470332148582259,-0.174866,-0.223389,0.457214,0.842896
1470332148605295,-0.183899,-0.216614,0.45166,0.845703
1470332148626380,-0.190125,-0.209229,0.447571,0.848328
1470332148642843,-0.19043,-0.20166,0.445618,0.851135
1470332148665335,-0.188171,-0.195923,0.445129,0.85321
1470332148686369,-0.187012,-0.194214,0.445374,0.85376
1470332148701868,-0.185791,-0.195374,0.446045,0.853394
1470332148725389,-0.183533,-0.197571,0.447815,0.852478
1470332148746413,-0.179993,-0.200134,0.450256,0.851318
1470332148761947,-0.176086,-0.20282,0.452576,0.850281
1470332148784943,-0.172852,-0.205383,0.45459,0.849243
1470332148806467,-0.170654,-0.207947,0.456177,0.848267
1470332148821980,-0.169617,-0.210266,0.457092,0.847351
1470332148844998,-0.1698,-0.212097,0.457458,0.84668
1470332148866515,-0.170593,-0.213379,0.457275,0.846313
1470332148882032,-0.17157,-0.213867,0.456665,0.846313
1470332148905100,-0.172791,-0.21344,0.455811,0.846619
1470332148927573,-0.174561,-0.212708,0.454712,0.847046
1470332148942584,-0.176331,-0.211792,0.453552,0.847534
1470332148965104,-0.17804,-0.210571,0.452393,0.848083
1470332148987643,-0.179443,-0.209351,0.451477,0.848572
1470332149002638,-0.180237,-0.208069,0.450867,0.84906
1470332149025160,-0.180176,-0.206787,0.4505,0.849548
1470332149047678,-0.180115,-0.205872,0.450317,0.849915
1470332149062246,-0.180115,-0.205627,0.450195,0.850037
1470332149085213,-0.180115,-0.205872,0.450134,0.850037
1470332149107776,-0.179688,-0.20636,0.450195,0.849976
1470332149122245,-0.179077,-0.206787,0.450378,0.849854
1470332149145267,-0.178833,-0.207275,0.4505,0.849731
1470332149167787,-0.178406,-0.207581,0.450562,0.849731
1470332149182300,-0.178162,-0.207825,0.4505,0.849731
1470332149205361,-0.178406,-0.208191,0.450317,0.84967
1470332149227862,-0.178467,-0.208191,0.450317,0.84967
1470332149241853,-0.178223,-0.208069,0.450195,0.849792
1470332149265373,-0.178101,-0.207947,0.450012,0.849976
1470332149287893,-0.178284,-0.207947,0.44989,0.850037
1470332149301908,-0.178345,-0.207886,0.44989,0.850037
1470332149324927,-0.17804,-0.20752,0.449829,0.85022
1470332149347948,-0.177734,-0.207214,0.449768,0.850403
1470332149361962,-0.177673,-0.207214,0.449768,0.850403
1470332149384988,-0.177673,-0.207275,0.449768,0.850403
1470332149407502,-0.177673,-0.207214,0.449768,0.850403
1470332149428543,-0.177185,-0.207336,0.449829,0.850403
1470332149445035,-0.176819,-0.207397,0.44989,0.850464
1470332149467558,-0.176697,-0.207581,0.44989,0.850464
1470332149488644,-0.176636,-0.207825,0.44989,0.850403
1470332149505089,-0.176636,-0.207825,0.44989,0.850403
1470332149527665,-0.176514,-0.207825,0.44989,0.850403
1470332149548629,-0.176331,-0.207764,0.449951,0.850464
1470332149565143,-0.176331,-0.207703,0.449951,0.850464
1470332149587663,-0.176758,-0.207825,0.449829,0.850403
1470332149608687,-0.177002,-0.207703,0.449768,0.850403
1470332149625197,-0.177185,-0.207581,0.449707,0.850464
1470332149647716,-0.17749,-0.207458,0.449585,0.850464
1470332149668791,-0.177673,-0.207275,0.449463,0.850525
1470332149685265,-0.177673,-0.207275,0.449463,0.850525
1470332149707772,-0.177673,-0.207275,0.449463,0.850525
1470332149728806,-0.177917,-0.207336,0.449402,0.850525
1470332149745304,-0.177917,-0.207336,0.449402,0.850525
1470332149767825,-0.177917,-0.207336,0.449402,0.850525
1470332149796350,-0.177917,-0.207336,0.449402,0.850525
1470332149805358,-0.177917,-0.207275,0.449402,0.850525
1470332149827881,-0.177917,-0.207275,0.449402,0.850464
1470332149850399,-0.178162,-0.207275,0.44928,0.850525
1470332149871419,-0.178467,-0.207153,0.449158,0.850586
1470332149887434,-0.178894,-0.207092,0.448975,0.850586
1470332149909952,-0.179199,-0.206848,0.448853,0.850586
1470332149924965,-0.179626,-0.206726,0.44873,0.850647
1470332149947487,-0.180115,-0.206665,0.448608,0.850647
1470332149970011,-0.18042,-0.206482,0.448547,0.850647
1470332149985019,-0.180359,-0.206482,0.448547,0.850647
1470332150007545,-0.180359,-0.206421,0.448547,0.850647
1470332150030061,-0.180725,-0.206482,0.448547,0.850525
1470332150044575,-0.180908,-0.206665,0.448608,0.850464
1470332150067593,-0.180908,-0.206482,0.44873,0.850403
1470332150090117,-0.180908,-0.206482,0.44873,0.850403
1470332150104666,-0.180908,-0.206482,0.44873,0.850403
1470332150127648,-0.180969,-0.206482,0.44873,0.850403
1470332150150168,-0.181152,-0.206604,0.44873,0.850342
1470332150164695,-0.181213,-0.206604,0.44873,0.850342
1470332150187702,-0.181213,-0.206665,0.44873,0.850342
1470332150210225,-0.181213,-0.206604,0.44873,0.850342
1470332150224735,-0.181396,-0.206482,0.44873,0.850342
1470332150248257,-0.181702,-0.20636,0.448669,0.850281
1470332150270277,-0.18219,-0.206238,0.448608,0.850281
1470332150284289,-0.182678,-0.206177,0.448364,0.850342
1470332150307810,-0.183105,-0.205994,0.44812,0.850403
1470332150330329,-0.183411,-0.205811,0.447937,0.850464
1470332150351377,-0.183777,-0.205566,0.447754,0.850525
1470332150367863,-0.184082,-0.205322,0.447632,0.850586
1470332150390384,-0.184204,-0.2052,0.447571,0.850647
1470332150411434,-0.184204,-0.2052,0.447571,0.850647
1470332150427928,-0.183777,-0.204956,0.447754,0.850708
1470332150450462,-0.183167,-0.204712,0.447937,0.850769
1470332150471486,-0.182983,-0.204529,0.44812,0.850769
1470332150487973,-0.183167,-0.204346,0.44812,0.850769
1470332150509991,-0.183289,-0.204224,0.448059,0.85083
1470332150531517,-0.183716,-0.204041,0.448059,0.850769
1470332150548026,-0.183777,-0.203735,0.44812,0.850769
1470332150570086,-0.183533,-0.203369,0.447998,0.851013
1470332150591564,-0.183533,-0.203064,0.447754,0.851196
1470332150607579,-0.183899,-0.203125,0.447327,0.851318
1470332150630100,-0.184448,-0.203369,0.44696,0.851379
1470332150651619,-0.184753,-0.203552,0.446655,0.851379
1470332150667634,-0.184753,-0.203552,0.446655,0.851379
1470332150690158,-0.184692,-0.203491,0.446655,0.851379
1470332150711176,-0.184631,-0.203308,0.446533,0.851563
1470332150727686,-0.184692,-0.203308,0.446533,0.851563
1470332150750209,-0.184692,-0.203308,0.446533,0.851563
1470332150772726,-0.184692,-0.203308,0.446533,0.851501
1470332150787740,-0.184692,-0.203308,0.446533,0.851501
1470332150810265,-0.184692,-0.203308,0.446533,0.851501
1470332150832781,-0.184692,-0.203308,0.446533,0.851501
1470332150847794,-0.184692,-0.203247,0.446533,0.851563
1470332150870314,-0.184692,-0.203247,0.446533,0.851563
1470332150892836,-0.184692,-0.203247,0.446533,0.851563
1470332150907848,-0.184692,-0.203247,0.446533,0.851563
1470332150930369,-0.184814,-0.203369,0.446594,0.85144
1470332150952888,-0.184998,-0.203674,0.446655,0.851318
1470332150966901,-0.184937,-0.203857,0.446655,0.851257
1470332150990422,-0.184937,-0.204102,0.446655,0.851196
1470332151012505,-0.184998,-0.204102,0.446655,0.851196
1470332151026959,-0.184998,-0.204102,0.446716,0.851196
1470332151050023,-0.184998,-0.204102,0.446716,0.851196
1470332151072996,-0.184998,-0.204102,0.446655,0.851196
1470332151087009,-0.184998,-0.204102,0.446655,0.851196
1470332151110030,-0.18512,-0.204285,0.446655,0.851135
1470332151133050,-0.185425,-0.204529,0.446594,0.851074
1470332151147063,-0.185425,-0.204529,0.446594,0.851013
1470332151170584,-0.185425,-0.204529,0.446594,0.851074
1470332151200116,-0.185425,-0.204529,0.446594,0.851013
1470332151207117,-0.185486,-0.204529,0.446594,0.851013
1470332151214628,-0.185486,-0.204529,0.446594,0.851013
1470332151238697,-0.185425,-0.204529,0.446594,0.851013
1470332151258195,-0.185547,-0.204834,0.446533,0.851013
1470332151274702,-0.185913,-0.205139,0.446533,0.85083
1470332151295697,-0.186523,-0.205505,0.44635,0.850708
1470332151318216,-0.187195,-0.205811,0.446045,0.850647
1470332151334732,-0.187988,-0.206238,0.445801,0.850464
1470332151355750,-0.188171,-0.206665,0.445801,0.850342
1470332151378296,-0.188171,-0.207092,0.445984,0.850159
1470332151394790,-0.188049,-0.207581,0.446045,0.850037
1470332151415809,-0.188232,-0.208496,0.446106,0.849731
1470332151438378,-0.188782,-0.209473,0.446167,0.849304
1470332151454338,-0.188904,-0.209961,0.446228,0.849121
1470332151475891,-0.188904,-0.210266,0.446167,0.84906
1470332151498380,-0.189392,-0.210999,0.446045,0.848877
1470332151514395,-0.190735,-0.212341,0.445679,0.84845
1470332151535912,-0.191956,-0.213745,0.445374,0.847961
1470332151558437,-0.192627,-0.214478,0.445435,0.847595
1470332151574448,-0.191833,-0.214294,0.44574,0.847656
1470332151595970,-0.189941,-0.213745,0.446289,0.847961
1470332151618490,-0.188843,-0.213379,0.446716,0.848083
1470332151634519,-0.188721,-0.21344,0.446777,0.848083
1470332151656064,-0.18927,-0.213867,0.446716,0.847839
1470332151678608,-0.189209,-0.213867,0.446533,0.847961
1470332151694569,-0.189026,-0.213684,0.446472,0.848083
1470332151715616,-0.189148,-0.213562,0.44635,0.848145
1470332151738604,-0.188843,-0.213196,0.445984,0.848511
1470332151756128,-0.189636,-0.213257,0.445679,0.84845
1470332151775641,-0.190002,-0.21344,0.445557,0.848389
1470332151798163,-0.189575,-0.213013,0.44574,0.848511
1470332151816167,-0.18927,-0.21228,0.445862,0.848694
1470332151835682,-0.188721,-0.211548,0.446045,0.848877
1470332151858247,-0.188721,-0.211548,0.446045,0.848877
1470332151876225,-0.189087,-0.211731,0.445984,0.848816
1470332151895745,-0.189636,-0.211853,0.445923,0.848633
1470332151918337,-0.189575,-0.211609,0.446106,0.848633
1470332151942280,-0.188354,-0.210815,0.44635,0.848999
1470332151955879,-0.18811,-0.210327,0.446777,0.848938
1470332151978356,-0.188232,-0.210571,0.446716,0.848877
1470332151996325,-0.188477,-0.210693,0.446777,0.848755
1470332152015884,-0.188477,-0.210632,0.447021,0.848694
1470332152038383,-0.188171,-0.210632,0.447144,0.848694
1470332152056383,-0.18811,-0.210754,0.447266,0.848572
1470332152075968,-0.188293,-0.210938,0.447327,0.84845
1470332152098420,-0.188538,-0.211365,0.447327,0.848267
1470332152115958,-0.18866,-0.211731,0.447327,0.848206
1470332152135951,-0.188904,-0.211853,0.447327,0.848083
1470332152158498,-0.188904,-0.211853,0.447327,0.848083
1470332152176018,-0.188904,-0.211853,0.447327,0.848083
1470332152195535,-0.189209,-0.211914,0.447388,0.847961
1470332152218025,-0.189209,-0.211975,0.447388,0.847961
1470332152236088,-0.189148,-0.211548,0.447571,0.848022
1470332152256102,-0.189026,-0.21106,0.447571,0.848145
1470332152278126,-0.189087,-0.210876,0.447449,0.848267
1470332152296094,-0.189209,-0.210876,0.447388,0.848267
1470332152316112,-0.189514,-0.210815,0.447449,0.848145
1470332152338156,-0.189331,-0.210571,0.447571,0.848206
1470332152356149,-0.189148,-0.210266,0.447693,0.848267
1470332152377180,-0.189026,-0.209961,0.447815,0.848328
1470332152398186,-0.188782,-0.209778,0.447876,0.848389
1470332152416203,-0.188782,-0.209778,0.447876,0.848328
1470332152437222,-0.188782,-0.209839,0.447876,0.848328
1470332152458257,-0.188782,-0.209839,0.447876,0.848328
1470332152476257,-0.188721,-0.209717,0.447998,0.848328
1470332152497310,-0.188782,-0.209717,0.447998,0.848328
1470332152518308,-0.188782,-0.209717,0.447998,0.848328
1470332152536392,-0.188782,-0.209717,0.447998,0.848328
1470332152557329,-0.18866,-0.209412,0.448059,0.848389
1470332152578355,-0.188477,-0.209167,0.44812,0.84845
1470332152595869,-0.188477,-0.209167,0.44812,0.84845
1470332152616883,-0.188538,-0.209167,0.44812,0.84845
1470332152638402,-0.188538,-0.208984,0.448242,0.848389
1470332152656418,-0.188354,-0.208801,0.448303,0.84845
1470332152678454,-0.187988,-0.208557,0.448364,0.848572
1470332152698456,-0.187805,-0.208435,0.448486,0.848572
1470332152715972,-0.187805,-0.208374,0.448486,0.848572
1470332152738603,-0.187805,-0.208374,0.448486,0.848572
1470332152758037,-0.187866,-0.208374,0.448486,0.848572
1470332152776120,-0.187866,-0.208374,0.448486,0.848572
1470332152798548,-0.187927,-0.208496,0.448364,0.848572
1470332152818079,-0.18811,-0.208618,0.448303,0.848572
1470332152836080,-0.18811,-0.208618,0.448303,0.848572
1470332152858614,-0.18811,-0.208618,0.448303,0.848572
1470332152878130,-0.18811,-0.208618,0.448303,0.848572
1470332152896634,-0.18811,-0.208618,0.448303,0.848572
1470332152918673,-0.18811,-0.208618,0.448303,0.848572
1470332152938173,-0.18811,-0.208618,0.448303,0.848572
1470332152956189,-0.188171,-0.208618,0.448303,0.848572
1470332152978746,-0.188171,-0.208557,0.448303,0.848572
1470332152998294,-0.188171,-0.208557,0.448303,0.848572
1470332153016241,-0.188171,-0.208618,0.448303,0.848572
1470332153038761,-0.188171,-0.208618,0.448303,0.848572
1470332153058280,-0.187988,-0.208435,0.448364,0.848572
1470332153076342,-0.187988,-0.208435,0.448364,0.848633
1470332153098341,-0.188171,-0.208618,0.448364,0.848511
1470332153118333,-0.188171,-0.208618,0.448364,0.848511
1470332153136414,-0.187805,-0.208557,0.448547,0.848511
1470332153158369,-0.187683,-0.208679,0.448547,0.848511
1470332153178388,-0.187805,-0.208923,0.448608,0.848389
1470332153195902,-0.187805,-0.208923,0.448608,0.848389
1470332153218527,-0.1875,-0.208801,0.44873,0.84845
1470332153238457,-0.187073,-0.208679,0.448853,0.848511
1470332153255957,-0.186707,-0.208496,0.448975,0.848572
1470332153278477,-0.186646,-0.208374,0.449036,0.848572
1470332153299495,-0.18634,-0.208069,0.449219,0.848633
1470332153316010,-0.185913,-0.207764,0.449341,0.848694
1470332153338599,-0.185486,-0.207214,0.449463,0.848877
1470332153361050,-0.184998,-0.206787,0.449524,0.84906
1470332153376096,-0.183777,-0.205994,0.449768,0.849365
1470332153398600,-0.182312,-0.205078,0.450134,0.849731
1470332153419605,-0.181152,-0.203979,0.4505,0.850037
1470332153436168,-0.180847,-0.203369,0.450867,0.850098
1470332153458682,-0.18103,-0.203369,0.450806,0.850037
1470332153479659,-0.181519,-0.20343,0.450928,0.849854
1470332153496178,-0.182068,-0.203491,0.450867,0.849792
1470332153518692,-0.18219,-0.203186,0.45105,0.849731
1470332153539713,-0.181824,-0.202454,0.451477,0.849731
1470332153563732,-0.181641,-0.202026,0.452087,0.849548
1470332153578747,-0.182007,-0.202087,0.452454,0.849304
1470332153599765,-0.182373,-0.202148,0.452576,0.849121
1470332153616340,-0.182373,-0.202148,0.452515,0.849121
1470332153638800,-0.182434,-0.202209,0.452515,0.849121
1470332153661392,-0.182434,-0.202148,0.452515,0.849121
1470332153676351,-0.182556,-0.202209,0.452637,0.848999
1470332153698354,-0.182861,-0.202332,0.452759,0.848877
1470332153721389,-0.182861,-0.202332,0.452759,0.848877
1470332153741452,-0.182617,-0.202209,0.452942,0.848877
1470332153757908,-0.182739,-0.202209,0.453064,0.848755
1470332153780427,-0.183167,-0.202515,0.453125,0.848572
1470332153801486,-0.183777,-0.20282,0.453125,0.848389
1470332153817961,-0.184326,-0.203003,0.453003,0.848267
1470332153840481,-0.184814,-0.203064,0.45282,0.848206
1470332153861507,-0.185242,-0.203064,0.452698,0.848206
1470332153877514,-0.185608,-0.202942,0.452576,0.848206
1470332153900036,-0.185852,-0.20282,0.452454,0.848267
1470332153914549,-0.186218,-0.202942,0.452332,0.848206
1470332153937569,-0.186218,-0.202942,0.452332,0.848206
1470332153960093,-0.186218,-0.202881,0.452332,0.848206
1470332153981608,-0.186157,-0.203186,0.452332,0.848145
1470332153997624,-0.186157,-0.203186,0.452332,0.848145
1470332154020142,-0.186157,-0.203369,0.452637,0.847961
1470332154034655,-0.185913,-0.203369,0.453003,0.847839
1470332154057705,-0.185547,-0.203247,0.453186,0.847839
1470332154080198,-0.185425,-0.203125,0.453308,0.847839
1470332154094491,-0.185425,-0.203125,0.453308,0.847839
1470332154118012,-0.185425,-0.203125,0.453308,0.847839
1470332154140032,-0.185486,-0.20282,0.453491,0.847778
1470332154161550,-0.185547,-0.202393,0.453613,0.847839
1470332154177565,-0.185791,-0.202148,0.453552,0.847839
1470332154200086,-0.185974,-0.201965,0.453552,0.847839
1470332154221721,-0.186218,-0.201721,0.453552,0.847839
1470332154237640,-0.186523,-0.201416,0.453369,0.847961
1470332154260141,-0.186646,-0.20105,0.453308,0.848022
1470332154282159,-0.186646,-0.20105,0.453369,0.848022
1470332154297673,-0.186584,-0.200989,0.453369,0.848022
1470332154320193,-0.186401,-0.20105,0.45343,0.848022
1470332154341727,-0.186035,-0.200989,0.453613,0.848083
1470332154357727,-0.185608,-0.200867,0.453796,0.848083
1470332154380248,-0.185242,-0.200745,0.454102,0.848022
1470332154401332,-0.185303,-0.200806,0.454346,0.847839
1470332154425292,-0.185181,-0.200623,0.454529,0.847839
1470332154440301,-0.184814,-0.200439,0.454712,0.847839
1470332154461322,-0.184937,-0.200378,0.454834,0.847778
1470332154477861,-0.185303,-0.200378,0.454895,0.847656
1470332154500355,-0.185608,-0.200256,0.455017,0.847534
1470332154521425,-0.185852,-0.200012,0.455139,0.847534
1470332154537920,-0.185974,-0.199707,0.4552,0.847473
1470332154566414,-0.185974,-0.199402,0.4552,0.847595
1470332154582929,-0.186401,-0.199219,0.455139,0.847534
1470332154597943,-0.187012,-0.199097,0.455139,0.847473
1470332154620462,-0.187378,-0.198975,0.4552,0.847351
1470332154642982,-0.187439,-0.198975,0.4552,0.847351
1470332154657997,-0.187439,-0.198975,0.4552,0.847351
1470332154680516,-0.187622,-0.198975,0.4552,0.847351
1470332154702537,-0.187622,-0.198914,0.4552,0.847351
1470332154717556,-0.187622,-0.198914,0.4552,0.847351
1470332154740571,-0.187622,-0.198914,0.4552,0.847351
1470332154762590,-0.187622,-0.198914,0.4552,0.847351
1470332154777103,-0.1875,-0.198914,0.455322,0.84729
1470332154800124,-0.187439,-0.198975,0.455444,0.847229
1470332154822644,-0.187439,-0.198975,0.455444,0.847229
1470332154837157,-0.187439,-0.198914,0.455627,0.847168
1470332154860198,-0.1875,-0.198975,0.455627,0.847168
1470332154882709,-0.1875,-0.198975,0.455627,0.847107
1470332154897211,-0.187561,-0.199036,0.455383,0.847229
1470332154920232,-0.187561,-0.199036,0.455383,0.847229
1470332154950259,-0.187561,-0.199036,0.455383,0.847229
1470332154957281,-0.1875,-0.198853,0.455444,0.847229
1470332154980287,-0.187317,-0.198669,0.455444,0.847351
1470332155002807,-0.187317,-0.198669,0.455444,0.847351
1470332155017320,-0.187317,-0.198669,0.455444,0.847351
1470332155040341,-0.187256,-0.198914,0.455261,0.847351
1470332155062865,-0.18689,-0.198975,0.4552,0.847473
1470332155077373,-0.186768,-0.199158,0.455261,0.847412
1470332155123916,-0.186951,-0.199463,0.455383,0.847229
1470332155128998,-0.186646,-0.199524,0.455383,0.84729
1470332155143993,-0.186401,-0.199646,0.455322,0.847351
1470332155160452,-0.186401,-0.199646,0.455322,0.847351
1470332155182968,-0.186218,-0.199585,0.455383,0.847351
1470332155203994,-0.186218,-0.199585,0.455383,0.847351
1470332155220502,-0.186279,-0.199585,0.455383,0.847351
1470332155242522,-0.186523,-0.199829,0.455017,0.847473
1470332155264041,-0.186768,-0.199829,0.454712,0.847595
1470332155280056,-0.186951,-0.199707,0.454529,0.847656
1470332155303075,-0.186951,-0.199646,0.454529,0.847656
1470332155324137,-0.186951,-0.199646,0.454529,0.847656
1470332155340135,-0.186707,-0.199463,0.45459,0.847717
1470332155362632,-0.186707,-0.199463,0.45459,0.847717
1470332155384148,-0.18689,-0.199707,0.454468,0.847717
1470332155400163,-0.18689,-0.199707,0.454468,0.847717
1470332155430190,-0.186584,-0.199829,0.454529,0.847656
1470332155443702,-0.186707,-0.200012,0.454773,0.847473
1470332155460219,-0.186584,-0.200134,0.455017,0.847412
1470332155482739,-0.186279,-0.200134,0.4552,0.847351
1470332155503787,-0.185974,-0.200195,0.455444,0.84729
1470332155520300,-0.18573,-0.200317,0.455627,0.847168
1470332155542792,-0.185608,-0.200378,0.455811,0.847107
1470332155565311,-0.185547,-0.200562,0.455872,0.847046
1470332155580325,-0.185425,-0.200867,0.455811,0.847046
1470332155602845,-0.185425,-0.200928,0.455811,0.847046
1470332155625405,-0.185364,-0.201111,0.45575,0.847046
1470332155640381,-0.18512,-0.201172,0.455688,0.847107
1470332155662900,-0.184998,-0.201294,0.455566,0.847168
1470332155685419,-0.184998,-0.201294,0.455566,0.847168
1470332155699432,-0.184631,-0.201477,0.455505,0.847229
1470332155722952,-0.184326,-0.20166,0.455383,0.84729
1470332155745472,-0.184143,-0.202026,0.455322,0.84729
1470332155759504,-0.183838,-0.202271,0.455383,0.84729
1470332155782506,-0.183533,-0.202637,0.455444,0.847229
1470332155805039,-0.183105,-0.202881,0.455566,0.847168
1470332155819539,-0.182617,-0.203125,0.455688,0.847168
1470332155843060,-0.182312,-0.20343,0.455688,0.847168
1470332155865110,-0.182068,-0.203796,0.455688,0.847107
1470332155879623,-0.181824,-0.203979,0.455688,0.847107
1470332155902644,-0.181519,-0.204285,0.455566,0.847168
1470332155925664,-0.181335,-0.204773,0.455261,0.84729
1470332155939677,-0.181213,-0.205261,0.455078,0.84729
1470332155962699,-0.18103,-0.20575,0.454834,0.847351
1470332155992753,-0.180786,-0.205994,0.454651,0.847412
1470332155999747,-0.180542,-0.206055,0.45459,0.847473
1470332156022756,-0.18042,-0.206116,0.454407,0.847595
1470332156045310,-0.18042,-0.206238,0.454041,0.847778
1470332156066831,-0.18042,-0.206482,0.453674,0.8479
1470332156082806,-0.180298,-0.206665,0.453308,0.848083
1470332156105326,-0.179871,-0.206665,0.453003,0.848328
1470332156126362,-0.179321,-0.206726,0.452759,0.848572
1470332156142860,-0.178711,-0.206726,0.452576,0.848816
1470332156165379,-0.178406,-0.20697,0.452332,0.848938
1470332156186452,-0.17804,-0.207336,0.452026,0.84906
1470332156202914,-0.177307,-0.207581,0.451782,0.849304
1470332156231445,-0.176941,-0.207825,0.451599,0.849426
1470332156246480,-0.176819,-0.208191,0.451477,0.849426
1470332156262967,-0.176575,-0.208435,0.451294,0.849487
1470332156285488,-0.176147,-0.208557,0.450989,0.849731
1470332156306507,-0.175781,-0.208618,0.450562,0.849976
1470332156323025,-0.175781,-0.20874,0.450134,0.85022
1470332156345042,-0.175598,-0.208801,0.449829,0.850403
1470332156366561,-0.175354,-0.208679,0.449524,0.850647
1470332156382576,-0.175232,-0.208496,0.44928,0.85083
1470332156405099,-0.17511,-0.208191,0.449097,0.851013
1470332156426614,-0.174744,-0.207947,0.448914,0.851257
1470332156442633,-0.174316,-0.207703,0.448608,0.851563
1470332156465202,-0.17395,-0.207642,0.448242,0.851868
1470332156486690,-0.17334,-0.207703,0.447876,0.852173
1470332156502683,-0.172729,-0.207703,0.447693,0.852356
1470332156525203,-0.172119,-0.207581,0.447876,0.852417
1470332156547723,-0.171814,-0.207642,0.448059,0.852356
1470332156562236,-0.171387,-0.207703,0.448181,0.852417
1470332156585258,-0.171082,-0.207947,0.448059,0.852417
1470332156607777,-0.171021,-0.208435,0.447937,0.852417
1470332156622792,-0.171021,-0.208923,0.447815,0.852356
1470332156645311,-0.170593,-0.209045,0.447998,0.852356
1470332156667838,-0.169922,-0.208862,0.448181,0.852356
1470332156682344,-0.169617,-0.208862,0.448425,0.852356
1470332156705399,-0.169434,-0.208923,0.448486,0.852295
1470332156727886,-0.168884,-0.208923,0.448425,0.852478
1470332156742398,-0.168457,-0.208984,0.448242,0.852661
1470332156765419,-0.168213,-0.209351,0.448059,0.852661
1470332156787939,-0.167908,-0.209656,0.447876,0.852783
1470332156808977,-0.167419,-0.209717,0.447815,0.852905
1470332156825474,-0.166992,-0.209839,0.447632,0.853027
1470332156847993,-0.166504,-0.2099,0.447571,0.853149
1470332156862005,-0.166138,-0.210083,0.447571,0.853149
1470332156885527,-0.165833,-0.210266,0.44751,0.85321
1470332156907565,-0.165833,-0.210327,0.44751,0.85321
1470332156922059,-0.165833,-0.210327,0.44751,0.85321
1470332156945080,-0.165833,-0.210327,0.44751,0.853149
1470332156968129,-0.165894,-0.210327,0.44751,0.853149
1470332156989119,-0.166016,-0.210266,0.447327,0.853271
1470332157005139,-0.16626,-0.210205,0.447021,0.853394
1470332157027656,-0.166443,-0.210205,0.446716,0.853516
1470332157049173,-0.166565,-0.210144,0.446411,0.853699
1470332157065189,-0.166321,-0.2099,0.446167,0.853943
1470332157087709,-0.166382,-0.209839,0.445923,0.854065
1470332157108780,-0.166504,-0.210022,0.445618,0.854126
1470332157125243,-0.166565,-0.210144,0.445435,0.854187
1470332157147762,-0.166321,-0.210022,0.445313,0.854309
1470332157170295,-0.165771,-0.209778,0.445313,0.854492
1470332157185324,-0.165161,-0.209595,0.445251,0.854675
1470332157207860,-0.164795,-0.209595,0.44519,0.854797
1470332157228837,-0.164551,-0.209717,0.445129,0.854858
1470332157245356,-0.164612,-0.209717,0.445129,0.854858
1470332157267873,-0.164246,-0.209656,0.44519,0.854919
1470332157288944,-0.164063,-0.209595,0.445129,0.854919
1470332157305437,-0.164063,-0.209595,0.445129,0.854919
1470332157327923,-0.164063,-0.209595,0.445129,0.854919
1470332157348943,-0.164124,-0.209595,0.445129,0.854919
1470332157365457,-0.164124,-0.209595,0.445129,0.854919
1470332157388013,-0.164124,-0.209595,0.445129,0.854919
1470332157409039,-0.164124,-0.209595,0.445129,0.854919
1470332157425513,-0.164063,-0.209595,0.445129,0.854919
1470332157447532,-0.164063,-0.209595,0.44519,0.854919
1470332157470551,-0.164063,-0.209595,0.445129,0.854919
1470332157485065,-0.164063,-0.209595,0.445129,0.854919
1470332157507587,-0.164063,-0.209595,0.44519,0.854919
1470332157530141,-0.164124,-0.209534,0.44519,0.854919
1470332157545126,-0.163818,-0.20929,0.44519,0.855042
1470332157567639,-0.163696,-0.209167,0.445251,0.855103
1470332157590159,-0.163635,-0.209167,0.445251,0.855103
1470332157604672,-0.163635,-0.209167,0.445251,0.855103
1470332157627694,-0.163452,-0.209045,0.445374,0.855103
1470332157650213,-0.163452,-0.208984,0.445557,0.855042
1470332157664727,-0.16333,-0.208801,0.445618,0.855042
1470332157687748,-0.163269,-0.208801,0.445618,0.855042
1470332157710300,-0.163574,-0.208801,0.445618,0.85498
1470332157724780,-0.163818,-0.208801,0.445679,0.854919
1470332157747835,-0.163818,-0.208801,0.445679,0.854919
1470332157770346,-0.163818,-0.20874,0.445679,0.854919
1470332157784833,-0.163818,-0.20874,0.445679,0.854919
1470332157807857,-0.163818,-0.208801,0.445679,0.854919
1470332157830375,-0.163818,-0.20874,0.445679,0.854919
1470332157844888,-0.164001,-0.208801,0.445679,0.854858
1470332157867908,-0.164001,-0.20874,0.445679,0.854919
1470332157890428,-0.164001,-0.20874,0.445679,0.854919
1470332157904466,-0.164063,-0.20874,0.445679,0.854919
1470332157927962,-0.164063,-0.20874,0.445679,0.854858
1470332157950484,-0.164063,-0.208679,0.445679,0.854858
1470332157971555,-0.164063,-0.208679,0.445679,0.854858
1470332157988016,-0.164063,-0.208679,0.445679,0.854919
1470332158010075,-0.164063,-0.208679,0.445679,0.854919
1470332158031568,-0.164063,-0.208679,0.445679,0.854919
1470332158048070,-0.16394,-0.208374,0.445801,0.854919
1470332158070091,-0.163635,-0.207947,0.445923,0.855042
1470332158091609,-0.163208,-0.207581,0.446045,0.855164
1470332158108125,-0.163147,-0.20752,0.446045,0.855164
1470332158130144,-0.163269,-0.207764,0.445862,0.855164
1470332158151663,-0.163452,-0.208191,0.445679,0.855164
1470332158173683,-0.163452,-0.208435,0.445557,0.855164
1470332158190198,-0.163269,-0.208374,0.445618,0.855164
1470332158211717,-0.162964,-0.208191,0.445679,0.855225
1470332158227732,-0.162964,-0.20813,0.445679,0.855225
1470332158257759,-0.162964,-0.20813,0.445679,0.855225
1470332158271326,-0.162964,-0.20813,0.445679,0.855225
1470332158287802,-0.162781,-0.208069,0.445618,0.855347
1470332158310308,-0.162537,-0.207886,0.445618,0.855408
1470332158331325,-0.162476,-0.207886,0.445618,0.855408
1470332158347840,-0.162476,-0.207886,0.445618,0.855469
1470332158370359,-0.162476,-0.207825,0.445618,0.855469
1470332158400387,-0.162476,-0.207825,0.445618,0.855469
1470332158407897,-0.162292,-0.207703,0.445679,0.855469
1470332158430414,-0.162292,-0.207703,0.445679,0.855469
1470332158452964,-0.162476,-0.207764,0.445618,0.855469
1470332158467952,-0.162476,-0.207764,0.445618,0.855469
1470332158490467,-0.162476,-0.207764,0.445618,0.855469
1470332158513001,-0.162476,-0.207703,0.445618,0.855469
1470332158528002,-0.162476,-0.207703,0.445618,0.855469
1470332158550522,-0.162476,-0.207703,0.445618,0.855469
1470332158573042,-0.162476,-0.207642,0.445618,0.855469
1470332158587054,-0.162292,-0.207581,0.445557,0.855591
1470332158610581,-0.162292,-0.207581,0.445557,0.855591
1470332158633140,-0.162292,-0.20752,0.445557,0.855591
1470332158647109,-0.16217,-0.207703,0.445496,0.855591
1470332158670629,-0.162231,-0.207703,0.445496,0.855591
1470332158692664,-0.161804,-0.207642,0.445496,0.855652
1470332158707176,-0.161438,-0.20752,0.445557,0.855713
1470332158730185,-0.161011,-0.207397,0.445679,0.855774
1470332158759258,-0.160706,-0.207336,0.445801,0.855835
1470332158767217,-0.1604,-0.207092,0.445801,0.855896
1470332158790737,-0.15979,-0.206604,0.445862,0.85614
1470332158812759,-0.159241,-0.206238,0.445862,0.856323
1470332158827270,-0.158875,-0.205994,0.445984,0.856384
1470332158850290,-0.159302,-0.206665,0.446167,0.856079
1470332158872811,-0.15979,-0.207092,0.44635,0.855713
1470332158893862,-0.15979,-0.207214,0.446716,0.85553
1470332158910344,-0.159668,-0.207092,0.447021,0.855408
1470332158932867,-0.159302,-0.206909,0.447205,0.855408
1470332158938373,-0.159302,-0.206909,0.447205,0.855408
1470332158955887,-0.159424,-0.207153,0.447083,0.855408
1470332158975905,-0.159424,-0.207153,0.447083,0.855408
1470332158998425,-0.159302,-0.207214,0.44696,0.855469
1470332159015941,-0.159119,-0.207092,0.44696,0.85553
1470332159035957,-0.159119,-0.207031,0.44696,0.85553
1470332159058489,-0.159119,-0.207031,0.44696,0.85553
1470332159080997,-0.159119,-0.207031,0.44696,0.85553
1470332159096011,-0.158997,-0.206909,0.446899,0.855652
1470332159118531,-0.158752,-0.206726,0.44696,0.855713
1470332159136066,-0.158691,-0.206726,0.44696,0.855713
1470332159156066,-0.158691,-0.206726,0.44696,0.855713
1470332159178585,-0.158691,-0.206726,0.44696,0.855713
1470332159196101,-0.158569,-0.206665,0.44696,0.855774
1470332159215618,-0.158264,-0.206482,0.447021,0.855835
1470332159238690,-0.15802,-0.206238,0.447083,0.855896
1470332159256156,-0.15802,-0.206238,0.447083,0.855896
1470332159275690,-0.158081,-0.206238,0.447083,0.855896
1470332159298255,-0.157837,-0.205933,0.447205,0.855896
1470332159323797,-0.157776,-0.205627,0.447327,0.855957
1470332159335753,-0.157776,-0.205139,0.447449,0.856018
1470332159358330,-0.157654,-0.204529,0.447632,0.856079
1470332159376272,-0.15741,-0.203796,0.447754,0.856201
1470332159395781,-0.157227,-0.203064,0.447876,0.856384
1470332159418319,-0.157166,-0.202576,0.447998,0.856445
1470332159436351,-0.157227,-0.202087,0.448181,0.856445
1470332159455876,-0.157227,-0.201843,0.448364,0.856445
1470332159478380,-0.157104,-0.201416,0.448486,0.856445
1470332159496397,-0.157104,-0.201416,0.448486,0.856445
1470332159515893,-0.157104,-0.201416,0.448486,0.856445
1470332159538408,-0.15741,-0.201416,0.448547,0.856384
1470332159560986,-0.157715,-0.201416,0.448608,0.856323
1470332159575946,-0.158142,-0.201477,0.448669,0.85614
1470332159598464,-0.158569,-0.20166,0.448669,0.856079
1470332159615980,-0.158997,-0.201843,0.448669,0.855896
1470332159635996,-0.159241,-0.201965,0.44873,0.855835
1470332159658516,-0.159424,-0.202209,0.448853,0.855652
1470332159681036,-0.159973,-0.202759,0.448914,0.855408
1470332159696085,-0.161011,-0.203552,0.448853,0.855042
1470332159718575,-0.162415,-0.204773,0.448486,0.854675
1470332159736085,-0.163818,-0.206116,0.448242,0.854248
1470332159755604,-0.164917,-0.207153,0.448181,0.853821
1470332159778123,-0.165527,-0.207825,0.448242,0.853455
1470332159803647,-0.166077,-0.208313,0.448425,0.853149
1470332159815658,-0.166443,-0.208679,0.448486,0.852966
1470332159838179,-0.16687,-0.208984,0.448425,0.852844
1470332159856194,-0.16748,-0.208984,0.448425,0.852722
1470332159877213,-0.167603,-0.208557,0.448486,0.852783
1470332159898249,-0.167114,-0.207947,0.448486,0.853027
1470332159916263,-0.166504,-0.207214,0.448669,0.85321
1470332159935814,-0.165894,-0.206604,0.448914,0.853333
1470332159958285,-0.165222,-0.205811,0.449097,0.853577
1470332159976306,-0.164612,-0.205078,0.449463,0.853699
1470332159997322,-0.164185,-0.204834,0.449585,0.85376
1470332160018853,-0.163757,-0.20459,0.449707,0.853821
1470332160036356,-0.163635,-0.204407,0.449768,0.853882
1470332160057374,-0.163269,-0.204163,0.449829,0.854004
1470332160078409,-0.162842,-0.203796,0.44989,0.854065
1470332160095911,-0.162842,-0.203796,0.44989,0.854065
1470332160116928,-0.162842,-0.203796,0.449951,0.854065
1470332160138447,-0.16272,-0.203613,0.450012,0.854126
1470332160156463,-0.16272,-0.203552,0.450012,0.854126
1470332160177482,-0.16272,-0.203552,0.450012,0.854126
1470332160198501,-0.162964,-0.203735,0.449829,0.854126
1470332160217018,-0.163452,-0.204102,0.449829,0.853943
1470332160237035,-0.164124,-0.204407,0.449768,0.85376
1470332160258555,-0.164429,-0.204407,0.449707,0.85376
1470332160276071,-0.164429,-0.204102,0.449768,0.853821
1470332160298608,-0.16449,-0.204041,0.449768,0.853821
1470332160318136,-0.16449,-0.204041,0.449768,0.853821
1470332160342130,-0.164673,-0.203918,0.449646,0.853882
1470332160358651,-0.165039,-0.203796,0.449463,0.853882
1470332160378698,-0.165466,-0.203674,0.449341,0.853943
1470332160396191,-0.165833,-0.20343,0.44928,0.853943
1470332160418717,-0.165771,-0.203064,0.44928,0.854004
1470332160438236,-0.165833,-0.202759,0.449341,0.854065
1470332160460743,-0.165833,-0.202759,0.449341,0.854065
1470332160478775,-0.165833,-0.202759,0.449341,0.854065
1470332160498271,-0.165833,-0.202759,0.449341,0.854065
1470332160520790,-0.165833,-0.202759,0.449341,0.854065
1470332160538806,-0.165833,-0.202698,0.449341,0.854065
1470332160558325,-0.165833,-0.202698,0.449341,0.854065
1470332160580846,-0.165894,-0.202698,0.449341,0.854065
1470332160598861,-0.165833,-0.202698,0.449341,0.854065
1470332160618378,-0.165833,-0.202698,0.449341,0.854065
1470332160640929,-0.166077,-0.202698,0.449341,0.854065
1470332160658416,-0.166077,-0.202637,0.449341,0.854004
1470332160678433,-0.166138,-0.202637,0.449341,0.854004
1470332160700951,-0.166138,-0.202637,0.449341,0.854004
1470332160718468,-0.166138,-0.202637,0.449341,0.854004
1470332160738485,-0.166138,-0.202576,0.449341,0.854004
1470332160760507,-0.16626,-0.202698,0.449463,0.853943
1470332160778522,-0.166565,-0.202759,0.449585,0.85376
1470332160798543,-0.166809,-0.202881,0.449768,0.853638
1470332160820575,-0.166809,-0.202881,0.449768,0.853638
1470332160838575,-0.166809,-0.202881,0.449768,0.853638
1470332160858619,-0.166809,-0.20282,0.449768,0.853638
1470332160880614,-0.167114,-0.202881,0.449707,0.853577
1470332160898629,-0.167114,-0.202881,0.449707,0.853577
1470332160919682,-0.167053,-0.20282,0.44989,0.853516
1470332160940669,-0.167114,-0.202759,0.44989,0.853516
1470332160958698,-0.167236,-0.202698,0.449951,0.853455
1470332160979719,-0.16748,-0.202759,0.449951,0.853394
1470332161000755,-0.16748,-0.202759,0.449951,0.853394
1470332161018755,-0.167542,-0.202759,0.449951,0.853394
1470332161039759,-0.167969,-0.20282,0.449951,0.853333
1470332161060799,-0.168213,-0.202759,0.449829,0.853333
1470332161078841,-0.16864,-0.202759,0.449768,0.853333
1470332161099811,-0.168945,-0.202759,0.449646,0.853271
1470332161120829,-0.168945,-0.202759,0.449646,0.853271
1470332161138862,-0.168762,-0.202209,0.44989,0.853333
1470332161159866,-0.168457,-0.201294,0.450317,0.853394
1470332161188389,-0.168335,-0.2005,0.450745,0.853333
1470332161198899,-0.168335,-0.200134,0.451111,0.853271
1470332161219919,-0.167664,-0.19989,0.451904,0.853027
1470332161240936,-0.167236,-0.199707,0.452576,0.852783
1470332161258953,-0.167175,-0.199463,0.453003,0.852661
1470332161280973,-0.167725,-0.199585,0.453125,0.852478
1470332161300991,-0.168091,-0.199707,0.453064,0.852356
1470332161318507,-0.167908,-0.199585,0.452942,0.852478
1470332161341028,-0.167725,-0.199463,0.45282,0.8526
1470332161361045,-0.167664,-0.199524,0.452637,0.852722
1470332161378561,-0.16803,-0.199768,0.452515,0.852661
1470332161401081,-0.168396,-0.200012,0.452393,0.8526
1470332161420600,-0.168579,-0.200073,0.452332,0.8526
1470332161438643,-0.168579,-0.200012,0.452332,0.8526
1470332161460134,-0.168579,-0.200012,0.452332,0.8526
1470332161481653,-0.168762,-0.200073,0.452271,0.8526
1470332161497668,-0.169006,-0.200134,0.452148,0.852539
1470332161520323,-0.169006,-0.200134,0.452148,0.852539
1470332161541360,-0.169006,-0.200134,0.452148,0.852539
1470332161557857,-0.169006,-0.200134,0.452148,0.852539
1470332161580879,-0.169128,-0.200317,0.452148,0.852478
1470332161601398,-0.169373,-0.200439,0.452087,0.852478
1470332161617910,-0.169556,-0.200562,0.452026,0.852417
1470332161640430,-0.169556,-0.200562,0.452026,0.852417
1470332161661467,-0.169495,-0.200378,0.452087,0.852478
1470332161677964,-0.169434,-0.200195,0.452148,0.852478
1470332161700489,-0.169495,-0.200195,0.452148,0.852478
1470332161721524,-0.169312,-0.199951,0.452271,0.852478
1470332161738018,-0.169067,-0.199402,0.452515,0.852539
1470332161760538,-0.168762,-0.198669,0.45282,0.8526
1470332161781557,-0.168701,-0.19873,0.453491,0.852234
1470332161798071,-0.169067,-0.19928,0.454102,0.851746
1470332161820593,-0.169373,-0.19928,0.454468,0.851501
1470332161841610,-0.169617,-0.199219,0.454651,0.851379
1470332161857627,-0.169617,-0.199158,0.454651,0.851318
1470332161880146,-0.169495,-0.199036,0.454712,0.851379
1470332161901665,-0.1698,-0.199219,0.454468,0.851379
1470332161917679,-0.170532,-0.199585,0.454102,0.851379
1470332161940199,-0.171265,-0.199829,0.453674,0.851379
1470332161961737,-0.171509,-0.199768,0.45343,0.851501
1470332161977753,-0.171265,-0.199524,0.453369,0.851624
1470332162000253,-0.171448,-0.199463,0.453369,0.851624
1470332162021773,-0.171875,-0.199646,0.453247,0.851501
1470332162037787,-0.171936,-0.199646,0.453247,0.851501
1470332162060325,-0.17157,-0.199463,0.453308,0.851624
1470332162081328,-0.171265,-0.199341,0.453491,0.851624
1470332162097841,-0.171326,-0.199341,0.453491,0.851624
1470332162120361,-0.171326,-0.199341,0.453491,0.851624
1470332162141395,-0.171631,-0.199463,0.453491,0.851501
1470332162157895,-0.171631,-0.199463,0.453552,0.851501
1470332162180415,-0.171631,-0.199219,0.453613,0.851501
1470332162202942,-0.171509,-0.198975,0.453674,0.851563
1470332162217949,-0.171814,-0.198853,0.453674,0.851501
1470332162240470,-0.172302,-0.198792,0.453613,0.85144
1470332162262989,-0.172729,-0.198669,0.453552,0.851379
1470332162278007,-0.173096,-0.198669,0.453552,0.851379
1470332162300553,-0.173096,-0.198669,0.453552,0.851379
1470332162323043,-0.173096,-0.198669,0.453552,0.851379
1470332162337057,-0.173096,-0.198608,0.453552,0.851379
1470332162360578,-0.173096,-0.198608,0.453552,0.851379
1470332162383097,-0.173096,-0.198608,0.453552,0.851379
1470332162397618,-0.173096,-0.198608,0.453552,0.851379
1470332162420130,-0.173157,-0.198608,0.453552,0.851379
1470332162442650,-0.173157,-0.198608,0.453552,0.851379
1470332162457166,-0.173218,-0.198608,0.453552,0.851318
1470332162480186,-0.173218,-0.198608,0.453552,0.851318
1470332162502716,-0.173218,-0.198669,0.453552,0.851318
1470332162524324,-0.173279,-0.198669,0.453552,0.851318
1470332162540238,-0.173279,-0.198608,0.453552,0.851318
1470332162562789,-0.173523,-0.198608,0.453369,0.851379
1470332162577271,-0.173889,-0.198364,0.453247,0.85144
1470332162600294,-0.174377,-0.198181,0.453186,0.851379
1470332162622829,-0.174927,-0.197937,0.453186,0.851318
1470332162637326,-0.175476,-0.197571,0.453125,0.851379
1470332162660347,-0.175659,-0.197144,0.453186,0.851379
1470332162682868,-0.175842,-0.196838,0.453491,0.851257
1470332162703911,-0.17627,-0.196777,0.453796,0.851013
1470332162720400,-0.177002,-0.196716,0.453979,0.850769
1470332162742923,-0.177673,-0.196411,0.454163,0.850647
1470332162763964,-0.178955,-0.19635,0.454468,0.85022
1470332162780455,-0.180908,-0.196655,0.454956,0.849426
1470332162802974,-0.182617,-0.197205,0.4552,0.848816
1470332162824007,-0.18396,-0.198059,0.455322,0.848267
1470332162840508,-0.184326,-0.198303,0.45575,0.8479
1470332162863029,-0.184021,-0.197815,0.456238,0.847839
1470332162884047,-0.184326,-0.197571,0.456482,0.847656
1470332162900562,-0.18512,-0.197632,0.456665,0.847351
1470332162923082,-0.185303,-0.197327,0.456848,0.847351
1470332162944156,-0.184814,-0.196655,0.457214,0.847351
1470332162960616,-0.184082,-0.19574,0.457703,0.847473
1470332162983136,-0.183655,-0.19519,0.458069,0.847534
1470332163004182,-0.183899,-0.194946,0.458313,0.847412
1470332163020175,-0.183899,-0.194397,0.458557,0.847351
1470332163042689,-0.184021,-0.194092,0.458618,0.847412
1470332163063708,-0.184143,-0.193726,0.458557,0.847473
1470332163080223,-0.184143,-0.193787,0.458557,0.847473
1470332163103244,-0.184143,-0.193848,0.458801,0.847351
1470332163125305,-0.18457,-0.193848,0.459167,0.847046
1470332163140277,-0.184937,-0.193604,0.459595,0.846802
1470332163162797,-0.185425,-0.193542,0.459839,0.846558
1470332163185317,-0.185791,-0.193665,0.4599,0.846375
1470332163200354,-0.185791,-0.193604,0.459961,0.846375
1470332163222879,-0.185852,-0.193237,0.460022,0.846436
1470332163245378,-0.185852,-0.193298,0.460022,0.846436
1470332163260384,-0.185913,-0.193298,0.460022,0.846375
1470332163282905,-0.186157,-0.193481,0.459778,0.846436
1470332163305425,-0.18634,-0.193481,0.459595,0.846497
1470332163319939,-0.186401,-0.193481,0.45929,0.846619
1470332163342959,-0.186462,-0.193481,0.459045,0.846741
1470332163365480,-0.186584,-0.193359,0.458862,0.846863
1470332163379492,-0.186584,-0.193298,0.458862,0.846863
1470332163403022,-0.186584,-0.193298,0.458862,0.846863
1470332163425533,-0.186523,-0.193298,0.458862,0.846863
1470332163439548,-0.186584,-0.193298,0.458862,0.846863
1470332163463067,-0.186951,-0.193359,0.458862,0.846802
1470332163485588,-0.187378,-0.19342,0.458801,0.846741
1470332163499601,-0.187988,-0.193604,0.458679,0.846619
1470332163522651,-0.188354,-0.193542,0.458679,0.846558
1470332163545641,-0.188904,-0.193604,0.458618,0.846436
1470332163559654,-0.190186,-0.193848,0.458374,0.846191
1470332163582674,-0.191406,-0.194214,0.458191,0.845947
1470332163605696,-0.192383,-0.194458,0.458008,0.845764
1470332163619709,-0.193298,-0.194519,0.458069,0.84552
1470332163642751,-0.194336,-0.194702,0.458008,0.845276
1470332163665248,-0.195435,-0.194824,0.457947,0.845032
1470332163686364,-0.196472,-0.195129,0.457825,0.844788
1470332163702791,-0.197021,-0.195251,0.457825,0.844604
1470332163725303,-0.197021,-0.195251,0.457825,0.844604
1470332163746366,-0.196899,-0.195007,0.457886,0.844666
1470332163762836,-0.196594,-0.194519,0.457947,0.844849
1470332163785356,-0.19635,-0.194153,0.457825,0.845032
1470332163806922,-0.196411,-0.194214,0.457825,0.845032
1470332163822937,-0.196411,-0.194214,0.457825,0.845032
1470332163845410,-0.196228,-0.194031,0.457825,0.845093
1470332163866473,-0.196045,-0.193909,0.457764,0.845215
1470332163882943,-0.196045,-0.193909,0.457764,0.845215
1470332163905465,-0.196106,-0.193909,0.457764,0.845215
1470332163926508,-0.196106,-0.193848,0.457764,0.845154
1470332163942998,-0.196045,-0.194153,0.457581,0.845215
1470332163965518,-0.196106,-0.194519,0.457336,0.845276
1470332163986537,-0.196228,-0.194885,0.457153,0.845276
1470332164003052,-0.196472,-0.19519,0.457092,0.845154
1470332164025571,-0.196472,-0.19519,0.457092,0.845154
1470332164046590,-0.196472,-0.19519,0.457092,0.845154
1470332164063105,-0.196533,-0.19519,0.457092,0.845154
1470332164085626,-0.196289,-0.195313,0.457031,0.845215
1470332164107647,-0.195984,-0.195374,0.456909,0.845337
1470332164122662,-0.195557,-0.195374,0.456909,0.845459
1470332164145181,-0.195129,-0.195374,0.45697,0.84552
1470332164167699,-0.194702,-0.195435,0.457031,0.845581
1470332164183213,-0.194397,-0.195618,0.45697,0.845642
1470332164205233,-0.194092,-0.19574,0.456848,0.845703
1470332164228253,-0.193604,-0.19574,0.456665,0.845947
1470332164249272,-0.193481,-0.195984,0.456421,0.846008
1470332164265288,-0.19342,-0.196106,0.456238,0.84613
1470332164287807,-0.193359,-0.196045,0.456116,0.846191
1470332164308827,-0.193054,-0.196045,0.455994,0.846375
1470332164325341,-0.192322,-0.195923,0.45575,0.84668
1470332164347861,-0.191711,-0.195801,0.455627,0.846924
1470332164362374,-0.191162,-0.195923,0.455383,0.847107
1470332164385395,-0.190796,-0.196045,0.4552,0.84729
1470332164407916,-0.190369,-0.196045,0.4552,0.847412
1470332164422428,-0.190063,-0.196228,0.455139,0.847473
1470332164445449,-0.190186,-0.196533,0.4552,0.847351
1470332164467969,-0.190674,-0.19696,0.455078,0.847168
1470332164481983,-0.190979,-0.197388,0.4552,0.846924
1470332164505524,-0.191101,-0.197754,0.455322,0.846741
1470332164528037,-0.190918,-0.197937,0.455261,0.846802
1470332164542036,-0.190918,-0.198181,0.455322,0.846741
1470332164565556,-0.191284,-0.198669,0.455261,0.846558
1470332164588076,-0.191284,-0.19873,0.455261,0.846558
1470332164609131,-0.191345,-0.19873,0.455261,0.846558
1470332164625611,-0.191528,-0.19873,0.455017,0.846619
1470332164648130,-0.191467,-0.198608,0.454895,0.846741
1470332164669175,-0.191162,-0.198303,0.454712,0.846985
1470332164685219,-0.191101,-0.198242,0.454346,0.847168
1470332164707693,-0.190979,-0.197937,0.453979,0.847473
1470332164729203,-0.190796,-0.197815,0.453369,0.847839
1470332164745236,-0.190735,-0.197571,0.452881,0.848206
1470332164767738,-0.190796,-0.197327,0.452637,0.848389
1470332164789261,-0.191406,-0.19751,0.452637,0.848206
1470332164805272,-0.191589,-0.197693,0.452515,0.848145
1470332164827793,-0.191772,-0.197815,0.452515,0.848083
1470332164849311,-0.191467,-0.197815,0.452454,0.848206
1470332164865326,-0.190674,-0.197693,0.452515,0.848389
1470332164887846,-0.190063,-0.197571,0.452515,0.848511
1470332164908900,-0.189636,-0.197571,0.452576,0.848633
1470332164925379,-0.189209,-0.197449,0.452576,0.848755
1470332164947900,-0.18866,-0.197205,0.452515,0.848938
1470332164969419,-0.188232,-0.19696,0.452393,0.849121
1470332164985433,-0.188293,-0.19696,0.452393,0.849121
1470332165007957,-0.188232,-0.196899,0.452332,0.849182
1470332165029039,-0.18811,-0.196655,0.452087,0.849426
1470332165045488,-0.187683,-0.196228,0.451843,0.849731
1470332165068008,-0.186829,-0.19574,0.451599,0.850159
1470332165090528,-0.186096,-0.195129,0.451538,0.850464
1470332165105541,-0.185852,-0.195007,0.451538,0.850586
1470332165128063,-0.185242,-0.194946,0.451416,0.850769
1470332165150081,-0.184814,-0.194824,0.451416,0.850952
1470332165164594,-0.185181,-0.195374,0.451355,0.850769
1470332165188116,-0.185791,-0.195801,0.451477,0.850464
1470332165210135,-0.185791,-0.195801,0.451477,0.850464
1470332165224650,-0.18573,-0.19574,0.451477,0.850464
1470332165247669,-0.185608,-0.195557,0.451782,0.850403
1470332165270689,-0.185608,-0.195618,0.452087,0.85022
1470332165284705,-0.185669,-0.195618,0.452393,0.849976
1470332165307723,-0.18573,-0.195679,0.452637,0.849854
1470332165330243,-0.185852,-0.195557,0.45282,0.849731
1470332165344769,-0.186279,-0.195557,0.45282,0.84967
1470332165367779,-0.186829,-0.195435,0.452759,0.849609
1470332165390297,-0.187073,-0.19519,0.452698,0.84967
1470332165404809,-0.187134,-0.194946,0.452637,0.849731
1470332165427833,-0.187195,-0.194702,0.452637,0.849792
1470332165450351,-0.187561,-0.19458,0.452576,0.849731
1470332165464868,-0.187561,-0.194641,0.452576,0.849731
1470332165487886,-0.187561,-0.194641,0.452576,0.849731
1470332165510406,-0.187317,-0.194458,0.452576,0.849792
1470332165524918,-0.187317,-0.194458,0.452637,0.849792
1470332165547939,-0.187317,-0.194458,0.452637,0.849792
1470332165570459,-0.187317,-0.194458,0.452637,0.849792
1470332165591497,-0.187439,-0.194519,0.45282,0.84967
1470332165607993,-0.1875,-0.19458,0.453064,0.849487
1470332165630515,-0.187622,-0.19458,0.453369,0.849304
1470332165651547,-0.187744,-0.194397,0.453735,0.849121
1470332165668086,-0.187988,-0.194275,0.454041,0.848938
1470332165696576,-0.188538,-0.194031,0.454468,0.848694
1470332165711586,-0.189087,-0.193787,0.454773,0.848389
1470332165727600,-0.189636,-0.19342,0.455078,0.848206
1470332165750621,-0.18988,-0.192993,0.455383,0.848083
1470332165772644,-0.190002,-0.192566,0.455688,0.848022
1470332165788154,-0.190247,-0.1922,0.456055,0.847839
1470332165817681,-0.190674,-0.191956,0.456543,0.847534
1470332165831693,-0.191162,-0.191833,0.457031,0.847229
1470332165855720,-0.191406,-0.191833,0.457458,0.846924
1470332165870751,-0.19165,-0.191772,0.457886,0.846619
1470332165891751,-0.191833,-0.191772,0.458435,0.846252
1470332165908303,-0.192078,-0.191772,0.459045,0.845947
1470332165930282,-0.192322,-0.19165,0.459656,0.845581
1470332165951301,-0.192688,-0.19165,0.460266,0.845154
1470332165974425,-0.193176,-0.191528,0.460999,0.844666
1470332165990336,-0.193481,-0.191223,0.461792,0.844238
1470332166012905,-0.194153,-0.190979,0.462585,0.843689
1470332166027869,-0.195007,-0.190735,0.463379,0.843079
1470332166050390,-0.195923,-0.190369,0.464294,0.842468
1470332166072910,-0.197083,-0.18988,0.465088,0.841858
1470332166087927,-0.198242,-0.189453,0.46582,0.841309
1470332166110445,-0.199341,-0.189026,0.46637,0.84082
1470332166132964,-0.200623,-0.188782,0.466919,0.840271
1470332166147477,-0.202271,-0.188782,0.467529,0.839539
1470332166170498,-0.203857,-0.188721,0.468262,0.838745
1470332166193018,-0.204956,-0.188293,0.469055,0.838135
1470332166207531,-0.205566,-0.187988,0.469971,0.837524
1470332166230553,-0.206055,-0.187805,0.471069,0.836853
1470332166253117,-0.206665,-0.187683,0.472168,0.836121
1470332166267585,-0.207581,-0.187866,0.473022,0.835388
1470332166290606,-0.208435,-0.188293,0.473694,0.834656
1470332166313177,-0.209045,-0.188538,0.474426,0.834045
1470332166327142,-0.209595,-0.188782,0.475281,0.833374
1470332166350660,-0.210022,-0.188782,0.476257,0.832703
1470332166373181,-0.210571,-0.188721,0.477173,0.832031
1470332166387193,-0.211548,-0.188782,0.477905,0.83136
1470332166410713,-0.212585,-0.188904,0.478455,0.83075
1470332166433233,-0.213562,-0.188965,0.478882,0.830261
1470332166447247,-0.214539,-0.188965,0.479248,0.829773
1470332166470266,-0.215515,-0.189026,0.479431,0.829407
1470332166500294,-0.216431,-0.188965,0.479614,0.829041
1470332166514307,-0.217468,-0.189087,0.479858,0.828674
1470332166530321,-0.218567,-0.189209,0.480042,0.828247
1470332166552841,-0.219421,-0.18927,0.480225,0.827881
1470332166574862,-0.220154,-0.18927,0.480347,0.827637
1470332166591378,-0.220764,-0.189331,0.480286,0.827454
1470332166612896,-0.221375,-0.189392,0.480286,0.827271
1470332166633931,-0.221985,-0.189392,0.480286,0.827087
1470332166650436,-0.222656,-0.189453,0.480225,0.826965
