timestamp,roll,pitch,yaw
1470344759340839,-0.559213,-0.0864187,-0.954608
1470344759363861,-0.562745,-0.0887705,-0.954351
1470344759378874,-0.568771,-0.0922128,-0.952896
1470344759400893,-0.575481,-0.0959057,-0.950723
1470344759422417,-0.579254,-0.0980551,-0.948673
1470344759438437,-0.57879,-0.0987424,-0.947566
1470344759461459,-0.576441,-0.098545,-0.94766
1470344759482477,-0.576252,-0.098331,-0.947685
1470344759498491,-0.578044,-0.0975499,-0.947224
1470344759521516,-0.579853,-0.0969521,-0.94643
1470344759542536,-0.576637,-0.0950513,-0.946609
1470344759559050,-0.570243,-0.090775,-0.947675
1470344759581570,-0.563962,-0.0875961,-0.948018
1470344759602589,-0.563667,-0.0871478,-0.94711
1470344759618603,-0.567145,-0.0877997,-0.945126
1470344759641624,-0.570915,-0.0886054,-0.94373
1470344759662643,-0.571294,-0.0885821,-0.943065
1470344759678659,-0.573741,-0.0906143,-0.943193
1470344759701178,-0.580939,-0.093924,-0.942337
1470344759723698,-0.590922,-0.0981422,-0.939325
1470344759738211,-0.596975,-0.101192,-0.934344
1470344759761264,-0.600817,-0.103563,-0.928309
1470344759783285,-0.607953,-0.10694,-0.919839
1470344759798298,-0.619779,-0.109945,-0.90864
1470344759821318,-0.628015,-0.107821,-0.892262
1470344759843843,-0.631926,-0.102756,-0.869842
1470344759857870,-0.640594,-0.094859,-0.839269
1470344759880890,-0.655003,-0.0868636,-0.80152
1470344759903910,-0.667255,-0.0785218,-0.760242
1470344759918924,-0.67425,-0.0715028,-0.717831
1470344759941449,-0.678599,-0.0662969,-0.675189
1470344759963974,-0.683776,-0.0616195,-0.63261
1470344759977989,-0.688734,-0.0593989,-0.59178
1470344760001009,-0.694121,-0.0578421,-0.554038
1470344760024029,-0.698274,-0.0565165,-0.520344
1470344760045053,-0.703854,-0.0557118,-0.491536
1470344760061076,-0.707585,-0.0535885,-0.468615
1470344760083095,-0.709348,-0.0496689,-0.452068
1470344760105114,-0.714387,-0.046788,-0.44059
1470344760136143,-0.722777,-0.0473972,-0.43323
1470344760143656,-0.729087,-0.0511123,-0.428714
1470344760181197,-0.729552,-0.0568225,-0.426993
1470344760184199,-0.729927,-0.0624826,-0.427976
1470344760203217,-0.731779,-0.0649204,-0.429693
1470344760232243,-0.736711,-0.0660999,-0.430851
1470344760241259,-0.741673,-0.0665159,-0.432684
1470344760263284,-0.740131,-0.0662055,-0.434892
1470344760286306,-0.734604,-0.0662255,-0.435118
1470344760301319,-0.731365,-0.0666543,-0.433723
1470344760323338,-0.731658,-0.0653421,-0.431545
1470344760345865,-0.731115,-0.0617279,-0.429797
1470344760361386,-0.726982,-0.0561514,-0.42885
1470344760383404,-0.722172,-0.0520301,-0.428244
1470344760404425,-0.719013,-0.0506382,-0.428591
1470344760421440,-0.718179,-0.0501759,-0.428586
1470344760443965,-0.716332,-0.0495137,-0.428992
1470344760464983,-0.712803,-0.047757,-0.428894
1470344760481498,-0.708492,-0.0461371,-0.428985
1470344760503519,-0.705955,-0.0446317,-0.42857
1470344760525037,-0.704398,-0.0431771,-0.428481
1470344760541553,-0.705741,-0.0431422,-0.428314
1470344760565074,-0.708858,-0.0439094,-0.427412
1470344760585092,-0.709517,-0.0442834,-0.426249
1470344760601106,-0.70623,-0.0422423,-0.426668
1470344760623626,-0.704662,-0.0377839,-0.42739
1470344760646147,-0.703839,-0.0324126,-0.428094
1470344760661160,-0.704873,-0.0315488,-0.428748
1470344760683681,-0.709176,-0.0344194,-0.428501
1470344760706201,-0.711041,-0.037088,-0.426707
1470344760723216,-0.709237,-0.0375918,-0.425206
1470344760743735,-0.707075,-0.0375785,-0.42468
1470344760766255,-0.706296,-0.0368527,-0.424634
1470344760781268,-0.705126,-0.0351626,-0.42397
1470344760803788,-0.703518,-0.0329438,-0.422556
1470344760826532,-0.705807,-0.0332222,-0.421924
1470344760841044,-0.713297,-0.0360264,-0.421087
1470344760864566,-0.720061,-0.0388925,-0.419103
1470344760886584,-0.72207,-0.0413741,-0.41643
1470344760900599,-0.719317,-0.0434308,-0.415367
1470344760923618,-0.716622,-0.0460691,-0.414775
1470344760946145,-0.716511,-0.0483778,-0.413915
1470344760960155,-0.713527,-0.0471812,-0.413526
1470344760983177,-0.71361,-0.0442027,-0.413699
1470344761006197,-0.717452,-0.043079,-0.413803
1470344761020211,-0.718968,-0.0447039,-0.413675
1470344761043763,-0.717775,-0.0454418,-0.413876
1470344761066179,-0.71631,-0.0454343,-0.413671
1470344761080206,-0.717206,-0.0451442,-0.412347
1470344761103242,-0.717507,-0.0447348,-0.411449
1470344761126234,-0.717914,-0.0446802,-0.411101
1470344761147354,-0.71923,-0.0452,-0.410312
1470344761171348,-0.720356,-0.0454206,-0.409887
1470344761186361,-0.721248,-0.0441089,-0.409096
1470344761207444,-0.723577,-0.0428698,-0.408348
1470344761231478,-0.724698,-0.042072,-0.408458
1470344761245521,-0.724183,-0.0412324,-0.408595
1470344761274601,-0.724321,-0.0407169,-0.408939
1470344761283553,-0.725287,-0.0413732,-0.409417
1470344761305572,-0.72634,-0.0422152,-0.409956
1470344761327605,-0.727655,-0.0427028,-0.411188
1470344761343693,-0.729291,-0.043365,-0.411961
1470344761365771,-0.730649,-0.0441653,-0.41229
1470344761386793,-0.730946,-0.0447586,-0.412615
1470344761403807,-0.730502,-0.0448403,-0.412674
1470344761425826,-0.732855,-0.0450755,-0.412327
1470344761447635,-0.733239,-0.044822,-0.413514
1470344761463652,-0.732365,-0.0438957,-0.413681
1470344761485685,-0.732225,-0.0438713,-0.413675
1470344761508690,-0.732874,-0.0440929,-0.413904
1470344761523703,-0.732874,-0.0440929,-0.413904
1470344761545228,-0.732154,-0.0443538,-0.413639
1470344761566745,-0.731357,-0.0443926,-0.413847
1470344761583730,-0.731715,-0.0445404,-0.413676
1470344761605747,-0.732469,-0.0448111,-0.413622
1470344761628770,-0.733557,-0.0450123,-0.412789
1470344761643788,-0.734796,-0.0458797,-0.411599
1470344761665813,-0.733923,-0.0466045,-0.410214
1470344761688834,-0.733413,-0.0465924,-0.408702
1470344761703850,-0.732423,-0.0465839,-0.407843
1470344761725870,-0.731336,-0.0461189,-0.407969
1470344761748935,-0.730788,-0.0449148,-0.40826
1470344761769986,-0.730006,-0.0429194,-0.408701
1470344761785987,-0.728289,-0.0401981,-0.408831
1470344761808991,-0.726086,-0.0378875,-0.408904
1470344761823001,-0.723811,-0.0356914,-0.408254
1470344761845563,-0.721459,-0.0343722,-0.407131
1470344761868749,-0.717781,-0.0327353,-0.406986
1470344761882748,-0.711847,-0.0310085,-0.408603
1470344761905769,-0.708009,-0.0306687,-0.410215
1470344761928790,-0.70704,-0.0299055,-0.41124
1470344761943315,-0.70619,-0.0287417,-0.411074
1470344761966345,-0.705087,-0.0270316,-0.409233
1470344761988368,-0.709035,-0.0263602,-0.408402
1470344762009417,-0.718617,-0.0261134,-0.407638
1470344762026397,-0.726638,-0.0256784,-0.406589
1470344762048510,-0.7306,-0.024592,-0.406469
1470344762069546,-0.728747,-0.0239526,-0.406853
1470344762086521,-0.728543,-0.0228991,-0.40457
1470344762114580,-0.729536,-0.0222827,-0.401407
1470344762129626,-0.730677,-0.0222066,-0.398179
1470344762146090,-0.730471,-0.0229899,-0.395461
1470344762176230,-0.730432,-0.024941,-0.392579
1470344762189280,-0.731954,-0.0276007,-0.38899
1470344762206294,-0.735285,-0.0312708,-0.384733
1470344762228274,-0.73647,-0.0363723,-0.38044
1470344762249866,-0.733416,-0.0383771,-0.3779
1470344762265871,-0.726909,-0.0369965,-0.375943
1470344762288916,-0.722695,-0.0349881,-0.374616
1470344762309913,-0.721454,-0.0343706,-0.374633
1470344762325925,-0.718957,-0.0347633,-0.375962
1470344762349013,-0.715448,-0.0346964,-0.377257
1470344762370032,-0.712438,-0.0344468,-0.377447
1470344762386057,-0.711,-0.0339899,-0.376599
1470344762409068,-0.707966,-0.0335986,-0.375392
1470344762430085,-0.703674,-0.0322471,-0.37473
1470344762446108,-0.699925,-0.0297875,-0.375421
1470344762469132,-0.698627,-0.0275924,-0.375876
1470344762490151,-0.698387,-0.0268682,-0.375872
1470344762506167,-0.696966,-0.026016,-0.376099
1470344762529186,-0.696459,-0.0240232,-0.377051
1470344762550235,-0.696468,-0.0215395,-0.378217
1470344762566249,-0.696205,-0.0192612,-0.378214
1470344762588271,-0.694908,-0.0178268,-0.378266
1470344762611289,-0.692979,-0.0164562,-0.379175
1470344762626303,-0.689945,-0.0137781,-0.379939
1470344762649076,-0.687704,-0.01036,-0.380098
1470344762671125,-0.6868,-0.008997,-0.380143
1470344762686111,-0.689436,-0.00880727,-0.379968
1470344762709132,-0.69455,-0.00902823,-0.379701
1470344762731170,-0.698199,-0.0109118,-0.380058
1470344762745692,-0.698557,-0.0115358,-0.379706
1470344762768274,-0.700388,-0.0123917,-0.379651
1470344762791291,-0.703648,-0.0138646,-0.379057
1470344762805360,-0.707113,-0.015653,-0.378485
1470344762828323,-0.709335,-0.0170387,-0.377851
1470344762851408,-0.711408,-0.0178177,-0.377422
1470344762865447,-0.7119,-0.0186988,-0.37739
1470344762888458,-0.712248,-0.01908,-0.377541
1470344762911463,-0.71337,-0.019543,-0.377835
1470344762925475,-0.713503,-0.019719,-0.378568
1470344762948108,-0.713342,-0.0193522,-0.379094
1470344762971128,-0.713374,-0.0193453,-0.379114
1470344762985139,-0.714004,-0.0193637,-0.37913
1470344763008160,-0.715925,-0.0198823,-0.379201
1470344763031181,-0.717848,-0.0208363,-0.378959
1470344763045734,-0.718123,-0.0215342,-0.379242
1470344763068812,-0.718407,-0.0215577,-0.379519
1470344763090832,-0.718469,-0.0214181,-0.379849
1470344763111851,-0.71864,-0.0218055,-0.379708
1470344763128866,-0.719726,-0.0230777,-0.379695
1470344763150943,-0.720893,-0.0243183,-0.380638
1470344763171991,-0.721122,-0.0242685,-0.382132
1470344763188959,-0.72171,-0.0236027,-0.383214
1470344763210984,-0.722963,-0.0229509,-0.384332
1470344763234007,-0.723418,-0.0223071,-0.38553
1470344763248840,-0.723222,-0.0217349,-0.386933
1470344763278867,-0.723267,-0.0206324,-0.388547
1470344763291906,-0.722934,-0.0200373,-0.389945
1470344763308895,-0.722543,-0.0197473,-0.390843
1470344763330917,-0.722047,-0.0198427,-0.391706
1470344763360032,-0.721379,-0.0200465,-0.392252
1470344763368999,-0.721125,-0.0198892,-0.392283
1470344763391019,-0.72112,-0.0198467,-0.392163
1470344763412039,-0.720947,-0.020018,-0.391701
1470344763429053,-0.720922,-0.0206701,-0.391318
1470344763434074,-0.721459,-0.0212881,-0.391251
1470344763456102,-0.721607,-0.0218932,-0.391041
1470344763479121,-0.721396,-0.0227889,-0.390683
1470344763494133,-0.721481,-0.023533,-0.390141
1470344763516153,-0.720739,-0.0239161,-0.389828
1470344763539198,-0.719563,-0.0236691,-0.389446
1470344763553813,-0.717509,-0.0224639,-0.389101
1470344763576847,-0.713624,-0.0196788,-0.38869
1470344763598893,-0.711492,-0.0180119,-0.387839
1470344763613904,-0.712971,-0.0189705,-0.386783
1470344763636878,-0.715714,-0.0203551,-0.386172
1470344763659028,-0.716402,-0.0216401,-0.385753
1470344763674127,-0.714983,-0.0226446,-0.38529
1470344763696057,-0.713508,-0.0232697,-0.385221
1470344763719080,-0.712924,-0.0242408,-0.384967
1470344763734620,-0.712008,-0.0240704,-0.384964
1470344763756701,-0.711012,-0.0217423,-0.384978
1470344763778690,-0.709985,-0.0202427,-0.385075
1470344763794736,-0.709934,-0.0199039,-0.385586
1470344763816812,-0.710622,-0.0187884,-0.384713
1470344763839289,-0.711463,-0.0195781,-0.383546
1470344763853764,-0.710352,-0.0201957,-0.382582
1470344763876785,-0.70667,-0.0198226,-0.382091
1470344763898835,-0.702499,-0.0182818,-0.382667
1470344763913817,-0.701063,-0.0139105,-0.38418
1470344763936882,-0.699533,-0.00743034,-0.386431
1470344763958977,-0.699887,0.00150827,-0.385351
1470344763974009,-0.698578,0.00439015,-0.381414
1470344763997015,-0.696118,0.000872523,-0.378893
1470344764019013,-0.694745,-0.00212853,-0.380623
1470344764034592,-0.694421,-0.00342426,-0.381455
1470344764056157,-0.698407,-0.00375501,-0.380937
1470344764082177,-0.70543,-0.00545706,-0.379743
1470344764094187,-0.708845,-0.00805473,-0.37888
1470344764116206,-0.708131,-0.00937425,-0.377818
1470344764139291,-0.708903,-0.0120993,-0.377259
1470344764155313,-0.712592,-0.0142632,-0.37722
1470344764176365,-0.715921,-0.0160248,-0.378115
1470344764199392,-0.718485,-0.0174046,-0.378692
1470344764216363,-0.721004,-0.0189902,-0.379442
1470344764237005,-0.71988,-0.0205671,-0.381042
1470344764259536,-0.71891,-0.0212083,-0.382209
1470344764275550,-0.720098,-0.0217718,-0.381672
1470344764296614,-0.720535,-0.022076,-0.381182
1470344764319588,-0.719249,-0.0220666,-0.381517
1470344764335623,-0.72019,-0.0222597,-0.382557
1470344764356519,-0.71995,-0.0222563,-0.384814
1470344764379508,-0.716395,-0.0204552,-0.388579
1470344764395514,-0.713291,-0.0168262,-0.39332
1470344764416531,-0.712179,-0.0134556,-0.39662
1470344764439557,-0.71292,-0.0105209,-0.398697
1470344764462613,-0.713309,-0.00893384,-0.398107
1470344764476628,-0.708083,-0.00731558,-0.396612
1470344764498647,-0.703038,-0.00820413,-0.39713
1470344764516663,-0.705123,-0.00936361,-0.398042
1470344764537190,-0.712072,-0.0120864,-0.39512
1470344764558728,-0.713939,-0.0152837,-0.390609
1470344764576725,-0.712888,-0.0198466,-0.387794
1470344764596746,-0.712088,-0.0211098,-0.387664
1470344764618791,-0.714799,-0.0212869,-0.38884
1470344764637287,-0.717593,-0.0216482,-0.387947
1470344764656407,-0.715573,-0.0217161,-0.385667
1470344764679482,-0.710029,-0.0222509,-0.385789
1470344764697446,-0.708078,-0.0218823,-0.385146
1470344764716464,-0.709601,-0.0224688,-0.38408
1470344764739577,-0.711444,-0.0236331,-0.382713
1470344764757090,-0.712168,-0.025025,-0.381445
1470344764776126,-0.710192,-0.0255304,-0.381011
1470344764799161,-0.709144,-0.0249233,-0.381699
1470344764817144,-0.708243,-0.0240512,-0.384082
1470344764838211,-0.70798,-0.0218729,-0.385546
1470344764858886,-0.707208,-0.0198385,-0.386497
1470344764876936,-0.7049,-0.0190389,-0.387057
1470344764896879,-0.701453,-0.0180437,-0.386528
1470344764918954,-0.697235,-0.0173443,-0.38441
1470344764937477,-0.693637,-0.0181683,-0.38243
1470344764956542,-0.691587,-0.0187222,-0.382906
1470344764979521,-0.692316,-0.0195505,-0.384759
1470344764997537,-0.695866,-0.0203573,-0.384685
1470344765016589,-0.700412,-0.0218101,-0.382989
1470344765039712,-0.700924,-0.0235426,-0.381978
1470344765057178,-0.701397,-0.0251451,-0.38143
1470344765078188,-0.703868,-0.0273142,-0.378784
1470344765099235,-0.705849,-0.0316107,-0.376136
1470344765117281,-0.706554,-0.0338358,-0.37431
1470344765138300,-0.708779,-0.0341727,-0.375095
1470344765158855,-0.711835,-0.0335154,-0.37776
1470344765176872,-0.715447,-0.0309446,-0.379564
1470344765197892,-0.716336,-0.0273881,-0.378812
1470344765218943,-0.714068,-0.0263763,-0.377341
1470344765237534,-0.714935,-0.0276809,-0.376102
1470344765258088,-0.716469,-0.0290579,-0.374752
1470344765279112,-0.716875,-0.0304086,-0.374926
1470344765305173,-0.718252,-0.0305082,-0.375902
1470344765318144,-0.718876,-0.0301113,-0.375961
1470344765342225,-0.719268,-0.0309429,-0.376205
1470344765357302,-0.718381,-0.0311619,-0.375793
1470344765378262,-0.715622,-0.0310922,-0.375679
1470344765399280,-0.714774,-0.0305465,-0.37569
1470344765417298,-0.716096,-0.0305884,-0.37549
1470344765439834,-0.716869,-0.0306904,-0.375364
1470344765466375,-0.716945,-0.0315262,-0.375047
1470344765477384,-0.716404,-0.0324729,-0.37508
1470344765507435,-0.71558,-0.0333119,-0.375246
1470344765519421,-0.716362,-0.0339123,-0.374664
1470344765537511,-0.716779,-0.0343279,-0.374129
1470344765559520,-0.71632,-0.0339399,-0.373729
1470344765579537,-0.71578,-0.0333689,-0.373918
1470344765597553,-0.715803,-0.0324764,-0.373978
1470344765619574,-0.715304,-0.0315961,-0.374013
1470344765639597,-0.714125,-0.0308391,-0.374357
1470344765657282,-0.712225,-0.0297551,-0.374914
1470344765679245,-0.710607,-0.028714,-0.375482
1470344765699261,-0.709703,-0.0269136,-0.377152
1470344765726287,-0.707972,-0.0243913,-0.378368
1470344765747355,-0.705285,-0.0210279,-0.380376
1470344765759465,-0.703794,-0.0167121,-0.381343
1470344765777479,-0.700903,-0.0133825,-0.382113
1470344765799499,-0.697644,-0.0111424,-0.380592
1470344765819518,-0.693432,-0.0108999,-0.380018
1470344765837039,-0.690971,-0.0129424,-0.381096
1470344765859962,-0.692355,-0.0157399,-0.381906
1470344765880013,-0.700078,-0.0194881,-0.381163
1470344765896996,-0.709719,-0.0227197,-0.379764
1470344765920128,-0.713345,-0.0260258,-0.379945
1470344765940069,-0.710661,-0.0278422,-0.382713
1470344765956098,-0.705644,-0.0278328,-0.387862
1470344765979120,-0.700978,-0.0249873,-0.391674
1470344766000138,-0.698649,-0.0213087,-0.391933
1470344766016154,-0.700436,-0.0199084,-0.388575
1470344766038681,-0.700671,-0.0220556,-0.386345
1470344766060019,-0.699489,-0.024067,-0.386339
1470344766076003,-0.701319,-0.0241308,-0.385901
1470344766099023,-0.704219,-0.0251936,-0.384366
1470344766123045,-0.707464,-0.0272521,-0.381006
1470344766136563,-0.71144,-0.0296712,-0.376901
1470344766159104,-0.714382,-0.0332279,-0.377724
1470344766180160,-0.717428,-0.0335842,-0.383091
1470344766196181,-0.718943,-0.0295428,-0.389462
1470344766218154,-0.724009,-0.025282,-0.390983
1470344766240180,-0.7293,-0.027115,-0.38742
1470344766255874,-0.727439,-0.0323232,-0.384261
1470344766278869,-0.720971,-0.0346346,-0.383298
1470344766299975,-0.71746,-0.032759,-0.385788
1470344766315901,-0.719577,-0.028433,-0.389397
1470344766338960,-0.720905,-0.0255256,-0.391484
1470344766361487,-0.720845,-0.0267912,-0.392079
1470344766375497,-0.718703,-0.0313398,-0.39331
1470344766398532,-0.716841,-0.0338101,-0.394549
1470344766421538,-0.718576,-0.0332156,-0.390602
1470344766436552,-0.714782,-0.0361121,-0.387318
1470344766458582,-0.708667,-0.038872,-0.387036
1470344766481606,-0.703141,-0.0417172,-0.388101
1470344766496617,-0.703683,-0.0435516,-0.387715
1470344766518636,-0.706708,-0.0446481,-0.385489
1470344766541162,-0.708324,-0.0458397,-0.382473
1470344766555590,-0.710201,-0.0481786,-0.380647
1470344766578610,-0.712974,-0.0528084,-0.381595
1470344766617674,-0.71293,-0.0551955,-0.384439
1470344766622650,-0.711747,-0.0569671,-0.38626
1470344766639174,-0.710712,-0.059581,-0.388851
1470344766668790,-0.708507,-0.0615472,-0.39282
1470344766689826,-0.701025,-0.06009,-0.39424
1470344766698818,-0.6948,-0.0568486,-0.389691
1470344766728846,-0.690968,-0.0565788,-0.386035
1470344766742365,-0.688339,-0.0572421,-0.386093
1470344766758908,-0.68922,-0.0570278,-0.387522
1470344766780928,-0.70165,-0.0583747,-0.388908
1470344766801947,-0.715668,-0.0626805,-0.387652
1470344766818962,-0.718169,-0.0671092,-0.383338
1470344766841514,-0.715486,-0.0717564,-0.377119
1470344766862815,-0.717619,-0.0746309,-0.372411
1470344766878825,-0.719688,-0.075356,-0.378077
1470344766902846,-0.716575,-0.0727616,-0.389977
1470344766921917,-0.721911,-0.0709544,-0.397937
1470344766939386,-0.737198,-0.0714908,-0.407873
1470344766966876,-0.756204,-0.0723511,-0.415541
1470344766981887,-0.7646,-0.0722487,-0.423824
1470344766998903,-0.751136,-0.0697559,-0.433277
1470344767020941,-0.735073,-0.0605823,-0.444005
1470344767042490,-0.734052,-0.0550591,-0.456529
1470344767059024,-0.729829,-0.0528717,-0.47502
1470344767081043,-0.714598,-0.0494637,-0.500847
1470344767102065,-0.694301,-0.0452732,-0.532588
1470344767119078,-0.677219,-0.04242,-0.568014
1470344767143109,-0.664541,-0.0415236,-0.607304
1470344767162136,-0.658371,-0.0449673,-0.649003
1470344767178166,-0.653647,-0.0495087,-0.691962
1470344767201173,-0.644522,-0.0528264,-0.732726
1470344767222190,-0.631655,-0.0548619,-0.770133
1470344767238208,-0.621335,-0.0593135,-0.804333
1470344767261233,-0.614636,-0.0668561,-0.836991
1470344767283252,-0.604836,-0.0745358,-0.864285
1470344767298268,-0.592875,-0.0840207,-0.886375
1470344767321287,-0.588051,-0.0957863,-0.903071
1470344767343817,-0.591562,-0.109336,-0.915785
1470344767358015,-0.594689,-0.122008,-0.923626
1470344767381035,-0.592794,-0.131038,-0.923573
1470344767404057,-0.587795,-0.138617,-0.917889
1470344767418069,-0.576393,-0.140481,-0.914185
1470344767441595,-0.562693,-0.137002,-0.911942
1470344767463160,-0.554004,-0.135117,-0.91007
1470344767478175,-0.550722,-0.136202,-0.907541
1470344767501193,-0.549175,-0.136401,-0.907104
1470344767523215,-0.541969,-0.135038,-0.911222
1470344767545240,-0.534472,-0.131485,-0.916562
1470344767561531,-0.532006,-0.128498,-0.919704
1470344767583556,-0.529357,-0.127634,-0.922723
1470344767604595,-0.526435,-0.125891,-0.926061
1470344767621583,-0.524291,-0.124035,-0.929216
1470344767644129,-0.521162,-0.121716,-0.931532
1470344767657706,-0.518181,-0.118982,-0.934688
1470344767680718,-0.51424,-0.11593,-0.93838
1470344767703739,-0.511458,-0.112874,-0.942018
1470344767717759,-0.512627,-0.110091,-0.9445
1470344767741334,-0.515652,-0.108268,-0.945887
1470344767763861,-0.517511,-0.107571,-0.946913
1470344767777873,-0.517141,-0.106582,-0.94855
1470344767801894,-0.515128,-0.105249,-0.950577
1470344767823915,-0.513624,-0.103878,-0.9519
1470344767844940,-0.512869,-0.10317,-0.95229
1470344767861591,-0.511777,-0.10252,-0.952487
1470344767883608,-0.509635,-0.101507,-0.953007
1470344767904641,-0.505963,-0.100153,-0.954008
1470344767920644,-0.50403,-0.0994365,-0.955589
1470344767944170,-0.505875,-0.100214,-0.956835
1470344767966192,-0.511996,-0.102036,-0.956953
1470344767981207,-0.518509,-0.104605,-0.956306
1470344768003231,-0.520821,-0.107179,-0.956612
1470344768025247,-0.520541,-0.10905,-0.95772
1470344768041266,-0.519352,-0.110851,-0.958163
1470344768063291,-0.519092,-0.112198,-0.957978
1470344768084310,-0.517991,-0.112335,-0.957578
1470344768101324,-0.515008,-0.111675,-0.95735
1470344768123343,-0.511243,-0.111006,-0.956463
1470344768145385,-0.508112,-0.110624,-0.956026
1470344768161151,-0.506621,-0.110469,-0.956218
1470344768184174,-0.505025,-0.110083,-0.956918
1470344768205193,-0.50255,-0.110332,-0.957961
1470344768228213,-0.500328,-0.111233,-0.959295
1470344768243733,-0.500694,-0.111678,-0.961244
1470344768265757,-0.50135,-0.111375,-0.962346
1470344768281771,-0.500717,-0.110591,-0.963768
1470344768303789,-0.498796,-0.110658,-0.965195
1470344768326811,-0.497551,-0.110982,-0.966162
1470344768341327,-0.493914,-0.111903,-0.966228
1470344768363851,-0.489566,-0.112868,-0.966409
1470344768385871,-0.486645,-0.113236,-0.966258
1470344768400887,-0.482798,-0.113771,-0.966428
1470344768423911,-0.4796,-0.115059,-0.967061
1470344768446433,-0.478698,-0.116683,-0.968087
1470344768460954,-0.47878,-0.118038,-0.968823
1470344768483974,-0.476528,-0.119364,-0.969216
1470344768505995,-0.473821,-0.119947,-0.969497
1470344768520007,-0.47192,-0.120672,-0.970221
1470344768544034,-0.470505,-0.121296,-0.971131
1470344768565899,-0.468838,-0.121867,-0.97192
1470344768580913,-0.467038,-0.122681,-0.972778
1470344768603934,-0.466028,-0.123074,-0.973631
1470344768625956,-0.4649,-0.123914,-0.974227
1470344768640974,-0.463547,-0.124695,-0.975125
1470344768664000,-0.462759,-0.125502,-0.976062
1470344768686020,-0.46225,-0.126622,-0.977106
1470344768701036,-0.462301,-0.127741,-0.978034
1470344768724054,-0.462274,-0.128999,-0.979058
1470344768746577,-0.461553,-0.130263,-0.980476
1470344768767862,-0.461473,-0.13091,-0.982088
1470344768783877,-0.461664,-0.131455,-0.983115
1470344768805896,-0.461955,-0.131587,-0.984129
1470344768826916,-0.461419,-0.13134,-0.985274
1470344768843940,-0.461067,-0.131075,-0.986603
1470344768866490,-0.461245,-0.131178,-0.98777
1470344768887511,-0.461961,-0.131051,-0.988989
1470344768903523,-0.463003,-0.131078,-0.990032
1470344768926545,-0.463569,-0.130993,-0.991255
1470344768947570,-0.463968,-0.130356,-0.99227
1470344768963616,-0.463621,-0.129198,-0.992923
1470344768985636,-0.463984,-0.127738,-0.993506
1470344769007656,-0.46474,-0.12481,-0.994313
1470344769023670,-0.463221,-0.122587,-0.994945
1470344769046696,-0.459829,-0.12079,-0.996799
1470344769067237,-0.457864,-0.11984,-0.998458
1470344769083236,-0.456949,-0.119868,-0.999984
1470344769106253,-0.456987,-0.119207,-1.0017
1470344769127272,-0.457156,-0.11881,-1.0031
1470344769143811,-0.457291,-0.118658,-1.00386
1470344769166354,-0.455696,-0.118647,-1.00388
1470344769188373,-0.453616,-0.11858,-1.00435
1470344769203387,-0.452121,-0.118662,-1.00449
1470344769226409,-0.452648,-0.119151,-1.00532
1470344769248942,-0.454031,-0.119662,-1.00646
1470344769263435,-0.455651,-0.120293,-1.00761
1470344769286452,-0.455474,-0.121258,-1.00842
1470344769308480,-0.453869,-0.121957,-1.0096
1470344769323485,-0.453335,-0.122299,-1.01094
1470344769346510,-0.454851,-0.122396,-1.0125
1470344769368534,-0.456028,-0.122789,-1.01406
1470344769383548,-0.456883,-0.123026,-1.01581
1470344769406568,-0.45685,-0.123334,-1.01764
1470344769428591,-0.456466,-0.123463,-1.01947
1470344769451614,-0.456562,-0.123207,-1.02097
1470344769465632,-0.457622,-0.122836,-1.02273
1470344769488652,-0.458707,-0.122341,-1.02392
1470344769502670,-0.458196,-0.121819,-1.02513
1470344769528688,-0.457366,-0.121137,-1.02652
1470344769555722,-0.457354,-0.121117,-1.02813
1470344769562733,-0.458029,-0.121109,-1.02935
1470344769585755,-0.458036,-0.12123,-1.03035
1470344769608773,-0.457749,-0.121334,-1.03131
1470344769629798,-0.457259,-0.121512,-1.03197
1470344769646313,-0.4562,-0.121915,-1.03254
1470344769668837,-0.455603,-0.122531,-1.03297
1470344769682848,-0.455836,-0.123482,-1.03339
1470344769705869,-0.455775,-0.123585,-1.03336
1470344769728891,-0.455862,-0.12392,-1.03328
1470344769749922,-0.455837,-0.123658,-1.0329
1470344769766494,-0.45525,-0.123087,-1.03252
1470344769789513,-0.453847,-0.122236,-1.03247
1470344769809536,-0.452867,-0.121375,-1.03243
1470344769826550,-0.452698,-0.120884,-1.03249
1470344769849070,-0.453045,-0.1203,-1.03278
1470344769870094,-0.454062,-0.120059,-1.0329
1470344769886108,-0.454625,-0.119807,-1.03283
1470344769909129,-0.454526,-0.119535,-1.03319
1470344769937153,-0.454475,-0.119105,-1.03327
1470344769946665,-0.454414,-0.119208,-1.03324
1470344769969188,-0.454414,-0.119208,-1.03324
1470344769990208,-0.454746,-0.119424,-1.03338
1470344770006222,-0.455319,-0.119941,-1.03344
1470344770028244,-0.456263,-0.120898,-1.03349
1470344770050269,-0.457305,-0.121832,-1.03307
1470344770066287,-0.458757,-0.12255,-1.03259
1470344770088306,-0.460719,-0.122877,-1.03181
1470344770111330,-0.460921,-0.122708,-1.03128
1470344770125340,-0.46049,-0.121834,-1.03096
1470344770148871,-0.461109,-0.120739,-1.03095
1470344770171393,-0.462042,-0.119602,-1.0311
1470344770186408,-0.463351,-0.118615,-1.03154
1470344770208427,-0.464718,-0.117791,-1.03196
1470344770231448,-0.465846,-0.117115,-1.03232
1470344770246465,-0.466367,-0.116756,-1.0326
1470344770268490,-0.466877,-0.116636,-1.03266
1470344770291511,-0.466699,-0.116679,-1.03263
1470344770305526,-0.46694,-0.117002,-1.0323
1470344770328545,-0.467712,-0.117909,-1.03188
1470344770351568,-0.468991,-0.118962,-1.03148
1470344770365585,-0.469816,-0.120003,-1.03088
1470344770388606,-0.469997,-0.120601,-1.03003
1470344770411628,-0.470563,-0.120545,-1.02923
1470344770425640,-0.470829,-0.120177,-1.02829
1470344770449166,-0.470957,-0.119339,-1.02761
1470344770471693,-0.471287,-0.118428,-1.02724
1470344770485706,-0.472473,-0.117547,-1.02679
1470344770508726,-0.474829,-0.116655,-1.02643
1470344770530745,-0.477403,-0.115919,-1.02621
1470344770545763,-0.479239,-0.115213,-1.02607
1470344770568788,-0.4796,-0.115033,-1.0257
1470344770590807,-0.479374,-0.115776,-1.02625
1470344770605823,-0.47799,-0.117127,-1.02732
1470344770628844,-0.476967,-0.117736,-1.02797
1470344770651370,-0.477028,-0.117633,-1.028
1470344770671893,-0.477516,-0.118549,-1.0277
1470344770688907,-0.477204,-0.119596,-1.02745
1470344770710930,-0.47638,-0.119757,-1.02722
1470344770731947,-0.475813,-0.119715,-1.02718
1470344770748968,-0.476297,-0.11943,-1.0277
1470344770779000,-0.477032,-0.118763,-1.0285
1470344770792011,-0.477026,-0.117829,-1.02928
1470344770809026,-0.476126,-0.116664,-1.03003
1470344770831047,-0.475017,-0.11537,-1.0308
1470344770852574,-0.474041,-0.114343,-1.03165
1470344770869092,-0.473526,-0.113622,-1.0328
1470344770891111,-0.4734,-0.112987,-1.03395
1470344770912132,-0.472859,-0.112447,-1.03458
1470344770928145,-0.472174,-0.112729,-1.03507
1470344770951672,-0.470991,-0.113339,-1.03557
1470344770972233,-0.470548,-0.114217,-1.03609
1470344770989221,-0.471083,-0.115369,-1.03645
1470344771011240,-0.471881,-0.116074,-1.0368
1470344771032325,-0.47237,-0.116552,-1.03704
1470344771048814,-0.472937,-0.116597,-1.03709
1470344771070907,-0.472314,-0.116389,-1.03707
1470344771093927,-0.471378,-0.115753,-1.03728
1470344771108940,-0.470842,-0.114966,-1.03771
1470344771131961,-0.470344,-0.114085,-1.03813
1470344771153583,-0.469624,-0.113311,-1.03837
1470344771160610,-0.468909,-0.11274,-1.03828
1470344771174621,-0.468233,-0.112662,-1.03839
1470344771196676,-0.467914,-0.1125,-1.03856
1470344771219759,-0.466814,-0.112876,-1.03852
1470344771234678,-0.465782,-0.113177,-1.03867
1470344771256814,-0.465915,-0.114034,-1.03896
1470344771279600,-0.466256,-0.11502,-1.03922
1470344771294611,-0.467112,-0.11609,-1.03921
1470344771316662,-0.467883,-0.117272,-1.03915
1470344771339650,-0.468471,-0.11861,-1.03924
1470344771354206,-0.469747,-0.119667,-1.03883
1470344771376748,-0.470516,-0.120281,-1.0383
1470344771399753,-0.470024,-0.120363,-1.03811
1470344771413767,-0.469226,-0.119658,-1.03776
1470344771436788,-0.469005,-0.118639,-1.03707
1470344771458816,-0.469208,-0.117461,-1.03662
1470344771473830,-0.469241,-0.116332,-1.03655
1470344771496851,-0.469237,-0.115297,-1.03648
1470344771518872,-0.469697,-0.114749,-1.03662
1470344771534887,-0.469636,-0.114852,-1.03659
1470344771556910,-0.469697,-0.114749,-1.03662
1470344771579524,-0.470051,-0.115203,-1.03699
1470344771594538,-0.471352,-0.115783,-1.037
1470344771616557,-0.472116,-0.116195,-1.03681
1470344771639578,-0.472677,-0.116506,-1.0368
1470344771654600,-0.473242,-0.116723,-1.03635
1470344771677126,-0.473869,-0.116838,-1.03593
1470344771699161,-0.473749,-0.116504,-1.03557
1470344771715162,-0.473346,-0.11636,-1.03525
1470344771737181,-0.47281,-0.116041,-1.03529
1470344771759218,-0.472611,-0.11538,-1.03542
1470344771776233,-0.472493,-0.11532,-1.03542
1470344771796250,-0.47375,-0.115203,-1.03556
1470344771819272,-0.474261,-0.115084,-1.03563
1470344771835283,-0.473405,-0.11505,-1.0357
1470344771856842,-0.473405,-0.11505,-1.0357
1470344771879394,-0.473671,-0.115342,-1.03566
1470344771895376,-0.473609,-0.115445,-1.03563
1470344771916443,-0.474153,-0.115793,-1.03574
1470344771939463,-0.474513,-0.116448,-1.03577
1470344771955935,-0.474731,-0.117073,-1.03552
1470344771977088,-0.474281,-0.117556,-1.03509
1470344771999146,-0.473838,-0.117773,-1.03472
1470344772015177,-0.473838,-0.117773,-1.03472
1470344772037138,-0.473521,-0.117518,-1.03445
1470344772058711,-0.473082,-0.117002,-1.03452
1470344772076728,-0.472642,-0.116486,-1.03459
1470344772096776,-0.472488,-0.116053,-1.03497
1470344772118824,-0.472539,-0.115548,-1.03567
1470344772136783,-0.472503,-0.115154,-1.03631
1470344772156814,-0.472268,-0.114953,-1.03723
1470344772178839,-0.471795,-0.114804,-1.03766
1470344772196853,-0.471884,-0.114966,-1.03807
1470344772216903,-0.472243,-0.115622,-1.0381
1470344772238919,-0.472566,-0.116373,-1.03813
1470344772257446,-0.473091,-0.117225,-1.03798
1470344772277037,-0.473468,-0.117844,-1.03789
1470344772299067,-0.473561,-0.11838,-1.03747
1470344772317029,-0.473561,-0.11838,-1.03747
1470344772337077,-0.473479,-0.118246,-1.03722
1470344772359724,-0.473248,-0.117586,-1.03691
1470344772376735,-0.472924,-0.116835,-1.03688
1470344772396754,-0.472887,-0.116168,-1.03716
1470344772418775,-0.473171,-0.11549,-1.03777
1470344772436789,-0.47382,-0.115202,-1.03846
1470344772456812,-0.474372,-0.115112,-1.03912
1470344772479337,-0.474372,-0.115112,-1.03912
1470344772497353,-0.474201,-0.115182,-1.03924
1470344772516371,-0.47446,-0.115741,-1.03914
1470344772539392,-0.474541,-0.116342,-1.03901
1470344772557475,-0.474701,-0.116804,-1.03878
1470344772577090,-0.47491,-0.1174,-1.03837
1470344772599088,-0.475089,-0.117825,-1.03801
1470344772617090,-0.475118,-0.117723,-1.0376
1470344772638106,-0.474986,-0.117626,-1.03704
1470344772659140,-0.474846,-0.117034,-1.0367
1470344772677175,-0.474954,-0.116326,-1.03659
1470344772698193,-0.475073,-0.115531,-1.03644
1470344772719215,-0.475386,-0.114751,-1.03664
1470344772737230,-0.475683,-0.114303,-1.03706
1470344772758261,-0.475683,-0.114303,-1.03706
1470344772778787,-0.47588,-0.114203,-1.03722
1470344772796804,-0.475905,-0.114195,-1.03725
1470344772817823,-0.475734,-0.114266,-1.03737
1470344772838842,-0.475734,-0.114266,-1.03737
1470344772857367,-0.475863,-0.115001,-1.03706
1470344772877892,-0.47608,-0.115626,-1.0368
1470344772898911,-0.476412,-0.116016,-1.03645
1470344772916926,-0.476535,-0.116277,-1.03612
1470344772937948,-0.476535,-0.116277,-1.03612
1470344772959474,-0.476459,-0.115877,-1.03592
1470344772976997,-0.476536,-0.115443,-1.03572
1470344772999016,-0.476281,-0.114618,-1.03587
1470344773019033,-0.476297,-0.11382,-1.03603
1470344773037050,-0.4765,-0.113009,-1.03638
1470344773059575,-0.476618,-0.112603,-1.03678
1470344773079099,-0.476558,-0.112239,-1.03714
1470344773097114,-0.476558,-0.112239,-1.03714
1470344773119135,-0.476441,-0.112179,-1.03713
1470344773139153,-0.476379,-0.112281,-1.0371
1470344773157173,-0.476856,-0.112998,-1.03714
1470344773179197,-0.477468,-0.113738,-1.03705
1470344773199241,-0.478004,-0.114524,-1.03662
1470344773217232,-0.478392,-0.115077,-1.03624
1470344773239251,-0.478336,-0.11538,-1.03588
1470344773259366,-0.478336,-0.11538,-1.03588
1470344773277390,-0.478336,-0.11538,-1.03588
1470344773299408,-0.478303,-0.114914,-1.03583
1470344773319469,-0.478437,-0.114176,-1.036
1470344773337486,-0.478391,-0.113481,-1.03613
1470344773359595,-0.478533,-0.112773,-1.03645
1470344773379619,-0.478455,-0.112447,-1.03694
1470344773396635,-0.478279,-0.112317,-1.0374
1470344773419657,-0.47808,-0.112491,-1.03793
1470344773439674,-0.477962,-0.11243,-1.03792
1470344773457196,-0.477926,-0.112525,-1.03792
1470344773479722,-0.478339,-0.11305,-1.03783
1470344773498738,-0.478655,-0.113771,-1.0377
1470344773517757,-0.478933,-0.114293,-1.03747
1470344773539776,-0.478804,-0.114764,-1.03736
1470344773559299,-0.478927,-0.115025,-1.03703
1470344773575843,-0.479369,-0.114981,-1.03691
1470344773599866,-0.479492,-0.114775,-1.03697
1470344773620885,-0.479294,-0.114114,-1.0371
1470344773636900,-0.479021,-0.113327,-1.03738
1470344773659016,-0.478985,-0.112661,-1.03767
1470344773680179,-0.479056,-0.112121,-1.03825
1470344773696150,-0.479095,-0.111855,-1.03874
1470344773719172,-0.479034,-0.111958,-1.03871
1470344773740191,-0.478916,-0.111897,-1.03871
1470344773756239,-0.478916,-0.111897,-1.03871
1470344773784331,-0.479239,-0.112648,-1.03874
1470344773800317,-0.47959,-0.113276,-1.03861
1470344773816339,-0.480031,-0.114087,-1.03864
1470344773838350,-0.480301,-0.11458,-1.03826
1470344773860411,-0.480577,-0.114807,-1.03793
1470344773876428,-0.480577,-0.114807,-1.03793
1470344773898452,-0.480577,-0.114807,-1.03793
1470344773919481,-0.480371,-0.114117,-1.03791
1470344773936483,-0.480252,-0.113315,-1.03794
1470344773959022,-0.480216,-0.112649,-1.03823
1470344773981575,-0.480254,-0.11209,-1.03862
1470344773996615,-0.480246,-0.11169,-1.03929
1470344774018662,-0.480115,-0.111496,-1.03991
1470344774041629,-0.479941,-0.111661,-1.04047
1470344774056703,-0.479941,-0.111661,-1.04047
1470344774078731,-0.480182,-0.112257,-1.04049
1470344774100803,-0.480497,-0.112979,-1.04037
1470344774115765,-0.481138,-0.113892,-1.04022
1470344774138782,-0.481817,-0.11473,-1.03983
1470344774161368,-0.482186,-0.11532,-1.03957
1470344774175889,-0.48247,-0.115576,-1.0394
1470344774198907,-0.48247,-0.115576,-1.0394
1470344774220981,-0.482588,-0.115637,-1.03941
1470344774235942,-0.482499,-0.115007,-1.03938
1470344774259053,-0.482571,-0.114079,-1.03942
1470344774281136,-0.482879,-0.113566,-1.03957
1470344774295132,-0.482889,-0.11313,-1.04012
1470344774319134,-0.482712,-0.112706,-1.04048
1470344774349192,-0.482594,-0.112646,-1.04047
1470344774355699,-0.482594,-0.112646,-1.04047
1470344774379836,-0.482477,-0.112585,-1.04047
1470344774400859,-0.482415,-0.112688,-1.04044
1470344774415868,-0.482513,-0.113251,-1.04018
1470344774438889,-0.482395,-0.11395,-1.03988
1470344774461414,-0.48279,-0.114532,-1.03966
1470344774482453,-0.482727,-0.1151,-1.03924
1470344774498452,-0.48257,-0.115303,-1.03874
1470344774521473,-0.482647,-0.115334,-1.03815
1470344774542490,-0.482494,-0.114978,-1.03761
1470344774559010,-0.48219,-0.114484,-1.03755
1470344774581533,-0.482273,-0.113784,-1.03741
1470344774602556,-0.482464,-0.11321,-1.03755
1470344774618566,-0.482373,-0.112676,-1.03797
1470344774641589,-0.482103,-0.112184,-1.03836
1470344774662155,-0.481956,-0.111932,-1.03866
1470344774678556,-0.481864,-0.111863,-1.03868
1470344774701578,-0.481864,-0.111863,-1.03868
1470344774722662,-0.482484,-0.112613,-1.039
1470344774738660,-0.482918,-0.113396,-1.03888
1470344774761706,-0.483285,-0.114081,-1.03906
1470344774782723,-0.483978,-0.114663,-1.03913
1470344774798737,-0.484551,-0.114908,-1.03884
1470344774821757,-0.484495,-0.114745,-1.03886
1470344774842775,-0.484612,-0.114805,-1.03887
1470344774858813,-0.484173,-0.114289,-1.03894
1470344774880875,-0.483568,-0.113577,-1.03918
1470344774903925,-0.483033,-0.112792,-1.03961
1470344774918895,-0.482658,-0.111707,-1.0401
1470344774940931,-0.482322,-0.110824,-1.04069
1470344774963659,-0.482098,-0.110266,-1.04123
1470344774978724,-0.481835,-0.110343,-1.04207
1470344775001693,-0.481918,-0.110773,-1.04243
1470344775023712,-0.481708,-0.111384,-1.04241
1470344775037725,-0.481758,-0.112107,-1.04243
1470344775061759,-0.481891,-0.112577,-1.04217
1470344775083333,-0.481847,-0.112642,-1.04201
1470344775098299,-0.48173,-0.112581,-1.04201
1470344775121361,-0.481847,-0.112642,-1.04201
1470344775143383,-0.481182,-0.112032,-1.04223
1470344775158460,-0.480653,-0.111445,-1.04232
1470344775181533,-0.480519,-0.110681,-1.04248
1470344775203558,-0.480088,-0.109898,-1.04261
1470344775218556,-0.479803,-0.109147,-1.04301
1470344775241579,-0.479668,-0.108478,-1.04361
1470344775264232,-0.479531,-0.108254,-1.04407
1470344775278248,-0.479457,-0.108223,-1.04466
1470344775301281,-0.479395,-0.108325,-1.04463
1470344775324285,-0.47966,-0.108913,-1.04469
1470344775338351,-0.480261,-0.109627,-1.04444
1470344775361442,-0.480583,-0.110283,-1.04403
1470344775383977,-0.480929,-0.110636,-1.04355
1470344775404951,-0.480987,-0.110705,-1.04309
1470344775420965,-0.480987,-0.110705,-1.04309
1470344775443987,-0.480691,-0.109945,-1.04309
1470344775465016,-0.480542,-0.109124,-1.04294
1470344775481030,-0.480353,-0.108197,-1.04313
1470344775504050,-0.480228,-0.107461,-1.04344
1470344775525086,-0.480071,-0.107,-1.04368
1470344775541083,-0.480132,-0.106698,-1.04404
1470344775563658,-0.480069,-0.1068,-1.04401
1470344775584744,-0.480269,-0.106997,-1.04427
1470344775601726,-0.480571,-0.107491,-1.04433
1470344775623745,-0.481045,-0.108209,-1.04436
1470344775644810,-0.481357,-0.108932,-1.04423
1470344775661375,-0.481562,-0.109527,-1.04382
1470344775683485,-0.481926,-0.109843,-1.04321
1470344775712473,-0.482062,-0.109771,-1.04265
1470344775721482,-0.481628,-0.109453,-1.04238
1470344775743516,-0.48117,-0.108698,-1.04222
1470344775764581,-0.481091,-0.107803,-1.04226
1470344775781595,-0.481112,-0.107006,-1.04242
1470344775803614,-0.480987,-0.106271,-1.04274
1470344775824662,-0.48093,-0.105908,-1.04311
1470344775841649,-0.480813,-0.105847,-1.0431
1470344775864231,-0.48075,-0.10595,-1.04307
1470344775886758,-0.48075,-0.10595,-1.04307
1470344775900823,-0.481107,-0.106607,-1.0431
1470344775923791,-0.481599,-0.107288,-1.04301
1470344775945867,-0.482183,-0.108038,-1.04289
1470344775961441,-0.482605,-0.108792,-1.04261
1470344775983970,-0.483022,-0.109071,-1.04231
1470344776014045,-0.483467,-0.109227,-1.04186
1470344776021054,-0.483385,-0.109091,-1.04161
1470344776044017,-0.482957,-0.108508,-1.04139
1470344776066759,-0.483097,-0.107971,-1.04123
1470344776080818,-0.483514,-0.107292,-1.04156
1470344776103793,-0.483563,-0.106762,-1.04211
1470344776126813,-0.483317,-0.106508,-1.04272
1470344776147831,-0.483119,-0.106682,-1.04325
1470344776163852,-0.483283,-0.106973,-1.04351
1470344776185923,-0.483819,-0.107588,-1.04358
1470344776200916,-0.484559,-0.1086,-1.04356
1470344776223938,-0.485254,-0.109677,-1.04339
1470344776245957,-0.486003,-0.110622,-1.04309
1470344776261018,-0.486624,-0.111296,-1.04272
1470344776283542,-0.487306,-0.111574,-1.04228
1470344776306566,-0.487379,-0.111699,-1.04213
1470344776320576,-0.487379,-0.111699,-1.04213
1470344776343597,-0.487123,-0.111339,-1.04189
1470344776366635,-0.48696,-0.111048,-1.04163
1470344776387696,-0.486701,-0.110489,-1.04173
1470344776403665,-0.486498,-0.110093,-1.04181
1470344776426687,-0.486549,-0.109763,-1.04202
1470344776447719,-0.486554,-0.109593,-1.04252
1470344776463731,-0.486599,-0.109529,-1.04267
1470344776493763,-0.487011,-0.110055,-1.04258
1470344776507813,-0.487576,-0.110566,-1.04223
1470344776523790,-0.48826,-0.111138,-1.04189
1470344776545812,-0.488722,-0.111719,-1.04092
1470344776567869,-0.488818,-0.111908,-1.03986
1470344776583884,-0.488754,-0.112101,-1.03865
1470344776605982,-0.488157,-0.112155,-1.03739
1470344776626922,-0.487878,-0.112485,-1.03614
1470344776643939,-0.487272,-0.113072,-1.03478
1470344776665544,-0.486911,-0.113809,-1.03357
1470344776687985,-0.486834,-0.115342,-1.03249
1470344776703993,-0.486832,-0.117543,-1.03156
1470344776726093,-0.488032,-0.119454,-1.0304
1470344776747075,-0.489672,-0.121287,-1.02897
1470344776764129,-0.490196,-0.123102,-1.02816
1470344776786156,-0.491297,-0.124152,-1.02716
1470344776809177,-0.494197,-0.125369,-1.02611
1470344776824188,-0.496846,-0.126235,-1.02523
1470344776846260,-0.498806,-0.126287,-1.0245
1470344776868889,-0.499995,-0.125665,-1.02402
1470344776883906,-0.501,-0.124358,-1.02395
1470344776905943,-0.502528,-0.122697,-1.02417
1470344776928950,-0.504022,-0.120848,-1.0247
1470344776942958,-0.505982,-0.118749,-1.02549
1470344776966057,-0.507985,-0.116854,-1.02639
1470344776989233,-0.510265,-0.114987,-1.02731
1470344777003245,-0.513386,-0.113724,-1.02818
1470344777026267,-0.516676,-0.11292,-1.02882
1470344777049285,-0.519723,-0.112529,-1.02934
1470344777063332,-0.521881,-0.112688,-1.02968
1470344777085901,-0.522991,-0.113021,-1.02954
1470344777108904,-0.52408,-0.11367,-1.02922
1470344777129966,-0.525372,-0.114579,-1.02822
1470344777145944,-0.52731,-0.115621,-1.02697
1470344777168824,-0.528886,-0.1163,-1.0258
1470344777182830,-0.53008,-0.116819,-1.02433
1470344777206835,-0.531454,-0.116733,-1.02287
1470344777228854,-0.532539,-0.116132,-1.02164
1470344777243869,-0.533424,-0.114904,-1.02071
1470344777266396,-0.534534,-0.113467,-1.01955
1470344777289034,-0.535268,-0.111743,-1.01874
1470344777310054,-0.535703,-0.109634,-1.01753
1470344777326113,-0.536377,-0.107643,-1.01632
1470344777349088,-0.537281,-0.105843,-1.01541
1470344777369731,-0.538389,-0.104138,-1.01433
1470344777386692,-0.539952,-0.102415,-1.01331
1470344777408712,-0.541474,-0.100487,-1.0122
1470344777429731,-0.542458,-0.0990902,-1.0115
1470344777446746,-0.543312,-0.0976026,-1.01063
1470344777468493,-0.545036,-0.0961371,-1.00973
1470344777489527,-0.54642,-0.0950108,-1.00871
1470344777513536,-0.54732,-0.0939135,-1.00761
1470344777528547,-0.548532,-0.092861,-1.00672
1470344777549625,-0.550363,-0.0916802,-1.00561
1470344777566586,-0.552095,-0.0902402,-1.00489
1470344777588655,-0.553284,-0.0886695,-1.0041
1470344777609645,-0.554708,-0.0870265,-1.00367
1470344777626645,-0.555795,-0.0854606,-1.00319
1470344777648665,-0.556924,-0.0840983,-1.00281
1470344777669723,-0.558051,-0.0829985,-1.00236
1470344777686738,-0.55927,-0.0822307,-1.00182
1470344777708756,-0.560151,-0.0815401,-1.00122
1470344777731776,-0.560434,-0.0808579,-1.00043
1470344777745825,-0.560076,-0.080241,-0.999531
1470344777768949,-0.559607,-0.0795989,-0.998778
1470344777790948,-0.55888,-0.0788863,-0.998134
1470344777805959,-0.558534,-0.0780398,-0.997456
1470344777828983,-0.558403,-0.0773203,-0.996761
1470344777851004,-0.55805,-0.0765499,-0.996357
1470344777866522,-0.557329,-0.0756834,-0.996207
1470344777889051,-0.556755,-0.0751219,-0.996274
1470344777911069,-0.55659,-0.0744107,-0.996587
1470344777926081,-0.556093,-0.073885,-0.997269
1470344777949102,-0.555273,-0.0732838,-0.997595
1470344777970955,-0.554601,-0.0727276,-0.997959
1470344777985928,-0.554033,-0.0722722,-0.998451
1470344778008948,-0.553462,-0.0720794,-0.998874
1470344778030967,-0.552659,-0.0720657,-0.999368
1470344778045982,-0.551842,-0.0722831,-0.999641
1470344778069134,-0.550973,-0.0726344,-1.00003
1470344778091150,-0.550216,-0.0733804,-1.00063
1470344778105210,-0.549943,-0.0741721,-1.00081
1470344778129184,-0.549639,-0.0747914,-1.00105
1470344778151203,-0.549043,-0.0754293,-1.00139
1470344778165725,-0.548401,-0.0761266,-1.00158
1470344778189274,-0.54785,-0.0767046,-1.00208
1470344778211294,-0.547051,-0.0772458,-1.0026
1470344778232349,-0.54611,-0.0776668,-1.0028
1470344778249328,-0.544951,-0.0780341,-1.0033
1470344778271452,-0.543791,-0.0784009,-1.0038
1470344778292527,-0.543085,-0.0790104,-1.00429
1470344778308485,-0.542575,-0.0797897,-1.00489
1470344778331511,-0.542082,-0.0805261,-1.00537
1470344778352581,-0.541314,-0.0812374,-1.00583
1470344778368153,-0.540789,-0.0818012,-1.00637
1470344778391459,-0.540419,-0.0823316,-1.00693
1470344778412479,-0.540282,-0.0826837,-1.00741
1470344778428492,-0.539905,-0.0829195,-1.00787
1470344778451513,-0.539428,-0.0831588,-1.00864
1470344778472640,-0.539181,-0.0834834,-1.00926
1470344778488662,-0.539085,-0.0840383,-1.00984
1470344778511620,-0.538879,-0.0845659,-1.01056
1470344778532662,-0.538732,-0.0848866,-1.01088
1470344778548650,-0.538828,-0.0850605,-1.01129
1470344778571302,-0.538862,-0.085337,-1.01165
1470344778592354,-0.538673,-0.0854544,-1.01189
1470344778609325,-0.538844,-0.085747,-1.01214
1470344778631352,-0.539015,-0.0860396,-1.01239
1470344778652454,-0.538641,-0.0864645,-1.01252
1470344778669097,-0.538641,-0.0864645,-1.01252
1470344778691120,-0.538641,-0.0864645,-1.01252
1470344778714139,-0.538521,-0.0864061,-1.01251
1470344778729151,-0.538521,-0.0864061,-1.01251
1470344778751172,-0.538521,-0.0864061,-1.01251
1470344778773705,-0.538521,-0.0864061,-1.01251
1470344778788716,-0.538863,-0.0866238,-1.01265
1470344778811738,-0.53943,-0.0866329,-1.01257
1470344778833757,-0.539918,-0.0867869,-1.01256
1470344778847805,-0.540728,-0.0866496,-1.01255
1470344778870954,-0.541689,-0.0867429,-1.01249
1470344778876917,-0.5425,-0.0866055,-1.01248
1470344778898951,-0.54307,-0.0863513,-1.01245
1470344778915952,-0.543933,-0.0860802,-1.01233
1470344778937013,-0.544978,-0.085765,-1.01224
1470344778959502,-0.546236,-0.0855781,-1.01214
1470344778975904,-0.54742,-0.0852734,-1.01219
1470344778996957,-0.548387,-0.0851036,-1.0122
1470344779018984,-0.549319,-0.0850245,-1.01219
1470344779035991,-0.549673,-0.084905,-1.01213
1470344779057080,-0.550517,-0.0849399,-1.01206
1470344779079164,-0.551721,-0.0851498,-1.01201
1470344779095205,-0.552551,-0.0857857,-1.01208
1470344779117143,-0.55262,-0.0864251,-1.01205
1470344779139206,-0.552757,-0.0872569,-1.01213
1470344779155765,-0.552905,-0.0881204,-1.01237
1470344779177060,-0.553535,-0.088397,-1.01268
1470344779199111,-0.554521,-0.0890012,-1.01277
1470344779216080,-0.555054,-0.0894676,-1.01329
1470344779237101,-0.554754,-0.0895602,-1.01367
1470344779259626,-0.554674,-0.0896257,-1.01453
1470344779275643,-0.554225,-0.0892242,-1.01503
1470344779296696,-0.552803,-0.0886958,-1.01544
1470344779319713,-0.550861,-0.0882861,-1.01576
1470344779335716,-0.548796,-0.0884498,-1.01636
1470344779357315,-0.546688,-0.0892246,-1.01708
1470344779379845,-0.545753,-0.0900391,-1.01782
1470344779395854,-0.545868,-0.0911771,-1.01796
1470344779416874,-0.544991,-0.0922358,-1.01789
1470344779438893,-0.544217,-0.0932906,-1.01753
1470344779455913,-0.544946,-0.0944686,-1.01672
1470344779476949,-0.545708,-0.0966399,-1.01581
1470344779498960,-0.545119,-0.0992896,-1.01566
1470344779515972,-0.544794,-0.101382,-1.0151
1470344779536990,-0.544647,-0.103136,-1.01449
1470344779559541,-0.543022,-0.104758,-1.01436
1470344779576148,-0.53987,-0.106014,-1.01446
1470344779597107,-0.535704,-0.107037,-1.01509
1470344779619177,-0.532539,-0.108173,-1.01583
1470344779637135,-0.530579,-0.10817,-1.01667
1470344779657177,-0.526384,-0.107735,-1.01781
1470344779679183,-0.522942,-0.107752,-1.0201
1470344779697198,-0.519916,-0.107808,-1.02229
1470344779717216,-0.516252,-0.107622,-1.02431
1470344779739270,-0.512832,-0.107548,-1.02634
1470344779780048,-0.509163,-0.108244,-1.02863
1470344779784059,-0.504418,-0.10902,-1.0312
1470344779799055,-0.499957,-0.109941,-1.0344
1470344779825047,-0.497525,-0.111413,-1.03752
1470344779837093,-0.496814,-0.113595,-1.04004
1470344779859586,-0.497657,-0.115935,-1.04296
1470344779877184,-0.498253,-0.118519,-1.04626
1470344779898225,-0.496889,-0.120737,-1.0502
1470344779919287,-0.494867,-0.122564,-1.05418
1470344779937238,-0.492679,-0.123812,-1.05756
1470344779957312,-0.489276,-0.124348,-1.06099
1470344779979837,-0.485189,-0.124758,-1.06439
1470344779996868,-0.481567,-0.124606,-1.06753
1470344780016924,-0.479054,-0.124532,-1.07058
1470344780038933,-0.477038,-0.124875,-1.07359
1470344780057455,-0.474463,-0.125661,-1.07675
1470344780076793,-0.47184,-0.126798,-1.07987
1470344780099759,-0.470091,-0.128127,-1.0827
1470344780116775,-0.469268,-0.129635,-1.08531
1470344780136870,-0.46851,-0.130947,-1.0875
1470344780159439,-0.467035,-0.132457,-1.08947
1470344780176827,-0.465418,-0.134111,-1.09107
1470344780196887,-0.464119,-0.135983,-1.0924
1470344780218865,-0.463481,-0.138095,-1.09296
1470344780236882,-0.461788,-0.140243,-1.09346
1470344780258404,-0.459315,-0.142166,-1.09379
1470344780286947,-0.457567,-0.143548,-1.09326
1470344780296956,-0.455277,-0.144039,-1.09227
1470344780317975,-0.451738,-0.143643,-1.09136
1470344780338996,-0.449244,-0.1428,-1.09077
1470344780357513,-0.447964,-0.141915,-1.0904
1470344780379781,-0.447498,-0.140954,-1.09053
1470344780398798,-0.447735,-0.139786,-1.09045
1470344780416815,-0.448095,-0.138506,-1.09088
1470344780437832,-0.4477,-0.137062,-1.09188
1470344780459361,-0.447283,-0.135625,-1.09284
1470344780476880,-0.447246,-0.134579,-1.09393
1470344780497896,-0.447198,-0.1338,-1.09497
1470344780518919,-0.447517,-0.133359,-1.0958
1470344780536934,-0.447635,-0.133014,-1.09649
1470344780558457,-0.447604,-0.13261,-1.09672
1470344780578794,-0.447604,-0.13261,-1.09672
1470344780596812,-0.447489,-0.132546,-1.09671
1470344780619832,-0.447206,-0.131751,-1.09654
1470344780638852,-0.446906,-0.131312,-1.09676
1470344780657371,-0.446736,-0.130851,-1.09696
1470344780679524,-0.446694,-0.130509,-1.09748
1470344780699540,-0.446423,-0.130038,-1.098
1470344780717556,-0.445608,-0.129973,-1.09854
1470344780739577,-0.445608,-0.129973,-1.09854
1470344780759603,-0.445493,-0.129909,-1.09854
1470344780777124,-0.444761,-0.130144,-1.09845
1470344780800144,-0.444037,-0.130086,-1.09826
1470344780822164,-0.444037,-0.130086,-1.09826
1470344780837178,-0.443409,-0.130126,-1.09819
1470344780860202,-0.442872,-0.130558,-1.09838
1470344780879223,-0.442324,-0.130732,-1.09858
1470344780897238,-0.442234,-0.13066,-1.09861
1470344780919258,-0.442234,-0.13066,-1.09861
1470344780939276,-0.441609,-0.130495,-1.09889
1470344780957299,-0.440173,-0.129995,-1.09934
1470344780979325,-0.4398,-0.129397,-1.09956
1470344780999343,-0.44004,-0.129026,-1.09979
1470344781017360,-0.439641,-0.128756,-1.10025
1470344781039379,-0.439057,-0.128817,-1.1008
1470344781059414,-0.439075,-0.128846,-1.10138
1470344781077436,-0.439269,-0.129043,-1.10165
1470344781099456,-0.438957,-0.12937,-1.10202
1470344781119473,-0.438893,-0.129471,-1.102
1470344781137546,-0.438957,-0.12937,-1.10202
1470344781160073,-0.438864,-0.129567,-1.10242
1470344781180360,-0.438864,-0.129567,-1.10242
1470344781197420,-0.438864,-0.129567,-1.10242
1470344781219387,-0.438864,-0.129567,-1.10242
1470344781240408,-0.438036,-0.129264,-1.10272
1470344781257490,-0.437624,-0.12876,-1.10294
1470344781278494,-0.437296,-0.1283,-1.10298
1470344781300514,-0.437315,-0.127827,-1.10337
1470344781317532,-0.437652,-0.127555,-1.10374
1470344781339549,-0.438544,-0.127639,-1.10425
1470344781361076,-0.439014,-0.127898,-1.10468
1470344781376608,-0.439078,-0.128298,-1.1049
1470344781398629,-0.438964,-0.128233,-1.1049
1470344781419646,-0.438287,-0.128106,-1.10486
1470344781436662,-0.437799,-0.128202,-1.10483
1470344781459189,-0.437734,-0.128303,-1.10481
1470344781479742,-0.437336,-0.12847,-1.10475
1470344781496739,-0.436627,-0.128144,-1.10461
1470344781518759,-0.435633,-0.127816,-1.10459
1470344781541779,-0.434703,-0.127388,-1.10459
1470344781556362,-0.433634,-0.126722,-1.10465
1470344781578955,-0.432386,-0.126093,-1.10467
1470344781600955,-0.431569,-0.125496,-1.10486
1470344781615967,-0.431363,-0.125127,-1.10506
1470344781638988,-0.431703,-0.125087,-1.10525
1470344781661657,-0.432297,-0.125349,-1.10539
1470344781676178,-0.432475,-0.125812,-1.10562
1470344781699201,-0.432476,-0.126545,-1.10563
1470344781721221,-0.432504,-0.126951,-1.1054
1470344781735232,-0.432996,-0.127321,-1.10507
1470344781759290,-0.43331,-0.127728,-1.10472
1470344781781338,-0.433687,-0.128354,-1.10466
1470344781795377,-0.433801,-0.128418,-1.10466
1470344781819371,-0.433584,-0.128729,-1.10456
1470344781841392,-0.433584,-0.128729,-1.10456
1470344781855403,-0.433608,-0.128722,-1.10459
1470344781878476,-0.432786,-0.128332,-1.10444
1470344781901498,-0.431871,-0.127636,-1.10449
1470344781915509,-0.431805,-0.127005,-1.10445
1470344781938530,-0.431566,-0.126436,-1.10454
1470344781961610,-0.432433,-0.126026,-1.10483
1470344781975280,-0.433554,-0.125918,-1.10508
1470344781999268,-0.434471,-0.126174,-1.10554
1470344782021289,-0.434893,-0.1265,-1.10582
1470344782042308,-0.435368,-0.126904,-1.10562
1470344782059351,-0.436078,-0.127463,-1.10559
1470344782080925,-0.436603,-0.128033,-1.10537
1470344782102949,-0.436693,-0.128104,-1.10534
1470344782118960,-0.436693,-0.128104,-1.10534
1470344782140981,-0.436693,-0.128104,-1.10534
1470344782163086,-0.436693,-0.128104,-1.10534
1470344782179106,-0.436603,-0.128033,-1.10537
1470344782201126,-0.436104,-0.127636,-1.10554
1470344782230211,-0.435321,-0.126971,-1.10546
1470344782239161,-0.434536,-0.126073,-1.10557
1470344782261235,-0.433848,-0.125273,-1.10581
1470344782282258,-0.43395,-0.124665,-1.10609
1470344782299273,-0.43451,-0.124495,-1.1063
1470344782321318,-0.435062,-0.124618,-1.10663
1470344782342342,-0.434948,-0.124554,-1.10662
1470344782359334,-0.434955,-0.124581,-1.10678
1470344782381434,-0.434932,-0.124821,-1.10658
1470344782402494,-0.434932,-0.124821,-1.10658
1470344782426472,-0.434932,-0.124821,-1.10658
1470344782441485,-0.434867,-0.125422,-1.10674
1470344782462536,-0.434533,-0.125988,-1.10691
1470344782478531,-0.434419,-0.125924,-1.10691
1470344782501553,-0.434533,-0.125988,-1.10691
1470344782523575,-0.433701,-0.125157,-1.10686
1470344782538585,-0.432828,-0.124187,-1.10699
1470344782561631,-0.432331,-0.12329,-1.10696
1470344782583542,-0.431662,-0.122456,-1.10707
1470344782598532,-0.431369,-0.121696,-1.10702
1470344782621523,-0.431408,-0.121188,-1.10727
1470344782643539,-0.431927,-0.121112,-1.10749
1470344782658612,-0.432042,-0.121357,-1.10742
1470344782681185,-0.432026,-0.121624,-1.10737
1470344782704206,-0.432223,-0.121786,-1.10709
1470344782719221,-0.432324,-0.122031,-1.10659
1470344782741257,-0.432324,-0.122031,-1.10659
1470344782764297,-0.432918,-0.122526,-1.10656
1470344782777846,-0.433586,-0.123127,-1.10663
1470344782800922,-0.433472,-0.123062,-1.10663
1470344782830898,-0.433472,-0.123062,-1.10663
1470344782837905,-0.433496,-0.123055,-1.10665
1470344782861468,-0.432976,-0.122398,-1.10642
1470344782884046,-0.432528,-0.121667,-1.10637
1470344782898057,-0.432635,-0.120972,-1.1062
1470344782921079,-0.432837,-0.120195,-1.10625
1470344782944101,-0.432829,-0.119204,-1.10625
1470344782958675,-0.433422,-0.118733,-1.10638
1470344782981825,-0.433885,-0.118465,-1.10646
1470344783003866,-0.433885,-0.118465,-1.10646
1470344783024915,-0.433885,-0.118465,-1.10646
1470344783041878,-0.434317,-0.11873,-1.10645
1470344783064452,-0.434862,-0.119059,-1.10644
1470344783085559,-0.435116,-0.119594,-1.10621
1470344783101538,-0.435256,-0.120064,-1.10599
1470344783123558,-0.435095,-0.120299,-1.10565
1470344783144577,-0.43469,-0.11994,-1.10524
1470344783161647,-0.434481,-0.11969,-1.10465
1470344783183778,-0.433522,-0.119295,-1.10436
1470344783204831,-0.432253,-0.118408,-1.10399
1470344783221761,-0.431449,-0.117485,-1.10351
1470344783243782,-0.430294,-0.116429,-1.10331
1470344783265443,-0.429739,-0.115661,-1.10342
1470344783280967,-0.429716,-0.115669,-1.1034
1470344783303964,-0.429853,-0.115992,-1.1038
1470344783325017,-0.429714,-0.116254,-1.10404
1470344783340978,-0.429656,-0.116381,-1.10417
1470344783364556,-0.429828,-0.117051,-1.10406
1470344783385134,-0.430292,-0.117747,-1.10397
1470344783401092,-0.430684,-0.118286,-1.10388
1470344783424114,-0.430993,-0.118779,-1.10398
1470344783446133,-0.431171,-0.119242,-1.1042
1470344783461686,-0.431375,-0.119378,-1.10418
1470344783483811,-0.431489,-0.119442,-1.10418
1470344783505885,-0.430609,-0.118947,-1.10434
1470344783520899,-0.429893,-0.118182,-1.10429
1470344783543874,-0.429689,-0.117313,-1.1043
1470344783566461,-0.429688,-0.116347,-1.10446
1470344783587227,-0.42984,-0.115671,-1.1049
1470344783604241,-0.429977,-0.115262,-1.10529
1470344783626260,-0.429935,-0.115389,-1.10585
1470344783640318,-0.430178,-0.11575,-1.10609
1470344783664344,-0.430307,-0.11628,-1.10616
1470344783686413,-0.43034,-0.116713,-1.10609
1470344783700425,-0.430771,-0.11721,-1.10589
1470344783724448,-0.430797,-0.117616,-1.10566
1470344783746467,-0.430699,-0.118018,-1.10572
1470344783761041,-0.430505,-0.118322,-1.10565
1470344783783622,-0.430505,-0.118322,-1.10565
1470344783813648,-0.430505,-0.118322,-1.10565
1470344783820657,-0.430041,-0.117858,-1.10555
1470344783844677,-0.429798,-0.117263,-1.10548
1470344783866737,-0.429578,-0.116428,-1.10562
1470344783880350,-0.429837,-0.11579,-1.1059
1470344783904342,-0.430039,-0.11528,-1.10632
1470344783926367,-0.430403,-0.114999,-1.10672
1470344783947387,-0.43046,-0.115139,-1.10696
1470344783964404,-0.430785,-0.115366,-1.1071
1470344783986010,-0.43106,-0.11566,-1.10708
1470344784008036,-0.431313,-0.116194,-1.10686
1470344784024053,-0.431493,-0.116571,-1.10663
1470344784047022,-0.432079,-0.11704,-1.10644
1470344784068052,-0.43242,-0.117233,-1.10645
1470344784083734,-0.43242,-0.117233,-1.10645
1470344784106740,-0.43242,-0.117233,-1.10645
1470344784127803,-0.432298,-0.116729,-1.10654
1470344784143774,-0.431769,-0.116133,-1.1066
1470344784166803,-0.431566,-0.115264,-1.10661
1470344784187427,-0.43177,-0.114668,-1.10657
1470344784204395,-0.432047,-0.113997,-1.10673
1470344784226451,-0.432388,-0.113724,-1.1071
1470344784247474,-0.433225,-0.113616,-1.10748
1470344784264457,-0.433754,-0.113747,-1.10778
1470344784286464,-0.43486,-0.11414,-1.10781
1470344784307538,-0.435902,-0.114547,-1.10736
1470344784323579,-0.437124,-0.115149,-1.10676
1470344784346519,-0.437663,-0.115684,-1.10641
1470344784368045,-0.437916,-0.116218,-1.10618
1470344784384455,-0.438031,-0.116195,-1.10573
1470344784406476,-0.438122,-0.115999,-1.10534
1470344784428494,-0.437902,-0.115396,-1.1053
1470344784443508,-0.437161,-0.114638,-1.10522
1470344784466538,-0.43695,-0.113743,-1.10507
1470344784489440,-0.436445,-0.112908,-1.10534
1470344784504455,-0.436208,-0.11234,-1.10543
1470344784526474,-0.436762,-0.11173,-1.10575
1470344784548498,-0.437258,-0.111662,-1.10594
1470344784563528,-0.437428,-0.111686,-1.10627
1470344784586469,-0.437315,-0.111621,-1.10626
1470344784608577,-0.437315,-0.111621,-1.10626
1470344784623498,-0.437315,-0.111621,-1.10626
1470344784646545,-0.437958,-0.111962,-1.10594
1470344784669050,-0.437958,-0.111962,-1.10594
1470344784683495,-0.437958,-0.111962,-1.10594
1470344784706518,-0.437958,-0.111962,-1.10594
1470344784728536,-0.437885,-0.111624,-1.10601
1470344784743549,-0.437275,-0.110663,-1.10598
1470344784766609,-0.437163,-0.109366,-1.10578
1470344784788708,-0.43701,-0.108344,-1.1055
1470344784802776,-0.436807,-0.107476,-1.10551
1470344784826742,-0.436645,-0.106746,-1.10534
1470344784848792,-0.436645,-0.106746,-1.10534
1470344784863368,-0.436288,-0.10632,-1.10509
1470344784894361,-0.436475,-0.105722,-1.10464
1470344784909373,-0.436361,-0.105658,-1.10464
1470344784930391,-0.43702,-0.105318,-1.10463
1470344784946408,-0.438502,-0.105551,-1.10469
1470344784969460,-0.439325,-0.10621,-1.10521
1470344784990495,-0.439438,-0.106274,-1.10522
1470344785006510,-0.43825,-0.10575,-1.10492
1470344785029531,-0.437346,-0.104726,-1.10431
1470344785050549,-0.437298,-0.103974,-1.10369
1470344785066571,-0.437126,-0.102951,-1.103
1470344785088595,-0.436622,-0.102262,-1.10264
1470344785109613,-0.436118,-0.101573,-1.10227
1470344785127630,-0.435452,-0.100741,-1.10238
1470344785148648,-0.436047,-0.10027,-1.10252
1470344785170195,-0.437283,-0.100457,-1.10261
1470344785186715,-0.437878,-0.100487,-1.10294
1470344785208735,-0.437878,-0.100487,-1.10294
1470344785229753,-0.437894,-0.100953,-1.103
1470344785246775,-0.437975,-0.101317,-1.10308
1470344785269299,-0.438593,-0.101984,-1.103
1470344785290402,-0.439177,-0.102769,-1.10307
1470344785306358,-0.43912,-0.10331,-1.10294
1470344785329378,-0.43912,-0.10331,-1.10294
1470344785351399,-0.438818,-0.103075,-1.10283
1470344785374426,-0.438331,-0.10262,-1.10271
1470344785388943,-0.438103,-0.102079,-1.10296
1470344785411966,-0.438073,-0.101416,-1.10322
1470344785426981,-0.43784,-0.100617,-1.10349
1470344785448999,-0.437834,-0.0999453,-1.10378
1470344785471522,-0.437877,-0.0994388,-1.10404
1470344785486068,-0.437877,-0.0994388,-1.10404
1470344785509091,-0.437975,-0.0995373,-1.10417
1470344785531142,-0.437975,-0.0995373,-1.10417
1470344785546123,-0.438453,-0.0999666,-1.10414
1470344785569183,-0.438794,-0.100572,-1.10389
1470344785591071,-0.439142,-0.101204,-1.1038
1470344785605997,-0.439466,-0.101662,-1.10376
1470344785629018,-0.439417,-0.101497,-1.10378
1470344785651048,-0.439344,-0.101071,-1.10341
1470344785666114,-0.439011,-0.100405,-1.10337
1470344785689183,-0.438541,-0.0996839,-1.10329
1470344785712205,-0.438859,-0.0991523,-1.10327
1470344785726217,-0.439194,-0.0986724,-1.10357
1470344785749237,-0.439115,-0.0980764,-1.10367
1470344785771835,-0.439002,-0.0980126,-1.10366
1470344785785351,-0.439042,-0.0981518,-1.10348
1470344785809371,-0.439372,-0.0985486,-1.10315
1470344785839401,-0.440208,-0.0988163,-1.10273
1470344785852414,-0.440556,-0.0994475,-1.10264
1470344785869472,-0.440253,-0.0999443,-1.10253
1470344785891549,-0.439879,-0.100285,-1.10241
1470344785912623,-0.439992,-0.100349,-1.10242
1470344785928583,-0.439992,-0.100349,-1.10242
1470344785951602,-0.440106,-0.100413,-1.10242
1470344785972676,-0.439229,-0.0999196,-1.10258
1470344785988693,-0.438482,-0.099224,-1.10279
1470344786011714,-0.438019,-0.0987604,-1.1027
1470344786039739,-0.437719,-0.098294,-1.10276
1470344786048747,-0.437801,-0.0979267,-1.10284
1470344786071798,-0.437801,-0.0979267,-1.10284
1470344786092912,-0.437801,-0.0979267,-1.10284
1470344786108865,-0.438347,-0.0980231,-1.10302
1470344786131887,-0.438567,-0.0982111,-1.10331
1470344786152905,-0.43895,-0.0983103,-1.10332
1470344786168970,-0.439437,-0.0984474,-1.10318
1470344786191710,-0.439437,-0.0984474,-1.10318
1470344786212733,-0.439437,-0.0984474,-1.10318
1470344786228747,-0.439324,-0.0983837,-1.10318
1470344786251764,-0.438843,-0.098186,-1.10303
1470344786274323,-0.438493,-0.097786,-1.10294
1470344786289411,-0.438242,-0.097167,-1.10272
1470344786319440,-0.438146,-0.0963368,-1.10258
1470344786333482,-0.438178,-0.0960359,-1.1025
1470344786348467,-0.438187,-0.0957442,-1.10239
1470344786371494,-0.438741,-0.0953657,-1.10254
1470344786394025,-0.439117,-0.0955253,-1.10284
1470344786408036,-0.439532,-0.0958241,-1.10296
1470344786431058,-0.439996,-0.0962879,-1.10305
1470344786454078,-0.440597,-0.0964887,-1.10291
1470344786468600,-0.440597,-0.0964887,-1.10291
1470344786491125,-0.440597,-0.0964887,-1.10291
1470344786514147,-0.440597,-0.0964887,-1.10291
1470344786528159,-0.440597,-0.0964887,-1.10291
1470344786551179,-0.440597,-0.0964887,-1.10291
1470344786574204,-0.440597,-0.0964887,-1.10291
1470344786588220,-0.44071,-0.0965525,-1.10292
1470344786611240,-0.440288,-0.0963142,-1.10309
1470344786617245,-0.440288,-0.0963142,-1.10309
1470344786639266,-0.440622,-0.0962486,-1.10312
1470344786655282,-0.440622,-0.0962486,-1.10312
1470344786677307,-0.440622,-0.0962486,-1.10312
1470344786699335,-0.440859,-0.0960842,-1.10302
1470344786715350,-0.44177,-0.0960453,-1.10297
1470344786736369,-0.442445,-0.0961709,-1.10302
1470344786759390,-0.442445,-0.0961709,-1.10302
1470344786775913,-0.442445,-0.0961709,-1.10302
1470344786796465,-0.442445,-0.0961709,-1.10302
1470344786822488,-0.442445,-0.0961709,-1.10302
1470344786835496,-0.442437,-0.096145,-1.10286
1470344786856519,-0.442437,-0.096145,-1.10286
1470344786879546,-0.441901,-0.096344,-1.10321
1470344786895566,-0.441901,-0.096344,-1.10321
1470344786916651,-0.441901,-0.096344,-1.10321
1470344786939620,-0.441722,-0.0963814,-1.10318
1470344786955643,-0.441722,-0.0963814,-1.10318
1470344786977176,-0.441722,-0.0963814,-1.10318
1470344786999804,-0.441722,-0.0963814,-1.10318
1470344787015805,-0.441836,-0.0964451,-1.10319
1470344787036839,-0.442081,-0.0968075,-1.10343
1470344787059802,-0.442081,-0.0968075,-1.10343
1470344787075879,-0.442194,-0.0968713,-1.10344
1470344787096905,-0.442081,-0.0968075,-1.10343
1470344787118924,-0.442015,-0.0969087,-1.1034
1470344787135938,-0.442081,-0.0968075,-1.10343
1470344787156983,-0.442104,-0.0967984,-1.10346
1470344787179560,-0.442039,-0.0968995,-1.10343
1470344787195841,-0.442356,-0.0970999,-1.10342
1470344787216861,-0.442356,-0.0970999,-1.10342
1470344787239838,-0.442242,-0.0970362,-1.10341
1470344787257879,-0.442242,-0.0970362,-1.10341
1470344787277377,-0.442242,-0.0970362,-1.10341
1470344787299944,-0.442811,-0.0970371,-1.10317
1470344787316957,-0.442811,-0.0970371,-1.10317
1470344787337008,-0.442811,-0.0970371,-1.10317
1470344787360030,-0.442811,-0.0970371,-1.10317
1470344787377563,-0.443445,-0.0969368,-1.10295
1470344787396990,-0.44413,-0.0967705,-1.10289
1470344787426948,-0.44413,-0.0967705,-1.10289
1470344787436956,-0.44413,-0.0967705,-1.10289
1470344787457007,-0.444674,-0.096597,-1.1027
1470344787479529,-0.444674,-0.096597,-1.1027
1470344787498040,-0.444674,-0.096597,-1.1027
1470344787541057,-0.444788,-0.0966607,-1.1027
1470344787544061,-0.444788,-0.0966607,-1.1027
1470344787557071,-0.444788,-0.0966607,-1.1027
1470344787577177,-0.444764,-0.09667,-1.10267
1470344787599799,-0.444788,-0.0966607,-1.1027
1470344787616813,-0.444788,-0.0966607,-1.1027
1470344787636861,-0.444788,-0.0966607,-1.1027
1470344787659855,-0.444788,-0.0966607,-1.1027
1470344787677423,-0.444674,-0.096597,-1.1027
1470344787698124,-0.444674,-0.096597,-1.1027
1470344787720145,-0.444674,-0.096597,-1.1027
1470344787737159,-0.444674,-0.096597,-1.1027
1470344787757175,-0.444674,-0.096597,-1.1027
1470344787779747,-0.444674,-0.096597,-1.1027
1470344787797767,-0.444674,-0.096597,-1.1027
1470344787816742,-0.444731,-0.0964699,-1.10256
1470344787839808,-0.444302,-0.0959753,-1.10276
1470344787856778,-0.443945,-0.0956361,-1.10296
1470344787878802,-0.443945,-0.0956361,-1.10296
1470344787899838,-0.443945,-0.0956361,-1.10296
1470344787917863,-0.44401,-0.095535,-1.10299
1470344787938874,-0.443505,-0.0953461,-1.10281
1470344787959894,-0.442871,-0.0949454,-1.10284
1470344787977417,-0.442936,-0.0948443,-1.10287
1470344787998648,-0.44244,-0.0946814,-1.10286
1470344788019709,-0.44244,-0.0946814,-1.10286
1470344788037731,-0.44244,-0.0946814,-1.10286
1470344788058704,-0.442375,-0.0947825,-1.10283
1470344788079818,-0.441985,-0.0947442,-1.10311
1470344788096925,-0.441336,-0.0943786,-1.10327
1470344788117945,-0.440502,-0.0941109,-1.10369
1470344788138991,-0.438436,-0.0935101,-1.10465
1470344788156979,-0.435652,-0.0921163,-1.1054
1470344788180052,-0.43275,-0.0911205,-1.10579
1470344788199607,-0.429639,-0.0899621,-1.10603
1470344788224599,-0.427688,-0.088984,-1.10573
1470344788239611,-0.426583,-0.0883271,-1.10533
1470344788259673,-0.4258,-0.0883115,-1.10481
1470344788277818,-0.426371,-0.0882556,-1.10427
1470344788299804,-0.427267,-0.0884246,-1.10387
1470344788319852,-0.429041,-0.0890278,-1.10303
1470344788337838,-0.42933,-0.0898742,-1.10215
1470344788367417,-0.429962,-0.0906792,-1.10147
1470344788379933,-0.430559,-0.0911119,-1.10115
1470344788397001,-0.431141,-0.0915787,-1.10096
1470344788424027,-0.432329,-0.0913671,-1.10125
1470344788439043,-0.433446,-0.090817,-1.10162
1470344788457055,-0.434603,-0.0909069,-1.102
1470344788480085,-0.434148,-0.0922008,-1.10244
1470344788499107,-0.432752,-0.0921028,-1.10264
1470344788517124,-0.431729,-0.0915785,-1.1025
1470344788540147,-0.43193,-0.0911304,-1.10184
1470344788559162,-0.433187,-0.0909904,-1.10169
1470344788577683,-0.433187,-0.0909904,-1.10169
1470344788599896,-0.431842,-0.0899218,-1.10251
1470344788618914,-0.430326,-0.0887423,-1.10394
1470344788636929,-0.43008,-0.0881203,-1.10508
1470344788659952,-0.430216,-0.087686,-1.10532
1470344788679980,-0.429306,-0.0870516,-1.10566
1470344788697499,-0.428768,-0.0863185,-1.10632
1470344788719518,-0.428075,-0.0849407,-1.10727
1470344788739536,-0.427877,-0.083726,-1.10823
1470344788757552,-0.427676,-0.0827432,-1.10901
1470344788780134,-0.427669,-0.0818729,-1.10961
1470344788800656,-0.427211,-0.0810623,-1.11046
1470344788817674,-0.426866,-0.0803153,-1.11131
1470344788839692,-0.426824,-0.0798039,-1.11228
1470344788860734,-0.427335,-0.0790887,-1.11293
1470344788882255,-0.427491,-0.0784477,-1.11351
1470344788900504,-0.427021,-0.0778437,-1.11402
1470344788920415,-0.427402,-0.0773309,-1.11462
1470344788937429,-0.428168,-0.0768607,-1.11493
1470344788959448,-0.428971,-0.0765314,-1.11506
1470344788982474,-0.429989,-0.0763058,-1.11504
1470344788997625,-0.431018,-0.0762177,-1.11442
1470344789019608,-0.431923,-0.0763556,-1.1139
1470344789040632,-0.431857,-0.0764565,-1.11387
1470344789057642,-0.431857,-0.0764565,-1.11387
1470344789080170,-0.432031,-0.076479,-1.11419
1470344789101219,-0.431578,-0.0762821,-1.11447
1470344789123238,-0.430653,-0.0757968,-1.11552
1470344789139258,-0.4306,-0.0748814,-1.11673
1470344789161271,-0.430555,-0.0747164,-1.11675
1470344789182834,-0.430555,-0.0747164,-1.11675
1470344789199060,-0.431073,-0.0745572,-1.11653
1470344789221079,-0.432443,-0.0749311,-1.11629
1470344789242128,-0.433877,-0.0761311,-1.11577
1470344789259114,-0.434089,-0.0771619,-1.1153
1470344789281674,-0.435627,-0.0781445,-1.11464
1470344789296190,-0.437928,-0.0791439,-1.1141
1470344789319210,-0.439644,-0.0801483,-1.11376
1470344789341229,-0.440645,-0.0809448,-1.11385
1470344789356243,-0.441845,-0.0814391,-1.11403
1470344789379283,-0.443573,-0.0824686,-1.11386
1470344789401322,-0.445437,-0.0837368,-1.11364
1470344789416333,-0.447243,-0.0848759,-1.11357
1470344789439353,-0.448056,-0.0860009,-1.11373
1470344789461374,-0.448432,-0.086834,-1.11374
1470344789475893,-0.449257,-0.087668,-1.1138
1470344789499286,-0.45134,-0.0885983,-1.11353
1470344789521305,-0.453587,-0.0894393,-1.11298
1470344789536319,-0.454432,-0.0900081,-1.11309
1470344789559340,-0.454806,-0.0897322,-1.1135
1470344789581864,-0.455305,-0.0890774,-1.11308
1470344789596381,-0.455709,-0.0892462,-1.11219
1470344789619403,-0.455987,-0.0895533,-1.11096
1470344789641422,-0.457313,-0.0902917,-1.10945
1470344789662442,-0.458449,-0.0911913,-1.10849
1470344789679461,-0.457891,-0.0913827,-1.10842
1470344789701486,-0.45798,-0.0918512,-1.10773
1470344789722514,-0.458717,-0.0934175,-1.10688
1470344789738520,-0.459632,-0.0942777,-1.10636
1470344789761542,-0.459405,-0.0950475,-1.10587
1470344789783070,-0.459216,-0.0958796,-1.10612
1470344789798588,-0.459853,-0.0957789,-1.10591
1470344789821610,-0.460405,-0.0960442,-1.10561
1470344789842627,-0.460994,-0.0962819,-1.10561
1470344789875163,-0.460994,-0.0962819,-1.10561
1470344789881666,-0.461233,-0.0967108,-1.10614
1470344789902687,-0.461506,-0.0968378,-1.1066
1470344789926709,-0.462048,-0.0970018,-1.10707
1470344789941725,-0.462411,-0.0972029,-1.1075
1470344789962743,-0.462345,-0.0973036,-1.10748
1470344789979263,-0.462345,-0.0973036,-1.10748
1470344790001788,-0.462209,-0.0973401,-1.10789
1470344790029814,-0.462209,-0.0973401,-1.10789
1470344790038821,-0.461803,-0.0973396,-1.1083
1470344790061844,-0.461382,-0.0973757,-1.10884
1470344790084369,-0.461287,-0.0976401,-1.10952
1470344790099383,-0.46101,-0.0981698,-1.10998
1470344790121902,-0.460447,-0.0986988,-1.11057
1470344790143929,-0.460104,-0.0993288,-1.111
1470344790158941,-0.46003,-0.099996,-1.11144
1470344790180960,-0.459914,-0.100754,-1.11189
1470344790203981,-0.459438,-0.101585,-1.11227
1470344790218506,-0.45911,-0.102178,-1.11257
1470344790242036,-0.459025,-0.103048,-1.11267
1470344790264057,-0.458695,-0.103551,-1.11253
1470344790278067,-0.458275,-0.10398,-1.11241
1470344790301089,-0.458275,-0.10398,-1.11241
1470344790323622,-0.458258,-0.104335,-1.11281
1470344790338771,-0.458193,-0.10471,-1.11315
1470344790361794,-0.457702,-0.105074,-1.11347
1470344790383812,-0.457211,-0.105438,-1.1138
1470344790397824,-0.457211,-0.105438,-1.1138
1470344790421849,-0.457072,-0.105702,-1.11404
1470344790444377,-0.457145,-0.106131,-1.11441
1470344790458388,-0.457013,-0.106606,-1.11472
1470344790481409,-0.456686,-0.106969,-1.11522
1470344790504430,-0.456441,-0.107196,-1.11561
1470344790518447,-0.455926,-0.107385,-1.11599
1470344790541060,-0.455312,-0.107656,-1.11616
1470344790564082,-0.454225,-0.107752,-1.11634
1470344790585118,-0.453483,-0.107811,-1.11671
1470344790601142,-0.453483,-0.107811,-1.11671
1470344790624670,-0.453483,-0.107811,-1.11671
1470344790644695,-0.453411,-0.107472,-1.11679
1470344790661710,-0.452435,-0.106873,-1.11681
1470344790683732,-0.451597,-0.106601,-1.11723
1470344790704760,-0.451597,-0.106601,-1.11723
1470344790722270,-0.452145,-0.106704,-1.11741
1470344790743653,-0.452774,-0.106669,-1.11748
1470344790764706,-0.452774,-0.106669,-1.11748
1470344790781687,-0.452708,-0.10677,-1.11745
1470344790803710,-0.452774,-0.106669,-1.11748
1470344790824798,-0.45266,-0.106605,-1.11748
1470344790841812,-0.45279,-0.106906,-1.11772
1470344790863834,-0.453041,-0.10721,-1.11768
1470344790884855,-0.453292,-0.107513,-1.11763
1470344790901869,-0.453316,-0.107504,-1.11766
1470344790924410,-0.453316,-0.107504,-1.11766
1470344790945501,-0.453382,-0.107404,-1.11769
1470344790961504,-0.453358,-0.107413,-1.11766
1470344790983537,-0.453369,-0.10721,-1.118
1470344791005542,-0.453227,-0.106804,-1.11853
1470344791028827,-0.453707,-0.106338,-1.11897
1470344791043839,-0.453947,-0.105945,-1.11905
1470344791066859,-0.453947,-0.105945,-1.11905
1470344791081876,-0.453971,-0.105936,-1.11908
1470344791111932,-0.453858,-0.105871,-1.11908
1470344791126489,-0.453971,-0.105936,-1.11908
1470344791141499,-0.453572,-0.105869,-1.1192
1470344791163583,-0.453392,-0.105905,-1.11917
1470344791186536,-0.453392,-0.105905,-1.11917
1470344791200550,-0.452903,-0.105675,-1.11886
1470344791224148,-0.452284,-0.105233,-1.11876
1470344791246374,-0.451462,-0.104836,-1.1186
1470344791261367,-0.450886,-0.104303,-1.1185
1470344791284421,-0.450745,-0.103624,-1.11865
1470344791306427,-0.450442,-0.102899,-1.11875
1470344791321016,-0.450726,-0.102231,-1.11891
1470344791344541,-0.450929,-0.1017,-1.11918
1470344791366563,-0.450999,-0.10137,-1.11939
1470344791380574,-0.451253,-0.10126,-1.11962
1470344791404595,-0.451581,-0.101171,-1.11949
1470344791426626,-0.451979,-0.101238,-1.11937
1470344791440638,-0.451979,-0.101238,-1.11937
1470344791463658,-0.451979,-0.101238,-1.11937
1470344791486679,-0.452371,-0.101367,-1.11955
1470344791500693,-0.452257,-0.101303,-1.11954
1470344791524224,-0.452324,-0.101202,-1.11957
1470344791546749,-0.452197,-0.100671,-1.11951
1470344791567769,-0.452146,-0.100066,-1.11964
1470344791583781,-0.452078,-0.0994081,-1.11945
1470344791606802,-0.452066,-0.0989416,-1.1194
1470344791627837,-0.451925,-0.0984466,-1.11947
1470344791643850,-0.451925,-0.0984466,-1.11947
1470344791666916,-0.451948,-0.098437,-1.1195
1470344791687947,-0.451948,-0.098437,-1.1195
1470344791703907,-0.451948,-0.098437,-1.1195
1470344791726998,-0.452256,-0.0986138,-1.11933
1470344791748016,-0.452635,-0.098946,-1.11915
1470344791764032,-0.452749,-0.0990105,-1.11916
1470344791786074,-0.452749,-0.0990105,-1.11916
1470344791807085,-0.452635,-0.098946,-1.11915
1470344791824095,-0.452854,-0.0990486,-1.119
1470344791846133,-0.452854,-0.0990486,-1.119
1470344791868153,-0.452888,-0.0987471,-1.11892
1470344791884201,-0.453145,-0.0983188,-1.11888
1470344791906187,-0.453567,-0.0978907,-1.119
1470344791927326,-0.453567,-0.0978907,-1.119
1470344791944343,-0.453567,-0.0978907,-1.119
1470344791966362,-0.453453,-0.0978262,-1.119
1470344791989384,-0.453567,-0.0978907,-1.119
1470344792004396,-0.453453,-0.0978262,-1.119
1470344792025977,-0.453453,-0.0978262,-1.119
1470344792049110,-0.453567,-0.0978907,-1.119
1470344792064121,-0.452747,-0.0982522,-1.119
1470344792086143,-0.452148,-0.098214,-1.11866
1470344792109161,-0.452287,-0.0979506,-1.11842
1470344792123713,-0.451515,-0.0965472,-1.11834
1470344792146797,-0.449019,-0.0950538,-1.1169
1470344792168816,-0.44768,-0.093896,-1.11567
1470344792183830,-0.447372,-0.09313,-1.11521
1470344792206851,-0.447414,-0.093039,-1.11521
1470344792229550,-0.448088,-0.0930006,-1.11573
1470344792243563,-0.448444,-0.0932618,-1.11646
1470344792266583,-0.449348,-0.0936252,-1.11737
1470344792288602,-0.449962,-0.0942169,-1.11821
1470344792303617,-0.450217,-0.0948813,-1.11899
1470344792326647,-0.450638,-0.0957133,-1.11945
1470344792348736,-0.450937,-0.0962704,-1.11983
1470344792363749,-0.451001,-0.0966723,-1.12005
1470344792386769,-0.450728,-0.0971363,-1.12023
1470344792408792,-0.450694,-0.0974376,-1.1203
1470344792423811,-0.450717,-0.097428,-1.12033
1470344792446342,-0.450604,-0.0973634,-1.12033
1470344792476363,-0.450506,-0.097263,-1.12019
1470344792491377,-0.44983,-0.0971315,-1.12014
1470344792506393,-0.449287,-0.0967991,-1.12015
1470344792529427,-0.449287,-0.0967991,-1.12015
1470344792550447,-0.449936,-0.0965,-1.12028
1470344792566460,-0.450452,-0.096402,-1.12035
1470344792589481,-0.450338,-0.0963374,-1.12034
1470344792610500,-0.450483,-0.0966029,-1.12046
1470344792627023,-0.450846,-0.0969713,-1.12042
1470344792649553,-0.451436,-0.0974688,-1.12038
1470344792670572,-0.451962,-0.0977486,-1.12006
1470344792686585,-0.451962,-0.0977486,-1.12006
1470344792708604,-0.452142,-0.0977127,-1.12009
1470344792730637,-0.452142,-0.0977127,-1.12009
1470344792746651,-0.452142,-0.0977127,-1.12009
1470344792768670,-0.451755,-0.0971697,-1.12018
1470344792789691,-0.451517,-0.0965742,-1.12012
1470344792806706,-0.451629,-0.0958806,-1.11996
1470344792828737,-0.451848,-0.0953139,-1.12011
1470344792857763,-0.452271,-0.094886,-1.12023
1470344792866774,-0.452772,-0.0948242,-1.12043
1470344792888791,-0.453515,-0.0948554,-1.12051
1470344792911811,-0.454063,-0.0949588,-1.12069
1470344792926831,-0.454493,-0.0952268,-1.12068
1470344792948731,-0.454847,-0.0955687,-1.12048
1470344792971749,-0.455277,-0.0958367,-1.12047
1470344792986763,-0.455301,-0.0958269,-1.1205
1470344793009783,-0.455301,-0.0958269,-1.1205
1470344793031401,-0.455187,-0.0957623,-1.12049
1470344793047418,-0.455187,-0.0957623,-1.12049
1470344793069436,-0.454679,-0.0951283,-1.12042
1470344793091457,-0.454341,-0.094432,-1.12022
1470344793105468,-0.454529,-0.0936643,-1.12026
1470344793129005,-0.454523,-0.0929688,-1.12039
1470344793152026,-0.454992,-0.0927062,-1.12049
1470344793166039,-0.455509,-0.0926085,-1.12057
1470344793189059,-0.455883,-0.0926852,-1.12042
1470344793218093,-0.455883,-0.0926852,-1.12042
1470344793226101,-0.455846,-0.0927128,-1.12013
1470344793248946,-0.456395,-0.0929823,-1.11983
1470344793273970,-0.456691,-0.0934509,-1.11976
1470344793285982,-0.456691,-0.0934509,-1.11976
1470344793309001,-0.456691,-0.0934509,-1.11976
1470344793332037,-0.456691,-0.0934509,-1.11976
1470344793346050,-0.456452,-0.0928555,-1.1197
1470344793369070,-0.456417,-0.0922141,-1.1197
1470344793391089,-0.45635,-0.0915564,-1.11951
1470344793406104,-0.456157,-0.0911259,-1.11943
1470344793428826,-0.456224,-0.0910255,-1.11946
1470344793451846,-0.456224,-0.0910255,-1.11946
1470344793472865,-0.456575,-0.0909272,-1.11937
1470344793496888,-0.456837,-0.0907543,-1.1193
1470344793512909,-0.457396,-0.0907318,-1.1189
1470344793532435,-0.458307,-0.0906105,-1.1184
1470344793549448,-0.459327,-0.0907817,-1.11773
1470344793571468,-0.460137,-0.0908767,-1.11737
1470344793592486,-0.461219,-0.0910098,-1.11701
1470344793609502,-0.462049,-0.0910243,-1.11662
1470344793632030,-0.462501,-0.0905229,-1.11649
1470344793653048,-0.463337,-0.0899595,-1.11685
1470344793669062,-0.464372,-0.0895992,-1.11748
1470344793691584,-0.464231,-0.0892694,-1.11708
1470344793712471,-0.462137,-0.0887289,-1.11667
1470344793729487,-0.460707,-0.0880269,-1.11741
1470344793751506,-0.461007,-0.087662,-1.11812
1470344793772525,-0.461557,-0.0877656,-1.1183
1470344793789547,-0.461557,-0.0877656,-1.1183
1470344793811572,-0.461557,-0.0877656,-1.1183
1470344793833591,-0.461557,-0.0877656,-1.1183
1470344793848605,-0.460993,-0.0876989,-1.11825
1470344793871625,-0.460473,-0.0873568,-1.11828
1470344793894653,-0.460038,-0.0871526,-1.11858
1470344793908669,-0.45928,-0.0871587,-1.11863
1470344793931689,-0.45764,-0.0872126,-1.1189
1470344793953709,-0.455632,-0.0863691,-1.11888
1470344793969723,-0.45457,-0.0849376,-1.11876
1470344793991756,-0.454639,-0.0843344,-1.11861
1470344794013781,-0.454706,-0.084234,-1.11864
1470344794028798,-0.45511,-0.0840715,-1.11871
1470344794051816,-0.455716,-0.084048,-1.11876
1470344794073834,-0.456161,-0.084113,-1.1191
1470344794088853,-0.457107,-0.0842826,-1.11917
1470344794111879,-0.457873,-0.0844883,-1.1192
1470344794133920,-0.457873,-0.0844883,-1.1192
1470344794147912,-0.457873,-0.0844883,-1.1192
1470344794171934,-0.457987,-0.0845526,-1.1192
1470344794194472,-0.457987,-0.0845526,-1.1192
1470344794207990,-0.457987,-0.0845526,-1.1192
1470344794232010,-0.457987,-0.0845526,-1.1192
1470344794254032,-0.457862,-0.0840219,-1.11915
1470344794268043,-0.457857,-0.0833272,-1.11929
1470344794291594,-0.458002,-0.0828352,-1.11924
1470344794314145,-0.458002,-0.0828352,-1.11924
1470344794328157,-0.458993,-0.0827293,-1.1194
1470344794336164,-0.45996,-0.0826342,-1.11952
1470344794357239,-0.460429,-0.0828753,-1.1198
1470344794379247,-0.460641,-0.0830408,-1.11994
1470344794402290,-0.461227,-0.0832831,-1.11994
1470344794417283,-0.461837,-0.0835149,-1.11997
1470344794442304,-0.462221,-0.083618,-1.11998
1470344794457318,-0.462221,-0.083618,-1.11998
1470344794477336,-0.462107,-0.0835537,-1.11998
1470344794499396,-0.462107,-0.0835537,-1.11998
1470344794517412,-0.462221,-0.083618,-1.11998
1470344794537431,-0.462221,-0.083618,-1.11998
1470344794559528,-0.462221,-0.083618,-1.11998
1470344794577469,-0.462221,-0.083618,-1.11998
1470344794597032,-0.462221,-0.083618,-1.11998
1470344794619559,-0.462221,-0.083618,-1.11998
1470344794637576,-0.462288,-0.0835177,-1.12002
1470344794657609,-0.462288,-0.0835177,-1.12002
1470344794679642,-0.462697,-0.0840504,-1.11995
1470344794697652,-0.462935,-0.0846456,-1.12001
1470344794716680,-0.462833,-0.0850479,-1.12005
1470344794739779,-0.462746,-0.0854131,-1.11996
1470344794757762,-0.462746,-0.0854131,-1.11996
1470344794776731,-0.462746,-0.0854131,-1.11996
1470344794799303,-0.462746,-0.0854131,-1.11996
1470344794817630,-0.462746,-0.0854131,-1.11996
1470344794836647,-0.462746,-0.0854131,-1.11996
1470344794859669,-0.462746,-0.0854131,-1.11996
1470344794883687,-0.462746,-0.0854131,-1.11996
1470344794897234,-0.462746,-0.0854131,-1.11996
1470344794922787,-0.463342,-0.085682,-1.12012
1470344794936803,-0.463654,-0.0859493,-1.1204
1470344794956908,-0.463908,-0.0863435,-1.1208
1470344794979875,-0.464189,-0.0868492,-1.12086
1470344794997905,-0.464698,-0.0874837,-1.12093
1470344795017027,-0.46498,-0.0879895,-1.12099
1470344795040003,-0.465623,-0.0884236,-1.12113
1470344795057018,-0.465623,-0.0884236,-1.12113
1470344795077068,-0.465509,-0.0883592,-1.12112
1470344795099652,-0.465519,-0.0883859,-1.12128
1470344795117918,-0.465452,-0.0884862,-1.12125
1470344795136870,-0.465452,-0.0884862,-1.12125
1470344795161896,-0.465509,-0.0883592,-1.12112
1470344795177961,-0.465509,-0.0883592,-1.12112
1470344795197567,-0.465509,-0.0883592,-1.12112
1470344795219085,-0.465981,-0.088856,-1.12138
1470344795237045,-0.46601,-0.089562,-1.12166
1470344795257111,-0.46601,-0.089562,-1.12166
1470344795279083,-0.466046,-0.0900183,-1.12174
1470344795297711,-0.466115,-0.0903581,-1.12166
1470344795317188,-0.466354,-0.0909538,-1.12172
1470344795339285,-0.466455,-0.0914956,-1.12174
1470344795357212,-0.465787,-0.0921485,-1.122
1470344795377232,-0.465136,-0.0924457,-1.12186
1470344795399845,-0.465203,-0.0923455,-1.12189
1470344795417130,-0.465136,-0.0924457,-1.12186
1470344795438147,-0.464714,-0.0922041,-1.12203
1470344795459215,-0.46443,-0.0922021,-1.12215
1470344795477184,-0.464072,-0.0923642,-1.12254
1470344795498720,-0.464072,-0.0923642,-1.12254
1470344795519767,-0.463889,-0.0929037,-1.12268
1470344795537801,-0.463738,-0.0934597,-1.12302
1470344795558779,-0.46336,-0.0938865,-1.12335
1470344795579797,-0.463258,-0.0942886,-1.12339
1470344795597957,-0.463212,-0.0948824,-1.12357
1470344795618891,-0.463043,-0.0953848,-1.12359
1470344795639907,-0.462941,-0.095787,-1.12364
1470344795657923,-0.462464,-0.096112,-1.12383
1470344795678034,-0.461889,-0.0963354,-1.12388
1470344795699522,-0.461889,-0.0963354,-1.12388
1470344795722073,-0.461865,-0.0963455,-1.12385
1470344795747070,-0.461865,-0.0963455,-1.12385
1470344795760098,-0.461865,-0.0963455,-1.12385
1470344795777097,-0.461978,-0.0964102,-1.12386
1470344795800152,-0.461978,-0.0964102,-1.12386
1470344795819207,-0.461865,-0.0963455,-1.12385
1470344795837190,-0.462144,-0.0964116,-1.12403
1470344795860258,-0.462341,-0.0966147,-1.1243
1470344795879230,-0.462341,-0.0966147,-1.1243
1470344795897823,-0.462263,-0.0970068,-1.12437
1470344795920408,-0.461996,-0.0974074,-1.12425
1470344795939430,-0.461888,-0.0980377,-1.12411
1470344795957441,-0.461832,-0.0983293,-1.12377
1470344795980462,-0.461832,-0.0983293,-1.12377
1470344796000016,-0.461387,-0.098262,-1.12343
1470344796017599,-0.461042,-0.0982963,-1.12323
1470344796039581,-0.461042,-0.0982963,-1.12323
1470344796059652,-0.461109,-0.0981961,-1.12326
1470344796077613,-0.461222,-0.0982608,-1.12326
1470344796100194,-0.461109,-0.0981961,-1.12326
1470344796119906,-0.461653,-0.0985295,-1.12325
1470344796137831,-0.461954,-0.0987703,-1.12337
1470344796159852,-0.462385,-0.099039,-1.12336
1470344796179868,-0.462385,-0.099039,-1.12336
1470344796197891,-0.462385,-0.099039,-1.12336
1470344796219943,-0.462385,-0.099039,-1.12336
1470344796239984,-0.462385,-0.099039,-1.12336
1470344796256976,-0.462385,-0.099039,-1.12336
1470344796279998,-0.462205,-0.0990745,-1.12333
1470344796299611,-0.462318,-0.0991392,-1.12333
1470344796317076,-0.461798,-0.0987959,-1.12336
1470344796340097,-0.461798,-0.0987959,-1.12336
1470344796361117,-0.461856,-0.0986688,-1.12323
1470344796377135,-0.461856,-0.0986688,-1.12323
1470344796400158,-0.461856,-0.0986688,-1.12323
1470344796422184,-0.462135,-0.0987348,-1.1234
1470344796437210,-0.462684,-0.0988401,-1.12358
1470344796460234,-0.4633,-0.0988453,-1.1238
1470344796481237,-0.463927,-0.0985586,-1.1239
1470344796497804,-0.464572,-0.0983261,-1.12433
1470344796519898,-0.465292,-0.0982058,-1.12486
1470344796540974,-0.46599,-0.097911,-1.12545
1470344796557931,-0.466725,-0.0977544,-1.12585
1470344796579951,-0.467709,-0.0974628,-1.12632
1470344796600980,-0.468724,-0.097374,-1.1269
1470344796617660,-0.470057,-0.0974907,-1.12746
1470344796640654,-0.471542,-0.0978105,-1.12784
1470344796660711,-0.473115,-0.0985258,-1.12847
1470344796677659,-0.475012,-0.0996605,-1.12915
1470344796700277,-0.477533,-0.10106,-1.13003
1470344796722871,-0.47928,-0.102756,-1.13105
1470344796737855,-0.480975,-0.104516,-1.13191
1470344796759835,-0.482671,-0.106278,-1.13277
1470344796782856,-0.484484,-0.107786,-1.13337
1470344796797877,-0.486437,-0.10935,-1.134
1470344796824908,-0.488184,-0.11096,-1.13458
1470344796841924,-0.489815,-0.112828,-1.13541
1470344796862975,-0.491624,-0.114409,-1.1363
1470344796878956,-0.49326,-0.116056,-1.13732
1470344796902027,-0.494394,-0.117531,-1.13832
1470344796923157,-0.495139,-0.11846,-1.13942
1470344796939082,-0.495556,-0.119153,-1.14037
1470344796969107,-0.495135,-0.119505,-1.14145
1470344796983134,-0.494518,-0.119743,-1.14271
1470344796999167,-0.494338,-0.119932,-1.1437
1470344797021927,-0.493887,-0.120078,-1.14468
1470344797035941,-0.49324,-0.12011,-1.14583
1470344797058966,-0.493201,-0.120355,-1.14685
1470344797081981,-0.493347,-0.120683,-1.14753
1470344797102626,-0.493559,-0.121236,-1.1485
1470344797118796,-0.493526,-0.121851,-1.14912
1470344797141743,-0.493346,-0.122518,-1.14989
1470344797155764,-0.493555,-0.122973,-1.15041
1470344797178776,-0.4941,-0.123598,-1.15078
1470344797201884,-0.49501,-0.124159,-1.15122
1470344797222461,-0.49566,-0.124821,-1.15143
1470344797239429,-0.496184,-0.125272,-1.15186
1470344797261446,-0.496889,-0.125592,-1.15186
1470344797282467,-0.497931,-0.125642,-1.15182
1470344797299531,-0.498504,-0.125398,-1.1516
1470344797321591,-0.498998,-0.125106,-1.15157
1470344797342573,-0.499261,-0.124681,-1.15154
1470344797358660,-0.500043,-0.124394,-1.15138
1470344797381656,-0.500566,-0.123769,-1.15112
1470344797403175,-0.5004,-0.123322,-1.15106
1470344797419350,-0.500373,-0.122794,-1.15069
1470344797441369,-0.500785,-0.122356,-1.15038
1470344797462390,-0.501354,-0.121896,-1.15009
1470344797479404,-0.501786,-0.121633,-1.14974
1470344797501929,-0.501786,-0.121633,-1.14974
1470344797522953,-0.502066,-0.121608,-1.14945
1470344797539022,-0.503321,-0.12173,-1.14911
1470344797561988,-0.50466,-0.121713,-1.14866
1470344797583086,-0.505732,-0.121867,-1.14828
1470344797599581,-0.506695,-0.122208,-1.14786
1470344797621189,-0.507434,-0.122346,-1.14714
1470344797643164,-0.508426,-0.122352,-1.14649
1470344797659180,-0.509349,-0.122457,-1.1458
1470344797681200,-0.509908,-0.122727,-1.1455
1470344797704227,-0.510672,-0.123139,-1.14519
1470344797721276,-0.511637,-0.123478,-1.14477
1470344797741273,-0.511717,-0.123524,-1.14459
1470344797764286,-0.511726,-0.123554,-1.14475
1470344797779299,-0.512497,-0.123456,-1.14425
1470344797801860,-0.513708,-0.12341,-1.14393
1470344797824422,-0.513708,-0.12341,-1.14393
1470344797838436,-0.51364,-0.123509,-1.1439
1470344797861502,-0.514511,-0.123517,-1.14354
1470344797884476,-0.515634,-0.123832,-1.14314
1470344797898513,-0.516564,-0.124473,-1.1428
1470344797921542,-0.517175,-0.125345,-1.14235
1470344797944563,-0.517787,-0.126217,-1.14191
1470344797965639,-0.518708,-0.127049,-1.14122
1470344797981594,-0.519748,-0.127725,-1.14072
1470344798004646,-0.52065,-0.128159,-1.14027
1470344798025671,-0.52143,-0.12926,-1.13981
1470344798041685,-0.521825,-0.13069,-1.13921
1470344798063756,-0.521445,-0.131392,-1.1384
1470344798078718,-0.520471,-0.131621,-1.13778
1470344798101788,-0.520071,-0.131704,-1.13741
1470344798124565,-0.519712,-0.132023,-1.1373
1470344798138578,-0.519779,-0.131924,-1.13733
1470344798161631,-0.519179,-0.131235,-1.13745
1470344798184617,-0.517486,-0.130554,-1.1377
1470344798204745,-0.516843,-0.130019,-1.13838
1470344798221760,-0.516612,-0.129767,-1.13902
1470344798243779,-0.516409,-0.12918,-1.13942
1470344798264890,-0.51595,-0.128508,-1.13968
1470344798281815,-0.515201,-0.127835,-1.14006
1470344798304383,-0.513812,-0.127184,-1.14035
1470344798326911,-0.512401,-0.126581,-1.1405
1470344798341926,-0.511445,-0.125886,-1.14025
1470344798363943,-0.509763,-0.124917,-1.14013
1470344798385004,-0.507947,-0.124245,-1.1404
1470344798401562,-0.50705,-0.123809,-1.14085
1470344798423842,-0.506622,-0.122803,-1.14087
1470344798444833,-0.506244,-0.121299,-1.14117
1470344798461845,-0.506109,-0.119633,-1.14138
1470344798483864,-0.505135,-0.117625,-1.14171
1470344798504948,-0.504696,-0.115558,-1.14228
1470344798521962,-0.504229,-0.113725,-1.14264
1470344798543981,-0.503548,-0.112481,-1.143
1470344798565001,-0.502267,-0.111397,-1.14309
1470344798582016,-0.500436,-0.110294,-1.14344
1470344798604548,-0.498848,-0.10947,-1.14359
1470344798632624,-0.498468,-0.108698,-1.14388
1470344798641631,-0.498512,-0.107731,-1.14411
1470344798663635,-0.498512,-0.107731,-1.14411
1470344798686658,-0.498512,-0.107731,-1.14411
1470344798702174,-0.49883,-0.107939,-1.1441
1470344798723942,-0.499278,-0.108457,-1.14433
1470344798746965,-0.50003,-0.108939,-1.1443
1470344798760978,-0.501153,-0.10957,-1.14443
1470344798784045,-0.501992,-0.110451,-1.14465
1470344798813794,-0.50214,-0.111699,-1.14499
1470344798820797,-0.501408,-0.112691,-1.14545
1470344798843820,-0.500509,-0.113677,-1.14574
1470344798866837,-0.499969,-0.115543,-1.14617
1470344798880852,-0.500615,-0.117729,-1.14668
1470344798903892,-0.501908,-0.120262,-1.14687
1470344798926915,-0.502113,-0.122584,-1.14713
1470344798940929,-0.501641,-0.124731,-1.14692
1470344798963990,-0.501298,-0.126651,-1.14661
1470344798986970,-0.501643,-0.127952,-1.14621
1470344799000995,-0.502145,-0.128791,-1.14593
1470344799024608,-0.502804,-0.129607,-1.14566
1470344799046657,-0.502727,-0.130439,-1.14562
1470344799060641,-0.502223,-0.131026,-1.14575
1470344799083707,-0.502118,-0.131429,-1.1458
1470344799106765,-0.502816,-0.132041,-1.14591
1470344799127817,-0.503864,-0.132304,-1.14595
1470344799143798,-0.504989,-0.132499,-1.14618
1470344799166821,-0.505343,-0.132689,-1.14647
1470344799187879,-0.505227,-0.132622,-1.14646
1470344799204362,-0.505624,-0.132763,-1.14664
1470344799226388,-0.506169,-0.13285,-1.14666
1470344799247405,-0.506549,-0.13303,-1.14698
1470344799264420,-0.506677,-0.133342,-1.14722
1470344799286440,-0.506921,-0.13372,-1.14747
1470344799307591,-0.507709,-0.13441,-1.14755
1470344799324572,-0.508331,-0.135092,-1.14747
1470344799346639,-0.508864,-0.135697,-1.1474
1470344799367644,-0.509303,-0.136412,-1.14728
1470344799384626,-0.509721,-0.136951,-1.14721
1470344799406730,-0.510179,-0.137625,-1.14696
1470344799427749,-0.510892,-0.138383,-1.14685
1470344799444765,-0.511359,-0.139087,-1.14675
1470344799466783,-0.512023,-0.139903,-1.14647
1470344799487801,-0.512472,-0.140872,-1.14632
1470344799504321,-0.51299,-0.141639,-1.14574
1470344799526599,-0.513877,-0.142118,-1.14543
1470344799547642,-0.51466,-0.142777,-1.14535
1470344799563631,-0.515725,-0.143734,-1.14525
1470344799586652,-0.516322,-0.144209,-1.14505
1470344799609686,-0.517008,-0.144761,-1.14483
1470344799623699,-0.517721,-0.145303,-1.14464
1470344799646719,-0.518678,-0.145682,-1.14435
1470344799668737,-0.519159,-0.146091,-1.14415
1470344799683750,-0.519299,-0.146555,-1.14391
1470344799712789,-0.519695,-0.147326,-1.14362
1470344799728803,-0.519642,-0.148118,-1.14345
1470344799743818,-0.519545,-0.149183,-1.1432
1470344799767840,-0.51944,-0.150544,-1.14305
1470344799788856,-0.520021,-0.151913,-1.14233
1470344799803875,-0.520768,-0.153297,-1.14151
1470344799826543,-0.520949,-0.155043,-1.14053
1470344799856571,-0.520839,-0.156788,-1.13968
1470344799863576,-0.521091,-0.158435,-1.13873
1470344799886597,-0.52193,-0.159863,-1.13773
1470344799909132,-0.522418,-0.161419,-1.13699
1470344799923140,-0.522445,-0.162743,-1.13639
1470344799947165,-0.522657,-0.164034,-1.13582
1470344799969181,-0.523263,-0.165433,-1.13527
1470344799983194,-0.523745,-0.166734,-1.13455
1470344800006323,-0.523837,-0.168256,-1.13409
1470344800029342,-0.52376,-0.169546,-1.13366
1470344800043354,-0.523774,-0.170911,-1.13319
1470344800066375,-0.524047,-0.172176,-1.13296
1470344800089397,-0.524522,-0.173551,-1.13254
1470344800110428,-0.525523,-0.174835,-1.13219
1470344800126445,-0.526349,-0.176375,-1.13162
1470344800155466,-0.526494,-0.177839,-1.13133
1470344800170509,-0.526253,-0.179601,-1.13075
1470344800186538,-0.525502,-0.18152,-1.13044
1470344800209557,-0.524951,-0.183845,-1.13005
1470344800230576,-0.525245,-0.18604,-1.12947
1470344800246592,-0.525452,-0.188044,-1.12873
1470344800269611,-0.525202,-0.189667,-1.12838
1470344800290630,-0.52448,-0.191217,-1.12768
1470344800306177,-0.524139,-0.192436,-1.12708
1470344800329475,-0.524466,-0.193589,-1.12643
1470344800350499,-0.524965,-0.194485,-1.12599
1470344800366508,-0.525198,-0.195255,-1.12551
1470344800389529,-0.524708,-0.196044,-1.12532
1470344800410590,-0.524423,-0.196781,-1.12545
1470344800434613,-0.524338,-0.197925,-1.12552
1470344800449626,-0.525456,-0.199316,-1.12531
1470344800470645,-0.526403,-0.200964,-1.12488
1470344800486660,-0.526984,-0.203192,-1.12459
1470344800509450,-0.527969,-0.206018,-1.12406
1470344800531470,-0.529128,-0.20853,-1.12316
1470344800546484,-0.530279,-0.210759,-1.12186
1470344800569503,-0.530469,-0.212575,-1.12072
1470344800592090,-0.529896,-0.21423,-1.1202
1470344800606159,-0.530309,-0.216221,-1.1192
1470344800629385,-0.531125,-0.218018,-1.1181
1470344800651403,-0.531123,-0.219945,-1.11724
1470344800666416,-0.530336,-0.221393,-1.11642
1470344800689437,-0.529861,-0.222609,-1.11568
1470344800711498,-0.529487,-0.223453,-1.11505
1470344800725508,-0.52897,-0.223491,-1.1144
1470344800749530,-0.528154,-0.22275,-1.11374
1470344800771550,-0.527116,-0.221414,-1.1135
1470344800785561,-0.525663,-0.219746,-1.11344
1470344800809146,-0.524465,-0.217979,-1.11359
1470344800831184,-0.523512,-0.215745,-1.11352
1470344800846179,-0.522919,-0.213764,-1.11405
1470344800869200,-0.52228,-0.211864,-1.11485
1470344800891740,-0.522229,-0.210069,-1.11584
1470344800906251,-0.522175,-0.208241,-1.11668
1470344800929463,-0.521959,-0.206885,-1.11738
1470344800951481,-0.521404,-0.20589,-1.11817
1470344800966494,-0.520918,-0.204953,-1.11847
1470344800989517,-0.520538,-0.203803,-1.11837
1470344801011618,-0.519986,-0.202754,-1.11857
1470344801032624,-0.519783,-0.201836,-1.11844
1470344801048665,-0.519831,-0.200998,-1.11846
1470344801071653,-0.519629,-0.200135,-1.11893
1470344801093318,-0.519716,-0.199536,-1.11922
1470344801109229,-0.519894,-0.198499,-1.11929
1470344801131248,-0.519628,-0.197223,-1.11955
1470344801152283,-0.519551,-0.196127,-1.11991
1470344801169283,-0.51941,-0.195131,-1.12024
1470344801191922,-0.519508,-0.193755,-1.12039
1470344801212476,-0.519369,-0.192248,-1.12054
1470344801229463,-0.51881,-0.190973,-1.12092
1470344801251483,-0.518501,-0.190076,-1.12155
1470344801272507,-0.518689,-0.189585,-1.12198
1470344801289518,-0.519016,-0.188788,-1.12201
1470344801311608,-0.519063,-0.187919,-1.12187
1470344801332662,-0.519289,-0.187314,-1.12187
1470344801349636,-0.519461,-0.187056,-1.12209
1470344801371656,-0.520097,-0.186996,-1.12199
1470344801393224,-0.520427,-0.186178,-1.12159
1470344801408738,-0.520047,-0.184997,-1.12133
1470344801431759,-0.519494,-0.184213,-1.12148
1470344801453790,-0.519811,-0.183682,-1.12146
1470344801468789,-0.520324,-0.182852,-1.12152
1470344801491811,-0.520362,-0.182089,-1.12184
1470344801513838,-0.520175,-0.181419,-1.12197
1470344801528858,-0.519981,-0.180717,-1.12193
1470344801551873,-0.520424,-0.180285,-1.12208
1470344801573893,-0.520835,-0.180158,-1.1223
1470344801588961,-0.520807,-0.180166,-1.12227
1470344801611059,-0.520835,-0.180158,-1.1223
1470344801634075,-0.520835,-0.180158,-1.1223
1470344801656070,-0.520835,-0.180158,-1.1223
1470344801672112,-0.5209,-0.180059,-1.12233
1470344801694693,-0.5209,-0.180059,-1.12233
1470344801708202,-0.5209,-0.180059,-1.12233
1470344801732286,-0.520835,-0.18067,-1.12249
1470344801754252,-0.520954,-0.180736,-1.12249
1470344801768266,-0.520954,-0.180736,-1.12249
1470344801791315,-0.520954,-0.180736,-1.12249
1470344801814363,-0.520766,-0.180577,-1.12281
1470344801828382,-0.520838,-0.180533,-1.12343
1470344801851398,-0.520651,-0.180374,-1.12375
1470344801874416,-0.520174,-0.180248,-1.12435
1470344801888468,-0.519277,-0.180023,-1.12492
1470344801911517,-0.518558,-0.180062,-1.12563
1470344801934524,-0.518587,-0.180076,-1.12609
1470344801955655,-0.518432,-0.180123,-1.12652
1470344801971556,-0.517696,-0.180394,-1.12701
1470344801994627,-0.516841,-0.180598,-1.1275
1470344802015652,-0.516465,-0.18077,-1.1279
1470344802031668,-0.516465,-0.18077,-1.1279
1470344802053736,-0.516346,-0.180703,-1.1279
1470344802075717,-0.515859,-0.180841,-1.12845
1470344802081758,-0.515365,-0.180946,-1.12885
1470344802097294,-0.515054,-0.181017,-1.12927
1470344802119494,-0.515054,-0.181017,-1.12927
1470344802142472,-0.514936,-0.180951,-1.12927
1470344802157495,-0.514936,-0.180951,-1.12927
1470344802179561,-0.514936,-0.180951,-1.12927
1470344802202540,-0.514871,-0.181051,-1.12924
1470344802217150,-0.514752,-0.180984,-1.12924
1470344802239182,-0.514432,-0.18081,-1.12942
1470344802262186,-0.5139,-0.180676,-1.12954
1470344802277162,-0.514035,-0.181021,-1.12995
1470344802299689,-0.513899,-0.181538,-1.13044
1470344802322243,-0.513458,-0.181808,-1.13081
1470344802337262,-0.513055,-0.182316,-1.13145
1470344802359280,-0.513121,-0.182941,-1.13175
1470344802382301,-0.513766,-0.18346,-1.13217
1470344802397371,-0.514112,-0.184159,-1.13265
1470344802419355,-0.514185,-0.185147,-1.13338
1470344802442405,-0.513871,-0.186434,-1.13385
1470344802457419,-0.513576,-0.187487,-1.13453
1470344802479411,-0.513127,-0.18878,-1.13529
1470344802502435,-0.512805,-0.190384,-1.13631
1470344802517454,-0.512257,-0.19192,-1.13764
1470344802539503,-0.511067,-0.193478,-1.13892
1470344802562495,-0.509675,-0.195139,-1.14047
1470344802577508,-0.507956,-0.197133,-1.14241
1470344802600033,-0.506431,-0.198828,-1.14444
1470344802622189,-0.504409,-0.200289,-1.1466
1470344802637202,-0.501847,-0.201742,-1.14952
1470344802659222,-0.499195,-0.203328,-1.15257
1470344802682234,-0.496363,-0.20497,-1.15577
1470344802697211,-0.492876,-0.206724,-1.15939
1470344802719739,-0.490169,-0.208169,-1.16311
1470344802741755,-0.488101,-0.209591,-1.16689
1470344802756805,-0.484607,-0.210608,-1.17141
1470344802779789,-0.479755,-0.211639,-1.17665
1470344802803877,-0.4748,-0.21284,-1.1819
1470344802816928,-0.470778,-0.214233,-1.18718
1470344802839976,-0.467184,-0.215436,-1.19282
1470344802861966,-0.463568,-0.216658,-1.19863
1470344802877022,-0.459455,-0.217473,-1.20482
1470344802900011,-0.454483,-0.217917,-1.21088
1470344802922064,-0.44875,-0.218333,-1.21724
1470344802937045,-0.442095,-0.219173,-1.22383
1470344802960072,-0.434941,-0.220462,-1.23065
1470344802982086,-0.428736,-0.221909,-1.23737
1470344802998611,-0.423389,-0.223446,-1.244
1470344803019229,-0.41779,-0.22393,-1.2503
1470344803042239,-0.414566,-0.224382,-1.25596
1470344803058247,-0.408672,-0.2255,-1.26285
1470344803079274,-0.399266,-0.225949,-1.27018
1470344803102259,-0.392522,-0.22598,-1.27693
1470344803118943,-0.388663,-0.225918,-1.28285
1470344803139962,-0.383438,-0.225262,-1.28862
1470344803161982,-0.374794,-0.224081,-1.29436
1470344803178997,-0.365575,-0.223401,-1.29972
1470344803200056,-0.358265,-0.224388,-1.30484
1470344803221674,-0.354852,-0.225869,-1.30877
1470344803238634,-0.351946,-0.227271,-1.31209
1470344803259708,-0.34763,-0.229251,-1.31534
1470344803281686,-0.340755,-0.231621,-1.31885
1470344803298695,-0.333287,-0.233697,-1.32194
1470344803319543,-0.326838,-0.235446,-1.3243
1470344803342521,-0.323515,-0.237695,-1.32572
1470344803359537,-0.320313,-0.239938,-1.326
1470344803379555,-0.313638,-0.241324,-1.32525
1470344803402684,-0.305554,-0.242447,-1.32341
1470344803419862,-0.299245,-0.243805,-1.32064
1470344803439879,-0.29569,-0.24538,-1.31692
1470344803461900,-0.291844,-0.246474,-1.31258
1470344803479916,-0.287072,-0.246974,-1.30816
1470344803499973,-0.282848,-0.247395,-1.30344
1470344803521900,-0.28045,-0.247565,-1.29826
1470344803539929,-0.278374,-0.247296,-1.29262
1470344803559928,-0.277329,-0.246966,-1.28668
1470344803581948,-0.277614,-0.246746,-1.28008
1470344803600503,-0.279706,-0.246461,-1.2727
1470344803619913,-0.281884,-0.245385,-1.26489
1470344803641980,-0.28411,-0.243174,-1.25672
1470344803659949,-0.286725,-0.241008,-1.24808
1470344803679970,-0.289025,-0.238871,-1.23873
1470344803702532,-0.292355,-0.23679,-1.22912
1470344803720734,-0.296962,-0.234542,-1.21935
1470344803739805,-0.302461,-0.231155,-1.20986
1470344803761802,-0.306733,-0.226575,-1.20101
1470344803779788,-0.308725,-0.2212,-1.19229
1470344803799815,-0.311631,-0.21621,-1.18313
1470344803821890,-0.316691,-0.21176,-1.17383
1470344803839891,-0.324835,-0.207114,-1.16508
1470344803860924,-0.334389,-0.202269,-1.15736
1470344803881970,-0.343471,-0.196653,-1.151
1470344803900493,-0.35268,-0.190282,-1.14617
1470344803919575,-0.36269,-0.183553,-1.14211
1470344803942534,-0.373752,-0.176337,-1.1389
1470344803960584,-0.384635,-0.168669,-1.13676
1470344803980569,-0.394612,-0.160329,-1.13557
1470344804002093,-0.404371,-0.151207,-1.13497
1470344804019616,-0.41391,-0.141437,-1.13455
1470344804040652,-0.422804,-0.131567,-1.13445
1470344804062670,-0.430806,-0.122147,-1.13432
1470344804079671,-0.438381,-0.112203,-1.13394
1470344804101254,-0.445617,-0.102334,-1.13365
1470344804122541,-0.452202,-0.09347,-1.1332
1470344804139558,-0.458516,-0.0859053,-1.13226
1470344804160597,-0.464447,-0.0795947,-1.13095
1470344804182612,-0.469354,-0.074311,-1.12919
1470344804200157,-0.47447,-0.0699771,-1.12669
1470344804221286,-0.478843,-0.0664132,-1.12338
1470344804242307,-0.482748,-0.0634977,-1.11974
1470344804260322,-0.485827,-0.0611155,-1.11575
1470344804281371,-0.488688,-0.0589957,-1.11153
1470344804302419,-0.490331,-0.0572612,-1.10783
1470344804320517,-0.491376,-0.0556713,-1.10491
1470344804342536,-0.492553,-0.0539446,-1.10235
1470344804362554,-0.493999,-0.0523198,-1.10011
1470344804379570,-0.495697,-0.0501463,-1.09846
1470344804402630,-0.497514,-0.0480121,-1.09788
1470344804422154,-0.498984,-0.0452707,-1.0986
1470344804440171,-0.499534,-0.0425253,-1.10021
1470344804462190,-0.500959,-0.0405122,-1.10269
1470344804482208,-0.503437,-0.0386761,-1.10496
1470344804500228,-0.506491,-0.0374192,-1.10748
1470344804522282,-0.509542,-0.0356339,-1.1097
1470344804542366,-0.511723,-0.0343724,-1.11213
1470344804560376,-0.512119,-0.0333765,-1.11468
1470344804582341,-0.51179,-0.0320195,-1.1169
1470344804602998,-0.51217,-0.0307085,-1.11894
1470344804619514,-0.513099,-0.0294121,-1.12075
1470344804641535,-0.514116,-0.0283739,-1.1222
1470344804662555,-0.514016,-0.027115,-1.12325
1470344804679568,-0.513171,-0.0260289,-1.12401
1470344804701655,-0.51197,-0.0249727,-1.12454
1470344804723716,-0.511391,-0.0240369,-1.12469
1470344804739686,-0.509816,-0.0231627,-1.12452
1470344804761708,-0.50513,-0.0228252,-1.12374
1470344804782724,-0.497718,-0.0237602,-1.12195
1470344804799279,-0.490229,-0.0254842,-1.11881
1470344804821595,-0.485136,-0.0273828,-1.11435
1470344804842567,-0.48186,-0.0294688,-1.10968
1470344804859581,-0.478647,-0.031734,-1.10502
1470344804881603,-0.475714,-0.0339047,-1.10084
1470344804903172,-0.473656,-0.0361716,-1.0968
1470344804919175,-0.472954,-0.0381006,-1.09349
1470344804942196,-0.472828,-0.0389851,-1.09091
1470344804963264,-0.472903,-0.0394428,-1.08904
1470344804979279,-0.473037,-0.0389834,-1.08797
1470344805001820,-0.473574,-0.0371905,-1.08831
1470344805023356,-0.474425,-0.034846,-1.08969
1470344805039365,-0.475325,-0.0321674,-1.09206
1470344805061378,-0.47627,-0.0290659,-1.09498
1470344805082397,-0.476992,-0.0259464,-1.09831
1470344805099420,-0.477844,-0.0228922,-1.10166
1470344805127549,-0.47872,-0.0203079,-1.10506
1470344805142563,-0.47935,-0.0173986,-1.10835
1470344805159524,-0.480087,-0.014714,-1.11118
1470344805181542,-0.480346,-0.012333,-1.11401
1470344805203125,-0.480397,-0.0104386,-1.1164
1470344805219665,-0.481494,-0.00862256,-1.11818
1470344805241739,-0.483307,-0.00728527,-1.11969
1470344805264705,-0.484547,-0.00615511,-1.12029
1470344805279719,-0.485815,-0.00530672,-1.12025
1470344805301748,-0.486614,-0.00497373,-1.11926
1470344805324773,-0.486326,-0.00528076,-1.11766
1470344805338784,-0.485767,-0.00592134,-1.11462
1470344805361805,-0.484618,-0.00710012,-1.11089
1470344805383838,-0.483131,-0.00845004,-1.10752
1470344805405848,-0.483492,-0.0100481,-1.10466
1470344805421878,-0.486364,-0.0122345,-1.10218
1470344805443926,-0.490182,-0.0149713,-1.1003
1470344805466918,-0.493305,-0.0180823,-1.09926
1470344805481931,-0.495916,-0.0211099,-1.09844
1470344805504455,-0.49859,-0.0235675,-1.09763
1470344805518973,-0.500876,-0.0260998,-1.09749
1470344805541993,-0.503314,-0.0286489,-1.09749
1470344805572020,-0.505356,-0.0308799,-1.09739
1470344805578058,-0.507042,-0.0321395,-1.097
1470344805602102,-0.508308,-0.0327231,-1.09689
1470344805624157,-0.508949,-0.0332618,-1.09744
1470344805638253,-0.509739,-0.0334473,-1.09855
1470344805661232,-0.511065,-0.0333119,-1.09997
1470344805684215,-0.512311,-0.0326319,-1.10165
1470344805698727,-0.513879,-0.0316461,-1.10316
1470344805721250,-0.515266,-0.0307007,-1.10464
1470344805744272,-0.515964,-0.0293026,-1.10658
1470344805765292,-0.515886,-0.0273729,-1.10901
1470344805781319,-0.515957,-0.0250648,-1.11185
1470344805804329,-0.516955,-0.0225167,-1.11489
1470344805825352,-0.518469,-0.0202091,-1.11826
1470344805841366,-0.519149,-0.0176626,-1.122
1470344805864387,-0.519956,-0.0154989,-1.12599
1470344805885407,-0.521244,-0.0139657,-1.12988
1470344805901927,-0.522844,-0.012352,-1.13341
1470344805924466,-0.524184,-0.0105856,-1.13651
1470344805945485,-0.524889,-0.00838075,-1.13947
1470344805961498,-0.524573,-0.00656267,-1.1423
1470344805984519,-0.523798,-0.00450976,-1.14498
1470344806005603,-0.524468,-0.0025159,-1.14757
1470344806021736,-0.525659,-0.000725582,-1.15037
1470344806044642,-0.526839,0.000418633,-1.15285
1470344806065752,-0.527693,0.00144298,-1.15478
1470344806081675,-0.52794,0.0020814,-1.15636
1470344806104701,-0.527478,0.00264424,-1.15764
1470344806125756,-0.526523,0.00295963,-1.15876
1470344806141820,-0.525391,0.00328595,-1.1597
1470344806164790,-0.524897,0.00370357,-1.16048
1470344806185808,-0.524897,0.00370357,-1.16048
1470344806201832,-0.524913,0.0036772,-1.16064
1470344806223902,-0.524913,0.0036772,-1.16064
1470344806246924,-0.524913,0.0036772,-1.16064
1470344806261938,-0.524276,0.00370107,-1.16038
1470344806283970,-0.523225,0.0035054,-1.16029
1470344806306998,-0.522739,0.00330113,-1.16
1470344806321095,-0.522735,0.00294598,-1.15959
1470344806344076,-0.522796,0.00201982,-1.15907
1470344806367096,-0.52216,0.00126253,-1.15829
1470344806381109,-0.521783,0.000637785,-1.15761
1470344806404637,-0.521866,-3.72529e-07,-1.157
1470344806427167,-0.521799,-0.000410825,-1.15643
1470344806441176,-0.521799,-0.000410825,-1.15643
1470344806464199,-0.521799,-0.000410825,-1.15643
1470344806487217,-0.521889,-0.000378922,-1.15599
1470344806501247,-0.522148,-0.000132218,-1.15566
1470344806524041,-0.522488,-1.06692e-05,-1.15544
1470344806547061,-0.522415,-0.000109449,-1.1554
1470344806561088,-0.522415,-0.000109449,-1.1554
1470344806584094,-0.523183,0.000206202,-1.15516
1470344806607207,-0.52445,0.000346094,-1.15497
1470344806628233,-0.525565,0.000713706,-1.15481
1470344806644248,-0.526198,0.00123079,-1.15477
1470344806666358,-0.526108,0.00205241,-1.15466
1470344806681280,-0.526404,0.00291649,-1.15481
1470344806704308,-0.527033,0.00370453,-1.15466
1470344806726348,-0.527909,0.00438158,-1.15456
1470344806748367,-0.528906,0.00503877,-1.15433
1470344806764377,-0.530248,0.00535532,-1.15313
1470344806792492,-0.532239,0.00628064,-1.15163
1470344806807977,-0.533417,0.00747744,-1.15051
1470344806825181,-0.533439,0.00835107,-1.15
1470344806847201,-0.533444,0.00928943,-1.14997
1470344806868233,-0.534507,0.00996628,-1.14928
1470344806884256,-0.536304,0.0096097,-1.14801
1470344806906796,-0.536253,0.00987868,-1.14673
1470344806927454,-0.536506,0.0106334,-1.14547
1470344806944407,-0.536269,0.0107504,-1.14457
1470344806966426,-0.535405,0.0111306,-1.14345
1470344806987489,-0.534759,0.0118073,-1.14247
1470344807004556,-0.534759,0.0125092,-1.14162
1470344807026771,-0.534889,0.0128506,-1.14113
1470344807047787,-0.53441,0.0126882,-1.14071
1470344807071809,-0.534263,0.012606,-1.14021
1470344807086822,-0.535158,0.0121331,-1.13934
1470344807108433,-0.535674,0.0115443,-1.13851
1470344807124057,-0.535769,0.0109561,-1.13777
1470344807147032,-0.535598,0.0106571,-1.13706
1470344807169073,-0.53496,0.0107911,-1.13638
1470344807184084,-0.534612,0.010853,-1.13588
1470344807207158,-0.534605,0.0104555,-1.13561
1470344807229661,-0.534605,0.0104555,-1.13561
1470344807244673,-0.535001,0.00992303,-1.13554
1470344807266694,-0.535292,0.00949854,-1.13532
1470344807289715,-0.535292,0.00949854,-1.13532
1470344807303737,-0.534702,0.00928159,-1.13531
1470344807326763,-0.534702,0.00928159,-1.13531
1470344807348811,-0.534702,0.00928159,-1.13531
1470344807363808,-0.534702,0.00928159,-1.13531
1470344807386818,-0.534589,0.00934476,-1.1353
1470344807409386,-0.534855,0.00905589,-1.13528
1470344807423903,-0.534855,0.00905589,-1.13528
1470344807446923,-0.534855,0.00905589,-1.13528
1470344807468944,-0.534855,0.00905589,-1.13528
1470344807483957,-0.534855,0.00905589,-1.13528
1470344807512989,-0.53488,0.00880396,-1.1355
1470344807529008,-0.53488,0.00880396,-1.1355
1470344807544022,-0.53488,0.00880396,-1.1355
1470344807574048,-0.53488,0.00880396,-1.1355
1470344807589062,-0.53488,0.00880396,-1.1355
1470344807604107,-0.535349,0.00837088,-1.13547
1470344807627163,-0.535349,0.00837088,-1.13547
1470344807649187,-0.535349,0.00837088,-1.13547
1470344807670258,-0.535349,0.00837088,-1.13547
1470344807687217,-0.535421,0.00835378,-1.13593
1470344807709742,-0.535726,0.00825492,-1.13627
1470344807730267,-0.535726,0.00825492,-1.13627
1470344807747282,-0.535654,0.00815562,-1.13623
1470344807769303,-0.535654,0.00815562,-1.13623
1470344807790322,-0.535654,0.00815562,-1.13623
1470344807806839,-0.535469,0.00811954,-1.13618
1470344807829364,-0.535581,0.00805631,-1.13619
1470344807850384,-0.535581,0.00805631,-1.13619
1470344807866401,-0.535581,0.00805631,-1.13619
1470344807889421,-0.535581,0.00805631,-1.13619
1470344807910469,-0.535581,0.00805631,-1.13619
1470344807926489,-0.535581,0.00805631,-1.13619
1470344807949509,-0.535558,0.00803853,-1.13616
1470344807970561,-0.535486,0.00793924,-1.13612
1470344807986631,-0.535486,0.00793924,-1.13612
1470344808017109,-0.535486,0.00793924,-1.13612
1470344808030527,-0.535509,0.00795701,-1.13614
1470344808046489,-0.535509,0.00795701,-1.13614
1470344808069510,-0.535486,0.00793924,-1.13612
1470344808091529,-0.535486,0.00793924,-1.13612
1470344808107076,-0.535486,0.00793924,-1.13612
1470344808129609,-0.535526,0.00777671,-1.13608
1470344808151626,-0.535541,0.00774972,-1.13624
1470344808166700,-0.535541,0.00774972,-1.13624
1470344808189661,-0.535541,0.00774972,-1.13624
1470344808212245,-0.535356,0.00771366,-1.13619
1470344808225816,-0.535356,0.00771366,-1.13619
1470344808248836,-0.535469,0.00765042,-1.13619
1470344808271858,-0.535048,0.00784948,-1.13648
1470344808285897,-0.534935,0.00791272,-1.13647
1470344808309406,-0.534935,0.00791272,-1.13647
1470344808331972,-0.534862,0.00781343,-1.13643
1470344808345984,-0.534862,0.00781343,-1.13643
1470344808369005,-0.534862,0.00781343,-1.13643
1470344808392026,-0.53474,0.00751628,-1.13678
1470344808406569,-0.53474,0.00751628,-1.13678
1470344808429717,-0.53474,0.00751628,-1.13678
1470344808451737,-0.534667,0.00741699,-1.13674
1470344808465759,-0.534667,0.00741699,-1.13674
1470344808488770,-0.534667,0.00741699,-1.13674
1470344808511796,-0.534667,0.00741699,-1.13674
1470344808526312,-0.534667,0.00741699,-1.13674
1470344808549332,-0.534667,0.00741699,-1.13674
1470344808571352,-0.534595,0.0073177,-1.13669
1470344808586369,-0.53461,0.00729076,-1.13685
1470344808609455,-0.534214,0.00735439,-1.13694
1470344808632050,-0.533511,0.00720117,-1.13692
1470344808653067,-0.533584,0.00730046,-1.13697
1470344808669085,-0.533584,0.00730046,-1.13697
1470344808692103,-0.533308,0.0067604,-1.13737
1470344808713128,-0.533001,0.0064276,-1.13767
1470344808729219,-0.53291,0.00592365,-1.13812
1470344808752239,-0.532935,0.00567201,-1.13835
1470344808773259,-0.533532,0.00534759,-1.13866
1470344808789273,-0.533717,0.00479831,-1.13914
1470344808811805,-0.533586,0.00445692,-1.13963
1470344808832862,-0.533496,0.00453797,-1.13965
1470344808848847,-0.533424,0.00443879,-1.13961
1470344808871869,-0.533424,0.00443879,-1.13961
1470344808892919,-0.533924,0.00426653,-1.13965
1470344808909473,-0.534329,0.0039775,-1.13963
1470344808932054,-0.534329,0.0039775,-1.13963
1470344808953107,-0.534144,0.0039418,-1.13958
1470344808969087,-0.534144,0.0039418,-1.13958
1470344808992114,-0.534167,0.00395937,-1.13961
1470344809013214,-0.534167,0.00395937,-1.13961
1470344809029167,-0.534167,0.00395937,-1.13961
1470344809052186,-0.534167,0.00395937,-1.13961
1470344809074236,-0.534167,0.00395937,-1.13961
1470344809089275,-0.534167,0.00395937,-1.13961
1470344809112324,-0.53411,0.0038332,-1.13972
1470344809134391,-0.534199,0.00375215,-1.1397
1470344809149445,-0.534014,0.00371646,-1.13965
1470344809171424,-0.534037,0.00373403,-1.13968
1470344809194444,-0.534037,0.00373403,-1.13968
1470344809209013,-0.533528,0.00386176,-1.13976
1470344809232071,-0.533528,0.00386176,-1.13976
1470344809254080,-0.533293,0.00409749,-1.14009
1470344809269093,-0.533333,0.00393481,-1.14006
1470344809292134,-0.533333,0.00393481,-1.14006
1470344809314276,-0.533333,0.00393481,-1.14006
1470344809328780,-0.53326,0.00383563,-1.14002
1470344809351823,-0.53326,0.00383563,-1.14002
1470344809373826,-0.53326,0.00383563,-1.14002
1470344809388832,-0.533148,0.00389912,-1.14001
1470344809412359,-0.533148,0.00389912,-1.14001
1470344809433886,-0.533148,0.00389912,-1.14001
1470344809448899,-0.533237,0.00381809,-1.13999
1470344809471920,-0.533188,0.00373646,-1.13997
1470344809493939,-0.533203,0.0037095,-1.14013
1470344809516979,-0.533625,0.00370922,-1.14003
1470344809532035,-0.533447,0.00407107,-1.14025
1470344809554052,-0.533099,0.00483941,-1.14056
1470344809575100,-0.533099,0.00483941,-1.14056
1470344809592088,-0.533099,0.00483941,-1.14056
1470344809614672,-0.532518,0.00498404,-1.14018
1470344809635292,-0.532268,0.00469373,-1.13978
1470344809652252,-0.531751,0.00422388,-1.13941
1470344809674272,-0.531841,0.00414289,-1.13939
1470344809703329,-0.531841,0.00414289,-1.13939
1470344809712312,-0.531768,0.00404368,-1.13935
1470344809741934,-0.531768,0.00404368,-1.13935
1470344809755002,-0.532259,0.00418029,-1.13992
1470344809772002,-0.532678,0.00421749,-1.14046
1470344809793981,-0.533388,0.00429798,-1.14076
1470344809815526,-0.534026,0.00427916,-1.14103
1470344809822583,-0.534674,0.00415155,-1.14094
1470344809837579,-0.53536,0.00401453,-1.14104
1470344809867604,-0.535733,0.00393252,-1.14092
1470344809882619,-0.536186,0.00399436,-1.14072
1470344809905147,-0.536186,0.00399436,-1.14072
1470344809920160,-0.536186,0.00399436,-1.14072
1470344809942686,-0.536074,0.00417442,-1.14029
1470344809959700,-0.536074,0.00417442,-1.14029
1470344809979757,-0.535775,0.00400288,-1.14005
1470344810001794,-0.535719,0.00352407,-1.13976
1470344810017337,-0.536051,0.00293646,-1.13951
1470344810039412,-0.536051,0.00293646,-1.13951
1470344810062434,-0.536051,0.00293646,-1.13951
1470344810077392,-0.53643,0.00278288,-1.13968
1470344810099457,-0.53643,0.00278288,-1.13968
1470344810122035,-0.53643,0.00278288,-1.13968
1470344810137034,-0.53643,0.00278288,-1.13968
1470344810160051,-0.536915,0.00299009,-1.13997
1470344810185074,-0.538209,0.00288867,-1.14002
1470344810197084,-0.539092,0.0026795,-1.13982
1470344810220112,-0.538972,0.00261616,-1.13934
1470344810242789,-0.539071,0.0026972,-1.13877
1470344810257786,-0.538998,0.00259808,-1.13873
1470344810279765,-0.538958,0.00276061,-1.13877
1470344810301774,-0.538981,0.00277827,-1.13879
1470344810317350,-0.539218,0.00254354,-1.13846
1470344810339853,-0.539082,0.00192115,-1.13826
1470344810361902,-0.538606,0.00128968,-1.13785
1470344810376938,-0.538372,0.0011723,-1.13778
1470344810399949,-0.538865,0.000955507,-1.13796
1470344810421935,-0.539883,0.000314161,-1.1384
1470344810436955,-0.540245,-0.000245959,-1.13907
1470344810466995,-0.539612,-0.000416577,-1.13951
1470344810482009,-0.539228,-0.000497222,-1.14017
1470344810497020,-0.539429,-0.000759021,-1.14058
1470344810520079,-0.539429,-0.000759021,-1.14058
1470344810542151,-0.538863,-0.000640556,-1.14036
1470344810557137,-0.538319,-0.000621736,-1.14058
1470344810580160,-0.538319,-0.000621736,-1.14058
1470344810602195,-0.538319,-0.000621736,-1.14058
1470344810618808,-0.538319,-0.000621736,-1.14058
1470344810642997,-0.538319,-0.000621736,-1.14058
1470344810662003,-0.538432,-0.000685275,-1.14059
1470344810679988,-0.538432,-0.000685275,-1.14059
1470344810700006,-0.538319,-0.000621736,-1.14058
1470344810722533,-0.538319,-0.000621736,-1.14058
1470344810738574,-0.538247,-0.000720784,-1.14054
1470344810759600,-0.538134,-0.000657246,-1.14053
1470344810789599,-0.538206,-0.000558197,-1.14058
1470344810800609,-0.538134,-0.000657246,-1.14053
1470344810820170,-0.538134,-0.000657246,-1.14053
1470344810842729,-0.538134,-0.000657246,-1.14053
1470344810858732,-0.538061,-0.000756294,-1.14049
1470344810879845,-0.537948,-0.000692755,-1.14048
1470344810902789,-0.537948,-0.000692755,-1.14048
1470344810918822,-0.537948,-0.000692755,-1.14048
1470344810939954,-0.537963,-0.000720084,-1.14064
1470344810961964,-0.537963,-0.000720084,-1.14064
1470344810979945,-0.537963,-0.000720084,-1.14064
1470344810999963,-0.537891,-0.000819132,-1.1406
1470344811022489,-0.537891,-0.000819132,-1.1406
1470344811040571,-0.538004,-0.00088267,-1.1406
