timestamp,x,y,z,w
1470244333289561,-0.116821,0.168457,-0.886902,0.41394
1470244333310581,-0.116821,0.168457,-0.886902,0.41394
1470244333327095,-0.116821,0.168457,-0.886902,0.414001
1470244333349616,-0.11676,0.16864,-0.886902,0.414001
1470244333370635,-0.11676,0.16864,-0.886841,0.414001
1470244333387150,-0.11676,0.168701,-0.886841,0.414001
1470244333409669,-0.11676,0.16864,-0.886841,0.414001
1470244333430689,-0.11676,0.16864,-0.886902,0.414001
1470244333447203,-0.11676,0.16864,-0.886902,0.414001
1470244333469724,-0.11676,0.16864,-0.886902,0.414001
1470244333492243,-0.11676,0.16864,-0.886902,0.414001
1470244333507257,-0.11676,0.16864,-0.886902,0.414001
1470244333529777,-0.116699,0.16864,-0.886841,0.414001
1470244333552297,-0.11676,0.168701,-0.886841,0.414001
1470244333567311,-0.11676,0.168701,-0.886841,0.414001
1470244333595838,-0.11676,0.168701,-0.886841,0.414001
1470244333612351,-0.11676,0.168701,-0.886841,0.414001
1470244333626864,-0.11676,0.168701,-0.886841,0.414001
1470244333649885,-0.11676,0.16864,-0.886841,0.414001
1470244333672405,-0.11676,0.16864,-0.886902,0.414001
1470244333687419,-0.11676,0.16864,-0.886902,0.414001
1470244333709439,-0.116699,0.16864,-0.886902,0.414001
1470244333732460,-0.116699,0.16864,-0.886902,0.414001
1470244333746973,-0.116699,0.16864,-0.886902,0.414001
1470244333769993,-0.116699,0.16864,-0.886902,0.414001
1470244333792514,-0.116699,0.16864,-0.886902,0.414001
1470244333806525,-0.116699,0.16864,-0.886902,0.414001
1470244333829546,-0.116699,0.16864,-0.886902,0.414001
1470244333852567,-0.116699,0.16864,-0.886902,0.414001
1470244333866580,-0.116699,0.16864,-0.886902,0.414001
1470244333889601,-0.116699,0.16864,-0.886902,0.414001
1470244333912120,-0.116699,0.16864,-0.886902,0.414001
1470244333926633,-0.116699,0.168701,-0.886841,0.414001
1470244333949654,-0.116699,0.16864,-0.886841,0.414001
1470244333972175,-0.116699,0.168701,-0.886841,0.414001
1470244333993193,-0.116699,0.168701,-0.886841,0.414001
1470244334009708,-0.116638,0.16864,-0.886902,0.414063
1470244334032229,-0.116638,0.168701,-0.886841,0.414063
1470244334053748,-0.116638,0.168701,-0.886841,0.414063
1470244334069763,-0.116638,0.168701,-0.886841,0.414063
1470244334092282,-0.116638,0.168701,-0.886841,0.414063
1470244334113302,-0.116638,0.168701,-0.886841,0.414063
1470244334129817,-0.116638,0.168701,-0.886841,0.414063
1470244334152337,-0.116638,0.168701,-0.886841,0.414063
1470244334173354,-0.116638,0.168701,-0.886841,0.414063
1470244334189870,-0.116638,0.168701,-0.886902,0.414063
1470244334212390,-0.116638,0.168701,-0.886841,0.414063
1470244334233409,-0.116638,0.168701,-0.886841,0.414063
1470244334249924,-0.116638,0.168701,-0.886841,0.414063
1470244334272444,-0.116638,0.168701,-0.886841,0.414063
1470244334293462,-0.116638,0.168701,-0.886841,0.414063
1470244334309977,-0.116638,0.168701,-0.886841,0.414063
1470244334332497,-0.116638,0.168701,-0.886841,0.414063
1470244334353516,-0.116638,0.168762,-0.886841,0.414063
1470244334369532,-0.116577,0.168762,-0.886841,0.414063
1470244334392552,-0.116577,0.168762,-0.886841,0.414063
1470244334422078,-0.116577,0.168762,-0.886841,0.414063
1470244334429585,-0.116577,0.168762,-0.886841,0.414063
1470244334452105,-0.116577,0.168762,-0.886841,0.414063
1470244334474626,-0.116577,0.168762,-0.886841,0.414063
1470244334489639,-0.116577,0.168762,-0.886841,0.414063
1470244334512159,-0.116577,0.168762,-0.886841,0.414063
1470244334534680,-0.116577,0.168762,-0.886841,0.414063
1470244334549694,-0.116577,0.168762,-0.886841,0.414063
1470244334572214,-0.116577,0.168762,-0.886841,0.414063
1470244334594733,-0.116577,0.168762,-0.886841,0.414063
1470244334609247,-0.116577,0.168762,-0.886841,0.414063
1470244334632267,-0.116577,0.168762,-0.886841,0.414063
1470244334654787,-0.116577,0.168762,-0.886841,0.414063
1470244334677308,-0.116516,0.168762,-0.886841,0.414063
1470244334692321,-0.116577,0.168762,-0.886841,0.414063
1470244334714842,-0.116577,0.168762,-0.886841,0.414063
1470244334728854,-0.116577,0.168823,-0.886841,0.414063
1470244334752375,-0.116577,0.168823,-0.886841,0.414063
1470244334774896,-0.116577,0.168823,-0.886841,0.414063
1470244334789408,-0.116577,0.168823,-0.886841,0.414063
1470244334812428,-0.116577,0.168823,-0.886841,0.414063
1470244334834952,-0.116577,0.168823,-0.886841,0.414063
1470244334848962,-0.116516,0.168823,-0.886841,0.414063
1470244334872484,-0.116516,0.168823,-0.886841,0.414063
1470244334895003,-0.116516,0.168823,-0.886841,0.414063
1470244334916021,-0.116577,0.168823,-0.886841,0.414063
1470244334932537,-0.116577,0.168884,-0.886841,0.414063
1470244334954556,-0.116577,0.168884,-0.886841,0.414063
1470244334975575,-0.116638,0.169006,-0.886841,0.414001
1470244334992090,-0.116638,0.169067,-0.886841,0.414001
1470244335014610,-0.116638,0.169067,-0.88678,0.414001
1470244335035629,-0.116638,0.169006,-0.886841,0.414001
1470244335052144,-0.116638,0.169006,-0.886841,0.414001
1470244335074667,-0.116638,0.169067,-0.88678,0.414001
1470244335095684,-0.116638,0.169067,-0.88678,0.414001
1470244335112198,-0.116455,0.168823,-0.886841,0.414124
1470244335134720,-0.116455,0.168823,-0.886841,0.414124
1470244335155737,-0.116455,0.168518,-0.88678,0.414368
1470244335172251,-0.116577,0.168091,-0.886719,0.414612
1470244335194772,-0.116699,0.16748,-0.886658,0.414978
1470244335215791,-0.11676,0.166931,-0.886597,0.415283
1470244335232806,-0.116821,0.166321,-0.886536,0.415649
1470244335254826,-0.117004,0.165894,-0.886353,0.416077
1470244335260330,-0.117249,0.165588,-0.88623,0.416504
1470244335282850,-0.117371,0.165222,-0.886169,0.416809
1470244335297864,-0.117432,0.164917,-0.886047,0.416992
1470244335320384,-0.117615,0.164795,-0.885986,0.417175
1470244335342905,-0.117615,0.164612,-0.885986,0.417358
1470244335357919,-0.117615,0.164612,-0.885986,0.417358
1470244335380439,-0.117615,0.164612,-0.885986,0.417358
1470244335402459,-0.117676,0.164612,-0.885986,0.417297
1470244335417472,-0.117676,0.164612,-0.885986,0.417297
1470244335439992,-0.117615,0.164612,-0.885925,0.417358
1470244335462514,-0.118042,0.164917,-0.885864,0.417297
1470244335477527,-0.118713,0.165466,-0.885681,0.417297
1470244335507552,-0.119751,0.166077,-0.885437,0.417297
1470244335522566,-0.121094,0.166809,-0.885132,0.417236
1470244335537581,-0.122192,0.167297,-0.884888,0.417175
1470244335560102,-0.122803,0.167542,-0.884766,0.417175
1470244335582623,-0.12323,0.167664,-0.884705,0.417175
1470244335597633,-0.123657,0.167969,-0.884644,0.417114
1470244335623658,-0.124023,0.168335,-0.884583,0.416931
1470244335642704,-0.124451,0.168518,-0.884521,0.41687
1470244335657715,-0.124634,0.168579,-0.88446,0.416931
1470244335680225,-0.124634,0.168274,-0.88446,0.417053
1470244335702755,-0.124817,0.167847,-0.884399,0.417297
1470244335717743,-0.125366,0.167358,-0.884216,0.417725
1470244335740280,-0.126526,0.166199,-0.883972,0.418335
1470244335762874,-0.12738,0.163696,-0.883728,0.419495
1470244335785301,-0.127686,0.160095,-0.883362,0.42157
1470244335800315,-0.128113,0.154663,-0.883057,0.424133
1470244335822836,-0.130249,0.148682,-0.882751,0.426208
1470244335839350,-0.133789,0.143677,-0.88208,0.428284
1470244335860369,-0.137634,0.140015,-0.88147,0.429504
1470244335882890,-0.141052,0.136658,-0.881531,0.429321
1470244335898905,-0.141296,0.128052,-0.885071,0.424683
1470244335920423,-0.134277,0.113586,-0.891235,0.41803
1470244335943945,-0.122803,0.09552,-0.899597,0.408142
1470244335958960,-0.112488,0.0791626,-0.908508,0.394592
1470244335980478,-0.105591,0.0714111,-0.917358,0.377136
1470244336003023,-0.100586,0.0646362,-0.926941,0.355652
1470244336019514,-0.0942993,0.0532837,-0.937805,0.329834
1470244336040031,-0.0872803,0.0362549,-0.949463,0.299438
1470244336062553,-0.0823364,0.0168457,-0.960815,0.26416
1470244336079067,-0.0817261,-0.000183105,-0.971008,0.224792
1470244336100597,-0.0858765,-0.0103149,-0.979248,0.183289
1470244336122623,-0.0934448,-0.0140991,-0.985413,0.141785
1470244336139120,-0.102234,-0.0159912,-0.989685,0.0996704
1470244336160194,-0.110901,-0.0199585,-0.992004,0.0578613
1470244336182714,-0.119507,-0.026123,-0.992371,0.0178223
1470244336199174,-0.128784,-0.0280151,-0.99115,-0.0178833
1470244336220195,-0.137756,-0.0233765,-0.989014,-0.0489502
1470244336250721,-0.145325,-0.0153809,-0.986328,-0.0765381
1470244336259228,-0.151245,-0.00921631,-0.983398,-0.100098
1470244336287774,-0.155273,-0.00671387,-0.980835,-0.117676
1470244336302834,-0.157715,-0.000915527,-0.979065,-0.129028
1470244336320783,-0.157349,0.00756836,-0.978088,-0.13623
1470244336340349,-0.15509,0.0166016,-0.977844,-0.139771
1470244336370328,-0.152344,0.0227661,-0.978149,-0.139771
1470244336380839,-0.149719,0.0270386,-0.978943,-0.136414
1470244336400371,-0.147278,0.0303345,-0.980042,-0.13031
1470244336422874,-0.144714,0.0335693,-0.981384,-0.122192
1470244336453936,-0.141907,0.0370483,-0.982788,-0.112427
1470244336460408,-0.139038,0.039856,-0.984375,-0.100647
1470244336482960,-0.135803,0.041626,-0.986084,-0.0866089
1470244336501025,-0.132263,0.0438843,-0.987793,-0.0703125
1470244336520462,-0.128296,0.0466919,-0.989319,-0.052002
1470244336542515,-0.124023,0.0510864,-0.990479,-0.0313721
1470244336566506,-0.119141,0.0563965,-0.991272,-0.00762939
1470244336580574,-0.113831,0.0609131,-0.991455,0.0200195
1470244336603060,-0.108276,0.0621338,-0.990906,0.0509033
1470244336622053,-0.103088,0.0600586,-0.989197,0.0855713
1470244336640113,-0.0974731,0.0567017,-0.985779,0.124939
1470244336662634,-0.0927734,0.0551147,-0.980103,0.166748
1470244336680606,-0.0911255,0.0559082,-0.971924,0.209839
1470244336700179,-0.0924072,0.0578613,-0.961182,0.25354
1470244336731652,-0.0942383,0.0584717,-0.94812,0.297974
1470244336745207,-0.0975952,0.057251,-0.931824,0.34491
1470244336760226,-0.105774,0.0582275,-0.912476,0.39093
1470244336782699,-0.118164,0.0649414,-0.891235,0.433044
1470244336800731,-0.133484,0.074707,-0.868347,0.471802
1470244336821733,-0.154358,0.0819702,-0.843445,0.508057
1470244336842777,-0.172485,0.0852661,-0.81781,0.542419
1470244336860768,-0.183655,0.0866089,-0.791992,0.575745
1470244336880369,-0.196655,0.088562,-0.765198,0.606628
1470244336902842,-0.216492,0.0917358,-0.741272,0.628723
1470244336928378,-0.229126,0.0935059,-0.724854,0.642944
1470244336941840,-0.231445,0.0905151,-0.710388,0.658508
1470244336962859,-0.237244,0.0916138,-0.696167,0.671326
1470244336980876,-0.243347,0.0941772,-0.686462,0.678711
1470244337001396,-0.245239,0.0943604,-0.679565,0.684937
1470244337022914,-0.247803,0.0964355,-0.675415,0.687866
1470244337041079,-0.25061,0.100403,-0.673462,0.688171
1470244337061450,-0.250549,0.10321,-0.673889,0.687378
1470244337086028,-0.249817,0.105225,-0.67572,0.685486
1470244337101086,-0.249573,0.106628,-0.677429,0.683716
1470244337123003,-0.249573,0.107971,-0.678467,0.682434
1470244337143021,-0.249817,0.109192,-0.678772,0.681885
1470244337160537,-0.24939,0.109619,-0.678589,0.682129
1470244337181556,-0.248901,0.109131,-0.678223,0.682739
1470244337202592,-0.248291,0.108154,-0.677673,0.683716
1470244337220591,-0.248047,0.1073,-0.676941,0.684631
1470244337241612,-0.247986,0.106445,-0.676147,0.685547
1470244337262645,-0.247498,0.105591,-0.675476,0.686523
1470244337280646,-0.246887,0.10498,-0.675049,0.687317
1470244337303219,-0.246765,0.104614,-0.674805,0.687622
1470244337322700,-0.246826,0.104614,-0.674561,0.687866
1470244337340699,-0.247437,0.104858,-0.674133,0.687988
1470244337363219,-0.24823,0.105408,-0.673645,0.68811
1470244337382752,-0.249023,0.106018,-0.673279,0.68811
1470244337400754,-0.249573,0.106628,-0.673035,0.688049
1470244337423273,-0.249634,0.107117,-0.672791,0.688171
1470244337442801,-0.249878,0.107666,-0.672546,0.688232
1470244337460806,-0.250244,0.108582,-0.672363,0.688171
1470244337483355,-0.250488,0.109558,-0.672119,0.68811
1470244337502844,-0.251099,0.110474,-0.671692,0.688171
1470244337520860,-0.252563,0.111633,-0.671143,0.687988
1470244337543380,-0.253906,0.112976,-0.670471,0.687927
1470244337565401,-0.256104,0.114807,-0.669495,0.687744
1470244337580915,-0.259033,0.117554,-0.667664,0.687988
1470244337603506,-0.262573,0.121277,-0.663635,0.68988
1470244337622952,-0.268799,0.125305,-0.656311,0.693726
1470244337641056,-0.276367,0.128479,-0.644531,0.701233
1470244337663616,-0.285767,0.129822,-0.62738,0.712646
1470244337682507,-0.297241,0.128296,-0.605469,0.727051
1470244337700522,-0.309631,0.123962,-0.579041,0.743958
1470244337723042,-0.321899,0.116638,-0.549561,0.762085
1470244337742576,-0.333862,0.107239,-0.518372,0.779968
1470244337760576,-0.345825,0.0974121,-0.486755,0.796204
1470244337782596,-0.357361,0.0869751,-0.456848,0.809937
1470244337803614,-0.367065,0.0761108,-0.430298,0.821167
1470244337820131,-0.375977,0.0662842,-0.408325,0.829163
1470244337842150,-0.382324,0.0556641,-0.391357,0.835205
1470244337863245,-0.387329,0.045166,-0.378296,0.839539
1470244337879682,-0.393188,0.036377,-0.368652,0.841492
1470244337902203,-0.399231,0.0290527,-0.362305,0.841736
1470244337923224,-0.403442,0.0235596,-0.359009,0.841309
1470244337939737,-0.405823,0.0197144,-0.358582,0.840454
1470244337962257,-0.406677,0.0170898,-0.360779,0.839172
1470244337983777,-0.406738,0.0155029,-0.364868,0.837402
1470244338007298,-0.405945,0.0150146,-0.370605,0.835266
1470244338022313,-0.405273,0.0155029,-0.377747,0.832397
1470244338043348,-0.405212,0.0167236,-0.386169,0.828491
1470244338059344,-0.405273,0.0188599,-0.395447,0.824036
1470244338082865,-0.405701,0.0217896,-0.406128,0.818542
1470244338104885,-0.405334,0.0264893,-0.417603,0.812744
1470244338118916,-0.403992,0.0325317,-0.429688,0.806946
1470244338142420,-0.401489,0.0394287,-0.443237,0.800537
1470244338163479,-0.398071,0.0478516,-0.458496,0.793091
1470244338178951,-0.393372,0.0570679,-0.475464,0.78479
1470244338202473,-0.388,0.0679321,-0.492249,0.776245
1470244338224992,-0.382141,0.0795288,-0.508545,0.767517
1470244338239005,-0.374573,0.0907593,-0.525085,0.758789
1470244338262027,-0.365601,0.101379,-0.541992,0.749878
1470244338285048,-0.357239,0.111877,-0.55957,0.739441
1470244338299061,-0.349243,0.121948,-0.578186,0.727234
1470244338322081,-0.340881,0.131104,-0.596741,0.714478
1470244338344619,-0.332214,0.138794,-0.614685,0.701782
1470244338366119,-0.322998,0.14563,-0.63092,0.690247
1470244338382133,-0.314209,0.151001,-0.645569,0.679504
1470244338404654,-0.307495,0.155029,-0.659119,0.668579
1470244338426182,-0.30188,0.15741,-0.671692,0.65802
1470244338442188,-0.296387,0.15802,-0.682495,0.64917
1470244338472215,-0.291382,0.156982,-0.69165,0.641907
1470244338486260,-0.287415,0.154785,-0.698975,0.636292
1470244338509749,-0.284485,0.152588,-0.704407,0.632141
1470244338524762,-0.281311,0.149536,-0.708374,0.629822
1470244338546315,-0.277954,0.146057,-0.711304,0.628906
1470244338562295,-0.274048,0.142883,-0.713379,0.628906
1470244338584818,-0.26947,0.139709,-0.715027,0.629761
1470244338606341,-0.264099,0.136169,-0.716675,0.63092
1470244338622350,-0.258789,0.132507,-0.718018,0.632385
1470244338644870,-0.254395,0.1297,-0.718689,0.633972
1470244338667390,-0.249817,0.127319,-0.719238,0.635681
1470244338682404,-0.244812,0.125,-0.719971,0.637268
1470244338704925,-0.239563,0.122864,-0.721008,0.638489
1470244338725942,-0.234863,0.12085,-0.722168,0.639282
1470244338755972,-0.231323,0.11908,-0.723389,0.639526
1470244338771984,-0.22876,0.117798,-0.724609,0.639343
1470244338795005,-0.226807,0.116882,-0.726074,0.63855
1470244338802012,-0.224915,0.115845,-0.727844,0.63739
1470244338840546,-0.223633,0.115112,-0.729675,0.635864
1470244338846056,-0.222717,0.113953,-0.731689,0.634094
1470244338868610,-0.2229,0.112976,-0.733704,0.631836
1470244338885089,-0.223389,0.112488,-0.735352,0.629883
1470244338913611,-0.223938,0.111694,-0.736572,0.628357
1470244338922119,-0.224243,0.110107,-0.737305,0.627686
1470244338944645,-0.224121,0.107971,-0.737793,0.627563
1470244338966158,-0.223877,0.105835,-0.738037,0.627686
1470244338982172,-0.223267,0.104248,-0.738159,0.628052
1470244339004701,-0.221741,0.102966,-0.73822,0.628723
1470244339025755,-0.219788,0.101501,-0.738342,0.629456
1470244339042253,-0.218323,0.100281,-0.738708,0.629761
1470244339064746,-0.217712,0.0999146,-0.739014,0.629639
1470244339085769,-0.21698,0.0996704,-0.739685,0.62915
1470244339102282,-0.215393,0.0991211,-0.740601,0.628723
1470244339124801,-0.213745,0.0985107,-0.741577,0.628174
1470244339146320,-0.212646,0.0985107,-0.742615,0.62738
1470244339162334,-0.21167,0.0986328,-0.743774,0.626282
1470244339184854,-0.210938,0.0986938,-0.744873,0.625244
1470244339207375,-0.210388,0.0985718,-0.746155,0.623962
1470244339222388,-0.209778,0.0986328,-0.747314,0.622742
1470244339244912,-0.209351,0.0986328,-0.748291,0.621704
1470244339274935,-0.209167,0.0986328,-0.749084,0.620789
1470244339282442,-0.209229,0.0986328,-0.749573,0.620178
1470244339304963,-0.209717,0.0986328,-0.749756,0.619751
1470244339326987,-0.210449,0.0984497,-0.749695,0.61969
1470244339341498,-0.210693,0.0980225,-0.749634,0.619751
1470244339365016,-0.210754,0.0974121,-0.749512,0.619934
1470244339387537,-0.21106,0.097168,-0.74939,0.619995
1470244339402052,-0.211792,0.097168,-0.74939,0.619812
1470244339424570,-0.212219,0.097168,-0.74939,0.619629
1470244339447134,-0.21228,0.0971069,-0.749329,0.61969
1470244339469613,-0.212585,0.0969238,-0.749268,0.619751
1470244339484673,-0.212769,0.0968018,-0.749146,0.619751
1470244339507144,-0.212769,0.0963745,-0.749146,0.619873
1470244339521657,-0.212646,0.0958862,-0.749146,0.619934
1470244339544716,-0.212708,0.0956421,-0.749146,0.619995
1470244339567200,-0.21283,0.0952148,-0.749146,0.620056
1470244339581719,-0.212769,0.0946655,-0.749084,0.620178
1470244339612253,-0.212708,0.0939941,-0.749084,0.620361
1470244339634759,-0.212646,0.0933838,-0.749023,0.620483
1470244339641767,-0.212646,0.0927124,-0.749023,0.620605
1470244339664786,-0.212952,0.0922852,-0.748962,0.620667
1470244339694813,-0.213196,0.0918579,-0.748901,0.620667
1470244339708326,-0.213135,0.0916748,-0.748901,0.620728
1470244339724839,-0.212769,0.0914917,-0.748901,0.620911
1470244339747896,-0.21228,0.0912476,-0.748901,0.621094
1470244339768381,-0.211853,0.0910034,-0.748962,0.621216
1470244339784893,-0.211487,0.0905762,-0.749084,0.621277
1470244339807414,-0.210876,0.0900269,-0.749146,0.62146
1470244339828527,-0.210083,0.0894165,-0.749146,0.621826
1470244339844952,-0.209351,0.0888062,-0.749023,0.622314
1470244339867468,-0.208374,0.0878906,-0.749023,0.622742
1470244339888565,-0.206848,0.0866699,-0.749207,0.62323
1470244339905002,-0.20459,0.0847168,-0.749512,0.62384
1470244339927021,-0.201965,0.0821533,-0.749878,0.624573
1470244339950041,-0.199097,0.0792236,-0.750183,0.625549
1470244339964055,-0.196167,0.0762939,-0.750244,0.62677
1470244339987075,-0.193115,0.0723877,-0.749939,0.62854
1470244340008594,-0.190247,0.0662842,-0.749207,0.63092
1470244340024116,-0.187195,0.0586548,-0.747925,0.634155
1470244340047629,-0.184387,0.0510254,-0.745911,0.638
1470244340068648,-0.181946,0.0438232,-0.743591,0.641907
1470244340091168,-0.179688,0.0365601,-0.74115,0.645813
1470244340107192,-0.177185,0.0289307,-0.738586,0.649841
1470244340130203,-0.175415,0.0217285,-0.735901,0.653625
1470244340144216,-0.174805,0.0157471,-0.733154,0.657043
1470244340167242,-0.174744,0.0105591,-0.730652,0.659973
1470244340189757,-0.174683,0.00537109,-0.728333,0.662598
1470244340204271,-0.174561,0,-0.725952,0.665222
1470244340227295,-0.174194,-0.00531006,-0.723755,0.667725
1470244340249813,-0.174133,-0.0098877,-0.721741,0.6698
1470244340270844,-0.174683,-0.0133057,-0.720032,0.671509
1470244340287845,-0.175232,-0.0162354,-0.718567,0.672791
1470244340309864,-0.175415,-0.0189819,-0.717224,0.674133
1470244340330939,-0.175598,-0.0213013,-0.716064,0.675293
1470244340347398,-0.175659,-0.0231323,-0.715149,0.676147
1470244340369918,-0.175659,-0.0244751,-0.714661,0.676636
1470244340384431,-0.175476,-0.0253906,-0.714539,0.676819
1470244340407452,-0.175354,-0.0256348,-0.714478,0.676819
1470244340429973,-0.175476,-0.0255127,-0.7146,0.676697
1470244340443986,-0.175476,-0.0250854,-0.714844,0.676453
1470244340467006,-0.175232,-0.0245361,-0.71521,0.676147
1470244340490027,-0.174805,-0.0239868,-0.715698,0.675781
1470244340505041,-0.174255,-0.0232544,-0.716125,0.675476
1470244340527559,-0.173767,-0.022522,-0.716614,0.67511
1470244340550080,-0.173279,-0.0219116,-0.717102,0.674744
1470244340564094,-0.172852,-0.0213623,-0.71759,0.674316
1470244340587615,-0.172424,-0.020813,-0.718018,0.674011
1470244340609635,-0.172058,-0.0204468,-0.718445,0.673706
1470244340631153,-0.171814,-0.0202026,-0.718689,0.673462
1470244340647168,-0.171631,-0.0198975,-0.718872,0.67334
1470244340669687,-0.171509,-0.0197144,-0.718994,0.673218
1470244340691298,-0.171326,-0.0194702,-0.719177,0.673096
1470244340707223,-0.171204,-0.019104,-0.71936,0.672974
1470244340729741,-0.171265,-0.0186157,-0.719543,0.672729
1470244340750794,-0.171326,-0.0179443,-0.719788,0.672485
1470244340767275,-0.171509,-0.0172729,-0.720093,0.67218
1470244340789820,-0.171631,-0.0166016,-0.720276,0.671936
1470244340810862,-0.171814,-0.0159302,-0.72052,0.671631
1470244340827329,-0.171753,-0.0152588,-0.720825,0.671326
1470244340849850,-0.17157,-0.0145264,-0.721191,0.671021
1470244340870871,-0.171448,-0.013855,-0.721558,0.670654
1470244340887384,-0.171326,-0.0132446,-0.721802,0.67041
1470244340909904,-0.171448,-0.0125732,-0.722046,0.670166
1470244340930938,-0.171509,-0.0120239,-0.722168,0.669983
1470244340947439,-0.171448,-0.0115356,-0.722351,0.6698
1470244340969957,-0.171326,-0.0110474,-0.722534,0.669678
1470244340990996,-0.171265,-0.0106812,-0.722656,0.669556
1470244341007491,-0.171204,-0.0103149,-0.722839,0.669434
1470244341030018,-0.171326,-0.00994873,-0.723022,0.669189
1470244341058555,-0.171387,-0.00958252,-0.723145,0.669006
1470244341067545,-0.171448,-0.00927734,-0.723328,0.668823
1470244341090065,-0.17157,-0.0088501,-0.723511,0.66864
1470244341112585,-0.17157,-0.00842285,-0.723633,0.668457
1470244341127599,-0.17157,-0.00805664,-0.723816,0.668274
1470244341149620,-0.171509,-0.00769043,-0.723999,0.668091
1470244341172640,-0.171387,-0.00744629,-0.724182,0.667908
1470244341187155,-0.171326,-0.00714111,-0.724365,0.667786
1470244341209673,-0.171326,-0.00683594,-0.724487,0.667664
1470244341232193,-0.171387,-0.00640869,-0.724609,0.66748
1470244341246705,-0.171387,-0.00610352,-0.724731,0.667358
1470244341269727,-0.171448,-0.00579834,-0.724854,0.667175
1470244341292748,-0.17157,-0.00549316,-0.724976,0.667053
1470244341306761,-0.171692,-0.00506592,-0.725098,0.66687
1470244341329781,-0.171753,-0.00457764,-0.725281,0.666687
1470244341352300,-0.171631,-0.00427246,-0.725464,0.666504
1470244341366814,-0.17157,-0.00396729,-0.725586,0.666382
1470244341389835,-0.171509,-0.00366211,-0.725708,0.66626
1470244341412355,-0.171387,-0.003479,-0.72583,0.666199
1470244341426368,-0.171143,-0.00335693,-0.725891,0.666199
1470244341449888,-0.171082,-0.00341797,-0.725891,0.666199
1470244341472409,-0.171082,-0.00341797,-0.725891,0.666199
1470244341486922,-0.171082,-0.00390625,-0.725891,0.666199
1470244341509942,-0.173035,-0.00463867,-0.72583,0.665771
1470244341532462,-0.178284,-0.00494385,-0.725342,0.664917
1470244341553481,-0.186279,-0.00378418,-0.724304,0.663879
1470244341569997,-0.194397,-0.00189209,-0.722595,0.663391
1470244341592516,-0.20166,-0.000244141,-0.720825,0.663147
1470244341613535,-0.206604,0.000671387,-0.719849,0.662659
1470244341630049,-0.208801,0.000793457,-0.719666,0.66217
1470244341652578,-0.207825,0.0012207,-0.720215,0.661926
1470244341673589,-0.203064,0.00274658,-0.722046,0.661377
1470244341689104,-0.191589,0.0043335,-0.725403,0.661133
1470244341712125,-0.174927,0.00598145,-0.729004,0.661804
1470244341733644,-0.158081,0.00878906,-0.732483,0.662109
1470244341749657,-0.141174,0.0177612,-0.73761,0.660095
1470244341772179,-0.117371,0.0289917,-0.744202,0.656921
1470244341793697,-0.0874634,0.0414429,-0.752136,0.651855
1470244341809711,-0.0533447,0.0562744,-0.761047,0.644043
1470244341832232,-0.0164185,0.0734863,-0.76947,0.634216
1470244341853251,0.0228271,0.0930176,-0.777283,0.621826
1470244341869265,0.0646362,0.113403,-0.783997,0.606873
1470244341892286,0.108704,0.133301,-0.789612,0.588989
1470244341913306,0.154053,0.152344,-0.79364,0.568542
1470244341929318,0.197693,0.170898,-0.795105,0.547302
1470244341952339,0.237488,0.188843,-0.793884,0.526978
1470244341973358,0.273193,0.204712,-0.79071,0.508118
1470244342004888,0.305481,0.216797,-0.786194,0.491516
1470244342012394,0.334106,0.224731,-0.780823,0.477661
1470244342034914,0.359314,0.228394,-0.775513,0.466125
1470244342049426,0.380127,0.228455,-0.770996,0.45697
1470244342073448,0.395325,0.226501,-0.76825,0.449646
1470244342094967,0.405212,0.220947,-0.767578,0.444702
1470244342109481,0.408691,0.213135,-0.769043,0.442871
1470244342132502,0.404846,0.204285,-0.771423,0.44635
1470244342155021,0.392273,0.194092,-0.774963,0.455933
1470244342176039,0.373779,0.183105,-0.778809,0.469238
1470244342192555,0.351257,0.171387,-0.78363,0.482849
1470244342215076,0.321899,0.159546,-0.789673,0.497314
1470244342236094,0.290405,0.1474,-0.795837,0.510498
1470244342252109,0.256409,0.132324,-0.800598,0.525146
1470244342275630,0.219971,0.115601,-0.803406,0.541077
1470244342296147,0.181641,0.101379,-0.804443,0.556396
1470244342312163,0.14386,0.0892334,-0.80426,0.569641
1470244342334690,0.109802,0.0731201,-0.802307,0.582214
1470244342356201,0.0785522,0.0540161,-0.798584,0.594299
1470244342372217,0.0482178,0.0377808,-0.793396,0.605652
1470244342394741,0.0194092,0.024292,-0.787292,0.615784
1470244342415756,-0.00622559,0.0102539,-0.78125,0.624146
1470244342432270,-0.0302734,-0.00286865,-0.775452,0.630676
1470244342455291,-0.0501099,-0.013916,-0.770752,0.63501
1470244342475810,-0.0643921,-0.0258179,-0.76709,0.637756
1470244342492324,-0.0748291,-0.0360107,-0.763428,0.640503
1470244342514845,-0.0855103,-0.043396,-0.759888,0.642944
1470244342535864,-0.0979004,-0.0470581,-0.757446,0.643799
1470244342552379,-0.108459,-0.0482788,-0.755615,0.644165
1470244342574898,-0.115601,-0.0491333,-0.754272,0.644409
1470244342595918,-0.119873,-0.0510254,-0.754089,0.643738
1470244342611931,-0.124268,-0.0535889,-0.753662,0.643188
1470244342634953,-0.130432,-0.0548706,-0.753113,0.642517
1470244342655971,-0.137024,-0.0546265,-0.752197,0.642212
1470244342672487,-0.140991,-0.0545654,-0.751892,0.641785
1470244342695007,-0.140808,-0.055481,-0.752014,0.641541
1470244342716025,-0.139832,-0.0569458,-0.751953,0.641663
1470244342732539,-0.140137,-0.057373,-0.751709,0.641907
1470244342755060,-0.14209,-0.0571289,-0.751221,0.64209
1470244342776080,-0.143677,-0.0576782,-0.750916,0.642029
1470244342792594,-0.144592,-0.05896,-0.750671,0.641968
1470244342815114,-0.145569,-0.0603638,-0.750305,0.642029
1470244342836133,-0.147034,-0.0616455,-0.749878,0.64209
1470244342852148,-0.149109,-0.062439,-0.749329,0.642212
1470244342874667,-0.151306,-0.0630493,-0.748596,0.642456
1470244342896187,-0.15332,-0.0637207,-0.748108,0.642517
1470244342911702,-0.154724,-0.064209,-0.748108,0.64209
1470244342934722,-0.154968,-0.0645752,-0.748413,0.641602
1470244342955740,-0.154968,-0.0646973,-0.748657,0.641357
1470244342972256,-0.155579,-0.0645752,-0.748779,0.641113
1470244342995777,-0.156555,-0.06427,-0.748901,0.640747
1470244343017296,-0.156799,-0.0639038,-0.749023,0.640564
1470244343022800,-0.155273,-0.0648193,-0.749084,0.640747
1470244343037815,-0.153076,-0.0663452,-0.748901,0.641357
1470244343060334,-0.1521,-0.0667725,-0.748352,0.642212
1470244343082855,-0.152161,-0.0662842,-0.747681,0.642944
1470244343097868,-0.151367,-0.0648193,-0.747314,0.643738
1470244343120388,-0.145325,-0.0646973,-0.747498,0.644958
1470244343142908,-0.13385,-0.0665894,-0.747803,0.646912
1470244343160924,-0.119202,-0.067749,-0.748108,0.649292
1470244343180441,-0.103577,-0.0665894,-0.749207,0.650757
1470244343202962,-0.0856323,-0.0634766,-0.751343,0.651306
1470244343220978,-0.0637817,-0.0584717,-0.754028,0.651123
1470244343240496,-0.0385132,-0.0521851,-0.757813,0.649231
1470244343262516,-0.0106812,-0.0447998,-0.762268,0.64563
1470244343279032,0.0179443,-0.0361328,-0.766479,0.640991
1470244343300050,0.046875,-0.0267334,-0.770264,0.635498
1470244343323072,0.0761719,-0.0169678,-0.77356,0.628906
1470244343339587,0.106384,-0.00823975,-0.776306,0.621216
1470244343360104,0.137268,-0.000915527,-0.778442,0.612549
1470244343391131,0.167847,0.00506592,-0.779663,0.60321
1470244343399640,0.196655,0.0105591,-0.780029,0.593994
1470244343421660,0.223083,0.0159912,-0.779541,0.585022
1470244343442676,0.24762,0.0202026,-0.778442,0.576477
1470244343459192,0.270569,0.0223999,-0.777039,0.567871
1470244343480711,0.291687,0.0230713,-0.775391,0.55957
1470244343502733,0.309326,0.0228271,-0.773865,0.552185
1470244343521249,0.323486,0.0217285,-0.772339,0.546204
1470244343556780,0.334412,0.0192871,-0.771118,0.541443
1470244343562785,0.341003,0.0158691,-0.770508,0.53833
1470244343586807,0.342773,0.0116577,-0.770691,0.536987
1470244343600320,0.340576,0.00689697,-0.771545,0.537292
1470244343624343,0.335327,0.00140381,-0.772766,0.538818
1470244343639354,0.327454,-0.00494385,-0.774292,0.541443
1470244343660887,0.316162,-0.0112305,-0.776123,0.545532
1470244343682893,0.301086,-0.0159302,-0.778381,0.550659
1470244343699408,0.283081,-0.0199585,-0.780945,0.556396
1470244343736441,0.264465,-0.0245972,-0.782959,0.5625
1470244343750954,0.2453,-0.0304565,-0.783997,0.569458
1470244343759462,0.22522,-0.0354004,-0.784546,0.576599
1470244343781983,0.204956,-0.039917,-0.784363,0.584106
1470244343803001,0.184204,-0.045166,-0.783325,0.592041
1470244343825521,0.162598,-0.0513916,-0.781677,0.599915
1470244343840534,0.140564,-0.0565186,-0.779846,0.607361
1470244343863055,0.118042,-0.0601807,-0.77771,0.614502
1470244343880571,0.0940552,-0.0634766,-0.775024,0.621643
1470244343900089,0.0704346,-0.0671997,-0.772095,0.627991
1470244343922608,0.0473022,-0.0692139,-0.76947,0.633118
1470244343940624,0.0234375,-0.069397,-0.767029,0.637451
1470244343960142,0.000793457,-0.0692749,-0.764832,0.640503
1470244343982663,-0.017395,-0.0693359,-0.762573,0.642944
1470244344000678,-0.0343628,-0.0684814,-0.760742,0.644531
1470244344020196,-0.0490112,-0.0667725,-0.759277,0.645508
1470244344042717,-0.0595703,-0.0645752,-0.758484,0.645752
1470244344060733,-0.0706177,-0.0601196,-0.757813,0.645874
1470244344080266,-0.0806885,-0.0543213,-0.758118,0.644836
1470244344102788,-0.0859985,-0.0501099,-0.759216,0.643188
1470244344120787,-0.088562,-0.0479736,-0.760193,0.641907
1470244344140336,-0.0922241,-0.0452881,-0.760803,0.640747
1470244344162884,-0.0966797,-0.0415649,-0.761536,0.639526
1470244344180841,-0.0997314,-0.0387573,-0.762451,0.638123
1470244344200358,-0.10144,-0.0380249,-0.762878,0.637451
1470244344222878,-0.103149,-0.0384521,-0.763123,0.636841
1470244344240895,-0.104675,-0.0390625,-0.763367,0.63623
1470244344260414,-0.105591,-0.039856,-0.763733,0.63562
1470244344282945,-0.106079,-0.0408325,-0.763916,0.635254
1470244344300949,-0.107422,-0.0410156,-0.763977,0.634888
1470244344320466,-0.109131,-0.0403442,-0.764282,0.634277
1470244344343022,-0.109863,-0.0395508,-0.764771,0.633667
1470244344361003,-0.109436,-0.0391846,-0.765137,0.633301
1470244344380521,-0.109314,-0.0386963,-0.765625,0.632813
1470244344403105,-0.109924,-0.0378418,-0.766174,0.63208
1470244344420556,-0.110413,-0.0371094,-0.766907,0.631104
1470244344440576,-0.110413,-0.0365601,-0.7677,0.630188
1470244344462681,-0.110474,-0.0361328,-0.768372,0.629395
1470244344480610,-0.110901,-0.0357056,-0.769226,0.628296
1470244344500146,-0.11145,-0.0352173,-0.770264,0.626953
1470244344523179,-0.111389,-0.0349121,-0.771362,0.625671
1470244344540663,-0.111084,-0.034729,-0.772461,0.624329
1470244344561682,-0.110352,-0.0348511,-0.773682,0.622925
1470244344582702,-0.10968,-0.0350342,-0.775146,0.621216
1470244344600718,-0.108582,-0.0352173,-0.776672,0.619507
1470244344622238,-0.106995,-0.0355225,-0.778259,0.617798
1470244344642783,-0.104919,-0.0361328,-0.779907,0.616028
1470244344660789,-0.102783,-0.0367432,-0.781677,0.614136
1470244344681790,-0.100586,-0.0372925,-0.783447,0.612122
1470244344702811,-0.0981445,-0.0377197,-0.785278,0.610168
1470244344720827,-0.095459,-0.0386353,-0.787476,0.607666
1470244344743351,-0.0917358,-0.039917,-0.790161,0.604736
1470244344762879,-0.0870972,-0.0409546,-0.793091,0.60144
1470244344780886,-0.0819092,-0.041626,-0.796326,0.597839
1470244344801897,-0.076355,-0.0418091,-0.800171,0.593445
1470244344822917,-0.069397,-0.0413208,-0.804871,0.587952
1470244344840933,-0.0603027,-0.0405884,-0.810181,0.581665
1470244344861952,-0.0485229,-0.0401001,-0.815918,0.574707
1470244344882970,-0.0351563,-0.0394287,-0.822327,0.566528
1470244344900987,-0.0201416,-0.0378418,-0.829285,0.55719
1470244344923510,-0.00335693,-0.0350952,-0.836731,0.546509
1470244344943025,0.0150146,-0.0307007,-0.844604,0.534302
1470244344960540,0.0341187,-0.0258179,-0.853088,0.52002
1470244344983061,0.0531006,-0.0198364,-0.861816,0.504089
1470244345003088,0.0705566,-0.0120239,-0.870239,0.487427
1470244345020595,0.0857544,-0.00219727,-0.878174,0.470642
1470244345043114,0.0988159,0.00817871,-0.885498,0.453918
1470244345062633,0.109802,0.017334,-0.892761,0.436646
1470244345080650,0.119019,0.0245972,-0.900146,0.418335
1470244345103170,0.125366,0.03125,-0.907837,0.398926
1470244345122686,0.12738,0.0385742,-0.915955,0.378601
1470244345140703,0.123291,0.0476685,-0.924622,0.357239
1470244345169228,0.112427,0.0588989,-0.933838,0.334412
1470244345182770,0.0951538,0.0724487,-0.943298,0.309631
1470244345200787,0.0722656,0.0863647,-0.952637,0.282532
1470244345223276,0.0440063,0.0960693,-0.961365,0.25415
1470244345242798,0.00701904,0.105896,-0.96875,0.224243
1470244345260810,-0.0372314,0.117615,-0.973938,0.190491
1470244345283331,-0.0859985,0.126038,-0.975891,0.156189
1470244345302873,-0.138,0.130371,-0.973816,0.125122
1470244345335967,-0.190796,0.128113,-0.968323,0.0979614
1470244345343385,-0.244202,0.119263,-0.959351,0.076416
1470244345362914,-0.296692,0.103638,-0.947449,0.0603638
1470244345380970,-0.346313,0.0846558,-0.933105,0.0479736
1470244345403439,-0.391846,0.0628052,-0.917114,0.0380859
1470244345423011,-0.432739,0.0361328,-0.900208,0.03302
1470244345440985,-0.468262,0.00109863,-0.883057,0.0327148
1470244345463492,-0.502136,-0.0218506,-0.863953,0.0325928
1470244345483525,-0.526001,-0.0410156,-0.848999,0.0305176
1470244345500525,-0.539185,-0.0714111,-0.838196,0.0410767
1470244345523546,-0.542114,-0.118591,-0.828247,0.0787354
1470244345543590,-0.537231,-0.160889,-0.820068,0.114319
1470244345566098,-0.534485,-0.175842,-0.816284,0.130981
1470244345582599,-0.533203,-0.174622,-0.816589,0.135864
1470244345603626,-0.532654,-0.167236,-0.818176,0.137878
1470244345626138,-0.531128,-0.161621,-0.819763,0.141052
1470244345642187,-0.528809,-0.161987,-0.820496,0.144714
1470244345663700,-0.5271,-0.164551,-0.820679,0.147339
1470244345686192,-0.526184,-0.165283,-0.820984,0.147888
1470244345702206,-0.525269,-0.163696,-0.821899,0.147827
1470244345723726,-0.523926,-0.162781,-0.822754,0.148865
1470244345739741,-0.521606,-0.164063,-0.823608,0.151001
1470244345768765,-0.519104,-0.164612,-0.824768,0.152527
1470244345783779,-0.516602,-0.164856,-0.825928,0.154358
1470244345806303,-0.513855,-0.164856,-0.827332,0.156128
1470244345822314,-0.510681,-0.163757,-0.829224,0.157532
1470244345844837,-0.507141,-0.161987,-0.831421,0.159302
1470244345859349,-0.503357,-0.160583,-0.833496,0.161682
1470244345882371,-0.499451,-0.158569,-0.835876,0.163757
1470244345905388,-0.494995,-0.155762,-0.838623,0.165771
1470244345919401,-0.490112,-0.152649,-0.841614,0.168213
1470244345942422,-0.484802,-0.149048,-0.844727,0.171204
1470244345964942,-0.479065,-0.14502,-0.847961,0.174622
1470244345985962,-0.473022,-0.140503,-0.851379,0.178223
1470244346002478,-0.466675,-0.136108,-0.854797,0.181885
1470244346024996,-0.460327,-0.131653,-0.858337,0.184814
1470244346046047,-0.453552,-0.12616,-0.862244,0.187134
1470244346062571,-0.446655,-0.119873,-0.86615,0.189819
1470244346085050,-0.439941,-0.112671,-0.869873,0.19281
1470244346106069,-0.432983,-0.105103,-0.873718,0.195435
1470244346122584,-0.425232,-0.0970459,-0.877869,0.197937
1470244346144604,-0.417175,-0.0897217,-0.881958,0.200378
1470244346166134,-0.409851,-0.0819702,-0.885498,0.203125
1470244346182137,-0.403198,-0.0744629,-0.888367,0.206665
1470244346205158,-0.39563,-0.0682373,-0.891235,0.211304
1470244346226201,-0.386292,-0.0639648,-0.894165,0.217285
1470244346242216,-0.376587,-0.0620728,-0.896912,0.22345
1470244346264763,-0.369202,-0.0578613,-0.899109,0.228149
1470244346286230,-0.362793,-0.0500488,-0.901184,0.231812
1470244346302264,-0.355408,-0.0422363,-0.903259,0.236755
1470244346324766,-0.34552,-0.0383911,-0.905396,0.243835
1470244346345786,-0.334717,-0.0371094,-0.907532,0.250977
1470244346362299,-0.325562,-0.0335083,-0.909485,0.25647
1470244346384820,-0.317627,-0.0272827,-0.911072,0.261475
1470244346407339,-0.309021,-0.0220947,-0.912537,0.267212
1470244346422353,-0.298767,-0.0197144,-0.914124,0.273499
1470244346444874,-0.288086,-0.0180664,-0.91571,0.279724
1470244346465892,-0.277832,-0.0159302,-0.917175,0.285278
1470244346482406,-0.266907,-0.0144043,-0.91864,0.291016
1470244346504931,-0.255249,-0.0141602,-0.920044,0.296936
1470244346525946,-0.243469,-0.0140381,-0.921326,0.302917
1470244346541483,-0.230835,-0.0130005,-0.922363,0.30957
1470244346564984,-0.216858,-0.012207,-0.923279,0.316895
1470244346586002,-0.201538,-0.0125732,-0.924438,0.323608
1470244346602015,-0.186096,-0.0125122,-0.925476,0.329773
1470244346625035,-0.171692,-0.0101929,-0.926208,0.335632
1470244346646554,-0.156555,-0.00738525,-0.926697,0.341614
1470244346661568,-0.139465,-0.00604248,-0.927246,0.347534
1470244346685089,-0.121277,-0.00640869,-0.927795,0.352844
1470244346713633,-0.104309,-0.00622559,-0.928101,0.357483
1470244346722122,-0.0881348,-0.00518799,-0.928101,0.361694
1470244346752649,-0.0722656,-0.00421143,-0.927795,0.366089
1470244346773668,-0.0563965,-0.00469971,-0.927185,0.370422
1470244346781676,-0.0411377,-0.00616455,-0.926453,0.374207
1470244346805197,-0.0268555,-0.00756836,-0.92572,0.377258
1470244346827216,-0.0137939,-0.0088501,-0.924805,0.380188
1470244346841729,-0.00201416,-0.010437,-0.923767,0.382874
1470244346864750,0.00836182,-0.0126343,-0.922668,0.385315
1470244346887771,0.0178833,-0.0153198,-0.921448,0.387756
1470244346908799,0.0265503,-0.0186157,-0.920105,0.39032
1470244346924805,0.0336914,-0.0220947,-0.918762,0.392761
1470244346947325,0.0392456,-0.026001,-0.917603,0.394836
1470244346968925,0.0431519,-0.0307007,-0.916626,0.396301
1470244346984858,0.0444336,-0.034668,-0.916321,0.396545
1470244347007379,0.0432129,-0.0369263,-0.916138,0.39679
1470244347028413,0.0393066,-0.0374756,-0.916138,0.397278
1470244347044913,0.0314941,-0.03479,-0.91626,0.397949
1470244347067449,0.0192871,-0.0292358,-0.916504,0.398499
1470244347088482,0.00012207,-0.0203857,-0.916992,0.398438
1470244347104967,-0.0241699,-0.00842285,-0.917053,0.397949
1470244347127486,-0.0462646,-0.000366211,-0.91687,0.396484
1470244347148510,-0.0663452,0.00128174,-0.915833,0.396118
1470244347165033,-0.0893555,-0.00012207,-0.91394,0.395996
1470244347187554,-0.117493,-0.0032959,-0.911499,0.394165
1470244347208599,-0.150818,-0.00817871,-0.909485,0.387329
1470244347224586,-0.188965,-0.0114136,-0.90741,0.375244
1470244347247606,-0.231262,-0.00921631,-0.903564,0.360596
1470244347268626,-0.270203,-0.00683594,-0.897217,0.349304
1470244347285140,-0.300293,-0.0105591,-0.890686,0.341248
1470244347307660,-0.321289,-0.0229492,-0.885803,0.334167
1470244347328697,-0.335999,-0.0386353,-0.882141,0.327881
1470244347345194,-0.347534,-0.0507813,-0.879211,0.32196
1470244347367214,-0.360474,-0.0525513,-0.876099,0.315857
1470244347388733,-0.369934,-0.0515137,-0.873718,0.311707
1470244347405250,-0.372314,-0.053894,-0.872864,0.310974
1470244347427268,-0.370483,-0.0582886,-0.873047,0.311768
1470244347448789,-0.368103,-0.0619507,-0.873657,0.312195
1470244347465303,-0.366882,-0.0614624,-0.874084,0.3125
1470244347487323,-0.366699,-0.0576782,-0.87439,0.3125
1470244347508346,-0.366272,-0.0542603,-0.874817,0.312561
1470244347524355,-0.364868,-0.0541992,-0.875183,0.31311
1470244347547375,-0.363403,-0.0560913,-0.875488,0.313538
1470244347568436,-0.362854,-0.057312,-0.87561,0.313721
1470244347584910,-0.363342,-0.0569458,-0.875427,0.313721
1470244347607430,-0.364014,-0.0558472,-0.875183,0.313721
1470244347628503,-0.364258,-0.0554199,-0.875122,0.313904
1470244347644969,-0.36377,-0.0557251,-0.875122,0.314209
1470244347667484,-0.36261,-0.0560303,-0.875366,0.31488
1470244347688503,-0.361816,-0.055542,-0.875549,0.315491
1470244347705018,-0.361389,-0.0545044,-0.87561,0.315796
1470244347727538,-0.360901,-0.0527344,-0.875793,0.316162
1470244347750057,-0.359619,-0.0514526,-0.87616,0.316895
1470244347765071,-0.357361,-0.0511475,-0.87677,0.317749
1470244347787592,-0.355652,-0.0505981,-0.877258,0.318359
1470244347810111,-0.354858,-0.0494385,-0.877625,0.318604
1470244347825125,-0.35437,-0.0479126,-0.877869,0.318604
1470244347847645,-0.353821,-0.046875,-0.878113,0.318726
1470244347877673,-0.353088,-0.0461426,-0.878357,0.319031
1470244347884179,-0.352722,-0.0454712,-0.878479,0.319153
1470244347907718,-0.3526,-0.0443726,-0.87854,0.319214
1470244347929735,-0.351868,-0.0437012,-0.878723,0.319641
1470244347944232,-0.35144,-0.0426025,-0.878784,0.320007
1470244347967252,-0.351074,-0.0411377,-0.879089,0.319885
1470244347989774,-0.350708,-0.0389404,-0.879517,0.319336
1470244348011316,-0.350159,-0.0354614,-0.880127,0.318665
1470244348027329,-0.349121,-0.0296021,-0.881287,0.317322
1470244348049827,-0.346191,-0.0210571,-0.883179,0.315918
1470244348071348,-0.343079,-0.0078125,-0.884705,0.315613
1470244348087362,-0.339355,0.00830078,-0.886292,0.315186
1470244348109881,-0.334229,0.0239258,-0.887695,0.315857
1470244348130901,-0.326538,0.0361328,-0.888977,0.319153
1470244348147415,-0.316895,0.045166,-0.890259,0.324097
1470244348169935,-0.306274,0.0515137,-0.891235,0.330566
1470244348190954,-0.296143,0.0574341,-0.891541,0.337952
1470244348207469,-0.287231,0.0645752,-0.891235,0.345093
1470244348229991,-0.27887,0.0731201,-0.89032,0.352478
1470244348251028,-0.269714,0.0808105,-0.889099,0.360962
1470244348267522,-0.259094,0.0864868,-0.888062,0.369934
1470244348290043,-0.247803,0.0907593,-0.887085,0.378784
1470244348311061,-0.237183,0.0946045,-0.885986,0.387146
1470244348327577,-0.227783,0.098999,-0.88446,0.39502
1470244348350097,-0.219299,0.104187,-0.882751,0.402283
1470244348378655,-0.211304,0.109314,-0.881104,0.408752
1470244348387630,-0.203125,0.114075,-0.879456,0.4151
1470244348410150,-0.195435,0.11731,-0.878052,0.420898
1470244348431175,-0.187927,0.118896,-0.876648,0.426697
1470244348447227,-0.181274,0.120605,-0.874939,0.432556
1470244348470209,-0.175476,0.123169,-0.873108,0.437927
1470244348491223,-0.170288,0.124512,-0.871704,0.442322
1470244348506740,-0.165955,0.123779,-0.870911,0.445679
1470244348529758,-0.162659,0.122253,-0.870361,0.448486
1470244348551277,-0.160034,0.120667,-0.869507,0.451416
1470244348566791,-0.15979,0.120667,-0.868225,0.454041
1470244348589841,-0.161438,0.119385,-0.867737,0.454773
1470244348611332,-0.161804,0.115479,-0.867737,0.455566
1470244348626847,-0.159363,0.110596,-0.867981,0.457214
1470244348649865,-0.157654,0.107971,-0.868103,0.458191
1470244348670886,-0.157043,0.107727,-0.867798,0.458984
1470244348686899,-0.156677,0.107605,-0.867432,0.459839
1470244348709919,-0.156311,0.106262,-0.867554,0.460144
1470244348732440,-0.156372,0.10437,-0.867859,0.4599
1470244348746958,-0.156372,0.102966,-0.867981,0.460022
1470244348769974,-0.156433,0.102112,-0.86792,0.460327
1470244348792494,-0.156128,0.101379,-0.867859,0.460693
1470244348807508,-0.154724,0.100098,-0.868286,0.460571
1470244348830028,-0.152954,0.0983887,-0.869019,0.460205
1470244348852549,-0.15155,0.0975952,-0.869568,0.459778
1470244348867060,-0.150269,0.0975342,-0.870056,0.459351
1470244348890081,-0.148804,0.097168,-0.870483,0.459045
1470244348912602,-0.147095,0.0960083,-0.870972,0.458923
1470244348926619,-0.145508,0.0942383,-0.871521,0.45874
1470244348950135,-0.144531,0.0927124,-0.871948,0.458496
1470244348972656,-0.144104,0.0922241,-0.872314,0.45813
1470244348987171,-0.143555,0.0922241,-0.872559,0.457764
1470244349010215,-0.1427,0.0916748,-0.872925,0.457458
1470244349033209,-0.141296,0.090271,-0.873291,0.457397
1470244349046725,-0.14032,0.088623,-0.873718,0.457275
1470244349069742,-0.139709,0.0877075,-0.874023,0.457092
1470244349099798,-0.139709,0.0877075,-0.874023,0.457092
1470244349106776,-0.139771,0.0874634,-0.874023,0.457031
1470244349129797,-0.139832,0.086792,-0.874207,0.456848
1470244349152350,-0.140076,0.0861206,-0.874268,0.456787
1470244349166830,-0.140259,0.0858765,-0.874207,0.456909
1470244349189850,-0.140625,0.0860596,-0.874084,0.45697
1470244349212371,-0.141357,0.0864868,-0.874023,0.456787
1470244349233890,-0.142883,0.0875854,-0.873901,0.45636
1470244349249906,-0.145264,0.0906982,-0.873474,0.45575
1470244349272425,-0.149231,0.0968628,-0.872375,0.455322
1470244349293977,-0.154724,0.105408,-0.870911,0.454407
1470244349309960,-0.163818,0.118774,-0.868164,0.453186
1470244349332479,-0.166687,0.130066,-0.863281,0.458374
1470244349353514,-0.165039,0.136597,-0.85437,0.47345
1470244349370013,-0.16571,0.146851,-0.841492,0.492859
1470244349392553,-0.168762,0.159058,-0.825745,0.51416
1470244349413553,-0.174988,0.170105,-0.806885,0.538025
1470244349429566,-0.184143,0.178345,-0.785461,0.563354
1470244349458631,-0.196777,0.183838,-0.761169,0.589966
1470244349473623,-0.211487,0.186707,-0.734253,0.617493
1470244349489119,-0.227051,0.187073,-0.705627,0.644592
1470244349512640,-0.242126,0.183716,-0.677063,0.670227
1470244349533701,-0.256531,0.177673,-0.649597,0.693298
1470244349549173,-0.268616,0.170105,-0.623962,0.713867
1470244349572694,-0.27948,0.16272,-0.598816,0.732666
1470244349593738,-0.288879,0.157104,-0.575378,0.748901
1470244349609227,-0.295776,0.152588,-0.554993,0.76239
1470244349632748,-0.30072,0.145691,-0.53949,0.772827
1470244349655268,-0.305725,0.140137,-0.527161,0.780396
1470244349669281,-0.310303,0.13562,-0.517944,0.785522
1470244349692802,-0.31311,0.131348,-0.511597,0.789246
1470244349714822,-0.313965,0.127319,-0.507935,0.791992
1470244349737343,-0.314209,0.12439,-0.506348,0.793335
1470244349752356,-0.314331,0.122253,-0.507019,0.793152
1470244349775378,-0.314148,0.120361,-0.510132,0.791565
1470244349796395,-0.312927,0.11908,-0.515259,0.78894
1470244349812409,-0.310547,0.118408,-0.52179,0.785645
1470244349834930,-0.308105,0.118225,-0.529663,0.781372
1470244349857450,-0.305725,0.118896,-0.538879,0.775879
1470244349872463,-0.302551,0.119934,-0.549438,0.769531
1470244349894983,-0.298706,0.120422,-0.562134,0.76178
1470244349916002,-0.294128,0.120667,-0.577148,0.752258
1470244349932517,-0.288147,0.122375,-0.594055,0.740967
1470244349955038,-0.280884,0.124329,-0.613953,0.727112
1470244349976058,-0.271057,0.12561,-0.63739,0.710266
1470244349992571,-0.257813,0.125305,-0.66449,0.690125
1470244350015091,-0.242676,0.123474,-0.694946,0.665527
1470244350036125,-0.225647,0.121826,-0.728149,0.63562
1470244350052625,-0.205322,0.119507,-0.763245,0.60083
1470244350075146,-0.182251,0.115601,-0.799255,0.560852
1470244350096164,-0.156311,0.109741,-0.834595,0.516663
1470244350112679,-0.130127,0.102173,-0.867615,0.468872
1470244350135199,-0.108582,0.0945435,-0.897339,0.417236
1470244350156219,-0.0929565,0.0886841,-0.923279,0.362061
1470244350172734,-0.0827026,0.0855103,-0.944336,0.306763
1470244350195253,-0.0749512,0.0805664,-0.960205,0.256775
1470244350216273,-0.0706787,0.0741577,-0.971558,0.213562
1470244350232787,-0.0717773,0.0690308,-0.979858,0.17334
1470244350254807,-0.0756836,0.0627441,-0.985962,0.13501
1470244350276327,-0.0803833,0.0562744,-0.989929,0.102051
1470244350292343,-0.0856323,0.053772,-0.992126,0.0744629
1470244350314862,-0.0917358,0.0548096,-0.993042,0.0497437
1470244350335880,-0.0968018,0.053833,-0.993469,0.0288696
1470244350359901,-0.102234,0.0523682,-0.993347,0.0130005
1470244350374915,-0.105347,0.0519409,-0.993103,0.00140381
1470244350395935,-0.107727,0.0563354,-0.992615,-0.00708008
1470244350411947,-0.108582,0.062439,-0.992065,-0.0124512
1470244350434969,-0.108276,0.0665283,-0.991821,-0.0144043
1470244350456014,-0.107117,0.0690918,-0.99176,-0.0134888
1470244350472002,-0.105835,0.0717163,-0.99176,-0.010437
1470244350495022,-0.105225,0.0753174,-0.991638,-0.00531006
1470244350516043,-0.105652,0.0795288,-0.991272,0.00195313
1470244350532055,-0.105896,0.0839233,-0.990784,0.0108032
1470244350555076,-0.105042,0.0894775,-0.990234,0.0212402
1470244350577596,-0.103638,0.0958862,-0.989441,0.0336914
1470244350591646,-0.102478,0.102966,-0.98822,0.0485229
1470244350615130,-0.101563,0.109436,-0.986633,0.0654297
1470244350637651,-0.0995483,0.11615,-0.984619,0.0848389
1470244350651663,-0.0967407,0.122192,-0.981995,0.106812
1470244350675184,-0.0941162,0.127197,-0.978577,0.131775
1470244350697705,-0.09198,0.132019,-0.973938,0.160156
1470244350718723,-0.0897217,0.136536,-0.96759,0.192627
1470244350734738,-0.0877075,0.139282,-0.959412,0.229065
1470244350764766,-0.0864868,0.139099,-0.948975,0.26947
1470244350779778,-0.086853,0.137878,-0.935486,0.313721
1470244350794292,-0.0883789,0.135925,-0.918518,0.360596
1470244350800298,-0.0927124,0.133911,-0.897644,0.409546
1470244350822817,-0.0998535,0.132385,-0.873657,0.457458
1470244350848340,-0.107239,0.129944,-0.846436,0.505127
1470244350860385,-0.115845,0.125916,-0.815002,0.553589
1470244350882896,-0.127197,0.121704,-0.77887,0.601929
1470244350900931,-0.142456,0.118164,-0.739197,0.647522
1470244350920439,-0.15741,0.114075,-0.698486,0.688721
1470244350942925,-0.167603,0.108704,-0.658325,0.725708
1470244350965459,-0.175293,0.101135,-0.617004,0.760498
1470244350980476,-0.183167,0.0930176,-0.575439,0.791626
1470244351002998,-0.190613,0.0866089,-0.536926,0.8172
1470244351025512,-0.196838,0.0813599,-0.504883,0.836487
1470244351048048,-0.201843,0.0772095,-0.477417,0.851685
1470244351063051,-0.208252,0.0734863,-0.453369,0.863525
1470244351081049,-0.21875,0.0700684,-0.43396,0.871155
1470244351100565,-0.23291,0.0632324,-0.422974,0.873413
1470244351123086,-0.241028,0.0571899,-0.417419,0.874268
1470244351145613,-0.247009,0.0518188,-0.414551,0.874329
1470244351160620,-0.2547,0.0484619,-0.415649,0.871765
1470244351183139,-0.262634,0.0455322,-0.420776,0.867126
1470244351200656,-0.267517,0.0427246,-0.429199,0.861633
1470244351220175,-0.269226,0.0407104,-0.440674,0.855347
1470244351243194,-0.26886,0.0401611,-0.454529,0.848206
1470244351265217,-0.267334,0.0411377,-0.471497,0.839355
1470244351280229,-0.264526,0.0463867,-0.491028,0.828735
1470244351302770,-0.260071,0.0537109,-0.513428,0.81604
1470244351325270,-0.252808,0.0627441,-0.53949,0.800659
1470244351343309,-0.242004,0.0725708,-0.569397,0.782288
1470244351362802,-0.229736,0.0834351,-0.602539,0.759766
1470244351385327,-0.215332,0.0953369,-0.638794,0.732422
1470244351400348,-0.198364,0.108032,-0.677124,0.700317
1470244351422857,-0.178467,0.120789,-0.716125,0.663879
1470244351445375,-0.15509,0.132935,-0.755493,0.622559
1470244351460404,-0.128723,0.142273,-0.794067,0.576782
1470244351482926,-0.100464,0.148499,-0.831177,0.526367
1470244351514437,-0.072998,0.151672,-0.865723,0.471375
1470244351520459,-0.0500488,0.154236,-0.896362,0.412598
1470244351546057,-0.0311279,0.15564,-0.92157,0.354309
1470244351565543,-0.0166016,0.15509,-0.941833,0.297729
1470244351580497,-0.00830078,0.151855,-0.958435,0.241577
1470244351606020,-0.00836182,0.147583,-0.971497,0.185608
1470244351625538,-0.0164185,0.146362,-0.980347,0.131287
1470244351640567,-0.0268555,0.146851,-0.985474,0.0813599
1470244351663070,-0.0404053,0.146545,-0.987732,0.0355835
1470244351685592,-0.0571899,0.144348,-0.987854,-0.00848389
1470244351708111,-0.0733032,0.138245,-0.98645,-0.0499268
1470244351723124,-0.0874023,0.12915,-0.984009,-0.0865479
1470244351745645,-0.101318,0.119263,-0.980408,-0.119751
1470244351760665,-0.116089,0.112854,-0.975342,-0.15033
1470244351782679,-0.130005,0.109253,-0.969299,-0.178162
1470244351805700,-0.141968,0.109009,-0.962769,-0.202759
1470244351820713,-0.152649,0.112854,-0.955872,-0.224426
1470244351842733,-0.163086,0.11792,-0.948853,-0.243408
1470244351865254,-0.172974,0.121582,-0.942261,-0.259766
1470244351880266,-0.180359,0.127625,-0.93634,-0.27301
1470244351902801,-0.187317,0.133057,-0.931091,-0.283447
1470244351925309,-0.194031,0.138611,-0.926697,-0.290649
1470244351940351,-0.198975,0.144775,-0.923218,-0.29541
1470244351962870,-0.202576,0.149963,-0.921082,-0.296814
1470244351994432,-0.2052,0.153259,-0.920471,-0.295288
1470244352000454,-0.206238,0.155945,-0.921204,-0.290894
1470244352022894,-0.205872,0.158447,-0.923279,-0.283142
1470244352045415,-0.203918,0.160767,-0.926453,-0.272644
1470244352060428,-0.199646,0.163879,-0.930481,-0.259827
1470244352082979,-0.194092,0.166504,-0.935425,-0.244324
1470244352105472,-0.189026,0.165344,-0.941284,-0.22583
1470244352121984,-0.184204,0.16156,-0.947876,-0.203796
1470244352143002,-0.17981,0.154236,-0.955139,-0.178101
1470244352165533,-0.173157,0.14563,-0.962402,-0.150696
1470244352182037,-0.16333,0.136475,-0.969482,-0.122009
1470244352203056,-0.150146,0.124451,-0.976563,-0.0910645
1470244352233592,-0.133728,0.112305,-0.98291,-0.0585938
1470244352242092,-0.115234,0.103516,-0.987671,-0.0251465
1470244352263110,-0.0958252,0.0976563,-0.990601,0.00964355
1470244352285631,-0.0762939,0.0916748,-0.991821,0.0455322
1470244352301660,-0.0563965,0.0837402,-0.991516,0.0820313
1470244352323183,-0.0368042,0.0744629,-0.989441,0.118774
1470244352345684,-0.019104,0.06427,-0.985535,0.155701
1470244352361699,-0.0055542,0.0546875,-0.979736,0.192871
1470244352383218,0.00598145,0.0466919,-0.971924,0.230713
1470244352405761,0.0165405,0.0392456,-0.962158,0.269226
1470244352429259,0.0270386,0.0307007,-0.950928,0.306702
1470244352442786,0.038269,0.020752,-0.939209,0.340698
1470244352465291,0.0489502,0.00909424,-0.926941,0.371887
1470244352483309,0.0559692,-0.0043335,-0.91449,0.400696
1470244352502844,0.0575562,-0.0150757,-0.903015,0.425537
1470244352525933,0.0513306,-0.0178833,-0.89209,0.448608
1470244352543421,0.0380249,-0.0142822,-0.881836,0.469788
1470244352563395,0.0206299,-0.0098877,-0.873169,0.486877
1470244352585445,0.000854492,-0.00695801,-0.866516,0.499084
1470244352603475,-0.0185547,-0.00305176,-0.861084,0.508118
1470244352622994,-0.0348511,0.000976563,-0.856567,0.514893
1470244352645453,-0.0462036,0.00189209,-0.853943,0.518311
1470244352663484,-0.0527954,-0.000183105,-0.852722,0.519775
1470244352682987,-0.0582886,-0.00134277,-0.85199,0.520386
1470244352705507,-0.0650635,-0.00012207,-0.851379,0.520447
1470244352723523,-0.0718384,0.00280762,-0.851196,0.519897
1470244352743041,-0.0762329,0.0045166,-0.85144,0.51886
1470244352765562,-0.0773926,0.00335693,-0.85199,0.517822
1470244352783577,-0.0769653,0.000793457,-0.852722,0.516663
1470244352803135,-0.0770874,-0.000366211,-0.853516,0.51532
1470244352821111,-0.0786133,0.0010376,-0.854065,0.51416
1470244352843645,-0.0807495,0.0032959,-0.854431,0.513245
1470244352863185,-0.0822144,0.00537109,-0.854858,0.512268
1470244352881243,-0.0828247,0.00683594,-0.855286,0.511475
1470244352903184,-0.0830078,0.00811768,-0.85553,0.510986
1470244352923202,-0.0834961,0.00909424,-0.855591,0.510864
1470244352940721,-0.0847168,0.0100708,-0.855347,0.511047
1470244352963761,-0.0870361,0.0111694,-0.854858,0.511414
1470244352991764,-0.0900269,0.0122681,-0.854187,0.512024
1470244353000772,-0.0930786,0.0128784,-0.85321,0.513062
1470244353023293,-0.0959473,0.0129395,-0.852112,0.514404
1470244353042840,-0.0986328,0.012207,-0.850952,0.515747
1470244353066831,-0.101135,0.0111694,-0.849854,0.517151
1470244353083346,-0.103516,0.0098877,-0.848511,0.518921
1470244353104866,-0.104248,0.00744629,-0.847046,0.521179
1470244353125386,-0.103333,0.00341797,-0.845581,0.523743
1470244353143405,-0.101501,-0.00152588,-0.843933,0.526794
1470244353164419,-0.0991821,-0.00769043,-0.842102,0.53009
1470244353185470,-0.0941162,-0.0163574,-0.840454,0.533447
1470244353203489,-0.0861816,-0.0272827,-0.838867,0.536865
1470244353224474,-0.0766602,-0.038147,-0.837219,0.540161
1470244353245494,-0.0648804,-0.0485229,-0.836182,0.54248
1470244353271015,-0.0497437,-0.0582275,-0.836121,0.543213
1470244353284527,-0.0280762,-0.0662842,-0.837708,0.541321
1470244353305581,0.000671387,-0.0720215,-0.841064,0.536133
1470244353322563,0.0360718,-0.0735474,-0.845642,0.527405
1470244353343585,0.0779419,-0.0691528,-0.85144,0.514038
1470244353373607,0.125366,-0.0588379,-0.857544,0.495422
1470244353382617,0.175293,-0.0432129,-0.863098,0.47168
1470244353403652,0.224182,-0.0231323,-0.866211,0.445984
1470244353426173,0.269653,0,-0.86615,0.420776
1470244353442669,0.311829,0.0206299,-0.863037,0.396851
1470244353465189,0.352051,0.0353394,-0.857666,0.373169
1470244353486241,0.389587,0.0447388,-0.85083,0.349731
1470244353502723,0.422058,0.0504761,-0.843384,0.328735
1470244353525242,0.447205,0.0540161,-0.836121,0.31311
1470244353548765,0.464233,0.0571899,-0.830139,0.303345
1470244353562777,0.474426,0.06073,-0.826111,0.297974
1470244353584798,0.478149,0.0623779,-0.824402,0.296326
1470244353606316,0.478271,0.0620728,-0.824463,0.296082
1470244353622830,0.47345,0.0567017,-0.826599,0.299011
1470244353645852,0.461304,0.0491333,-0.831421,0.305908
1470244353665869,0.442261,0.0394287,-0.83783,0.317688
1470244353682885,0.413513,0.0325317,-0.846008,0.335083
1470244353704905,0.377747,0.0258179,-0.854614,0.355469
1470244353726424,0.337585,0.0171509,-0.861877,0.378052
1470244353742438,0.294434,0.00427246,-0.867065,0.401917
1470244353764958,0.244263,-0.00866699,-0.870422,0.427307
1470244353785977,0.189209,-0.0204468,-0.871155,0.452698
1470244353802492,0.134216,-0.0321045,-0.867493,0.477966
1470244353825012,0.0820923,-0.0402832,-0.861206,0.5
1470244353846032,0.0391235,-0.0473633,-0.853271,0.517883
1470244353862546,0.00427246,-0.0556641,-0.843994,0.533447
1470244353885066,-0.0266724,-0.0600586,-0.835205,0.546021
1470244353906085,-0.0545654,-0.0564575,-0.828064,0.555176
1470244353922600,-0.0803833,-0.046814,-0.82312,0.560181
1470244353945120,-0.0999756,-0.0383911,-0.820496,0.561584
1470244353966140,-0.112366,-0.0340576,-0.819092,0.561523
1470244353982653,-0.122925,-0.0317383,-0.81781,0.56134
1470244354005174,-0.135681,-0.0274658,-0.815491,0.562012
1470244354026193,-0.148682,-0.0202026,-0.813171,0.562378
1470244354042708,-0.156433,-0.0162964,-0.812439,0.561462
1470244354065228,-0.156799,-0.0211182,-0.812561,0.561035
1470244354086247,-0.154663,-0.0282593,-0.811768,0.562439
1470244354102761,-0.155823,-0.0305786,-0.809753,0.564819
1470244354125091,-0.160217,-0.0280151,-0.808105,0.566162
1470244354146111,-0.162964,-0.0258179,-0.807129,0.566833
1470244354161624,-0.162537,-0.027832,-0.807068,0.566956
1470244354185149,-0.161377,-0.0321045,-0.806885,0.567383
1470244354207667,-0.162415,-0.0344849,-0.806213,0.567932
1470244354221679,-0.163879,-0.0351563,-0.805359,0.568604
1470244354245199,-0.16272,-0.0376587,-0.804504,0.570007
1470244354266217,-0.158752,-0.043457,-0.803528,0.572083
1470244354281732,-0.154175,-0.0498657,-0.80249,0.57428
1470244354304910,-0.149658,-0.0543213,-0.801147,0.576904
1470244354325930,-0.143372,-0.0579224,-0.800049,0.579712
1470244354341944,-0.133484,-0.0630493,-0.800415,0.581055
1470244354372471,-0.118591,-0.0678101,-0.802551,0.58075
1470244354387484,-0.0966797,-0.0666504,-0.806274,0.579773
1470244354401998,-0.0695801,-0.060791,-0.811584,0.576904
1470244354425018,-0.0372314,-0.0512695,-0.818176,0.571533
1470244354448039,0.00012207,-0.0366211,-0.825378,0.563416
1470244354462052,0.041748,-0.0168457,-0.832092,0.552795
1470244354485072,0.0874634,0.0057373,-0.837524,0.539368
1470244354507592,0.136292,0.0290527,-0.841309,0.522278
1470244354528635,0.184998,0.0517578,-0.842529,0.503235
1470244354545126,0.229187,0.0726929,-0.841309,0.484131
1470244354567649,0.266418,0.0905762,-0.838013,0.467468
1470244354588697,0.297546,0.10321,-0.833679,0.453613
1470244354611241,0.323608,0.107666,-0.829224,0.442749
1470244354627701,0.343445,0.10498,-0.825134,0.436096
1470244354648719,0.355042,0.0979614,-0.82135,0.435669
1470244354665234,0.35614,0.0903931,-0.818787,0.441101
1470244354687754,0.345337,0.0836792,-0.818909,0.450745
1470244354708773,0.322815,0.0756836,-0.821533,0.463806
1470244354725287,0.292297,0.0678711,-0.825195,0.478516
1470244354747808,0.2547,0.0595093,-0.829224,0.493958
1470244354768826,0.211426,0.0506592,-0.833191,0.508484
1470244354784841,0.163757,0.0425415,-0.835693,0.522522
1470244354807862,0.11438,0.034668,-0.836609,0.534668
1470244354828883,0.0667114,0.0253906,-0.835571,0.544739
1470244354844902,0.0237427,0.015564,-0.832275,0.55365
1470244354867415,-0.0150146,0.00518799,-0.826721,0.562439
1470244354888934,-0.0505371,-0.00628662,-0.82019,0.569824
1470244354904949,-0.0802612,-0.0160522,-0.812866,0.57666
1470244354927471,-0.104004,-0.0249023,-0.804871,0.583801
1470244354948488,-0.121521,-0.0368042,-0.797302,0.590149
1470244354965003,-0.131836,-0.0524292,-0.790771,0.595459
1470244354987523,-0.138977,-0.0639648,-0.784546,0.600952
1470244355008572,-0.143433,-0.0724487,-0.779846,0.605042
1470244355025057,-0.138184,-0.0811768,-0.778259,0.607178
1470244355047577,-0.123413,-0.0871582,-0.77948,0.607971
1470244355068596,-0.102844,-0.0857544,-0.784546,0.605469
1470244355092618,-0.0803223,-0.0762939,-0.793762,0.598083
1470244355107631,-0.0540161,-0.0591431,-0.805664,0.586975
1470244355128666,-0.0195923,-0.0376587,-0.818665,0.572693
1470244355144664,0.0236206,-0.0143433,-0.830933,0.555725
1470244355167687,0.0716553,0.0108643,-0.841553,0.535278
1470244355188706,0.120911,0.0388794,-0.849426,0.512207
1470244355212726,0.168701,0.0681763,-0.853516,0.488281
1470244355227738,0.212952,0.095459,-0.85437,0.464355
1470244355248774,0.253235,0.117676,-0.8526,0.44165
1470244355264271,0.287415,0.134705,-0.849243,0.421936
1470244355287793,0.315613,0.146423,-0.844849,0.406433
1470244355308811,0.337524,0.151489,-0.839966,0.397034
1470244355324326,0.351135,0.151978,-0.835754,0.393921
1470244355347346,0.353882,0.149841,-0.833435,0.397156
1470244355369867,0.343079,0.147034,-0.83429,0.405762
1470244355384382,0.319214,0.140747,-0.83783,0.419922
1470244355407428,0.286926,0.131409,-0.841858,0.437866
1470244355429920,0.24707,0.120056,-0.84491,0.458984
1470244355444433,0.198181,0.107727,-0.846558,0.482117
1470244355467454,0.142578,0.0946655,-0.846069,0.504822
1470244355489974,0.0856323,0.0793457,-0.842224,0.526306
1470244355510993,0.0307007,0.0621338,-0.836243,0.543945
1470244355527510,-0.0163574,0.0413818,-0.828125,0.558777
1470244355550028,-0.0562744,0.017395,-0.816833,0.573853
1470244355571047,-0.0922241,-0.00170898,-0.804443,0.586853
1470244355587565,-0.121582,-0.015686,-0.792786,0.597107
1470244355610083,-0.140625,-0.0268555,-0.782837,0.60553
1470244355631150,-0.148865,-0.0387573,-0.775696,0.612061
1470244355647616,-0.147888,-0.0480347,-0.772888,0.615234
1470244355670136,-0.140564,-0.0512695,-0.774109,0.615112
1470244355691184,-0.1297,-0.0469971,-0.77887,0.611816
1470244355707670,-0.11261,-0.0359497,-0.787354,0.605103
1470244355730192,-0.0880737,-0.0206909,-0.799133,0.59436
1470244355751210,-0.0550537,0.00109863,-0.813354,0.579163
1470244355767724,-0.0109863,0.0293579,-0.827942,0.559998
1470244355790244,0.0403442,0.0608521,-0.841309,0.535583
1470244355811262,0.092041,0.0952759,-0.851501,0.507324
1470244355827778,0.13916,0.131836,-0.856812,0.478638
1470244355849802,0.181702,0.165588,-0.857422,0.452026
1470244355871316,0.21875,0.1922,-0.85498,0.429138
1470244355887832,0.249084,0.210022,-0.85083,0.412292
1470244355909858,0.27301,0.21698,-0.846741,0.401733
1470244355931483,0.289673,0.216064,-0.843445,0.397461
1470244355947387,0.295898,0.211609,-0.840271,0.401978
1470244355969905,0.288696,0.210022,-0.83728,0.414124
1470244355991425,0.268188,0.207642,-0.835938,0.431458
1470244356007439,0.240417,0.202759,-0.835571,0.450439
1470244356029963,0.207581,0.194519,-0.835999,0.469238
1470244356050992,0.168762,0.186218,-0.834778,0.489929
1470244356066992,0.124268,0.179871,-0.8302,0.512817
1470244356090014,0.0749512,0.174683,-0.821838,0.537048
1470244356111050,0.0230103,0.170227,-0.809448,0.561462
1470244356127047,-0.0275269,0.165039,-0.793518,0.585083
1470244356150069,-0.0733643,0.157959,-0.773926,0.608887
1470244356171098,-0.116211,0.149414,-0.750244,0.633545
1470244356187100,-0.157349,0.141602,-0.7229,0.657715
1470244356210121,-0.194275,0.137939,-0.695251,0.678162
1470244356231157,-0.223938,0.136475,-0.666626,0.697754
1470244356247154,-0.249451,0.135315,-0.636536,0.717163
1470244356270175,-0.272217,0.13385,-0.606506,0.734924
1470244356292695,-0.291443,0.135498,-0.579529,0.748901
1470244356306713,-0.304504,0.139709,-0.55481,0.761536
1470244356330228,-0.312012,0.14325,-0.532043,0.773987
1470244356352749,-0.315674,0.145874,-0.510864,0.786194
1470244356366762,-0.318481,0.148987,-0.490112,0.797546
1470244356390282,-0.322754,0.152344,-0.469482,0.807556
1470244356412803,-0.326721,0.154419,-0.450073,0.816589
1470244356433822,-0.329163,0.15387,-0.431213,0.825867
1470244356450337,-0.328369,0.150574,-0.412231,0.836365
1470244356472857,-0.326172,0.145447,-0.393921,0.846924
1470244356493945,-0.327087,0.138672,-0.376221,0.855713
1470244356509896,-0.33197,0.131592,-0.35968,0.862
1470244356532418,-0.338745,0.125916,-0.345459,0.866028
1470244356553992,-0.344116,0.120544,-0.332764,0.869629
1470244356569944,-0.346313,0.115784,-0.320007,0.874207
1470244356592464,-0.349487,0.111755,-0.309021,0.87738
1470244356613483,-0.354675,0.107056,-0.299011,0.879395
1470244356629998,-0.359314,0.103027,-0.290527,0.880798
1470244356652519,-0.361145,0.101013,-0.285339,0.882019
1470244356673549,-0.36084,0.101501,-0.281982,0.883179
1470244356690052,-0.359253,0.10376,-0.279114,0.88446
1470244356712572,-0.357422,0.107056,-0.276123,0.885742
1470244356733593,-0.357117,0.110352,-0.273315,0.886292
1470244356750105,-0.357605,0.112671,-0.270935,0.886536
1470244356772627,-0.355347,0.112793,-0.269409,0.887939
1470244356793660,-0.348511,0.111084,-0.268188,0.891174
1470244356810160,-0.341248,0.109375,-0.266296,0.894775
1470244356832682,-0.337463,0.108948,-0.263855,0.896973
1470244356853700,-0.335876,0.108276,-0.262634,0.89801
1470244356870216,-0.336304,0.107178,-0.261414,0.898376
1470244356892733,-0.340149,0.107239,-0.259705,0.8974
1470244356913769,-0.34198,0.107361,-0.258972,0.896912
1470244356930267,-0.342102,0.108582,-0.258911,0.896729
1470244356952787,-0.340637,0.109802,-0.258179,0.897339
1470244356973807,-0.338928,0.110901,-0.256531,0.898315
1470244356990321,-0.336792,0.111877,-0.254395,0.899597
1470244357012341,-0.333618,0.112671,-0.252319,0.901245
1470244357033884,-0.329041,0.113586,-0.250732,0.90332
1470244357049376,-0.323181,0.114868,-0.249756,0.905518
1470244357072896,-0.316833,0.115601,-0.248413,0.90802
1470244357093914,-0.310852,0.116394,-0.247253,0.910278
1470244357109429,-0.305725,0.117859,-0.246399,0.912048
1470244357132950,-0.300842,0.120056,-0.245728,0.913635
1470244357153982,-0.296387,0.122498,-0.245544,0.914795
1470244357176013,-0.293152,0.124878,-0.24585,0.915405
1470244357192507,-0.291016,0.127319,-0.246094,0.91571
1470244357214030,-0.289673,0.128784,-0.246155,0.915894
1470244357229536,-0.288208,0.129333,-0.24646,0.916199
1470244357252557,-0.286804,0.129578,-0.246887,0.916504
1470244357275077,-0.287659,0.129272,-0.247314,0.916199
1470244357289592,-0.289978,0.128479,-0.247559,0.915466
1470244357312613,-0.293152,0.12677,-0.248413,0.914429
1470244357335131,-0.297424,0.124207,-0.248657,0.913391
1470244357356174,-0.303589,0.123718,-0.250061,0.911011
1470244357372665,-0.30896,0.126343,-0.251343,0.908508
1470244357395185,-0.313416,0.128296,-0.252869,0.90625
1470244357416206,-0.315125,0.130249,-0.253906,0.90509
1470244357433219,-0.316284,0.132446,-0.25415,0.904297
1470244357455239,-0.316895,0.134644,-0.252563,0.904236
1470244357476257,-0.318176,0.135986,-0.249756,0.904358
1470244357492773,-0.321106,0.136597,-0.246643,0.904114
1470244357514793,-0.325684,0.13678,-0.242798,0.903442
1470244357536312,-0.334595,0.138,-0.239258,0.90094
1470244357552326,-0.338013,0.138123,-0.238953,0.89978
1470244357574846,-0.335632,0.138733,-0.242798,0.899536
1470244357596408,-0.329163,0.141052,-0.248413,0.900024
1470244357613881,-0.321838,0.142761,-0.251953,0.901428
1470244357635401,-0.320435,0.144653,-0.25177,0.901672
1470244357656483,-0.317993,0.145874,-0.251404,0.902405
1470244357672934,-0.307617,0.1474,-0.25238,0.905457
1470244357694954,-0.298645,0.148621,-0.253113,0.908081
1470244357715988,-0.29541,0.149719,-0.252625,0.909119
1470244357740495,-0.293152,0.150208,-0.252563,0.90979
1470244357755008,-0.292786,0.150085,-0.252136,0.910034
1470244357776544,-0.294556,0.149597,-0.250977,0.909851
1470244357792556,-0.296204,0.147827,-0.250671,0.909668
1470244357815062,-0.298157,0.146362,-0.250793,0.909241
1470244357836633,-0.302246,0.147583,-0.251831,0.90741
1470244357852095,-0.308777,0.149963,-0.258179,0.903076
1470244357881188,-0.313965,0.150696,-0.262573,0.899841
1470244357896180,-0.316711,0.151123,-0.263733,0.898499
1470244357912149,-0.318909,0.149841,-0.263611,0.897949
1470244357935174,-0.321106,0.147949,-0.262573,0.897766
1470244357963697,-0.324097,0.147095,-0.262024,0.897034
1470244357972704,-0.326416,0.148743,-0.262573,0.895752
1470244357995231,-0.329956,0.151672,-0.261536,0.894226
1470244358016284,-0.333191,0.151672,-0.259705,0.893616
1470244358031787,-0.335083,0.150452,-0.259216,0.89325
1470244358062784,-0.327576,0.148254,-0.263916,0.89502
1470244358076297,-0.316956,0.14801,-0.268738,0.897461
1470244358091810,-0.310303,0.149841,-0.269226,0.899292
1470244358114831,-0.301758,0.151733,-0.268433,0.902161
1470244358138353,-0.28894,0.154846,-0.26886,0.90564
1470244358151864,-0.276794,0.158813,-0.270203,0.908386
1470244358175385,-0.270447,0.161316,-0.270325,0.90979
1470244358197407,-0.270447,0.161621,-0.269043,0.910156
1470244358211918,-0.27179,0.161133,-0.266296,0.910583
1470244358234957,-0.27002,0.160828,-0.263062,0.912109
1470244358257459,-0.267029,0.161194,-0.261658,0.91333
1470244358278978,-0.268738,0.160828,-0.261719,0.912903
1470244358295041,-0.275574,0.159302,-0.261292,0.911255
1470244358317558,-0.280945,0.15741,-0.265747,0.90863
1470244358339032,-0.289978,0.156372,-0.270569,0.904541
1470244358356048,-0.295532,0.157166,-0.275574,0.901123
1470244358372062,-0.302551,0.156921,-0.27771,0.898132
1470244358386075,-0.305603,0.157593,-0.277222,0.897156
1470244358407093,-0.30658,0.157898,-0.275635,0.897278
1470244358430115,-0.307861,0.151855,-0.276001,0.897766
1470244358444627,-0.31073,0.158997,-0.271667,0.896851
1470244358467147,-0.315979,0.155151,-0.270081,0.896179
1470244358490168,-0.32135,0.151855,-0.266541,0.895874
1470244358504180,-0.331055,0.157532,-0.259766,0.893372
1470244358526703,-0.328003,0.146179,-0.263916,0.895203
1470244358550225,-0.317383,0.145874,-0.268494,0.897705
1470244358571241,-0.300659,0.140442,-0.275146,0.902283
1470244358586271,-0.290283,0.145935,-0.274048,0.905151
1470244358600767,-0.282654,0.153442,-0.268921,0.907837
1470244358622787,-0.273926,0.15979,-0.265076,0.910583
1470244358646338,-0.267822,0.164612,-0.263,0.912109
1470244358660822,-0.266907,0.166931,-0.260132,0.912781
1470244358683341,-0.270264,0.162964,-0.260254,0.912476
1470244358706361,-0.277222,0.147339,-0.265503,0.91156
1470244358720374,-0.283386,0.135864,-0.273621,0.908997
1470244358742897,-0.290405,0.129333,-0.283142,0.904846
1470244358766417,-0.296265,0.126831,-0.289001,0.901428
1470244358780431,-0.301453,0.125793,-0.290344,0.899414
1470244358811957,-0.30481,0.126221,-0.290283,0.898254
1470244358826470,-0.303894,0.126526,-0.29071,0.898376
1470244358840483,-0.30249,0.12616,-0.290283,0.899048
1470244358863003,-0.303955,0.125366,-0.288452,0.899292
1470244358878017,-0.306946,0.124573,-0.28656,0.898987
1470244358900537,-0.309998,0.123596,-0.285034,0.89856
1470244358924064,-0.311829,0.122681,-0.283813,0.898438
1470244358938071,-0.313538,0.122498,-0.281738,0.898499
1470244358960605,-0.316833,0.122864,-0.278564,0.898254
1470244358983126,-0.321228,0.122925,-0.275513,0.897644
1470244359006131,-0.325134,0.121765,-0.273132,0.897156
1470244359020661,-0.327637,0.120544,-0.271973,0.896729
1470244359043165,-0.32782,0.119507,-0.2724,0.896667
1470244359066187,-0.32605,0.118774,-0.274475,0.89679
1470244359080758,-0.325012,0.119995,-0.276917,0.89624
1470244359103283,-0.325012,0.122803,-0.279114,0.895203
1470244359126240,-0.324341,0.126282,-0.280884,0.894348
1470244359140752,-0.321777,0.128479,-0.281738,0.894714
1470244359163283,-0.318054,0.129272,-0.282471,0.895752
1470244359186324,-0.314514,0.129456,-0.282837,0.896851
1470244359200806,-0.311096,0.129456,-0.283203,0.897888
1470244359223326,-0.308533,0.129456,-0.283386,0.898743
1470244359245847,-0.30719,0.129517,-0.283508,0.89917
1470244359260860,-0.304749,0.129211,-0.283081,0.900146
1470244359284383,-0.301575,0.128662,-0.282471,0.901489
1470244359305901,-0.298889,0.128784,-0.281921,0.902527
1470244359320439,-0.296692,0.129333,-0.281616,0.90332
1470244359343500,-0.294678,0.129761,-0.281189,0.903992
1470244359365502,-0.293091,0.130371,-0.280884,0.904541
1470244359380467,-0.291565,0.131165,-0.280762,0.904968
1470244359403018,-0.290527,0.132141,-0.28064,0.905151
1470244359421004,-0.289551,0.132813,-0.280518,0.905457
1470244359440524,-0.28949,0.132813,-0.280518,0.905457
1470244359463076,-0.289551,0.132629,-0.280457,0.905457
1470244359481063,-0.289917,0.132324,-0.280518,0.905396
1470244359500576,-0.2901,0.132263,-0.280579,0.905273
1470244359523158,-0.290405,0.132385,-0.28064,0.905151
1470244359541149,-0.29071,0.132874,-0.280396,0.90509
1470244359560629,-0.29126,0.133179,-0.279785,0.905029
1470244359583152,-0.292542,0.13324,-0.278809,0.904907
1470244359601166,-0.293274,0.13324,-0.278198,0.904907
1470244359620702,-0.293762,0.133362,-0.278015,0.904724
1470244359643205,-0.295105,0.133728,-0.278015,0.904297
1470244359660720,-0.29718,0.133911,-0.277832,0.903625
1470244359680738,-0.29895,0.133728,-0.277771,0.903076
1470244359703257,-0.300781,0.133545,-0.277649,0.902527
1470244359721274,-0.302673,0.133911,-0.277161,0.901978
1470244359741794,-0.30481,0.134277,-0.276672,0.901367
1470244359763311,-0.30719,0.133972,-0.276672,0.900635
1470244359781371,-0.309387,0.133667,-0.276855,0.899841
1470244359801847,-0.311646,0.133423,-0.277161,0.899048
1470244359823365,-0.312561,0.133118,-0.277588,0.898621
1470244359840881,-0.312927,0.13324,-0.277344,0.898499
1470244359861900,-0.313538,0.133118,-0.277039,0.898438
1470244359882919,-0.314636,0.132019,-0.276794,0.898315
1470244359900944,-0.315125,0.130615,-0.276917,0.898315
1470244359923455,-0.315308,0.129272,-0.277161,0.898376
1470244359943002,-0.315186,0.128418,-0.277527,0.898376
1470244359961003,-0.315002,0.128296,-0.277771,0.898438
1470244359982008,-0.314453,0.128662,-0.277832,0.898499
1470244360003029,-0.314331,0.129211,-0.277954,0.898438
1470244360021043,-0.313965,0.129883,-0.278076,0.898438
1470244360042089,-0.313477,0.130249,-0.27771,0.898682
1470244360063134,-0.312622,0.130066,-0.277344,0.899109
1470244360085603,-0.311523,0.129883,-0.276978,0.899658
1470244360103660,-0.310364,0.130005,-0.276672,0.900146
1470244360123135,-0.30896,0.130554,-0.276306,0.900635
1470244360141150,-0.307434,0.131348,-0.276001,0.901123
1470244360163699,-0.305359,0.132202,-0.27594,0.901733
1470244360183211,-0.302856,0.132874,-0.276184,0.902405
1470244360201204,-0.300476,0.13385,-0.27655,0.902954
1470244360223724,-0.298035,0.13501,-0.277039,0.903442
1470244360243251,-0.295593,0.13623,-0.277527,0.90387
1470244360261371,-0.293396,0.137634,-0.277771,0.904297
1470244360283280,-0.291199,0.138733,-0.277954,0.904785
1470244360303296,-0.289185,0.139648,-0.278137,0.905273
1470244360320812,-0.287537,0.140381,-0.278076,0.905701
1470244360343332,-0.286438,0.14093,-0.278137,0.905945
1470244360363350,-0.285645,0.141235,-0.278137,0.906128
1470244360380866,-0.285034,0.141602,-0.278015,0.906311
1470244360403887,-0.28418,0.141907,-0.278015,0.906494
1470244360423404,-0.283264,0.142151,-0.278137,0.906738
1470244360440921,-0.282654,0.142273,-0.278259,0.90686
1470244360463441,-0.282349,0.142456,-0.278381,0.906921
1470244360482986,-0.282288,0.142456,-0.278503,0.90686
1470244360501003,-0.282715,0.14209,-0.278503,0.906799
1470244360523494,-0.284119,0.140991,-0.278503,0.906555
1470244360543039,-0.286133,0.139404,-0.278381,0.906189
1470244360561029,-0.28772,0.138,-0.278503,0.905823
1470244360583605,-0.289246,0.136475,-0.27887,0.905457
1470244360603094,-0.291992,0.133911,-0.279358,0.904846
1470244360625612,-0.300415,0.130981,-0.280701,0.9021
1470244360643605,-0.314392,0.128296,-0.283264,0.896912
1470244360663180,-0.327637,0.127014,-0.287659,0.89093
1470244360685656,-0.33313,0.12616,-0.29303,0.887268
1470244360703685,-0.332642,0.123352,-0.302185,0.884766
1470244360724676,-0.3349,0.120422,-0.311401,0.881104
1470244360745699,-0.336487,0.118713,-0.321655,0.877014
1470244360763709,-0.334595,0.119385,-0.333557,0.87323
1470244360784733,-0.329834,0.121582,-0.346375,0.869751
1470244360805747,-0.323303,0.124207,-0.36084,0.865906
1470244360823763,-0.316101,0.125977,-0.377441,0.861267
1470244360844784,-0.310425,0.126465,-0.395447,0.855103
1470244360865802,-0.30304,0.127197,-0.414612,0.848572
1470244360883817,-0.293457,0.128418,-0.435791,0.841125
1470244360904836,-0.285217,0.12738,-0.458008,0.832275
1470244360925855,-0.277405,0.125122,-0.480835,0.822327
1470244360943370,-0.269775,0.122131,-0.50354,0.811646
1470244360964404,-0.260986,0.118591,-0.526123,0.800598
1470244360985408,-0.251465,0.114685,-0.548645,0.789063
1470244361003532,-0.244019,0.111206,-0.570374,0.776367
1470244361033539,-0.237122,0.108093,-0.591125,0.763306
1470244361045465,-0.229248,0.104309,-0.610107,0.75116
1470244361063484,-0.220581,0.0999146,-0.627625,0.739929
1470244361086071,-0.212646,0.0956421,-0.643555,0.729004
1470244361105518,-0.206177,0.0926514,-0.658142,0.718201
1470244361123032,-0.201294,0.0908813,-0.671448,0.707397
1470244361145053,-0.195374,0.0899658,-0.683655,0.697388
1470244361166071,-0.190186,0.0875854,-0.694702,0.68811
1470244361182586,-0.184998,0.086792,-0.706177,0.677917
1470244361205607,-0.18103,0.0866089,-0.71698,0.667603
1470244361227648,-0.177307,0.0869141,-0.727051,0.657532
1470244361242641,-0.172668,0.0870361,-0.736877,0.647766
1470244361265160,-0.168396,0.0874023,-0.746216,0.638123
1470244361286207,-0.16687,0.0894165,-0.755127,0.627686
1470244361302693,-0.165588,0.0921021,-0.763428,0.617493
1470244361325214,-0.163147,0.0944214,-0.771057,0.608276
1470244361346251,-0.160889,0.0967407,-0.778076,0.599487
1470244361362749,-0.159912,0.098999,-0.784546,0.59082
1470244361392774,-0.159668,0.101501,-0.790283,0.582825
1470244361406289,-0.159912,0.104004,-0.795044,0.575806
1470244361422801,-0.15979,0.105469,-0.799194,0.569824
1470244361445321,-0.161133,0.106323,-0.802673,0.564331
1470244361466344,-0.163818,0.106873,-0.805115,0.559998
1470244361482855,-0.167969,0.107605,-0.806641,0.556335
1470244361505375,-0.172241,0.107239,-0.807678,0.553589
1470244361526396,-0.17688,0.107483,-0.807861,0.551819
1470244361542412,-0.180786,0.107849,-0.807617,0.550842
1470244361565430,-0.183411,0.108032,-0.807495,0.550171
1470244361587449,-0.182068,0.10968,-0.808899,0.548218
1470244361602468,-0.17572,0.109131,-0.810425,0.548157
1470244361624983,-0.171326,0.107666,-0.811646,0.548035
1470244361646006,-0.171204,0.110413,-0.812012,0.546936
1470244361662537,-0.171936,0.113892,-0.812073,0.545959
1470244361685037,-0.170837,0.11438,-0.812744,0.545166
1470244361706585,-0.16925,0.113892,-0.813049,0.545288
1470244361722571,-0.16803,0.113647,-0.812927,0.545898
1470244361745091,-0.166443,0.112976,-0.812866,0.546631
1470244361766251,-0.164368,0.111694,-0.812988,0.547363
1470244361782625,-0.161987,0.110107,-0.813293,0.547974
1470244361805145,-0.159424,0.108765,-0.813538,0.548584
1470244361826165,-0.157104,0.107727,-0.813782,0.549072
1470244361842678,-0.15509,0.107056,-0.813904,0.549622
1470244361865199,-0.153381,0.106506,-0.813904,0.550171
1470244361886234,-0.1521,0.106262,-0.813843,0.550659
1470244361902732,-0.151062,0.106201,-0.813843,0.550964
1470244361925252,-0.149963,0.106201,-0.813904,0.551147
1470244361946287,-0.148987,0.106262,-0.814087,0.551147
1470244361962285,-0.148193,0.106628,-0.814209,0.551086
1470244361985306,-0.147583,0.1073,-0.814392,0.550903
1470244362007827,-0.147034,0.108337,-0.814514,0.550598
1470244362022840,-0.146545,0.109558,-0.814758,0.550232
1470244362045360,-0.146057,0.11084,-0.814941,0.549744
1470244362067880,-0.145569,0.112183,-0.815247,0.549194
1470244362082397,-0.145081,0.113708,-0.815613,0.548462
1470244362105414,-0.144775,0.11554,-0.815979,0.547668
1470244362127935,-0.144409,0.117554,-0.816284,0.546814
1470244362141949,-0.144104,0.119568,-0.816711,0.545837
1470244362165468,-0.143799,0.121643,-0.817139,0.5448
1470244362187487,-0.143372,0.123779,-0.817688,0.54364
1470244362202004,-0.142944,0.125732,-0.818237,0.54248
1470244362225023,-0.142578,0.127441,-0.818726,0.541382
1470244362247543,-0.142151,0.128967,-0.819275,0.540405
1470244362262055,-0.141724,0.13031,-0.819702,0.53949
1470244362285076,-0.141235,0.13147,-0.820068,0.538757
1470244362307609,-0.140686,0.132141,-0.820435,0.538208
1470244362322110,-0.139954,0.132446,-0.820679,0.537964
1470244362345129,-0.139282,0.132385,-0.820801,0.537903
1470244362367650,-0.139221,0.132324,-0.820862,0.537903
1470244362382162,-0.138733,0.13147,-0.820801,0.53833
1470244362405185,-0.138306,0.130005,-0.820618,0.539063
1470244362427704,-0.13855,0.127869,-0.820251,0.540039
1470244362448766,-0.140198,0.125183,-0.819458,0.541443
1470244362465237,-0.143616,0.121521,-0.818237,0.543274
1470244362487758,-0.149109,0.117554,-0.816345,0.545471
1470244362508791,-0.155823,0.112671,-0.81366,0.548645
1470244362525291,-0.162354,0.10376,-0.810791,0.552795
1470244362547812,-0.167725,0.0932617,-0.808228,0.556763
1470244362568850,-0.172729,0.0879517,-0.804443,0.561584
1470244362585344,-0.172119,0.086853,-0.80249,0.564697
1470244362607866,-0.157166,0.0806885,-0.802551,0.569824
1470244362628887,-0.127991,0.069519,-0.805054,0.575012
1470244362646036,-0.0961914,0.0679932,-0.808533,0.576599
1470244362667421,-0.0628052,0.0771484,-0.811096,0.576416
1470244362689440,-0.0266724,0.0898438,-0.81366,0.57373
1470244362704452,0.0131836,0.100647,-0.816223,0.568726
1470244362727473,0.0540161,0.109741,-0.818604,0.561218
1470244362748992,0.0936279,0.116821,-0.820129,0.552246
1470244362764506,0.130127,0.121765,-0.820496,0.543213
1470244362787527,0.162048,0.125427,-0.819641,0.534912
1470244362808547,0.189453,0.127441,-0.817993,0.527954
1470244362824560,0.212952,0.126587,-0.815857,0.522461
1470244362847603,0.231201,0.122986,-0.814514,0.5177
1470244362869116,0.243408,0.116272,-0.814087,0.514221
1470244362884615,0.246704,0.108459,-0.814941,0.513062
1470244362907635,0.240234,0.100098,-0.817017,0.514526
1470244362930155,0.224121,0.0908813,-0.81958,0.519409
1470244362944668,0.198303,0.0828247,-0.822876,0.526062
1470244362967726,0.165588,0.0749512,-0.826233,0.533203
1470244362990211,0.128174,0.0672607,-0.829224,0.539856
1470244363004721,0.088562,0.0588989,-0.831421,0.545349
1470244363027742,0.0493774,0.0495605,-0.83252,0.549622
1470244363050275,0.0123291,0.0420532,-0.832397,0.55249
1470244363071312,-0.0209961,0.0358887,-0.831665,0.553711
1470244363087796,-0.0483398,0.0302124,-0.830444,0.554199
1470244363110817,-0.0701294,0.0259399,-0.829041,0.554199
1470244363131837,-0.0865479,0.0235596,-0.827515,0.554199
1470244363147850,-0.0993652,0.0231323,-0.82605,0.554321
1470244363170371,-0.109009,0.0227661,-0.824585,0.554688
1470244363191405,-0.113892,0.0201416,-0.823425,0.555481
1470244363207904,-0.112488,0.0131836,-0.82251,0.557373
1470244363230424,-0.105896,0.00286865,-0.82135,0.560486
1470244363258958,-0.0978394,-0.00616455,-0.82019,0.56366
1470244363267459,-0.0876465,-0.0130615,-0.819946,0.565613
1470244363290026,-0.0718994,-0.0182495,-0.820801,0.566406
1470244363311586,-0.0494385,-0.0198975,-0.822632,0.566101
1470244363327511,-0.0215454,-0.0180054,-0.825684,0.563477
1470244363350032,0.010437,-0.0109253,-0.829285,0.558594
1470244363371051,0.0457153,0.000732422,-0.833191,0.551086
1470244363387568,0.0839844,0.0146484,-0.837036,0.540466
1470244363410086,0.122498,0.0291748,-0.840027,0.527771
1470244363431605,0.159119,0.0431519,-0.841492,0.514526
1470244363447620,0.192139,0.0551147,-0.841064,0.502686
1470244363470142,0.220581,0.0645142,-0.83905,0.493164
1470244363491696,0.24469,0.0708618,-0.835938,0.486145
1470244363514234,0.264709,0.0737305,-0.832703,0.480774
1470244363530194,0.280945,0.0739746,-0.830017,0.476074
1470244363551231,0.292603,0.0701294,-0.82843,0.472412
1470244363567727,0.298584,0.0645752,-0.828064,0.470032
1470244363590247,0.296997,0.0593262,-0.828796,0.470459
1470244363611268,0.286865,0.0561523,-0.830444,0.474182
1470244363627781,0.269653,0.0552368,-0.832947,0.480103
1470244363650303,0.246704,0.0548096,-0.836304,0.486572
1470244363671351,0.219421,0.0541992,-0.840454,0.492493
1470244363695341,0.190796,0.0518799,-0.844482,0.497803
1470244363710355,0.159973,0.0481567,-0.848022,0.50293
1470244363731374,0.126343,0.0452271,-0.850281,0.508911
1470244363746888,0.09198,0.0437622,-0.851013,0.515259
1470244363769909,0.0604248,0.0405273,-0.850098,0.521606
1470244363791428,0.0319824,0.0333862,-0.847412,0.528931
1470244363813956,0.00592041,0.0248413,-0.843018,0.537292
1470244363830463,-0.0164185,0.0164185,-0.837708,0.545593
1470244363851482,-0.032959,0.00653076,-0.832092,0.55365
1470244363866996,-0.0425415,-0.00720215,-0.825867,0.562195
1470244363890017,-0.0483398,-0.0224609,-0.820374,0.569336
1470244363920044,-0.0512695,-0.0372925,-0.816772,0.573486
1470244363927050,-0.0500488,-0.0519409,-0.815552,0.574219
1470244363950072,-0.0449829,-0.0685425,-0.817017,0.57074
1470244363972592,-0.0369263,-0.0865479,-0.821838,0.56189
1470244363987104,-0.0282593,-0.103149,-0.829956,0.547485
1470244364010125,-0.0222778,-0.112915,-0.841125,0.528503
1470244364032644,-0.0189819,-0.119751,-0.854431,0.505188
1470244364053697,-0.0162964,-0.125793,-0.869629,0.477173
1470244364070178,-0.0128784,-0.133606,-0.885864,0.444092
1470244364092701,-0.00976563,-0.143005,-0.901978,0.407349
1470244364113734,-0.00854492,-0.152039,-0.917419,0.367676
1470244364130232,-0.00970459,-0.159973,-0.931885,0.3255
1470244364152754,-0.0131226,-0.166687,-0.944946,0.281433
1470244364173796,-0.0183105,-0.172485,-0.956116,0.236328
1470244364197795,-0.0252075,-0.17749,-0.965088,0.190979
1470244364212808,-0.0343018,-0.18042,-0.972168,0.145569
1470244364233825,-0.0457153,-0.181152,-0.977234,0.100891
1470244364250340,-0.0582275,-0.178345,-0.980591,0.057373
1470244364272860,-0.0714111,-0.171997,-0.982422,0.0154419
1470244364293894,-0.0842896,-0.162537,-0.982849,-0.024292
1470244364309919,-0.0967407,-0.150879,-0.981934,-0.0617065
1470244364332414,-0.107727,-0.138306,-0.979858,-0.0958252
1470244364353933,-0.117126,-0.125732,-0.977051,-0.126099
1470244364370447,-0.125183,-0.114075,-0.973816,-0.151855
1470244364392468,-0.132263,-0.103699,-0.970581,-0.172791
1470244364413987,-0.138916,-0.0924683,-0.967773,-0.188904
1470244364430502,-0.14386,-0.0823975,-0.965637,-0.200256
1470244364452522,-0.148376,-0.0759888,-0.964111,-0.206909
1470244364474041,-0.152527,-0.0732422,-0.963013,-0.209961
1470244364490055,-0.155457,-0.0700684,-0.962646,-0.210449
1470244364512591,-0.15802,-0.0673828,-0.962952,-0.20813
1470244364533623,-0.16095,-0.0689087,-0.963379,-0.203369
1470244364550111,-0.16272,-0.071106,-0.964111,-0.197571
1470244364572629,-0.163391,-0.0713501,-0.965393,-0.190491
1470244364594158,-0.163757,-0.0722046,-0.96698,-0.181702
1470244364609663,-0.163269,-0.074707,-0.96875,-0.171448
1470244364632702,-0.161377,-0.0769653,-0.970825,-0.160217
1470244364653707,-0.158264,-0.0789795,-0.973145,-0.147827
1470244364669716,-0.154419,-0.0818481,-0.975464,-0.134216
1470244364692737,-0.150146,-0.0855713,-0.977722,-0.119568
1470244364713758,-0.144897,-0.0891113,-0.979919,-0.104187
1470244364729270,-0.138672,-0.0922852,-0.982117,-0.0881958
1470244364753292,-0.131775,-0.0958862,-0.98407,-0.0714722
1470244364773823,-0.124634,-0.0998535,-0.985657,-0.0546875
1470244364796331,-0.117188,-0.103577,-0.987,-0.0379639
1470244364812845,-0.109619,-0.1073,-0.987976,-0.0217896
1470244364835365,-0.10199,-0.110046,-0.988708,-0.0065918
1470244364849380,-0.0950928,-0.111633,-0.989197,0.00793457
1470244364872901,-0.0892944,-0.113647,-0.989319,0.0218506
1470244364894918,-0.0840454,-0.117371,-0.988953,0.0352173
1470244364909432,-0.0784912,-0.121216,-0.988403,0.0482178
1470244364932453,-0.0723877,-0.123413,-0.987915,0.0604248
1470244364955974,-0.0664063,-0.124512,-0.987488,0.0712891
1470244364976492,-0.0615845,-0.125427,-0.986938,0.0806885
1470244364992506,-0.0581665,-0.126831,-0.986267,0.088501
1470244365015037,-0.0559082,-0.128784,-0.985596,0.0946045
1470244365036546,-0.0545654,-0.13092,-0.984924,0.0992432
1470244365052598,-0.053894,-0.133118,-0.984314,0.102539
1470244365075084,-0.053833,-0.135132,-0.983887,0.104553
1470244365096099,-0.0546875,-0.136475,-0.983521,0.105469
1470244365112617,-0.0560303,-0.138184,-0.983276,0.104858
1470244365135136,-0.0579834,-0.140259,-0.983093,0.102783
1470244365156154,-0.0608521,-0.142273,-0.982971,0.0994873
1470244365173169,-0.0645752,-0.143372,-0.982971,0.0950928
1470244365195191,-0.0687866,-0.143494,-0.983276,0.0892334
1470244365216719,-0.0733032,-0.143738,-0.983521,0.0817261
1470244365232724,-0.0789185,-0.144592,-0.983704,0.0725708
1470244365255243,-0.0858765,-0.146545,-0.983521,0.0620728
1470244365276294,-0.0936279,-0.14856,-0.983215,0.0506592
1470244365292798,-0.101318,-0.150574,-0.982727,0.0375977
1470244365315297,-0.110352,-0.15332,-0.981812,0.0221558
1470244365336332,-0.121155,-0.155762,-0.980347,0.00427246
1470244365352830,-0.131226,-0.154846,-0.979126,-0.0155029
1470244365375350,-0.141724,-0.152588,-0.977417,-0.0375977
1470244365396369,-0.152832,-0.149658,-0.974915,-0.0620728
1470244365412885,-0.164185,-0.14624,-0.971619,-0.0878906
1470244365435404,-0.175232,-0.142578,-0.967407,-0.114502
1470244365456466,-0.185913,-0.139221,-0.96228,-0.141968
1470244365480444,-0.196533,-0.135864,-0.956177,-0.169739
1470244365495457,-0.20636,-0.131958,-0.949219,-0.197815
1470244365516479,-0.215332,-0.126831,-0.941528,-0.226135
1470244365532491,-0.223755,-0.121338,-0.933044,-0.254395
1470244365555513,-0.231201,-0.115845,-0.924011,-0.28186
1470244365584037,-0.237366,-0.109192,-0.914612,-0.308777
1470244365592045,-0.242249,-0.101074,-0.904907,-0.335266
1470244365615066,-0.246033,-0.0926514,-0.895081,-0.360291
1470244365637586,-0.249023,-0.0841675,-0.885254,-0.383789
1470244365652101,-0.251465,-0.0760498,-0.875366,-0.406067
1470244365675119,-0.253235,-0.0681763,-0.865601,-0.426697
1470244365696639,-0.254089,-0.0602417,-0.856506,-0.445313
1470244365712152,-0.253601,-0.0495605,-0.848816,-0.461365
1470244365735178,-0.253235,-0.0405273,-0.841797,-0.475037
1470244365756193,-0.25238,-0.0323486,-0.835999,-0.486267
1470244365772207,-0.251221,-0.0249634,-0.831177,-0.495483
1470244365795227,-0.249512,-0.0175171,-0.827576,-0.502625
1470244365817750,-0.24762,-0.0109253,-0.825317,-0.507446
1470244365831761,-0.245483,-0.00512695,-0.82428,-0.510254
1470244365855782,-0.243042,0.000671387,-0.824402,-0.51123
1470244365877802,-0.240845,0.0057373,-0.825623,-0.510315
1470244365891846,-0.23822,0.0108643,-0.828186,-0.507324
1470244365915334,-0.234863,0.0160522,-0.832336,-0.501892
1470244365937855,-0.231995,0.0200195,-0.837646,-0.494202
1470244365958878,-0.228821,0.0233765,-0.84436,-0.484009
1470244365975389,-0.225281,0.0256348,-0.852295,-0.471497
1470244365997911,-0.222046,0.0255127,-0.861267,-0.456482
1470244366019016,-0.218384,0.0249023,-0.871033,-0.439392
1470244366035443,-0.214294,0.0211182,-0.881287,-0.420837
1470244366057478,-0.2099,0.0161133,-0.892151,-0.399841
1470244366078996,-0.205261,0.00964355,-0.903442,-0.376404
1470244366095496,-0.199768,0.0020752,-0.915039,-0.350464
1470244366118018,-0.193298,-0.00537109,-0.926758,-0.322266
1470244366139036,-0.185913,-0.0132446,-0.938232,-0.291565
1470244366155050,-0.178101,-0.0229492,-0.94928,-0.258301
1470244366177570,-0.168884,-0.0339966,-0.959717,-0.222168
1470244366199090,-0.157471,-0.0442505,-0.969299,-0.18396
1470244366215104,-0.144348,-0.0532227,-0.977722,-0.142944
1470244366237624,-0.129211,-0.0616455,-0.984741,-0.0990601
1470244366258644,-0.111938,-0.0678101,-0.990051,-0.0524292
1470244366275159,-0.0924683,-0.0726318,-0.993103,-0.00268555
1470244366297678,-0.0710449,-0.079895,-0.993042,0.0496216
1470244366318698,-0.0471191,-0.0898438,-0.989502,0.10321
1470244366325716,-0.0210571,-0.100586,-0.982178,0.157532
1470244366340718,0.00549316,-0.110474,-0.971069,0.211731
1470244366363267,0.031311,-0.117126,-0.956848,0.264221
1470244366385772,0.0550537,-0.117737,-0.940491,0.314087
1470244366400770,0.0760498,-0.115173,-0.922241,0.361145
1470244366423291,0.0936279,-0.112061,-0.902832,0.404541
1470244366445811,0.109314,-0.109497,-0.882874,0.44342
1470244366460826,0.123718,-0.106384,-0.863342,0.477539
1470244366483345,0.136658,-0.103638,-0.844666,0.507019
1470244366505865,0.148071,-0.1026,-0.828064,0.530884
1470244366520879,0.15625,-0.101868,-0.814575,0.549316
1470244366543398,0.159973,-0.103882,-0.804749,0.562134
1470244366566033,0.159424,-0.105591,-0.800537,0.567932
1470244366580932,0.15625,-0.108948,-0.80188,0.566345
1470244366603453,0.152649,-0.115112,-0.807922,0.557434
1470244366625975,0.146423,-0.122559,-0.818115,0.542419
1470244366640986,0.135864,-0.126953,-0.83252,0.521912
1470244366666009,0.122437,-0.131775,-0.849487,0.496033
1470244366685528,0.1073,-0.13739,-0.867981,0.465027
1470244366700539,0.0907593,-0.143188,-0.886841,0.429932
1470244366723060,0.0731812,-0.148682,-0.905396,0.390869
1470244366745610,0.0548706,-0.15332,-0.923645,0.347046
1470244366760623,0.0369263,-0.15741,-0.94043,0.299255
1470244366783617,0.0194092,-0.161316,-0.954895,0.248535
1470244366805635,0.00128174,-0.164124,-0.966858,0.195801
1470244366820688,-0.0186768,-0.16394,-0.976196,0.141174
1470244366843182,-0.0402222,-0.159729,-0.982727,0.0847778
1470244366865690,-0.0620728,-0.153625,-0.98584,0.027832
1470244366880718,-0.0849609,-0.144409,-0.985474,-0.0286255
1470244366903240,-0.107971,-0.132629,-0.981689,-0.0843506
1470244366925746,-0.129822,-0.119141,-0.974609,-0.13855
1470244366940786,-0.150024,-0.105469,-0.964417,-0.190674
1470244366970874,-0.168152,-0.0919189,-0.951477,-0.240845
1470244366985888,-0.184937,-0.0774536,-0.936157,-0.289063
1470244367000872,-0.199768,-0.0632935,-0.919006,-0.334106
1470244367023342,-0.212769,-0.050415,-0.900757,-0.375427
1470244367045850,-0.222961,-0.0372314,-0.882629,-0.412292
1470244367060875,-0.229126,-0.0227051,-0.865845,-0.444336
1470244367083383,-0.231689,-0.00787354,-0.851257,-0.470825
1470244367105904,-0.232483,0.00488281,-0.839661,-0.490906
1470244367120917,-0.232056,0.0181885,-0.83197,-0.503723
1470244367143455,-0.230408,0.0298462,-0.827148,-0.511719
1470244367166971,-0.227356,0.0408936,-0.824524,-0.516602
1470244367181088,-0.224731,0.0501709,-0.823425,-0.518738
1470244367203495,-0.223022,0.0574341,-0.823547,-0.518555
1470244367226037,-0.22168,0.0631714,-0.825012,-0.516052
1470244367241094,-0.220215,0.0665894,-0.828369,-0.510864
1470244367263062,-0.218933,0.067749,-0.833435,-0.50293
1470244367287068,-0.217285,0.067749,-0.840027,-0.492615
1470244367300598,-0.215393,0.0675659,-0.847656,-0.480164
1470244367323117,-0.214111,0.0661621,-0.856201,-0.465576
1470244367345674,-0.21228,0.0617065,-0.865967,-0.448669
1470244367368213,-0.209167,0.057373,-0.876831,-0.429199
1470244367383152,-0.205139,0.0532837,-0.888672,-0.406738
1470244367405673,-0.199707,0.0477905,-0.901794,-0.380371
1470244367422188,-0.193054,0.039917,-0.915955,-0.349609
1470244367450755,-0.184937,0.0305786,-0.930664,-0.314392
1470244367465758,-0.174316,0.0216675,-0.945313,-0.274902
1470244367482242,-0.161194,0.0116577,-0.959473,-0.230957
1470244367503274,-0.146179,-0.0010376,-0.97229,-0.182556
1470244367525872,-0.128418,-0.015625,-0.982971,-0.130737
1470244367542296,-0.107483,-0.0304565,-0.990845,-0.0765991
1470244367563365,-0.0841064,-0.0448608,-0.9953,-0.019165
1470244367585878,-0.0591431,-0.0591431,-0.995667,0.0419312
1470244367608354,-0.0333862,-0.0718994,-0.991211,0.106445
1470244367623368,-0.00762939,-0.0802612,-0.981689,0.172729
1470244367645891,0.0162354,-0.0838013,-0.967468,0.238281
1470244367663907,0.0366821,-0.0858154,-0.947998,0.30426
1470244367690929,0.053833,-0.0899658,-0.923096,0.369995
1470244367705942,0.0633545,-0.0913086,-0.894348,0.43335
1470244367723459,0.0650635,-0.0854492,-0.862488,0.494568
1470244367742977,0.0646973,-0.0769043,-0.826477,0.553894
1470244367765498,0.0653076,-0.0751953,-0.784546,0.612
1470244367783540,0.0612183,-0.0789185,-0.739502,0.665649
1470244367803058,0.0515137,-0.0808716,-0.693604,0.713989
1470244367825579,0.0352173,-0.0801392,-0.647461,0.757019
1470244367843573,0.0163574,-0.0804443,-0.601135,0.794922
1470244367863114,-0.00219727,-0.085022,-0.555237,0.827332
1470244367887105,-0.0241089,-0.0913086,-0.512451,0.853455
1470244367903662,-0.0446777,-0.0947266,-0.475891,0.87323
1470244367923139,-0.059082,-0.0950928,-0.445129,0.888428
1470244367945658,-0.069519,-0.0930786,-0.417419,0.901245
1470244367963674,-0.0841064,-0.0883789,-0.395691,0.910217
1470244367983195,-0.103638,-0.0830688,-0.380981,0.914978
1470244368005714,-0.116577,-0.0762939,-0.370789,0.918213
1470244368023728,-0.124451,-0.0706177,-0.362366,0.920959
1470244368050808,-0.131104,-0.0650635,-0.357117,0.922485
1470244368065767,-0.137024,-0.0606079,-0.353943,0.923157
1470244368083873,-0.142517,-0.0571289,-0.351501,0.923462
1470244368103394,-0.14856,-0.0539551,-0.349854,0.92334
1470244368125820,-0.152649,-0.0506592,-0.348389,0.923462
1470244368143335,-0.154663,-0.0478516,-0.347778,0.923462
1470244368163353,-0.156921,-0.0458374,-0.348206,0.923035
1470244368185874,-0.161316,-0.0441895,-0.348816,0.922119
1470244368203389,-0.164917,-0.0425415,-0.34906,0.921509
1470244368223407,-0.16687,-0.0410767,-0.348999,0.921204
1470244368245958,-0.168518,-0.0394897,-0.34906,0.920959
1470244368263444,-0.170593,-0.0377197,-0.349365,0.920532
1470244368284462,-0.173706,-0.0359497,-0.349426,0.919983
1470244368305981,-0.176819,-0.0338745,-0.349426,0.919495
1470244368323497,-0.179138,-0.0317993,-0.349182,0.919189
1470244368344516,-0.180908,-0.029541,-0.348572,0.919189
1470244368365540,-0.182373,-0.0273438,-0.347839,0.91925
1470244368383551,-0.184387,-0.0254517,-0.346985,0.919189
1470244368404570,-0.186096,-0.0236816,-0.34613,0.91925
1470244368425590,-0.186707,-0.0219727,-0.345398,0.919434
1470244368443648,-0.18634,-0.0204468,-0.344788,0.919739
1470244368464624,-0.185181,-0.019104,-0.344788,0.920044
1470244368485674,-0.18457,-0.0181885,-0.345276,0.919983
1470244368503773,-0.184265,-0.017395,-0.346497,0.919617
1470244368524680,-0.182861,-0.0164795,-0.3479,0.919373
1470244368545782,-0.181396,-0.015564,-0.349365,0.919128
1470244368563713,-0.180847,-0.0142212,-0.351135,0.918579
1470244368584732,-0.180847,-0.0128174,-0.352966,0.917908
1470244368605753,-0.180603,-0.0115967,-0.354797,0.917236
1470244368623768,-0.180176,-0.010437,-0.356506,0.916687
1470244368647308,-0.179321,-0.00915527,-0.35791,0.916321
1470244368665807,-0.178833,-0.00793457,-0.358704,0.916077
1470244368683320,-0.179199,-0.00695801,-0.359314,0.915833
1470244368706341,-0.179382,-0.00610352,-0.360107,0.915466
1470244368725858,-0.178284,-0.00549316,-0.36084,0.915405
1470244368743903,-0.176331,-0.00567627,-0.361877,0.915344
1470244368765895,-0.173645,-0.00622559,-0.363953,0.915039
1470244368785912,-0.16864,-0.00701904,-0.368408,0.914185
1470244368803929,-0.161133,-0.00872803,-0.376038,0.912415
1470244368825949,-0.153015,-0.0112305,-0.387512,0.908997
1470244368846466,-0.143982,-0.0133057,-0.403687,0.903381
1470244368862984,-0.132935,-0.0110474,-0.424744,0.895447
1470244368885039,-0.121033,-0.00811768,-0.450928,0.884277
1470244368906520,-0.107971,-0.0043335,-0.482483,0.869202
1470244368923035,-0.0924072,-0.000732422,-0.519409,0.849487
1470244368945056,-0.0743408,0.00256348,-0.561584,0.824036
1470244368966697,-0.053894,0.00488281,-0.608032,0.792053
1470244368982588,-0.0339355,0.0065918,-0.657898,0.752319
1470244369005109,-0.017395,0.00976563,-0.709473,0.704468
1470244369026630,-0.00250244,0.0137329,-0.759827,0.649963
1470244369042643,0.0123291,0.0158691,-0.80658,0.590759
1470244369065180,0.0264282,0.0137939,-0.849121,0.527344
1470244369086693,0.0361328,0.00897217,-0.88739,0.459595
1470244369102704,0.0344238,0.00726318,-0.921326,0.387268
1470244369125217,0.0255737,0.0109253,-0.949402,0.312988
1470244369146295,0.015564,0.0151978,-0.969849,0.242798
1470244369162797,0.00140381,0.0206299,-0.983887,0.177551
1470244369185315,-0.0181885,0.0269165,-0.993164,0.11261
1470244369206289,-0.0409546,0.0300293,-0.99762,0.0478516
1470244369222809,-0.0654907,0.0296021,-0.997375,-0.0132446
1470244369245326,-0.0917358,0.031189,-0.992737,-0.0714111
1470244369266346,-0.119324,0.0357666,-0.984009,-0.127441
1470244369282858,-0.14447,0.0385742,-0.972229,-0.180359
1470244369305378,-0.165344,0.0380249,-0.958923,-0.227539
1470244369326402,-0.182007,0.0386353,-0.945435,-0.267578
1470244369342912,-0.19281,0.0448608,-0.932922,-0.300964
1470244369365432,-0.198547,0.0579224,-0.921692,-0.328308
1470244369393957,-0.201904,0.0706177,-0.911987,-0.350098
1470244369401965,-0.206787,0.0774536,-0.90387,-0.366577
1470244369425992,-0.21283,0.0834961,-0.897644,-0.376892
1470244369446506,-0.220703,0.0845947,-0.892456,-0.384338
1470244369462020,-0.22821,0.0877686,-0.887512,-0.390686
1470244369485049,-0.233398,0.093689,-0.883606,-0.39502
1470244369506561,-0.237,0.0978394,-0.881531,-0.396545
1470244369522074,-0.239502,0.10083,-0.881165,-0.395142
1470244369545094,-0.241272,0.102356,-0.882568,-0.390442
1470244369566693,-0.241577,0.102905,-0.885742,-0.382935
1470244369596640,-0.240723,0.101746,-0.890564,-0.372375
1470244369605148,-0.239258,0.0990601,-0.896484,-0.359619
1470244369635218,-0.236694,0.0985718,-0.902832,-0.345276
1470244369642181,-0.23291,0.100403,-0.90979,-0.328674
1470244369665203,-0.228943,0.0979004,-0.917725,-0.309631
1470244369687722,-0.22406,0.0935669,-0.926575,-0.287292
1470244369708740,-0.217773,0.0921021,-0.935791,-0.261597
1470244369725256,-0.209473,0.0944824,-0.945251,-0.231873
1470244369747775,-0.198059,0.0966187,-0.955322,-0.197205
1470244369768813,-0.1828,0.100647,-0.965088,-0.158569
1470244369785310,-0.163635,0.107849,-0.973877,-0.115295
1470244369807830,-0.142151,0.116455,-0.980713,-0.0675659
1470244369830350,-0.11969,0.119751,-0.985474,-0.0142822
1470244369845366,-0.0958252,0.114624,-0.987793,0.045166
1470244369867886,-0.069519,0.101746,-0.986206,0.110657
1470244369888904,-0.0426636,0.0857544,-0.978699,0.181763
1470244369905418,-0.0176392,0.0700684,-0.963379,0.25824
1470244369927938,0.00262451,0.0591431,-0.939575,0.33728
1470244369948972,0.0168457,0.0523682,-0.907837,0.41571
1470244369971476,0.0236206,0.0458984,-0.868896,0.49231
1470244369987991,0.0201416,0.0424805,-0.824646,0.563721
1470244370009011,0.012146,0.041626,-0.776367,0.628784
1470244370025046,0.00311279,0.0379028,-0.723694,0.689087
1470244370047588,-0.00878906,0.0291748,-0.666809,0.744629
1470244370069064,-0.0253906,0.0194092,-0.6073,0.793823
1470244370085083,-0.0402222,0.0134277,-0.548523,0.835022
1470244370107599,-0.0516968,0.00811768,-0.491821,0.869141
1470244370129118,-0.06604,0.000610352,-0.438293,0.896423
1470244370145167,-0.0856934,-0.00689697,-0.390808,0.916443
1470244370167655,-0.10791,-0.0130615,-0.348938,0.930786
1470244370189173,-0.122681,-0.0152588,-0.313843,0.941406
1470244370205187,-0.130798,-0.0162354,-0.283936,0.949707
1470244370227706,-0.142212,-0.0167847,-0.259888,0.954956
1470244370248725,-0.161621,-0.0229492,-0.243774,0.955994
1470244370265247,-0.181274,-0.0288696,-0.232666,0.955078
1470244370287762,-0.192932,-0.0335693,-0.226196,0.954163
1470244370308821,-0.200012,-0.036499,-0.224487,0.953003
1470244370324795,-0.207031,-0.038208,-0.227356,0.950745
1470244370347815,-0.216736,-0.0392456,-0.232544,0.947327
1470244370369344,-0.224976,-0.0384521,-0.238647,0.943909
1470244370384848,-0.229248,-0.0361938,-0.244873,0.941345
1470244370407869,-0.23053,-0.0338135,-0.251099,0.939514
1470244370428932,-0.232422,-0.0324707,-0.257263,0.937378
1470244370444424,-0.234741,-0.031311,-0.262634,0.935364
1470244370467922,-0.236694,-0.0303955,-0.267212,0.933594
1470244370488941,-0.237427,-0.0292358,-0.271484,0.932251
1470244370504503,-0.237122,-0.027771,-0.275085,0.931274
1470244370527976,-0.237671,-0.0264282,-0.278809,0.930115
1470244370550000,-0.238464,-0.024292,-0.283386,0.928589
1470244370564510,-0.239075,-0.0212402,-0.288147,0.927002
1470244370587534,-0.23999,-0.0180054,-0.293762,0.92511
1470244370610054,-0.241882,-0.0145264,-0.300476,0.922485
1470244370624612,-0.244324,-0.00982666,-0.306885,0.9198
1470244370647585,-0.245605,-0.00494385,-0.313599,0.917236
1470244370670106,-0.246338,-0.000549316,-0.320496,0.914673
1470244370691623,-0.248108,0.00341797,-0.32666,0.911987
1470244370707639,-0.249451,0.00683594,-0.332153,0.909607
1470244370730158,-0.249023,0.00958252,-0.336975,0.907959
1470244370751180,-0.247742,0.012207,-0.340454,0.906921
1470244370767692,-0.246765,0.0147705,-0.342834,0.90625
1470244370790215,-0.245667,0.0166626,-0.344482,0.905884
1470244370811768,-0.244751,0.0175781,-0.345642,0.905701
1470244370827777,-0.244385,0.0175171,-0.346741,0.905396
1470244370850275,-0.243591,0.0172729,-0.347656,0.905212
1470244370864779,-0.242981,0.0167236,-0.348145,0.905212
1470244370887808,-0.243103,0.0159912,-0.34845,0.90509
1470244370910321,-0.243896,0.0148926,-0.349121,0.904663
1470244370924832,-0.244751,0.0133057,-0.349854,0.904175
1470244370947856,-0.245544,0.0114136,-0.350464,0.903687
1470244370970374,-0.245422,0.00891113,-0.351196,0.903503
1470244370991394,-0.244507,0.00567627,-0.351807,0.903564
1470244371007912,-0.244202,0.00201416,-0.352356,0.903442
1470244371030427,-0.247009,-0.00219727,-0.352905,0.902466
1470244371051464,-0.259216,-0.00537109,-0.355774,0.897888
1470244371067962,-0.265015,-0.0090332,-0.359802,0.894531
1470244371090481,-0.264526,-0.0110474,-0.359314,0.894836
1470244371111500,-0.257874,-0.0126343,-0.356445,0.897949
1470244371128015,-0.239929,-0.0166626,-0.356079,0.902954
1470244371150040,-0.222351,-0.0233765,-0.3573,0.906799
1470244371171609,-0.20459,-0.0310669,-0.359497,0.909912
1470244371187569,-0.183655,-0.0373535,-0.362427,0.912964
1470244371210589,-0.157715,-0.043335,-0.36499,0.916504
1470244371231608,-0.127686,-0.0496826,-0.367615,0.9198
1470244371247122,-0.0928955,-0.055542,-0.371094,0.922241
1470244371270145,-0.0544434,-0.0617676,-0.374329,0.923645
1470244371299169,-0.0159912,-0.0674438,-0.377319,0.923462
1470244371307197,0.0220947,-0.0725708,-0.380615,0.921631
1470244371330248,0.0608521,-0.0785522,-0.38324,0.918274
1470244371351719,0.0973511,-0.0843506,-0.385315,0.913757
1470244371367234,0.129272,-0.0892944,-0.388062,0.908142
1470244371390251,0.156494,-0.0924683,-0.391052,0.902222
1470244371412771,0.178528,-0.0936279,-0.393738,0.89679
1470244371427284,0.194946,-0.0928345,-0.396301,0.892334
1470244371450304,0.206604,-0.0910645,-0.398987,0.888733
1470244371472825,0.213013,-0.0880737,-0.402039,0.886108
1470244371487339,0.213867,-0.0845337,-0.405823,0.884521
1470244371510361,0.207886,-0.0800781,-0.410706,0.884094
1470244371532880,0.193909,-0.074585,-0.416809,0.884888
1470244371547392,0.173828,-0.0703735,-0.422791,0.886597
1470244371570412,0.149597,-0.0673828,-0.428223,0.888672
1470244371592932,0.119202,-0.0654907,-0.434448,0.89032
1470244371613951,0.0842896,-0.0633545,-0.440125,0.891724
1470244371630467,0.0476685,-0.0604248,-0.444458,0.892456
1470244371652486,0.0125732,-0.0582275,-0.447021,0.892517
1470244371674008,-0.022644,-0.0578613,-0.447327,0.892212
1470244371690521,-0.0609741,-0.0574951,-0.445984,0.891113
1470244371713040,-0.0994873,-0.0549316,-0.444885,0.888306
1470244371734116,-0.130493,-0.0525513,-0.442139,0.885803
1470244371750074,-0.15564,-0.0504761,-0.436279,0.884766
1470244371773094,-0.18103,-0.0474243,-0.42981,0.883301
1470244371794114,-0.205444,-0.0439453,-0.425049,0.880432
1470244371810129,-0.225403,-0.0407715,-0.420593,0.877869
1470244371832648,-0.235413,-0.0336914,-0.418152,0.876709
1470244371854167,-0.23407,-0.0253296,-0.416443,0.878113
1470244371870187,-0.234558,-0.0161743,-0.415649,0.878601
1470244371892702,-0.241394,-0.00592041,-0.415222,0.877075
1470244371914259,-0.248535,0.00292969,-0.414551,0.875427
1470244371930235,-0.252747,0.00775146,-0.41333,0.874756
1470244371952756,-0.255981,0.00946045,-0.415833,0.87262
1470244371974340,-0.255493,0.0102539,-0.419312,0.871094
1470244371990290,-0.253479,0.0108032,-0.421021,0.87085
1470244372012825,-0.256714,0.0126343,-0.420837,0.869934
1470244372033874,-0.262634,0.0150146,-0.419861,0.868591
1470244372050344,-0.265442,0.0166016,-0.419189,0.868042
1470244372073364,-0.26416,0.0170288,-0.419006,0.86853
1470244372093906,-0.263611,0.017395,-0.419006,0.868713
1470244372110397,-0.265564,0.0186768,-0.41925,0.86792
1470244372132918,-0.267944,0.0202637,-0.4198,0.866943
1470244372153981,-0.270264,0.0213013,-0.420776,0.865723
1470244372170451,-0.271912,0.0222778,-0.422119,0.864502
1470244372192972,-0.273438,0.0236206,-0.42334,0.863403
1470244372214036,-0.275574,0.0256348,-0.424377,0.862122
1470244372230505,-0.278137,0.0279541,-0.42511,0.860901
1470244372252542,-0.281433,0.0301514,-0.425476,0.859558
1470244372274056,-0.284668,0.0323486,-0.425964,0.858154
1470244372298066,-0.287292,0.0339355,-0.426758,0.856873
1470244372313079,-0.289612,0.0353394,-0.427124,0.855835
1470244372334111,-0.293518,0.0366211,-0.427002,0.854492
1470244372349620,-0.297668,0.0378418,-0.427002,0.853027
1470244372373134,-0.30188,0.0388794,-0.426941,0.851501
1470244372394152,-0.306396,0.0404663,-0.426758,0.849915
1470244372417674,-0.310364,0.0424194,-0.426392,0.848572
1470244372432714,-0.314697,0.0447998,-0.425537,0.84729
1470244372455708,-0.320007,0.0475464,-0.424561,0.845642
1470244372469720,-0.324646,0.0500488,-0.424011,0.843994
1470244372492758,-0.32843,0.0523682,-0.423828,0.842468
1470244372515261,-0.33197,0.0541992,-0.42334,0.841187
1470244372529774,-0.334351,0.055542,-0.422974,0.840332
1470244372552795,-0.334534,0.0557861,-0.422913,0.840332
1470244372575315,-0.333313,0.0549316,-0.422729,0.840942
1470244372604342,-0.331543,0.0529175,-0.422302,0.84198
1470244372612848,-0.32843,0.0496216,-0.421814,0.843628
1470244372635369,-0.323853,0.0449219,-0.421753,0.845703
1470244372656401,-0.318848,0.0394287,-0.421997,0.847717
1470244372672903,-0.313904,0.0336914,-0.422302,0.84967
1470244372695424,-0.309204,0.0278931,-0.422607,0.85144
1470244372716458,-0.303467,0.0215454,-0.423645,0.85321
1470244372732956,-0.295959,0.0148926,-0.425293,0.855164
1470244372754986,-0.288574,0.00897217,-0.426941,0.856934
1470244372776525,-0.281372,0.00421143,-0.428894,0.858398
1470244372793010,-0.273865,0.000183105,-0.431152,0.85968
1470244372815530,-0.266907,-0.00244141,-0.433594,0.860657
1470244372836614,-0.259827,-0.00402832,-0.436157,0.861511
1470244372852564,-0.252258,-0.00512695,-0.438904,0.862366
1470244372875584,-0.244568,-0.0055542,-0.441589,0.86322
1470244372896604,-0.236755,-0.00592041,-0.444458,0.863892
1470244372912655,-0.229126,-0.00646973,-0.447144,0.864563
1470244372935638,-0.221924,-0.00689697,-0.449768,0.865112
1470244372956657,-0.214905,-0.00738525,-0.452271,0.86554
1470244372973172,-0.20752,-0.00805664,-0.454407,0.866272
1470244372995234,-0.200745,-0.0088501,-0.456665,0.866638
1470244373016714,-0.194275,-0.00976563,-0.459961,0.866333
1470244373032725,-0.187439,-0.0112915,-0.464233,0.865601
1470244373055746,-0.180176,-0.0128174,-0.468994,0.864502
1470244373076764,-0.173279,-0.0142822,-0.474487,0.862915
1470244373092780,-0.166626,-0.015686,-0.481628,0.860229
1470244373115302,-0.159119,-0.0172729,-0.490784,0.856445
1470244373136378,-0.151062,-0.0192261,-0.501465,0.851685
1470244373152833,-0.142456,-0.0214233,-0.513367,0.845947
1470244373175354,-0.134216,-0.0234375,-0.526917,0.838928
1470244373196403,-0.125,-0.0234985,-0.542725,0.8302
1470244373211888,-0.114502,-0.0231323,-0.560303,0.820007
1470244373235407,-0.102905,-0.022583,-0.579041,0.808472
1470244373256428,-0.0908813,-0.0219727,-0.598389,0.795715
1470244373272441,-0.078064,-0.0214844,-0.618164,0.78186
1470244373295461,-0.0644531,-0.0211792,-0.638306,0.766785
1470244373323987,-0.0492554,-0.0210571,-0.658875,0.750305
1470244373332006,-0.0327759,-0.0213013,-0.67926,0.732849
1470244373355588,-0.0159302,-0.0221558,-0.698914,0.714722
1470244373378109,0.000549316,-0.0230713,-0.717346,0.69635
1470244373392122,0.0161133,-0.0234985,-0.735168,0.677307
1470244373415142,0.031311,-0.0233765,-0.752319,0.657593
1470244373437664,0.0473633,-0.0236816,-0.76825,0.638
1470244373452199,0.0638428,-0.0251465,-0.782715,0.618591
1470244373475211,0.0805054,-0.0274658,-0.795715,0.59967
1470244373497718,0.0964355,-0.0303345,-0.8078,0.58075
1470244373518737,0.110474,-0.0334473,-0.819031,0.562012
1470244373535288,0.120972,-0.0349731,-0.830017,0.543335
1470244373557772,0.129883,-0.0356445,-0.839844,0.525879
1470244373579291,0.138733,-0.0372314,-0.84845,0.50946
1470244373595304,0.147644,-0.0400391,-0.856079,0.493713
1470244373617823,0.15625,-0.0439453,-0.863098,0.478271
1470244373638843,0.163086,-0.0482788,-0.870239,0.462402
1470244373655357,0.166809,-0.0516968,-0.877258,0.447205
1470244373677878,0.16687,-0.0524902,-0.883667,0.434265
1470244373698929,0.163757,-0.0502319,-0.889526,0.423584
1470244373715414,0.16095,-0.0482788,-0.894775,0.413696
1470244373737934,0.159973,-0.0490112,-0.899292,0.404114
1470244373759004,0.159912,-0.0523682,-0.903259,0.394836
1470244373775467,0.158264,-0.0548706,-0.906677,0.387146
1470244373797986,0.15448,-0.0544434,-0.909973,0.380981
1470244373819004,0.149536,-0.0524292,-0.913147,0.375549
1470244373835520,0.143982,-0.0502319,-0.916138,0.370789
1470244373858040,0.136658,-0.0459595,-0.919189,0.366455
1470244373879058,0.127258,-0.0384521,-0.922791,0.361755
1470244373895574,0.115601,-0.0264282,-0.926941,0.355957
1470244373917611,0.102783,-0.0101318,-0.931702,0.348328
1470244373939112,0.0895386,0.00830078,-0.93689,0.337952
1470244373955628,0.0734863,0.0267944,-0.942627,0.324646
1470244373978147,0.0523071,0.0487061,-0.948303,0.309265
1470244373999167,0.0271606,0.074585,-0.953369,0.291199
1470244374015181,0.000854492,0.09729,-0.957825,0.270386
1470244374038202,-0.0287476,0.114868,-0.961304,0.24884
1470244374059220,-0.0644531,0.135498,-0.962524,0.226135
1470244374075235,-0.101318,0.153442,-0.961853,0.202576
1470244374097756,-0.134155,0.161865,-0.9599,0.185608
1470244374110768,-0.161377,0.15979,-0.95752,0.177795
1470244374125779,-0.186279,0.152588,-0.954712,0.174988
1470244374142295,-0.208496,0.14386,-0.951538,0.1745
1470244374163316,-0.225769,0.136719,-0.948364,0.176086
1470244374185853,-0.235168,0.132141,-0.946167,0.179077
1470244374202349,-0.24054,0.127563,-0.944763,0.182617
1470244374223367,-0.241699,0.121765,-0.944397,0.186951
1470244374245888,-0.239197,0.117371,-0.944641,0.191711
1470244374278417,-0.235352,0.114807,-0.945129,0.195435
1470244374283455,-0.231018,0.11261,-0.945923,0.19812
1470244374305941,-0.226135,0.110596,-0.946899,0.200195
1470244374322457,-0.220825,0.108704,-0.947998,0.201904
1470244374343475,-0.215332,0.106628,-0.949158,0.203552
1470244374366018,-0.209595,0.104431,-0.950317,0.205261
1470244374382012,-0.203491,0.102783,-0.951416,0.207092
1470244374403529,-0.197083,0.100952,-0.952637,0.208679
1470244374426050,-0.189758,0.0980835,-0.953979,0.210693
1470244374442064,-0.181946,0.0956421,-0.9552,0.213013
1470244374463084,-0.173706,0.0930176,-0.956482,0.215271
1470244374485604,-0.164917,0.0916748,-0.957642,0.217712
1470244374502118,-0.154968,0.0922241,-0.958557,0.220764
1470244374523637,-0.143677,0.09375,-0.959534,0.223328
1470244374545676,-0.130554,0.0960693,-0.960449,0.226501
1470244374562172,-0.115356,0.0994263,-0.96106,0.230591
1470244374583304,-0.0975952,0.103149,-0.961548,0.235168
1470244374605712,-0.078125,0.106384,-0.961792,0.239868
1470244374622228,-0.0581055,0.108582,-0.961975,0.243896
1470244374643278,-0.0386963,0.110046,-0.962036,0.246887
1470244374668784,-0.020874,0.111877,-0.961914,0.248657
1470244374682280,-0.0055542,0.114014,-0.96167,0.24939
1470244374710808,0.00628662,0.116394,-0.961365,0.249329
1470244374725819,0.0144653,0.118713,-0.961121,0.248962
1470244374743864,0.0183716,0.120605,-0.960999,0.248169
1470244374763372,0.0174561,0.121582,-0.961243,0.246887
1470244374793881,0.010498,0.121338,-0.962097,0.244141
1470244374802387,-0.00305176,0.119873,-0.96344,0.239685
1470244374823410,-0.0231323,0.116272,-0.965088,0.233704
1470244374853471,-0.0498047,0.111938,-0.966431,0.226013
1470244374863945,-0.0819092,0.106079,-0.967224,0.215942
1470244374883467,-0.120239,0.0963745,-0.966858,0.203613
1470244374905982,-0.166077,0.0819092,-0.964294,0.189575
1470244374922496,-0.216003,0.0628662,-0.959045,0.172302
1470244374943514,-0.265564,0.0400391,-0.95105,0.152954
1470244374966065,-0.314453,0.010437,-0.939575,0.135254
1470244374984602,-0.369446,-0.0221558,-0.921082,0.121277
1470244375003693,-0.424011,-0.05896,-0.8974,0.106995
1470244375028590,-0.471985,-0.0997925,-0.871033,0.0932617
1470244375042105,-0.514465,-0.143066,-0.841248,0.085144
1470244375071129,-0.551575,-0.189758,-0.8078,0.0858154
1470244375085697,-0.578674,-0.238892,-0.773621,0.0984497
1470244375102159,-0.594727,-0.283325,-0.74292,0.119141
1470244375123175,-0.609985,-0.302185,-0.722168,0.12323
1470244375145696,-0.625793,-0.272705,-0.727234,0.0721436
1470244375162211,-0.641174,-0.241211,-0.727234,0.0440063
1470244375183285,-0.641113,-0.242737,-0.72522,0.0643311
1470244375206750,-0.634521,-0.264893,-0.720642,0.0894165
1470244375220763,-0.62915,-0.27655,-0.718933,0.104553
1470244375243306,-0.622925,-0.278992,-0.721619,0.11615
1470244375266860,-0.616211,-0.281067,-0.724121,0.130554
1470244375280850,-0.608215,-0.283936,-0.726135,0.14917
1470244375303393,-0.598694,-0.293701,-0.722595,0.182434
1470244375325896,-0.588318,-0.307861,-0.718628,0.206726
1470244375343874,-0.577393,-0.309814,-0.724609,0.213562
1470244375363391,-0.571716,-0.301514,-0.733093,0.211914
1470244375385912,-0.569702,-0.287292,-0.740417,0.211548
1470244375403428,-0.56604,-0.274414,-0.747131,0.214783
1470244375423445,-0.560486,-0.269287,-0.751099,0.221924
1470244375445965,-0.552002,-0.271973,-0.753967,0.230103
1470244375463988,-0.543152,-0.275146,-0.757385,0.236145
1470244375482999,-0.535645,-0.27533,-0.761597,0.239441
1470244375506020,-0.529663,-0.272217,-0.766479,0.240845
1470244375523536,-0.523254,-0.265442,-0.77301,0.241394
1470244375543553,-0.515991,-0.254456,-0.781677,0.241089
1470244375565575,-0.508545,-0.240234,-0.791321,0.239807
1470244375583589,-0.499573,-0.221008,-0.803223,0.23761
1470244375603161,-0.490601,-0.198425,-0.815247,0.235352
1470244375626190,-0.479431,-0.177246,-0.826477,0.236023
1470244375643643,-0.466003,-0.159485,-0.836792,0.239258
1470244375663221,-0.452332,-0.141541,-0.846375,0.242981
1470244375685701,-0.439453,-0.118958,-0.855835,0.245667
1470244375704211,-0.425476,-0.0963745,-0.864319,0.250427
1470244375726219,-0.410706,-0.0783081,-0.870972,0.258362
1470244375745765,-0.394958,-0.0648804,-0.876404,0.268005
1470244375763751,-0.379456,-0.0510254,-0.881165,0.277466
1470244375783321,-0.365112,-0.0361938,-0.884338,0.288696
1470244375805790,-0.350037,-0.0235596,-0.886719,0.301086
1470244375823804,-0.333374,-0.0147705,-0.88855,0.314941
1470244375843323,-0.315125,-0.0078125,-0.889954,0.32959
1470244375865842,-0.297791,-0.000305176,-0.889954,0.345459
1470244375883922,-0.282471,0.00933838,-0.888428,0.361694
1470244375904877,-0.267517,0.0200195,-0.885925,0.378418
1470244375925896,-0.253479,0.0325928,-0.882324,0.395325
1470244375943944,-0.239197,0.0446777,-0.877991,0.41217
1470244375964937,-0.224731,0.0545654,-0.873413,0.428528
1470244375985958,-0.21228,0.065918,-0.868042,0.44397
1470244376003966,-0.200867,0.0784912,-0.862061,0.458679
1470244376024985,-0.189697,0.09021,-0.856018,0.472412
1470244376046004,-0.178101,0.101685,-0.849854,0.485535
1470244376063522,-0.166748,0.111633,-0.843811,0.497742
1470244376084539,-0.157715,0.120911,-0.837952,0.508301
1470244376105701,-0.150391,0.128052,-0.832642,0.517456
1470244376123574,-0.144348,0.134338,-0.827759,0.52533
1470244376144592,-0.138245,0.138367,-0.823486,0.532593
1470244376166136,-0.133057,0.141052,-0.81958,0.539185
1470244376183636,-0.130554,0.145508,-0.815613,0.544556
1470244376204646,-0.128662,0.149658,-0.813171,0.547546
1470244376225665,-0.126404,0.154175,-0.811584,0.549194
1470244376243682,-0.125122,0.160828,-0.809204,0.551086
1470244376266223,-0.125183,0.165894,-0.807129,0.552612
1470244376285796,-0.125366,0.166809,-0.806885,0.552612
