timestamp,x,y,z,w
1470243544223051,-0.0726318,0.245544,-0.900818,0.350708
1470243544245590,-0.0725098,0.245422,-0.90094,0.350586
1470243544260605,-0.0723267,0.2453,-0.901001,0.350464
1470243544284125,-0.0723267,0.2453,-0.901001,0.350464
1470243544305646,-0.0722656,0.2453,-0.901001,0.350464
1470243544320660,-0.0722656,0.245361,-0.901001,0.350464
1470243544344179,-0.0722046,0.245361,-0.901001,0.350464
1470243544375207,-0.0722046,0.245361,-0.901001,0.350464
1470243544384232,-0.0722046,0.245361,-0.901001,0.350464
1470243544404734,-0.0721436,0.245361,-0.901001,0.350464
1470243544427270,-0.0721436,0.245361,-0.901001,0.350464
1470243544449287,-0.0720825,0.245361,-0.901001,0.350464
1470243544464300,-0.0720825,0.245544,-0.90094,0.350464
1470243544507826,-0.0720825,0.245544,-0.90094,0.350464
1470243544518335,-0.0720215,0.245605,-0.90094,0.350464
1470243544524342,-0.0720215,0.245605,-0.90094,0.350464
1470243544546360,-0.0720215,0.245605,-0.90094,0.350464
1470243544561877,-0.0719604,0.245605,-0.90094,0.350464
1470243544591409,-0.0719604,0.245605,-0.90094,0.350464
1470243544614922,-0.0719604,0.245605,-0.90094,0.350464
1470243544629936,-0.0719604,0.245605,-0.90094,0.350464
1470243544652456,-0.0718994,0.245667,-0.90094,0.350464
1470243544666969,-0.0718994,0.245667,-0.90094,0.350525
1470243544697497,-0.0718384,0.245667,-0.90094,0.350525
1470243544712510,-0.0718384,0.245667,-0.90094,0.350525
1470243544727524,-0.0718384,0.245728,-0.90094,0.350525
1470243544750044,-0.0718384,0.245728,-0.900879,0.350525
1470243544772564,-0.0718384,0.245728,-0.900879,0.350525
1470243544787077,-0.0717773,0.245789,-0.900879,0.350525
1470243544810098,-0.0717773,0.245789,-0.900879,0.350525
1470243544832618,-0.0717773,0.245789,-0.900879,0.350525
1470243544847131,-0.0717773,0.24585,-0.900879,0.350525
1470243544870152,-0.0717163,0.24585,-0.900879,0.350525
1470243544892672,-0.0717163,0.24585,-0.900879,0.350525
1470243544907184,-0.0716553,0.245911,-0.900879,0.350525
1470243544930206,-0.0716553,0.24585,-0.900879,0.350525
1470243544952726,-0.0716553,0.245911,-0.900879,0.350586
1470243544966738,-0.0715942,0.245911,-0.900879,0.350586
1470243544990259,-0.0715942,0.245911,-0.900818,0.350586
1470243545012780,-0.0715942,0.245972,-0.900818,0.350586
1470243545026794,-0.0715332,0.245972,-0.900818,0.350586
1470243545050314,-0.0715332,0.245972,-0.900818,0.350586
1470243545072334,-0.0715332,0.245972,-0.900818,0.350586
1470243545086847,-0.0715332,0.246033,-0.900818,0.350586
1470243545109867,-0.0715332,0.246033,-0.900818,0.350586
1470243545132387,-0.0715332,0.246033,-0.900818,0.350586
1470243545153408,-0.0714722,0.246094,-0.900818,0.350586
1470243545169921,-0.0714722,0.246094,-0.900818,0.350586
1470243545192443,-0.0714722,0.246155,-0.900818,0.350586
1470243545213459,-0.0714722,0.246155,-0.900757,0.350586
1470243545229975,-0.0714722,0.246155,-0.900757,0.350586
1470243545252495,-0.0714111,0.246155,-0.900757,0.350586
1470243545274014,-0.0714111,0.246216,-0.900757,0.350586
1470243545290029,-0.0714111,0.246216,-0.900757,0.350586
1470243545312550,-0.0713501,0.246216,-0.900757,0.350647
1470243545333568,-0.0713501,0.246277,-0.900757,0.350647
1470243545350085,-0.0713501,0.246277,-0.900757,0.350647
1470243545372603,-0.0712891,0.246277,-0.900757,0.350647
1470243545393622,-0.0712891,0.246338,-0.900757,0.350647
1470243545410136,-0.0712891,0.246338,-0.900757,0.350647
1470243545432657,-0.0712891,0.246338,-0.900757,0.350647
1470243545453676,-0.071228,0.246338,-0.900696,0.350647
1470243545470191,-0.071228,0.246338,-0.900696,0.350647
1470243545491710,-0.071228,0.246338,-0.900696,0.350647
1470243545515231,-0.071167,0.246399,-0.900696,0.350647
1470243545537751,-0.071167,0.246399,-0.900696,0.350647
1470243545551764,-0.071167,0.246399,-0.900696,0.350647
1470243545575284,-0.071106,0.24646,-0.900696,0.350647
1470243545597804,-0.071106,0.24646,-0.900696,0.350708
1470243545611817,-0.071106,0.246521,-0.900696,0.350708
1470243545634838,-0.071106,0.246521,-0.900696,0.350708
1470243545657359,-0.0710449,0.246521,-0.900696,0.350708
1470243545678877,-0.0710449,0.246521,-0.900696,0.350708
1470243545694892,-0.0710449,0.246582,-0.900635,0.350708
1470243545717412,-0.0710449,0.246643,-0.900696,0.350525
1470243545738932,-0.0710449,0.246704,-0.900696,0.350525
1470243545754946,-0.0709839,0.246704,-0.900696,0.350586
1470243545777467,-0.071106,0.246948,-0.900635,0.350403
1470243545798986,-0.071167,0.24707,-0.900696,0.350281
1470243545815000,-0.071167,0.247131,-0.900696,0.350159
1470243545837521,-0.071106,0.247131,-0.900696,0.350159
1470243545859040,-0.071106,0.247192,-0.900696,0.350159
1470243545875055,-0.071106,0.247192,-0.900696,0.350159
1470243545897575,-0.0710449,0.247192,-0.900696,0.350159
1470243545918593,-0.0710449,0.247253,-0.900696,0.350159
1470243545935108,-0.0710449,0.247253,-0.900696,0.350159
1470243545957629,-0.0709839,0.247253,-0.900696,0.350159
1470243545978647,-0.0709839,0.247253,-0.900696,0.350159
1470243545995162,-0.0709839,0.247314,-0.900696,0.35022
1470243546017683,-0.0709839,0.247314,-0.900635,0.350159
1470243546038702,-0.0709839,0.247314,-0.900635,0.35022
1470243546055216,-0.0709839,0.247375,-0.900635,0.35022
1470243546077736,-0.0709229,0.247375,-0.900635,0.35022
1470243546083240,-0.0709229,0.247375,-0.900635,0.35022
1470243546105761,-0.0709229,0.247375,-0.900635,0.35022
1470243546120274,-0.0709229,0.247437,-0.900635,0.35022
1470243546143294,-0.0708618,0.247437,-0.900635,0.35022
1470243546165815,-0.0708618,0.247437,-0.900635,0.35022
1470243546180828,-0.0708618,0.247498,-0.900635,0.35022
1470243546203348,-0.0708008,0.247498,-0.900635,0.35022
1470243546225371,-0.0708008,0.247498,-0.900574,0.35022
1470243546240883,-0.0708008,0.247498,-0.900574,0.35022
1470243546262903,-0.0708008,0.247559,-0.900574,0.35022
1470243546285423,-0.0708008,0.247559,-0.900574,0.35022
1470243546300436,-0.0708008,0.247559,-0.900574,0.35022
1470243546322956,-0.0707397,0.24762,-0.900574,0.35022
1470243546345477,-0.0707397,0.24762,-0.900574,0.35022
1470243546360490,-0.0707397,0.24762,-0.900574,0.35022
1470243546383010,-0.0707397,0.247681,-0.900574,0.35022
1470243546405531,-0.0707397,0.247681,-0.900574,0.35022
1470243546420544,-0.0707397,0.247681,-0.900574,0.350281
1470243546443067,-0.0706787,0.247681,-0.900574,0.350281
1470243546465584,-0.0706787,0.247681,-0.900574,0.350281
1470243546482099,-0.0706787,0.247742,-0.900574,0.350281
1470243546503118,-0.0706787,0.247742,-0.900513,0.350281
1470243546525639,-0.0706787,0.247742,-0.900513,0.350281
1470243546540651,-0.0706787,0.247803,-0.900513,0.350281
1470243546563171,-0.0706787,0.247803,-0.900513,0.350281
1470243546585692,-0.0706787,0.247803,-0.900513,0.350281
1470243546600705,-0.0706787,0.247803,-0.900513,0.350281
1470243546623226,-0.0706787,0.247803,-0.900513,0.350281
1470243546645746,-0.0706177,0.247803,-0.900513,0.350281
1470243546660759,-0.0706177,0.247864,-0.900513,0.350281
1470243546683279,-0.0706177,0.247864,-0.900513,0.350281
1470243546705800,-0.0706177,0.247864,-0.900513,0.350281
1470243546721815,-0.0706177,0.247864,-0.900513,0.350281
1470243546743333,-0.0706177,0.247864,-0.900513,0.350281
1470243546765354,-0.0706177,0.247925,-0.900513,0.350281
1470243546781868,-0.0706177,0.247925,-0.900513,0.350281
1470243546802887,-0.0706177,0.247925,-0.900452,0.350281
1470243546833914,-0.0706177,0.247986,-0.900452,0.350281
1470243546841923,-0.0706177,0.247986,-0.900452,0.350281
1470243546863442,-0.0706177,0.247986,-0.900452,0.350281
1470243546885461,-0.0705566,0.247986,-0.900452,0.350281
1470243546901976,-0.0705566,0.248047,-0.900452,0.350281
1470243546922999,-0.0705566,0.248047,-0.900452,0.350281
1470243546945515,-0.0705566,0.248047,-0.900452,0.350281
1470243546962030,-0.0704956,0.248108,-0.900452,0.350281
1470243546983049,-0.0704956,0.248108,-0.900452,0.350281
1470243547005569,-0.0704956,0.248108,-0.900452,0.350281
1470243547038600,-0.0704956,0.248169,-0.900452,0.350281
1470243547043103,-0.0704346,0.248169,-0.900452,0.350281
1470243547065624,-0.0704346,0.248169,-0.900391,0.350342
1470243547083639,-0.0704346,0.248169,-0.900391,0.350342
1470243547103157,-0.0703735,0.24823,-0.900391,0.350342
1470243547125678,-0.0703735,0.24823,-0.900391,0.350342
1470243547143692,-0.0703735,0.248291,-0.900391,0.350342
1470243547163210,-0.0703735,0.248291,-0.900391,0.350342
1470243547185730,-0.0703735,0.248291,-0.900391,0.350342
1470243547203747,-0.0703735,0.248291,-0.900391,0.350342
1470243547225769,-0.0703735,0.248352,-0.900391,0.350342
1470243547245784,-0.0703125,0.248352,-0.900391,0.350342
1470243547263301,-0.0703125,0.248413,-0.90033,0.350342
1470243547283320,-0.0702515,0.248413,-0.90033,0.350342
1470243547305838,-0.0702515,0.248413,-0.90033,0.350342
1470243547323355,-0.0702515,0.248413,-0.90033,0.350342
1470243547343373,-0.0702515,0.248474,-0.90033,0.350342
1470243547365392,-0.0701904,0.248474,-0.90033,0.350403
1470243547383409,-0.0701904,0.248474,-0.90033,0.350403
1470243547402927,-0.0701904,0.248474,-0.90033,0.350403
1470243547425464,-0.0701904,0.248474,-0.90033,0.350403
1470243547443482,-0.0701294,0.248535,-0.90033,0.350403
1470243547462998,-0.0701294,0.248535,-0.90033,0.350403
1470243547485517,-0.0701294,0.248535,-0.90033,0.350403
1470243547503534,-0.0700684,0.248535,-0.90033,0.350403
1470243547523051,-0.0700684,0.248535,-0.90033,0.350403
1470243547545571,-0.0700684,0.248596,-0.900269,0.350403
1470243547563588,-0.0700684,0.248596,-0.900269,0.350403
1470243547583105,-0.0700073,0.248596,-0.900269,0.350403
1470243547605626,-0.0700073,0.248657,-0.900269,0.350403
1470243547623641,-0.0700073,0.248657,-0.900269,0.350403
1470243547644660,-0.0700073,0.248657,-0.900269,0.350403
1470243547668682,-0.0699463,0.248657,-0.900269,0.350403
1470243547683695,-0.0699463,0.248657,-0.900269,0.350464
1470243547704215,-0.0699463,0.248718,-0.900269,0.350464
1470243547725733,-0.0699463,0.248718,-0.900269,0.350464
1470243547743750,-0.0698853,0.248718,-0.900269,0.350464
1470243547764268,-0.0698853,0.248718,-0.900269,0.350464
1470243547785786,-0.0698853,0.248718,-0.900269,0.350464
1470243547803303,-0.0698853,0.248718,-0.900269,0.350464
1470243547824822,-0.0698242,0.248718,-0.900269,0.350464
1470243547845840,-0.0698242,0.248779,-0.900269,0.350464
1470243547863357,-0.0698242,0.248779,-0.900269,0.350464
1470243547884375,-0.0697632,0.248779,-0.900269,0.350464
1470243547905394,-0.0697632,0.248779,-0.900208,0.350464
1470243547923410,-0.0697632,0.248779,-0.900208,0.350464
1470243547944429,-0.0697632,0.24884,-0.900208,0.350464
1470243547965447,-0.0697632,0.24884,-0.900208,0.350464
1470243547983465,-0.0697021,0.24884,-0.900208,0.350464
1470243548005985,-0.0697021,0.24884,-0.900208,0.350464
1470243548028505,-0.0697021,0.24884,-0.900208,0.350525
1470243548043518,-0.0696411,0.248901,-0.900208,0.350525
1470243548066039,-0.0696411,0.248901,-0.900208,0.350525
1470243548085556,-0.0696411,0.248901,-0.900208,0.350525
1470243548111079,-0.0696411,0.248901,-0.900208,0.350525
1470243548126092,-0.0696411,0.248962,-0.900208,0.350525
1470243548145609,-0.0696411,0.248962,-0.900208,0.350525
1470243548169632,-0.0696411,0.248962,-0.900208,0.350525
1470243548186146,-0.0696411,0.249023,-0.900146,0.350525
1470243548205663,-0.069397,0.24884,-0.900208,0.350525
1470243548223679,-0.069397,0.24884,-0.900208,0.350586
1470243548245700,-0.0692749,0.248962,-0.900146,0.350708
1470243548265717,-0.0692749,0.249023,-0.900085,0.350708
1470243548283233,-0.0689697,0.248962,-0.900085,0.35083
1470243548305753,-0.0686646,0.249023,-0.900146,0.35083
1470243548325771,-0.0682983,0.248901,-0.900146,0.350952
1470243548343287,-0.0682983,0.248901,-0.900146,0.350952
1470243548365808,-0.0682983,0.248901,-0.900146,0.350952
1470243548385325,-0.0682373,0.248901,-0.900146,0.350952
1470243548403342,-0.0682373,0.248962,-0.900146,0.350952
1470243548425862,-0.0682373,0.248962,-0.900146,0.350952
1470243548445880,-0.0682373,0.248962,-0.900146,0.350952
1470243548463395,-0.0681763,0.248962,-0.900085,0.350952
1470243548485916,-0.0681763,0.248962,-0.900085,0.350952
1470243548505433,-0.0681763,0.249023,-0.900085,0.350952
1470243548523449,-0.0681763,0.249023,-0.900085,0.351013
1470243548545969,-0.0681152,0.249023,-0.900085,0.351013
1470243548565487,-0.0681152,0.249023,-0.900085,0.351013
1470243548583505,-0.0681152,0.249023,-0.900085,0.351013
1470243548605023,-0.0681152,0.249084,-0.900085,0.351013
1470243548626043,-0.0681152,0.249084,-0.900085,0.351013
1470243548642557,-0.0680542,0.249084,-0.900085,0.351013
1470243548665076,-0.0680542,0.249084,-0.900085,0.351013
1470243548686096,-0.0680542,0.249084,-0.900085,0.351013
1470243548702610,-0.0679932,0.249084,-0.900085,0.351013
1470243548725132,-0.0679932,0.249084,-0.900085,0.351013
1470243548746162,-0.0679932,0.249146,-0.900085,0.351013
1470243548762685,-0.0679932,0.249207,-0.900024,0.351013
1470243548785184,-0.0679932,0.249207,-0.900024,0.351013
1470243548806204,-0.0679932,0.249207,-0.900024,0.351013
1470243548822718,-0.0679932,0.249268,-0.900024,0.351013
1470243548845259,-0.0679321,0.249268,-0.900024,0.351013
1470243548866257,-0.0679321,0.249268,-0.900024,0.351013
1470243548890279,-0.0679321,0.249268,-0.900024,0.351074
1470243548905292,-0.0679321,0.249329,-0.900024,0.351074
1470243548927824,-0.0678711,0.249329,-0.900024,0.351074
1470243548942838,-0.0678711,0.249329,-0.900024,0.351074
1470243548965374,-0.0678711,0.24939,-0.899963,0.351074
1470243548987880,-0.0678711,0.24939,-0.899963,0.351074
1470243549002891,-0.0678711,0.249451,-0.899963,0.351074
1470243549025412,-0.0678711,0.249451,-0.899963,0.351074
1470243549047933,-0.0678101,0.249451,-0.899963,0.351074
1470243549062946,-0.0678101,0.249512,-0.899963,0.351074
1470243549084996,-0.0678101,0.249512,-0.899963,0.351074
1470243549107987,-0.0678101,0.249573,-0.899963,0.351074
1470243549122000,-0.0678101,0.249573,-0.899963,0.351074
1470243549145020,-0.0678101,0.249634,-0.899902,0.351074
1470243549167547,-0.0678101,0.249634,-0.899902,0.351074
1470243549182053,-0.067749,0.249695,-0.899902,0.351074
1470243549205074,-0.067749,0.249695,-0.899902,0.351074
1470243549227594,-0.067749,0.249695,-0.899902,0.351074
1470243549242106,-0.067749,0.249756,-0.899902,0.351074
1470243549265128,-0.067749,0.249756,-0.899902,0.351074
1470243549287648,-0.067749,0.249817,-0.899902,0.351074
1470243549302162,-0.067749,0.249817,-0.899902,0.351074
1470243549325182,-0.067749,0.249817,-0.899841,0.351074
1470243549347702,-0.067688,0.249878,-0.899841,0.351074
1470243549362215,-0.067688,0.249878,-0.899841,0.351074
1470243549385235,-0.067688,0.249939,-0.899841,0.351074
1470243549407756,-0.067688,0.249939,-0.899841,0.351074
1470243549428775,-0.067688,0.249939,-0.899841,0.351074
1470243549445290,-0.067688,0.25,-0.899841,0.351074
1470243549467810,-0.067688,0.25,-0.899841,0.351074
1470243549496335,-0.067688,0.25,-0.899841,0.351074
1470243549505344,-0.067688,0.25,-0.899841,0.351074
1470243549527864,-0.067688,0.250061,-0.899841,0.351074
1470243549548882,-0.067688,0.250061,-0.89978,0.351074
1470243549565397,-0.067688,0.250061,-0.89978,0.351074
1470243549587417,-0.067688,0.250122,-0.89978,0.351074
1470243549608935,-0.067688,0.250122,-0.89978,0.351074
1470243549625451,-0.067688,0.250122,-0.89978,0.351074
1470243549647471,-0.067688,0.250183,-0.89978,0.351074
1470243549668490,-0.067688,0.250183,-0.89978,0.351074
1470243549685005,-0.067688,0.250244,-0.89978,0.351074
1470243549707524,-0.067688,0.250244,-0.89978,0.351074
1470243549728544,-0.067688,0.250244,-0.89978,0.351074
1470243549745059,-0.067688,0.250305,-0.899719,0.351074
1470243549767579,-0.067688,0.250305,-0.899719,0.351074
1470243549788598,-0.067688,0.250366,-0.899719,0.351074
1470243549804615,-0.067688,0.250366,-0.899719,0.351074
1470243549827633,-0.067688,0.250427,-0.899719,0.351074
1470243549848652,-0.067749,0.250427,-0.899719,0.351074
1470243549865166,-0.067688,0.250488,-0.899719,0.351074
1470243549887693,-0.067688,0.250488,-0.899719,0.351074
1470243549917714,-0.067688,0.250488,-0.899719,0.351074
1470243549925221,-0.067688,0.250488,-0.899658,0.351074
1470243549947740,-0.067688,0.250549,-0.899658,0.351074
1470243549970262,-0.067627,0.250549,-0.899658,0.351074
1470243549985274,-0.067688,0.25061,-0.899658,0.351074
1470243550007795,-0.067688,0.25061,-0.899658,0.351074
1470243550030323,-0.067688,0.250671,-0.899658,0.351074
1470243550044328,-0.0674438,0.250854,-0.899597,0.351074
1470243550067849,-0.0674438,0.250916,-0.899597,0.351074
1470243550090410,-0.0674438,0.250916,-0.899597,0.351074
1470243550104387,-0.0674438,0.250977,-0.899597,0.351074
1470243550127902,-0.0674438,0.250977,-0.899536,0.351074
1470243550150422,-0.0673828,0.251038,-0.899536,0.351135
1470243550164435,-0.0673828,0.251038,-0.899536,0.351135
1470243550187956,-0.0673828,0.251099,-0.899536,0.351135
1470243550209976,-0.0673828,0.25116,-0.899536,0.351135
1470243550224489,-0.0673828,0.25116,-0.899536,0.351135
1470243550247510,-0.0673828,0.251221,-0.899475,0.351135
1470243550270032,-0.0673828,0.251282,-0.899475,0.351135
1470243550284543,-0.0673218,0.251282,-0.899475,0.351135
1470243550307588,-0.0673218,0.251343,-0.899475,0.351135
1470243550330086,-0.0673218,0.251404,-0.899475,0.351135
1470243550344601,-0.0673218,0.251404,-0.899414,0.351135
1470243550367618,-0.0673218,0.251465,-0.899414,0.351135
1470243550390138,-0.0672607,0.251465,-0.899414,0.351135
1470243550411190,-0.0672607,0.251526,-0.899414,0.351135
1470243550427687,-0.0672607,0.251587,-0.899414,0.351135
1470243550450194,-0.0672607,0.251587,-0.899414,0.351135
1470243550471225,-0.0672607,0.251648,-0.899353,0.351135
1470243550487727,-0.0671997,0.251709,-0.899353,0.351135
1470243550510246,-0.0671997,0.251709,-0.899353,0.351135
1470243550531307,-0.0671997,0.25177,-0.899353,0.351135
1470243550547782,-0.0671387,0.25177,-0.899353,0.351135
1470243550570305,-0.0671387,0.251831,-0.899353,0.351135
1470243550591320,-0.0671387,0.251831,-0.899292,0.351135
1470243550607834,-0.0670776,0.251892,-0.899292,0.351135
1470243550630354,-0.0670776,0.251892,-0.899292,0.351196
1470243550651372,-0.0670776,0.251953,-0.899292,0.351196
1470243550667887,-0.0670776,0.251953,-0.899292,0.351196
1470243550690407,-0.0670166,0.252014,-0.899292,0.351196
1470243550711427,-0.0670166,0.252014,-0.899292,0.351196
1470243550727941,-0.0670166,0.252075,-0.899231,0.351196
1470243550749985,-0.0669556,0.252136,-0.899231,0.351196
1470243550771480,-0.0669556,0.252136,-0.899231,0.351196
1470243550787494,-0.0669556,0.252197,-0.899231,0.351196
1470243550810052,-0.0669556,0.252258,-0.899231,0.351196
1470243550833036,-0.0666504,0.252319,-0.89917,0.351318
1470243550847549,-0.0664063,0.252258,-0.89917,0.35144
1470243550870069,-0.065979,0.252075,-0.89917,0.351501
1470243550895093,-0.0645142,0.25177,-0.899292,0.351807
1470243550907602,-0.0629272,0.252319,-0.898743,0.353088
1470243550930124,-0.0626221,0.253235,-0.898254,0.353699
1470243550952644,-0.062561,0.253479,-0.898071,0.354004
1470243550967658,-0.062561,0.253479,-0.89801,0.354126
1470243550997683,-0.0625,0.25354,-0.89801,0.354126
1470243551012698,-0.0625,0.25354,-0.89801,0.354187
1470243551027211,-0.0627441,0.253845,-0.897949,0.354004
1470243551050230,-0.0627441,0.253906,-0.897949,0.354004
1470243551072751,-0.0628052,0.253906,-0.897949,0.354004
1470243551087263,-0.0627441,0.253967,-0.897949,0.354004
1470243551110285,-0.0627441,0.253967,-0.897949,0.354004
1470243551132805,-0.0627441,0.254028,-0.897949,0.354004
1470243551147318,-0.0627441,0.254028,-0.897949,0.354004
1470243551170339,-0.0627441,0.254028,-0.897888,0.354004
1470243551192859,-0.0627441,0.254089,-0.897888,0.354004
1470243551206871,-0.0627441,0.254089,-0.897888,0.354004
1470243551230392,-0.0627441,0.25415,-0.897888,0.354004
1470243551252913,-0.0626831,0.253967,-0.897888,0.354004
1470243551266925,-0.0627441,0.253784,-0.897949,0.354126
1470243551289973,-0.0629883,0.253845,-0.897888,0.354126
1470243551312968,-0.0629272,0.253906,-0.897888,0.354126
1470243551334052,-0.0630493,0.253723,-0.897888,0.354248
1470243551350000,-0.0631714,0.253479,-0.897949,0.354248
1470243551372522,-0.0634766,0.25354,-0.897888,0.354187
1470243551394039,-0.0637817,0.253479,-0.897949,0.354126
1470243551410053,-0.064209,0.25354,-0.89801,0.353882
1470243551432606,-0.0645142,0.253418,-0.898071,0.35376
1470243551454137,-0.0646973,0.253296,-0.898132,0.353638
1470243551470142,-0.0646973,0.253296,-0.898132,0.353638
1470243551492628,-0.0646973,0.253296,-0.898132,0.353638
1470243551513661,-0.0648193,0.253479,-0.898071,0.353577
1470243551530162,-0.0650024,0.253418,-0.898071,0.353516
1470243551552732,-0.0650635,0.253113,-0.898132,0.353577
1470243551573729,-0.0650024,0.253113,-0.898132,0.353577
1470243551590215,-0.0652466,0.253418,-0.898071,0.353577
1470243551612736,-0.0652466,0.253479,-0.898071,0.353577
1470243551633785,-0.0649414,0.25354,-0.89801,0.353699
1470243551650269,-0.0649414,0.25354,-0.89801,0.353699
1470243551672800,-0.0646973,0.25354,-0.897949,0.353821
1470243551693842,-0.0646973,0.253601,-0.897949,0.353821
1470243551710324,-0.0646973,0.253601,-0.897949,0.353821
1470243551732862,-0.0646973,0.253662,-0.897949,0.353821
1470243551753884,-0.0646973,0.253662,-0.897949,0.353821
1470243551770378,-0.0646973,0.253662,-0.897949,0.353821
1470243551792897,-0.0646973,0.25354,-0.89801,0.35376
1470243551814917,-0.0646973,0.253601,-0.89801,0.35376
1470243551830430,-0.0646973,0.253601,-0.89801,0.35376
1470243551852455,-0.0646973,0.253601,-0.89801,0.35376
1470243551874975,-0.0646973,0.253601,-0.89801,0.35376
1470243551896561,-0.0646973,0.25354,-0.89801,0.35376
1470243551912505,-0.0646973,0.253357,-0.898071,0.35376
1470243551935025,-0.0646973,0.253418,-0.89801,0.35376
1470243551949538,-0.0646973,0.253418,-0.89801,0.35376
1470243551972558,-0.0646973,0.253418,-0.89801,0.35376
1470243551995081,-0.0646973,0.253418,-0.89801,0.35376
1470243552009594,-0.0646973,0.253479,-0.89801,0.35376
1470243552032632,-0.0645142,0.253784,-0.897888,0.354004
1470243552055155,-0.0645142,0.253784,-0.897827,0.354004
1470243552069646,-0.0643921,0.254028,-0.897705,0.354126
1470243552092667,-0.06427,0.254395,-0.897644,0.354126
1470243552115186,-0.0640869,0.2547,-0.897583,0.354126
1470243552129700,-0.0638428,0.254822,-0.897522,0.354126
1470243552152724,-0.0635986,0.254883,-0.897461,0.354309
1470243552175240,-0.0634155,0.255127,-0.897339,0.354553
1470243552196275,-0.0631104,0.255615,-0.897156,0.354736
1470243552212776,-0.0629883,0.256226,-0.896912,0.354858
1470243552235296,-0.0628662,0.256653,-0.89679,0.354858
1470243552249814,-0.0626221,0.256958,-0.896667,0.35498
1470243552272828,-0.0625,0.257324,-0.896545,0.355103
1470243552295349,-0.0623779,0.257935,-0.896301,0.355347
1470243552316367,-0.0621948,0.258606,-0.896057,0.355469
1470243552333382,-0.0618896,0.259216,-0.895813,0.355774
1470243552355404,-0.0615234,0.260132,-0.895447,0.356079
1470243552376429,-0.0612793,0.261353,-0.894897,0.356445
1470243552392937,-0.0610352,0.263123,-0.894287,0.356873
1470243552414976,-0.0609131,0.265442,-0.893494,0.357117
1470243552436567,-0.0609131,0.267883,-0.892578,0.357483
1470243552452991,-0.0608521,0.270508,-0.891663,0.357971
1470243552475011,-0.0610962,0.273499,-0.890564,0.358337
1470243552496621,-0.0616455,0.276306,-0.889587,0.358521
1470243552513043,-0.0621338,0.278564,-0.888855,0.358521
1470243552535064,-0.0623169,0.280029,-0.888367,0.358459
1470243552556122,-0.0626221,0.280945,-0.888062,0.358459
1470243552572602,-0.0628052,0.281433,-0.887878,0.358459
1470243552595118,-0.0630493,0.281738,-0.887817,0.358459
1470243552616637,-0.0632935,0.281494,-0.887939,0.358276
1470243552632655,-0.0633545,0.28064,-0.888306,0.357971
1470243552655173,-0.0633545,0.278992,-0.889038,0.357422
1470243552676248,-0.0631714,0.276123,-0.890259,0.35675
1470243552698767,-0.0629272,0.271912,-0.891785,0.356079
1470243552715227,-0.0629272,0.267029,-0.893555,0.355408
1470243552737766,-0.0632324,0.26239,-0.895142,0.354919
1470243552752258,-0.0637817,0.259094,-0.89624,0.354431
1470243552775280,-0.0646362,0.257507,-0.89679,0.354004
1470243552797801,-0.0658569,0.256836,-0.896973,0.35376
1470243552812312,-0.0670166,0.25647,-0.897095,0.353577
1470243552835333,-0.067749,0.256165,-0.897156,0.353394
1470243552857854,-0.0680542,0.256165,-0.897278,0.353149
1470243552871866,-0.0681763,0.256104,-0.8974,0.352783
1470243552895387,-0.0682983,0.256165,-0.897461,0.352478
1470243552917907,-0.0682983,0.256165,-0.897461,0.352478
1470243552931920,-0.0682983,0.256165,-0.897461,0.352478
1470243552954941,-0.0683594,0.255859,-0.897522,0.3526
1470243552977461,-0.0683594,0.255493,-0.897583,0.352783
1470243552991975,-0.0684814,0.25531,-0.897461,0.353088
1470243553015494,-0.0686035,0.255188,-0.897339,0.353455
1470243553037515,-0.0687256,0.255066,-0.897278,0.35376
1470243553052028,-0.0688477,0.254822,-0.897217,0.353943
1470243553075049,-0.0689087,0.254578,-0.897278,0.354126
1470243553097569,-0.0689087,0.254578,-0.897217,0.354126
1470243553112083,-0.0690918,0.254517,-0.897156,0.35437
1470243553135102,-0.0692749,0.254517,-0.897034,0.354675
1470243553158125,-0.0692749,0.2547,-0.896851,0.355042
1470243553172136,-0.069397,0.255066,-0.896606,0.355286
1470243553195157,-0.069458,0.255432,-0.896423,0.355408
1470243553217677,-0.069458,0.255432,-0.896423,0.355408
1470243553238696,-0.069397,0.255798,-0.896423,0.355286
1470243553255210,-0.0692749,0.256042,-0.896423,0.355103
1470243553277731,-0.0690308,0.256226,-0.896423,0.355042
1470243553299263,-0.0687256,0.256409,-0.896362,0.355042
1470243553315264,-0.0684204,0.256653,-0.896362,0.35498
1470243553337784,-0.0682983,0.256775,-0.896301,0.35498
1470243553358805,-0.0682373,0.256775,-0.896301,0.355042
1470243553375334,-0.0682373,0.256775,-0.896301,0.355042
1470243553397838,-0.0682373,0.256836,-0.896301,0.355042
1470243553418899,-0.0681763,0.257019,-0.89624,0.355164
1470243553435384,-0.0681763,0.25708,-0.896179,0.355103
1470243553457894,-0.0682373,0.25708,-0.896179,0.355103
1470243553478940,-0.0682373,0.25708,-0.896179,0.355103
1470243553494927,-0.0682373,0.25708,-0.896179,0.355103
1470243553517448,-0.0681763,0.25708,-0.896179,0.355103
1470243553538965,-0.0681763,0.25708,-0.896179,0.355103
1470243553555481,-0.0681763,0.25708,-0.896179,0.355103
1470243553577503,-0.0681763,0.25708,-0.896179,0.355103
1470243553599042,-0.0681763,0.25708,-0.896179,0.355103
1470243553615533,-0.0682373,0.257141,-0.896179,0.355103
1470243553637556,-0.0682373,0.257141,-0.896179,0.355103
1470243553659072,-0.0682373,0.257141,-0.896179,0.355103
1470243553675087,-0.0682373,0.257141,-0.896179,0.355103
1470243553697629,-0.0682373,0.257141,-0.896179,0.355103
1470243553720128,-0.0682373,0.257141,-0.896179,0.355103
1470243553735141,-0.0679932,0.25708,-0.896179,0.355164
1470243553757661,-0.067627,0.257019,-0.89624,0.355164
1470243553780182,-0.0674438,0.25708,-0.89624,0.355103
1470243553795196,-0.0674438,0.25708,-0.89624,0.355103
1470243553817715,-0.0674438,0.25708,-0.89624,0.355103
1470243553840236,-0.0674438,0.25708,-0.89624,0.355103
1470243553845740,-0.0673828,0.257019,-0.89624,0.355164
1470243553862255,-0.0673828,0.257019,-0.89624,0.355164
1470243553883277,-0.0673828,0.257019,-0.89624,0.355164
1470243553905794,-0.0673828,0.257019,-0.89624,0.355164
1470243553923811,-0.0673828,0.257019,-0.89624,0.355164
1470243553943328,-0.0673828,0.25708,-0.89624,0.355164
1470243553965869,-0.0674438,0.25708,-0.89624,0.355103
1470243553981863,-0.0674438,0.25708,-0.89624,0.355103
1470243554003423,-0.0673828,0.25708,-0.89624,0.355164
1470243554025902,-0.0673828,0.25708,-0.89624,0.355164
1470243554041919,-0.0672607,0.257141,-0.896179,0.355286
1470243554063441,-0.0669556,0.257141,-0.896179,0.355469
1470243554086019,-0.0667114,0.257202,-0.896118,0.355469
1470243554101983,-0.0665894,0.257385,-0.896118,0.355469
1470243554130997,-0.0665283,0.257568,-0.896057,0.355408
1470243554145523,-0.0664063,0.257813,-0.895996,0.355347
1470243554162024,-0.0664063,0.257813,-0.895996,0.355347
1470243554183076,-0.0664063,0.257813,-0.895996,0.355347
1470243554205597,-0.0662231,0.258057,-0.895935,0.355408
1470243554222079,-0.065979,0.258179,-0.895935,0.355347
1470243554243181,-0.0657349,0.258484,-0.895874,0.355347
1470243554274162,-0.0655518,0.258728,-0.895813,0.355347
1470243554282132,-0.0655518,0.258728,-0.895813,0.355347
1470243554303661,-0.0655518,0.258728,-0.895813,0.355347
1470243554328745,-0.0655518,0.258728,-0.895813,0.355347
1470243554342187,-0.0655518,0.258728,-0.895813,0.355347
1470243554363207,-0.0655518,0.258728,-0.895813,0.355347
1470243554385757,-0.0654907,0.258911,-0.895752,0.355469
1470243554402240,-0.0653076,0.259033,-0.895691,0.35553
1470243554423289,-0.0651855,0.259277,-0.89563,0.35553
1470243554445807,-0.0652466,0.259338,-0.89563,0.35553
1470243554462302,-0.0652466,0.259338,-0.89563,0.35553
1470243554483357,-0.0652466,0.259338,-0.89563,0.35553
1470243554505934,-0.0651855,0.259338,-0.89563,0.35553
1470243554522378,-0.0651855,0.259338,-0.895569,0.35553
1470243554543388,-0.0651855,0.259338,-0.895569,0.35553
1470243554565887,-0.0651855,0.259338,-0.895569,0.35553
1470243554581901,-0.0651855,0.259338,-0.895569,0.35553
1470243554610937,-0.0651855,0.259338,-0.895569,0.35553
1470243554625940,-0.0651855,0.259399,-0.895569,0.35553
1470243554643470,-0.0651855,0.259399,-0.895569,0.35553
1470243554663488,-0.0651855,0.259399,-0.895569,0.35553
1470243554686130,-0.0651855,0.25946,-0.895569,0.35553
1470243554704013,-0.0651855,0.25946,-0.895569,0.35553
1470243554723632,-0.0650024,0.259583,-0.895508,0.355591
1470243554746056,-0.0647583,0.259705,-0.895508,0.355591
1470243554763564,-0.0645752,0.259827,-0.895508,0.35553
1470243554783084,-0.0646362,0.259827,-0.895508,0.35553
1470243554805602,-0.0645752,0.259827,-0.895508,0.35553
1470243554823650,-0.0645752,0.259827,-0.895508,0.35553
1470243554843150,-0.0646362,0.259827,-0.895508,0.355591
1470243554866158,-0.0646973,0.259583,-0.895508,0.355713
1470243554883706,-0.0646362,0.259277,-0.895508,0.355896
1470243554903217,-0.0645752,0.259094,-0.895508,0.35614
1470243554925755,-0.0645142,0.258972,-0.895386,0.356445
1470243554943776,-0.0645142,0.258972,-0.895325,0.356689
1470243554963271,-0.0645142,0.258972,-0.895325,0.356689
1470243554985781,-0.0645142,0.259033,-0.895264,0.356689
1470243555003784,-0.0645142,0.259033,-0.895264,0.356689
1470243555023333,-0.0645142,0.25885,-0.895325,0.356689
1470243555045853,-0.064209,0.258728,-0.895386,0.35675
1470243555063937,-0.0639038,0.258728,-0.895325,0.356934
1470243555083352,-0.0636597,0.258789,-0.895264,0.357056
1470243555105907,-0.0634155,0.258972,-0.895203,0.357056
1470243555123388,-0.0632935,0.259155,-0.895203,0.356934
1470243555143406,-0.0632935,0.259155,-0.895203,0.356934
1470243555165925,-0.0632935,0.259155,-0.895203,0.356934
1470243555183490,-0.0632935,0.259155,-0.895203,0.356934
1470243555205963,-0.0632935,0.259216,-0.895203,0.356934
1470243555225979,-0.0632935,0.259216,-0.895203,0.356934
1470243555243998,-0.0632935,0.259216,-0.895203,0.356934
1470243555264515,-0.0632935,0.259216,-0.895203,0.356934
1470243555285568,-0.0635986,0.259033,-0.895264,0.356873
1470243555303601,-0.0639038,0.258789,-0.895325,0.356873
1470243555324568,-0.06427,0.258606,-0.895325,0.356873
1470243555345620,-0.0645142,0.258301,-0.895325,0.357117
1470243555363633,-0.0646973,0.258057,-0.895325,0.3573
1470243555384628,-0.0646973,0.257813,-0.895325,0.357422
1470243555406153,-0.0646973,0.25769,-0.895264,0.357605
1470243555423702,-0.0646362,0.257568,-0.895325,0.357666
1470243555444686,-0.0646973,0.257568,-0.895325,0.357666
1470243555465710,-0.0646973,0.257629,-0.895325,0.357666
1470243555483776,-0.0650024,0.257629,-0.895325,0.357422
1470243555504751,-0.0650024,0.257629,-0.895325,0.357422
1470243555525751,-0.0649414,0.257629,-0.895325,0.357422
1470243555543765,-0.0649414,0.257629,-0.895325,0.357422
1470243555564804,-0.0647583,0.257629,-0.895325,0.357483
1470243555585858,-0.0645752,0.257874,-0.895264,0.357544
1470243555603819,-0.0645142,0.257996,-0.895264,0.357483
1470243555625839,-0.0645142,0.257996,-0.895264,0.357483
1470243555645860,-0.0646973,0.258179,-0.895264,0.3573
1470243555663372,-0.0648193,0.25824,-0.895325,0.357056
1470243555685893,-0.0648193,0.25824,-0.895325,0.357056
1470243555705910,-0.0647583,0.25824,-0.895325,0.357056
1470243555723485,-0.0647583,0.25824,-0.895325,0.357056
1470243555750951,-0.0647583,0.25824,-0.895325,0.357056
1470243555765964,-0.0647583,0.25824,-0.895325,0.357056
1470243555790987,-0.0648193,0.25824,-0.895325,0.357056
1470243555806002,-0.0648804,0.258301,-0.895325,0.356995
1470243555826018,-0.0652466,0.258301,-0.895386,0.356873
1470243555843535,-0.0655518,0.258179,-0.895447,0.35675
1470243555866074,-0.0658569,0.258057,-0.895447,0.356812
1470243555885572,-0.065979,0.257874,-0.895386,0.356934
1470243555903601,-0.06604,0.25769,-0.895386,0.357117
1470243555926611,-0.06604,0.257568,-0.895386,0.357239
1470243555946134,-0.06604,0.257568,-0.895386,0.357239
1470243555963700,-0.0661621,0.257629,-0.895386,0.357239
1470243555986208,-0.0665283,0.257629,-0.895386,0.357117
1470243556005722,-0.0670776,0.257629,-0.895386,0.356934
1470243556023768,-0.0674438,0.257446,-0.895508,0.35675
1470243556046243,-0.067688,0.257263,-0.895569,0.35675
1470243556065761,-0.067749,0.256958,-0.89563,0.35675
1470243556083751,-0.067749,0.256714,-0.895691,0.356812
1470243556106270,-0.067749,0.256714,-0.895691,0.356812
1470243556125790,-0.0678101,0.256775,-0.895691,0.35675
1470243556143872,-0.0678101,0.256775,-0.89563,0.35675
1470243556166324,-0.0678711,0.256836,-0.89563,0.35675
1470243556186850,-0.0681763,0.256897,-0.89563,0.356628
1470243556203871,-0.0684204,0.256775,-0.895752,0.356445
1470243556226399,-0.0684814,0.256531,-0.895874,0.356384
1470243556247396,-0.0684204,0.256226,-0.895935,0.356384
1470243556263988,-0.0683594,0.25592,-0.895996,0.356445
1470243556286432,-0.0682373,0.255798,-0.895996,0.356506
1470243556306951,-0.0682983,0.255859,-0.895996,0.356506
1470243556323466,-0.0682983,0.255859,-0.895996,0.356506
1470243556345987,-0.0683594,0.255859,-0.895996,0.356445
1470243556366560,-0.0687256,0.255859,-0.895996,0.356323
1470243556383018,-0.0689697,0.255676,-0.896118,0.356262
1470243556405538,-0.0690918,0.255432,-0.896118,0.356262
1470243556426558,-0.0690308,0.255188,-0.896179,0.356384
1470243556442573,-0.0690308,0.255188,-0.896179,0.356384
1470243556465100,-0.0689697,0.255127,-0.896179,0.356506
1470243556486611,-0.0689697,0.255127,-0.896179,0.356506
1470243556502625,-0.0690308,0.255127,-0.896118,0.356506
1470243556525648,-0.0690918,0.255127,-0.896118,0.356506
1470243556547667,-0.0692749,0.255188,-0.896118,0.356445
1470243556562680,-0.0692749,0.255188,-0.896118,0.356445
1470243556585200,-0.0692749,0.255188,-0.896118,0.356506
1470243556607720,-0.0692749,0.255188,-0.896118,0.356506
1470243556622736,-0.0692749,0.255249,-0.896118,0.356506
1470243556645256,-0.0692749,0.255249,-0.896118,0.356445
1470243556667774,-0.0693359,0.255249,-0.896118,0.356445
1470243556682287,-0.0695801,0.255493,-0.896057,0.356323
1470243556705353,-0.0698242,0.255676,-0.896057,0.35614
1470243556727846,-0.0699463,0.255615,-0.896118,0.356018
1470243556742341,-0.0699463,0.255615,-0.896118,0.356018
1470243556765362,-0.0698853,0.255615,-0.896118,0.356079
1470243556787884,-0.0695801,0.255615,-0.896057,0.356201
1470243556802405,-0.0693359,0.255676,-0.896057,0.356323
1470243556825416,-0.0691528,0.255859,-0.895935,0.356384
1470243556847956,-0.0690918,0.256165,-0.895874,0.356445
1470243556861948,-0.0692749,0.256531,-0.895813,0.356323
1470243556885486,-0.069397,0.256653,-0.895813,0.35614
1470243556907989,-0.069397,0.256592,-0.895874,0.355957
1470243556922037,-0.069397,0.256592,-0.895935,0.355957
1470243556945524,-0.0691528,0.256287,-0.895935,0.35614
1470243556968044,-0.0688477,0.256226,-0.895874,0.356384
1470243556982109,-0.0686646,0.256348,-0.895752,0.356689
1470243557005077,-0.0686035,0.256531,-0.89563,0.356812
1470243557027602,-0.0687256,0.256714,-0.895569,0.356873
1470243557049116,-0.0687256,0.256714,-0.895569,0.356873
1470243557065131,-0.0689087,0.256775,-0.89563,0.356689
1470243557087691,-0.0689697,0.256775,-0.895691,0.356445
1470243557109171,-0.0689697,0.256775,-0.895691,0.356506
1470243557125186,-0.0689087,0.256775,-0.895691,0.356506
1470243557147731,-0.0686646,0.256836,-0.89563,0.356567
1470243557168803,-0.0684814,0.257019,-0.895569,0.356628
1470243557185254,-0.0684204,0.257324,-0.895508,0.356628
1470243557207761,-0.0686035,0.257629,-0.895386,0.356628
1470243557228811,-0.0688477,0.258057,-0.895325,0.356506
1470243557245292,-0.0690308,0.25824,-0.895325,0.356262
1470243557267812,-0.0690308,0.25824,-0.895386,0.356201
1470243557288885,-0.0690308,0.25824,-0.895386,0.356201
1470243557305347,-0.0687256,0.258057,-0.895386,0.356323
1470243557327903,-0.0684814,0.257996,-0.895386,0.356445
1470243557348938,-0.0682983,0.258057,-0.895325,0.356506
1470243557365415,-0.0683594,0.258118,-0.895325,0.356506
1470243557387921,-0.0686035,0.258362,-0.895264,0.356445
1470243557408940,-0.0689087,0.258545,-0.895264,0.356201
1470243557425456,-0.0690918,0.258484,-0.895325,0.356079
1470243557447974,-0.0691528,0.258301,-0.895447,0.356018
1470243557469035,-0.0689697,0.258057,-0.895447,0.356079
1470243557485508,-0.0685425,0.257874,-0.895508,0.356262
1470243557508028,-0.0682373,0.257813,-0.895447,0.356445
1470243557530555,-0.0680542,0.257874,-0.895386,0.356567
1470243557545067,-0.067749,0.257874,-0.895386,0.356628
1470243557567606,-0.067749,0.258057,-0.895264,0.35675
1470243557590112,-0.067749,0.258118,-0.895264,0.35675
1470243557605118,-0.067688,0.258057,-0.895264,0.356812
1470243557627639,-0.067627,0.258057,-0.895264,0.356812
1470243557650156,-0.0670166,0.257568,-0.895386,0.357117
1470243557664684,-0.0662842,0.257446,-0.895325,0.357483
1470243557687698,-0.0656128,0.257935,-0.895081,0.357849
1470243557710211,-0.0650635,0.258484,-0.894714,0.358337
1470243557724723,-0.0647583,0.258728,-0.894592,0.358643
1470243557747743,-0.0643311,0.257935,-0.894836,0.358582
1470243557770269,-0.064209,0.257446,-0.89502,0.358582
1470243557784780,-0.0645142,0.257324,-0.894836,0.358948
1470243557807798,-0.0646973,0.256897,-0.894714,0.359558
1470243557830318,-0.0644531,0.256287,-0.894714,0.360107
1470243557844832,-0.0639038,0.255554,-0.894714,0.360779
1470243557867851,-0.0634155,0.255249,-0.894592,0.361328
1470243557890372,-0.0632935,0.255188,-0.894531,0.361511
1470243557904885,-0.0633545,0.255188,-0.894531,0.361511
1470243557927919,-0.0638428,0.25531,-0.894531,0.361389
1470243557950426,-0.0639648,0.255005,-0.894714,0.361145
1470243557971521,-0.064209,0.255005,-0.894714,0.361023
1470243557987959,-0.0644531,0.25531,-0.894653,0.360962
1470243558010482,-0.0645142,0.255554,-0.89447,0.361145
1470243558031999,-0.0640869,0.255432,-0.89447,0.361389
1470243558048013,-0.0635376,0.25531,-0.89447,0.361572
1470243558070534,-0.0634766,0.255554,-0.894409,0.361511
1470243558099064,-0.0635376,0.255615,-0.894409,0.361511
1470243558108068,-0.0637817,0.255615,-0.89447,0.361328
1470243558130588,-0.0640259,0.255493,-0.894531,0.361206
1470243558151608,-0.064209,0.255493,-0.894531,0.361206
1470243558167638,-0.0641479,0.255432,-0.894531,0.361206
1470243558190141,-0.0638428,0.25531,-0.89447,0.361389
1470243558211665,-0.0635986,0.255249,-0.894531,0.361511
1470243558227676,-0.0634766,0.255188,-0.894531,0.36145
1470243558250195,-0.0635376,0.25531,-0.894653,0.361145
1470243558271714,-0.0639038,0.255371,-0.894714,0.360779
1470243558287728,-0.0643311,0.255432,-0.894836,0.360474
1470243558310249,-0.0646973,0.255432,-0.894897,0.360229
1470243558331769,-0.0648804,0.255371,-0.894958,0.360107
1470243558347783,-0.0648804,0.255371,-0.894958,0.360107
1470243558370305,-0.0648193,0.255432,-0.894958,0.360107
1470243558391823,-0.0646973,0.255432,-0.894958,0.359985
1470243558407836,-0.0646973,0.255432,-0.894958,0.359985
1470243558430358,-0.0651245,0.255554,-0.89502,0.359802
1470243558452911,-0.0658569,0.255737,-0.894958,0.359619
1470243558467923,-0.0667114,0.25592,-0.894897,0.359497
1470243558490444,-0.0670776,0.255981,-0.894836,0.359558
1470243558512965,-0.0671387,0.255859,-0.894836,0.35968
1470243558526978,-0.0670166,0.255676,-0.894836,0.359802
1470243558550497,-0.0668335,0.255493,-0.894836,0.359924
1470243558573017,-0.0666504,0.25531,-0.894897,0.359985
1470243558587066,-0.0667114,0.25531,-0.894897,0.359924
1470243558610551,-0.0667114,0.25531,-0.894897,0.359924
1470243558632572,-0.0670776,0.255249,-0.894897,0.359985
1470243558647087,-0.0672607,0.25531,-0.894775,0.360107
1470243558670637,-0.0673828,0.255371,-0.894653,0.360352
1470243558693126,-0.0673218,0.255249,-0.894592,0.360596
1470243558707139,-0.0673828,0.255066,-0.894531,0.36084
1470243558730660,-0.0678711,0.255432,-0.894287,0.361084
1470243558752679,-0.0687256,0.256226,-0.893982,0.361206
1470243558767192,-0.0695801,0.256897,-0.893677,0.361206
1470243558790213,-0.0696411,0.256958,-0.893677,0.361145
1470243558812733,-0.0697021,0.256958,-0.893677,0.361145
1470243558827246,-0.0699463,0.256897,-0.893738,0.361145
1470243558850267,-0.0698853,0.256897,-0.893738,0.361145
1470243558872795,-0.0698242,0.256897,-0.893738,0.361145
1470243558894312,-0.069458,0.256775,-0.893738,0.361267
1470243558910321,-0.0690308,0.256836,-0.893738,0.361267
1470243558932842,-0.0687866,0.256897,-0.893799,0.361206
1470243558953861,-0.0686035,0.256836,-0.89386,0.361145
1470243558970374,-0.0687256,0.257019,-0.893799,0.360962
1470243558992895,-0.0690308,0.257324,-0.89386,0.360657
1470243559013914,-0.0690918,0.257385,-0.893921,0.360474
1470243559030434,-0.0689697,0.257263,-0.893982,0.360474
1470243559052949,-0.0686646,0.256897,-0.894043,0.360474
1470243559073977,-0.0682373,0.256653,-0.894165,0.360535
1470243559090482,-0.0679321,0.256592,-0.894226,0.360474
1470243559113003,-0.0678101,0.256409,-0.894287,0.360413
1470243559134022,-0.0678711,0.256409,-0.894287,0.360413
1470243559158060,-0.0678711,0.25647,-0.894287,0.360413
1470243559172575,-0.0680542,0.25647,-0.894348,0.360291
1470243559194110,-0.0679932,0.256104,-0.89447,0.360168
1470243559210590,-0.067688,0.255615,-0.894653,0.360168
1470243559232631,-0.0672607,0.255005,-0.894836,0.360168
1470243559254174,-0.0666504,0.254456,-0.89502,0.360291
1470243559270645,-0.0662231,0.25415,-0.89502,0.360474
1470243559292664,-0.06604,0.254211,-0.894897,0.360779
1470243559314226,-0.065918,0.254333,-0.894775,0.361084
1470243559330198,-0.0664673,0.254883,-0.894592,0.360962
1470243559352720,-0.0668335,0.25531,-0.894531,0.360779
1470243559375238,-0.0669556,0.255249,-0.894592,0.360596
1470243559390254,-0.0669556,0.255066,-0.894653,0.360657
1470243559412802,-0.0669556,0.254822,-0.894714,0.360718
1470243559435296,-0.0669556,0.254822,-0.894714,0.360718
1470243559450305,-0.0669556,0.254822,-0.894714,0.360718
1470243559472826,-0.0669556,0.254822,-0.894714,0.360718
1470243559495347,-0.0670166,0.254822,-0.894714,0.360718
1470243559510360,-0.0675049,0.254944,-0.894653,0.360596
1470243559532880,-0.0678711,0.254944,-0.894714,0.360474
1470243559555401,-0.0682373,0.255005,-0.894653,0.360413
1470243559569913,-0.0683594,0.254944,-0.894653,0.360413
1470243559592934,-0.0683594,0.254883,-0.894653,0.360474
1470243559615454,-0.0682983,0.254944,-0.894653,0.360474
1470243559629466,-0.0683594,0.254944,-0.894653,0.360474
1470243559652987,-0.0684204,0.254944,-0.894653,0.360413
1470243559675509,-0.0684814,0.255005,-0.894653,0.360413
1470243559689521,-0.0689087,0.255066,-0.894653,0.360229
1470243559713041,-0.0692749,0.255127,-0.894653,0.360168
1470243559735565,-0.069519,0.255127,-0.894592,0.360229
1470243559749575,-0.0695801,0.255005,-0.894592,0.360413
1470243559772595,-0.069519,0.255005,-0.89447,0.360596
1470243559795615,-0.0695801,0.255066,-0.89447,0.360596
1470243559809628,-0.069519,0.255249,-0.894409,0.360596
1470243559832649,-0.0697021,0.255554,-0.894348,0.360535
1470243559855169,-0.0699463,0.25592,-0.894348,0.360291
1470243559876688,-0.0701904,0.256165,-0.894348,0.360046
1470243559892704,-0.0702515,0.256287,-0.894348,0.359924
1470243559915235,-0.0702515,0.256287,-0.894348,0.359924
1470243559936292,-0.0701904,0.256287,-0.894348,0.359924
1470243559952775,-0.0698853,0.256226,-0.894348,0.359985
1470243559975294,-0.0695801,0.256226,-0.894348,0.360046
1470243559996851,-0.069397,0.256348,-0.894348,0.359985
1470243560012828,-0.069397,0.256531,-0.894287,0.360046
1470243560034851,-0.069519,0.256836,-0.894226,0.360046
1470243560056369,-0.0695801,0.256836,-0.894165,0.360046
1470243560080443,-0.069519,0.256836,-0.894165,0.360046
1470243560095401,-0.069519,0.256836,-0.894165,0.360046
1470243560116476,-0.069519,0.256836,-0.894165,0.360046
1470243560132936,-0.0692139,0.256836,-0.894165,0.360107
1470243560155459,-0.0689697,0.256897,-0.894165,0.360168
1470243560176479,-0.0689087,0.257019,-0.894165,0.360107
1470243560192990,-0.0689697,0.257019,-0.894165,0.360107
1470243560215510,-0.0689697,0.257019,-0.894165,0.360107
1470243560236528,-0.0691528,0.257141,-0.894043,0.360229
1470243560253048,-0.0692139,0.257263,-0.893921,0.360474
1470243560275563,-0.0691528,0.257385,-0.893799,0.360718
1470243560297632,-0.0691528,0.257385,-0.893799,0.360718
1470243560313100,-0.0690308,0.257568,-0.893799,0.360657
1470243560335617,-0.0690308,0.257751,-0.893738,0.360535
1470243560358137,-0.0692749,0.257996,-0.893799,0.360291
1470243560373150,-0.0695801,0.258118,-0.89386,0.359924
1470243560395676,-0.0698853,0.25824,-0.893921,0.359741
1470243560418191,-0.0700684,0.258179,-0.893921,0.35968
1470243560432709,-0.0700073,0.258179,-0.893921,0.35968
1470243560455233,-0.0697021,0.258118,-0.893921,0.359863
1470243560477747,-0.0692749,0.258118,-0.89386,0.359985
1470243560492259,-0.0688477,0.25824,-0.89386,0.359985
1470243560515278,-0.0686646,0.258484,-0.89386,0.359924
1470243560537799,-0.0687256,0.258667,-0.89386,0.35968
1470243560552339,-0.0687866,0.258667,-0.893982,0.359436
1470243560575334,-0.0689087,0.258606,-0.894043,0.359314
1470243560597853,-0.0689087,0.258606,-0.894043,0.359314
1470243560612365,-0.0686035,0.258362,-0.894043,0.359497
1470243560635386,-0.0682373,0.258118,-0.894043,0.359741
1470243560657906,-0.0679932,0.258118,-0.894043,0.359863
1470243560671919,-0.0679321,0.258179,-0.893982,0.359924
1470243560695442,-0.0679932,0.258179,-0.893982,0.359863
1470243560717961,-0.0680542,0.25824,-0.893982,0.359863
1470243560732003,-0.0680542,0.25824,-0.893982,0.359863
1470243560755495,-0.0682373,0.25824,-0.893982,0.359802
1470243560778016,-0.0681763,0.25824,-0.893982,0.359802
1470243560799033,-0.0678711,0.258057,-0.894043,0.359863
1470243560815591,-0.0674438,0.257813,-0.894104,0.359985
1470243560837568,-0.0670776,0.257813,-0.894104,0.360046
1470243560859087,-0.0668945,0.257874,-0.894043,0.360168
1470243560875606,-0.0668945,0.258057,-0.893982,0.360168
1470243560897622,-0.0669556,0.258118,-0.893982,0.360168
1470243560919143,-0.0671997,0.258301,-0.893921,0.360046
1470243560935684,-0.0673828,0.25824,-0.893982,0.359985
1470243560958202,-0.0673218,0.258057,-0.894043,0.359985
1470243560979196,-0.0670166,0.257751,-0.894043,0.360229
1470243560995211,-0.0667725,0.257568,-0.894043,0.360474
1470243561017751,-0.0665894,0.257568,-0.893982,0.360535
1470243561039348,-0.0667114,0.257751,-0.893921,0.360657
1470243561062770,-0.0667725,0.257751,-0.893921,0.360657
1470243561077784,-0.0671387,0.257935,-0.89386,0.360596
1470243561098803,-0.0675049,0.257935,-0.89386,0.360413
1470243561115318,-0.067749,0.257935,-0.893921,0.360229
1470243561137842,-0.067688,0.257751,-0.894043,0.360168
1470243561158859,-0.0674438,0.257568,-0.894104,0.360229
1470243561175371,-0.0671997,0.25769,-0.894043,0.360352
1470243561197892,-0.0669556,0.25769,-0.893982,0.360413
1470243561218910,-0.0668335,0.257874,-0.893921,0.360474
1470243561235445,-0.0668945,0.257874,-0.893921,0.360474
1470243561257947,-0.0669556,0.257935,-0.893921,0.360413
1470243561280485,-0.0672607,0.258118,-0.893921,0.360291
1470243561295479,-0.0673218,0.258118,-0.893921,0.360168
1470243561318001,-0.0673218,0.258118,-0.893921,0.360168
1470243561340521,-0.0670166,0.257935,-0.893921,0.360352
1470243561354539,-0.0667114,0.257751,-0.893921,0.360596
1470243561378066,-0.0665894,0.257874,-0.89386,0.360718
1470243561400574,-0.0665894,0.257935,-0.893799,0.36084
1470243561415086,-0.0666504,0.257996,-0.893738,0.36084
1470243561438106,-0.0667114,0.257996,-0.893738,0.36084
1470243561460627,-0.0669556,0.258179,-0.893799,0.360657
1470243561474659,-0.0671387,0.258179,-0.893799,0.360474
1470243561497661,-0.0670776,0.258179,-0.893799,0.360474
1470243561520181,-0.0668335,0.257935,-0.89386,0.360596
1470243561534694,-0.0664673,0.257751,-0.893921,0.360718
1470243561557717,-0.0662231,0.25769,-0.89386,0.36084
1470243561580235,-0.0662231,0.257813,-0.893799,0.360901
1470243561586247,-0.0662842,0.257874,-0.893799,0.360901
1470243561602254,-0.0663452,0.257935,-0.893799,0.360901
1470243561623329,-0.0665894,0.258118,-0.893799,0.360657
1470243561646293,-0.0667114,0.258057,-0.89386,0.360535
1470243561662330,-0.0665894,0.257813,-0.893982,0.360474
1470243561683370,-0.0662842,0.257446,-0.894043,0.360535
1470243561705863,-0.065979,0.257141,-0.894104,0.360718
1470243561722362,-0.0656738,0.256897,-0.894104,0.360901
1470243561743383,-0.0656128,0.256897,-0.894104,0.360962
1470243561765902,-0.0656738,0.256958,-0.894104,0.360962
1470243561782416,-0.0661621,0.257019,-0.894104,0.36084
1470243561803524,-0.0665283,0.256836,-0.894104,0.360779
1470243561825975,-0.0667725,0.256531,-0.894226,0.360779
1470243561841970,-0.0667725,0.256104,-0.894287,0.360901
1470243561863530,-0.0666504,0.255615,-0.894348,0.361084
1470243561886009,-0.0662842,0.255249,-0.894409,0.361267
1470243561902024,-0.0661011,0.255005,-0.89447,0.361267
1470243561923542,-0.065979,0.254822,-0.894531,0.361267
1470243561946063,-0.06604,0.254883,-0.894531,0.361267
1470243561962080,-0.0661011,0.254883,-0.894531,0.361267
1470243561983718,-0.0664673,0.254944,-0.894531,0.361145
1470243562005669,-0.0666504,0.254883,-0.894531,0.361084
1470243562022131,-0.0666504,0.254639,-0.894592,0.361145
1470243562043729,-0.0664063,0.254211,-0.894653,0.361328
1470243562066239,-0.0662842,0.254333,-0.894592,0.361511
1470243562082209,-0.0662842,0.254333,-0.894592,0.361511
1470243562103206,-0.0663452,0.254517,-0.894592,0.361389
1470243562126226,-0.0664063,0.254517,-0.894592,0.361328
1470243562142240,-0.0667725,0.254517,-0.894653,0.361023
1470243562163284,-0.0671387,0.254578,-0.894714,0.36084
1470243562185813,-0.0674438,0.254517,-0.894714,0.360779
1470243562203824,-0.067627,0.254395,-0.894714,0.36084
1470243562223316,-0.0675659,0.254211,-0.894653,0.361084
1470243562245858,-0.067627,0.254089,-0.894653,0.361267
1470243562263848,-0.067627,0.254089,-0.894653,0.361267
1470243562283418,-0.067688,0.25415,-0.894592,0.361267
1470243562305930,-0.0681763,0.254211,-0.894592,0.361206
1470243562328461,-0.0687866,0.254333,-0.894592,0.361084
1470243562343441,-0.0692749,0.254272,-0.894531,0.361023
1470243562365978,-0.0695801,0.254028,-0.894592,0.360962
1470243562383457,-0.0696411,0.253784,-0.894592,0.361145
1470243562403483,-0.069519,0.253662,-0.894531,0.36145
1470243562425994,-0.069397,0.253723,-0.894409,0.361694
1470243562443510,-0.0693359,0.253845,-0.894348,0.361816
1470243562463528,-0.069397,0.253845,-0.894348,0.361816
1470243562486048,-0.069458,0.253906,-0.894348,0.361816
1470243562503583,-0.0698853,0.253784,-0.894348,0.361694
1470243562523114,-0.0703125,0.253723,-0.894287,0.361816
1470243562546223,-0.0707397,0.253601,-0.894226,0.362
1470243562563617,-0.0708008,0.253418,-0.894165,0.362305
1470243562583137,-0.0706787,0.253296,-0.894043,0.362732
1470243562605658,-0.0704956,0.253174,-0.893921,0.363098
1470243562623712,-0.0703735,0.253235,-0.89386,0.363342
1470243562644696,-0.0704956,0.253296,-0.893738,0.363525
1470243562665737,-0.0708008,0.253479,-0.893616,0.363647
1470243562689731,-0.071228,0.25354,-0.893555,0.363586
1470243562703745,-0.0715332,0.253418,-0.893555,0.363586
1470243562725764,-0.0717773,0.253357,-0.893616,0.363586
1470243562743779,-0.0718384,0.253174,-0.893616,0.363708
1470243562763330,-0.0717163,0.25293,-0.893616,0.363892
1470243562785865,-0.0715332,0.252747,-0.893555,0.364136
1470243562803835,-0.0715332,0.252686,-0.893494,0.364319
1470243562824852,-0.0715942,0.252686,-0.893494,0.364258
1470243562845871,-0.0716553,0.252686,-0.893494,0.364258
1470243562863887,-0.0719604,0.252625,-0.893494,0.364258
1470243562884453,-0.0723267,0.252502,-0.893494,0.364319
1470243562905926,-0.0726929,0.252319,-0.893494,0.364319
1470243562923973,-0.072937,0.252197,-0.893494,0.36438
1470243562944959,-0.0730591,0.251953,-0.893433,0.364624
1470243562966009,-0.0730591,0.251709,-0.893372,0.364929
1470243562983500,-0.0731201,0.251526,-0.893311,0.365173
1470243563011020,-0.0733032,0.251465,-0.893188,0.36554
1470243563026033,-0.0736084,0.251465,-0.893066,0.365784
1470243563043550,-0.0739136,0.251404,-0.893005,0.365906
1470243563064567,-0.0742798,0.251282,-0.892944,0.366028
1470243563086171,-0.074585,0.251221,-0.892883,0.366211
1470243563103602,-0.0748291,0.251099,-0.892822,0.366394
1470243563125122,-0.0750122,0.250977,-0.892761,0.366638
1470243563145672,-0.0750732,0.250793,-0.8927,0.366821
1470243563163683,-0.0750122,0.250549,-0.8927,0.367065
1470243563186206,-0.0750122,0.250427,-0.892578,0.367371
1470243563205739,-0.0749512,0.250427,-0.892456,0.367737
1470243563223742,-0.0749512,0.250427,-0.892334,0.367981
1470243563246230,-0.0748901,0.250549,-0.892212,0.368286
1470243563265763,-0.0748291,0.25061,-0.89209,0.368469
1470243563284284,-0.0748901,0.250732,-0.892029,0.368652
1470243563306316,-0.0748901,0.250732,-0.892029,0.368652
1470243563325836,-0.0747681,0.250488,-0.892029,0.368713
1470243563343829,-0.0748291,0.250488,-0.892029,0.368713
1470243563366338,-0.0748291,0.250488,-0.892029,0.368713
1470243563385882,-0.0748291,0.250427,-0.891968,0.368896
1470243563403872,-0.0748291,0.250305,-0.891907,0.36908
1470243563426426,-0.074707,0.250244,-0.891846,0.369324
1470243563445938,-0.074585,0.250244,-0.891724,0.369629
1470243563463425,-0.074585,0.250366,-0.891541,0.369995
1470243563486446,-0.074585,0.250366,-0.891479,0.370239
1470243563505969,-0.0745239,0.250366,-0.891418,0.370361
1470243563523980,-0.074707,0.250305,-0.891357,0.370483
1470243563546586,-0.0751343,0.250122,-0.891357,0.370605
1470243563566017,-0.0755615,0.249939,-0.891357,0.370667
1470243563584049,-0.0761108,0.249817,-0.891296,0.370728
1470243563606055,-0.0765991,0.249573,-0.891235,0.370911
1470243563626092,-0.0770264,0.24939,-0.891174,0.371033
1470243563643626,-0.0774536,0.249146,-0.891174,0.371155
1470243563666727,-0.0778198,0.249023,-0.891113,0.371277
1470243563685655,-0.078125,0.24884,-0.891113,0.371399
1470243563703642,-0.0784302,0.24884,-0.890991,0.371521
1470243563726162,-0.0786743,0.248657,-0.891052,0.371582
1470243563746183,-0.0789185,0.248474,-0.891052,0.371521
1470243563763709,-0.0792236,0.248291,-0.891113,0.371521
1470243563786265,-0.0795288,0.248108,-0.891174,0.37146
1470243563807287,-0.079834,0.247803,-0.891235,0.371399
1470243563823804,-0.0801392,0.247498,-0.891296,0.371399
1470243563846311,-0.0805664,0.247131,-0.891357,0.371399
1470243563867288,-0.0810547,0.246765,-0.891418,0.37146
1470243563883902,-0.081604,0.246338,-0.891479,0.37146
1470243563906349,-0.0822144,0.246033,-0.891479,0.37146
1470243563927345,-0.0827637,0.245605,-0.891541,0.37146
1470243563943857,-0.083313,0.245178,-0.891602,0.37146
1470243563966430,-0.0839233,0.244995,-0.891602,0.37146
1470243563987438,-0.0844116,0.244751,-0.891602,0.371521
1470243564003956,-0.0849609,0.244568,-0.891602,0.371582
1470243564026431,-0.0853882,0.244263,-0.891602,0.371643
1470243564047449,-0.0858154,0.244019,-0.891602,0.371765
1470243564063964,-0.0863037,0.243958,-0.891541,0.371887
1470243564086501,-0.0865479,0.244019,-0.891357,0.37207
1470243564108004,-0.0866089,0.244141,-0.891235,0.372314
1470243564129023,-0.0865479,0.244324,-0.891113,0.372498
1470243564145539,-0.0864258,0.244568,-0.890991,0.372681
1470243564168059,-0.0861816,0.244751,-0.890869,0.372803
1470243564189076,-0.0859985,0.244934,-0.890808,0.372925
1470243564205591,-0.0856934,0.244934,-0.890747,0.373108
1470243564228132,-0.0853271,0.244873,-0.890686,0.373352
1470243564249131,-0.085083,0.245117,-0.890564,0.373657
1470243564265146,-0.0847778,0.245422,-0.890381,0.373962
1470243564288176,-0.0844727,0.245728,-0.890198,0.374268
1470243564302179,-0.0839844,0.245972,-0.890076,0.37439
1470243564325199,-0.0836182,0.246338,-0.890015,0.374512
1470243564347720,-0.0831909,0.246765,-0.889893,0.374634
1470243564362233,-0.0827637,0.247131,-0.889832,0.374634
1470243564385264,-0.0822754,0.247498,-0.889771,0.374573
1470243564407777,-0.081604,0.247925,-0.889709,0.374512
1470243564422323,-0.0809326,0.248352,-0.889709,0.37439
1470243564445312,-0.0802002,0.24884,-0.889648,0.37439
1470243564467863,-0.0794067,0.24939,-0.889587,0.37439
1470243564482343,-0.0784912,0.249756,-0.889587,0.37439
1470243564505395,-0.0777588,0.250183,-0.889526,0.37439
1470243564527881,-0.0771484,0.250671,-0.889404,0.37439
1470243564542395,-0.076416,0.250977,-0.889343,0.374451
1470243564565415,-0.0756226,0.25116,-0.889404,0.374451
1470243564588002,-0.0750122,0.251404,-0.889343,0.374512
1470243564602515,-0.0745239,0.251648,-0.889343,0.374512
1470243564625537,-0.0740967,0.25177,-0.889282,0.374573
1470243564648059,-0.0737305,0.25177,-0.889282,0.374634
1470243564669116,-0.0734253,0.25177,-0.889282,0.374756
1470243564685613,-0.0732422,0.25177,-0.889221,0.374878
1470243564708113,-0.0730591,0.251953,-0.889099,0.375061
1470243564729130,-0.0728149,0.252136,-0.889038,0.375122
1470243564745143,-0.0725098,0.252136,-0.889038,0.375244
1470243564767663,-0.0721436,0.252136,-0.889038,0.375305
1470243564789192,-0.0719604,0.252197,-0.888977,0.375427
1470243564805198,-0.0715942,0.252258,-0.888977,0.375427
1470243564827719,-0.0713501,0.252441,-0.888916,0.375488
1470243564849236,-0.0710449,0.252563,-0.888916,0.375488
1470243564865254,-0.0707397,0.252747,-0.888916,0.375427
1470243564887785,-0.0703735,0.252991,-0.888916,0.375366
1470243564909291,-0.0699463,0.253052,-0.888977,0.375244
1470243564925305,-0.0695801,0.253174,-0.889038,0.375061
1470243564947825,-0.0692139,0.253296,-0.889099,0.375
1470243564969346,-0.0688477,0.253418,-0.889099,0.374878
1470243564985359,-0.0684204,0.253357,-0.889221,0.374817
1470243565007880,-0.0679932,0.253296,-0.889282,0.374756
1470243565029399,-0.067627,0.253174,-0.889343,0.374634
1470243565045417,-0.0673218,0.253052,-0.889465,0.374573
1470243565067937,-0.0670776,0.25293,-0.889526,0.374573
1470243565090455,-0.0668335,0.252808,-0.889587,0.374512
1470243565105468,-0.0666504,0.252747,-0.889648,0.37439
1470243565127987,-0.0664673,0.252563,-0.889771,0.374329
1470243565150507,-0.0661621,0.252441,-0.889832,0.374268
1470243565165551,-0.065918,0.252502,-0.889832,0.374329
1470243565188070,-0.0656738,0.25238,-0.889893,0.374329
1470243565210564,-0.0653687,0.252136,-0.889954,0.37439
1470243565224574,-0.0650024,0.251892,-0.890015,0.374512
1470243565248095,-0.0645142,0.252014,-0.889954,0.374573
1470243565270638,-0.0638428,0.252014,-0.889954,0.374634
1470243565284629,-0.0635376,0.252319,-0.889832,0.374878
1470243565307648,-0.0632935,0.252563,-0.889648,0.375122
1470243565330191,-0.0631714,0.252991,-0.889587,0.375061
1470243565344720,-0.0629272,0.253296,-0.889465,0.375183
1470243565367703,-0.0626221,0.253296,-0.889404,0.375305
1470243565390222,-0.0623169,0.253479,-0.889404,0.375305
1470243565411742,-0.0621338,0.253723,-0.889343,0.375244
1470243565427756,-0.0619507,0.254028,-0.889282,0.375244
1470243565450277,-0.0617676,0.254211,-0.889221,0.375244
1470243565464790,-0.0616455,0.254395,-0.88916,0.375305
1470243565487812,-0.0616455,0.254395,-0.889221,0.375305
1470243565510331,-0.0617065,0.254578,-0.889099,0.375366
1470243565524843,-0.0617065,0.254578,-0.889099,0.375366
1470243565547874,-0.0615234,0.254639,-0.889038,0.375427
1470243565570406,-0.0612183,0.254822,-0.888977,0.375549
1470243565591436,-0.0609741,0.254944,-0.888916,0.375671
1470243565607955,-0.0608521,0.255249,-0.888794,0.375732
1470243565630438,-0.0606689,0.255676,-0.888672,0.375793
1470243565651457,-0.0604248,0.256042,-0.88855,0.375916
1470243565667972,-0.0601807,0.256409,-0.888428,0.375977
1470243565690492,-0.0598755,0.256775,-0.888306,0.376038
1470243565711512,-0.0595703,0.25708,-0.888184,0.37616
1470243565728029,-0.0593262,0.257568,-0.888,0.376282
1470243565758053,-0.059082,0.258118,-0.887817,0.376404
1470243565771566,-0.0588379,0.258606,-0.887634,0.376526
1470243565788079,-0.0585938,0.259094,-0.887451,0.376648
1470243565818108,-0.0582886,0.25946,-0.887329,0.376709
1470243565831655,-0.0581055,0.259827,-0.887268,0.37677
1470243565848133,-0.0579834,0.260193,-0.887146,0.37677
1470243565870154,-0.0578003,0.26062,-0.887024,0.37677
1470243565891685,-0.0576782,0.261169,-0.886841,0.376892
1470243565907687,-0.0576172,0.261719,-0.886597,0.377075
1470243565930224,-0.0574951,0.262329,-0.886353,0.377197
1470243565951726,-0.057373,0.262878,-0.886108,0.37738
1470243565967743,-0.057251,0.263489,-0.885864,0.377563
1470243565990271,-0.0570068,0.264038,-0.88562,0.377808
1470243566011295,-0.0568237,0.264648,-0.885376,0.377991
1470243566027812,-0.0566406,0.265381,-0.885071,0.378174
1470243566050317,-0.0565186,0.265991,-0.884827,0.378357
1470243566072835,-0.0569458,0.266418,-0.88446,0.378784
1470243566087849,-0.05896,0.267273,-0.883667,0.379761
1470243566110370,-0.0615845,0.269104,-0.88269,0.38031
1470243566132890,-0.0631104,0.270142,-0.88208,0.380737
1470243566147906,-0.0633545,0.27002,-0.882019,0.381042
1470243566170425,-0.0629883,0.26947,-0.88208,0.381226
1470243566192945,-0.0629883,0.26947,-0.88208,0.381287
1470243566207496,-0.0631104,0.269775,-0.881958,0.381348
1470243566230483,-0.0635376,0.270447,-0.881714,0.381348
1470243566252998,-0.0635376,0.270447,-0.881714,0.381348
1470243566267014,-0.0629883,0.269836,-0.881958,0.381287
1470243566291031,-0.0622559,0.268921,-0.882324,0.381287
1470243566313051,-0.0619507,0.268372,-0.882446,0.381348
1470243566327064,-0.0621948,0.268127,-0.882446,0.381531
1470243566350586,-0.0627441,0.267883,-0.882324,0.381897
1470243566373105,-0.0631714,0.267273,-0.882324,0.382202
1470243566387132,-0.0634766,0.266418,-0.882385,0.382629
1470243566410168,-0.0639038,0.265686,-0.882385,0.383057
1470243566433162,-0.0644531,0.265259,-0.882202,0.383728
1470243566447192,-0.0650635,0.264893,-0.881958,0.384399
1470243566470221,-0.0655518,0.264404,-0.881714,0.385193
1470243566492714,-0.06604,0.263733,-0.881531,0.386047
1470243566514232,-0.0667725,0.263184,-0.881348,0.386719
1470243566530746,-0.0675049,0.262939,-0.881042,0.387451
1470243566552766,-0.0684204,0.263245,-0.880554,0.388123
1470243566574302,-0.0703735,0.264404,-0.879761,0.388733
1470243566590800,-0.0737305,0.266235,-0.878845,0.389038
1470243566612827,-0.0777588,0.267761,-0.877991,0.389099
1470243566634367,-0.0817871,0.26947,-0.877197,0.388916
1470243566650387,-0.0853271,0.271179,-0.876465,0.388611
1470243566672915,-0.088562,0.272888,-0.875671,0.388428
1470243566694394,-0.0910645,0.273193,-0.875793,0.387451
1470243566710408,-0.0917969,0.272461,-0.875977,0.387329
1470243566732928,-0.0933838,0.273376,-0.875366,0.387634
1470243566753947,-0.0952759,0.275574,-0.874451,0.387634
1470243566769961,-0.0979614,0.277649,-0.873779,0.387085
1470243566792983,-0.100525,0.280701,-0.872375,0.38739
1470243566814067,-0.102356,0.281555,-0.872009,0.387085
1470243566830015,-0.103088,0.277283,-0.873169,0.387329
1470243566853036,-0.102661,0.274841,-0.873535,0.388428
1470243566874089,-0.103577,0.274719,-0.873108,0.389221
1470243566889584,-0.106262,0.277527,-0.87146,0.390198
1470243566913091,-0.109619,0.281677,-0.869324,0.391052
1470243566934150,-0.112061,0.284424,-0.867798,0.391846
1470243566949630,-0.113281,0.285461,-0.867004,0.392456
1470243566973144,-0.114319,0.28595,-0.866333,0.393311
1470243566995706,-0.115662,0.286316,-0.86554,0.394348
1470243567016746,-0.116943,0.286621,-0.864746,0.395447
1470243567032701,-0.11792,0.286987,-0.864014,0.396606
1470243567055717,-0.118713,0.287292,-0.863281,0.397644
1470243567070732,-0.119202,0.28772,-0.862671,0.39856
1470243567092751,-0.119385,0.288208,-0.862183,0.399231
1470243567115773,-0.119385,0.288635,-0.861816,0.399719
1470243567129786,-0.119141,0.289063,-0.861511,0.400085
1470243567152807,-0.118591,0.28949,-0.861328,0.400269
1470243567175325,-0.118042,0.290161,-0.861206,0.400269
1470243567189839,-0.117432,0.290833,-0.861145,0.400085
1470243567212859,-0.116638,0.291443,-0.861267,0.399597
1470243567235383,-0.115784,0.292053,-0.861511,0.398926
1470243567257900,-0.114807,0.29248,-0.861938,0.39801
1470243567272914,-0.113953,0.292847,-0.862427,0.396912
1470243567295458,-0.11322,0.293091,-0.862976,0.395691
1470243567317954,-0.11261,0.293274,-0.863647,0.394287
1470243567332968,-0.112,0.293213,-0.86438,0.392883
1470243567355487,-0.111511,0.293274,-0.865051,0.391479
1470243567370019,-0.111084,0.293213,-0.865723,0.390076
1470243567393021,-0.110779,0.292908,-0.866516,0.388733
1470243567415542,-0.110352,0.292419,-0.867249,0.387573
1470243567430054,-0.110046,0.291748,-0.867981,0.386475
1470243567453075,-0.109741,0.291077,-0.868652,0.385559
1470243567483102,-0.109436,0.290161,-0.869324,0.384827
1470243567496641,-0.109009,0.289246,-0.869934,0.384277
1470243567513128,-0.108521,0.288025,-0.870605,0.383789
1470243567535168,-0.108032,0.286743,-0.871277,0.383362
1470243567556696,-0.107483,0.285461,-0.872009,0.382874
1470243567573185,-0.107056,0.284485,-0.872559,0.382446
1470243567595703,-0.106567,0.28363,-0.873047,0.38208
1470243567616721,-0.10614,0.282715,-0.873657,0.381531
1470243567632743,-0.105713,0.281799,-0.874207,0.381042
1470243567655786,-0.105103,0.280884,-0.874756,0.380676
1470243567676825,-0.104614,0.279968,-0.875244,0.38031
1470243567692791,-0.104248,0.279297,-0.875671,0.379883
1470243567715310,-0.103882,0.278687,-0.876099,0.379517
1470243567736950,-0.103455,0.278259,-0.876465,0.37915
1470243567752844,-0.10321,0.277832,-0.87677,0.378784
1470243567775364,-0.102966,0.277527,-0.877014,0.378418
1470243567796956,-0.102783,0.277344,-0.877258,0.378052
1470243567812898,-0.102661,0.2771,-0.877502,0.377686
1470243567835419,-0.102478,0.276917,-0.877747,0.37738
1470243567856953,-0.102234,0.276794,-0.87793,0.377075
1470243567872952,-0.101929,0.276611,-0.878113,0.376831
1470243567895475,-0.101685,0.276428,-0.878296,0.376587
1470243567917992,-0.101379,0.276184,-0.87854,0.376343
1470243567933048,-0.100952,0.27594,-0.878723,0.376221
1470243567955525,-0.100586,0.275635,-0.878967,0.376038
1470243567978087,-0.100159,0.27533,-0.879211,0.375793
1470243568006616,-0.0997925,0.275208,-0.879395,0.375549
1470243568015583,-0.0994263,0.275146,-0.879517,0.375305
1470243568038099,-0.0990601,0.275085,-0.8797,0.375
1470243568053113,-0.0988159,0.275085,-0.879944,0.374634
1470243568075634,-0.0984497,0.275024,-0.880127,0.374329
1470243568098153,-0.0980835,0.274841,-0.88031,0.373962
1470243568112198,-0.0975342,0.274536,-0.880554,0.373779
1470243568135687,-0.0970459,0.274292,-0.880798,0.373657
1470243568158209,-0.0966187,0.273865,-0.880981,0.373535
1470243568172225,-0.0962524,0.273438,-0.881165,0.373474
1470243568195287,-0.0959473,0.272949,-0.881409,0.373352
1470243568218281,-0.0957642,0.272461,-0.881592,0.373291
1470243568232309,-0.09552,0.272095,-0.881775,0.373291
1470243568255795,-0.09552,0.271729,-0.881897,0.373291
1470243568277816,-0.095459,0.271301,-0.881958,0.373474
1470243568299446,-0.0952759,0.270813,-0.882019,0.373718
1470243568315358,-0.0948486,0.270264,-0.88208,0.373962
1470243568337879,-0.0944824,0.269653,-0.882202,0.374268
1470243568352382,-0.0939941,0.268982,-0.882385,0.374451
1470243568375403,-0.0934448,0.268372,-0.882568,0.374573
1470243568397923,-0.0930176,0.267883,-0.882813,0.374512
1470243568418985,-0.0924683,0.2677,-0.882935,0.374451
1470243568435497,-0.0921021,0.267639,-0.882996,0.37439
1470243568457977,-0.0918579,0.267578,-0.883118,0.374268
1470243568479526,-0.0916748,0.267517,-0.883301,0.374023
1470243568495512,-0.0913696,0.267578,-0.883362,0.373779
1470243568518031,-0.0913086,0.268005,-0.883362,0.373535
1470243568539095,-0.0914307,0.268494,-0.88324,0.373474
1470243568555601,-0.0914307,0.268738,-0.883179,0.373413
1470243568578085,-0.0911865,0.268677,-0.88324,0.373413
1470243568599160,-0.0910645,0.268433,-0.883301,0.373474
1470243568615620,-0.0907593,0.267944,-0.883423,0.373474
1470243568644144,-0.0907593,0.267944,-0.883484,0.373474
1470243568659160,-0.0906982,0.267883,-0.883484,0.373535
1470243568675672,-0.0906372,0.267883,-0.883484,0.373535
1470243568698192,-0.090332,0.267517,-0.883606,0.373596
1470243568719212,-0.0899658,0.26709,-0.883667,0.373718
1470243568735726,-0.0899048,0.266785,-0.883728,0.37384
1470243568757751,-0.0900269,0.266479,-0.883789,0.373901
1470243568779265,-0.0900879,0.265991,-0.88385,0.374084
1470243568794781,-0.090271,0.265442,-0.883911,0.374329
1470243568817820,-0.0903931,0.264832,-0.883972,0.374512
1470243568839448,-0.0903931,0.264526,-0.884094,0.374573
1470243568855381,-0.0903931,0.264282,-0.884155,0.374451
1470243568877853,-0.090271,0.26416,-0.884277,0.374268
1470243568900376,-0.0900269,0.264038,-0.88446,0.374084
1470243568915389,-0.0897827,0.263916,-0.884521,0.374084
1470243568937908,-0.0894165,0.263611,-0.884644,0.374084
1470243568960429,-0.0889282,0.263123,-0.884888,0.373962
1470243568975443,-0.088501,0.262756,-0.885132,0.373718
1470243568997963,-0.0879517,0.262146,-0.885498,0.373413
1470243569020487,-0.0874023,0.261414,-0.885864,0.373169
1470243569034997,-0.0870361,0.260681,-0.88623,0.372986
1470243569058057,-0.086731,0.259888,-0.886475,0.372925
1470243569080551,-0.0866699,0.259216,-0.886719,0.372925
1470243569095050,-0.086853,0.258728,-0.886841,0.372864
1470243569118070,-0.0872803,0.258484,-0.886841,0.372986
1470243569140590,-0.0878296,0.25824,-0.886719,0.373291
1470243569154603,-0.0883179,0.25769,-0.886719,0.373596
1470243569178123,-0.088501,0.256775,-0.886841,0.37384
1470243569200644,-0.088501,0.255859,-0.886963,0.374146
1470243569214657,-0.0884399,0.255127,-0.887085,0.374451
1470243569238178,-0.0884399,0.254578,-0.887146,0.374634
1470243569260698,-0.0883179,0.253967,-0.887268,0.374756
1470243569274710,-0.0880737,0.253174,-0.887573,0.374695
1470243569298233,-0.0878296,0.252502,-0.887817,0.374634
1470243569320251,-0.0876465,0.251953,-0.888062,0.374451
1470243569334776,-0.0874634,0.251465,-0.888306,0.374207
1470243569342271,-0.0873413,0.251221,-0.88855,0.373901
1470243569363290,-0.0872803,0.250977,-0.888794,0.373474
1470243569385811,-0.0871582,0.25061,-0.889038,0.373108
1470243569403826,-0.0869751,0.250122,-0.889404,0.372681
1470243569423345,-0.086792,0.249634,-0.889771,0.372192
1470243569445865,-0.0866699,0.24939,-0.890076,0.371643
1470243569463882,-0.0865479,0.249207,-0.890381,0.371033
1470243569483432,-0.0864258,0.248901,-0.890686,0.370483
1470243569505945,-0.0863647,0.248657,-0.890991,0.369934
1470243569524025,-0.0863647,0.248413,-0.891235,0.369507
1470243569543482,-0.0863647,0.248047,-0.891479,0.369202
1470243569565972,-0.0865479,0.247681,-0.891663,0.368896
1470243569583988,-0.0866089,0.247314,-0.891907,0.36853
1470243569603522,-0.0866089,0.24707,-0.892151,0.368164
1470243569626050,-0.0866699,0.246826,-0.892334,0.367859
1470243569643542,-0.0866089,0.246765,-0.892456,0.367676
1470243569671066,-0.0858765,0.246521,-0.892517,0.367798
1470243569686079,-0.0845947,0.246155,-0.892395,0.368713
1470243569703596,-0.0842896,0.246216,-0.892151,0.369324
1470243569723613,-0.0841675,0.245911,-0.892212,0.369324
1470243569753640,-0.0840454,0.245605,-0.892334,0.369263
1470243569764150,-0.0839844,0.245361,-0.892456,0.369202
1470243569783759,-0.0840454,0.245117,-0.892578,0.368958
1470243569806187,-0.0842896,0.244934,-0.892761,0.368652
1470243569824207,-0.0847778,0.245056,-0.892822,0.368347
1470243569843221,-0.0853882,0.245361,-0.892822,0.367981
1470243569866310,-0.0858154,0.245422,-0.892883,0.367676
1470243569883791,-0.0858765,0.245178,-0.893066,0.367371
1470243569903274,-0.0859375,0.244995,-0.893188,0.367188
1470243569925797,-0.0859375,0.24469,-0.893372,0.367004
1470243569943811,-0.0858154,0.244629,-0.893555,0.366577
1470243569963844,-0.0858765,0.245178,-0.893616,0.366089
1470243569985852,-0.0858154,0.245361,-0.893738,0.365662
1470243570003865,-0.0858154,0.245422,-0.89386,0.365356
1470243570023384,-0.0859375,0.245483,-0.893982,0.36499
1470243570045902,-0.0859985,0.245667,-0.894043,0.364624
1470243570063918,-0.0861816,0.245544,-0.894226,0.364258
1470243570083436,-0.0861816,0.245483,-0.894348,0.363892
1470243570105956,-0.0862427,0.245789,-0.894409,0.363647
1470243570124974,-0.0864258,0.245789,-0.894531,0.363342
1470243570143496,-0.0860596,0.245544,-0.894653,0.36322
1470243570166011,-0.0856934,0.245667,-0.894653,0.363281
1470243570183526,-0.0855713,0.245667,-0.894592,0.363342
1470243570203544,-0.0853271,0.245483,-0.894653,0.363464
1470243570226064,-0.0852661,0.245483,-0.894653,0.363464
1470243570243580,-0.085144,0.245178,-0.894714,0.363586
1470243570263598,-0.0848999,0.244934,-0.894714,0.363708
1470243570286118,-0.0848999,0.244812,-0.894714,0.36377
1470243570303636,-0.085022,0.24469,-0.894714,0.363831
1470243570323151,-0.085022,0.244751,-0.894714,0.363831
1470243570345673,-0.085083,0.244751,-0.894714,0.363831
1470243570363689,-0.085083,0.244751,-0.894714,0.363831
1470243570383706,-0.085083,0.244629,-0.894775,0.36377
1470243570406227,-0.085144,0.24469,-0.894775,0.36377
1470243570423742,-0.085144,0.24469,-0.894775,0.36377
1470243570444762,-0.085144,0.244629,-0.894775,0.36377
1470243570465780,-0.085144,0.244629,-0.894775,0.36377
1470243570483797,-0.085144,0.244629,-0.894775,0.36377
1470243570504815,-0.085083,0.244812,-0.894714,0.36377
1470243570525833,-0.085083,0.244995,-0.894653,0.36377
1470243570543851,-0.085144,0.244995,-0.894653,0.36377
1470243570564869,-0.085144,0.244995,-0.894653,0.36377
1470243570585922,-0.085144,0.244995,-0.894653,0.36377
1470243570603991,-0.085144,0.244995,-0.894653,0.36377
1470243570624966,-0.085144,0.244995,-0.894653,0.36377
1470243570645943,-0.085144,0.244995,-0.894653,0.36377
1470243570663958,-0.085144,0.245056,-0.894653,0.36377
1470243570684976,-0.085144,0.245056,-0.894653,0.36377
1470243570706024,-0.085144,0.245056,-0.894653,0.36377
1470243570724011,-0.085144,0.245056,-0.894653,0.36377
1470243570745031,-0.085144,0.245056,-0.894653,0.36377
1470243570766066,-0.085144,0.245056,-0.894653,0.36377
1470243570784064,-0.085144,0.245117,-0.894653,0.363708
1470243570806606,-0.085144,0.245117,-0.894653,0.36377
1470243570826103,-0.085144,0.245117,-0.894653,0.363708
1470243570843619,-0.0852051,0.245117,-0.894653,0.363708
1470243570866640,-0.0852051,0.245117,-0.894653,0.363708
1470243570893664,-0.0852051,0.245178,-0.894653,0.363708
1470243570904173,-0.0852051,0.245178,-0.894653,0.363708
1470243570926193,-0.0852051,0.245178,-0.894653,0.363708
1470243570946312,-0.0852051,0.245178,-0.894592,0.363708
1470243570964331,-0.0852051,0.245239,-0.894592,0.363708
1470243570986255,-0.0852051,0.245239,-0.894592,0.363708
1470243571006278,-0.085144,0.245422,-0.894592,0.363708
1470243571024324,-0.085144,0.245422,-0.894592,0.363708
1470243571046303,-0.085083,0.245422,-0.894592,0.363708
1470243571065819,-0.085083,0.245483,-0.894592,0.363708
1470243571083835,-0.085083,0.245483,-0.894531,0.363708
1470243571106390,-0.085083,0.245483,-0.894531,0.363708
1470243571125873,-0.085083,0.245483,-0.894531,0.363708
1470243571143889,-0.085083,0.245483,-0.894531,0.363708
1470243571166409,-0.085083,0.245544,-0.894531,0.363708
1470243571185957,-0.085144,0.245544,-0.894531,0.363708
1470243571203970,-0.085144,0.245544,-0.894531,0.363708
1470243571226465,-0.085144,0.245605,-0.894531,0.363708
1470243571246010,-0.085144,0.245605,-0.894531,0.363708
1470243571264083,-0.085144,0.245667,-0.894531,0.363708
1470243571286516,-0.085144,0.245667,-0.894531,0.363708
1470243571306043,-0.085144,0.245667,-0.894531,0.363708
1470243571324141,-0.085144,0.245728,-0.89447,0.363708
1470243571346594,-0.085144,0.245728,-0.89447,0.363708
1470243571367589,-0.085144,0.245728,-0.89447,0.363708
1470243571384186,-0.085144,0.245789,-0.89447,0.363708
1470243571406635,-0.085144,0.245789,-0.89447,0.363708
1470243571427643,-0.085144,0.24585,-0.89447,0.363708
1470243571443658,-0.085083,0.24585,-0.89447,0.363708
1470243571466824,-0.085083,0.24585,-0.89447,0.363708
1470243571487198,-0.085083,0.245911,-0.89447,0.363708
1470243571503712,-0.085083,0.245911,-0.89447,0.363708
1470243571526233,-0.085083,0.245911,-0.894409,0.363708
1470243571547252,-0.085083,0.245972,-0.894409,0.363708
1470243571564281,-0.085083,0.245972,-0.894409,0.363708
1470243571586310,-0.085083,0.245972,-0.894409,0.363708
1470243571614812,-0.085083,0.246033,-0.894409,0.363708
1470243571623819,-0.085083,0.246033,-0.894409,0.363708
1470243571646368,-0.085083,0.246094,-0.894409,0.363708
1470243571667358,-0.085083,0.246094,-0.894409,0.363708
1470243571683901,-0.085022,0.246155,-0.894409,0.363708
1470243571706409,-0.085022,0.246155,-0.894348,0.363708
1470243571728916,-0.085022,0.246155,-0.894348,0.363708
1470243571743927,-0.085022,0.246216,-0.894348,0.363708
1470243571766449,-0.085022,0.246216,-0.894348,0.363708
1470243571788967,-0.0849609,0.246216,-0.894348,0.363708
1470243571803981,-0.0849609,0.246216,-0.894348,0.363708
1470243571826502,-0.0849609,0.246216,-0.894348,0.363708
1470243571849114,-0.0849609,0.246277,-0.894348,0.363708
1470243571868600,-0.0849609,0.246277,-0.894348,0.363708
1470243571885556,-0.0849609,0.246277,-0.894348,0.363708
1470243571908075,-0.0849609,0.246338,-0.894348,0.363708
1470243571929616,-0.0849609,0.246338,-0.894348,0.363708
1470243571945609,-0.0848999,0.246399,-0.894287,0.363708
1470243571968130,-0.0849609,0.246399,-0.894287,0.363708
1470243571989181,-0.0848999,0.246399,-0.894287,0.36377
1470243572005663,-0.0849609,0.24646,-0.894287,0.363708
1470243572028186,-0.0849609,0.24646,-0.894287,0.363708
1470243572042195,-0.0849609,0.24646,-0.894287,0.363708
1470243572065716,-0.0848999,0.24646,-0.894287,0.36377
1470243572088242,-0.0848999,0.24646,-0.894287,0.36377
1470243572109255,-0.0848999,0.24646,-0.894287,0.36377
1470243572125283,-0.0848999,0.24646,-0.894287,0.36377
1470243572147809,-0.0848999,0.24646,-0.894287,0.36377
1470243572162303,-0.0848999,0.246521,-0.894287,0.36377
1470243572185324,-0.0848999,0.246521,-0.894287,0.363708
1470243572207845,-0.0848999,0.246521,-0.894287,0.363708
1470243572229370,-0.0848999,0.246521,-0.894287,0.363708
1470243572245396,-0.0848999,0.246521,-0.894287,0.363708
1470243572267897,-0.0848999,0.246521,-0.894287,0.36377
1470243572289487,-0.0848999,0.246582,-0.894287,0.363708
1470243572305431,-0.0848999,0.246582,-0.894287,0.363708
1470243572327954,-0.0849609,0.246582,-0.894287,0.363708
1470243572348984,-0.0849609,0.246643,-0.894226,0.363708
1470243572365485,-0.0849609,0.246643,-0.894226,0.363708
1470243572388006,-0.0849609,0.246643,-0.894226,0.363708
1470243572409026,-0.0849609,0.246643,-0.894226,0.363708
1470243572425540,-0.0849609,0.246704,-0.894226,0.363708
1470243572448109,-0.0849609,0.246704,-0.894226,0.363708
1470243572469592,-0.0849609,0.246765,-0.894226,0.363708
1470243572485593,-0.0849609,0.246765,-0.894226,0.363708
1470243572508130,-0.0849609,0.246765,-0.894226,0.363708
1470243572529176,-0.0847778,0.246948,-0.894165,0.363708
1470243572545649,-0.0845947,0.247131,-0.894165,0.36377
1470243572568168,-0.0843506,0.247253,-0.894104,0.36377
1470243572589186,-0.0841064,0.247375,-0.894104,0.363831
1470243572605722,-0.0841064,0.247375,-0.894104,0.363831
1470243572628221,-0.0841064,0.247375,-0.894104,0.363831
1470243572649296,-0.0841064,0.247375,-0.894104,0.363831
1470243572665278,-0.0841064,0.247375,-0.894104,0.363831
1470243572688329,-0.0841064,0.247437,-0.894104,0.363831
1470243572710797,-0.0839233,0.247559,-0.893982,0.363953
1470243572725308,-0.0839233,0.247559,-0.893982,0.363953
1470243572747829,-0.0839233,0.247559,-0.893982,0.363953
1470243572770350,-0.0839233,0.24762,-0.893982,0.363953
1470243572791406,-0.0839233,0.24762,-0.893982,0.363953
1470243572807882,-0.0837402,0.247742,-0.893921,0.364075
1470243572830405,-0.0835571,0.247925,-0.893799,0.364197
1470243572844930,-0.083313,0.248047,-0.893738,0.36438
1470243572867980,-0.083313,0.248108,-0.893738,0.36438
1470243572890458,-0.0830688,0.248291,-0.893677,0.364441
1470243572905022,-0.0830688,0.248291,-0.893677,0.364441
1470243572927992,-0.0830688,0.248291,-0.893677,0.364441
1470243572950510,-0.0830688,0.248352,-0.893677,0.364441
1470243572965042,-0.0830688,0.248352,-0.893677,0.364441
1470243572988071,-0.0830688,0.248413,-0.893616,0.364441
1470243573010564,-0.0830688,0.248413,-0.893616,0.364441
1470243573025077,-0.0830688,0.248413,-0.893616,0.364441
1470243573048099,-0.0830688,0.248413,-0.893616,0.364441
1470243573070623,-0.0828247,0.248596,-0.893616,0.364502
1470243573091672,-0.0828247,0.248596,-0.893616,0.364502
1470243573108152,-0.0827637,0.248657,-0.893555,0.364502
1470243573130672,-0.0827637,0.248657,-0.893555,0.364502
1470243573144686,-0.0827637,0.248657,-0.893555,0.364502
1470243573168206,-0.0827637,0.248718,-0.893555,0.364502
1470243573190726,-0.0827637,0.248718,-0.893555,0.364502
1470243573211823,-0.0825195,0.249084,-0.893433,0.364624
1470243573227761,-0.0823364,0.24939,-0.893372,0.364685
1470243573250280,-0.0823364,0.24939,-0.893372,0.364685
1470243573271799,-0.0822754,0.249451,-0.893311,0.364685
1470243573288313,-0.0822754,0.249451,-0.893311,0.364685
1470243573310334,-0.0822754,0.249451,-0.893311,0.364685
1470243573331866,-0.0822754,0.249451,-0.893311,0.364685
1470243573347874,-0.0822144,0.249512,-0.893311,0.364685
1470243573370390,-0.0822144,0.249512,-0.893311,0.364685
1470243573391930,-0.0821533,0.249573,-0.893311,0.364685
1470243573407924,-0.0821533,0.249573,-0.893311,0.364685
1470243573430443,-0.0821533,0.249634,-0.89325,0.364685
1470243573452043,-0.0821533,0.249634,-0.89325,0.364685
1470243573467975,-0.0821533,0.249695,-0.89325,0.364685
1470243573490498,-0.0821533,0.249756,-0.89325,0.364685
1470243573512024,-0.0820923,0.249756,-0.89325,0.364746
1470243573528061,-0.0820923,0.249817,-0.89325,0.364746
1470243573550554,-0.0820923,0.249878,-0.893188,0.364746
1470243573571591,-0.0820923,0.249878,-0.893188,0.364746
1470243573588116,-0.0820313,0.249939,-0.893188,0.364746
1470243573610631,-0.0820313,0.25,-0.893188,0.364746
1470243573633123,-0.0820313,0.25,-0.893188,0.364746
1470243573648166,-0.0819702,0.250061,-0.893188,0.364746
1470243573670658,-0.0819702,0.250061,-0.893127,0.364746
1470243573693178,-0.0819702,0.250122,-0.893127,0.364746
1470243573708199,-0.0819092,0.250122,-0.893127,0.364746
1470243573730220,-0.0819092,0.250183,-0.893127,0.364746
1470243573753231,-0.0819092,0.250244,-0.893127,0.364746
1470243573767244,-0.0818481,0.250244,-0.893127,0.364746
1470243573790319,-0.0818481,0.250305,-0.893066,0.364807
1470243573813303,-0.0818481,0.250305,-0.893066,0.364807
1470243573827327,-0.0817871,0.250366,-0.893066,0.364807
1470243573850818,-0.0817871,0.250427,-0.893066,0.364807
1470243573872838,-0.0817871,0.250427,-0.893066,0.364807
1470243573887355,-0.0817871,0.250488,-0.893066,0.364807
1470243573910873,-0.0817871,0.250549,-0.893005,0.364807
1470243573932893,-0.0817261,0.250549,-0.893005,0.364807
1470243573947406,-0.0817261,0.25061,-0.893005,0.364807
1470243573976934,-0.0817261,0.250671,-0.893005,0.364807
1470243573992947,-0.0817261,0.250671,-0.893005,0.364807
1470243574007461,-0.081665,0.250732,-0.892944,0.364807
1470243574030480,-0.081665,0.250732,-0.892944,0.364807
1470243574053012,-0.081665,0.250793,-0.892944,0.364807
1470243574067513,-0.081604,0.250854,-0.892944,0.364807
1470243574090534,-0.081604,0.250854,-0.892944,0.364807
1470243574113056,-0.081604,0.250916,-0.892944,0.364868
1470243574134073,-0.081604,0.250916,-0.892944,0.364868
1470243574150588,-0.081543,0.250977,-0.892883,0.364868
1470243574173127,-0.081543,0.250977,-0.892883,0.364868
1470243574195630,-0.081543,0.251038,-0.892883,0.364868
1470243574210641,-0.081543,0.251038,-0.892883,0.364868
1470243574233163,-0.081543,0.251099,-0.892883,0.364868
1470243574255684,-0.081543,0.251099,-0.892883,0.364868
1470243574270696,-0.081543,0.25116,-0.892822,0.364868
1470243574293216,-0.081543,0.251221,-0.892822,0.364868
1470243574314271,-0.0814819,0.251221,-0.892822,0.364868
1470243574330752,-0.0814819,0.251282,-0.892822,0.364868
1470243574353302,-0.0814819,0.251282,-0.892822,0.364868
1470243574374339,-0.0814819,0.251282,-0.892822,0.364807
1470243574390352,-0.0814819,0.251282,-0.892822,0.364807
1470243574413323,-0.0814819,0.251282,-0.892822,0.364807
1470243574434404,-0.0814209,0.251343,-0.892822,0.364807
1470243574450858,-0.0814209,0.251343,-0.892822,0.364807
1470243574472924,-0.0813599,0.251221,-0.892822,0.364868
1470243574494397,-0.0813599,0.25116,-0.892822,0.364868
1470243574510411,-0.0813599,0.25116,-0.892822,0.364868
1470243574532932,-0.0813599,0.251221,-0.892822,0.364868
1470243574553951,-0.0813599,0.251221,-0.892822,0.364868
1470243574570465,-0.0813599,0.251282,-0.892822,0.364868
1470243574592986,-0.0813599,0.251343,-0.892822,0.364868
1470243574615507,-0.0812988,0.25238,-0.892395,0.365051
1470243574630519,-0.0817261,0.254089,-0.891907,0.365112
1470243574653040,-0.0825806,0.255249,-0.891235,0.365723
1470243574675558,-0.0831299,0.255127,-0.89093,0.366394
1470243574690072,-0.0827637,0.253662,-0.891235,0.366699
1470243574713093,-0.0819092,0.252014,-0.891785,0.366821
1470243574735647,-0.081604,0.251587,-0.891907,0.366821
1470243574749626,-0.0817871,0.252075,-0.891724,0.366943
1470243574773147,-0.0817871,0.252136,-0.891724,0.366943
1470243574795667,-0.0814209,0.252136,-0.891907,0.366455
1470243574809680,-0.0810547,0.252014,-0.892151,0.366089
1470243574833201,-0.0806885,0.251953,-0.892273,0.365906
1470243574855723,-0.0806885,0.251953,-0.892273,0.365906
1470243574869735,-0.0808716,0.252075,-0.892212,0.365906
1470243574893255,-0.0808716,0.251953,-0.892212,0.365967
1470243574915792,-0.0808716,0.25177,-0.892273,0.366028
1470243574929788,-0.0808716,0.25177,-0.892273,0.366028
1470243574953308,-0.0808716,0.25177,-0.892212,0.366028
1470243574975829,-0.0808716,0.251831,-0.892212,0.366028
1470243574989847,-0.0809326,0.251892,-0.892212,0.366028
1470243575012862,-0.0809326,0.251892,-0.892212,0.366028
1470243575035387,-0.0809326,0.251953,-0.892212,0.366028
1470243575049895,-0.0809326,0.251953,-0.892212,0.366028
1470243575072917,-0.0809326,0.251953,-0.892212,0.366028
1470243575095438,-0.0809326,0.251953,-0.892212,0.366028
1470243575116471,-0.0809326,0.251953,-0.892212,0.366028
1470243575132970,-0.0808716,0.252014,-0.892212,0.366028
1470243575155530,-0.0809326,0.252014,-0.892212,0.366028
1470243575177011,-0.0809326,0.252014,-0.892151,0.366028
1470243575193025,-0.0809326,0.252075,-0.892151,0.366028
1470243575215545,-0.0809326,0.252075,-0.892151,0.366028
1470243575236587,-0.0809326,0.252136,-0.892151,0.366028
1470243575253089,-0.0809326,0.252136,-0.892151,0.366028
1470243575275600,-0.0809326,0.252197,-0.892151,0.366028
1470243575296617,-0.0809326,0.252197,-0.892151,0.366028
1470243575313231,-0.0809326,0.252197,-0.892151,0.366028
1470243575335751,-0.0809326,0.252258,-0.892151,0.366028
1470243575356833,-0.0809326,0.252258,-0.89209,0.366028
1470243575372784,-0.0809937,0.252258,-0.89209,0.366028
1470243575395805,-0.0809326,0.252258,-0.89209,0.366028
1470243575416824,-0.0809326,0.252258,-0.89209,0.366028
1470243575433338,-0.0809937,0.252319,-0.89209,0.366028
1470243575455358,-0.0809937,0.252319,-0.89209,0.366028
1470243575476884,-0.0809937,0.252319,-0.89209,0.365967
1470243575492894,-0.0809937,0.25238,-0.89209,0.365967
1470243575515412,-0.0809937,0.252441,-0.89209,0.365967
1470243575537952,-0.0809937,0.252441,-0.89209,0.365967
1470243575552991,-0.0809937,0.252441,-0.89209,0.365967
1470243575575468,-0.0809937,0.252502,-0.892029,0.365967
1470243575597986,-0.0809937,0.252502,-0.892029,0.365967
1470243575613001,-0.0809937,0.252502,-0.892029,0.365967
1470243575635521,-0.0809937,0.252563,-0.892029,0.365967
1470243575658040,-0.0809937,0.252563,-0.892029,0.365967
1470243575672553,-0.0809937,0.252563,-0.892029,0.365967
1470243575695576,-0.0809937,0.252563,-0.892029,0.365967
1470243575725601,-0.0809937,0.252563,-0.892029,0.365967
1470243575732654,-0.0809937,0.252625,-0.892029,0.365967
1470243575755628,-0.0809937,0.252625,-0.892029,0.365967
1470243575778148,-0.0809937,0.252625,-0.892029,0.365967
1470243575792161,-0.0809937,0.252686,-0.892029,0.365967
1470243575815682,-0.0809937,0.252686,-0.892029,0.365967
1470243575838202,-0.0809937,0.252686,-0.891968,0.365967
1470243575852215,-0.0809937,0.252686,-0.891968,0.365967
1470243575875735,-0.0809937,0.252747,-0.891968,0.365967
1470243575898272,-0.0809937,0.252747,-0.891968,0.365967
1470243575912402,-0.0809937,0.252747,-0.891968,0.365967
1470243575935407,-0.0810547,0.252747,-0.891968,0.365967
1470243575958421,-0.0810547,0.252808,-0.891968,0.365967
1470243575972433,-0.0810547,0.252808,-0.891968,0.365967
1470243575995516,-0.0810547,0.252808,-0.891968,0.365967
1470243576017974,-0.0810547,0.252808,-0.891968,0.365967
1470243576039021,-0.0810547,0.252808,-0.891968,0.365967
1470243576055508,-0.0810547,0.252808,-0.891968,0.365967
1470243576078028,-0.0810547,0.252869,-0.891968,0.365967
1470243576099047,-0.0810547,0.252869,-0.891968,0.365967
1470243576115578,-0.0810547,0.252869,-0.891968,0.365967
1470243576138081,-0.0811157,0.25293,-0.891968,0.365967
1470243576159108,-0.0811157,0.25293,-0.891907,0.365967
1470243576175616,-0.0811157,0.25293,-0.891907,0.365967
1470243576198135,-0.0811157,0.25293,-0.891907,0.365967
1470243576219181,-0.0811157,0.25293,-0.891907,0.365967
1470243576235669,-0.0811157,0.25293,-0.891907,0.365967
1470243576258238,-0.0811157,0.252991,-0.891907,0.365967
1470243576279208,-0.0811157,0.252991,-0.891907,0.365967
1470243576295725,-0.0811157,0.252991,-0.891907,0.365967
1470243576324335,-0.0811157,0.252991,-0.891907,0.365967
1470243576339263,-0.0811157,0.253052,-0.891907,0.365906
1470243576355777,-0.0811768,0.253052,-0.891907,0.365906
1470243576378297,-0.0811768,0.253113,-0.891907,0.365906
1470243576399319,-0.0811768,0.253113,-0.891907,0.365906
1470243576415336,-0.0811768,0.253113,-0.891907,0.365906
1470243576437851,-0.0811768,0.253113,-0.891907,0.365906
1470243576460871,-0.0811768,0.253174,-0.891907,0.365906
1470243576475885,-0.0811768,0.253174,-0.891907,0.365906
1470243576497910,-0.0811768,0.253174,-0.891907,0.365906
1470243576520425,-0.0811768,0.253174,-0.891846,0.365906
1470243576535438,-0.0811768,0.253174,-0.891846,0.365906
1470243576557959,-0.0811768,0.253235,-0.891846,0.365906
1470243576580492,-0.0811768,0.253235,-0.891846,0.365906
1470243576594992,-0.0812378,0.253235,-0.891846,0.365906
1470243576618012,-0.0812378,0.253235,-0.891846,0.365906
1470243576640533,-0.0812378,0.253235,-0.891846,0.365906
1470243576655046,-0.0812378,0.253296,-0.891846,0.365906
1470243576678157,-0.0812378,0.253296,-0.891846,0.365906
1470243576700613,-0.0812378,0.253296,-0.891846,0.365906
1470243576715100,-0.0812378,0.253296,-0.891846,0.365906
1470243576738121,-0.0812378,0.253357,-0.891846,0.365906
1470243576760640,-0.0812378,0.253357,-0.891846,0.365906
1470243576775154,-0.0812378,0.253357,-0.891846,0.365906
1470243576798174,-0.0812378,0.253357,-0.891785,0.365906
1470243576820738,-0.0812378,0.253418,-0.891785,0.365906
1470243576835210,-0.0812378,0.253418,-0.891785,0.365906
1470243576858229,-0.0812378,0.253418,-0.891785,0.365906
1470243576880760,-0.0812378,0.253479,-0.891785,0.365906
1470243576894762,-0.0812378,0.253479,-0.891785,0.365906
1470243576918282,-0.0812378,0.25354,-0.891785,0.365906
1470243576940803,-0.0812378,0.25354,-0.891785,0.365906
1470243576961821,-0.0812378,0.25354,-0.891785,0.365906
1470243576978335,-0.0812378,0.25354,-0.891785,0.365906
1470243577008386,-0.0812378,0.253601,-0.891785,0.365906
1470243577029382,-0.0812378,0.253601,-0.891785,0.365906
1470243577038390,-0.0812378,0.253601,-0.891724,0.365906
1470243577060911,-0.0812378,0.253662,-0.891724,0.365906
1470243577082029,-0.0812378,0.253662,-0.891724,0.365906
1470243577097945,-0.0812378,0.253662,-0.891724,0.365906
1470243577103481,-0.0812378,0.253723,-0.891724,0.365906
1470243577125976,-0.0812378,0.253723,-0.891724,0.365906
1470243577148544,-0.0812378,0.253723,-0.891724,0.365906
1470243577163503,-0.0812378,0.253784,-0.891724,0.365906
1470243577186050,-0.0812378,0.253784,-0.891724,0.365906
1470243577208572,-0.0812378,0.253784,-0.891724,0.365906
1470243577223584,-0.0812378,0.253784,-0.891724,0.365906
1470243577249123,-0.0812378,0.253784,-0.891724,0.365906
1470243577268625,-0.0812378,0.253784,-0.891724,0.365906
1470243577283610,-0.0812378,0.253784,-0.891724,0.365906
1470243577306222,-0.0812378,0.253845,-0.891724,0.365906
1470243577328655,-0.0812378,0.253845,-0.891663,0.365906
1470243577343666,-0.0812378,0.253845,-0.891663,0.365906
1470243577366244,-0.0812378,0.253906,-0.891663,0.365906
1470243577388704,-0.0812378,0.253906,-0.891663,0.365906
1470243577403720,-0.0812378,0.253906,-0.891663,0.365906
1470243577426238,-0.0812378,0.253906,-0.891663,0.365906
1470243577448758,-0.0812378,0.253906,-0.891663,0.365906
1470243577463852,-0.0812378,0.253967,-0.891663,0.365906
1470243577486400,-0.0812378,0.253967,-0.891663,0.365906
1470243577508354,-0.0812378,0.254028,-0.891663,0.365906
1470243577523826,-0.0812378,0.254028,-0.891663,0.365906
1470243577553408,-0.0812378,0.254028,-0.891663,0.365906
1470243577568917,-0.0812378,0.254028,-0.891663,0.365906
1470243577583422,-0.0812378,0.254028,-0.891663,0.365906
1470243577605900,-0.0812378,0.254028,-0.891602,0.365906
1470243577628921,-0.0811157,0.253967,-0.891663,0.365967
1470243577643433,-0.0811157,0.253967,-0.891602,0.365967
1470243577668956,-0.0811768,0.253967,-0.891602,0.365967
1470243577688489,-0.0811157,0.254028,-0.891602,0.365967
1470243577703520,-0.0811768,0.254028,-0.891602,0.365967
1470243577726009,-0.0811768,0.254089,-0.891602,0.365967
1470243577757576,-0.0811768,0.254089,-0.891602,0.365967
1470243577763543,-0.0811768,0.254089,-0.891602,0.365967
1470243577786107,-0.0811157,0.254089,-0.891602,0.365967
1470243577808637,-0.0811157,0.254089,-0.891602,0.365967
1470243577823609,-0.0811157,0.254089,-0.891602,0.365967
1470243577846116,-0.0811157,0.254089,-0.891602,0.365967
1470243577868655,-0.0811157,0.25415,-0.891602,0.365967
1470243577883713,-0.0811157,0.25415,-0.891602,0.365967
1470243577906211,-0.0811157,0.25415,-0.891602,0.365967
1470243577928696,-0.0811157,0.25415,-0.891602,0.365967
1470243577943703,-0.0811157,0.254211,-0.891541,0.365967
1470243577966223,-0.0811157,0.254211,-0.891541,0.365967
1470243577988744,-0.0811157,0.254272,-0.891541,0.365967
1470243578004789,-0.0811157,0.254272,-0.891541,0.365967
1470243578025793,-0.0811157,0.254272,-0.891541,0.365967
1470243578048299,-0.0811157,0.254272,-0.891541,0.365967
1470243578064812,-0.0810547,0.254333,-0.891541,0.365967
1470243578086331,-0.0810547,0.254272,-0.891541,0.365967
1470243578108351,-0.0810547,0.254333,-0.891541,0.365967
1470243578124865,-0.0810547,0.254333,-0.891541,0.365967
1470243578145900,-0.0810547,0.254333,-0.891541,0.365967
1470243578168438,-0.0810547,0.254395,-0.891541,0.365967
1470243578184919,-0.0810547,0.254395,-0.891541,0.365967
1470243578205965,-0.0810547,0.254395,-0.891479,0.365967
1470243578228961,-0.0810547,0.254456,-0.891479,0.365967
1470243578244974,-0.0810547,0.254456,-0.891479,0.365967
1470243578266007,-0.0810547,0.254456,-0.891479,0.365967
1470243578288539,-0.0810547,0.254456,-0.891479,0.365967
1470243578305027,-0.0809937,0.254456,-0.891479,0.365967
1470243578326046,-0.0809937,0.254456,-0.891479,0.365967
1470243578348594,-0.0809937,0.254517,-0.891479,0.365967
1470243578366649,-0.0809937,0.254517,-0.891479,0.365967
1470243578386167,-0.0809937,0.254517,-0.891479,0.365967
1470243578408633,-0.0809937,0.254517,-0.891479,0.365967
1470243578426636,-0.0809937,0.254517,-0.891479,0.365967
1470243578446215,-0.0809937,0.254578,-0.891479,0.365967
1470243578468674,-0.0810547,0.254578,-0.891479,0.365967
1470243578486732,-0.0809937,0.254578,-0.891479,0.365967
1470243578506208,-0.0809937,0.254578,-0.891479,0.365967
1470243578528729,-0.0809937,0.254639,-0.891479,0.365967
1470243578546745,-0.0809937,0.254639,-0.891479,0.365967
1470243578566262,-0.0809937,0.254639,-0.891479,0.365967
1470243578588782,-0.0809937,0.254639,-0.891418,0.365967
1470243578606298,-0.0809937,0.254639,-0.891418,0.365967
1470243578626316,-0.0809937,0.254639,-0.891418,0.365967
1470243578648385,-0.0809937,0.254639,-0.891418,0.365967
1470243578666920,-0.0809937,0.2547,-0.891418,0.365967
1470243578685883,-0.0809937,0.2547,-0.891418,0.365967
1470243578708390,-0.0809937,0.2547,-0.891418,0.365967
1470243578726407,-0.0809937,0.254761,-0.891418,0.365967
1470243578745949,-0.0809937,0.254761,-0.891418,0.365967
1470243578768459,-0.0809937,0.254761,-0.891418,0.365967
1470243578786491,-0.0809937,0.254761,-0.891418,0.365967
1470243578806010,-0.0809937,0.254761,-0.891418,0.365967
1470243578828498,-0.0809937,0.254761,-0.891418,0.365967
1470243578846559,-0.0809937,0.254761,-0.891418,0.365967
1470243578866058,-0.0809326,0.254761,-0.891418,0.366028
1470243578888608,-0.0809326,0.254822,-0.891418,0.366028
1470243578906595,-0.0809326,0.254822,-0.891418,0.366028
1470243578926085,-0.0809326,0.254822,-0.891418,0.366028
1470243578948634,-0.0809326,0.254822,-0.891418,0.366028
1470243578966463,-0.0809326,0.254822,-0.891357,0.366028
1470243578987453,-0.0809326,0.254822,-0.891357,0.366028
1470243579008506,-0.0809326,0.254883,-0.891357,0.366028
1470243579026489,-0.0809326,0.254883,-0.891357,0.366028
1470243579047527,-0.0805664,0.254944,-0.891296,0.36615
1470243579068571,-0.0803223,0.255127,-0.891235,0.366333
1470243579086547,-0.0803223,0.255127,-0.891235,0.366333
1470243579107562,-0.0803223,0.255127,-0.891235,0.366333
1470243579128582,-0.0803223,0.255127,-0.891235,0.366333
1470243579146596,-0.0803223,0.255127,-0.891235,0.366333
1470243579167616,-0.0802612,0.255127,-0.891235,0.366333
1470243579188661,-0.0802612,0.255127,-0.891235,0.366333
1470243579206675,-0.0802612,0.255127,-0.891235,0.366333
1470243579227669,-0.0800171,0.255066,-0.891174,0.366516
1470243579248689,-0.0800171,0.255127,-0.891174,0.366516
1470243579266729,-0.0800171,0.255127,-0.891174,0.366516
1470243579287744,-0.0800171,0.255127,-0.891174,0.366516
1470243579308781,-0.0800171,0.255127,-0.891174,0.366516
1470243579326759,-0.0800171,0.255188,-0.891174,0.366516
1470243579348778,-0.0800171,0.255188,-0.891174,0.366516
1470243579368296,-0.0800171,0.255188,-0.891174,0.366516
1470243579386921,-0.0799561,0.255188,-0.891174,0.366516
1470243579409386,-0.0799561,0.255188,-0.891174,0.366516
1470243579428899,-0.0799561,0.255188,-0.891174,0.366516
1470243579446391,-0.0799561,0.255188,-0.891174,0.366516
1470243579469460,-0.079895,0.255188,-0.891174,0.366516
1470243579488914,-0.079895,0.255188,-0.891174,0.366516
1470243579506952,-0.079895,0.255249,-0.891113,0.366577
1470243579528967,-0.079895,0.255249,-0.891113,0.366577
1470243579548458,-0.079895,0.255249,-0.891113,0.366577
1470243579566474,-0.079895,0.255249,-0.891113,0.366577
1470243579587998,-0.079895,0.255249,-0.891113,0.366577
1470243579611514,-0.079895,0.25531,-0.891113,0.366577
1470243579626529,-0.079895,0.25531,-0.891113,0.366577
1470243579648050,-0.079895,0.25531,-0.891113,0.366577
1470243579669675,-0.079895,0.25531,-0.891113,0.366577
1470243579685584,-0.079834,0.25531,-0.891113,0.366577
1470243579708101,-0.079834,0.25531,-0.891113,0.366577
1470243579729175,-0.079834,0.25531,-0.891113,0.366577
1470243579745636,-0.079834,0.25531,-0.891113,0.366577
1470243579783670,-0.079834,0.25531,-0.891113,0.366577
1470243579789174,-0.079834,0.25531,-0.891113,0.366577
1470243579805688,-0.079834,0.25531,-0.891113,0.366577
1470243579828231,-0.079834,0.255371,-0.891113,0.366577
1470243579849227,-0.0797729,0.255371,-0.891113,0.366577
1470243579865771,-0.0797729,0.255371,-0.891113,0.366577
1470243579888262,-0.0797729,0.255371,-0.891113,0.366577
1470243579909314,-0.0797729,0.255371,-0.891113,0.366577
1470243579925796,-0.0797729,0.255371,-0.891113,0.366577
1470243579948316,-0.0797729,0.255371,-0.891113,0.366577
1470243579969335,-0.0797119,0.255371,-0.891113,0.366577
1470243579985851,-0.0797119,0.255371,-0.891113,0.366577
1470243580007873,-0.0797119,0.255371,-0.891113,0.366577
1470243580029443,-0.0797119,0.255371,-0.891113,0.366577
1470243580045904,-0.0797119,0.255371,-0.891113,0.366577
1470243580067924,-0.0797119,0.255432,-0.891113,0.366577
1470243580089464,-0.0796509,0.255432,-0.891113,0.366638
1470243580105458,-0.0797119,0.255432,-0.891113,0.366577
1470243580128478,-0.0796509,0.255432,-0.891052,0.366577
1470243580149497,-0.0796509,0.255432,-0.891052,0.366638
1470243580165531,-0.0796509,0.255493,-0.891052,0.366638
1470243580188035,-0.0796509,0.255493,-0.891052,0.366638
1470243580217058,-0.0796509,0.255493,-0.891052,0.366638
1470243580225566,-0.0796509,0.255432,-0.891052,0.366638
1470243580248085,-0.0796509,0.255432,-0.891052,0.366638
1470243580270608,-0.0795898,0.255493,-0.891052,0.366638
1470243580285671,-0.0795898,0.255493,-0.891052,0.366638
1470243580308141,-0.0795898,0.255493,-0.891052,0.366638
1470243580338199,-0.0795898,0.255493,-0.891052,0.366638
1470243580345172,-0.0795898,0.255493,-0.891052,0.366638
1470243580368194,-0.0795898,0.255493,-0.891052,0.366638
1470243580390714,-0.0795898,0.255493,-0.891052,0.366638
1470243580404726,-0.0795898,0.255493,-0.891052,0.366638
1470243580428248,-0.0795288,0.255493,-0.891052,0.366638
1470243580450778,-0.0795288,0.255554,-0.891052,0.366638
1470243580464782,-0.0795288,0.255554,-0.891052,0.366638
1470243580488301,-0.0794678,0.255554,-0.891052,0.366638
1470243580510821,-0.0794678,0.255554,-0.891052,0.366638
1470243580524835,-0.0794678,0.255554,-0.891052,0.366638
1470243580548356,-0.0794678,0.255554,-0.891052,0.366638
1470243580570875,-0.0794678,0.255554,-0.891052,0.366699
1470243580584888,-0.0794678,0.255554,-0.891052,0.366699
1470243580607912,-0.0794067,0.255554,-0.891052,0.366699
1470243580630929,-0.0794067,0.255554,-0.891052,0.366699
1470243580644942,-0.0794067,0.255615,-0.891052,0.366699
1470243580668017,-0.0794067,0.255615,-0.891052,0.366699
1470243580690983,-0.0794067,0.255554,-0.891052,0.366699
1470243580704997,-0.0794067,0.255554,-0.891052,0.366699
1470243580728517,-0.0793457,0.255615,-0.891052,0.366699
1470243580750536,-0.0793457,0.255615,-0.891052,0.366699
1470243580772155,-0.0793457,0.255615,-0.891052,0.366699
1470243580788071,-0.0793457,0.255615,-0.890991,0.366699
1470243580810591,-0.0793457,0.255615,-0.890991,0.366699
1470243580831611,-0.0795288,0.255798,-0.89093,0.366699
1470243580848126,-0.0795288,0.255859,-0.89093,0.366699
1470243580870646,-0.0795288,0.255859,-0.89093,0.366699
1470243580891692,-0.0795288,0.255798,-0.89093,0.366699
1470243580908178,-0.0794678,0.255798,-0.89093,0.366699
1470243580930698,-0.0794678,0.255859,-0.89093,0.366699
1470243580951752,-0.0794678,0.255859,-0.89093,0.366699
1470243580968251,-0.0794678,0.255859,-0.89093,0.366699
1470243580996791,-0.0795288,0.255859,-0.89093,0.366699
1470243581011830,-0.0794678,0.255859,-0.89093,0.366699
1470243581028287,-0.0795288,0.255859,-0.89093,0.366699
1470243581050811,-0.0795288,0.255859,-0.89093,0.366699
1470243581079333,-0.0794678,0.255859,-0.89093,0.366699
1470243581087840,-0.0796509,0.255981,-0.890869,0.36676
1470243581110860,-0.079834,0.256226,-0.890747,0.36676
1470243581131887,-0.079895,0.256409,-0.890686,0.366821
1470243581148405,-0.0800171,0.256653,-0.890625,0.36676
1470243581170914,-0.0802612,0.25708,-0.890503,0.366821
1470243581193434,-0.0804443,0.257446,-0.89032,0.366821
1470243581208477,-0.0805664,0.25769,-0.890259,0.366821
1470243581230988,-0.0805664,0.25769,-0.890259,0.366821
1470243581253489,-0.0805664,0.257751,-0.890259,0.366821
1470243581269031,-0.0805664,0.257751,-0.890259,0.366821
1470243581291022,-0.0805664,0.257751,-0.890259,0.366821
1470243581313042,-0.0805664,0.257751,-0.890259,0.366821
1470243581328098,-0.0805664,0.257751,-0.890259,0.366821
1470243581350621,-0.0805664,0.257751,-0.890259,0.366821
1470243581373167,-0.0805664,0.257751,-0.890259,0.366821
1470243581387668,-0.0805664,0.257751,-0.890198,0.366821
1470243581410670,-0.0805664,0.257751,-0.890198,0.366821
1470243581433190,-0.0805664,0.257751,-0.890198,0.366882
1470243581447703,-0.0805664,0.257751,-0.890198,0.366882
1470243581470723,-0.0803833,0.257629,-0.890259,0.366882
1470243581493246,-0.0803833,0.257629,-0.890259,0.366882
1470243581507262,-0.0803833,0.257629,-0.890259,0.366882
1470243581530809,-0.0803833,0.257629,-0.890259,0.366882
1470243581553298,-0.0803833,0.257629,-0.890259,0.366882
1470243581567310,-0.0803833,0.257629,-0.890259,0.366882
1470243581590832,-0.0803833,0.257629,-0.890259,0.366882
1470243581612895,-0.0803833,0.257629,-0.890259,0.366882
1470243581627366,-0.0803833,0.257629,-0.890259,0.366882
1470243581650885,-0.0804443,0.257813,-0.890198,0.366821
1470243581673407,-0.0804443,0.258057,-0.890198,0.366821
1470243581694424,-0.0805054,0.258057,-0.890198,0.366821
1470243581724452,-0.0805054,0.258057,-0.890198,0.366821
1470243581733483,-0.0804443,0.258057,-0.890198,0.366821
1470243581754479,-0.0804443,0.258057,-0.890198,0.366821
1470243581770493,-0.0804443,0.258057,-0.890137,0.366821
1470243581793013,-0.0804443,0.258057,-0.890137,0.366821
1470243581814532,-0.0805054,0.258057,-0.890137,0.366821
1470243581830549,-0.0804443,0.258118,-0.890137,0.366821
1470243581853067,-0.0804443,0.258118,-0.890137,0.366821
1470243581874141,-0.0804443,0.258118,-0.890137,0.366821
1470243581890653,-0.0804443,0.258118,-0.890137,0.366821
1470243581913121,-0.0804443,0.258118,-0.890137,0.366821
1470243581934183,-0.0804443,0.258118,-0.890137,0.366821
1470243581950657,-0.0804443,0.258118,-0.890137,0.366821
1470243581973175,-0.0804443,0.258118,-0.890137,0.366821
1470243582001700,-0.0804443,0.258118,-0.890137,0.366821
1470243582010712,-0.0804443,0.258179,-0.890137,0.366821
1470243582033229,-0.0804443,0.258118,-0.890137,0.366821
1470243582054297,-0.0804443,0.258179,-0.890137,0.366821
1470243582070765,-0.0803833,0.258179,-0.890137,0.366821
1470243582093283,-0.0803833,0.258179,-0.890137,0.366821
1470243582114329,-0.0803833,0.258179,-0.890137,0.366821
1470243582130817,-0.0803833,0.25824,-0.890137,0.366821
1470243582153338,-0.0803833,0.25824,-0.890137,0.366821
1470243582175870,-0.0803833,0.25824,-0.890137,0.366821
1470243582190869,-0.0803833,0.25824,-0.890137,0.366821
1470243582213391,-0.0803833,0.25824,-0.890137,0.366821
1470243582235910,-0.0803833,0.25824,-0.890137,0.366821
1470243582250924,-0.0803223,0.25824,-0.890076,0.366821
1470243582273491,-0.0803223,0.258301,-0.890076,0.366821
1470243582295982,-0.0803223,0.258301,-0.890076,0.366821
1470243582309978,-0.0803223,0.258301,-0.890076,0.366821
1470243582333011,-0.0803223,0.258301,-0.890076,0.366821
1470243582356019,-0.0803223,0.258301,-0.890076,0.366821
1470243582370052,-0.0803223,0.258301,-0.890076,0.366821
1470243582393052,-0.0803223,0.258301,-0.890076,0.366821
1470243582415572,-0.0803223,0.258301,-0.890076,0.366882
1470243582430085,-0.0803223,0.258301,-0.890076,0.366882
1470243582453105,-0.0803223,0.258301,-0.890076,0.366882
1470243582475628,-0.0803223,0.258301,-0.890076,0.366882
1470243582490155,-0.0803223,0.258301,-0.890076,0.366882
1470243582513165,-0.0802612,0.258301,-0.890076,0.366882
1470243582535699,-0.0802612,0.258301,-0.890076,0.366882
1470243582550193,-0.0802612,0.258301,-0.890076,0.366882
1470243582573214,-0.0800781,0.258118,-0.890076,0.367065
1470243582595733,-0.0800171,0.258118,-0.890076,0.367065
1470243582610246,-0.0801392,0.258423,-0.889893,0.367249
1470243582633268,-0.0801392,0.258423,-0.889893,0.367249
1470243582655806,-0.0800171,0.258179,-0.889893,0.367493
1470243582677308,-0.079895,0.257874,-0.889954,0.367676
1470243582693324,-0.079834,0.257813,-0.889832,0.36792
1470243582715842,-0.0799561,0.257813,-0.889709,0.368164
1470243582736962,-0.0801392,0.257996,-0.889526,0.368408
1470243582753394,-0.0802002,0.258057,-0.889404,0.368652
1470243582775895,-0.0802002,0.257935,-0.889343,0.369019
1470243582796914,-0.0800781,0.257874,-0.889221,0.369324
1470243582813428,-0.0799561,0.257935,-0.889099,0.369507
1470243582835950,-0.0799561,0.257935,-0.889099,0.369507
1470243582856969,-0.0800171,0.257935,-0.889099,0.369507
1470243582873007,-0.0800171,0.257935,-0.889099,0.369507
1470243582895503,-0.0799561,0.257935,-0.889099,0.369507
1470243582917127,-0.0795288,0.25769,-0.88916,0.36969
1470243582933058,-0.0791016,0.257568,-0.88916,0.369812
1470243582955559,-0.0789185,0.257568,-0.88916,0.369934
1470243582984082,-0.0786743,0.257446,-0.88916,0.370056
1470243582993091,-0.0786743,0.257446,-0.88916,0.370056
1470243583015611,-0.0786743,0.257446,-0.88916,0.370056
1470243583036658,-0.0786743,0.257446,-0.88916,0.370056
1470243583053145,-0.0786743,0.257446,-0.88916,0.370056
1470243583075665,-0.0786133,0.257385,-0.88916,0.370056
1470243583098185,-0.0786743,0.257385,-0.88916,0.370056
1470243583113222,-0.0786133,0.257385,-0.88916,0.370056
1470243583135719,-0.0786133,0.257385,-0.88916,0.370056
1470243583158245,-0.0786133,0.257385,-0.88916,0.370056
1470243583172751,-0.0786133,0.257385,-0.88916,0.370056
1470243583195772,-0.0785522,0.257385,-0.88916,0.370056
1470243583218330,-0.0785522,0.257385,-0.88916,0.370056
1470243583233306,-0.0785522,0.257385,-0.88916,0.370056
1470243583255827,-0.0785522,0.257385,-0.88916,0.370056
1470243583278348,-0.0785522,0.257385,-0.88916,0.370056
1470243583300878,-0.0784912,0.257385,-0.88916,0.370056
1470243583315880,-0.0784912,0.257385,-0.88916,0.370056
1470243583338400,-0.0784912,0.257385,-0.88916,0.370117
1470243583352423,-0.078186,0.257263,-0.88916,0.370239
1470243583375936,-0.0779419,0.257202,-0.88916,0.370422
1470243583398454,-0.0780029,0.257202,-0.88916,0.370422
1470243583412467,-0.0780029,0.257202,-0.88916,0.370422
1470243583435988,-0.0777588,0.257385,-0.889099,0.370483
1470243583458010,-0.0777588,0.257324,-0.889099,0.370483
1470243583472521,-0.0776978,0.257385,-0.889099,0.370483
1470243583495542,-0.0773926,0.257385,-0.889099,0.370483
1470243583518062,-0.0769043,0.257568,-0.889099,0.370483
1470243583532575,-0.0767212,0.257751,-0.889099,0.370422
1470243583555597,-0.0765381,0.257935,-0.889099,0.370361
1470243583578115,-0.076416,0.258179,-0.889099,0.370239
1470243583599176,-0.076416,0.258179,-0.889099,0.370239
1470243583615669,-0.076416,0.258301,-0.889099,0.370056
1470243583638181,-0.076416,0.25824,-0.889099,0.370056
1470243583659689,-0.076355,0.25824,-0.88916,0.370056
1470243583675703,-0.076355,0.25824,-0.88916,0.370056
1470243583698224,-0.0762939,0.25824,-0.88916,0.370056
1470243583719244,-0.0762939,0.25824,-0.889099,0.370056
1470243583743265,-0.0762939,0.258301,-0.889099,0.370056
1470243583758277,-0.0762939,0.258301,-0.889099,0.370056
1470243583779324,-0.0764771,0.25824,-0.88916,0.369934
1470243583795811,-0.0765991,0.258057,-0.889282,0.369812
1470243583818332,-0.0765381,0.258057,-0.889282,0.369812
1470243583839391,-0.0765381,0.258057,-0.889282,0.369812
1470243583855896,-0.0762939,0.257996,-0.889282,0.369873
1470243583878387,-0.0761108,0.257935,-0.889282,0.369873
1470243583899404,-0.0761719,0.257996,-0.889282,0.369873
1470243583915919,-0.076416,0.258118,-0.889343,0.369629
1470243583937939,-0.0767212,0.258118,-0.889465,0.369324
1470243583959493,-0.0771484,0.257996,-0.889587,0.369019
1470243583975472,-0.0774536,0.257813,-0.889709,0.368774
1470243583997995,-0.0777588,0.257446,-0.889832,0.368652
1470243584019535,-0.0778198,0.257019,-0.889954,0.368591
1470243584035527,-0.078064,0.256714,-0.890015,0.368652
1470243584058052,-0.0783691,0.256592,-0.890015,0.368652
1470243584080567,-0.0786743,0.256531,-0.890015,0.368591
1470243584095601,-0.0788574,0.256531,-0.890015,0.368591
1470243584118102,-0.0789795,0.256531,-0.890076,0.368469
1470243584140621,-0.0789185,0.256409,-0.890198,0.368286
1470243584155645,-0.0787964,0.256409,-0.890259,0.368042
1470243584178154,-0.0787354,0.256409,-0.890381,0.367798
1470243584200680,-0.0787354,0.256409,-0.890503,0.367554
1470243584215188,-0.0789185,0.256409,-0.890625,0.367249
1470243584238209,-0.0791626,0.256409,-0.890686,0.367004
1470243584260728,-0.0794067,0.256348,-0.890747,0.366821
1470243584274743,-0.0795898,0.256165,-0.890808,0.366821
1470243584298310,-0.0796509,0.25592,-0.890808,0.366882
1470243584320828,-0.0797119,0.255737,-0.890808,0.367065
1470243584335295,-0.0797119,0.255737,-0.890808,0.367065
1470243584358316,-0.0797119,0.255798,-0.890808,0.367065
1470243584380837,-0.0800171,0.25592,-0.890747,0.366943
1470243584395349,-0.0803833,0.256042,-0.890808,0.36676
1470243584418392,-0.0807495,0.256042,-0.890869,0.366516
1470243584440892,-0.0810547,0.25592,-0.89093,0.366394
1470243584454903,-0.0812988,0.255737,-0.89093,0.366394
1470243584478424,-0.0812988,0.255554,-0.890991,0.366455
1470243584501448,-0.0812988,0.255249,-0.890991,0.366638
1470243584514957,-0.0812988,0.255249,-0.890991,0.366638
1470243584537980,-0.0812988,0.25531,-0.890991,0.366638
1470243584560498,-0.081543,0.255371,-0.89093,0.366638
1470243584581530,-0.0818481,0.255432,-0.89093,0.366577
1470243584598044,-0.0821533,0.255615,-0.890869,0.366394
1470243584620553,-0.0821533,0.255615,-0.890869,0.366394
1470243584641588,-0.0821533,0.255615,-0.890869,0.366455
1470243584658086,-0.0821533,0.255615,-0.890869,0.366455
1470243584680610,-0.0821533,0.255615,-0.890869,0.366455
1470243584701654,-0.0821533,0.255615,-0.890869,0.366455
1470243584718178,-0.0821533,0.255615,-0.890869,0.366394
1470243584740698,-0.0821533,0.255615,-0.890869,0.366394
1470243584761734,-0.0823975,0.255615,-0.89093,0.366333
1470243584778195,-0.0823364,0.255554,-0.89093,0.366333
1470243584800714,-0.0823364,0.255554,-0.89093,0.366333
1470243584821732,-0.0822144,0.25531,-0.890991,0.366455
1470243584838247,-0.0820923,0.255066,-0.890991,0.366516
1470243584860768,-0.0820313,0.254883,-0.890991,0.366638
1470243584866274,-0.0820313,0.254883,-0.890991,0.366638
1470243584888801,-0.0820313,0.254944,-0.890991,0.366638
1470243584903806,-0.0820313,0.254944,-0.890991,0.366638
1470243584926346,-0.0822754,0.254944,-0.891052,0.366516
1470243584948847,-0.0822144,0.254944,-0.891052,0.366516
1470243584963860,-0.0822144,0.254944,-0.891052,0.366516
1470243584985881,-0.0819702,0.254639,-0.891113,0.366577
1470243585008901,-0.0817261,0.254395,-0.891174,0.366638
1470243585023914,-0.081543,0.254272,-0.891174,0.366821
1470243585046457,-0.081543,0.254272,-0.891174,0.366821
1470243585068454,-0.081604,0.254272,-0.891174,0.366821
1470243585083980,-0.081604,0.254272,-0.891174,0.366821
1470243585105987,-0.081604,0.254272,-0.891174,0.366821
1470243585129008,-0.081604,0.254272,-0.891174,0.366821
1470243585143524,-0.0814209,0.254089,-0.891235,0.36676
1470243585166042,-0.0814209,0.254089,-0.891235,0.36676
1470243585188562,-0.0814209,0.254089,-0.891235,0.36676
1470243585203577,-0.0814209,0.254089,-0.891235,0.36676
1470243585226096,-0.0814819,0.254089,-0.891235,0.36676
1470243585248646,-0.0814209,0.254089,-0.891235,0.36676
1470243585263629,-0.0814209,0.254089,-0.891235,0.36676
1470243585286176,-0.0814209,0.254089,-0.891235,0.36676
1470243585308698,-0.0814209,0.254089,-0.891235,0.36676
1470243585331215,-0.0814209,0.254028,-0.891235,0.366821
1470243585346230,-0.0814209,0.254028,-0.891235,0.36676
1470243585368839,-0.0814209,0.254028,-0.891235,0.36676
1470243585383792,-0.0814209,0.254089,-0.891235,0.36676
1470243585406264,-0.0817871,0.254272,-0.891235,0.366638
1470243585428777,-0.0820923,0.254333,-0.891235,0.366516
1470243585443791,-0.0820313,0.254333,-0.891235,0.366516
1470243585466311,-0.0820313,0.254272,-0.891235,0.366516
1470243585488946,-0.0819702,0.254333,-0.891235,0.366516
1470243585503845,-0.0818481,0.254272,-0.891174,0.366638
1470243585526372,-0.0819092,0.254272,-0.891174,0.366638
1470243585548944,-0.0819092,0.254333,-0.891174,0.366638
1470243585563900,-0.0819092,0.254333,-0.891174,0.366638
1470243585586444,-0.0820923,0.254578,-0.891174,0.366394
1470243585612008,-0.0820923,0.254517,-0.891235,0.366272
1470243585624976,-0.0820313,0.254517,-0.891235,0.366272
1470243585646489,-0.0817871,0.254272,-0.891296,0.366333
1470243585668492,-0.0814209,0.254028,-0.891357,0.366516
1470243585685045,-0.0811157,0.253845,-0.891357,0.366638
1470243585706026,-0.0811768,0.253845,-0.891357,0.366638
1470243585728581,-0.0811768,0.253906,-0.891357,0.366638
1470243585745094,-0.0811768,0.253906,-0.891357,0.366638
1470243585766115,-0.0813599,0.254028,-0.891357,0.366577
1470243585788600,-0.0813599,0.254028,-0.891357,0.366577
1470243585805121,-0.0813599,0.253967,-0.891357,0.366577
1470243585826149,-0.0811768,0.253723,-0.891418,0.366699
1470243585851657,-0.0809326,0.253601,-0.891418,0.366821
1470243585865170,-0.0808716,0.253723,-0.891296,0.366943
1470243585886188,-0.0809326,0.253967,-0.891235,0.367065
1470243585908710,-0.0810547,0.254272,-0.891113,0.367004
1470243585925251,-0.0812988,0.254639,-0.891052,0.366943
1470243585946305,-0.0814819,0.254883,-0.890991,0.366821
1470243585968800,-0.0814819,0.254822,-0.890991,0.366821
1470243585986779,-0.0811768,0.254578,-0.891113,0.366882
1470243586006297,-0.0808105,0.254517,-0.891113,0.366943
1470243586036323,-0.0805664,0.254395,-0.891113,0.367065
1470243586046832,-0.0803223,0.254333,-0.891113,0.367188
1470243586066350,-0.0801392,0.254333,-0.891052,0.36731
1470243586088870,-0.0801392,0.254395,-0.891052,0.36731
1470243586107021,-0.0802002,0.254395,-0.891052,0.36731
1470243586126503,-0.0803223,0.254578,-0.890991,0.367249
1470243586156447,-0.0803223,0.254578,-0.890991,0.367249
1470243586166440,-0.0803223,0.254578,-0.890991,0.367249
1470243586186478,-0.0801392,0.254333,-0.891052,0.36731
1470243586208569,-0.0801392,0.254333,-0.891052,0.36731
1470243586226494,-0.0801392,0.254333,-0.891052,0.36731
1470243586246028,-0.0802002,0.254395,-0.891052,0.367249
1470243586268552,-0.0802002,0.254395,-0.891052,0.367249
1470243586286549,-0.0803833,0.254578,-0.890991,0.367188
1470243586306100,-0.0805664,0.2547,-0.890991,0.367065
1470243586328685,-0.0805664,0.2547,-0.890991,0.367065
1470243586346644,-0.0802612,0.254578,-0.891052,0.367126
1470243586366149,-0.0799561,0.254395,-0.891113,0.367126
1470243586388683,-0.0796509,0.254333,-0.891174,0.367188
1470243586406713,-0.0797119,0.254333,-0.891174,0.367188
1470243586426215,-0.0797119,0.254333,-0.891174,0.367188
1470243586448726,-0.0797119,0.254333,-0.891113,0.367188
1470243586466735,-0.079834,0.254456,-0.891174,0.367126
1470243586486259,-0.0797729,0.254395,-0.891174,0.367126
1470243586508747,-0.0797729,0.254395,-0.891174,0.367126
1470243586526763,-0.0797729,0.254395,-0.891174,0.367126
1470243586546313,-0.0797729,0.254395,-0.891174,0.367126
1470243586568818,-0.0797729,0.254395,-0.891174,0.367126
1470243586586818,-0.0797729,0.254395,-0.891174,0.367126
1470243586607851,-0.0800781,0.254639,-0.891052,0.367126
1470243586631951,-0.0803223,0.254639,-0.891052,0.367065
1470243586646995,-0.0804443,0.254578,-0.891052,0.367004
1470243586667398,-0.0804443,0.254578,-0.891052,0.367004
1470243586689006,-0.0802612,0.254395,-0.891113,0.367126
1470243586706424,-0.0801392,0.254211,-0.891113,0.367188
1470243586727446,-0.0801392,0.254211,-0.891113,0.367188
1470243586748462,-0.0802002,0.254211,-0.891113,0.367188
1470243586766479,-0.0804443,0.254456,-0.891052,0.367126
1470243586787497,-0.0807495,0.254761,-0.891052,0.366943
1470243586808545,-0.0809326,0.254883,-0.891052,0.366821
1470243586832541,-0.0811157,0.254883,-0.891113,0.366638
1470243586847583,-0.0809326,0.254639,-0.891174,0.366638
1470243586868626,-0.0805664,0.254211,-0.891296,0.36676
1470243586886663,-0.0803223,0.254028,-0.891296,0.366943
1470243586909110,-0.0802002,0.254028,-0.891235,0.367004
1470243586929124,-0.0802002,0.254089,-0.891235,0.367004
1470243586946641,-0.0802002,0.254089,-0.891235,0.367004
1470243586969177,-0.0805664,0.254333,-0.891235,0.366821
1470243586988717,-0.0808105,0.254395,-0.891296,0.366638
1470243587006738,-0.0809326,0.254395,-0.891296,0.366516
1470243587029250,-0.0808105,0.25415,-0.891418,0.366516
1470243587048786,-0.0803833,0.253784,-0.891479,0.366577
1470243587066793,-0.0803833,0.253723,-0.891479,0.366577
1470243587089307,-0.0803833,0.253906,-0.891418,0.366699
1470243587108786,-0.0804443,0.253906,-0.891418,0.366699
1470243587126803,-0.0806885,0.25415,-0.891357,0.366638
1470243587149322,-0.0810547,0.254456,-0.891296,0.366516
1470243587168840,-0.0812988,0.254578,-0.891296,0.366333
1470243587186856,-0.0812378,0.254578,-0.891296,0.366394
1470243587209517,-0.0810547,0.254333,-0.891357,0.366455
1470243587228914,-0.0806885,0.254089,-0.891418,0.366577
1470243587246942,-0.0805054,0.254028,-0.891357,0.366699
1470243587268929,-0.0805054,0.254089,-0.891357,0.366699
1470243587289490,-0.0805664,0.254089,-0.891357,0.366699
1470243587307025,-0.0807495,0.254333,-0.891296,0.366516
1470243587328986,-0.0809937,0.254517,-0.891357,0.366333
1470243587348566,-0.0810547,0.254517,-0.891357,0.366211
1470243587366545,-0.0809937,0.254517,-0.891357,0.366211
1470243587389037,-0.0806885,0.254211,-0.891479,0.366333
1470243587409558,-0.0803223,0.253784,-0.891541,0.366516
1470243587426096,-0.0801392,0.253723,-0.891541,0.366638
