timestamp,x,y,z,w
1470245334682453,-0.115906,0.0369873,-0.731995,0.670349
1470245334696967,-0.115784,0.0370483,-0.731995,0.67041
1470245334719987,-0.115479,0.0371094,-0.732056,0.670349
1470245334742507,-0.115479,0.0371094,-0.732056,0.670349
1470245334757020,-0.115356,0.0371094,-0.732178,0.670227
1470245334780541,-0.115234,0.0370483,-0.732361,0.670105
1470245334802561,-0.115417,0.0371094,-0.732422,0.669922
1470245334817074,-0.115784,0.0371704,-0.732544,0.6698
1470245334840096,-0.115906,0.0370483,-0.732666,0.669617
1470245334862615,-0.115906,0.0370483,-0.732666,0.669617
1470245334877128,-0.115967,0.0371704,-0.732727,0.669495
1470245334900149,-0.11615,0.0374756,-0.732849,0.669373
1470245334922668,-0.11615,0.0377808,-0.733032,0.669189
1470245334937182,-0.11615,0.0380249,-0.733215,0.668945
1470245334960203,-0.116211,0.038208,-0.733459,0.66864
1470245334982722,-0.116516,0.0385742,-0.733582,0.668396
1470245334997235,-0.116821,0.0391235,-0.733704,0.668213
1470245335020256,-0.117188,0.0395508,-0.733765,0.668091
1470245335042778,-0.11731,0.039856,-0.733704,0.668091
1470245335063795,-0.117493,0.039978,-0.733582,0.668213
1470245335080310,-0.117615,0.039978,-0.733398,0.668396
1470245335102830,-0.117737,0.039856,-0.733093,0.66864
1470245335123849,-0.118103,0.039917,-0.732849,0.668884
1470245335140364,-0.118652,0.039917,-0.732666,0.669006
1470245335162884,-0.119202,0.039856,-0.732483,0.669067
1470245335185404,-0.119873,0.0401001,-0.7323,0.669189
1470245335200418,-0.120483,0.0402832,-0.732239,0.669128
1470245335222438,-0.12085,0.0404663,-0.732178,0.669128
1470245335243958,-0.121277,0.0407104,-0.732117,0.669067
1470245335260472,-0.121704,0.0411377,-0.732056,0.669006
1470245335282492,-0.122131,0.0414429,-0.732117,0.668884
1470245335305013,-0.122437,0.0418091,-0.732117,0.668762
1470245335320026,-0.122803,0.0422974,-0.732117,0.668701
1470245335342546,-0.122986,0.0427246,-0.732117,0.66864
1470245335364065,-0.123169,0.0432739,-0.732117,0.668579
1470245335380080,-0.123413,0.0438232,-0.732117,0.668457
1470245335402599,-0.123596,0.0442505,-0.732117,0.668396
1470245335431126,-0.123657,0.0444946,-0.732239,0.668274
1470245335440134,-0.123779,0.0447388,-0.732239,0.668274
1470245335462654,-0.123779,0.0450439,-0.732178,0.668274
1470245335483673,-0.123779,0.0450439,-0.732178,0.668274
1470245335500187,-0.123535,0.0452271,-0.732117,0.668335
1470245335522707,-0.123291,0.0454102,-0.732117,0.668396
1470245335545229,-0.123108,0.0455933,-0.732117,0.668396
1470245335560241,-0.122925,0.0457153,-0.732178,0.668335
1470245335582761,-0.122742,0.0457764,-0.732239,0.668335
1470245335605282,-0.122742,0.0457764,-0.732239,0.668335
1470245335620295,-0.122681,0.0457153,-0.732361,0.668213
1470245335642815,-0.12262,0.0457764,-0.732361,0.668213
1470245335665336,-0.12262,0.0457764,-0.732361,0.668213
1470245335679348,-0.122437,0.0455322,-0.732483,0.668152
1470245335702869,-0.122131,0.0452881,-0.732544,0.668152
1470245335725389,-0.121704,0.0449829,-0.732605,0.668213
1470245335739402,-0.12146,0.0447998,-0.732605,0.668213
1470245335762926,-0.121033,0.0445557,-0.732666,0.668213
1470245335785443,-0.120667,0.0443726,-0.732727,0.668274
1470245335799456,-0.120361,0.0441895,-0.732849,0.668213
1470245335822477,-0.120056,0.0440674,-0.73291,0.668152
1470245335845497,-0.120056,0.0440674,-0.73291,0.668152
1470245335860010,-0.119995,0.0440674,-0.73291,0.668152
1470245335882531,-0.119995,0.0440063,-0.732971,0.668152
1470245335905551,-0.119995,0.0440063,-0.732971,0.668152
1470245335919564,-0.119995,0.0440063,-0.732971,0.668152
1470245335942585,-0.119873,0.0438843,-0.73291,0.668213
1470245335965105,-0.11969,0.0437012,-0.732849,0.668335
1470245335979618,-0.11969,0.0437012,-0.732849,0.668335
1470245336002638,-0.11969,0.0437012,-0.732849,0.668335
1470245336025159,-0.11969,0.0437012,-0.732849,0.668335
1470245336046178,-0.11969,0.0437012,-0.732849,0.668335
1470245336062692,-0.11969,0.0436401,-0.73291,0.668335
1470245336085213,-0.11969,0.0436401,-0.73291,0.668335
1470245336106232,-0.119629,0.0436401,-0.73291,0.668335
1470245336122746,-0.119629,0.0436401,-0.73291,0.668335
1470245336145268,-0.119629,0.0436401,-0.73291,0.668335
1470245336166285,-0.119629,0.0436401,-0.73291,0.668335
1470245336182800,-0.119629,0.0436401,-0.73291,0.668335
1470245336211326,-0.119629,0.0436401,-0.73291,0.668335
1470245336226339,-0.119629,0.0436401,-0.73291,0.668335
1470245336242867,-0.119629,0.0436401,-0.73291,0.668335
1470245336265388,-0.119629,0.0436401,-0.73291,0.668335
1470245336286407,-0.119629,0.0436401,-0.73291,0.668335
1470245336302921,-0.119629,0.0436401,-0.73291,0.668335
1470245336324941,-0.119629,0.0436401,-0.73291,0.668335
1470245336346460,-0.119629,0.0435791,-0.73291,0.668335
1470245336362977,-0.119629,0.0435791,-0.73291,0.668335
1470245336384995,-0.119629,0.0435791,-0.73291,0.668335
1470245336406516,-0.119629,0.0436401,-0.73291,0.668335
1470245336429034,-0.119629,0.0436401,-0.73291,0.668335
1470245336445549,-0.119629,0.0435791,-0.73291,0.668335
1470245336467569,-0.119629,0.0435791,-0.73291,0.668335
1470245336482582,-0.119629,0.0435791,-0.73291,0.668335
1470245336505103,-0.119629,0.0435791,-0.73291,0.668335
1470245336527623,-0.119629,0.0435791,-0.73291,0.668335
1470245336542637,-0.119629,0.0435791,-0.73291,0.668335
1470245336565157,-0.119568,0.0436401,-0.73291,0.668335
1470245336587677,-0.119568,0.0435791,-0.73291,0.668335
1470245336602190,-0.119629,0.0435791,-0.73291,0.668335
1470245336625210,-0.119568,0.0435791,-0.73291,0.668335
1470245336647731,-0.119568,0.0435791,-0.73291,0.668335
1470245336662243,-0.119568,0.0435791,-0.73291,0.668335
1470245336685264,-0.119568,0.0436401,-0.73291,0.668335
1470245336707785,-0.119568,0.0435791,-0.73291,0.668335
1470245336722298,-0.119568,0.0435791,-0.73291,0.668335
1470245336745318,-0.119568,0.0435791,-0.73291,0.668335
1470245336773844,-0.119568,0.0435791,-0.73291,0.668335
1470245336782351,-0.119568,0.0435791,-0.73291,0.668335
1470245336805372,-0.119507,0.0435791,-0.73291,0.668335
1470245336827892,-0.119507,0.0435791,-0.73291,0.668335
1470245336841904,-0.119507,0.0435791,-0.73291,0.668335
1470245336865426,-0.119507,0.0436401,-0.73291,0.668335
1470245336887946,-0.119568,0.0435791,-0.73291,0.668335
1470245336901960,-0.11969,0.0436401,-0.73291,0.668274
1470245336924980,-0.11969,0.0436401,-0.73291,0.668274
1470245336948000,-0.11969,0.0436401,-0.73291,0.668274
1470245336970520,-0.11969,0.0436401,-0.73291,0.668274
1470245336985033,-0.119751,0.043457,-0.732849,0.668396
1470245337008054,-0.11969,0.0431519,-0.732727,0.668518
1470245337029072,-0.119873,0.0429688,-0.732605,0.66864
1470245337045089,-0.1203,0.0429688,-0.732483,0.668701
1470245337067608,-0.120605,0.0428467,-0.732361,0.668762
1470245337088626,-0.121216,0.0427246,-0.7323,0.668762
1470245337105142,-0.121826,0.0419922,-0.7323,0.668701
1470245337127661,-0.123657,0.0407715,-0.7323,0.668396
1470245337148680,-0.12915,0.0396729,-0.731873,0.667908
1470245337165195,-0.137024,0.0386963,-0.731445,0.66687
1470245337187717,-0.143616,0.0378418,-0.731201,0.665833
1470245337208735,-0.147644,0.0352783,-0.730591,0.66571
1470245337224749,-0.149841,0.0308228,-0.729614,0.666565
1470245337247769,-0.152954,0.0292969,-0.727844,0.667847
1470245337268788,-0.15332,0.0297852,-0.724976,0.670837
1470245337284302,-0.148132,0.0282593,-0.722168,0.67511
1470245337307823,-0.135803,0.0227661,-0.719604,0.680603
1470245337328842,-0.116638,0.0144043,-0.717041,0.687073
1470245337344856,-0.093689,0.00604248,-0.714417,0.69342
1470245337367877,-0.0695801,-0.000549316,-0.711792,0.698914
1470245337388896,-0.0438843,-0.00610352,-0.710083,0.702698
1470245337404910,-0.0154419,-0.0122681,-0.708923,0.705017
1470245337427931,0.0154419,-0.0187378,-0.70813,0.705627
1470245337449950,0.0475464,-0.0248413,-0.70813,0.704041
1470245337464464,0.0797729,-0.0305176,-0.708862,0.700134
1470245337487985,0.111816,-0.0352783,-0.7099,0.694458
1470245337510505,0.142639,-0.0389404,-0.711243,0.687256
1470245337531023,0.171082,-0.0407715,-0.71283,0.678894
1470245337547538,0.196594,-0.0400391,-0.714722,0.670044
1470245337570058,0.219971,-0.0375977,-0.716431,0.661011
1470245337592078,0.239014,-0.0338135,-0.718323,0.652527
1470245337607592,0.256348,-0.0298462,-0.720032,0.644165
1470245337630113,0.272156,-0.0256958,-0.721497,0.636169
1470245337651131,0.286255,-0.0221558,-0.722595,0.628845
1470245337667646,0.298218,-0.0192871,-0.723145,0.622681
1470245337690167,0.307373,-0.0167236,-0.723022,0.618408
1470245337711185,0.313904,-0.0142212,-0.722473,0.615845
1470245337728701,0.317871,-0.0119629,-0.721802,0.614624
1470245337750220,0.319885,-0.0109863,-0.720825,0.614746
1470245337771239,0.320068,-0.012207,-0.719421,0.616272
1470245337788255,0.318237,-0.0148926,-0.717896,0.618896
1470245337810775,0.314148,-0.0184326,-0.716858,0.622192
1470245337831294,0.308044,-0.0229492,-0.715759,0.626282
1470245337847808,0.299377,-0.0269165,-0.714722,0.631531
1470245337870329,0.288269,-0.0307617,-0.713989,0.637268
1470245337891347,0.275269,-0.0356445,-0.713867,0.642883
1470245337908363,0.260254,-0.0409546,-0.71405,0.648621
1470245337930382,0.243225,-0.0460205,-0.713806,0.65509
1470245337951401,0.225342,-0.0518799,-0.713379,0.661499
1470245337967916,0.208252,-0.0593872,-0.712524,0.667358
1470245337996441,0.190002,-0.0679321,-0.711426,0.673157
1470245338011455,0.169617,-0.0755005,-0.710327,0.678955
1470245338027970,0.14856,-0.0812378,-0.709473,0.684082
1470245338050490,0.127319,-0.0865479,-0.707764,0.689453
1470245338071508,0.106689,-0.0917358,-0.705566,0.694519
1470245338088024,0.0888062,-0.0975342,-0.703491,0.698364
1470245338110543,0.072998,-0.10144,-0.701538,0.701599
1470245338131562,0.0553589,-0.102234,-0.698975,0.705627
1470245338147078,0.036499,-0.101257,-0.696594,0.709351
1470245338170097,0.0198975,-0.0998535,-0.694702,0.712097
1470245338191115,0.00439453,-0.0975342,-0.691589,0.715637
1470245338207131,-0.0127563,-0.0932007,-0.687744,0.719849
1470245338230151,-0.0306396,-0.0869751,-0.684753,0.722961
1470245338251170,-0.0435791,-0.083374,-0.683105,0.724243
1470245338267185,-0.0518799,-0.0838013,-0.679688,0.726868
1470245338290205,-0.0619507,-0.0831299,-0.675293,0.730225
1470245338311224,-0.0739746,-0.0801392,-0.671753,0.732727
1470245338327239,-0.0834351,-0.0788574,-0.670288,0.733154
1470245338350260,-0.0896606,-0.0817261,-0.668152,0.73407
1470245338372779,-0.0961304,-0.0841675,-0.666138,0.734802
1470245338387293,-0.104309,-0.0840454,-0.665222,0.734558
1470245338410314,-0.111755,-0.0839233,-0.664917,0.733765
1470245338438840,-0.117493,-0.0849609,-0.664734,0.732849
1470245338446846,-0.12085,-0.0866699,-0.664551,0.7323
1470245338470368,-0.123779,-0.0874634,-0.664734,0.731567
1470245338492890,-0.124329,-0.0888062,-0.665466,0.730652
1470245338514410,-0.122925,-0.0903931,-0.666199,0.72998
1470245338516409,-0.122375,-0.0908813,-0.666931,0.72937
1470245338535931,-0.123413,-0.0906372,-0.667236,0.728943
1470245338558446,-0.124939,-0.0907593,-0.667053,0.728821
1470245338574960,-0.126221,-0.0914307,-0.66687,0.728699
1470245338595979,-0.127136,-0.0922852,-0.666809,0.728516
1470245338618608,-0.128113,-0.0940552,-0.666809,0.728088
1470245338634514,-0.128662,-0.0964966,-0.666931,0.7276
1470245338655591,-0.128845,-0.0987549,-0.667175,0.727051
1470245338678556,-0.129211,-0.100098,-0.667297,0.726624
1470245338694568,-0.130432,-0.10022,-0.66748,0.726257
1470245338716104,-0.13147,-0.0993042,-0.66803,0.725708
1470245338738109,-0.131775,-0.0976563,-0.668884,0.725037
1470245338762629,-0.131104,-0.0964966,-0.669495,0.724792
1470245338775641,-0.130188,-0.0960693,-0.669983,0.724548
1470245338798161,-0.129639,-0.0951538,-0.670288,0.724487
1470245338814676,-0.128662,-0.0942383,-0.670471,0.724548
1470245338835696,-0.127563,-0.0938721,-0.670715,0.72467
1470245338858217,-0.126404,-0.0941162,-0.670715,0.724731
1470245338874731,-0.125793,-0.0944824,-0.670715,0.724854
1470245338895750,-0.125793,-0.0946045,-0.670593,0.724915
1470245338918286,-0.126221,-0.0943604,-0.670532,0.724976
1470245338934784,-0.126282,-0.0943604,-0.670532,0.724976
1470245338955803,-0.126343,-0.0943604,-0.670532,0.724976
1470245338978323,-0.12677,-0.0940552,-0.670471,0.724976
1470245338994838,-0.127686,-0.0933838,-0.670349,0.724976
1470245339015873,-0.128601,-0.0925293,-0.670166,0.725159
1470245339038388,-0.128601,-0.0924072,-0.670044,0.725281
1470245339054893,-0.128601,-0.0924683,-0.670044,0.72522
1470245339075911,-0.12915,-0.0922852,-0.669922,0.725281
1470245339099431,-0.130493,-0.0917358,-0.669861,0.725159
1470245339114445,-0.13147,-0.0911865,-0.669861,0.725037
1470245339135965,-0.132263,-0.0908203,-0.6698,0.725037
1470245339157986,-0.133545,-0.09021,-0.6698,0.724854
1470245339174500,-0.135254,-0.0894775,-0.669861,0.724548
1470245339196019,-0.136658,-0.0889893,-0.6698,0.724365
1470245339218038,-0.138123,-0.0883789,-0.669861,0.724182
1470245339234554,-0.142151,-0.0871582,-0.6698,0.723633
1470245339255572,-0.152771,-0.0822754,-0.670532,0.721313
1470245339278092,-0.168213,-0.0719604,-0.672607,0.717041
1470245339296109,-0.182922,-0.0595703,-0.675171,0.712158
1470245339315626,-0.190491,-0.0523682,-0.672729,0.713074
1470245339338147,-0.192871,-0.0474243,-0.667358,0.717773
1470245339356163,-0.18988,-0.0443726,-0.660645,0.724915
1470245339375680,-0.18634,-0.0407715,-0.65271,0.733215
1470245339398200,-0.184692,-0.0358887,-0.641602,0.743591
1470245339416216,-0.183899,-0.0337524,-0.626282,0.756836
1470245339435733,-0.184204,-0.0343628,-0.605652,0.773376
1470245339458254,-0.18811,-0.0361328,-0.5802,0.791626
1470245339475770,-0.196289,-0.0392456,-0.551086,0.81012
1470245339495788,-0.208984,-0.0445557,-0.518738,0.82782
1470245339518308,-0.225098,-0.0523682,-0.483887,0.844055
1470245339536324,-0.243164,-0.0613403,-0.447571,0.858398
1470245339555841,-0.262085,-0.0696411,-0.410706,0.870544
1470245339578363,-0.282593,-0.0783081,-0.374268,0.8797
1470245339596378,-0.303162,-0.0874023,-0.338318,0.886536
1470245339615896,-0.321716,-0.0949707,-0.30603,0.890991
1470245339638415,-0.335754,-0.100525,-0.277893,0.894409
1470245339660935,-0.346924,-0.104675,-0.253906,0.89679
1470245339675949,-0.356018,-0.107849,-0.233948,0.898254
1470245339697969,-0.364014,-0.113403,-0.220215,0.897827
1470245339715988,-0.371521,-0.120605,-0.21167,0.895874
1470245339735504,-0.375061,-0.127441,-0.207031,0.894531
1470245339758024,-0.375977,-0.131287,-0.205139,0.894043
1470245339776039,-0.376892,-0.132141,-0.206055,0.893311
1470245339795556,-0.376099,-0.131531,-0.208496,0.893188
1470245339818077,-0.373962,-0.131775,-0.21167,0.893311
1470245339836093,-0.370972,-0.132385,-0.214172,0.89386
1470245339855610,-0.368408,-0.132813,-0.214355,0.894775
1470245339878131,-0.366211,-0.133179,-0.212341,0.896118
1470245339896150,-0.364197,-0.133911,-0.209595,0.897461
1470245339917166,-0.363708,-0.135559,-0.20697,0.898071
1470245339938185,-0.363647,-0.137939,-0.205444,0.898071
1470245339956201,-0.36261,-0.140137,-0.204407,0.898376
1470245339977220,-0.360779,-0.141113,-0.203064,0.899292
1470245339998238,-0.359741,-0.141296,-0.201477,0.900024
1470245340016255,-0.359741,-0.140808,-0.199768,0.900452
1470245340037274,-0.359924,-0.140381,-0.198242,0.900818
1470245340058293,-0.359253,-0.140198,-0.196777,0.901428
1470245340076309,-0.358521,-0.14032,-0.195374,0.901978
1470245340098329,-0.358215,-0.140564,-0.194214,0.902344
1470245340118346,-0.358276,-0.14032,-0.193054,0.902588
1470245340136362,-0.358276,-0.139893,-0.192139,0.902832
1470245340157382,-0.357788,-0.13916,-0.191467,0.90332
1470245340178903,-0.356506,-0.138245,-0.190796,0.904053
1470245340195919,-0.354736,-0.137207,-0.190002,0.90509
1470245340216936,-0.352844,-0.136353,-0.189331,0.906128
1470245340238454,-0.351135,-0.135315,-0.188721,0.907043
1470245340255971,-0.349731,-0.133911,-0.188171,0.907959
1470245340278991,-0.348145,-0.132324,-0.187744,0.908875
1470245340298510,-0.34613,-0.130615,-0.187439,0.909912
1470245340316024,-0.343445,-0.128906,-0.187378,0.911194
1470245340338545,-0.340393,-0.12738,-0.187439,0.912537
1470245340358062,-0.337463,-0.126038,-0.187561,0.913818
1470245340376078,-0.334717,-0.124573,-0.187744,0.914978
1470245340398598,-0.332458,-0.122986,-0.187866,0.916016
1470245340418116,-0.330994,-0.121155,-0.187866,0.916748
1470245340436132,-0.330017,-0.119385,-0.188049,0.917297
1470245340458654,-0.329102,-0.117859,-0.188171,0.917786
1470245340478171,-0.327881,-0.116638,-0.188354,0.918335
1470245340496687,-0.326721,-0.115601,-0.188721,0.918823
1470245340518707,-0.325806,-0.114685,-0.189087,0.919189
1470245340538224,-0.325195,-0.113831,-0.189392,0.919434
1470245340556239,-0.324707,-0.112915,-0.189636,0.919678
1470245340578760,-0.324585,-0.112305,-0.189758,0.9198
1470245340598277,-0.3255,-0.112671,-0.189758,0.919434
1470245340620798,-0.328491,-0.114807,-0.18988,0.918091
1470245340638814,-0.334534,-0.118225,-0.190125,0.915405
1470245340658331,-0.341431,-0.121155,-0.190247,0.912415
1470245340680853,-0.346252,-0.124023,-0.190491,0.910156
1470245340698867,-0.348877,-0.128174,-0.192993,0.908081
1470245340718385,-0.350891,-0.131287,-0.196838,0.906006
1470245340740906,-0.352478,-0.131653,-0.202881,0.903992
1470245340758922,-0.353638,-0.130493,-0.211548,0.901733
1470245340778440,-0.35199,-0.127014,-0.223999,0.899902
1470245340800960,-0.349915,-0.124084,-0.241089,0.896667
1470245340818475,-0.346497,-0.118958,-0.262207,0.892761
1470245340838493,-0.336548,-0.110046,-0.287354,0.889954
1470245340860513,-0.31897,-0.097229,-0.318726,0.887268
1470245340879030,-0.296631,-0.0819702,-0.357483,0.881775
1470245340899550,-0.271118,-0.0650024,-0.401917,0.872192
1470245340920567,-0.241028,-0.0469971,-0.450317,0.858459
1470245340938584,-0.204346,-0.0300293,-0.499573,0.841309
1470245340959602,-0.163574,-0.0170288,-0.547607,0.820435
1470245340980621,-0.122314,-0.00970459,-0.59491,0.794373
1470245340998638,-0.0869141,-0.00793457,-0.640747,0.762756
1470245341019656,-0.064209,-0.00769043,-0.684448,0.726135
1470245341041675,-0.0521851,-0.00842285,-0.724792,0.686951
1470245341057691,-0.0447998,-0.0123291,-0.759888,0.648376
1470245341078709,-0.0390015,-0.0232544,-0.789978,0.61145
1470245341101228,-0.0390015,-0.0372925,-0.817078,0.574036
1470245341117745,-0.0462646,-0.0512695,-0.842346,0.534485
1470245341138762,-0.0584717,-0.0643921,-0.864441,0.495117
1470245341161283,-0.0725708,-0.0782471,-0.883606,0.455933
1470245341177799,-0.0880737,-0.0927734,-0.900208,0.416321
1470245341200320,-0.105347,-0.106873,-0.914429,0.375916
1470245341221337,-0.123657,-0.119324,-0.925049,0.338806
1470245341237852,-0.141663,-0.129517,-0.932556,0.305786
1470245341260372,-0.161743,-0.136169,-0.938232,0.273987
1470245341281391,-0.180908,-0.143433,-0.942078,0.243347
1470245341297906,-0.196655,-0.153198,-0.944031,0.216248
1470245341320426,-0.211548,-0.162292,-0.944153,0.193665
1470245341341444,-0.227051,-0.167358,-0.943481,0.174316
1470245341357959,-0.242371,-0.168091,-0.942322,0.15863
1470245341380479,-0.254883,-0.169495,-0.940613,0.146973
1470245341401498,-0.265198,-0.175903,-0.937439,0.141479
1470245341417514,-0.274414,-0.189514,-0.931824,0.14325
1470245341440033,-0.281433,-0.212585,-0.923462,0.151428
1470245341461552,-0.286743,-0.237915,-0.913208,0.165283
1470245341477567,-0.291992,-0.263245,-0.901062,0.183289
1470245341500088,-0.299377,-0.293823,-0.883911,0.207031
1470245341521106,-0.305847,-0.337708,-0.857849,0.237854
1470245341537621,-0.308105,-0.389099,-0.823792,0.274048
1470245341560642,-0.307373,-0.433777,-0.788391,0.309631
1470245341581660,-0.308533,-0.46814,-0.754395,0.34137
1470245341597675,-0.312683,-0.49884,-0.718384,0.370728
1470245341620196,-0.315491,-0.52771,-0.681091,0.397705
1470245341641214,-0.316223,-0.550415,-0.648438,0.420349
1470245341657729,-0.318115,-0.565125,-0.622681,0.437988
1470245341680250,-0.324158,-0.574219,-0.602173,0.450195
1470245341701268,-0.331299,-0.583374,-0.586121,0.454407
1470245341717783,-0.337341,-0.591492,-0.573303,0.455688
1470245341740303,-0.341125,-0.600708,-0.559631,0.457886
1470245341761322,-0.343628,-0.610718,-0.544922,0.46051
1470245341777837,-0.346558,-0.619751,-0.531067,0.462402
1470245341800357,-0.349731,-0.626892,-0.519226,0.463867
1470245341821376,-0.350403,-0.631165,-0.513672,0.463684
1470245341838391,-0.351196,-0.633911,-0.512939,0.460144
1470245341860412,-0.353638,-0.632996,-0.513977,0.458374
1470245341881430,-0.357605,-0.630127,-0.516541,0.45636
1470245341897445,-0.361389,-0.628296,-0.518188,0.454041
1470245341920465,-0.363525,-0.62793,-0.518372,0.452637
1470245341941483,-0.364075,-0.62854,-0.517212,0.452698
1470245341957498,-0.363464,-0.629211,-0.515991,0.453613
1470245341980519,-0.362427,-0.629089,-0.515198,0.455505
1470245342001537,-0.361267,-0.628601,-0.514526,0.457886
1470245342017552,-0.360168,-0.627686,-0.514526,0.460022
1470245342040073,-0.359314,-0.62616,-0.515137,0.462036
1470245342061591,-0.358337,-0.624329,-0.51593,0.464478
1470245342077606,-0.356445,-0.623413,-0.515564,0.467529
1470245342100626,-0.352905,-0.624146,-0.514465,0.470398
1470245342121645,-0.348083,-0.624756,-0.514709,0.4729
1470245342137159,-0.342773,-0.624329,-0.517578,0.474243
1470245342160180,-0.335327,-0.624817,-0.522644,0.473328
1470245342182700,-0.325745,-0.625854,-0.53302,0.467041
1470245342197213,-0.31311,-0.624146,-0.548889,0.459534
1470245342220233,-0.298279,-0.616943,-0.571411,0.45166
1470245342243255,-0.286011,-0.603394,-0.599365,0.441528
1470245342257268,-0.275208,-0.582886,-0.63324,0.428406
1470245342280288,-0.263123,-0.557007,-0.669128,0.415771
1470245342302808,-0.248657,-0.527588,-0.704468,0.40448
1470245342323826,-0.232605,-0.493713,-0.739197,0.394714
1470245342340342,-0.216553,-0.453918,-0.7724,0.387939
1470245342362862,-0.199463,-0.4104,-0.801941,0.385681
1470245342383880,-0.177429,-0.368896,-0.825439,0.388733
1470245342400395,-0.149231,-0.333618,-0.842102,0.396667
1470245342422916,-0.116089,-0.303833,-0.853455,0.407227
1470245342451441,-0.0812378,-0.276306,-0.861084,0.419067
1470245342460450,-0.0470581,-0.247009,-0.866272,0.431763
1470245342482969,-0.0140991,-0.214355,-0.869568,0.444641
1470245342503988,0.0186768,-0.180542,-0.870239,0.458069
1470245342520503,0.0531006,-0.149414,-0.86731,0.471802
1470245342543023,0.0891113,-0.122742,-0.861328,0.484863
1470245342564043,0.125183,-0.0993042,-0.853333,0.496338
1470245342580557,0.159546,-0.0774536,-0.843811,0.50647
1470245342602581,0.191101,-0.0568848,-0.833069,0.516052
1470245342624109,0.219177,-0.0377808,-0.821472,0.525085
1470245342640111,0.243408,-0.0203857,-0.809631,0.533691
1470245342663132,0.264343,-0.00524902,-0.797607,0.542175
1470245342684150,0.282349,0.00683594,-0.7854,0.550842
1470245342715178,0.29834,0.0149536,-0.773132,0.559509
1470245342730192,0.312012,0.0195923,-0.760925,0.568542
1470245342743705,0.322571,0.0220337,-0.749512,0.577698
1470245342760219,0.330322,0.0227051,-0.738831,0.586975
1470245342782739,0.336121,0.0213623,-0.72876,0.596252
1470245342803758,0.337708,0.0187988,-0.719971,0.606018
1470245342820274,0.333435,0.0164795,-0.713257,0.616272
1470245342842793,0.324463,0.0139771,-0.708191,0.626892
1470245342863812,0.312317,0.0108643,-0.703857,0.637878
1470245342879826,0.29718,0.00769043,-0.700562,0.648743
1470245342902848,0.276001,0.00360107,-0.698853,0.659851
1470245342923866,0.248108,-0.00158691,-0.698425,0.671265
1470245342939880,0.215332,-0.00610352,-0.697571,0.68335
1470245342962902,0.181946,-0.00909424,-0.695129,0.695435
1470245342983920,0.151001,-0.0137329,-0.691467,0.706299
1470245343006440,0.123779,-0.0238647,-0.687256,0.715393
1470245343022955,0.101379,-0.0374756,-0.681335,0.723938
1470245343043974,0.078125,-0.052063,-0.672852,0.733826
1470245343067997,0.0516357,-0.0685425,-0.662903,0.743774
1470245343083011,0.0255127,-0.0819092,-0.65332,0.752197
1470245343105028,0.000366211,-0.0925903,-0.642517,0.76062
1470245343119541,-0.0244751,-0.106262,-0.630737,0.768311
1470245343143062,-0.0473022,-0.12085,-0.620239,0.773621
1470245343165582,-0.069458,-0.129944,-0.611877,0.7771
1470245343179597,-0.0922852,-0.134766,-0.603333,0.78064
1470245343202615,-0.112,-0.139893,-0.597351,0.781738
1470245343225637,-0.125671,-0.146851,-0.595215,0.779968
1470245343246655,-0.137451,-0.151672,-0.592773,0.778931
1470245343263170,-0.150879,-0.151917,-0.5896,0.778809
1470245343285190,-0.164307,-0.152527,-0.588806,0.776611
1470245343306709,-0.174377,-0.151917,-0.590881,0.772888
1470245343322724,-0.174744,-0.152283,-0.593079,0.771057
1470245343345745,-0.169434,-0.150024,-0.594849,0.771301
1470245343366766,-0.166077,-0.144531,-0.596375,0.771973
1470245343382777,-0.168335,-0.138855,-0.597046,0.771973
1470245343405298,-0.172974,-0.135925,-0.59906,0.769897
1470245343426317,-0.174561,-0.13678,-0.599365,0.769165
1470245343442832,-0.171021,-0.139954,-0.597656,0.770691
1470245343465352,-0.166138,-0.143372,-0.596008,0.7724
1470245343486371,-0.163208,-0.145691,-0.594849,0.773499
1470245343508890,-0.161865,-0.146301,-0.593994,0.774292
1470245343525406,-0.161499,-0.146301,-0.593445,0.774841
1470245343546426,-0.161743,-0.146484,-0.592896,0.775146
1470245343562939,-0.161621,-0.146973,-0.592346,0.775513
1470245343585460,-0.160522,-0.147766,-0.591858,0.77594
1470245343606479,-0.159058,-0.148682,-0.591553,0.776306
1470245343622993,-0.158325,-0.148621,-0.59137,0.776611
1470245343645514,-0.157959,-0.147522,-0.591431,0.776855
1470245343666532,-0.156982,-0.14624,-0.591919,0.776917
1470245343683047,-0.154968,-0.145447,-0.592346,0.777161
1470245343705067,-0.15271,-0.144897,-0.592651,0.777466
1470245343726586,-0.151184,-0.143982,-0.593201,0.777527
1470245343742601,-0.150513,-0.142761,-0.593811,0.777405
1470245343765621,-0.150208,-0.141724,-0.594299,0.777283
1470245343786640,-0.149719,-0.140747,-0.594482,0.777405
1470245343803155,-0.149231,-0.139648,-0.594727,0.777527
1470245343825174,-0.148499,-0.138428,-0.595093,0.777588
1470245343846694,-0.147644,-0.137573,-0.595581,0.777527
1470245343863209,-0.14679,-0.137024,-0.595886,0.777527
1470245343885228,-0.14624,-0.136536,-0.596069,0.777649
1470245343906748,-0.146301,-0.135742,-0.596313,0.777588
1470245343922763,-0.146606,-0.13501,-0.596497,0.777466
1470245343945283,-0.147156,-0.134583,-0.596741,0.777283
1470245343966302,-0.148071,-0.134277,-0.596863,0.777039
1470245343982817,-0.149719,-0.13385,-0.596924,0.776733
1470245344005337,-0.152039,-0.13324,-0.597168,0.776184
1470245344026357,-0.154602,-0.132568,-0.597473,0.775574
1470245344042871,-0.157288,-0.13147,-0.597534,0.775208
1470245344065391,-0.159729,-0.130188,-0.597351,0.775085
1470245344093916,-0.161499,-0.128662,-0.597046,0.775208
1470245344102924,-0.163208,-0.126953,-0.596802,0.775269
1470245344125445,-0.165405,-0.124512,-0.596558,0.775391
1470245344147965,-0.167725,-0.121216,-0.596008,0.775879
1470245344168984,-0.169617,-0.117249,-0.59491,0.776855
1470245344185498,-0.170715,-0.113037,-0.593689,0.778259
1470245344208019,-0.171326,-0.108826,-0.592468,0.779602
1470245344229037,-0.171997,-0.104248,-0.591064,0.781128
1470245344245554,-0.173157,-0.0988159,-0.589294,0.782959
1470245344268072,-0.174438,-0.0929565,-0.58728,0.784851
1470245344289092,-0.175415,-0.0870361,-0.585266,0.786865
1470245344305607,-0.176025,-0.081604,-0.583191,0.788818
1470245344328039,-0.176392,-0.0762939,-0.580994,0.790894
1470245344349057,-0.17688,-0.0709229,-0.578491,0.793152
1470245344365572,-0.178162,-0.0653076,-0.575806,0.795288
1470245344388092,-0.179443,-0.0597534,-0.573059,0.797424
1470245344409110,-0.179993,-0.0548706,-0.570313,0.799622
1470245344425626,-0.180054,-0.0508423,-0.567505,0.801819
1470245344448146,-0.180542,-0.0474243,-0.564758,0.803833
1470245344469165,-0.181458,-0.0440063,-0.561829,0.805908
1470245344485180,-0.18219,-0.0411377,-0.558899,0.807922
1470245344507700,-0.182678,-0.0388184,-0.555847,0.809998
1470245344529220,-0.182922,-0.0372314,-0.552856,0.812073
1470245344545734,-0.183044,-0.0362549,-0.549744,0.81427
1470245344567754,-0.183167,-0.0361328,-0.546509,0.816406
1470245344588774,-0.183167,-0.0366821,-0.542969,0.818726
1470245344605287,-0.182983,-0.0380859,-0.538818,0.821411
1470245344627808,-0.182251,-0.0405884,-0.534424,0.824341
1470245344648827,-0.179626,-0.0444336,-0.529541,0.82782
1470245344665342,-0.176514,-0.0499268,-0.523865,0.831787
1470245344687861,-0.172485,-0.0566406,-0.517334,0.836304
1470245344708881,-0.167542,-0.0646362,-0.509949,0.841248
1470245344725396,-0.159607,-0.0736084,-0.502197,0.84668
1470245344747917,-0.148315,-0.0817261,-0.495178,0.852112
1470245344768934,-0.132996,-0.0895386,-0.489441,0.857178
1470245344784448,-0.112854,-0.0965576,-0.485168,0.861694
1470245344807969,-0.0898438,-0.10199,-0.482422,0.865295
1470245344829490,-0.0656128,-0.105286,-0.481567,0.867554
1470245344844502,-0.0391846,-0.106506,-0.482483,0.86853
1470245344868024,-0.00836182,-0.106873,-0.48407,0.868408
1470245344889042,0.0234375,-0.106812,-0.486267,0.866943
1470245344904556,0.0563965,-0.105835,-0.489258,0.863831
1470245344928078,0.0908813,-0.104675,-0.492554,0.859131
1470245344949096,0.125916,-0.103088,-0.495544,0.85321
1470245344964610,0.160828,-0.100464,-0.498291,0.846008
1470245344988131,0.194641,-0.0971069,-0.500977,0.837646
1470245345010151,0.22644,-0.0927124,-0.503418,0.828674
1470245345024664,0.255066,-0.0870972,-0.505859,0.819397
1470245345048186,0.280701,-0.0801392,-0.508118,0.810303
1470245345070205,0.30481,-0.0727539,-0.509644,0.80127
1470245345084718,0.326599,-0.0650024,-0.510681,0.792603
1470245345115246,0.347107,-0.0568848,-0.511353,0.784058
1470245345130259,0.366272,-0.0487671,-0.511597,0.775696
1470245345151780,0.382202,-0.0411377,-0.511475,0.768494
1470245345175300,0.393005,-0.0339355,-0.511292,0.76355
1470245345190313,0.398926,-0.0275879,-0.511108,0.760803
1470245345211332,0.401489,-0.0219116,-0.511108,0.759644
1470245345227847,0.402222,-0.0171509,-0.511292,0.759216
1470245345257873,0.400879,-0.0139771,-0.511719,0.759766
1470245345271385,0.396301,-0.0127563,-0.51178,0.762146
1470245345287901,0.386902,-0.0131836,-0.511597,0.76709
1470245345310421,0.373474,-0.0147095,-0.510864,0.774109
1470245345331440,0.356689,-0.0164795,-0.509644,0.782776
1470245345347955,0.337708,-0.0202637,-0.50769,0.792297
1470245345370475,0.318176,-0.0263062,-0.5047,0.802063
1470245345391493,0.297241,-0.0335083,-0.500793,0.812195
1470245345408009,0.273865,-0.0405273,-0.495605,0.823242
1470245345430530,0.248718,-0.0484619,-0.490906,0.833557
1470245345451548,0.221313,-0.059021,-0.486084,0.843323
1470245345468062,0.190918,-0.0686646,-0.48114,0.852783
1470245345490582,0.159119,-0.0739136,-0.476318,0.861572
1470245345511601,0.130676,-0.0793457,-0.473389,0.867493
1470245345528116,0.102539,-0.0877075,-0.471497,0.87146
1470245345550637,0.0728149,-0.0938721,-0.470093,0.874573
1470245345571655,0.043396,-0.0952759,-0.46875,0.877075
1470245345587169,0.0123291,-0.0947266,-0.468811,0.878113
1470245345610190,-0.0171509,-0.0942383,-0.470703,0.877075
1470245345631709,-0.0377808,-0.0940552,-0.472717,0.875366
1470245345647723,-0.0579224,-0.0935059,-0.473938,0.873657
1470245345670243,-0.0783691,-0.0907593,-0.476563,0.870911
1470245345691262,-0.0930786,-0.088501,-0.481262,0.867126
1470245345707777,-0.101807,-0.0887451,-0.485168,0.863953
1470245345730300,-0.112976,-0.088562,-0.48822,0.86084
1470245345751317,-0.127258,-0.0866089,-0.491516,0.857117
1470245345767331,-0.135254,-0.0820923,-0.496521,0.853455
1470245345790353,-0.136719,-0.0782471,-0.501282,0.85083
1470245345818877,-0.139771,-0.074707,-0.505249,0.848328
1470245345827385,-0.146484,-0.0699463,-0.508484,0.845642
1470245345850406,-0.152649,-0.0650635,-0.512512,0.842468
1470245345871424,-0.153442,-0.0628052,-0.515625,0.840637
1470245345887440,-0.15387,-0.0632935,-0.516846,0.839783
1470245345910459,-0.155396,-0.0639038,-0.517151,0.839233
1470245345931478,-0.158447,-0.0651245,-0.517273,0.838501
1470245345946993,-0.161987,-0.0664673,-0.5177,0.837463
1470245345970514,-0.163452,-0.0675659,-0.518677,0.836426
1470245345993034,-0.16394,-0.0690308,-0.519226,0.835938
1470245346008047,-0.164551,-0.0699463,-0.519836,0.835327
1470245346030067,-0.164307,-0.069519,-0.521057,0.834656
1470245346053087,-0.162903,-0.0691528,-0.5224,0.834106
1470245346067100,-0.161316,-0.0691528,-0.524475,0.83313
1470245346090621,-0.161072,-0.0690918,-0.526184,0.832092
1470245346112641,-0.16156,-0.0689697,-0.5271,0.831482
1470245346127155,-0.162048,-0.0686035,-0.527771,0.830994
1470245346150177,-0.162476,-0.0682983,-0.528625,0.830322
1470245346173195,-0.162354,-0.0679932,-0.529663,0.829712
1470245346187210,-0.161865,-0.067627,-0.530945,0.829041
1470245346210228,-0.16156,-0.0672607,-0.532104,0.828369
1470245346232750,-0.16217,-0.0664063,-0.533081,0.827698
1470245346247263,-0.163086,-0.0650635,-0.533936,0.827087
1470245346270282,-0.163635,-0.0637817,-0.534729,0.826599
1470245346275814,-0.163818,-0.0628052,-0.535522,0.826111
1470245346298322,-0.163696,-0.0618286,-0.536499,0.825562
1470245346314822,-0.163513,-0.060791,-0.537537,0.825012
1470245346335884,-0.163574,-0.0596313,-0.538513,0.824463
1470245346358389,-0.164124,-0.0585938,-0.539185,0.823975
1470245346374877,-0.164612,-0.0577393,-0.539673,0.823608
1470245346395897,-0.164795,-0.0568848,-0.540161,0.823303
1470245346418415,-0.164673,-0.0561523,-0.540649,0.823059
1470245346434930,-0.164612,-0.0556641,-0.541077,0.822815
1470245346455957,-0.164856,-0.0552368,-0.541504,0.82251
1470245346478469,-0.165405,-0.0548096,-0.541809,0.822266
1470245346494985,-0.166077,-0.0543823,-0.541931,0.822021
1470245346516003,-0.166077,-0.0543823,-0.541931,0.822021
1470245346538524,-0.165833,-0.0546265,-0.541809,0.822144
1470245346555038,-0.165588,-0.0548706,-0.541687,0.822266
1470245346576094,-0.165588,-0.0548706,-0.541687,0.822266
1470245346598612,-0.16571,-0.0548706,-0.541687,0.822266
1470245346614591,-0.166321,-0.0549316,-0.541504,0.822266
1470245346636219,-0.16687,-0.0552979,-0.541443,0.822144
1470245346658683,-0.167419,-0.0554199,-0.541443,0.822021
1470245346674646,-0.167847,-0.0552368,-0.541443,0.82196
1470245346695665,-0.168762,-0.0548706,-0.541626,0.821655
1470245346718185,-0.171448,-0.0540161,-0.542175,0.820801
1470245346741213,-0.176147,-0.0522461,-0.543396,0.819092
1470245346757220,-0.183167,-0.0494385,-0.54425,0.8172
1470245346778256,-0.193665,-0.0438843,-0.544617,0.814819
1470245346800759,-0.207642,-0.0339355,-0.543884,0.812378
1470245346815772,-0.222717,-0.0179443,-0.540588,0.811035
1470245346839794,-0.230042,0.00250244,-0.534119,0.813477
1470245346860815,-0.229309,0.0209961,-0.522644,0.820862
1470245346875827,-0.23053,0.0352783,-0.508179,0.829041
1470245346898347,-0.232788,0.0499878,-0.491272,0.83783
1470245346920867,-0.233093,0.0626221,-0.472229,0.847778
1470245346935882,-0.232056,0.0722656,-0.449707,0.859436
1470245346958402,-0.233948,0.0805664,-0.422852,0.871765
1470245346980949,-0.239502,0.0871582,-0.392456,0.883728
1470245346995933,-0.247375,0.0899658,-0.360229,0.894958
1470245347018507,-0.257996,0.0881958,-0.327271,0.904724
1470245347040975,-0.267944,0.0825195,-0.29425,0.913696
1470245347055988,-0.272705,0.0744019,-0.260376,0.923218
1470245347078508,-0.274475,0.0658569,-0.224365,0.932739
1470245347101028,-0.279297,0.0576782,-0.1875,0.939941
1470245347116045,-0.287292,0.0489502,-0.152161,0.944397
1470245347138650,-0.293762,0.039917,-0.119263,0.947571
1470245347161191,-0.297729,0.0303345,-0.0891113,0.950012
1470245347175611,-0.295837,0.022583,-0.0651855,0.952698
1470245347198624,-0.29541,0.0170288,-0.0574951,0.953491
1470245347221213,-0.313049,0.0120239,-0.0429077,0.948669
1470245347236168,-0.323242,0.00402832,-0.034668,0.945618
1470245347258171,-0.324768,-0.00286865,-0.0253296,0.945435
1470245347281191,-0.332825,-0.00701904,-0.0161743,0.94281
1470245347295705,-0.34137,-0.012146,-0.00726318,0.939819
1470245347318258,-0.341858,-0.0188599,0.000915527,0.939514
1470245347340775,-0.338318,-0.0237427,0.00714111,0.940674
1470245347357259,-0.336304,-0.027832,0.00872803,0.941284
1470245347378307,-0.336914,-0.0318604,0.00866699,0.940918
1470245347400815,-0.334106,-0.0361938,0.00634766,0.941833
1470245347415826,-0.327515,-0.0397339,0.00109863,0.944031
1470245347438362,-0.322021,-0.0420532,-0.00872803,0.94574
1470245347460882,-0.315918,-0.0427856,-0.0241699,0.94751
1470245347475907,-0.306091,-0.0422974,-0.0452881,0.949951
1470245347498408,-0.296204,-0.034729,-0.0704956,0.951843
1470245347520906,-0.286743,-0.0263672,-0.101318,0.952271
1470245347537420,-0.275208,-0.0161743,-0.138489,0.951233
1470245347558451,-0.259644,-0.00567627,-0.181824,0.948364
1470245347580981,-0.24115,0.00256348,-0.231262,0.942505
1470245347597473,-0.221313,0.00799561,-0.286621,0.932068
1470245347618502,-0.199524,0.0117188,-0.346497,0.916504
1470245347641013,-0.174255,0.0135498,-0.410095,0.895142
1470245347657069,-0.144836,0.0128784,-0.473999,0.868469
1470245347678549,-0.113647,0.00976563,-0.536438,0.836182
1470245347701072,-0.0825195,0.00518799,-0.597107,0.797913
1470245347717082,-0.050293,-0.00152588,-0.65387,0.754944
1470245347738610,-0.0217896,-0.0106812,-0.706055,0.707764
1470245347760622,-0.00506592,-0.019043,-0.754761,0.655701
1470245347777136,0.00402832,-0.0238647,-0.798401,0.601624
1470245347798154,0.0103149,-0.0264282,-0.835327,0.549011
1470245347820675,0.0168457,-0.0304565,-0.865356,0.5
1470245347838693,0.0201416,-0.0343628,-0.89093,0.452393
1470245347858209,0.0179443,-0.0349121,-0.912354,0.407471
1470245347880729,0.013916,-0.0333252,-0.92981,0.366272
1470245347898744,0.00720215,-0.0283813,-0.943298,0.33075
1470245347918263,-0.00115967,-0.020874,-0.95343,0.300964
1470245347940795,-0.0106812,-0.0120239,-0.960693,0.277161
1470245347958799,-0.0211182,-0.00128174,-0.965271,0.260498
1470245347978317,-0.0294189,0.0078125,-0.96759,0.250732
1470245348000837,-0.0358276,0.0158081,-0.968201,0.247314
1470245348018853,-0.0403442,0.0215454,-0.967102,0.250244
1470245348038371,-0.0435791,0.0245972,-0.964539,0.259216
1470245348063893,-0.0481567,0.0274048,-0.960327,0.273376
1470245348078908,-0.052124,0.0281982,-0.954712,0.291748
1470245348098472,-0.0551147,0.031189,-0.94751,0.313354
1470245348120984,-0.0578613,0.0366821,-0.938354,0.338806
1470245348138960,-0.0598145,0.0441284,-0.926453,0.368958
1470245348158477,-0.0601807,0.0519409,-0.911499,0.403625
1470245348180999,-0.0592651,0.0604858,-0.892761,0.442566
1470245348199014,-0.0588379,0.0696411,-0.869385,0.485657
1470245348218532,-0.0598145,0.0787354,-0.840149,0.533264
1470245348241052,-0.0657959,0.0881348,-0.804504,0.583679
1470245348259142,-0.0773926,0.0973511,-0.762146,0.635376
1470245348278087,-0.0963135,0.106506,-0.712036,0.687317
1470245348301106,-0.11969,0.112915,-0.655823,0.736816
1470245348318621,-0.144409,0.11377,-0.59375,0.783386
1470245348339640,-0.170227,0.108582,-0.526672,0.825684
1470245348360660,-0.195313,0.101074,-0.458618,0.860962
1470245348393689,-0.212524,0.0921021,-0.391052,0.890747
1470245348398194,-0.222656,0.0808105,-0.322388,0.916504
1470245348420713,-0.230774,0.0667114,-0.2547,0.936707
1470245348438729,-0.238953,0.0524902,-0.193054,0.950195
1470245348459748,-0.237976,0.0419922,-0.13678,0.960632
1470245348480791,-0.2323,0.0330811,-0.0842285,0.968384
1470245348498783,-0.232544,0.0205688,-0.0374146,0.971619
1470245348519802,-0.236938,0.00585938,0.000732422,0.971497
1470245348540821,-0.235168,-0.00610352,0.0310669,0.971436
1470245348558839,-0.223633,-0.0130615,0.0567017,0.9729
1470245348579857,-0.214539,-0.0183105,0.0802612,0.973206
1470245348600875,-0.21582,-0.024231,0.0998535,0.971008
1470245348623415,-0.221191,-0.0326538,0.11322,0.968079
1470245348639910,-0.224548,-0.0387573,0.121948,0.966003
1470245348668435,-0.226135,-0.0422974,0.127136,0.964844
1470245348678945,-0.226685,-0.0435181,0.129333,0.964355
1470245348701465,-0.227966,-0.0438843,0.129089,0.96405
1470245348720982,-0.229065,-0.0442505,0.126343,0.964172
1470245348738999,-0.230957,-0.0447998,0.12262,0.964111
1470245348759526,-0.233643,-0.0449829,0.118347,0.96405
1470245348781036,-0.235718,-0.0446167,0.113281,0.964111
1470245348798051,-0.23761,-0.0441895,0.108521,0.964233
1470245348821073,-0.239563,-0.0437012,0.103882,0.964294
1470245348849099,-0.240356,-0.0430298,0.0987549,0.964661
1470245348864115,-0.239563,-0.0429688,0.0930176,0.965454
1470245348880125,-0.238342,-0.0438843,0.0863647,0.966309
1470245348901645,-0.23645,-0.0445557,0.0778809,0.967468
1470245348918173,-0.232605,-0.0445557,0.0664673,0.969238
1470245348940182,-0.227783,-0.0441895,0.052063,0.971313
1470245348961810,-0.223877,-0.0438232,0.0336304,0.973022
1470245348978213,-0.223328,-0.0384521,0.0105591,0.973938
1470245349000242,-0.223511,-0.0314331,-0.0183716,0.973999
1470245349021753,-0.223755,-0.0224609,-0.0522461,0.972961
1470245349037767,-0.224243,-0.0118408,-0.0913696,0.970154
1470245349060315,-0.22229,0.000793457,-0.135193,0.965515
1470245349081807,-0.215881,0.0146484,-0.182922,0.958984
1470245349097824,-0.204956,0.0290527,-0.234619,0.949768
1470245349120373,-0.190674,0.0430298,-0.289795,0.93689
1470245349141390,-0.175842,0.055603,-0.3479,0.919189
1470245349157875,-0.160461,0.0670776,-0.406677,0.896851
1470245349180397,-0.141785,0.0764771,-0.464783,0.870667
1470245349201427,-0.120056,0.0830078,-0.520752,0.841125
1470245349217929,-0.0986328,0.086731,-0.573792,0.808411
1470245349240449,-0.0784912,0.0875854,-0.62207,0.774048
1470245349261970,-0.0626831,0.0873413,-0.665649,0.738464
1470245349277985,-0.0497437,0.0875854,-0.703735,0.703247
1470245349300503,-0.0375366,0.0870972,-0.736633,0.669617
1470245349321578,-0.0263672,0.0853882,-0.764404,0.638489
1470245349338037,-0.015625,0.0831299,-0.787598,0.610413
1470245349360556,-0.00640869,0.0809937,-0.80658,0.585571
1470245349381593,0.000610352,0.0792847,-0.821594,0.564514
1470245349398091,0.00421143,0.0797729,-0.833374,0.546875
1470245349420611,0.0043335,0.0880127,-0.841736,0.532654
1470245349441668,0.00341797,0.0977783,-0.846802,0.522888
1470245349458144,0.00134277,0.107971,-0.848572,0.517944
1470245349480202,-0.00238037,0.118408,-0.847595,0.517212
1470245349503184,-0.00775146,0.129028,-0.843933,0.520691
1470245349517197,-0.0147705,0.139343,-0.837646,0.527954
1470245349540719,-0.0237427,0.149475,-0.828613,0.539001
1470245349561737,-0.0322266,0.155457,-0.816956,0.554382
1470245349577251,-0.0424194,0.16156,-0.801941,0.573608
1470245349600291,-0.053772,0.166992,-0.783203,0.596497
1470245349621890,-0.0663452,0.170349,-0.76001,0.623657
1470245349637305,-0.0822754,0.172363,-0.730774,0.655396
1470245349660329,-0.103149,0.173218,-0.695557,0.689575
1470245349681856,-0.126953,0.170715,-0.655151,0.724915
1470245349697359,-0.148438,0.16217,-0.609131,0.761963
1470245349720380,-0.168335,0.148804,-0.555786,0.800354
1470245349742904,-0.190186,0.13269,-0.495728,0.836914
1470245349757414,-0.212219,0.114075,-0.431458,0.869324
1470245349780436,-0.229248,0.095459,-0.367981,0.896057
1470245349802955,-0.238708,0.0767822,-0.306519,0.918213
1470245349817467,-0.243774,0.057373,-0.246765,0.936157
1470245349840488,-0.248779,0.0401611,-0.192017,0.948486
1470245349863008,-0.253296,0.0265503,-0.145142,0.956055
1470245349884053,-0.256348,0.0161133,-0.103943,0.960815
1470245349900542,-0.256165,0.00762939,-0.0678101,0.964233
1470245349923062,-0.255188,0,-0.0372314,0.966125
1470245349944095,-0.254578,-0.00646973,-0.0120239,0.966919
1470245349960596,-0.252686,-0.0114136,0.00842285,0.967407
1470245349983116,-0.248962,-0.0199585,0.0228882,0.968018
1470245350004227,-0.243835,-0.0264893,0.0303955,0.968933
1470245350020154,-0.241394,-0.0322266,0.0310059,0.96936
1470245350043171,-0.242371,-0.0385132,0.0266113,0.969055
1470245350064188,-0.241394,-0.0426636,0.0162964,0.96936
1470245350088210,-0.240356,-0.045105,0.00268555,0.969604
1470245350103223,-0.240906,-0.0457764,-0.0164185,0.969299
1470245350124243,-0.238586,-0.0383911,-0.039978,0.969543
1470245350140757,-0.233765,-0.0289307,-0.0686646,0.969421
1470245350162778,-0.230408,-0.017334,-0.103577,0.967407
1470245350184380,-0.22876,-0.00384521,-0.144531,0.962646
1470245350200311,-0.227234,0.0117188,-0.191528,0.954712
1470245350222833,-0.223511,0.0291748,-0.24353,0.943298
1470245350251392,-0.216797,0.0479736,-0.299316,0.927979
1470245350260365,-0.205261,0.067749,-0.358643,0.908081
1470245350282885,-0.187622,0.0866699,-0.420166,0.883606
1470245350303917,-0.165955,0.103271,-0.481934,0.854126
1470245350320419,-0.143738,0.118347,-0.542969,0.818848
1470245350342940,-0.120483,0.13208,-0.601868,0.77832
1470245350363960,-0.0982666,0.14325,-0.656616,0.733948
1470245350380473,-0.0799561,0.151123,-0.7052,0.68811
1470245350402993,-0.0664673,0.155579,-0.74585,0.644287
1470245350424045,-0.0592041,0.159546,-0.77832,0.60437
1470245350448036,-0.0548706,0.163025,-0.805298,0.567383
1470245350463047,-0.0488892,0.162598,-0.828857,0.533142
1470245350484111,-0.0405273,0.157471,-0.848816,0.503052
1470245350499580,-0.0320435,0.150269,-0.864746,0.478088
1470245350523102,-0.0251465,0.144775,-0.87616,0.459106
1470245350544120,-0.0248413,0.14801,-0.88324,0.444275
1470245350559636,-0.0256958,0.154053,-0.887878,0.4328
1470245350583155,-0.0252075,0.158752,-0.890686,0.425293
1470245350604191,-0.0249023,0.161438,-0.891418,0.422791
1470245350619687,-0.026123,0.164001,-0.889771,0.425171
1470245350643209,-0.0289307,0.168335,-0.885864,0.431458
1470245350664228,-0.0337524,0.17334,-0.879944,0.44104
1470245350679742,-0.0394897,0.177368,-0.872009,0.45459
1470245350703263,-0.0432129,0.178345,-0.861877,0.472717
1470245350725282,-0.0462036,0.179138,-0.848816,0.495239
1470245350739797,-0.048645,0.179688,-0.832703,0.521545
1470245350763316,-0.0527344,0.180481,-0.813171,0.550781
1470245350785337,-0.0611572,0.182861,-0.788818,0.583618
1470245350806856,-0.072876,0.18634,-0.759155,0.619385
1470245350822871,-0.0894165,0.189392,-0.724609,0.656555
1470245350845891,-0.108521,0.18927,-0.684875,0.695251
1470245350866409,-0.128052,0.184204,-0.638184,0.73645
1470245350883424,-0.148804,0.175964,-0.583557,0.778687
1470245350905444,-0.170044,0.16394,-0.522705,0.819092
1470245350926492,-0.190308,0.146606,-0.455872,0.856995
1470245350942978,-0.2052,0.124207,-0.386414,0.890564
1470245350965498,-0.214417,0.0988159,-0.32074,0.917236
1470245350986518,-0.219116,0.0733032,-0.259155,0.937744
1470245351003032,-0.221985,0.0493164,-0.199707,0.953064
1470245351025552,-0.222168,0.0286255,-0.146606,0.96344
1470245351054106,-0.217529,0.0159302,-0.10199,0.970581
1470245351063086,-0.214172,0.00866699,-0.0639648,0.974609
1470245351085606,-0.216003,0.003479,-0.0321045,0.97583
1470245351106667,-0.219543,-0.0010376,-0.00842285,0.975525
1470245351123139,-0.220276,-0.0118408,0.00695801,0.975342
1470245351146161,-0.218018,-0.0196533,0.0189819,0.975525
1470245351166678,-0.217346,-0.0258789,0.0284424,0.975342
1470245351183193,-0.219238,-0.0319824,0.0337524,0.974548
1470245351205714,-0.221802,-0.0380249,0.0349121,0.973694
1470245351226732,-0.222839,-0.0429688,0.032959,0.973328
1470245351243247,-0.222839,-0.0465698,0.0283203,0.973328
1470245351265285,-0.223633,-0.0494385,0.0210571,0.973145
1470245351286786,-0.224487,-0.0516357,0.0117188,0.973022
1470245351302850,-0.22644,-0.053833,-0.000305176,0.972534
1470245351325348,-0.229675,-0.0547485,-0.0140381,0.971619
1470245351346840,-0.23291,-0.0540771,-0.0293579,0.97052
1470245351363356,-0.235107,-0.0515747,-0.0456543,0.969482
1470245351385377,-0.237,-0.0477295,-0.0618896,0.968323
1470245351406394,-0.239807,-0.043396,-0.0776367,0.966736
1470245351422408,-0.242371,-0.0379639,-0.0928955,0.964966
1470245351445930,-0.243713,-0.03302,-0.106506,0.963379
1470245351466448,-0.244873,-0.0290527,-0.118408,0.961853
1470245351482462,-0.246704,-0.0264893,-0.128479,0.960144
1470245351505483,-0.248047,-0.0246582,-0.136597,0.95874
1470245351526546,-0.248962,-0.0230713,-0.142456,0.957703
1470245351542045,-0.249939,-0.0219116,-0.146301,0.956909
1470245351565537,-0.251221,-0.0212402,-0.148254,0.956238
1470245351589558,-0.252441,-0.020874,-0.148621,0.955872
1470245351602569,-0.253235,-0.0210571,-0.147827,0.955811
1470245351625591,-0.253784,-0.0219116,-0.146179,0.955872
1470245351648111,-0.25531,-0.0233154,-0.144226,0.95575
1470245351663125,-0.257568,-0.0248413,-0.142273,0.955383
1470245351685645,-0.259583,-0.0266724,-0.140625,0.955017
1470245351708165,-0.26123,-0.0289307,-0.138977,0.954773
1470245351729183,-0.262695,-0.0310669,-0.137512,0.954468
1470245351745699,-0.26239,-0.0328979,-0.137207,0.95459
1470245351767737,-0.25885,-0.0351563,-0.139893,0.955078
1470245351789243,-0.250793,-0.0401611,-0.149963,0.955505
1470245351805252,-0.244629,-0.0367432,-0.170776,0.953735
1470245351827772,-0.234497,-0.0205688,-0.20575,0.949829
1470245351849383,-0.223083,0.000183105,-0.249268,0.942383
1470245351865807,-0.215027,0.0258179,-0.305664,0.927185
1470245351887826,-0.203125,0.0515137,-0.375244,0.902893
1470245351916352,-0.188232,0.0774536,-0.453064,0.86792
1470245351925361,-0.167542,0.100037,-0.532898,0.823364
1470245351948400,-0.143127,0.11554,-0.610046,0.770691
1470245351976435,-0.112305,0.117981,-0.67688,0.717834
1470245351985414,-0.0828247,0.112122,-0.730042,0.669067
1470245352007944,-0.0570068,0.10199,-0.773621,0.622742
1470245352029021,-0.0415649,0.0927124,-0.803833,0.586121
1470245352045473,-0.0303345,0.0859375,-0.823242,0.560364
1470245352067988,-0.0195923,0.078064,-0.836121,0.542664
1470245352089007,-0.0128784,0.0773315,-0.844177,0.530334
1470245352105544,-0.00518799,0.078064,-0.849121,0.522339
1470245352128044,0.00140381,0.078064,-0.851929,0.517822
1470245352149572,0.00469971,0.0775146,-0.853088,0.515991
1470245352165576,0.00439453,0.0778198,-0.852966,0.516174
1470245352188096,0.00250244,0.0776367,-0.851807,0.518066
1470245352209128,0.000915527,0.0751343,-0.849854,0.521667
1470245352225630,-0.000732422,0.0716553,-0.847046,0.526672
1470245352248150,-0.00396729,0.0699463,-0.843689,0.532227
1470245352269180,-0.0088501,0.0698242,-0.840027,0.538025
1470245352284683,-0.0166016,0.0722656,-0.835754,0.544128
1470245352308203,-0.0291748,0.0797729,-0.830322,0.550781
1470245352329222,-0.0472412,0.0930176,-0.822937,0.558472
1470245352344736,-0.0714111,0.120117,-0.81189,0.566833
1470245352367758,-0.0841675,0.148376,-0.798706,0.577026
1470245352389276,-0.0940552,0.168884,-0.761597,0.618591
1470245352404791,-0.108765,0.175842,-0.699951,0.683594
1470245352427811,-0.126282,0.166809,-0.614075,0.760986
1470245352448861,-0.143433,0.14502,-0.509766,0.835754
1470245352472853,-0.16626,0.115784,-0.406555,0.890869
1470245352487865,-0.190491,0.0870361,-0.323792,0.922668
1470245352508884,-0.212708,0.0719604,-0.253784,0.940796
1470245352524898,-0.229248,0.057373,-0.19342,0.952209
1470245352547942,-0.241638,0.0465698,-0.143494,0.958557
1470245352570441,-0.245972,0.0408325,-0.104919,0.962708
1470245352584952,-0.248047,0.0375366,-0.076416,0.964966
1470245352607974,-0.252869,0.0358887,-0.0540771,0.965332
1470245352630493,-0.259277,0.02948,-0.039917,0.964478
1470245352645006,-0.263123,0.024231,-0.0309448,0.963928
1470245352668027,-0.262878,0.0209961,-0.0253906,0.964233
1470245352690547,-0.261292,0.019043,-0.0232544,0.964783
1470245352711566,-0.263123,0.015686,-0.0244141,0.964294
1470245352728082,-0.266846,0.0108032,-0.0274658,0.963257
1470245352750604,-0.270447,0.00598145,-0.0308228,0.962219
1470245352771620,-0.273132,0.00189209,-0.0336914,0.961365
1470245352788135,-0.274475,-0.0010376,-0.0366211,0.960876
1470245352810655,-0.275452,-0.00286865,-0.0394287,0.96051
1470245352831676,-0.277466,-0.0043335,-0.0432739,0.959717
1470245352848188,-0.278503,-0.00616455,-0.0491333,0.959106
1470245352870708,-0.275452,-0.00817871,-0.0586548,0.959473
1470245352891727,-0.267212,-0.0128784,-0.0765381,0.96051
1470245352907742,-0.254028,-0.0109253,-0.106689,0.961243
1470245352930763,-0.237244,-0.000549316,-0.152954,0.95929
1470245352951781,-0.219055,0.0166016,-0.210815,0.952515
1470245352967796,-0.205994,0.0379028,-0.281982,0.936279
1470245352997822,-0.191406,0.0575562,-0.368347,0.907959
1470245353011334,-0.16864,0.0783081,-0.462646,0.866821
1470245353027850,-0.135437,0.0944824,-0.559082,0.8125
1470245353050371,-0.0983276,0.0993042,-0.64679,0.749756
1470245353071388,-0.0661621,0.0990601,-0.718994,0.684753
1470245353087906,-0.0352173,0.0999146,-0.768738,0.630737
1470245353110424,-0.00585938,0.0969238,-0.802429,0.588806
1470245353131442,0.0162964,0.0933838,-0.822998,0.56012
1470245353147957,0.0342407,0.0871582,-0.835938,0.540771
1470245353170478,0.0428467,0.0922241,-0.843201,0.527954
1470245353200505,0.0497437,0.09729,-0.84668,0.520752
1470245353208011,0.0542603,0.102173,-0.848145,0.517029
1470245353230532,0.0548706,0.105713,-0.847595,0.51709
1470245353251551,0.0507202,0.108521,-0.845459,0.520508
1470245353267564,0.0442505,0.11084,-0.841492,0.526917
1470245353290586,0.0373535,0.112427,-0.835632,0.536316
1470245353311604,0.0280762,0.116272,-0.828125,0.547668
1470245353327119,0.0142822,0.123657,-0.81897,0.56012
1470245353350640,-0.00579834,0.136414,-0.807495,0.573853
1470245353371658,-0.0257568,0.151306,-0.793213,0.589233
1470245353387172,-0.046814,0.170044,-0.774292,0.607727
1470245353410693,-0.0622559,0.182373,-0.746033,0.63739
1470245353431712,-0.0784302,0.185547,-0.694885,0.690308
1470245353447228,-0.0987549,0.171875,-0.614075,0.763916
1470245353470247,-0.119263,0.144653,-0.511414,0.838623
1470245353500274,-0.143982,0.112915,-0.404724,0.895935
1470245353507280,-0.16687,0.0822144,-0.315125,0.930603
1470245353530301,-0.182922,0.0620728,-0.241638,0.950928
1470245353552821,-0.205383,0.0502319,-0.185059,0.959717
1470245353567334,-0.22644,0.0425415,-0.13916,0.963074
1470245353590355,-0.239807,0.0319824,-0.100586,0.965027
1470245353612877,-0.244751,0.0231323,-0.0704956,0.966736
1470245353633910,-0.249756,0.0158081,-0.0489502,0.966919
1470245353650409,-0.253601,0.00463867,-0.0379028,0.966553
1470245353672929,-0.255615,-0.00109863,-0.0371704,0.966064
1470245353694554,-0.261414,-0.00238037,-0.0406494,0.964355
1470245353710462,-0.264404,-0.00189209,-0.046875,0.963257
1470245353732982,-0.263306,-0.00115967,-0.0541992,0.963196
1470245353754002,-0.264526,-0.000976563,-0.0617065,0.962402
1470245353770517,-0.268188,-0.00164795,-0.0685425,0.960938
1470245353793037,-0.272339,-0.00268555,-0.0742188,0.95929
1470245353814056,-0.274963,-0.00305176,-0.0794678,0.95813
1470245353830571,-0.277527,-0.00292969,-0.0842285,0.95697
1470245353853092,-0.281189,-0.00280762,-0.0884399,0.955566
1470245353874110,-0.284546,-0.00213623,-0.0915527,0.954224
1470245353890624,-0.287476,-0.0012207,-0.0933838,0.953186
1470245353913145,-0.28949,-0.00012207,-0.0938721,0.952515
1470245353934163,-0.291504,0.000549316,-0.0933228,0.951965
1470245353950678,-0.293274,0.000671387,-0.092041,0.951538
1470245353973198,-0.295776,0.00012207,-0.0906372,0.950928
1470245353987211,-0.298218,-0.000793457,-0.0895996,0.950256
1470245354010232,-0.299927,-0.00219727,-0.0891724,0.949768
1470245354033253,-0.301392,-0.00372314,-0.0892944,0.94928
1470245354054271,-0.303711,-0.00543213,-0.0895386,0.948547
1470245354070286,-0.30658,-0.00732422,-0.0905762,0.94751
1470245354076291,-0.308167,-0.00921631,-0.09198,0.946838
1470245354098311,-0.308533,-0.0112915,-0.0933228,0.946533
1470245354116327,-0.309143,-0.0136108,-0.0949097,0.946167
1470245354135844,-0.309509,-0.0164795,-0.0969849,0.945801
1470245354158364,-0.308105,-0.0199585,-0.0994873,0.945923
1470245354180887,-0.303284,-0.0247803,-0.102234,0.947083
1470245354195899,-0.291443,-0.0318604,-0.105713,0.950195
1470245354218420,-0.26709,-0.0401001,-0.111633,0.956299
1470245354240939,-0.245422,-0.0470581,-0.119141,0.960876
1470245354257454,-0.218262,-0.0479126,-0.131104,0.96582
1470245354278973,-0.177979,-0.0365601,-0.148376,0.972107
1470245354300994,-0.129089,-0.0126343,-0.170532,0.976746
1470245354316008,-0.0739136,0.0233765,-0.198059,0.977112
1470245354338555,-0.0111694,0.0673218,-0.227905,0.971252
1470245354364049,0.0643921,0.114685,-0.255066,0.957886
1470245354376078,0.150024,0.160767,-0.278015,0.935059
1470245354398580,0.229309,0.201172,-0.294556,0.905579
1470245354421100,0.301514,0.229736,-0.303345,0.874207
1470245354436115,0.364136,0.240723,-0.307495,0.845459
1470245354458634,0.415283,0.235168,-0.312622,0.821228
1470245354481155,0.460205,0.215393,-0.320923,0.799255
1470245354496168,0.494507,0.18927,-0.331421,0.780823
1470245354518795,0.517883,0.163757,-0.341492,0.766968
1470245354541208,0.530396,0.141235,-0.34845,0.759766
1470245354557224,0.540161,0.125,-0.352051,0.754028
1470245354581245,0.545654,0.115295,-0.355835,0.749878
1470245354609783,0.544067,0.109497,-0.358154,0.750732
1470245354616301,0.532288,0.106689,-0.359131,0.759094
1470245354638313,0.50177,0.104187,-0.360046,0.779541
1470245354662819,0.453735,0.104004,-0.360229,0.808411
1470245354675851,0.387268,0.102417,-0.359924,0.842529
1470245354698351,0.310486,0.0913086,-0.357361,0.876099
1470245354720870,0.22998,0.0639648,-0.346924,0.906982
1470245354735883,0.148193,0.0249023,-0.325928,0.93335
1470245354758403,0.0655518,-0.0167847,-0.299377,0.951721
1470245354780954,-0.0151978,-0.0525513,-0.270081,0.961243
1470245354795939,-0.085144,-0.0755005,-0.241333,0.963745
1470245354818457,-0.142883,-0.0854492,-0.217041,0.961853
1470245354840977,-0.192261,-0.0856934,-0.200684,0.956726
1470245354855991,-0.242554,-0.0836182,-0.194702,0.946716
1470245354878512,-0.281555,-0.0817261,-0.198547,0.935181
1470245354901031,-0.296143,-0.0705566,-0.194702,0.932373
1470245354916045,-0.289978,-0.0656738,-0.190674,0.935547
1470245354938565,-0.287231,-0.0610352,-0.189026,0.937012
1470245354961085,-0.286133,-0.0576782,-0.190308,0.937317
1470245354976099,-0.27887,-0.0556641,-0.191589,0.939392
1470245354998619,-0.270752,-0.0530396,-0.194031,0.941406
1470245355020640,-0.264771,-0.0518188,-0.197449,0.942444
1470245355036152,-0.261292,-0.052124,-0.201599,0.942505
1470245355058199,-0.261047,-0.0531616,-0.205017,0.941772
1470245355081193,-0.260986,-0.0549316,-0.206726,0.941345
1470245355097209,-0.259094,-0.0578613,-0.207764,0.941467
1470245355118227,-0.259827,-0.0610962,-0.208679,0.940857
1470245355141247,-0.265015,-0.0633545,-0.208862,0.939209
1470245355157262,-0.271057,-0.0645142,-0.20813,0.937561
1470245355178781,-0.274963,-0.0657959,-0.207581,0.936462
1470245355201364,-0.276001,-0.0673828,-0.207336,0.936096
1470245355218837,-0.275085,-0.0688477,-0.207153,0.936279
1470245355238356,-0.273926,-0.0700684,-0.207214,0.936523
1470245355256365,-0.273315,-0.0715942,-0.207825,0.936462
1470245355277369,-0.273376,-0.0725708,-0.208008,0.93634
1470245355301391,-0.272827,-0.0726929,-0.207581,0.936584
1470245355320923,-0.269714,-0.0731812,-0.207031,0.937561
1470245355337425,-0.265747,-0.0744019,-0.207092,0.938599
1470245355358443,-0.263489,-0.0756226,-0.207458,0.939026
1470245355380962,-0.263916,-0.0769043,-0.207947,0.938721
1470245355398980,-0.264771,-0.0775146,-0.20813,0.938354
1470245355418498,-0.265869,-0.0775757,-0.208008,0.93811
1470245355441016,-0.2677,-0.0775146,-0.207947,0.937561
1470245355459032,-0.269165,-0.078064,-0.208008,0.937134
1470245355478549,-0.270081,-0.0797119,-0.208069,0.936707
1470245355496566,-0.271362,-0.081543,-0.208557,0.936035
1470245355523590,-0.26886,-0.0838013,-0.210327,0.936157
1470245355538604,-0.258301,-0.0884399,-0.212952,0.93811
1470245355561125,-0.235413,-0.0942993,-0.21814,0.942383
1470245355578640,-0.208191,-0.0973511,-0.221619,0.947632
1470245355598657,-0.172974,-0.101196,-0.22876,0.952637
1470245355621178,-0.128662,-0.103516,-0.24231,0.956055
1470245355638695,-0.0839233,-0.0982666,-0.266174,0.9552
1470245355658212,-0.0356445,-0.0852661,-0.298096,0.950012
1470245355681231,0.0180054,-0.0638428,-0.333984,0.940247
1470245355698748,0.0858765,-0.0344849,-0.369019,0.924805
1470245355718765,0.173889,-0.00219727,-0.396423,0.901428
1470245355741285,0.264221,0.0322876,-0.414063,0.870422
1470245355758801,0.341736,0.0679321,-0.422913,0.836487
1470245355778320,0.408691,0.09729,-0.420288,0.80426
1470245355803843,0.465332,0.112,-0.410583,0.776062
1470245355818856,0.509644,0.114563,-0.402039,0.751953
1470245355838373,0.549866,0.103027,-0.397461,0.727295
1470245355860893,0.582214,0.081665,-0.391052,0.708069
1470245355878911,0.598816,0.0648193,-0.384094,0.699768
1470245355898427,0.611084,0.0575562,-0.374207,0.695129
1470245355920949,0.615601,0.0540161,-0.363342,0.697205
1470245355938964,0.615906,0.0539551,-0.352905,0.702209
1470245355958483,0.612122,0.0560913,-0.34375,0.7099
1470245355981502,0.603821,0.0592041,-0.337402,0.719727
1470245355999019,0.590149,0.062439,-0.336121,0.731262
1470245356018534,0.566223,0.0653076,-0.341553,0.747253
1470245356048561,0.530212,0.0652466,-0.350281,0.769287
1470245356059071,0.485596,0.0631104,-0.357544,0.795166
1470245356080091,0.4328,0.0587769,-0.366699,0.821411
1470245356101110,0.374451,0.0516357,-0.376892,0.845581
1470245356119125,0.316956,0.0454712,-0.386597,0.864868
1470245356139644,0.265686,0.0394287,-0.393677,0.879089
1470245356161163,0.219299,0.0296021,-0.399292,0.889709
1470245356179680,0.173096,0.0195313,-0.403809,0.898071
1470245356200197,0.131165,0.0127563,-0.407471,0.903625
1470245356221217,0.0952759,0.00708008,-0.406555,0.908569
1470245356238733,0.0591431,0.00213623,-0.403137,0.913208
1470245356259752,0.0250244,-0.00238037,-0.401306,0.915588
1470245356281270,-0.00561523,-0.00506592,-0.400391,0.916321
1470245356304792,-0.0375977,-0.00524902,-0.398376,0.916382
1470245356319806,-0.0693359,-0.00292969,-0.397583,0.914917
1470245356341364,-0.0914307,-0.0022583,-0.39856,0.912537
1470245356358840,-0.106934,-0.00549316,-0.395935,0.911987
1470245356381365,-0.128418,-0.00506592,-0.391846,0.911011
1470245356401412,-0.151855,-0.00244141,-0.390015,0.908203
1470245356418894,-0.170288,0.000244141,-0.3927,0.903748
1470245356441915,-0.178955,-0.000732422,-0.395203,0.901001
1470245356460964,-0.186523,-0.0022583,-0.395508,0.899292
1470245356478949,-0.197083,-0.00305176,-0.395569,0.897034
1470245356501468,-0.210083,-0.00280762,-0.397156,0.893372
1470245356520987,-0.217712,-0.00244141,-0.400024,0.890259
1470245356539003,-0.2229,-0.00317383,-0.402039,0.888062
1470245356561522,-0.227417,-0.00390625,-0.403381,0.886292
1470245356581542,-0.233276,-0.00531006,-0.40448,0.884277
1470245356605563,-0.240295,-0.00708008,-0.406067,0.881653
1470245356620577,-0.247803,-0.00787354,-0.408325,0.87854
1470245356641596,-0.252441,-0.00408936,-0.411743,0.87561
1470245356658109,-0.251282,-0.00195313,-0.412231,0.875732
1470245356680630,-0.253967,-0.000549316,-0.413391,0.874451
1470245356701665,-0.260254,0.0022583,-0.414612,0.871948
1470245356718163,-0.263428,0.00250244,-0.416138,0.8703
1470245356740684,-0.262451,0.00189209,-0.417969,0.86969
1470245356761702,-0.260986,0.00146484,-0.419067,0.869629
1470245356778217,-0.25885,0.000732422,-0.419556,0.870056
1470245356800260,-0.25647,0,-0.420044,0.870483
1470245356821757,-0.254089,-0.000610352,-0.420471,0.871033
1470245356838272,-0.252869,-0.0012207,-0.420776,0.871216
1470245356860791,-0.253418,-0.000793457,-0.421387,0.870728
1470245356881809,-0.254395,0.000488281,-0.421875,0.870239
1470245356897825,-0.254761,0.00244141,-0.422791,0.86969
1470245356920345,-0.254944,0.00463867,-0.424377,0.868835
1470245356941866,-0.254028,0.00640869,-0.426086,0.868286
1470245356957878,-0.252747,0.00793457,-0.427856,0.867737
1470245356980400,-0.252075,0.00976563,-0.429626,0.867065
1470245357001917,-0.251953,0.0115967,-0.431213,0.866272
1470245357017932,-0.251953,0.0134277,-0.432617,0.86554
1470245357040452,-0.251343,0.0149536,-0.434204,0.864929
1470245357061990,-0.249939,0.0154419,-0.436035,0.86438
1470245357077986,-0.24823,0.0153809,-0.437866,0.863953
1470245357100507,-0.247681,0.0154419,-0.439331,0.863342
1470245357123027,-0.248169,0.0158081,-0.440308,0.862732
1470245357138042,-0.248779,0.0164185,-0.440796,0.862305
1470245357160560,-0.249023,0.0169067,-0.441223,0.862
1470245357183080,-0.248962,0.0169067,-0.441772,0.861694
1470245357198097,-0.249207,0.0167236,-0.442383,0.861328
1470245357220614,-0.250061,0.0165405,-0.442749,0.860901
1470245357243135,-0.251099,0.0160522,-0.443054,0.860474
1470245357258148,-0.252319,0.0150146,-0.443359,0.859985
1470245357280668,-0.253052,0.0134277,-0.443298,0.859802
1470245357302690,-0.252136,0.0103149,-0.443115,0.860229
1470245357324207,-0.249329,0.00415039,-0.442932,0.861206
1470245357340724,-0.248535,-0.00518799,-0.442871,0.86145
1470245357363243,-0.259399,-0.0194092,-0.444214,0.8573
1470245357384272,-0.291931,-0.0292969,-0.447815,0.844604
1470245357399775,-0.297974,-0.0270386,-0.455627,0.838379
1470245357420796,-0.262329,-0.0184937,-0.463074,0.846375
1470245357438810,-0.194397,-0.00378418,-0.473022,0.859314
1470245357459830,-0.112122,0.0198975,-0.487244,0.865784
1470245357480849,-0.0276489,0.0567017,-0.502563,0.862244
1470245357497363,0.0541382,0.0952759,-0.516357,0.849304
1470245357519883,0.152893,0.123352,-0.524292,0.828552
1470245357550410,0.255859,0.139709,-0.526978,0.798279
1470245357564422,0.3526,0.147339,-0.522278,0.762329
1470245357580439,0.429565,0.148865,-0.51178,0.728943
1470245357602957,0.479675,0.147522,-0.502625,0.703918
1470245357625477,0.509644,0.143311,-0.498535,0.686401
1470245357640491,0.530151,0.133789,-0.498718,0.672546
1470245357663012,0.545898,0.119507,-0.498718,0.662537
1470245357684548,0.559265,0.105225,-0.49469,0.656799
1470245357700545,0.565186,0.0953979,-0.489746,0.656921
1470245357724567,0.565552,0.0887451,-0.483887,0.661865
1470245357744117,0.561218,0.0837402,-0.477417,0.670837
1470245357761101,0.553162,0.0787354,-0.470886,0.682678
1470245357783120,0.542542,0.0718994,-0.465027,0.695801
1470245357804160,0.529236,0.0633545,-0.460754,0.709595
1470245357820653,0.511719,0.0552368,-0.459717,0.723694
1470245357843173,0.486816,0.0479736,-0.463074,0.739075
1470245357864195,0.451904,0.0410156,-0.468079,0.758301
1470245357880207,0.413147,0.0343628,-0.471008,0.778625
1470245357903229,0.376404,0.0278931,-0.473083,0.796021
1470245357924246,0.342896,0.0223999,-0.475098,0.810059
1470245357940762,0.317505,0.0162354,-0.47821,0.818665
1470245357963281,0.294983,0.00811768,-0.482422,0.824707
1470245357991806,0.272278,0,-0.48584,0.830505
1470245358001316,0.255737,-0.00543213,-0.489563,0.833618
1470245358022834,0.243286,-0.0116577,-0.492676,0.835388
1470245358044355,0.233032,-0.0177002,-0.495361,0.836609
1470245358059868,0.22522,-0.0220947,-0.497375,0.837463
1470245358082890,0.221802,-0.0254517,-0.499329,0.837158
1470245358104441,0.223572,-0.0286255,-0.500488,0.835876
1470245358119925,0.228088,-0.03125,-0.501526,0.833923
1470245358142942,0.234924,-0.0328979,-0.502686,0.831299
1470245358164462,0.242249,-0.0339355,-0.504822,0.82782
1470245358187983,0.249939,-0.0343018,-0.507446,0.823914
1470245358202996,0.256714,-0.0338745,-0.510498,0.819946
1470245358224036,0.262695,-0.0335693,-0.513306,0.816345
1470245358240030,0.269348,-0.0342407,-0.515686,0.812622
1470245358263050,0.277527,-0.0355225,-0.518005,0.808289
1470245358285570,0.288391,-0.0376587,-0.520813,0.802551
1470245358300083,0.301941,-0.0403442,-0.523071,0.795959
1470245358323104,0.32135,-0.0432739,-0.524231,0.787415
1470245358345624,0.34436,-0.0465698,-0.524414,0.777283
1470245358360137,0.369812,-0.0499268,-0.524475,0.765259
1470245358383158,0.39624,-0.0531616,-0.525208,0.75116
1470245358405679,0.420959,-0.0557861,-0.526733,0.736328
1470245358426712,0.443909,-0.0576782,-0.529602,0.72052
1470245358443212,0.463989,-0.0594482,-0.533813,0.704407
1470245358465732,0.481934,-0.0616455,-0.539978,0.687256
1470245358486839,0.496094,-0.0644531,-0.548218,0.670166
1470245358503267,0.506409,-0.0668945,-0.558228,0.653809
1470245358525786,0.514893,-0.0687866,-0.568359,0.638
1470245358546804,0.520813,-0.0699463,-0.577515,0.624756
1470245358563419,0.526245,-0.0718384,-0.58551,0.612366
1470245358585441,0.529602,-0.0737305,-0.593872,0.601135
1470245358607053,0.528992,-0.0749512,-0.601929,0.593506
1470245358622973,0.520935,-0.0749512,-0.610107,0.592285
1470245358645529,0.501465,-0.0705566,-0.621216,0.598022
1470245358666557,0.470947,-0.0628052,-0.633118,0.611023
1470245358683027,0.427063,-0.0532837,-0.645752,0.630737
1470245358705547,0.367432,-0.0487061,-0.660278,0.653198
1470245358726639,0.299194,-0.0615845,-0.66748,0.679077
1470245358743081,0.222412,-0.0834961,-0.664978,0.708069
1470245358773108,0.14386,-0.105286,-0.656128,0.733337
1470245358786645,0.0670166,-0.124451,-0.642517,0.753113
1470245358803135,0.00140381,-0.139709,-0.622986,0.769653
1470245358825656,-0.0565796,-0.146423,-0.601257,0.783508
1470245358846674,-0.108459,-0.1427,-0.586182,0.7901
1470245358863189,-0.152344,-0.133423,-0.577759,0.79071
1470245358885710,-0.176392,-0.127625,-0.570984,0.791565
1470245358906757,-0.187866,-0.125549,-0.561035,0.796387
1470245358923244,-0.183594,-0.130493,-0.549683,0.804443
1470245358945763,-0.166748,-0.137512,-0.542786,0.811584
1470245358966283,-0.137695,-0.1474,-0.541199,0.816345
1470245358983296,-0.104004,-0.155212,-0.543518,0.818298
1470245359005817,-0.0753784,-0.155273,-0.552185,0.815674
1470245359026835,-0.0435181,-0.148682,-0.570496,0.806519
1470245359042351,0.0043335,-0.139465,-0.589355,0.795776
1470245359065870,0.0592651,-0.121948,-0.603271,0.785889
1470245359086920,0.118164,-0.0961304,-0.611389,0.776489
1470245359102444,0.183228,-0.0684814,-0.612366,0.765991
1470245359125424,0.253357,-0.0432129,-0.604614,0.753906
1470245359146944,0.31897,-0.0198364,-0.589478,0.741882
1470245359162958,0.372864,0.000854492,-0.56897,0.732971
1470245359185478,0.412903,0.0185547,-0.545715,0.728882
1470245359206511,0.442261,0.0297241,-0.52356,0.727539
1470245359222511,0.46106,0.0353394,-0.504517,0.729126
1470245359245551,0.474365,0.0367432,-0.486023,0.733032
1470245359268052,0.478699,0.0355835,-0.469849,0.740784
1470245359282566,0.4729,0.0339355,-0.458069,0.751892
1470245359311622,0.454529,0.0323486,-0.453003,0.766235
1470245359328106,0.426819,0.0292358,-0.454468,0.78125
1470245359342619,0.389954,0.0247192,-0.462463,0.795898
1470245359365641,0.342896,0.0178223,-0.475647,0.809814
1470245359388160,0.285217,0.0088501,-0.489685,0.823853
1470245359409200,0.217285,-0.00134277,-0.503967,0.835938
1470245359425694,0.145996,-0.00897217,-0.518372,0.842529
1470245359448216,0.0852051,-0.0153809,-0.527344,0.845215
1470245359469286,0.0366821,-0.0250244,-0.533936,0.84436
1470245359485748,0.00396729,-0.0404053,-0.542114,0.839294
1470245359508267,-0.0246582,-0.0551758,-0.546448,0.835327
1470245359529305,-0.0501709,-0.0652466,-0.547119,0.833008
1470245359545802,-0.0661011,-0.076355,-0.550232,0.828918
1470245359575330,-0.0693359,-0.0891113,-0.551941,0.826172
1470245359589340,-0.081604,-0.0959473,-0.554077,0.822876
1470245359605377,-0.0992432,-0.0945435,-0.55835,0.818176
1470245359627895,-0.109131,-0.0927124,-0.565674,0.812134
1470245359656926,-0.107849,-0.0945435,-0.572083,0.807556
1470245359665411,-0.104126,-0.0953369,-0.578247,0.803528
1470245359687929,-0.103638,-0.0929565,-0.585693,0.798462
1470245359708980,-0.108215,-0.0888672,-0.59436,0.79187
1470245359725463,-0.115173,-0.0837402,-0.604248,0.783997
1470245359747985,-0.120544,-0.078125,-0.613403,0.776611
1470245359769016,-0.120911,-0.0733032,-0.621277,0.770752
1470245359785519,-0.118225,-0.071167,-0.628784,0.765259
1470245359808037,-0.120728,-0.0679932,-0.636597,0.758667
1470245359829072,-0.127991,-0.0626831,-0.64325,0.752319
1470245359845571,-0.13501,-0.0578613,-0.647217,0.747986
1470245359868091,-0.138794,-0.0551758,-0.649658,0.745422
1470245359889137,-0.139648,-0.0551147,-0.652588,0.742676
1470245359905624,-0.142212,-0.0565186,-0.655457,0.739563
1470245359928145,-0.144348,-0.0579834,-0.657166,0.737549
1470245359949165,-0.143005,-0.0595703,-0.657837,0.737061
1470245359965179,-0.139709,-0.0608521,-0.658081,0.737366
1470245359988199,-0.138306,-0.0610352,-0.658325,0.737366
1470245360009220,-0.139282,-0.0594482,-0.658936,0.736816
1470245360025732,-0.140442,-0.0567627,-0.660461,0.735413
1470245360048253,-0.140381,-0.0532227,-0.662292,0.734009
1470245360069271,-0.139404,-0.0494995,-0.664368,0.732605
1470245360084785,-0.138672,-0.0461426,-0.666504,0.731079
1470245360108306,-0.139099,-0.0421143,-0.668579,0.729309
1470245360131328,-0.140869,-0.0372925,-0.670166,0.727783
1470245360144840,-0.142456,-0.0340576,-0.671631,0.726318
1470245360167860,-0.144104,-0.0321045,-0.67334,0.724487
1470245360190382,-0.145569,-0.0315552,-0.674622,0.722961
1470245360204897,-0.147156,-0.0308838,-0.675293,0.722107
1470245360227914,-0.149292,-0.0290527,-0.67511,0.721924
1470245360250434,-0.15155,-0.0272217,-0.674438,0.722107
1470245360265447,-0.151794,-0.0267944,-0.674316,0.722168
1470245360287968,-0.151001,-0.0269165,-0.674377,0.72229
1470245360311989,-0.150208,-0.0269775,-0.674561,0.72229
1470245360325001,-0.150696,-0.026062,-0.674683,0.722107
1470245360348025,-0.152161,-0.0252686,-0.674927,0.721619
1470245360370542,-0.15332,-0.0249634,-0.67511,0.721191
1470245360393062,-0.153137,-0.0246582,-0.674866,0.721497
1470245360408076,-0.152344,-0.0238647,-0.674438,0.722046
1470245360438103,-0.151611,-0.0231323,-0.674683,0.721985
1470245360445110,-0.151428,-0.0220947,-0.675232,0.721558
1470245360468130,-0.151062,-0.020813,-0.675842,0.721069
1470245360490650,-0.150024,-0.0195923,-0.676514,0.720703
1470245360505162,-0.14917,-0.0179443,-0.676636,0.720825
1470245360528183,-0.148682,-0.0162964,-0.676819,0.720825
1470245360550704,-0.148315,-0.0150757,-0.677307,0.720459
1470245360564716,-0.148193,-0.013916,-0.67804,0.719788
1470245360588238,-0.147949,-0.0127563,-0.67865,0.719299
1470245360610758,-0.148071,-0.0116577,-0.678955,0.718994
1470245360624770,-0.148682,-0.0105591,-0.679138,0.718689
1470245360648293,-0.149292,-0.00964355,-0.67926,0.718506
1470245360670811,-0.149292,-0.0090332,-0.67926,0.718445
1470245360691831,-0.149292,-0.00848389,-0.679382,0.718384
1470245360707844,-0.149414,-0.00793457,-0.679504,0.718262
1470245360730866,-0.149902,-0.00738525,-0.679504,0.718201
1470245360751884,-0.150696,-0.00671387,-0.679382,0.71814
1470245360768399,-0.151123,-0.00628662,-0.67926,0.71814
1470245360790419,-0.151245,-0.00610352,-0.679382,0.718018
1470245360811438,-0.151123,-0.00585938,-0.679565,0.717896
1470245360827953,-0.151184,-0.0055542,-0.679688,0.717773
1470245360850474,-0.151245,-0.00543213,-0.679688,0.717712
1470245360879498,-0.151489,-0.00537109,-0.679688,0.717651
1470245360888007,-0.151855,-0.00524902,-0.679626,0.717651
1470245360910527,-0.152405,-0.00506592,-0.679565,0.71759
1470245360932046,-0.152893,-0.00469971,-0.679504,0.717529
1470245360948061,-0.153442,-0.00427246,-0.67926,0.717651
1470245360970581,-0.154175,-0.00408936,-0.678589,0.71814
1470245360991601,-0.15625,-0.00341797,-0.677856,0.718445
1470245361007615,-0.159668,-0.00177002,-0.677185,0.718262
1470245361030637,-0.162109,-0.000183105,-0.677002,0.717896
1470245361051653,-0.163391,0.000610352,-0.677124,0.717529
1470245361067669,-0.165039,0.00158691,-0.677307,0.716919
1470245361090689,-0.167847,0.00305176,-0.67749,0.716125
1470245361111709,-0.170715,0.00500488,-0.677307,0.715637
1470245361128222,-0.172241,0.00634766,-0.677063,0.715454
1470245361150742,-0.173279,0.00726318,-0.67688,0.715332
1470245361173263,-0.174744,0.00854492,-0.676697,0.71521
1470245361194297,-0.176575,0.0110474,-0.676086,0.715271
1470245361210796,-0.178772,0.0144043,-0.675476,0.715271
1470245361233316,-0.180054,0.0177612,-0.674988,0.715271
1470245361247330,-0.179993,0.0204468,-0.674927,0.715332
1470245361270351,-0.178833,0.0222168,-0.674866,0.715576
1470245361292872,-0.17749,0.0239258,-0.674744,0.716003
1470245361307383,-0.176331,0.0253906,-0.674561,0.716431
1470245361330407,-0.175964,0.026062,-0.674316,0.716736
1470245361352924,-0.176575,0.0257568,-0.674133,0.716736
1470245361367437,-0.177002,0.0238647,-0.674072,0.716736
1470245361390458,-0.176941,0.020752,-0.674377,0.716614
1470245361412978,-0.176819,0.0172729,-0.674988,0.716187
1470245361427491,-0.176331,0.0140991,-0.675781,0.715576
1470245361450513,-0.174805,0.0118408,-0.676514,0.715271
1470245361473031,-0.172424,0.0109253,-0.676758,0.715637
1470245361487545,-0.170898,0.0111694,-0.676758,0.716003
1470245361510565,-0.171143,0.012207,-0.676758,0.715942
1470245361533086,-0.171326,0.0129395,-0.676758,0.715881
1470245361547599,-0.170044,0.0125732,-0.676819,0.716125
1470245361570620,-0.168457,0.0119629,-0.677002,0.716309
1470245361599146,-0.167847,0.0115356,-0.677063,0.716431
1470245361607652,-0.167786,0.0113525,-0.677124,0.716431
1470245361631174,-0.167664,0.0112305,-0.677063,0.716492
1470245361653194,-0.167419,0.0110474,-0.677063,0.716553
1470245361674214,-0.16687,0.0108032,-0.677124,0.716614
1470245361690727,-0.165894,0.010498,-0.677429,0.716614
1470245361713248,-0.164856,0.010376,-0.677734,0.716553
1470245361734266,-0.164124,0.0103149,-0.678101,0.71637
1470245361751282,-0.164001,0.0105591,-0.678406,0.716125
1470245361773301,-0.163879,0.0108032,-0.678589,0.715942
1470245361794320,-0.163574,0.0109863,-0.678711,0.715881
1470245361810335,-0.163208,0.0110474,-0.678894,0.715759
1470245361833355,-0.162903,0.0110474,-0.679199,0.715576
1470245361838360,-0.162598,0.0112915,-0.679504,0.715332
1470245361860880,-0.162476,0.0112305,-0.679688,0.71521
1470245361875894,-0.161926,0.0107422,-0.679871,0.715149
1470245361898413,-0.161316,0.0102539,-0.680054,0.715149
1470245361920933,-0.160828,0.0100708,-0.680176,0.715149
1470245361935947,-0.160889,0.0100708,-0.680176,0.715149
1470245361958468,-0.160767,0.00982666,-0.680237,0.715088
1470245361980988,-0.160522,0.00958252,-0.680237,0.715149
1470245361996001,-0.160217,0.00946045,-0.680359,0.715088
1470245362018522,-0.160095,0.00946045,-0.680481,0.715027
1470245362041043,-0.159912,0.00939941,-0.680664,0.714905
1470245362056057,-0.159607,0.00933838,-0.680725,0.714844
1470245362078606,-0.159302,0.00933838,-0.680847,0.714844
1470245362101095,-0.159241,0.00933838,-0.680969,0.714722
1470245362116109,-0.159363,0.00946045,-0.681213,0.714478
1470245362138629,-0.159424,0.00964355,-0.681519,0.714172
1470245362161150,-0.159363,0.00982666,-0.681763,0.713928
1470245362176164,-0.159302,0.0101318,-0.682007,0.713684
1470245362198684,-0.159241,0.010437,-0.682129,0.713562
1470245362221204,-0.158813,0.010437,-0.682251,0.713562
1470245362236219,-0.158142,0.010376,-0.682373,0.713562
1470245362258738,-0.157959,0.010437,-0.682556,0.713501
1470245362281257,-0.157898,0.0106812,-0.682556,0.713501
1470245362296271,-0.157898,0.0112915,-0.682556,0.71344
1470245362318792,-0.157532,0.0117188,-0.682495,0.713623
1470245362343814,-0.157166,0.012085,-0.68219,0.713989
1470245362355825,-0.15686,0.0124512,-0.681763,0.714417
1470245362379846,-0.156799,0.0134277,-0.681519,0.714661
1470245362401365,-0.156921,0.0143433,-0.681641,0.714539
1470245362415879,-0.156982,0.0148926,-0.681885,0.714294
1470245362438398,-0.157104,0.0155029,-0.681885,0.714233
1470245362460918,-0.157654,0.0167236,-0.681641,0.714294
1470245362475932,-0.158325,0.0183716,-0.681335,0.714417
1470245362498453,-0.158997,0.0200806,-0.680847,0.714661
1470245362520972,-0.160522,0.0219116,-0.68042,0.714722
1470245362535987,-0.164673,0.0240479,-0.679871,0.714233
1470245362558507,-0.173645,0.0280151,-0.678345,0.713379
1470245362581547,-0.185669,0.0333252,-0.676147,0.712219
1470245362599059,-0.196716,0.0403442,-0.673218,0.71167
1470245362618560,-0.206177,0.0454102,-0.669189,0.712463
1470245362641081,-0.213806,0.0487671,-0.663574,0.715271
1470245362657595,-0.217651,0.0499878,-0.65332,0.723389
1470245362678614,-0.216919,0.0509644,-0.636414,0.738464
1470245362701134,-0.217346,0.052124,-0.615295,0.75592
1470245362717649,-0.220764,0.0534058,-0.591309,0.773804
1470245362738668,-0.22644,0.0549927,-0.564941,0.791504
1470245362761188,-0.232117,0.0561523,-0.537964,0.808411
1470245362777202,-0.238647,0.0568237,-0.513,0.822632
1470245362798722,-0.24469,0.053833,-0.491821,0.833862
1470245362821242,-0.249451,0.0487671,-0.47644,0.841675
1470245362837757,-0.249512,0.043396,-0.465942,0.847778
1470245362858276,-0.249573,0.0405884,-0.459167,0.851563
1470245362880796,-0.254517,0.0396729,-0.456177,0.851807
1470245362897312,-0.261047,0.0388794,-0.455994,0.849976
1470245362918330,-0.264893,0.0363159,-0.456909,0.848389
1470245362940851,-0.267029,0.0352173,-0.457458,0.847473
1470245362964872,-0.265564,0.0346069,-0.457581,0.8479
1470245362978384,-0.263611,0.0350342,-0.45636,0.849121
1470245363000904,-0.26532,0.036499,-0.453735,0.849915
1470245363017420,-0.266724,0.036499,-0.451965,0.850403
1470245363038451,-0.264282,0.034729,-0.450928,0.851807
1470245363060987,-0.26123,0.0327148,-0.450195,0.85321
1470245363078974,-0.259827,0.0321045,-0.449036,0.854309
1470245363098493,-0.260376,0.0327759,-0.447571,0.854858
1470245363121011,-0.260559,0.0332642,-0.446289,0.855469
1470245363139028,-0.26001,0.0333252,-0.44574,0.855896
1470245363158560,-0.259155,0.0325928,-0.445313,0.856445
1470245363181067,-0.258789,0.0315552,-0.444702,0.856873
1470245363199082,-0.257996,0.0302734,-0.44458,0.857239
1470245363218633,-0.258362,0.0304565,-0.444946,0.856934
1470245363241166,-0.26001,0.0310669,-0.445129,0.856323
1470245363259161,-0.260498,0.0303955,-0.444946,0.856262
1470245363278659,-0.258362,0.0293579,-0.445129,0.856873
1470245363301174,-0.257263,0.0294189,-0.444336,0.857605
1470245363319189,-0.257996,0.0305176,-0.443359,0.857849
1470245363338738,-0.257996,0.0322876,-0.442261,0.858337
1470245363361243,-0.257446,0.0349731,-0.440552,0.859314
1470245363379335,-0.258179,0.0384521,-0.4375,0.860474
1470245363398811,-0.260559,0.0426636,-0.43335,0.861694
1470245363421386,-0.263428,0.0471802,-0.427856,0.863281
1470245363438817,-0.264832,0.052124,-0.421326,0.865845
1470245363458315,-0.263977,0.0569458,-0.412964,0.869751
1470245363481335,-0.262634,0.0609131,-0.403564,0.874329
1470245363498851,-0.261414,0.0648193,-0.393188,0.87915
1470245363518868,-0.26062,0.0687866,-0.383179,0.883484
1470245363541523,-0.260376,0.0713501,-0.374512,0.887024
1470245363558923,-0.261292,0.0725098,-0.367859,0.889465
1470245363578423,-0.26239,0.0725708,-0.362549,0.891296
1470245363601444,-0.263123,0.0718384,-0.358154,0.892944
1470245363618959,-0.263977,0.0710449,-0.354797,0.894043
1470245363638504,-0.263794,0.0702515,-0.352966,0.894897
1470245363661527,-0.262634,0.0691528,-0.352051,0.895691
1470245363679012,-0.261536,0.067749,-0.351318,0.896423
1470245363700032,-0.261963,0.0661011,-0.350952,0.896545
1470245363721051,-0.263184,0.06427,-0.350586,0.896484
1470245363739066,-0.263916,0.0620117,-0.349854,0.896729
1470245363767592,-0.263611,0.0587769,-0.349121,0.897278
1470245363781105,-0.260925,0.0559692,-0.348877,0.898376
1470245363799120,-0.257324,0.0550537,-0.348938,0.899414
1470245363820141,-0.254517,0.0544434,-0.348938,0.900269
1470245363841158,-0.255493,0.0561523,-0.348816,0.899902
1470245363859174,-0.25824,0.0576782,-0.349121,0.898926
1470245363879693,-0.260437,0.057312,-0.350098,0.897949
1470245363901212,-0.262268,0.0566406,-0.351257,0.896973
1470245363918728,-0.263,0.0558472,-0.353149,0.896057
1470245363939747,-0.265137,0.0558472,-0.355042,0.894714
1470245363963769,-0.268677,0.0565186,-0.356812,0.892944
1470245363979282,-0.270508,0.0574341,-0.359009,0.891418
1470245364001302,-0.271301,0.0582886,-0.361572,0.890076
1470245364022821,-0.272034,0.0593872,-0.364136,0.888733
1470245364038836,-0.273438,0.0608521,-0.366577,0.887207
1470245364061356,-0.274963,0.0623779,-0.36908,0.885559
1470245364081373,-0.276367,0.0637817,-0.371948,0.88385
1470245364098889,-0.277405,0.0651245,-0.374878,0.882202
1470245364126463,-0.277954,0.0662231,-0.377808,0.880676
1470245364140927,-0.277771,0.0675049,-0.380676,0.879395
1470245364158982,-0.278015,0.0689697,-0.383301,0.878052
1470245364181464,-0.278442,0.0702515,-0.386047,0.876648
1470245364201005,-0.278564,0.0714111,-0.388489,0.875427
1470245364218998,-0.278503,0.0723267,-0.390747,0.874329
1470245364241520,-0.277893,0.0731812,-0.392883,0.873535
1470245364264039,-0.277405,0.0739136,-0.394775,0.872742
1470245364286558,-0.277283,0.074585,-0.396362,0.872009
1470245364300570,-0.276794,0.0752563,-0.397827,0.87146
1470245364321120,-0.276367,0.0761108,-0.398926,0.871033
1470245364339105,-0.275879,0.0769653,-0.399902,0.870667
1470245364361637,-0.275085,0.0774536,-0.400696,0.870483
1470245364381143,-0.274109,0.0777588,-0.401611,0.870361
1470245364398159,-0.27356,0.0783691,-0.402405,0.870117
1470245364420678,-0.27301,0.0791626,-0.402954,0.869934
1470245364441699,-0.272217,0.0799561,-0.403442,0.869934
1470245364458212,-0.271057,0.0806274,-0.403931,0.869995
1470245364480733,-0.269653,0.0812378,-0.404297,0.870178
1470245364501751,-0.268433,0.0817261,-0.404297,0.870483
1470245364517766,-0.267334,0.0822144,-0.404236,0.87085
1470245364540787,-0.266296,0.0826416,-0.404053,0.871216
1470245364561304,-0.265076,0.0830078,-0.403931,0.871582
1470245364578319,-0.263428,0.0834961,-0.403687,0.872192
1470245364600339,-0.261902,0.0841675,-0.403381,0.872681
1470245364621859,-0.261047,0.0847168,-0.403198,0.872986
1470245364638373,-0.260193,0.0853271,-0.402954,0.873291
1470245364660894,-0.259155,0.0859375,-0.402466,0.873779
1470245364681912,-0.258118,0.0863647,-0.401672,0.87439
1470245364698428,-0.257141,0.0864258,-0.401062,0.874939
1470245364720949,-0.256653,0.0864868,-0.40033,0.875427
1470245364741966,-0.255432,0.0864868,-0.399353,0.876221
1470245364757981,-0.253662,0.086731,-0.39801,0.877319
1470245364781003,-0.252136,0.0870972,-0.396362,0.878479
1470245364801521,-0.250793,0.0869141,-0.394836,0.879578
1470245364818036,-0.248962,0.086792,-0.393494,0.880676
1470245364840556,-0.247131,0.0866089,-0.392029,0.881897
1470245364861575,-0.244263,0.0860596,-0.390991,0.883179
1470245364877591,-0.241272,0.0856934,-0.389893,0.884521
1470245364900609,-0.238892,0.0856934,-0.388733,0.885681
1470245364923129,-0.236206,0.0854492,-0.388123,0.886719
1470245364937643,-0.233826,0.0852051,-0.387878,0.887451
1470245364968170,-0.231018,0.0849609,-0.387878,0.888245
1470245364983185,-0.227051,0.0844727,-0.388306,0.889099
1470245364998197,-0.223206,0.0842896,-0.388794,0.889893
1470245365020718,-0.221191,0.0834961,-0.389282,0.890259
1470245365044739,-0.222168,0.0834961,-0.389771,0.889771
1470245365064758,-0.226746,0.0854492,-0.390076,0.888306
1470245365080774,-0.232971,0.0872192,-0.391357,0.885925
1470245365103291,-0.237915,0.0865479,-0.393616,0.883728
1470245365124311,-0.239746,0.0845947,-0.395203,0.88269
1470245365140825,-0.240112,0.0817871,-0.396912,0.88208
1470245365163848,-0.243408,0.0782471,-0.398438,0.880798
1470245365184364,-0.248596,0.0743408,-0.400513,0.878784
1470245365206883,-0.253967,0.0703125,-0.402649,0.876587
1470245365223399,-0.258789,0.0664063,-0.405212,0.874329
1470245365244418,-0.262939,0.062439,-0.408569,0.871765
1470245365260432,-0.266541,0.0591431,-0.412048,0.869324
1470245365282952,-0.269714,0.0561523,-0.415771,0.86676
1470245365304473,-0.272095,0.0536499,-0.419617,0.864319
1470245365320486,-0.273621,0.052002,-0.423645,0.861938
1470245365343007,-0.274048,0.0512695,-0.427307,0.860046
1470245365364025,-0.273804,0.0507813,-0.430786,0.858398
1470245365380542,-0.2724,0.0501709,-0.434021,0.857239
1470245365403060,-0.27124,0.0498047,-0.438843,0.855225
1470245365432086,-0.271118,0.0496826,-0.445923,0.851563
1470245365440594,-0.270996,0.0504761,-0.454041,0.84729
1470245365463114,-0.267822,0.0512085,-0.463501,0.843079
1470245365484133,-0.261169,0.0523682,-0.476013,0.838135
1470245365500648,-0.253357,0.0552368,-0.491638,0.831299
1470245365523169,-0.245605,0.0600586,-0.508911,0.822815
1470245365544218,-0.238098,0.0650635,-0.527771,0.812744
1470245365560201,-0.229309,0.0690918,-0.548279,0.80127
1470245365583223,-0.221252,0.0726318,-0.569519,0.78833
1470245365604243,-0.214661,0.0758057,-0.589905,0.774719
1470245365620757,-0.208252,0.0782471,-0.608582,0.761658
1470245365643278,-0.200623,0.0786133,-0.624207,0.750916
1470245365664296,-0.194763,0.0777588,-0.636963,0.741821
1470245365680309,-0.194214,0.076416,-0.647705,0.732727
1470245365711337,-0.196777,0.0757446,-0.65564,0.725037
1470245365724355,-0.194092,0.0720825,-0.661438,0.720825
1470245365739864,-0.189697,0.0675659,-0.666138,0.71814
1470245365767388,-0.187317,0.0634155,-0.669739,0.715759
1470245365784403,-0.187988,0.0601807,-0.672058,0.713684
1470245365799920,-0.187988,0.057312,-0.674133,0.712036
1470245365822937,-0.185791,0.0552368,-0.676147,0.710815
1470245365844457,-0.182739,0.0557251,-0.677124,0.710632
1470245365859971,-0.181396,0.0577393,-0.676575,0.711365
1470245365882994,-0.183105,0.0611572,-0.675842,0.711304
1470245365905512,-0.184448,0.0645142,-0.675171,0.711304
1470245365920025,-0.182312,0.0652466,-0.67511,0.711853
1470245365943046,-0.177734,0.0648804,-0.675598,0.712585
1470245365965567,-0.175415,0.0657959,-0.675903,0.712769
1470245365981082,-0.176086,0.0684204,-0.675354,0.712891
1470245366003099,-0.176514,0.0707397,-0.674744,0.713135
1470245366025620,-0.1745,0.0718384,-0.674622,0.713623
1470245366040132,-0.173218,0.072876,-0.674805,0.713684
1470245366070660,-0.173523,0.0736084,-0.674622,0.713684
1470245366085673,-0.174255,0.0739136,-0.674438,0.713623
1470245366100186,-0.174805,0.0731812,-0.674133,0.713867
1470245366123207,-0.174683,0.0715942,-0.67395,0.714294
1470245366145731,-0.174438,0.0699463,-0.673828,0.7146
1470245366160241,-0.174255,0.0683594,-0.673645,0.714966
1470245366183265,-0.173584,0.0673828,-0.67334,0.715515
1470245366205782,-0.172058,0.0662842,-0.673218,0.716064
1470245366220295,-0.170288,0.0653076,-0.673401,0.716431
1470245366243316,-0.16864,0.0646973,-0.673584,0.716675
1470245366265836,-0.167053,0.0643311,-0.673889,0.716858
1470245366280350,-0.165466,0.0641479,-0.674072,0.717041
1470245366303369,-0.163635,0.0639648,-0.674194,0.717346
1470245366325889,-0.161743,0.0638428,-0.674316,0.717651
1470245366340402,-0.159546,0.0637817,-0.674561,0.717957
1470245366363424,-0.158264,0.0639038,-0.674683,0.71814
1470245366385943,-0.157532,0.0639648,-0.674683,0.718262
1470245366406965,-0.156555,0.0635986,-0.674744,0.718445
1470245366422976,-0.155334,0.0632935,-0.674805,0.718689
1470245366445496,-0.154297,0.0630493,-0.674866,0.718872
1470245366466515,-0.153442,0.0630493,-0.674927,0.718994
1470245366483030,-0.152649,0.0631104,-0.675049,0.719055
1470245366505550,-0.151978,0.0632324,-0.675293,0.718994
1470245366526595,-0.15155,0.0634155,-0.675476,0.718872
1470245366543084,-0.151001,0.0634766,-0.67572,0.71875
1470245366565605,-0.150391,0.0635986,-0.676025,0.718567
1470245366586623,-0.149902,0.0637817,-0.67627,0.718445
1470245366603137,-0.149353,0.0639038,-0.676514,0.718323
1470245366625659,-0.148865,0.0639648,-0.676575,0.718323
1470245366646677,-0.148804,0.0639648,-0.676575,0.718323
1470245366663194,-0.148804,0.0639648,-0.676575,0.718323
1470245366685712,-0.148743,0.0639038,-0.676575,0.718323
1470245366706756,-0.148438,0.0638428,-0.676758,0.718262
1470245366723246,-0.148499,0.0638428,-0.676941,0.718079
1470245366745768,-0.148865,0.0640259,-0.677002,0.717957
1470245366766785,-0.148865,0.0640259,-0.677002,0.717957
1470245366782799,-0.148804,0.0640259,-0.677002,0.717957
1470245366805820,-0.14856,0.0640869,-0.677185,0.717834
1470245366828341,-0.148315,0.0641479,-0.677429,0.717651
1470245366843354,-0.14801,0.064209,-0.677429,0.717712
1470245366865875,-0.147461,0.0639038,-0.67749,0.717773
1470245366888394,-0.147095,0.0639648,-0.677551,0.717773
1470245366903407,-0.147034,0.0639038,-0.677551,0.717773
1470245366925927,-0.146729,0.0640259,-0.67749,0.717896
1470245366947948,-0.146667,0.0640869,-0.67749,0.717896
1470245366963462,-0.146179,0.0640259,-0.677673,0.717834
1470245366985481,-0.14563,0.0640259,-0.677734,0.717896
1470245367008504,-0.145203,0.0639038,-0.677856,0.717896
1470245367022515,-0.144836,0.0637817,-0.677917,0.717896
1470245367045535,-0.144775,0.0637207,-0.677917,0.717896
1470245367068055,-0.144775,0.0637207,-0.677917,0.717896
1470245367082568,-0.144775,0.0637817,-0.677917,0.717896
1470245367105589,-0.144775,0.0637817,-0.677917,0.717896
1470245367128109,-0.144714,0.0637817,-0.677917,0.717896
1470245367142622,-0.144836,0.0638428,-0.67804,0.717773
1470245367165643,-0.145264,0.0640259,-0.678162,0.71759
1470245367188163,-0.145691,0.064209,-0.678223,0.717407
1470245367202677,-0.145935,0.0643311,-0.678284,0.717285
1470245367225197,-0.145935,0.0643311,-0.678284,0.717285
1470245367248217,-0.145874,0.0643311,-0.678284,0.717285
1470245367262731,-0.145874,0.06427,-0.678284,0.717285
1470245367285752,-0.146057,0.0644531,-0.678406,0.717163
1470245367308271,-0.146301,0.0647583,-0.678467,0.717041
1470245367329291,-0.146423,0.0648804,-0.678528,0.716919
1470245367345804,-0.146606,0.0650635,-0.678589,0.716797
1470245367375848,-0.146851,0.0653687,-0.67865,0.716675
1470245367389403,-0.146973,0.0655518,-0.678711,0.716553
1470245367405859,-0.147156,0.0657959,-0.678772,0.716431
1470245367428378,-0.147278,0.0661011,-0.678833,0.71637
1470245367449399,-0.147278,0.0661011,-0.678833,0.71637
1470245367465912,-0.147339,0.0662842,-0.678894,0.716248
1470245367487932,-0.147461,0.0664063,-0.678894,0.716187
1470245367509452,-0.147461,0.0664063,-0.678894,0.716187
1470245367525470,-0.147461,0.0664063,-0.678955,0.716187
1470245367547986,-0.147583,0.0665894,-0.678955,0.716064
1470245367569540,-0.147644,0.0667725,-0.678955,0.716064
1470245367585522,-0.147644,0.0667725,-0.678955,0.716064
1470245367608041,-0.147583,0.0667725,-0.678955,0.716064
1470245367629559,-0.147766,0.0669556,-0.678955,0.716003
1470245367653082,-0.147766,0.0669556,-0.678955,0.716003
1470245367668095,-0.147766,0.0669556,-0.678955,0.716003
1470245367689126,-0.147705,0.0669556,-0.678955,0.716064
1470245367705627,-0.147705,0.0670166,-0.678833,0.716187
1470245367728151,-0.147644,0.0670166,-0.678833,0.716187
1470245367749169,-0.147644,0.0670166,-0.678833,0.716187
1470245367765683,-0.147644,0.0670166,-0.678833,0.716187
1470245367788216,-0.147766,0.0671387,-0.678833,0.716125
1470245367810722,-0.147766,0.0671387,-0.678833,0.716125
1470245367825736,-0.147766,0.0671387,-0.678833,0.716125
1470245367848256,-0.147766,0.0671387,-0.678833,0.716125
1470245367870776,-0.147705,0.0671387,-0.678833,0.716125
1470245367885290,-0.147705,0.0671387,-0.678833,0.716125
1470245367908310,-0.147705,0.0671387,-0.678833,0.716125
1470245367930832,-0.147461,0.0671997,-0.678955,0.716064
1470245367944843,-0.147522,0.0675049,-0.678955,0.716064
1470245367968378,-0.147766,0.0680542,-0.678833,0.716003
1470245367990883,-0.147827,0.0684814,-0.678833,0.716003
1470245368004897,-0.147827,0.0685425,-0.678772,0.716003
1470245368028418,-0.147522,0.0684814,-0.678772,0.716064
1470245368050439,-0.147339,0.0684814,-0.678833,0.716064
1470245368064950,-0.147339,0.0685425,-0.678833,0.716064
1470245368087972,-0.1474,0.0685425,-0.678833,0.716064
1470245368110993,-0.147278,0.0684204,-0.678833,0.716125
1470245368125006,-0.147034,0.0682373,-0.678833,0.716187
1470245368148025,-0.14679,0.0679932,-0.678833,0.716248
1470245368170545,-0.14679,0.0679932,-0.678833,0.716248
1470245368185058,-0.147034,0.0681152,-0.678894,0.716125
1470245368208079,-0.147034,0.0681152,-0.678894,0.716125
1470245368231100,-0.146912,0.0679932,-0.678894,0.716187
1470245368245113,-0.146606,0.0678711,-0.678833,0.716309
1470245368268133,-0.146423,0.067688,-0.678833,0.71637
1470245368290653,-0.146423,0.067688,-0.678833,0.71637
1470245368312201,-0.146362,0.067688,-0.678833,0.71637
1470245368328186,-0.146423,0.067688,-0.678833,0.71637
1470245368350707,-0.146423,0.067688,-0.678833,0.71637
1470245368371727,-0.146423,0.067688,-0.678833,0.71637
1470245368388241,-0.146423,0.067688,-0.678833,0.71637
1470245368410762,-0.146545,0.0678101,-0.678894,0.716248
1470245368431781,-0.146545,0.0678711,-0.679016,0.716125
1470245368454301,-0.146545,0.0678711,-0.679016,0.716187
1470245368470815,-0.146545,0.0678711,-0.679016,0.716187
1470245368491833,-0.146484,0.0678711,-0.679016,0.716187
1470245368508348,-0.146118,0.067749,-0.678894,0.71637
1470245368530869,-0.145752,0.067627,-0.678772,0.716553
1470245368551888,-0.145752,0.067627,-0.678772,0.716553
1470245368568402,-0.14502,0.067627,-0.67865,0.716858
1470245368590923,-0.145142,0.0681763,-0.678345,0.717041
1470245368611941,-0.145569,0.0688477,-0.678162,0.717102
1470245368627956,-0.145813,0.0690918,-0.678101,0.717041
1470245368650477,-0.145508,0.0689697,-0.678101,0.717102
1470245368672997,-0.144714,0.0690308,-0.677917,0.717407
1470245368688010,-0.144531,0.0693359,-0.677612,0.717712
1470245368711531,-0.144531,0.0696411,-0.677429,0.717896
1470245368733050,-0.144531,0.0696411,-0.677429,0.717896
1470245368748564,-0.144409,0.069458,-0.67749,0.717834
1470245368770585,-0.144409,0.069458,-0.67749,0.717834
1470245368793605,-0.144409,0.069458,-0.67749,0.717834
1470245368808118,-0.144592,0.069519,-0.677612,0.717712
1470245368831639,-0.144592,0.069519,-0.677612,0.717712
1470245368853159,-0.144592,0.0693359,-0.677734,0.717651
1470245368867671,-0.144653,0.0692139,-0.677856,0.717529
1470245368896697,-0.144653,0.0693359,-0.677979,0.717346
1470245368913212,-0.144836,0.069519,-0.678101,0.717224
1470245368927725,-0.144836,0.069519,-0.678101,0.717224
1470245368950746,-0.144836,0.069519,-0.678101,0.717224
1470245368973266,-0.144836,0.0695801,-0.678101,0.717224
1470245368987779,-0.144836,0.0695801,-0.678101,0.717224
1470245369010800,-0.144836,0.0695801,-0.678101,0.717224
1470245369040827,-0.144531,0.0693359,-0.678162,0.717224
1470245369047833,-0.144043,0.0691528,-0.678162,0.717346
1470245369070854,-0.143433,0.0690918,-0.677856,0.717773
1470245369093373,-0.143005,0.0693359,-0.677429,0.718262
1470245369107386,-0.143494,0.0697021,-0.677063,0.718445
1470245369130909,-0.144592,0.0703125,-0.677063,0.71814
1470245369152928,-0.146484,0.0712891,-0.677185,0.71759
1470245369168442,-0.148804,0.0720215,-0.677307,0.716919
1470245369190461,-0.15033,0.0722656,-0.677429,0.716492
1470245369214484,-0.151123,0.0722046,-0.677673,0.716064
1470245369242008,-0.15271,0.0724487,-0.677795,0.715576
1470245369250515,-0.156006,0.0733032,-0.677551,0.714966
1470245369273546,-0.160095,0.074646,-0.677124,0.714355
1470245369294554,-0.163086,0.0758057,-0.676758,0.713867
1470245369310570,-0.166382,0.0769043,-0.676514,0.713257
1470245369333089,-0.172668,0.0787964,-0.675659,0.712402
1470245369354636,-0.182129,0.0818481,-0.674011,0.711243
1470245369370622,-0.190857,0.0840454,-0.671204,0.711304
1470245369393144,-0.197632,0.0842285,-0.666931,0.71344
1470245369414663,-0.199341,0.081665,-0.659424,0.720276
1470245369430176,-0.199707,0.0784912,-0.64801,0.730835
1470245369453197,-0.205444,0.078064,-0.631165,0.743896
1470245369474773,-0.214844,0.0797729,-0.610596,0.758057
1470245369490230,-0.222961,0.0800171,-0.58844,0.773071
1470245369519275,-0.227844,0.0784912,-0.566711,0.787903
1470245369534300,-0.232971,0.0756836,-0.546448,0.800842
1470245369550284,-0.238953,0.0714722,-0.526306,0.812866
1470245369573305,-0.2453,0.0671997,-0.507996,0.822937
1470245369594379,-0.248535,0.0622559,-0.493713,0.830994
1470245369609872,-0.249329,0.057251,-0.483948,0.836853
1470245369633359,-0.251099,0.0554199,-0.476563,0.840698
1470245369638883,-0.250916,0.0561523,-0.473877,0.842224
1470245369661384,-0.251404,0.0562134,-0.471863,0.843201
1470245369678900,-0.252197,0.0551758,-0.471252,0.843384
1470245369698918,-0.252686,0.0529785,-0.470581,0.84375
1470245369721437,-0.252502,0.0501709,-0.470337,0.844055
1470245369737474,-0.251465,0.0471802,-0.470154,0.844666
1470245369758471,-0.250916,0.0452271,-0.469055,0.845581
1470245369780993,-0.250671,0.0437012,-0.467773,0.846436
1470245369796505,-0.249023,0.0415649,-0.466797,0.847534
1470245369819024,-0.247131,0.0392456,-0.466553,0.848328
1470245369841060,-0.245728,0.0376587,-0.466614,0.848816
1470245369857560,-0.244324,0.0369263,-0.466492,0.849304
1470245369879082,-0.242493,0.036438,-0.465942,0.850159
1470245369901100,-0.240845,0.0359497,-0.464355,0.851501
1470245369916112,-0.238342,0.0353394,-0.463013,0.852966
1470245369938635,-0.236877,0.0368042,-0.46106,0.85437
1470245369961155,-0.236145,0.0404053,-0.458923,0.855591
1470245369976168,-0.237854,0.0455322,-0.455811,0.856506
1470245369998687,-0.240112,0.0513916,-0.451721,0.857727
1470245370021206,-0.240051,0.0561523,-0.446106,0.860352
1470245370039222,-0.238892,0.0601196,-0.440247,0.863403
1470245370058740,-0.238159,0.0640869,-0.434021,0.866516
1470245370081261,-0.236023,0.0673218,-0.427734,0.869934
1470245370097776,-0.232727,0.0699463,-0.421448,0.873657
1470245370118794,-0.230286,0.0718994,-0.41571,0.876892
1470245370141315,-0.229858,0.0725708,-0.411011,0.87915
1470245370157330,-0.230286,0.0723267,-0.407471,0.880737
1470245370178851,-0.231445,0.0717163,-0.40448,0.881836
1470245370204371,-0.230713,0.0701294,-0.401978,0.883301
1470245370217383,-0.228577,0.0688477,-0.399414,0.885132
1470245370238401,-0.226074,0.0685425,-0.396606,0.887085
1470245370260923,-0.225464,0.0686646,-0.393677,0.888489
1470245370277437,-0.224915,0.0679321,-0.392151,0.889404
1470245370298456,-0.223083,0.0679321,-0.391296,0.890198
1470245370323978,-0.220276,0.067688,-0.389954,0.891541
1470245370337491,-0.218567,0.0674438,-0.387634,0.892944
1470245370358509,-0.218994,0.067749,-0.385864,0.893616
1470245370381530,-0.219971,0.0665894,-0.384766,0.893921
1470245370398046,-0.22113,0.0650635,-0.384277,0.893982
1470245370418564,-0.221741,0.0646362,-0.383606,0.894104
1470245370441084,-0.221863,0.0648804,-0.383423,0.894165
1470245370457598,-0.221985,0.0654297,-0.383789,0.893921
1470245370479188,-0.222351,0.0661011,-0.384277,0.893555
1470245370509725,-0.222046,0.0670166,-0.384644,0.893433
1470245370517657,-0.221619,0.0679321,-0.384888,0.893372
1470245370538688,-0.221375,0.0689087,-0.384949,0.893311
1470245370561191,-0.220703,0.0697021,-0.384766,0.893494
1470245370579208,-0.219788,0.0700684,-0.384644,0.893738
1470245370598753,-0.218628,0.0705566,-0.38446,0.894104
1470245370621246,-0.217102,0.071167,-0.384155,0.894531
1470245370639262,-0.215332,0.0718994,-0.384094,0.894958
1470245370658779,-0.213989,0.0728149,-0.384155,0.895142
1470245370681299,-0.213623,0.072998,-0.384766,0.894958
1470245370698816,-0.214172,0.0723267,-0.385071,0.894775
1470245370718841,-0.217407,0.0730591,-0.385925,0.893555
1470245370741361,-0.223022,0.074646,-0.386475,0.891785
1470245370758869,-0.226807,0.0750732,-0.38739,0.890442
1470245370786393,-0.229126,0.0741577,-0.389221,0.889099
1470245370801407,-0.231018,0.0730591,-0.391296,0.887756
1470245370818923,-0.235779,0.0727539,-0.393494,0.885559
1470245370838941,-0.239746,0.0722046,-0.396301,0.883301
1470245370860880,-0.240967,0.0715942,-0.399902,0.881409
1470245370878897,-0.240051,0.0706787,-0.404724,0.879517
1470245370898914,-0.238464,0.0697021,-0.411194,0.877014
1470245370921434,-0.239563,0.069458,-0.419189,0.872986
1470245370938951,-0.241394,0.0690918,-0.428284,0.868042
1470245370959064,-0.241516,0.0688477,-0.439087,0.86261
1470245370981490,-0.238831,0.0678101,-0.451355,0.857117
1470245370999506,-0.235229,0.0672607,-0.465149,0.850769
1470245371019022,-0.231201,0.0680542,-0.480225,0.843384
1470245371041058,-0.226563,0.0682373,-0.496704,0.835022
1470245371059058,-0.221863,0.0684204,-0.514771,0.825256
1470245371079082,-0.217285,0.0682983,-0.53363,0.814453
1470245371101631,-0.21283,0.0682983,-0.55249,0.802979
1470245371119112,-0.207947,0.067627,-0.571106,0.791199
1470245371146164,-0.204041,0.0670166,-0.589111,0.778992
1470245371161168,-0.200684,0.0663452,-0.605896,0.766968
1470245371183704,-0.197754,0.0646973,-0.621216,0.755554
1470245371198750,-0.195313,0.0626221,-0.634949,0.744873
1470245371221207,-0.193176,0.0616455,-0.64679,0.735229
1470245371239223,-0.190002,0.0596924,-0.656799,0.727295
1470245371260239,-0.188965,0.0579224,-0.664856,0.720398
1470245371281257,-0.190552,0.0569458,-0.67157,0.713745
1470245371299274,-0.19165,0.0557251,-0.67688,0.708496
1470245371319900,-0.190247,0.0528564,-0.680603,0.705566
1470245371341325,-0.188049,0.0491333,-0.682983,0.704102
1470245371358827,-0.188171,0.0455933,-0.684265,0.703064
1470245371381349,-0.18988,0.0422974,-0.685242,0.701904
1470245371402367,-0.190796,0.0413818,-0.685364,0.701538
1470245371425387,-0.187744,0.041687,-0.684326,0.703308
1470245371439900,-0.184448,0.0412598,-0.683044,0.705505
1470245371461419,-0.184875,0.0426636,-0.682495,0.705811
1470245371478935,-0.18512,0.0443726,-0.682373,0.70575
1470245371499976,-0.1828,0.0435791,-0.682617,0.706177
1470245371520992,-0.179199,0.0427856,-0.683472,0.70636
1470245371538989,-0.178162,0.0446777,-0.683472,0.706482
1470245371560010,-0.179688,0.0475464,-0.683289,0.706055
1470245371581041,-0.180542,0.0492554,-0.683228,0.705811
1470245371599043,-0.178528,0.0485229,-0.683472,0.706116
1470245371621563,-0.175354,0.0464478,-0.68396,0.706604
1470245371641104,-0.174255,0.0447998,-0.684204,0.706726
1470245371659098,-0.175232,0.0441895,-0.684204,0.706543
1470245371681617,-0.176147,0.0432129,-0.684326,0.706238
1470245371701136,-0.175415,0.0410767,-0.684753,0.706177
1470245371719152,-0.173889,0.0383301,-0.685242,0.706238
1470245371741672,-0.172607,0.0361328,-0.685669,0.706238
1470245371761189,-0.171387,0.034729,-0.686096,0.706177
1470245371779205,-0.169983,0.0339355,-0.686829,0.705811
1470245371801725,-0.168701,0.0333862,-0.687744,0.705261
1470245371821242,-0.167236,0.0323486,-0.688599,0.704834
1470245371839259,-0.165466,0.0305176,-0.68927,0.704712
1470245371861780,-0.163208,0.0282593,-0.689941,0.704651
1470245371881297,-0.161377,0.0263062,-0.690735,0.704407
1470245371899313,-0.160339,0.0248413,-0.691406,0.703979
1470245371921333,-0.159729,0.0236816,-0.691956,0.703674
1470245371941350,-0.158936,0.022522,-0.692383,0.70343
1470245371958866,-0.158203,0.0213013,-0.692993,0.703064
1470245371981388,-0.15686,0.0199585,-0.693604,0.70282
1470245372002405,-0.155334,0.0183105,-0.694397,0.702393
1470245372018921,-0.154114,0.0170288,-0.695435,0.70166
1470245372041440,-0.153015,0.0159912,-0.69635,0.700989
1470245372061458,-0.151794,0.0151978,-0.697266,0.700439
1470245372078974,-0.150757,0.0143433,-0.698181,0.699707
1470245372101494,-0.14978,0.0133667,-0.699158,0.698975
1470245372121013,-0.148499,0.0125122,-0.700134,0.698303
1470245372139028,-0.147461,0.0117798,-0.701172,0.69751
1470245372160548,-0.146912,0.0110474,-0.702209,0.696533
1470245372182066,-0.146729,0.010437,-0.703247,0.695557
1470245372198081,-0.146423,0.0100098,-0.704224,0.694641
1470245372220601,-0.145935,0.00939941,-0.7052,0.693787
1470245372242121,-0.145447,0.00872803,-0.706177,0.692932
1470245372258135,-0.145142,0.00817871,-0.707153,0.691956
1470245372281157,-0.144897,0.00769043,-0.708069,0.691101
1470245372301674,-0.144592,0.00714111,-0.708923,0.690308
1470245372318189,-0.144287,0.0065918,-0.709778,0.689453
1470245372340710,-0.14386,0.00616455,-0.710693,0.688599
1470245372362228,-0.143494,0.00561523,-0.711609,0.687744
1470245372378243,-0.143005,0.00476074,-0.712463,0.686951
1470245372400763,-0.142578,0.00402832,-0.713257,0.686218
1470245372421782,-0.142334,0.003479,-0.713928,0.685608
1470245372438297,-0.14209,0.00299072,-0.714661,0.684875
1470245372460817,-0.141907,0.00244141,-0.715454,0.684143
1470245372481850,-0.141663,0.00177002,-0.716187,0.683411
1470245372498355,-0.141479,0.0012207,-0.716797,0.6828
1470245372520871,-0.141541,0.000854492,-0.717407,0.68219
1470245372543392,-0.141541,0.000488281,-0.717957,0.68158
1470245372558405,-0.141296,-6.10352e-05,-0.718506,0.68103
1470245372580926,-0.14093,-0.000732422,-0.719055,0.680481
1470245372603445,-0.140808,-0.00115967,-0.719666,0.679932
1470245372618459,-0.140808,-0.00140381,-0.720154,0.679382
1470245372640980,-0.140869,-0.00152588,-0.720581,0.678894
1470245372663499,-0.140686,-0.00189209,-0.721008,0.678528
1470245372677539,-0.14032,-0.00250244,-0.721436,0.678101
1470245372700534,-0.140137,-0.00286865,-0.721802,0.677795
1470245372723054,-0.140198,-0.00299072,-0.722107,0.677429
1470245372737565,-0.140381,-0.00317383,-0.722412,0.677063
1470245372767092,-0.140442,-0.00354004,-0.722778,0.676636
1470245372783106,-0.14032,-0.00390625,-0.723083,0.676331
1470245372797621,-0.14032,-0.00421143,-0.723389,0.676025
1470245372820640,-0.140442,-0.00439453,-0.723694,0.675659
1470245372843160,-0.140503,-0.00469971,-0.723999,0.675293
1470245372857673,-0.14032,-0.00506592,-0.724243,0.675049
1470245372880694,-0.140137,-0.00549316,-0.724548,0.674805
1470245372903214,-0.139954,-0.00592041,-0.724792,0.674561
1470245372917727,-0.139954,-0.00622559,-0.725037,0.674316
1470245372940747,-0.140015,-0.00646973,-0.725342,0.674011
1470245372963274,-0.139893,-0.0067749,-0.725586,0.673706
1470245372977782,-0.139832,-0.00701904,-0.72583,0.673462
1470245373008309,-0.139832,-0.00726318,-0.726135,0.673157
1470245373023322,-0.139832,-0.00744629,-0.72644,0.672791
1470245373044384,-0.139587,-0.00769043,-0.726746,0.672546
1470245373060856,-0.139465,-0.00787354,-0.72699,0.672302
1470245373083376,-0.139282,-0.00799561,-0.727234,0.672058
1470245373104450,-0.139282,-0.00805664,-0.727539,0.671753
1470245373120910,-0.139343,-0.00805664,-0.727783,0.671448
1470245373143430,-0.139343,-0.00805664,-0.728027,0.671204
1470245373171983,-0.139282,-0.00811768,-0.728271,0.670959
1470245373180964,-0.139099,-0.00830078,-0.728455,0.670776
1470245373203484,-0.139099,-0.00830078,-0.728638,0.670593
1470245373224503,-0.139221,-0.00823975,-0.72876,0.67041
1470245373242518,-0.139343,-0.00830078,-0.728943,0.670227
1470245373263037,-0.139099,-0.00848389,-0.729126,0.670044
1470245373284557,-0.138855,-0.00872803,-0.729248,0.669983
1470245373301071,-0.138855,-0.00872803,-0.729248,0.669983
1470245373323095,-0.138916,-0.00872803,-0.72937,0.669861
1470245373344610,-0.138916,-0.00872803,-0.72937,0.669861
1470245373361125,-0.138916,-0.00872803,-0.72937,0.669861
1470245373383145,-0.138977,-0.00878906,-0.729492,0.669678
1470245373404733,-0.139038,-0.00891113,-0.729614,0.669495
1470245373420679,-0.139038,-0.00891113,-0.729736,0.669373
1470245373450706,-0.139038,-0.00891113,-0.729736,0.669373
1470245373464221,-0.13916,-0.00897217,-0.729858,0.66925
1470245373480233,-0.139221,-0.00891113,-0.72998,0.669067
1470245373503253,-0.139404,-0.00866699,-0.730103,0.668945
1470245373525775,-0.139404,-0.00866699,-0.730103,0.668945
1470245373546792,-0.139404,-0.00866699,-0.730103,0.668945
1470245373563807,-0.139343,-0.00866699,-0.730103,0.668945
1470245373585827,-0.139343,-0.00866699,-0.730103,0.668945
1470245373600840,-0.139343,-0.00866699,-0.730103,0.668945
1470245373623361,-0.139343,-0.00866699,-0.730103,0.668945
1470245373645881,-0.139343,-0.00866699,-0.730103,0.668945
1470245373660394,-0.139343,-0.00866699,-0.730103,0.668945
1470245373683415,-0.139282,-0.00860596,-0.730103,0.668945
1470245373705935,-0.139526,-0.00854492,-0.730164,0.668823
1470245373719948,-0.139526,-0.00854492,-0.730164,0.668823
1470245373743469,-0.139526,-0.00848389,-0.730164,0.668823
1470245373765988,-0.139465,-0.00848389,-0.730164,0.668823
1470245373787025,-0.139465,-0.00854492,-0.730286,0.668701
1470245373803523,-0.139465,-0.00854492,-0.730286,0.668701
1470245373826045,-0.139465,-0.00854492,-0.730286,0.668701
1470245373840055,-0.139465,-0.00854492,-0.730286,0.668701
1470245373863577,-0.139465,-0.00854492,-0.730286,0.668701
1470245373885597,-0.139465,-0.00854492,-0.730286,0.668701
1470245373900110,-0.139404,-0.00854492,-0.730286,0.668701
1470245373924131,-0.139404,-0.00854492,-0.730286,0.668701
1470245373945650,-0.139404,-0.00854492,-0.730286,0.668701
1470245373967169,-0.13916,-0.00854492,-0.730286,0.668762
1470245373983184,-0.138672,-0.00872803,-0.730225,0.668945
1470245374013213,-0.138367,-0.0088501,-0.730225,0.669006
1470245374027223,-0.138367,-0.00891113,-0.730225,0.669006
1470245374043238,-0.138367,-0.00891113,-0.730225,0.669006
1470245374065758,-0.138367,-0.0088501,-0.730225,0.669006
1470245374086777,-0.138306,-0.00891113,-0.730225,0.669006
1470245374103293,-0.138245,-0.0088501,-0.730225,0.669006
1470245374125811,-0.138489,-0.00878906,-0.730225,0.669006
1470245374146848,-0.138489,-0.00878906,-0.730225,0.669006
1470245374163347,-0.138489,-0.00878906,-0.730225,0.669006
1470245374185878,-0.138489,-0.00878906,-0.730225,0.669006
1470245374206928,-0.138611,-0.00866699,-0.730225,0.668945
1470245374223400,-0.138733,-0.00848389,-0.730286,0.668884
1470245374245920,-0.138855,-0.00830078,-0.730286,0.668823
1470245374266994,-0.138855,-0.00830078,-0.730286,0.668823
1470245374283454,-0.138855,-0.00830078,-0.730286,0.668823
1470245374305973,-0.138794,-0.00830078,-0.730286,0.668823
1470245374326992,-0.138794,-0.00830078,-0.730286,0.668823
1470245374343507,-0.138794,-0.00830078,-0.730286,0.668823
1470245374366028,-0.138733,-0.00830078,-0.730286,0.668823
1470245374388548,-0.138916,-0.00823975,-0.730347,0.668762
1470245374403063,-0.138977,-0.00823975,-0.730347,0.668762
1470245374425581,-0.138977,-0.00823975,-0.730347,0.668762
1470245374448101,-0.138916,-0.00823975,-0.730347,0.668762
1470245374463616,-0.13916,-0.00805664,-0.730347,0.668701
1470245374485639,-0.139343,-0.00793457,-0.730408,0.66864
1470245374508155,-0.139343,-0.00793457,-0.730408,0.66864
1470245374523185,-0.139343,-0.00799561,-0.73053,0.668457
1470245374545689,-0.139343,-0.00799561,-0.73053,0.668457
1470245374568209,-0.139648,-0.00787354,-0.730591,0.668335
1470245374582722,-0.139954,-0.00769043,-0.730591,0.668274
1470245374605743,-0.139954,-0.00769043,-0.730591,0.668274
1470245374628265,-0.139709,-0.00793457,-0.730774,0.668152
1470245374642776,-0.139587,-0.00817871,-0.730774,0.668152
1470245374665800,-0.139526,-0.00817871,-0.730774,0.668152
1470245374688317,-0.139526,-0.00817871,-0.730774,0.668152
1470245374702830,-0.139526,-0.00817871,-0.730774,0.668152
1470245374725851,-0.139526,-0.00817871,-0.730774,0.668152
1470245374748371,-0.139526,-0.00817871,-0.730774,0.668152
1470245374762884,-0.139526,-0.00817871,-0.730774,0.668152
1470245374785905,-0.139526,-0.00817871,-0.730774,0.668152
1470245374808425,-0.139526,-0.00817871,-0.730774,0.668152
1470245374829446,-0.139465,-0.00836182,-0.730774,0.668152
1470245374845958,-0.139465,-0.00836182,-0.730774,0.668152
1470245374868478,-0.139465,-0.00836182,-0.730774,0.668152
1470245374882993,-0.139404,-0.00836182,-0.730774,0.668152
1470245374907013,-0.139465,-0.00836182,-0.730774,0.668152
1470245374928032,-0.139465,-0.00836182,-0.730774,0.668152
1470245374949564,-0.139465,-0.00836182,-0.730774,0.668152
1470245374966067,-0.139648,-0.00823975,-0.730835,0.668091
1470245374988586,-0.139648,-0.00823975,-0.730835,0.668091
1470245375009605,-0.139648,-0.00823975,-0.730835,0.668091
1470245375026120,-0.139587,-0.00823975,-0.730835,0.668091
1470245375048140,-0.139587,-0.00823975,-0.730835,0.668091
1470245375069660,-0.139709,-0.00817871,-0.730896,0.66803
1470245375085676,-0.139709,-0.00811768,-0.730896,0.66803
1470245375108196,-0.139709,-0.00817871,-0.730896,0.66803
1470245375129255,-0.139709,-0.00817871,-0.730896,0.66803
1470245375145730,-0.139709,-0.00817871,-0.730896,0.66803
1470245375168250,-0.139648,-0.00817871,-0.730896,0.66803
1470245375189269,-0.139648,-0.00817871,-0.730896,0.66803
1470245375205782,-0.139709,-0.00817871,-0.730896,0.66803
1470245375228303,-0.139709,-0.00817871,-0.730896,0.66803
1470245375249323,-0.139709,-0.00817871,-0.730896,0.66803
1470245375265836,-0.139465,-0.00817871,-0.730896,0.66803
1470245375288355,-0.139465,-0.00823975,-0.730896,0.66803
1470245375309391,-0.139465,-0.00823975,-0.730896,0.66803
1470245375325889,-0.139465,-0.00823975,-0.730896,0.66803
1470245375348445,-0.139221,-0.00823975,-0.730896,0.668152
1470245375370935,-0.138916,-0.00842285,-0.730835,0.668213
1470245375385944,-0.138916,-0.00842285,-0.730835,0.668213
1470245375408463,-0.138916,-0.00842285,-0.730835,0.668213
1470245375431484,-0.138916,-0.00842285,-0.730835,0.668213
1470245375445998,-0.138672,-0.00854492,-0.730896,0.668213
1470245375468517,-0.138367,-0.00866699,-0.730896,0.668274
1470245375491038,-0.138367,-0.00866699,-0.730896,0.668274
1470245375506052,-0.138367,-0.00866699,-0.730896,0.668274
1470245375528572,-0.138367,-0.00866699,-0.730896,0.668274
1470245375551091,-0.138062,-0.00866699,-0.730957,0.668274
1470245375565105,-0.137756,-0.00872803,-0.731018,0.668274
1470245375588125,-0.137451,-0.00866699,-0.731018,0.668335
1470245375611146,-0.137451,-0.00866699,-0.731018,0.668335
1470245375625159,-0.13739,-0.00872803,-0.731018,0.668335
1470245375648179,-0.13739,-0.00866699,-0.731018,0.668335
1470245375670700,-0.137024,-0.00872803,-0.731018,0.668396
1470245375685213,-0.136719,-0.00872803,-0.731018,0.668457
1470245375708233,-0.136292,-0.00872803,-0.731018,0.668518
1470245375730755,-0.136292,-0.00872803,-0.731018,0.668518
1470245375745266,-0.13623,-0.00848389,-0.731018,0.668579
1470245375768287,-0.136047,-0.00842285,-0.731079,0.668518
1470245375790807,-0.136047,-0.00836182,-0.731079,0.668579
1470245375805320,-0.136047,-0.00836182,-0.731079,0.668579
1470245375828340,-0.135986,-0.00836182,-0.731079,0.668579
1470245375850862,-0.135986,-0.00836182,-0.731079,0.668579
1470245375871880,-0.135742,-0.00823975,-0.73114,0.668518
1470245375888395,-0.135315,-0.00830078,-0.731201,0.668579
1470245375910915,-0.134888,-0.00842285,-0.731201,0.66864
1470245375931936,-0.134521,-0.00848389,-0.731323,0.668579
1470245375948465,-0.134033,-0.00860596,-0.731384,0.66864
1470245375977072,-0.133484,-0.0088501,-0.731445,0.668701
1470245375992001,-0.132996,-0.0090332,-0.731384,0.668823
1470245376008502,-0.132751,-0.00891113,-0.731445,0.668823
1470245376031024,-0.132813,-0.00811768,-0.731445,0.668762
1470245376059549,-0.133057,-0.00756836,-0.731445,0.668762
1470245376068559,-0.132813,-0.00769043,-0.731323,0.668945
1470245376091077,-0.132141,-0.00805664,-0.731323,0.669067
1470245376112096,-0.13208,-0.00805664,-0.731323,0.669067
1470245376128610,-0.13208,-0.00805664,-0.731323,0.669067
1470245376151131,-0.13208,-0.00805664,-0.731323,0.669067
1470245376172150,-0.13208,-0.00805664,-0.731323,0.669067
1470245376188163,-0.131775,-0.00799561,-0.731384,0.669067
1470245376211195,-0.13147,-0.0078125,-0.731506,0.669006
1470245376232204,-0.131653,-0.00732422,-0.731628,0.668884
1470245376248218,-0.131775,-0.00701904,-0.731567,0.668884
1470245376270738,-0.131653,-0.00695801,-0.731506,0.669006
1470245376293258,-0.131287,-0.00714111,-0.731445,0.669128
1470245376308272,-0.130798,-0.00726318,-0.731445,0.669189
1470245376331293,-0.130371,-0.00720215,-0.731567,0.669128
1470245376353312,-0.130432,-0.00671387,-0.73175,0.668945
1470245376367826,-0.13092,-0.00616455,-0.731812,0.668823
1470245376390846,-0.13092,-0.00610352,-0.731812,0.668823
1470245376413869,-0.130432,-0.00628662,-0.731812,0.668884
1470245376428380,-0.129822,-0.00646973,-0.731934,0.668884
1470245376450900,-0.129456,-0.00653076,-0.731995,0.668884
1470245376473420,-0.12915,-0.00665283,-0.731995,0.668945
1470245376487933,-0.128723,-0.00689697,-0.732056,0.669006
1470245376510954,-0.128479,-0.00720215,-0.732117,0.668945
1470245376533473,-0.128479,-0.00726318,-0.732117,0.668945
1470245376547987,-0.128479,-0.00714111,-0.732239,0.668762
1470245376571008,-0.128662,-0.00689697,-0.732422,0.668579
1470245376593527,-0.128906,-0.00665283,-0.732544,0.668396
1470245376607540,-0.128906,-0.0065918,-0.732544,0.668396
1470245376631062,-0.128845,-0.0065918,-0.732544,0.668396
1470245376653581,-0.128845,-0.0065918,-0.732544,0.668396
1470245376667594,-0.129028,-0.00653076,-0.732483,0.668457
1470245376698121,-0.129028,-0.00653076,-0.732483,0.668457
1470245376713636,-0.129272,-0.00628662,-0.732544,0.668335
1470245376727648,-0.129639,-0.00610352,-0.732605,0.668152
1470245376750669,-0.129639,-0.00610352,-0.732605,0.668152
1470245376779696,-0.129517,-0.00634766,-0.732666,0.668152
1470245376794709,-0.129272,-0.00653076,-0.732727,0.668152
1470245376810723,-0.129211,-0.00653076,-0.732727,0.668152
1470245376833242,-0.129211,-0.00653076,-0.732727,0.668152
1470245376861769,-0.12915,-0.00653076,-0.732727,0.668152
1470245376870777,-0.129211,-0.00622559,-0.732727,0.668152
1470245376893297,-0.129272,-0.00585938,-0.732788,0.66803
1470245376914316,-0.129272,-0.00585938,-0.732788,0.66803
1470245376930831,-0.12915,-0.00585938,-0.732788,0.668091
1470245376953351,-0.128906,-0.00592041,-0.732788,0.668091
1470245376974371,-0.128906,-0.00598145,-0.732788,0.668091
1470245376990885,-0.129028,-0.00585938,-0.732788,0.668091
1470245377013405,-0.128967,-0.00585938,-0.732788,0.668091
1470245377034424,-0.128967,-0.00579834,-0.732788,0.668091
1470245377050940,-0.128967,-0.00579834,-0.732788,0.668091
1470245377073461,-0.128967,-0.00579834,-0.732788,0.668091
1470245377094540,-0.12854,-0.00592041,-0.732788,0.668152
1470245377110994,-0.12854,-0.00592041,-0.732788,0.668152
1470245377133512,-0.12854,-0.00592041,-0.732788,0.668152
1470245377154532,-0.12854,-0.00592041,-0.732788,0.668152
1470245377171046,-0.128479,-0.00592041,-0.732788,0.668152
1470245377193567,-0.128296,-0.00598145,-0.732727,0.668335
1470245377214585,-0.128174,-0.0057373,-0.732483,0.668579
1470245377231101,-0.128174,-0.0055542,-0.7323,0.668823
1470245377253620,-0.128357,-0.00543213,-0.732178,0.668945
1470245377276142,-0.12854,-0.00537109,-0.732178,0.668884
1470245377291155,-0.12854,-0.00531006,-0.732178,0.668884
1470245377313674,-0.12854,-0.00531006,-0.732178,0.668884
1470245377335694,-0.12854,-0.00531006,-0.732178,0.668884
1470245377351209,-0.12854,-0.00531006,-0.732178,0.668884
1470245377374229,-0.128601,-0.00531006,-0.732178,0.668884
1470245377395749,-0.128601,-0.00531006,-0.732178,0.668884
1470245377401254,-0.128601,-0.00531006,-0.732178,0.668884
