timestamp,roll,pitch,yaw
1470331846558679,-0.201438,-0.129794,0.224869
1470331846581699,-0.201421,-0.129673,0.224854
1470331846605220,-0.201607,-0.129725,0.225499
1470331846620735,-0.202483,-0.13,0.226832
1470331846641252,-0.202988,-0.130458,0.227905
1470331846665274,-0.203181,-0.130642,0.228442
1470331846719323,-0.203733,-0.130922,0.228761
1470331846719823,-0.204418,-0.131177,0.229213
1470331846720824,-0.204396,-0.131609,0.229875
1470331846732835,-0.204226,-0.131965,0.230276
1470331846757858,-0.204108,-0.132256,0.229925
1470331846776374,-0.204594,-0.132215,0.229837
1470331846794390,-0.204718,-0.132202,0.229847
1470331846828921,-0.204718,-0.132202,0.229847
1470331846839932,-0.204599,-0.132493,0.229495
1470331846852942,-0.204583,-0.132371,0.22948
1470331846873961,-0.204531,-0.132317,0.228856
1470331846896482,-0.204196,-0.132024,0.228293
1470331846913998,-0.20375,-0.131755,0.227735
1470331846934018,-0.203272,-0.131097,0.227379
1470331846963541,-0.203031,-0.130569,0.226684
1470331846974052,-0.202816,-0.130151,0.226129
1470331846993569,-0.20276,-0.129819,0.225847
1470331847016089,-0.201959,-0.129543,0.225623
1470331847034106,-0.200672,-0.129073,0.225606
1470331847054124,-0.199547,-0.128944,0.225632
1470331847076143,-0.198871,-0.128656,0.225417
1470331847094160,-0.198871,-0.128656,0.225417
1470331847113677,-0.198626,-0.128538,0.225633
1470331847136197,-0.198119,-0.128345,0.225704
1470331847154213,-0.197438,-0.127944,0.225488
1470331847173731,-0.197429,-0.127955,0.225363
1470331847199254,-0.19829,-0.127988,0.225304
1470331847214268,-0.198414,-0.127975,0.225313
1470331847235286,-0.197676,-0.127929,0.225381
1470331847256306,-0.19766,-0.127807,0.225366
1470331847274321,-0.198005,-0.127658,0.225254
1470331847295341,-0.198883,-0.127812,0.225209
1470331847316359,-0.199506,-0.128025,0.224911
1470331847334375,-0.199685,-0.127801,0.224402
1470331847355395,-0.199373,-0.127505,0.223979
1470331847376414,-0.199373,-0.127505,0.223979
1470331847394429,-0.199373,-0.127505,0.223979
1470331847415448,-0.199357,-0.127383,0.223964
1470331847443973,-0.199728,-0.127345,0.223991
1470331847454483,-0.200391,-0.127769,0.223959
1470331847475001,-0.200963,-0.128449,0.223948
1470331847496022,-0.201012,-0.128813,0.223994
1470331847514036,-0.200419,-0.128988,0.224088
1470331847535055,-0.199928,-0.128916,0.224174
1470331847556074,-0.199839,-0.128175,0.224208
1470331847574090,-0.199017,-0.126248,0.224556
1470331847595109,-0.196964,-0.124728,0.225974
1470331847616143,-0.195464,-0.123913,0.227133
1470331847634146,-0.194852,-0.123568,0.227679
1470331847656677,-0.194884,-0.123647,0.228054
1470331847676183,-0.19558,-0.124312,0.228049
1470331847694199,-0.196556,-0.124506,0.227527
1470331847716719,-0.19847,-0.125062,0.227362
1470331847736236,-0.199454,-0.126077,0.227297
1470331847754253,-0.19933,-0.126091,0.227288
1470331847776772,-0.199961,-0.12627,0.227225
1470331847796290,-0.200608,-0.126572,0.227178
1470331847819311,-0.201423,-0.127112,0.227183
1470331847835825,-0.202557,-0.127228,0.227281
1470331847858345,-0.203633,-0.127678,0.227776
1470331847879364,-0.2045,-0.128129,0.228639
1470331847895879,-0.205383,-0.128679,0.229631
1470331847918400,-0.206495,-0.129225,0.230392
1470331847939418,-0.207811,-0.129658,0.230784
1470331847955934,-0.20875,-0.130163,0.230914
1470331847978453,-0.209312,-0.130596,0.231014
1470331847999472,-0.209436,-0.130583,0.231023
1470331848015987,-0.209038,-0.130513,0.230855
1470331848038507,-0.208611,-0.130076,0.230777
1470331848059526,-0.207828,-0.12978,0.2308
1470331848076040,-0.206215,-0.128864,0.230576
1470331848098561,-0.204541,-0.12817,0.230749
1470331848119580,-0.203505,-0.127788,0.230752
1470331848136095,-0.203496,-0.12749,0.231206
1470331848158616,-0.203496,-0.12749,0.231206
1470331848181135,-0.203496,-0.12749,0.231206
1470331848196148,-0.203614,-0.127199,0.231557
1470331848218168,-0.204003,-0.126991,0.232066
1470331848241189,-0.204003,-0.126991,0.232066
1470331848255703,-0.203987,-0.12687,0.23205
1470331848286229,-0.203987,-0.12687,0.23205
1470331848300743,-0.203975,-0.126861,0.232037
1470331848315256,-0.204281,-0.127331,0.231993
1470331848338276,-0.204404,-0.127318,0.232002
1470331848360796,-0.204404,-0.127318,0.232002
1470331848375309,-0.204404,-0.127318,0.232002
1470331848398330,-0.204404,-0.127318,0.232002
1470331848428374,-0.204404,-0.127318,0.232002
1470331848435378,-0.205069,-0.127739,0.231971
1470331848458387,-0.205991,-0.128123,0.232083
1470331848480938,-0.206847,-0.128041,0.232022
1470331848495417,-0.207348,-0.128266,0.231716
1470331848518438,-0.207733,-0.128637,0.231293
1470331848540959,-0.208018,-0.12911,0.231112
1470331848555471,-0.208225,-0.129849,0.230967
1470331848578492,-0.208898,-0.130405,0.23083
1470331848601013,-0.209209,-0.131154,0.230446
1470331848615033,-0.209272,-0.132076,0.229811
1470331848638545,-0.208833,-0.132938,0.229136
1470331848661066,-0.20836,-0.13339,0.228773
1470331848682084,-0.208183,-0.134326,0.228244
1470331848699101,-0.208165,-0.135346,0.227988
1470331848721121,-0.208165,-0.135346,0.227988
1470331848742141,-0.208165,-0.135346,0.227988
1470331848758675,-0.207739,-0.134742,0.228254
1470331848780704,-0.207616,-0.13378,0.22814
1470331848802192,-0.206369,-0.132379,0.228627
1470331848818207,-0.205667,-0.13129,0.229199
1470331848841227,-0.205107,-0.130712,0.229333
1470331848862246,-0.204566,-0.130277,0.229371
1470331848878287,-0.204295,-0.130049,0.229447
1470331848900824,-0.203761,-0.129746,0.229377
1470331848922301,-0.203094,-0.129613,0.22894
1470331848938315,-0.203015,-0.129427,0.228288
1470331848960836,-0.203015,-0.129427,0.228288
1470331848982435,-0.202062,-0.128964,0.227801
1470331848998409,-0.201724,-0.128559,0.227238
1470331849020889,-0.201662,-0.128495,0.226601
1470331849041954,-0.20111,-0.128358,0.22605
1470331849065934,-0.201045,-0.128037,0.225645
1470331849080947,-0.201075,-0.127717,0.224987
1470331849103502,-0.201264,-0.127502,0.22449
1470331849118478,-0.200936,-0.127085,0.224052
1470331849140998,-0.200854,-0.126622,0.223743
1470331849163518,-0.200854,-0.126622,0.223743
1470331849178532,-0.200846,-0.126489,0.223852
1470331849201050,-0.200313,-0.126329,0.223551
1470331849223571,-0.199788,-0.126158,0.223374
1470331849237591,-0.199015,-0.125992,0.223291
1470331849261124,-0.197874,-0.125741,0.223304
1470331849283626,-0.197045,-0.12595,0.223394
1470331849297638,-0.196692,-0.125967,0.223616
1470331849321158,-0.196692,-0.125967,0.223616
1470331849343179,-0.196692,-0.125967,0.223616
1470331849357691,-0.196975,-0.12644,0.223432
1470331849381213,-0.197121,-0.126826,0.223113
1470331849403233,-0.197121,-0.126826,0.223113
1470331849417745,-0.197121,-0.126826,0.223113
1470331849440768,-0.197121,-0.126826,0.223113
1470331849463286,-0.197121,-0.126826,0.223113
1470331849477845,-0.197121,-0.126826,0.223113
1470331849500820,-0.196802,-0.126396,0.2228
1470331849523341,-0.196802,-0.126396,0.2228
1470331849537854,-0.196599,-0.125966,0.222371
1470331849560908,-0.196927,-0.125839,0.22201
1470331849583394,-0.196927,-0.125839,0.22201
1470331849604430,-0.196803,-0.125852,0.222002
1470331849620931,-0.196803,-0.125852,0.222002
1470331849643448,-0.196803,-0.125852,0.222002
1470331849664498,-0.196803,-0.125852,0.222002
1470331849680989,-0.196787,-0.12573,0.221987
1470331849703505,-0.196787,-0.12573,0.221987
1470331849724547,-0.196787,-0.12573,0.221987
1470331849741068,-0.196787,-0.12573,0.221987
1470331849763557,-0.196787,-0.12573,0.221987
1470331849784576,-0.196787,-0.12573,0.221987
1470331849801090,-0.196919,-0.125706,0.22212
1470331849823611,-0.196903,-0.125585,0.222105
1470331849844686,-0.196919,-0.125706,0.22212
1470331849861178,-0.196508,-0.125513,0.22194
1470331849883682,-0.196508,-0.125513,0.22194
1470331849904707,-0.196508,-0.125513,0.22194
1470331849921197,-0.196508,-0.125513,0.22194
1470331849943226,-0.196508,-0.125513,0.22194
1470331849964736,-0.196503,-0.1254,0.221937
1470331849981258,-0.196503,-0.1254,0.221937
1470331850010823,-0.196503,-0.1254,0.221937
1470331850024791,-0.196503,-0.1254,0.221937
1470331850040809,-0.196503,-0.1254,0.221937
1470331850063327,-0.196487,-0.125279,0.221923
1470331850085890,-0.196487,-0.125279,0.221923
1470331850100859,-0.196363,-0.125291,0.221914
1470331850123380,-0.196363,-0.125291,0.221914
1470331850145902,-0.196363,-0.125291,0.221914
1470331850160913,-0.196347,-0.12517,0.221899
1470331850183433,-0.196347,-0.12517,0.221899
1470331850205958,-0.196347,-0.12517,0.221899
1470331850220477,-0.196568,-0.125178,0.221544
1470331850243497,-0.196568,-0.125178,0.221544
1470331850266008,-0.196552,-0.125056,0.221529
1470331850280520,-0.196552,-0.125056,0.221529
1470331850303541,-0.196552,-0.125056,0.221529
1470331850333568,-0.196428,-0.125069,0.22152
1470331850340074,-0.196412,-0.124947,0.221506
1470331850363595,-0.196412,-0.124947,0.221506
1470331850386120,-0.196412,-0.124947,0.221506
1470331850400134,-0.196412,-0.124947,0.221506
1470331850423649,-0.196412,-0.124947,0.221506
1470331850446169,-0.196412,-0.124947,0.221506
1470331850460218,-0.196412,-0.124947,0.221506
1470331850483703,-0.196412,-0.124947,0.221506
1470331850506225,-0.196412,-0.124947,0.221506
1470331850520736,-0.196405,-0.124815,0.221615
1470331850543260,-0.196405,-0.124815,0.221615
1470331850565827,-0.196405,-0.124815,0.221615
1470331850587301,-0.196405,-0.124815,0.221615
1470331850603311,-0.196266,-0.124706,0.221592
1470331850625831,-0.196266,-0.124706,0.221592
1470331850646906,-0.196266,-0.124706,0.221592
1470331850663369,-0.196266,-0.124706,0.221592
1470331850685885,-0.196266,-0.124706,0.221592
1470331850706929,-0.196266,-0.124706,0.221592
1470331850723418,-0.19625,-0.124584,0.221577
1470331850746072,-0.19625,-0.124584,0.221577
1470331850767134,-0.196126,-0.124597,0.221568
1470331850783605,-0.196126,-0.124597,0.221568
1470331850806163,-0.19625,-0.124584,0.221577
1470331850827189,-0.196234,-0.124463,0.221562
1470331850843715,-0.196234,-0.124463,0.221562
1470331850866213,-0.19611,-0.124476,0.221553
1470331850887211,-0.196121,-0.124485,0.221566
1470331850903713,-0.196121,-0.124485,0.221566
1470331850925734,-0.196121,-0.124485,0.221566
1470331850947254,-0.196121,-0.124485,0.221566
1470331850963267,-0.196121,-0.124485,0.221566
1470331850985790,-0.196105,-0.124363,0.221551
1470331851008309,-0.196105,-0.124363,0.221551
1470331851023321,-0.196105,-0.124363,0.221551
1470331851045879,-0.196105,-0.124363,0.221551
1470331851068362,-0.196105,-0.124363,0.221551
1470331851083375,-0.196105,-0.124363,0.221551
1470331851105896,-0.196105,-0.124363,0.221551
1470331851128418,-0.196089,-0.124242,0.221536
1470331851142929,-0.196213,-0.124229,0.221545
1470331851165953,-0.196213,-0.124229,0.221545
1470331851188470,-0.197205,-0.124383,0.221383
1470331851203039,-0.198179,-0.12456,0.220973
1470331851226002,-0.198885,-0.124529,0.220529
1470331851248553,-0.199198,-0.124282,0.220153
1470331851262535,-0.199209,-0.124291,0.220165
1470331851286057,-0.198734,-0.123611,0.219926
1470331851308592,-0.198734,-0.123611,0.219926
1470331851322589,-0.198734,-0.123611,0.219926
1470331851346111,-0.198734,-0.123611,0.219926
1470331851368654,-0.198113,-0.123418,0.220114
1470331851382643,-0.197736,-0.123179,0.220431
1470331851406182,-0.197736,-0.123179,0.220431
1470331851428686,-0.197736,-0.123179,0.220431
1470331851442697,-0.197482,-0.123072,0.220523
1470331851466218,-0.196836,-0.122768,0.220572
1470331851488740,-0.19682,-0.122647,0.220557
1470331851509784,-0.19682,-0.122647,0.220557
1470331851525816,-0.19682,-0.122647,0.220557
1470331851548795,-0.196944,-0.122634,0.220566
1470331851569813,-0.19631,-0.122576,0.220508
1470331851585826,-0.19631,-0.122576,0.220508
1470331851608348,-0.196294,-0.122455,0.220494
1470331851629420,-0.19631,-0.122576,0.220508
1470331851645888,-0.196294,-0.122455,0.220494
1470331851668399,-0.196294,-0.122455,0.220494
1470331851689420,-0.196294,-0.122455,0.220494
1470331851705934,-0.196418,-0.122442,0.220502
1470331851728485,-0.196418,-0.122442,0.220502
1470331851750038,-0.196418,-0.122442,0.220502
1470331851766020,-0.196418,-0.122442,0.220502
1470331851788539,-0.196402,-0.12232,0.220487
1470331851809574,-0.196912,-0.122391,0.220536
1470331851826119,-0.196912,-0.122391,0.220536
1470331851848595,-0.196912,-0.122391,0.220536
1470331851869653,-0.196896,-0.12227,0.220522
1470331851885626,-0.197256,-0.122223,0.220535
1470331851908646,-0.197256,-0.122223,0.220535
1470331851929679,-0.197256,-0.122223,0.220535
1470331851946180,-0.197256,-0.122223,0.220535
1470331851968700,-0.197363,-0.122088,0.220529
1470331851990724,-0.196889,-0.122137,0.220631
1470331852006234,-0.196635,-0.12203,0.220723
1470331852028805,-0.196635,-0.12203,0.220723
1470331852050817,-0.196758,-0.122017,0.220732
1470331852065287,-0.196758,-0.122017,0.220732
1470331852088311,-0.196758,-0.122017,0.220732
1470331852110872,-0.196742,-0.121895,0.220717
1470331852125342,-0.196742,-0.121895,0.220717
1470331852148367,-0.196742,-0.121895,0.220717
1470331852170883,-0.196742,-0.121895,0.220717
1470331852185396,-0.196742,-0.121895,0.220717
1470331852208417,-0.196742,-0.121895,0.220717
1470331852230937,-0.196726,-0.121774,0.220702
1470331852245449,-0.196726,-0.121774,0.220702
1470331852268471,-0.196726,-0.121774,0.220702
1470331852290992,-0.196726,-0.121774,0.220702
1470331852305519,-0.196726,-0.121774,0.220702
1470331852328567,-0.196735,-0.121763,0.220826
1470331852351044,-0.196858,-0.12175,0.220835
1470331852365556,-0.196858,-0.12175,0.220835
1470331852388076,-0.196842,-0.121629,0.22082
1470331852411098,-0.196842,-0.121629,0.22082
1470331852432134,-0.196842,-0.121629,0.22082
1470331852448632,-0.196842,-0.121629,0.22082
1470331852454136,-0.196966,-0.121616,0.220829
1470331852476792,-0.196966,-0.121616,0.220829
1470331852494732,-0.196966,-0.121616,0.220829
1470331852516692,-0.19695,-0.121494,0.220814
1470331852536250,-0.19695,-0.121494,0.220814
1470331852554226,-0.19695,-0.121494,0.220814
1470331852573799,-0.19695,-0.121494,0.220814
1470331852596266,-0.197074,-0.121482,0.220823
1470331852614298,-0.197058,-0.12136,0.220808
1470331852633812,-0.197058,-0.12136,0.220808
1470331852656318,-0.197181,-0.121347,0.220816
1470331852674372,-0.197181,-0.121347,0.220816
1470331852693896,-0.197181,-0.121347,0.220816
1470331852716397,-0.197181,-0.121347,0.220816
1470331852734434,-0.197181,-0.121347,0.220816
1470331852753924,-0.197305,-0.121335,0.220825
1470331852776471,-0.197305,-0.121335,0.220825
1470331852794447,-0.197289,-0.121213,0.22081
1470331852813963,-0.197289,-0.121213,0.22081
1470331852836484,-0.197428,-0.121322,0.220833
1470331852854497,-0.197412,-0.1212,0.220819
1470331852874014,-0.197401,-0.121192,0.220806
1470331852896534,-0.197401,-0.121192,0.220806
1470331852914050,-0.197401,-0.121192,0.220806
1470331852934067,-0.197401,-0.121192,0.220806
1470331852956587,-0.197401,-0.121192,0.220806
1470331852974636,-0.197525,-0.121179,0.220815
1470331853001628,-0.197525,-0.121179,0.220815
1470331853016641,-0.197557,-0.121422,0.220844
1470331853034158,-0.197744,-0.121895,0.220912
1470331853053730,-0.198046,-0.122367,0.220864
1470331853076223,-0.198046,-0.122367,0.220864
1470331853094213,-0.198046,-0.122367,0.220864
1470331853114230,-0.198046,-0.122367,0.220864
1470331853136270,-0.198046,-0.122367,0.220864
1470331853154266,-0.198046,-0.122367,0.220864
1470331853173801,-0.198046,-0.122367,0.220864
1470331853196303,-0.19803,-0.122245,0.220849
1470331853214323,-0.198046,-0.122367,0.220864
1470331853235382,-0.19817,-0.122354,0.220873
1470331853256384,-0.198154,-0.122233,0.220858
1470331853274374,-0.198154,-0.122233,0.220858
1470331853293938,-0.198154,-0.122233,0.220858
1470331853316415,-0.19817,-0.122354,0.220873
1470331853334428,-0.19817,-0.122354,0.220873
1470331853355471,-0.19817,-0.122354,0.220873
1470331853376492,-0.198159,-0.122345,0.22086
1470331853394572,-0.198282,-0.122333,0.220869
1470331853413998,-0.198282,-0.122333,0.220869
1470331853436571,-0.198282,-0.122333,0.220869
1470331853454034,-0.198282,-0.122333,0.220869
1470331853474065,-0.198282,-0.122333,0.220869
1470331853496573,-0.198266,-0.122211,0.220854
1470331853514589,-0.198282,-0.122333,0.220869
1470331853535108,-0.197799,-0.122392,0.220847
1470331853559633,-0.197412,-0.122309,0.220806
1470331853574662,-0.197412,-0.122309,0.220806
1470331853595204,-0.197412,-0.122309,0.220806
1470331853616681,-0.197412,-0.122309,0.220806
1470331853634197,-0.197428,-0.122431,0.220821
1470331853662722,-0.197412,-0.122309,0.220806
1470331853676257,-0.197412,-0.122309,0.220806
1470331853694276,-0.197428,-0.122431,0.220821
1470331853715276,-0.197428,-0.122431,0.220821
1470331853736289,-0.197428,-0.122431,0.220821
1470331853754339,-0.197428,-0.122431,0.220821
1470331853775322,-0.197428,-0.122431,0.220821
1470331853796366,-0.197428,-0.122431,0.220821
1470331853814414,-0.197428,-0.122431,0.220821
1470331853836929,-0.197428,-0.122431,0.220821
1470331853856396,-0.197428,-0.122431,0.220821
1470331853874435,-0.19695,-0.122603,0.220802
1470331853896979,-0.19695,-0.122603,0.220802
1470331853916493,-0.19695,-0.122603,0.220802
1470331853934468,-0.19695,-0.122603,0.220802
1470331853956987,-0.19695,-0.122603,0.220802
1470331853976503,-0.19695,-0.122603,0.220802
1470331853999030,-0.19695,-0.122603,0.220802
1470331854017086,-0.19695,-0.122603,0.220802
1470331854036557,-0.19695,-0.122603,0.220802
1470331854062081,-0.19695,-0.122603,0.220802
1470331854077093,-0.19695,-0.122603,0.220802
1470331854096611,-0.196966,-0.122724,0.220816
1470331854114627,-0.19695,-0.122603,0.220802
1470331854137148,-0.19695,-0.122603,0.220802
1470331854156666,-0.19695,-0.122603,0.220802
1470331854174206,-0.19695,-0.122603,0.220802
1470331854196703,-0.19695,-0.122603,0.220802
1470331854216747,-0.19695,-0.122603,0.220802
1470331854234234,-0.19695,-0.122603,0.220802
1470331854256824,-0.19695,-0.122603,0.220802
1470331854276314,-0.19695,-0.122603,0.220802
1470331854294345,-0.19695,-0.122603,0.220802
1470331854316815,-0.19695,-0.122603,0.220802
1470331854336397,-0.19695,-0.122603,0.220802
1470331854358848,-0.19695,-0.122603,0.220802
1470331854376865,-0.19695,-0.122603,0.220802
1470331854396380,-0.19695,-0.122603,0.220802
1470331854414437,-0.19695,-0.122603,0.220802
1470331854436932,-0.19695,-0.122603,0.220802
1470331854457936,-0.19695,-0.122603,0.220802
1470331854474510,-0.19695,-0.122603,0.220802
1470331854497062,-0.19695,-0.122603,0.220802
1470331854517989,-0.196934,-0.122481,0.220787
1470331854534573,-0.196934,-0.122481,0.220787
1470331854557094,-0.196934,-0.122481,0.220787
1470331854578043,-0.196934,-0.122481,0.220787
1470331854599062,-0.196934,-0.122481,0.220787
1470331854617078,-0.196934,-0.122481,0.220787
1470331854638097,-0.196934,-0.122481,0.220787
1470331854659115,-0.196934,-0.122481,0.220787
1470331854677189,-0.196934,-0.122481,0.220787
1470331854697666,-0.196934,-0.122481,0.220787
1470331854719184,-0.196934,-0.122481,0.220787
1470331854736686,-0.196934,-0.122481,0.220787
1470331854757704,-0.196934,-0.122481,0.220787
1470331854778779,-0.196934,-0.122481,0.220787
1470331854796740,-0.196934,-0.122481,0.220787
1470331854819261,-0.196934,-0.122481,0.220787
1470331854839278,-0.197058,-0.122469,0.220795
1470331854856842,-0.196934,-0.122481,0.220787
1470331854879314,-0.196934,-0.122481,0.220787
1470331854898887,-0.196934,-0.122481,0.220787
1470331854916876,-0.197058,-0.122469,0.220795
1470331854939411,-0.197058,-0.122469,0.220795
1470331854958894,-0.197205,-0.12271,0.220709
1470331854984409,-0.19787,-0.123011,0.220797
1470331854998460,-0.198392,-0.123327,0.220739
1470331855019441,-0.198923,-0.123632,0.220806
1470331855036007,-0.198923,-0.123632,0.220806
1470331855058476,-0.198907,-0.12351,0.220791
1470331855079541,-0.199031,-0.123498,0.2208
1470331855096045,-0.199031,-0.123498,0.2208
1470331855118545,-0.199047,-0.123619,0.220815
1470331855139591,-0.199031,-0.123498,0.2208
1470331855156072,-0.199031,-0.123498,0.2208
1470331855178612,-0.199031,-0.123498,0.2208
1470331855199694,-0.199031,-0.123498,0.2208
1470331855223623,-0.199031,-0.123498,0.2208
1470331855238637,-0.199031,-0.123498,0.2208
1470331855259715,-0.199031,-0.123498,0.2208
1470331855276171,-0.199031,-0.123498,0.2208
1470331855298694,-0.199031,-0.123498,0.2208
1470331855319744,-0.199031,-0.123498,0.2208
1470331855335725,-0.199155,-0.123485,0.220808
1470331855358244,-0.199139,-0.123364,0.220793
1470331855379772,-0.199139,-0.123364,0.220793
1470331855396299,-0.199139,-0.123364,0.220793
1470331855418344,-0.199139,-0.123364,0.220793
1470331855439317,-0.199139,-0.123364,0.220793
1470331855456334,-0.199139,-0.123364,0.220793
1470331855478356,-0.199425,-0.123714,0.220731
1470331855499871,-0.19972,-0.124053,0.220793
1470331855515885,-0.19972,-0.124053,0.220793
1470331855538452,-0.19972,-0.124053,0.220793
1470331855559968,-0.199844,-0.12404,0.220802
1470331855575949,-0.199844,-0.12404,0.220802
1470331855598459,-0.199844,-0.12404,0.220802
1470331855619534,-0.199844,-0.12404,0.220802
1470331855643501,-0.199844,-0.12404,0.220802
1470331855658565,-0.19972,-0.124053,0.220793
1470331855679533,-0.199704,-0.123932,0.220778
1470331855696048,-0.199704,-0.123932,0.220778
1470331855718568,-0.199342,-0.123958,0.220877
1470331855741134,-0.199218,-0.123971,0.220868
1470331855762133,-0.199218,-0.123971,0.220868
1470331855778625,-0.198717,-0.123889,0.220942
1470331855801142,-0.198717,-0.123889,0.220942
1470331855816159,-0.198603,-0.123747,0.221291
1470331855844753,-0.198615,-0.123447,0.221882
1470331855861196,-0.198631,-0.123569,0.221897
1470331855883716,-0.198615,-0.123447,0.221882
1470331855898230,-0.198754,-0.123556,0.221906
1470331855927316,-0.198754,-0.123556,0.221906
1470331855935262,-0.198615,-0.123447,0.221882
1470331855958332,-0.198615,-0.123447,0.221882
1470331855981303,-0.198615,-0.123447,0.221882
1470331855995316,-0.198615,-0.123447,0.221882
1470331856018337,-0.198615,-0.123447,0.221882
1470331856041372,-0.198599,-0.123326,0.221867
1470331856055381,-0.198599,-0.123326,0.221867
1470331856078415,-0.198599,-0.123326,0.221867
1470331856100910,-0.198722,-0.123313,0.221876
1470331856121932,-0.198722,-0.123313,0.221876
1470331856138444,-0.198599,-0.123326,0.221867
1470331856160990,-0.198599,-0.123326,0.221867
1470331856175478,-0.198583,-0.123204,0.221852
1470331856198498,-0.198583,-0.123204,0.221852
1470331856221019,-0.198583,-0.123204,0.221852
1470331856242091,-0.198706,-0.123191,0.221861
1470331856258598,-0.198706,-0.123191,0.221861
1470331856281073,-0.198706,-0.123191,0.221861
1470331856302113,-0.198706,-0.123191,0.221861
1470331856318606,-0.198706,-0.123191,0.221861
1470331856341127,-0.19869,-0.12307,0.221846
1470331856362173,-0.198699,-0.123059,0.22197
1470331856378662,-0.198699,-0.123059,0.22197
1470331856401180,-0.198699,-0.123059,0.22197
1470331856422199,-0.198699,-0.123059,0.22197
1470331856438766,-0.198699,-0.123059,0.22197
1470331856461234,-0.198683,-0.122937,0.221955
1470331856482278,-0.198683,-0.122937,0.221955
1470331856498787,-0.198683,-0.122937,0.221955
1470331856521288,-0.198807,-0.122924,0.221964
1470331856542309,-0.198807,-0.122924,0.221964
1470331856558322,-0.198667,-0.122816,0.221941
1470331856581341,-0.198791,-0.122803,0.221949
1470331856602360,-0.198791,-0.122803,0.221949
1470331856618375,-0.198791,-0.122803,0.221949
1470331856640898,-0.198775,-0.122681,0.221934
1470331856662415,-0.198651,-0.122694,0.221926
1470331856678430,-0.198651,-0.122694,0.221926
1470331856700949,-0.198775,-0.122681,0.221934
1470331856723472,-0.198775,-0.122681,0.221934
1470331856738483,-0.198758,-0.12256,0.221919
1470331856761004,-0.198758,-0.12256,0.221919
1470331856783523,-0.198889,-0.12268,0.221819
1470331856798554,-0.19989,-0.122823,0.221781
1470331856821061,-0.201015,-0.122954,0.221752
1470331856843577,-0.201846,-0.122766,0.221549
1470331856858090,-0.202775,-0.122435,0.221327
1470331856888657,-0.203537,-0.121794,0.220827
1470331856903632,-0.204403,-0.121143,0.2202
1470331856917645,-0.20541,-0.120602,0.219595
1470331856941165,-0.205634,-0.119906,0.218785
1470331856963686,-0.205672,-0.119463,0.218249
1470331856977758,-0.205979,-0.119085,0.217981
1470331857001221,-0.20631,-0.118816,0.217852
1470331857029788,-0.206303,-0.118683,0.217961
1470331857037790,-0.206303,-0.118683,0.217961
1470331857061299,-0.206303,-0.118683,0.217961
1470331857083794,-0.206303,-0.118683,0.217961
1470331857097810,-0.206287,-0.118561,0.217945
1470331857121328,-0.205501,-0.119111,0.218195
1470331857143848,-0.204919,-0.120256,0.218529
1470331857157864,-0.206342,-0.121257,0.219486
1470331857181381,-0.207849,-0.121847,0.220643
1470331857203401,-0.206728,-0.122389,0.221363
1470331857232432,-0.205993,-0.123866,0.222346
1470331857240934,-0.208395,-0.125729,0.223468
1470331857263455,-0.212678,-0.127629,0.22475
1470331857284974,-0.215755,-0.128935,0.225752
1470331857301034,-0.215898,-0.129581,0.226581
1470331857323535,-0.215149,-0.130376,0.226862
1470331857344571,-0.215643,-0.131299,0.227007
1470331857361042,-0.217315,-0.131573,0.227415
1470331857383583,-0.217439,-0.13156,0.227424
1470331857404599,-0.217422,-0.131438,0.227408
1470331857421096,-0.219234,-0.131137,0.227269
1470331857443616,-0.221777,-0.13075,0.227173
1470331857464661,-0.223916,-0.130159,0.227016
1470331857481150,-0.223955,-0.128858,0.226368
1470331857503670,-0.223372,-0.127363,0.225902
1470331857524731,-0.222279,-0.125651,0.225616
1470331857541219,-0.222915,-0.124859,0.225447
1470331857563724,-0.224965,-0.124232,0.225771
1470331857584767,-0.226227,-0.123193,0.226111
1470331857601258,-0.223938,-0.12269,0.226127
1470331857623785,-0.22137,-0.12282,0.226324
1470331857646298,-0.222161,-0.123935,0.226767
1470331857661312,-0.224793,-0.124801,0.227555
1470331857683337,-0.225802,-0.125351,0.228449
1470331857705851,-0.224444,-0.125223,0.228703
1470331857727375,-0.222509,-0.124709,0.228495
1470331857743393,-0.221972,-0.124385,0.228535
1470331857765930,-0.221955,-0.124264,0.228518
1470331857780920,-0.222079,-0.124251,0.228527
1470331857803481,-0.222161,-0.124008,0.228379
1470331857825960,-0.220639,-0.122835,0.228127
1470331857840472,-0.219333,-0.121247,0.228095
1470331857863993,-0.218667,-0.119827,0.228127
1470331857886013,-0.218659,-0.118698,0.228239
1470331857900527,-0.218572,-0.117979,0.228155
1470331857923548,-0.217635,-0.117473,0.228029
1470331857946068,-0.216574,-0.117126,0.227662
1470331857960580,-0.215785,-0.117007,0.227221
1470331857983645,-0.215129,-0.117009,0.226679
1470331858006122,-0.214876,-0.117214,0.226195
1470331858020175,-0.214884,-0.117202,0.226319
1470331858043699,-0.214884,-0.117202,0.226319
1470331858066176,-0.214884,-0.117202,0.226319
1470331858080188,-0.214661,-0.117629,0.225978
1470331858103709,-0.213946,-0.118128,0.225491
1470331858126232,-0.213779,-0.118906,0.225321
1470331858147248,-0.214475,-0.119719,0.225089
1470331858163762,-0.215173,-0.120094,0.225555
1470331858186284,-0.215313,-0.120202,0.225579
1470331858207302,-0.214926,-0.119974,0.22577
1470331858223859,-0.214539,-0.119746,0.22596
1470331858246377,-0.214539,-0.119746,0.22596
1470331858274863,-0.214131,-0.119284,0.226132
1470331858283370,-0.213316,-0.118597,0.226359
1470331858305894,-0.212801,-0.118124,0.226771
1470331858327434,-0.212538,-0.117738,0.227204
1470331858343471,-0.211641,-0.117296,0.227579
1470331858365986,-0.210202,-0.116563,0.227763
1470331858387018,-0.209431,-0.116275,0.227804
1470331858403482,-0.20782,-0.116332,0.227693
1470331858426003,-0.205251,-0.116645,0.227433
1470331858447062,-0.203557,-0.117236,0.227003
1470331858463532,-0.203433,-0.117249,0.226995
1470331858486053,-0.203449,-0.117371,0.22701
1470331858507101,-0.202745,-0.116717,0.226891
1470331858524587,-0.202519,-0.115889,0.22679
1470331858546107,-0.202537,-0.115303,0.226351
1470331858567127,-0.202405,-0.115472,0.225985
1470331858583640,-0.202921,-0.11667,0.225912
1470331858606163,-0.202905,-0.116549,0.225897
1470331858628710,-0.201877,-0.115989,0.226376
1470331858643724,-0.201025,-0.115656,0.227032
1470331858666213,-0.201087,-0.115977,0.227436
1470331858688734,-0.201276,-0.11645,0.227504
1470331858703747,-0.201259,-0.116328,0.227489
1470331858726268,-0.201235,-0.116362,0.227117
1470331858748787,-0.201251,-0.116484,0.227132
1470331858762802,-0.201251,-0.116484,0.227132
1470331858786321,-0.201374,-0.116471,0.22714
1470331858808882,-0.201374,-0.116471,0.22714
1470331858822854,-0.201251,-0.116484,0.227132
1470331858846379,-0.201728,-0.11631,0.22715
1470331858868397,-0.201728,-0.11631,0.22715
1470331858882935,-0.201728,-0.11631,0.22715
1470331858905933,-0.201745,-0.116431,0.227165
1470331858928450,-0.202392,-0.116589,0.227347
1470331858942967,-0.203458,-0.117215,0.227367
1470331858965984,-0.204112,-0.117794,0.226975
1470331858988504,-0.20441,-0.118586,0.226227
1470331859003017,-0.204037,-0.119059,0.225502
1470331859026038,-0.203388,-0.11919,0.224852
1470331859048559,-0.202783,-0.118557,0.224368
1470331859063070,-0.202295,-0.117489,0.224469
1470331859092098,-0.202279,-0.117367,0.224454
1470331859109112,-0.201219,-0.117724,0.224546
1470331859129629,-0.199178,-0.118461,0.224228
1470331859146145,-0.199178,-0.118461,0.224228
1470331859168666,-0.199178,-0.118461,0.224228
1470331859189762,-0.198015,-0.117812,0.224574
1470331859206205,-0.197283,-0.116339,0.225361
1470331859228721,-0.196396,-0.115458,0.226567
1470331859249814,-0.196649,-0.115257,0.227053
1470331859266252,-0.196099,-0.114669,0.22732
1470331859288773,-0.196206,-0.114535,0.227313
1470331859309792,-0.196346,-0.114643,0.227336
1470331859326307,-0.196346,-0.114643,0.227336
1470331859348860,-0.19633,-0.114522,0.227321
1470331859369846,-0.197642,-0.115121,0.227354
1470331859386361,-0.19883,-0.115878,0.227145
1470331859408382,-0.198899,-0.115964,0.226173
1470331859429435,-0.198843,-0.116206,0.224959
1470331859445914,-0.199393,-0.116795,0.224693
1470331859468434,-0.199393,-0.116795,0.224693
1470331859489486,-0.199269,-0.116952,0.224452
1470331859506469,-0.199531,-0.117336,0.224016
1470331859528490,-0.200076,-0.11805,0.22363
1470331859551009,-0.200602,-0.118385,0.223459
1470331859566023,-0.200602,-0.118385,0.223459
1470331859588542,-0.199513,-0.117647,0.223301
1470331859611062,-0.199614,-0.116948,0.224104
1470331859626075,-0.19928,-0.115946,0.22459
1470331859648615,-0.199147,-0.115374,0.225503
1470331859671140,-0.199371,-0.11495,0.225847
1470331859685636,-0.199091,-0.114733,0.225801
1470331859708668,-0.198601,-0.114661,0.225891
1470331859731171,-0.198346,-0.114555,0.225984
1470331859745683,-0.198362,-0.114676,0.225999
1470331859768704,-0.198486,-0.114663,0.226007
1470331859791224,-0.197952,-0.11434,0.226054
1470331859805236,-0.197952,-0.11434,0.226054
1470331859828757,-0.197896,-0.113699,0.226353
1470331859851277,-0.197708,-0.113083,0.22652
1470331859865291,-0.196716,-0.112931,0.226688
1470331859888811,-0.195616,-0.113058,0.226629
1470331859911340,-0.195123,-0.11311,0.226597
1470331859925348,-0.195115,-0.113121,0.226473
1470331859948865,-0.195131,-0.113243,0.226487
1470331859970885,-0.195123,-0.11311,0.226597
1470331859985417,-0.195123,-0.11311,0.226597
1470331860008419,-0.195123,-0.11311,0.226597
1470331860030940,-0.195123,-0.11311,0.226597
1470331860052458,-0.195123,-0.11311,0.226597
1470331860068474,-0.195123,-0.11311,0.226597
1470331860090993,-0.195123,-0.11311,0.226597
1470331860112027,-0.195123,-0.11311,0.226597
1470331860128527,-0.195123,-0.11311,0.226597
1470331860151047,-0.195107,-0.112989,0.226582
1470331860172569,-0.195107,-0.112989,0.226582
1470331860188581,-0.194731,-0.112915,0.226557
1470331860211101,-0.194855,-0.112902,0.226565
1470331860232638,-0.194855,-0.112902,0.226565
1470331860248635,-0.194855,-0.112902,0.226565
1470331860254139,-0.194839,-0.11278,0.22655
1470331860276659,-0.194715,-0.112794,0.226542
1470331860299180,-0.194715,-0.112794,0.226542
1470331860314196,-0.194839,-0.11278,0.22655
1470331860336714,-0.194477,-0.112665,0.226884
1470331860362237,-0.194477,-0.112665,0.226884
1470331860375750,-0.193804,-0.112235,0.226911
1470331860406888,-0.193712,-0.112204,0.2274
1470331860418786,-0.193203,-0.111992,0.227587
1470331860433829,-0.193203,-0.111992,0.227587
1470331860456321,-0.193203,-0.111992,0.227587
1470331860478857,-0.193203,-0.111992,0.227587
1470331860493854,-0.193203,-0.111992,0.227587
1470331860516884,-0.192597,-0.112066,0.227561
1470331860538943,-0.192597,-0.112066,0.227561
1470331860553923,-0.192597,-0.112066,0.227561
1470331860576519,-0.193375,-0.112199,0.227872
1470331860599005,-0.194275,-0.112463,0.227959
1470331860613964,-0.194407,-0.112725,0.227623
1470331860639527,-0.195064,-0.113178,0.227348
1470331860659032,-0.196367,-0.113932,0.227021
1470331860674017,-0.197244,-0.114373,0.226502
1470331860699539,-0.197893,-0.114838,0.226105
1470331860719057,-0.19731,-0.115454,0.225515
1470331860734070,-0.197203,-0.115588,0.225522
1470331860756609,-0.197595,-0.115496,0.22603
1470331860779130,-0.198349,-0.115231,0.226672
1470331860794124,-0.198317,-0.114701,0.22711
1470331860816644,-0.197956,-0.114441,0.227677
1470331860839169,-0.196936,-0.114016,0.22805
1470331860854177,-0.196561,-0.113799,0.228258
1470331860876698,-0.196561,-0.113799,0.228258
1470331860899218,-0.196174,-0.113718,0.228219
1470331860914233,-0.196174,-0.113718,0.228219
1470331860936772,-0.196174,-0.113718,0.228219
1470331860959334,-0.196298,-0.113704,0.228227
1470331860974328,-0.196298,-0.113704,0.228227
1470331860996338,-0.196298,-0.113704,0.228227
1470331861018882,-0.196282,-0.113583,0.228213
1470331861035341,-0.196282,-0.113583,0.228213
1470331861056363,-0.196282,-0.113583,0.228213
1470331861078898,-0.196282,-0.113583,0.228213
1470331861095395,-0.196282,-0.113583,0.228213
1470331861116415,-0.195182,-0.113854,0.227919
1470331861138963,-0.193391,-0.114568,0.227621
1470331861155487,-0.190806,-0.115026,0.226994
1470331861176493,-0.188637,-0.114699,0.226451
1470331861198989,-0.187319,-0.114253,0.226065
1470331861216003,-0.185757,-0.113709,0.225786
1470331861236521,-0.18471,-0.113205,0.22579
1470331861259132,-0.184102,-0.11326,0.225875
1470331861277085,-0.183133,-0.113486,0.225825
1470331861296593,-0.183133,-0.113486,0.225825
1470331861319111,-0.183027,-0.113781,0.225484
1470331861337113,-0.183151,-0.113768,0.225492
1470331861356630,-0.183327,-0.114091,0.225777
1470331861379153,-0.182966,-0.11412,0.225878
1470331861395665,-0.182487,-0.11347,0.225411
1470331861416687,-0.182487,-0.11347,0.225411
1470331861439204,-0.182503,-0.113591,0.225425
1470331861457220,-0.18238,-0.11332,0.225887
1470331861476737,-0.18238,-0.11332,0.225887
1470331861499319,-0.182281,-0.113302,0.226252
1470331861517398,-0.182402,-0.112986,0.22684
1470331861536792,-0.183123,-0.112341,0.22769
1470331861559312,-0.184344,-0.111774,0.22846
1470331861577330,-0.185426,-0.11124,0.228973
1470331861596344,-0.185607,-0.110443,0.229403
1470331861618867,-0.185875,-0.110366,0.229902
1470331861636899,-0.186043,-0.110413,0.230532
1470331861656428,-0.186404,-0.110098,0.230901
1470331861679009,-0.187116,-0.109746,0.231155
1470331861696961,-0.187942,-0.109105,0.231761
1470331861716479,-0.189483,-0.108272,0.232275
1470331861739004,-0.190777,-0.107466,0.232773
1470331861756989,-0.191874,-0.107193,0.233063
1470331861776506,-0.192556,-0.106615,0.233176
1470331861799053,-0.19388,-0.106175,0.233578
1470331861817067,-0.196007,-0.10585,0.23455
1470331861838086,-0.197763,-0.105421,0.235734
1470331861859107,-0.199895,-0.105062,0.236941
1470331861877184,-0.202906,-0.104725,0.238217
1470331861896650,-0.206047,-0.104484,0.239501
1470331861919134,-0.209822,-0.104291,0.24084
1470331861937152,-0.214114,-0.104271,0.242228
1470331861956669,-0.218151,-0.104321,0.243244
1470331861986695,-0.222225,-0.104429,0.244761
1470331861997240,-0.22629,-0.104251,0.246621
1470331862024228,-0.229636,-0.103105,0.248931
1470331862038760,-0.233215,-0.102173,0.252402
1470331862056766,-0.237388,-0.101542,0.256813
1470331862077779,-0.2433,-0.102129,0.260511
1470331862098797,-0.248741,-0.102317,0.263624
1470331862116812,-0.254312,-0.102662,0.266287
1470331862137831,-0.259472,-0.103002,0.268306
1470331862161852,-0.266026,-0.103674,0.270093
1470331862176866,-0.273246,-0.104347,0.272201
1470331862197885,-0.279309,-0.104603,0.274663
1470331862218904,-0.284296,-0.104381,0.276978
1470331862236922,-0.288384,-0.103309,0.27897
1470331862257941,-0.290919,-0.102584,0.28092
1470331862278960,-0.293142,-0.101484,0.283023
1470331862296977,-0.296708,-0.100792,0.285422
1470331862317993,-0.300641,-0.10071,0.288307
1470331862339062,-0.305999,-0.100786,0.291338
1470331862357028,-0.312294,-0.100393,0.294721
1470331862379549,-0.316647,-0.100106,0.298373
1470331862399088,-0.319853,-0.0995536,0.302273
1470331862417083,-0.323015,-0.0987049,0.306361
1470331862439603,-0.326254,-0.0982309,0.310411
1470331862459122,-0.327666,-0.0977499,0.313684
1470331862477168,-0.328956,-0.0967331,0.316483
1470331862499660,-0.330398,-0.0961949,0.318505
1470331862519269,-0.332611,-0.0957932,0.320483
1470331862537189,-0.335044,-0.0952505,0.322329
1470331862559714,-0.336225,-0.0949366,0.323859
1470331862578760,-0.3369,-0.0946328,0.325115
1470331862597243,-0.338644,-0.0946186,0.326626
1470331862619775,-0.34156,-0.0947052,0.328609
1470331862638806,-0.344167,-0.0943171,0.330747
1470331862656798,-0.345202,-0.0937621,0.332362
1470331862679366,-0.345556,-0.0929527,0.333879
1470331862698868,-0.345689,-0.0924591,0.335178
1470331862716852,-0.346371,-0.0920779,0.336792
1470331862739370,-0.346893,-0.0918731,0.339065
1470331862759389,-0.34761,-0.0909744,0.340715
1470331862776941,-0.346364,-0.0888197,0.342738
1470331862799480,-0.345962,-0.0879484,0.344557
1470331862819944,-0.346971,-0.0868799,0.345449
1470331862836458,-0.34902,-0.0863488,0.345741
1470331862858522,-0.351305,-0.0863019,0.346034
1470331862879497,-0.353781,-0.0867915,0.345935
1470331862896011,-0.357065,-0.0876409,0.345828
1470331862918532,-0.360679,-0.0881942,0.3457
1470331862940080,-0.363202,-0.0887628,0.345887
1470331862956065,-0.364727,-0.0886222,0.346592
1470331862978600,-0.366893,-0.0884117,0.347234
1470331862999648,-0.369875,-0.0893332,0.347769
1470331863016124,-0.375043,-0.0911071,0.348514
1470331863038640,-0.38646,-0.093769,0.352491
1470331863059661,-0.403453,-0.097299,0.358698
1470331863076175,-0.420003,-0.100012,0.368202
1470331863098694,-0.426,-0.0966071,0.384496
1470331863119714,-0.4157,-0.088583,0.407743
1470331863136227,-0.410215,-0.0801045,0.444162
1470331863158747,-0.421368,-0.0694435,0.491734
1470331863179768,-0.438519,-0.0600484,0.54005
1470331863196281,-0.446744,-0.0498017,0.591381
1470331863218847,-0.448481,-0.0407925,0.641658
1470331863239881,-0.444802,-0.0325921,0.689265
1470331863255335,-0.43838,-0.0246454,0.733203
1470331863278855,-0.432001,-0.0176392,0.773315
1470331863299904,-0.427056,-0.0106051,0.80672
1470331863315389,-0.424247,-0.00513262,0.832901
1470331863338910,-0.423073,-0.00145935,0.854441
1470331863361430,-0.424417,-0.00127557,0.87157
1470331863375443,-0.425029,-0.00336072,0.884208
1470331863398464,-0.420319,-0.00648992,0.893652
1470331863421483,-0.412102,-0.00854823,0.902094
1470331863435496,-0.40687,-0.0106967,0.909492
1470331863458517,-0.404476,-0.0125581,0.916263
1470331863481039,-0.403568,-0.0148465,0.923038
1470331863495550,-0.399829,-0.0170592,0.929618
1470331863518594,-0.393167,-0.0196098,0.935821
1470331863548597,-0.384803,-0.0224276,0.941743
1470331863555605,-0.378288,-0.0245671,0.947312
1470331863578628,-0.374597,-0.0264499,0.951873
1470331863601157,-0.371941,-0.0292548,0.956321
1470331863622165,-0.370364,-0.0310792,0.95998
1470331863638680,-0.368831,-0.0321046,0.962674
1470331863661699,-0.367415,-0.0317242,0.964267
1470331863675712,-0.367468,-0.030508,0.96544
1470331863698732,-0.371783,-0.0312358,0.964369
1470331863721253,-0.382626,-0.0342459,0.960918
1470331863742288,-0.394303,-0.0359415,0.956359
1470331863758290,-0.40175,-0.0355871,0.950066
1470331863781321,-0.406804,-0.0335336,0.941722
1470331863802414,-0.413282,-0.0312259,0.931245
1470331863818339,-0.421141,-0.0294387,0.919551
1470331863841361,-0.428293,-0.0264321,0.905838
1470331863862380,-0.433896,-0.0234247,0.890455
1470331863878894,-0.436757,-0.0207997,0.873347
1470331863901415,-0.438707,-0.0178193,0.855153
1470331863922434,-0.440019,-0.0148157,0.8368
1470331863938492,-0.440525,-0.0117687,0.817996
1470331863961468,-0.44033,-0.00901939,0.798166
1470331863982488,-0.44017,-0.00685796,0.777774
1470331864006029,-0.440509,-0.00446136,0.757041
1470331864021077,-0.440097,-0.00274685,0.735933
1470331864042544,-0.437546,-0.00130206,0.714238
1470331864058556,-0.434526,-0.000205785,0.691797
1470331864081079,-0.430137,0.00119388,0.669001
1470331864103597,-0.424438,0.00260751,0.646249
1470331864118613,-0.419129,0.00324155,0.623674
1470331864141133,-0.413886,0.00292945,0.602179
1470331864162170,-0.40735,0.000300445,0.582891
1470331864178664,-0.398123,-0.00421448,0.565201
1470331864201185,-0.388451,-0.0089885,0.549761
1470331864222228,-0.379606,-0.0147466,0.536692
1470331864237717,-0.371198,-0.0219949,0.524576
1470331864261237,-0.361722,-0.0300523,0.513049
1470331864283758,-0.3532,-0.0386115,0.500898
1470331864297770,-0.347265,-0.0467926,0.489482
1470331864321291,-0.343808,-0.0548417,0.480123
1470331864343811,-0.343486,-0.0632393,0.471548
1470331864358325,-0.345413,-0.0717544,0.46446
1470331864381384,-0.347099,-0.0793289,0.457958
1470331864403366,-0.349484,-0.084098,0.452938
1470331864417879,-0.356098,-0.0866483,0.450286
1470331864441399,-0.361014,-0.0871867,0.448264
1470331864463920,-0.360834,-0.085004,0.446292
1470331864477932,-0.357797,-0.0805174,0.443668
1470331864501453,-0.35638,-0.0777058,0.440364
1470331864523976,-0.356381,-0.0773079,0.436731
1470331864537987,-0.355678,-0.0764842,0.433467
1470331864561055,-0.353106,-0.0752188,0.430001
1470331864583528,-0.351628,-0.0740146,0.42762
1470331864605053,-0.349372,-0.0737297,0.425375
1470331864621061,-0.343999,-0.0734907,0.423666
1470331864643584,-0.339104,-0.0729141,0.422566
1470331864658616,-0.335599,-0.0727602,0.421781
1470331864681114,-0.333849,-0.0731523,0.420842
1470331864703635,-0.332635,-0.073673,0.419961
1470331864717647,-0.330172,-0.0743727,0.418765
1470331864741669,-0.327273,-0.0749704,0.417138
1470331864763688,-0.324759,-0.0756464,0.415302
1470331864784709,-0.322369,-0.0762941,0.413474
1470331864801222,-0.320062,-0.076596,0.412096
1470331864823776,-0.318811,-0.0767617,0.410129
1470331864844762,-0.317185,-0.0764515,0.407692
1470331864861276,-0.313828,-0.0757322,0.40519
1470331864883797,-0.310516,-0.075321,0.402251
1470331864904817,-0.309372,-0.0755453,0.399681
1470331864921330,-0.310038,-0.076535,0.397245
1470331864943878,-0.310622,-0.0780373,0.394002
1470331864964870,-0.311091,-0.0797625,0.390289
1470331864981397,-0.312116,-0.0817921,0.386426
1470331865003904,-0.313597,-0.0835925,0.382683
1470331865024931,-0.313442,-0.0854201,0.379069
1470331865041472,-0.31174,-0.0870152,0.375562
1470331865063458,-0.309598,-0.0886961,0.372785
1470331865084977,-0.307401,-0.0899622,0.370317
1470331865100991,-0.305193,-0.0912841,0.367489
1470331865123565,-0.301898,-0.0924889,0.364041
1470331865144543,-0.298483,-0.0929427,0.360732
1470331865161086,-0.295766,-0.0928964,0.358131
1470331865183566,-0.293753,-0.0932515,0.355407
1470331865204616,-0.291697,-0.0941746,0.352276
1470331865221099,-0.28879,-0.0952009,0.349341
1470331865243621,-0.285296,-0.0962551,0.346868
1470331865266140,-0.28134,-0.0974446,0.344741
1470331865281153,-0.276933,-0.0994375,0.34284
1470331865303723,-0.274031,-0.102011,0.34126
1470331865326193,-0.274482,-0.10469,0.339303
1470331865341208,-0.275465,-0.106969,0.336971
1470331865363728,-0.274342,-0.108874,0.334287
1470331865386248,-0.271044,-0.110326,0.331994
1470331865400260,-0.266919,-0.111264,0.329813
1470331865423783,-0.263644,-0.112178,0.327553
1470331865446301,-0.260882,-0.11225,0.325486
1470331865460814,-0.2574,-0.112295,0.322349
1470331865483836,-0.253472,-0.113018,0.318285
1470331865513863,-0.250642,-0.113679,0.314161
1470331865520368,-0.247605,-0.114458,0.310291
1470331865543891,-0.244466,-0.11498,0.305521
1470331865566409,-0.242047,-0.115388,0.300663
1470331865580422,-0.240311,-0.116004,0.29625
1470331865603943,-0.238724,-0.116966,0.293022
1470331865625964,-0.236877,-0.117823,0.289884
1470331865640476,-0.234399,-0.118624,0.286809
1470331865663496,-0.232228,-0.119748,0.283805
1470331865686045,-0.230068,-0.120672,0.281392
1470331865700536,-0.228463,-0.121708,0.279534
1470331865723550,-0.226951,-0.123031,0.278336
1470331865746070,-0.224837,-0.124407,0.277342
1470331865767107,-0.222982,-0.125759,0.27638
1470331865783604,-0.221614,-0.127003,0.275672
1470331865806124,-0.220541,-0.127881,0.274579
1470331865834691,-0.219655,-0.128633,0.273096
1470331865843659,-0.218828,-0.128916,0.27146
1470331865872214,-0.218435,-0.12904,0.269454
1470331865887254,-0.218052,-0.129298,0.26734
1470331865903712,-0.217928,-0.129534,0.265261
1470331865926233,-0.217212,-0.129933,0.263387
1470331865947253,-0.215738,-0.130177,0.261563
1470331865963769,-0.214207,-0.130055,0.25969
1470331865986326,-0.213095,-0.130116,0.258004
1470331866007321,-0.211999,-0.130275,0.256444
1470331866023852,-0.210712,-0.130681,0.255149
1470331866046340,-0.209539,-0.130794,0.254204
1470331866067364,-0.207713,-0.130446,0.253648
1470331866083875,-0.204359,-0.127635,0.253572
1470331866113902,-0.199041,-0.126032,0.25646
1470331866127413,-0.198072,-0.125948,0.258599
1470331866143927,-0.198864,-0.125915,0.259278
1470331866165947,-0.199089,-0.126639,0.259255
1470331866188469,-0.198112,-0.127035,0.258839
1470331866203503,-0.196929,-0.127743,0.258215
