timestamp,x,y,z,w
1470243806796738,-0.0873413,0.231934,-0.86731,0.431702
1470243806810752,-0.0873413,0.231934,-0.86731,0.431702
1470243806834272,-0.0873413,0.231995,-0.86731,0.431702
1470243806864300,-0.0873413,0.231995,-0.86731,0.431702
1470243806877811,-0.0873413,0.231995,-0.86731,0.431702
1470243806893826,-0.0873413,0.231995,-0.86731,0.431702
1470243806916347,-0.0873413,0.231995,-0.86731,0.431702
1470243806937365,-0.0873413,0.231995,-0.86731,0.431702
1470243806953880,-0.0872803,0.231995,-0.86731,0.431702
1470243806976400,-0.0872803,0.231995,-0.86731,0.431702
1470243806997920,-0.0872803,0.231995,-0.86731,0.431702
1470243807013934,-0.0872803,0.231995,-0.86731,0.431702
1470243807036454,-0.0872803,0.231995,-0.86731,0.431702
1470243807057476,-0.0872803,0.231995,-0.86731,0.431763
1470243807088825,-0.0872803,0.231995,-0.86731,0.431702
1470243807096332,-0.0872192,0.232056,-0.867249,0.431763
1470243807117850,-0.0872192,0.232056,-0.867249,0.431763
1470243807133865,-0.0872192,0.232056,-0.867249,0.431763
1470243807139872,-0.0872192,0.232056,-0.867249,0.431763
1470243807161891,-0.0871582,0.232056,-0.867249,0.431763
1470243807184411,-0.0871582,0.232056,-0.867249,0.431763
1470243807199424,-0.0871582,0.232056,-0.867249,0.431763
1470243807221945,-0.0871582,0.232056,-0.867249,0.431763
1470243807244466,-0.0871582,0.232056,-0.867249,0.431763
1470243807259479,-0.0871582,0.232056,-0.867249,0.431763
1470243807281998,-0.0871582,0.232056,-0.867249,0.431763
1470243807304519,-0.0870972,0.232117,-0.867249,0.431763
1470243807319532,-0.0870972,0.232117,-0.867249,0.431763
1470243807342053,-0.0870972,0.232117,-0.867249,0.431763
1470243807364573,-0.0870972,0.232117,-0.867249,0.431763
1470243807379586,-0.0870972,0.232117,-0.867249,0.431763
1470243807402106,-0.0870972,0.232117,-0.867249,0.431763
1470243807424626,-0.0870361,0.232178,-0.867249,0.431763
1470243807440142,-0.0870361,0.232178,-0.867249,0.431763
1470243807462160,-0.0870361,0.232178,-0.867249,0.431763
1470243807484680,-0.0870361,0.232178,-0.867249,0.431763
1470243807499694,-0.0870361,0.232178,-0.867249,0.431763
1470243807521714,-0.0870361,0.232178,-0.867249,0.431763
1470243807544734,-0.0869751,0.232178,-0.867249,0.431763
1470243807559748,-0.0869751,0.232178,-0.867249,0.431824
1470243807581767,-0.0869751,0.232178,-0.867249,0.431824
1470243807604288,-0.0869751,0.232178,-0.867249,0.431824
1470243807619302,-0.0869141,0.232178,-0.867249,0.431824
1470243807641822,-0.0869141,0.232178,-0.867249,0.431824
1470243807664342,-0.0869141,0.232178,-0.867249,0.431824
1470243807679355,-0.0869141,0.232178,-0.867249,0.431824
1470243807701875,-0.086853,0.232178,-0.867249,0.431824
1470243807724898,-0.086853,0.232178,-0.867249,0.431824
1470243807739913,-0.086853,0.232178,-0.867249,0.431824
1470243807761929,-0.0866699,0.232056,-0.867249,0.431946
1470243807784449,-0.0864258,0.231628,-0.867249,0.432129
1470243807802465,-0.0864868,0.231323,-0.867188,0.432434
1470243807821984,-0.086853,0.231079,-0.867065,0.4328
1470243807845005,-0.0878296,0.231201,-0.86676,0.433167
1470243807859517,-0.0892334,0.231506,-0.866333,0.433533
1470243807882037,-0.0905151,0.231689,-0.865906,0.43396
1470243807904557,-0.0916748,0.231567,-0.865723,0.434204
1470243807921072,-0.0929565,0.231506,-0.865479,0.434448
1470243807949597,-0.0940552,0.231812,-0.865112,0.434814
1470243807964612,-0.0948486,0.232056,-0.864746,0.43512
1470243807981126,-0.0951538,0.231873,-0.864624,0.435425
1470243808002145,-0.0949097,0.231262,-0.864746,0.435608
1470243808024666,-0.0946045,0.230713,-0.864868,0.435791
1470243808041180,-0.0942383,0.230286,-0.864868,0.435974
1470243808062199,-0.0938721,0.229919,-0.864929,0.436157
1470243808084219,-0.0933838,0.22937,-0.865051,0.436279
1470243808100734,-0.0928345,0.228638,-0.865234,0.436462
1470243808122253,-0.0921631,0.227905,-0.865356,0.436707
1470243808144773,-0.0914917,0.227173,-0.86554,0.43689
1470243808160789,-0.0905762,0.226135,-0.865723,0.437317
1470243808181806,-0.0894775,0.224976,-0.865662,0.438171
1470243808204328,-0.0883179,0.223206,-0.865662,0.439331
1470243808220842,-0.0873413,0.221069,-0.865784,0.440369
1470243808241862,-0.086731,0.218994,-0.865845,0.441345
1470243808264380,-0.0863037,0.216858,-0.865845,0.442505
1470243808282397,-0.0857544,0.214294,-0.865784,0.444031
1470243808301914,-0.085022,0.211182,-0.865723,0.445801
1470243808324436,-0.0844116,0.208008,-0.86554,0.447693
1470243808342451,-0.0839233,0.204773,-0.865356,0.449585
1470243808363469,-0.0831909,0.201111,-0.865234,0.451721
1470243808384489,-0.0822144,0.196716,-0.86499,0.454224
1470243808402506,-0.0811157,0.191223,-0.864807,0.457153
1470243808422022,-0.079834,0.185059,-0.864441,0.460571
1470243808444543,-0.0786133,0.178528,-0.863953,0.464355
1470243808462559,-0.0772705,0.171448,-0.863281,0.468445
1470243808482077,-0.0753784,0.163208,-0.862427,0.473206
1470243808504596,-0.0722656,0.152222,-0.861084,0.479736
1470243808522612,-0.0689087,0.138245,-0.859009,0.488098
1470243808542130,-0.0662842,0.122314,-0.856567,0.496948
1470243808564650,-0.0639038,0.106323,-0.854004,0.50531
1470243808582166,-0.0619507,0.0916748,-0.851379,0.512756
1470243808602183,-0.0609131,0.0789185,-0.848389,0.519897
1470243808624706,-0.0611572,0.0675659,-0.845398,0.526367
1470243808642221,-0.0621948,0.0570679,-0.842407,0.532227
1470243808661738,-0.0623779,0.0465088,-0.839722,0.537476
1470243808684758,-0.0618286,0.036438,-0.837097,0.542358
1470243808702274,-0.0609131,0.0269165,-0.834412,0.547119
1470243808721792,-0.0598755,0.0174561,-0.831604,0.551819
1470243808744813,-0.0588379,0.00762939,-0.828796,0.556458
1470243808762327,-0.0578003,-0.00183105,-0.826294,0.560303
1470243808781845,-0.0565796,-0.00994873,-0.823975,0.563721
1470243808808873,-0.0552979,-0.0170898,-0.821594,0.5672
1470243808823884,-0.0543823,-0.0238647,-0.819214,0.570374
1470243808843401,-0.0540771,-0.0299683,-0.8172,0.572998
1470243808864920,-0.0534668,-0.0355835,-0.81543,0.575256
1470243808882435,-0.0523682,-0.0410767,-0.813538,0.577698
1470243808903455,-0.0516968,-0.0456543,-0.811829,0.579773
1470243808924477,-0.0515137,-0.0492554,-0.810486,0.581421
1470243808942490,-0.0516357,-0.0523071,-0.809387,0.582703
1470243808963509,-0.0515137,-0.0551758,-0.808472,0.58374
1470243808984527,-0.0512695,-0.0575562,-0.807678,0.584595
1470243809002544,-0.0513306,-0.0592651,-0.807129,0.585205
1470243809029567,-0.0515747,-0.0602417,-0.806824,0.58551
1470243809044580,-0.052063,-0.0604248,-0.806763,0.58551
1470243809062597,-0.0523071,-0.0599365,-0.806885,0.585327
1470243809085117,-0.052002,-0.0593262,-0.807068,0.585205
1470243809104635,-0.0518188,-0.0584717,-0.807312,0.584961
1470243809123156,-0.0517578,-0.0574341,-0.807678,0.584534
1470243809143670,-0.0515137,-0.0563354,-0.808167,0.584045
1470243809164688,-0.0513306,-0.0551147,-0.808472,0.58374
1470243809190213,-0.0510864,-0.0541382,-0.808716,0.583557
1470243809204724,-0.0508423,-0.0534058,-0.809021,0.58313
1470243809224742,-0.0507202,-0.0529175,-0.809326,0.582764
1470243809242259,-0.0504761,-0.0527344,-0.809509,0.582581
1470243809264779,-0.050415,-0.0527344,-0.809509,0.582581
1470243809284796,-0.0504761,-0.0527954,-0.80957,0.58252
1470243809302312,-0.0506592,-0.0531616,-0.80957,0.582458
1470243809324835,-0.0507813,-0.0535278,-0.809509,0.582458
1470243809344850,-0.0508423,-0.053833,-0.809448,0.58252
1470243809362366,-0.0511475,-0.053772,-0.809387,0.582642
1470243809384887,-0.0513916,-0.0537109,-0.809387,0.58252
1470243809404403,-0.0512085,-0.053894,-0.809448,0.58252
1470243809422420,-0.0512085,-0.053894,-0.809448,0.58252
1470243809444940,-0.0512695,-0.0537109,-0.809509,0.582458
1470243809464458,-0.0512695,-0.0536499,-0.809509,0.582458
1470243809482474,-0.0512695,-0.0536499,-0.809509,0.582458
1470243809504996,-0.0512085,-0.0536499,-0.809509,0.582458
1470243809527514,-0.0512085,-0.0536499,-0.809509,0.582458
1470243809542528,-0.0512085,-0.0536499,-0.809509,0.582458
1470243809565048,-0.0512085,-0.0536499,-0.809509,0.582458
1470243809584567,-0.0511475,-0.0535889,-0.809509,0.582458
1470243809602582,-0.0511475,-0.0535889,-0.809509,0.582458
1470243809625102,-0.0511475,-0.0535889,-0.809509,0.582458
1470243809645120,-0.0511475,-0.0532227,-0.809631,0.582336
1470243809661635,-0.0511475,-0.0528564,-0.809753,0.582214
1470243809684155,-0.0509644,-0.0526123,-0.809814,0.582092
1470243809705175,-0.0508423,-0.0523682,-0.809937,0.58197
1470243809721688,-0.0508423,-0.0519409,-0.810059,0.581909
1470243809744209,-0.0507813,-0.0515747,-0.810181,0.581726
1470243809765228,-0.0507202,-0.0511475,-0.810242,0.581604
1470243809781743,-0.0505981,-0.0507813,-0.810364,0.581482
1470243809804264,-0.050354,-0.0507202,-0.810425,0.581482
1470243809825282,-0.0501099,-0.0505371,-0.810486,0.581482
1470243809841798,-0.0500488,-0.050293,-0.810547,0.581421
1470243809863816,-0.0499268,-0.0500488,-0.810547,0.58136
1470243809885336,-0.0499268,-0.0500488,-0.810547,0.58136
1470243809908857,-0.0496826,-0.0501709,-0.810486,0.581482
1470243809924370,-0.0493774,-0.050415,-0.810364,0.581665
1470243809945389,-0.0491333,-0.0507202,-0.810242,0.581848
1470243809961404,-0.0490112,-0.0510864,-0.810059,0.582031
1470243809983925,-0.0487061,-0.0516357,-0.809875,0.582336
1470243810004944,-0.0484009,-0.0524902,-0.809631,0.582642
1470243810021458,-0.0477295,-0.0535278,-0.809326,0.583008
1470243810044480,-0.046875,-0.0549316,-0.808899,0.583496
1470243810064997,-0.0463867,-0.0564575,-0.80835,0.584106
1470243810081515,-0.0457764,-0.0585938,-0.8078,0.584778
1470243810104033,-0.0450439,-0.0613403,-0.806946,0.585693
1470243810127055,-0.0440674,-0.0647583,-0.805725,0.587097
1470243810141065,-0.043457,-0.0688477,-0.804077,0.588928
1470243810164088,-0.0424194,-0.0741577,-0.802246,0.59082
1470243810186606,-0.0407715,-0.0802612,-0.800171,0.592957
1470243810201119,-0.0389404,-0.0869751,-0.797852,0.595276
1470243810224142,-0.0373535,-0.0940552,-0.79541,0.597595
1470243810246660,-0.0361938,-0.101501,-0.792603,0.600159
1470243810267680,-0.0354004,-0.109497,-0.789612,0.602783
1470243810284193,-0.034668,-0.118042,-0.786377,0.605408
1470243810306717,-0.0336304,-0.127197,-0.782654,0.608459
1470243810327735,-0.0323486,-0.136536,-0.778198,0.612122
1470243810344331,-0.0314331,-0.145874,-0.773499,0.616028
1470243810366349,-0.0311279,-0.155334,-0.768799,0.619568
1470243810387868,-0.0317383,-0.164856,-0.764038,0.622986
1470243810410389,-0.0310669,-0.175842,-0.758972,0.62616
1470243810426405,-0.0285645,-0.18811,-0.753662,0.62915
1470243810447922,-0.0264282,-0.199768,-0.748535,0.631775
1470243810463937,-0.026062,-0.209595,-0.743896,0.634094
1470243810486958,-0.0262451,-0.218079,-0.739563,0.636292
1470243810507977,-0.0263062,-0.226318,-0.735229,0.638367
1470243810524994,-0.0257568,-0.234253,-0.731079,0.64032
1470243810546513,-0.0246582,-0.242065,-0.727173,0.641907
1470243810567529,-0.0241699,-0.248779,-0.723694,0.64325
1470243810584044,-0.024353,-0.254211,-0.720825,0.644409
1470243810606567,-0.0245972,-0.258667,-0.718384,0.645325
1470243810628085,-0.0241699,-0.262878,-0.716064,0.646179
1470243810644099,-0.0233765,-0.266968,-0.714233,0.646606
1470243810666619,-0.0231323,-0.27002,-0.712769,0.646973
1470243810687637,-0.0231934,-0.272339,-0.711548,0.647278
1470243810704153,-0.0231323,-0.274231,-0.710693,0.647461
1470243810726674,-0.0227051,-0.275818,-0.7099,0.647644
1470243810747692,-0.0218506,-0.277283,-0.709229,0.647827
1470243810764206,-0.0210571,-0.278748,-0.708557,0.647949
1470243810786726,-0.020752,-0.279968,-0.708069,0.647949
1470243810807746,-0.0205078,-0.280945,-0.707581,0.648071
1470243810824261,-0.0199585,-0.282349,-0.706787,0.648315
1470243810846281,-0.019043,-0.283936,-0.705933,0.648621
1470243810867799,-0.0186157,-0.285339,-0.7052,0.648804
1470243810884314,-0.0182495,-0.286926,-0.704407,0.648987
1470243810906835,-0.0177612,-0.288513,-0.703552,0.64917
1470243810927853,-0.0169678,-0.290283,-0.702332,0.64978
1470243810944368,-0.015625,-0.29248,-0.700684,0.650574
1470243810966388,-0.0142822,-0.294861,-0.699036,0.651306
1470243810987909,-0.0135498,-0.29657,-0.697754,0.651917
1470243811003922,-0.0130005,-0.297974,-0.696594,0.652588
1470243811026942,-0.0115967,-0.299927,-0.69519,0.653137
1470243811047961,-0.0098877,-0.302307,-0.69397,0.653442
1470243811064475,-0.0088501,-0.304016,-0.693237,0.653381
1470243811086496,-0.00793457,-0.305237,-0.692627,0.653503
1470243811109016,-0.0065918,-0.307251,-0.691895,0.65332
1470243811123530,-0.0057373,-0.309448,-0.691833,0.652405
1470243811146549,-0.0065918,-0.309326,-0.693054,0.651123
1470243811169070,-0.0115967,-0.308594,-0.694275,0.650085
1470243811183583,-0.0174561,-0.310608,-0.694275,0.648987
1470243811207105,-0.0206299,-0.314026,-0.692322,0.649353
1470243811229124,-0.0200195,-0.317749,-0.689148,0.65094
1470243811250646,-0.0176392,-0.322144,-0.685181,0.653015
1470243811267159,-0.015564,-0.325806,-0.681213,0.655457
1470243811289177,-0.0117798,-0.329529,-0.677185,0.657776
1470243811310197,-0.00671387,-0.334045,-0.672546,0.6604
1470243811326712,-0.00231934,-0.338623,-0.668152,0.662537
1470243811349231,-0.000244141,-0.342896,-0.66449,0.664001
1470243811370250,0.0032959,-0.348389,-0.659973,0.665649
1470243811386766,0.00976563,-0.355957,-0.65332,0.668091
1470243811409286,0.0158081,-0.362732,-0.646729,0.670776
1470243811430304,0.0205078,-0.368469,-0.640381,0.673584
1470243811446819,0.022644,-0.373291,-0.634155,0.676758
1470243811468839,0.0239258,-0.377502,-0.627441,0.680664
1470243811490359,0.0249023,-0.381531,-0.620178,0.684998
1470243811506873,0.0267944,-0.386108,-0.613098,0.688721
1470243811529393,0.0270996,-0.389709,-0.6073,0.691833
1470243811550412,0.0254517,-0.391663,-0.602844,0.694702
1470243811566426,0.0228271,-0.3927,-0.598572,0.697876
1470243811588947,0.020752,-0.39325,-0.594238,0.701294
1470243811610466,0.0187988,-0.392273,-0.590454,0.705078
1470243811626481,0.0160522,-0.390076,-0.58728,0.709045
1470243811650001,0.0128174,-0.387146,-0.584351,0.713074
1470243811670020,0.00915527,-0.383179,-0.581848,0.717346
1470243811686535,0.00390625,-0.377869,-0.577515,0.723633
1470243811709055,-0.00134277,-0.371887,-0.572388,0.730835
1470243811730073,-0.00506592,-0.366211,-0.567505,0.737427
1470243811746589,-0.00921631,-0.361816,-0.563232,0.742859
1470243811769108,-0.0151367,-0.358459,-0.560669,0.746277
1470243811790631,-0.0230713,-0.355347,-0.560486,0.747742
1470243811807144,-0.0323486,-0.352722,-0.562134,0.747375
1470243811829163,-0.0421753,-0.350647,-0.563538,0.746826
1470243811851682,-0.0494995,-0.350464,-0.564087,0.746033
1470243811865695,-0.0549316,-0.35144,-0.56488,0.744568
1470243811889217,-0.0620728,-0.352966,-0.56665,0.741882
1470243811911738,-0.0673218,-0.352966,-0.57019,0.73877
1470243811927251,-0.0722046,-0.350342,-0.572693,0.73761
1470243811949271,-0.0700073,-0.348083,-0.572754,0.738831
1470243811970289,-0.0675659,-0.345764,-0.571899,0.740845
1470243811986304,-0.0678101,-0.343689,-0.570801,0.742615
1470243812009324,-0.0682983,-0.34259,-0.569092,0.744385
1470243812030344,-0.0664063,-0.341553,-0.5672,0.74646
1470243812046858,-0.0637817,-0.341187,-0.565369,0.748291
1470243812069378,-0.0625,-0.340698,-0.564026,0.749573
1470243812091899,-0.0621338,-0.340271,-0.562927,0.750671
1470243812106912,-0.0621338,-0.340027,-0.56189,0.751526
1470243812128933,-0.0620117,-0.34021,-0.560669,0.75238
1470243812158959,-0.0621338,-0.340881,-0.55896,0.753357
1470243812166466,-0.062439,-0.341736,-0.557068,0.754333
1470243812188987,-0.0626831,-0.342346,-0.555298,0.75531
1470243812219013,-0.0628052,-0.342163,-0.553406,0.756775
1470243812226020,-0.0631714,-0.341858,-0.551086,0.758545
1470243812249040,-0.0629272,-0.341797,-0.548584,0.760498
1470243812271560,-0.0618896,-0.341736,-0.546021,0.76239
1470243812286072,-0.0617065,-0.341431,-0.54364,0.764282
1470243812309094,-0.062439,-0.340881,-0.54187,0.765686
1470243812331613,-0.0632935,-0.340271,-0.540405,0.766907
1470243812346126,-0.0647583,-0.339233,-0.539246,0.768066
1470243812369148,-0.0665283,-0.338745,-0.538818,0.768494
1470243812391669,-0.0683594,-0.338745,-0.538452,0.768555
1470243812406181,-0.0696411,-0.338684,-0.538574,0.768372
1470243812429201,-0.0706787,-0.338318,-0.538269,0.768616
1470243812451721,-0.0720825,-0.338379,-0.537231,0.769226
1470243812466235,-0.0720215,-0.339355,-0.535767,0.769836
1470243812489256,-0.0713501,-0.340454,-0.534668,0.770142
1470243812511777,-0.0720825,-0.341431,-0.534546,0.769714
1470243812532794,-0.0756226,-0.34259,-0.536438,0.767578
1470243812549309,-0.0856934,-0.344238,-0.540894,0.762634
1470243812571829,-0.100647,-0.343811,-0.546265,0.757141
1470243812592848,-0.113037,-0.339111,-0.548828,0.755676
1470243812609363,-0.119751,-0.335144,-0.549377,0.755981
1470243812631884,-0.122864,-0.331177,-0.55127,0.755859
1470243812652902,-0.122314,-0.322144,-0.552551,0.758911
1470243812668417,-0.118835,-0.309387,-0.551819,0.765259
1470243812691937,-0.110657,-0.295166,-0.552551,0.771606
1470243812719963,-0.0996094,-0.276611,-0.556641,0.776978
1470243812728971,-0.0883789,-0.253296,-0.563538,0.781311
1470243812751492,-0.0731812,-0.228333,-0.570068,0.785828
1470243812773011,-0.0549316,-0.202454,-0.575073,0.790771
1470243812788524,-0.034729,-0.175659,-0.580383,0.794434
1470243812811546,-0.0107422,-0.147888,-0.586182,0.796509
1470243812832564,0.0161743,-0.118774,-0.591919,0.796997
1470243812848578,0.0444336,-0.0883789,-0.596436,0.796509
1470243812871599,0.0739746,-0.057373,-0.600464,0.794128
1470243812892617,0.104736,-0.0262451,-0.605103,0.788757
1470243812915137,0.134949,0.00561523,-0.608643,0.78186
1470243812931654,0.162598,0.0379639,-0.610718,0.774048
1470243812952671,0.1875,0.0700073,-0.611145,0.765808
1470243812968685,0.210938,0.101257,-0.609741,0.757263
1470243812991707,0.232727,0.131897,-0.607239,0.748108
1470243813014728,0.252686,0.161987,-0.603577,0.738586
1470243813028739,0.270264,0.192017,-0.598267,0.729492
1470243813051760,0.286133,0.222229,-0.591736,0.720093
1470243813073783,0.301636,0.251526,-0.584595,0.7099
1470243813088294,0.315979,0.279724,-0.577209,0.699036
1470243813112316,0.328552,0.30719,-0.568848,0.688538
1470243813135335,0.339844,0.333862,-0.559082,0.678528
1470243813155353,0.34967,0.359192,-0.548279,0.669373
1470243813171868,0.357849,0.383667,-0.538635,0.659241
1470243813194388,0.364563,0.407837,-0.530762,0.647278
1470243813215407,0.367981,0.431274,-0.523499,0.636047
1470243813231421,0.366821,0.454468,-0.515869,0.626648
1470243813253941,0.364624,0.477295,-0.508728,0.61676
1470243813274961,0.357849,0.495911,-0.504211,0.60968
1470243813291476,0.349976,0.513855,-0.500854,0.602173
1470243813313996,0.341248,0.530151,-0.496643,0.596436
1470243813335016,0.332764,0.544006,-0.492493,0.592163
1470243813351530,0.324097,0.555603,-0.489929,0.588318
1470243813374051,0.315002,0.565186,-0.489136,0.584839
1470243813395068,0.304016,0.572632,-0.488647,0.583801
1470243813411583,0.29303,0.578308,-0.486877,0.585327
1470243813434105,0.284607,0.582825,-0.48584,0.585876
1470243813455123,0.277954,0.585815,-0.487,0.585083
1470243813472639,0.271851,0.58728,-0.489624,0.58429
1470243813494158,0.266296,0.587097,-0.492615,0.584534
1470243813515176,0.260315,0.585632,-0.4953,0.586426
1470243813531191,0.253357,0.584045,-0.497009,0.5896
1470243813554211,0.245483,0.58313,-0.49823,0.592773
1470243813575733,0.237793,0.582764,-0.499817,0.594971
1470243813591747,0.231323,0.582092,-0.502319,0.596069
1470243813614265,0.226685,0.580872,-0.505005,0.596741
1470243813635285,0.223206,0.579468,-0.506897,0.597839
1470243813651798,0.219604,0.57843,-0.507874,0.599365
1470243813674321,0.215576,0.578247,-0.508301,0.600586
1470243813695337,0.211792,0.578552,-0.508911,0.601135
1470243813710853,0.208984,0.578796,-0.509827,0.601135
1470243813733872,0.206909,0.578918,-0.510559,0.601074
1470243813755392,0.204407,0.579102,-0.510803,0.601563
1470243813770906,0.206665,0.5802,-0.508728,0.601501
1470243813794428,0.206055,0.580627,-0.507019,0.602722
1470243813822452,0.203369,0.579468,-0.509888,0.602295
1470243813831462,0.204651,0.578064,-0.511963,0.601501
1470243813853981,0.205444,0.577271,-0.512512,0.60144
1470243813875002,0.205017,0.577148,-0.511719,0.602478
1470243813892016,0.204285,0.576904,-0.511047,0.603577
1470243813914035,0.203735,0.57605,-0.510559,0.604919
1470243813936555,0.203125,0.575439,-0.51001,0.60614
1470243813951068,0.202454,0.57489,-0.510071,0.606873
1470243813974090,0.202759,0.574524,-0.509827,0.6073
1470243814002613,0.203369,0.574036,-0.50946,0.60791
1470243814011626,0.204224,0.573181,-0.508972,0.608826
1470243814034143,0.204346,0.572693,-0.508606,0.609497
1470243814056666,0.204102,0.57196,-0.508911,0.610046
1470243814071676,0.204041,0.571289,-0.509521,0.610168
1470243814094196,0.203552,0.570496,-0.510315,0.610413
1470243814116717,0.202698,0.569885,-0.511353,0.610413
1470243814131230,0.20166,0.569275,-0.512695,0.610229
1470243814161758,0.2005,0.568787,-0.514038,0.609924
1470243814176770,0.199829,0.568237,-0.51532,0.609558
1470243814191284,0.199585,0.567627,-0.516296,0.609436
1470243814214304,0.199097,0.567017,-0.51709,0.609436
1470243814236824,0.198547,0.566772,-0.517639,0.609375
1470243814250837,0.198059,0.566589,-0.518311,0.609131
1470243814275361,0.197998,0.566162,-0.518799,0.609131
1470243814296377,0.198486,0.565491,-0.519592,0.608948
1470243814310892,0.199341,0.564514,-0.520325,0.608887
1470243814334412,0.200684,0.563293,-0.521301,0.608826
1470243814357437,0.201782,0.562378,-0.522339,0.608337
1470243814370944,0.203003,0.561523,-0.523071,0.608093
1470243814393966,0.203918,0.56073,-0.523376,0.608276
1470243814416986,0.204468,0.559875,-0.523315,0.608948
1470243814439006,0.20459,0.559265,-0.523132,0.609619
1470243814454019,0.204468,0.558838,-0.52301,0.610107
1470243814476540,0.204407,0.558289,-0.522888,0.610779
1470243814497558,0.204224,0.557678,-0.522705,0.611572
1470243814514073,0.203491,0.55719,-0.522339,0.612549
1470243814536593,0.202271,0.556885,-0.521729,0.61377
1470243814557614,0.200989,0.556641,-0.521118,0.614929
1470243814574129,0.199646,0.556519,-0.520752,0.615784
1470243814596650,0.198547,0.556396,-0.520569,0.616394
1470243814617666,0.197571,0.556335,-0.520813,0.616577
1470243814634181,0.197144,0.555969,-0.521484,0.616455
1470243814662707,0.196655,0.555725,-0.521973,0.616455
1470243814677720,0.19635,0.555237,-0.522583,0.616455
1470243814694236,0.195984,0.554504,-0.523132,0.61676
1470243814716755,0.195496,0.554138,-0.523376,0.617004
1470243814739276,0.19519,0.554016,-0.523621,0.617065
1470243814753789,0.194946,0.553894,-0.523926,0.616943
1470243814776810,0.194641,0.553894,-0.524109,0.616943
1470243814797828,0.194519,0.553711,-0.524231,0.617004
1470243814820348,0.194214,0.553589,-0.524353,0.617126
1470243814836863,0.193848,0.553467,-0.524353,0.617371
1470243814857882,0.193359,0.553467,-0.524231,0.617615
1470243814874397,0.192993,0.553528,-0.52417,0.617737
1470243814896417,0.192627,0.553589,-0.524048,0.617859
1470243814901922,0.192444,0.553345,-0.523987,0.618164
1470243814924442,0.191833,0.553223,-0.523865,0.618591
1470243814940957,0.191284,0.552979,-0.523804,0.61908
1470243814961976,0.190674,0.552795,-0.523743,0.619446
1470243814984496,0.190247,0.552673,-0.523682,0.619751
1470243814999510,0.189819,0.552429,-0.52356,0.620178
1470243815023535,0.189392,0.552368,-0.523193,0.620667
1470243815044550,0.188965,0.552368,-0.523193,0.620789
1470243815059565,0.188782,0.552124,-0.52356,0.620728
1470243815085086,0.188599,0.552063,-0.523926,0.620605
1470243815104603,0.18811,0.552002,-0.524048,0.620667
1470243815127125,0.187744,0.552063,-0.523987,0.620789
1470243815142145,0.187439,0.552063,-0.523926,0.620972
1470243815164658,0.187378,0.552124,-0.523743,0.621033
1470243815179671,0.187378,0.552063,-0.523743,0.621033
1470243815202190,0.187439,0.552063,-0.523743,0.621033
1470243815224711,0.187256,0.552368,-0.52356,0.620972
1470243815241228,0.187012,0.552673,-0.523254,0.621033
1470243815262246,0.186829,0.55304,-0.522827,0.621155
1470243815284765,0.187073,0.553345,-0.522461,0.621094
1470243815302282,0.187317,0.553711,-0.522095,0.621094
1470243815321800,0.187439,0.554138,-0.521973,0.620728
1470243815344819,0.187805,0.554504,-0.521912,0.6203
1470243815359834,0.188354,0.554688,-0.521973,0.619934
1470243815382353,0.188904,0.554688,-0.522095,0.619629
1470243815404372,0.189514,0.554504,-0.5224,0.619446
1470243815419387,0.19043,0.554138,-0.52301,0.618958
1470243815441908,0.191223,0.553467,-0.523682,0.618713
1470243815472435,0.191772,0.553101,-0.524048,0.61853
1470243815488448,0.191711,0.552612,-0.524475,0.618591
1470243815501961,0.192017,0.552063,-0.525208,0.618408
1470243815524483,0.192749,0.551392,-0.526184,0.61792
1470243815542496,0.193848,0.550659,-0.526978,0.617615
1470243815562014,0.19458,0.550232,-0.527161,0.617615
1470243815584535,0.194885,0.55011,-0.527283,0.617493
1470243815601050,0.195313,0.550049,-0.527405,0.61731
1470243815622068,0.195923,0.549866,-0.527649,0.617065
1470243815644590,0.196594,0.5495,-0.527893,0.617004
1470243815661104,0.197205,0.549255,-0.528076,0.616882
1470243815682123,0.197632,0.549011,-0.528381,0.616699
1470243815704642,0.197815,0.548828,-0.528687,0.616516
1470243815721157,0.197998,0.548645,-0.528931,0.616394
1470243815742175,0.197998,0.548401,-0.529236,0.616333
1470243815768199,0.197815,0.548157,-0.529419,0.616516
1470243815781211,0.197571,0.547974,-0.529602,0.616577
1470243815802229,0.197327,0.547791,-0.529907,0.616516
1470243815827252,0.197144,0.547424,-0.530334,0.616577
1470243815842767,0.196777,0.547119,-0.53064,0.616699
1470243815862283,0.196167,0.546936,-0.530701,0.617004
1470243815884304,0.195435,0.546631,-0.530884,0.61731
1470243815902322,0.195068,0.546204,-0.531067,0.617676
1470243815922337,0.194641,0.545959,-0.53125,0.61792
1470243815944357,0.194519,0.545776,-0.531677,0.617737
1470243815962374,0.194336,0.545532,-0.532104,0.617615
1470243815982392,0.194214,0.545288,-0.53241,0.617615
1470243816004412,0.193481,0.545105,-0.532593,0.617798
1470243816022428,0.192627,0.544983,-0.532837,0.617981
1470243816049453,0.191956,0.544861,-0.533264,0.61792
1470243816064965,0.191528,0.544739,-0.533813,0.617737
1470243816082482,0.191284,0.544495,-0.534302,0.617554
1470243816102000,0.191101,0.544312,-0.534668,0.617493
1470243816124521,0.190674,0.54425,-0.53479,0.617554
1470243816142537,0.190125,0.54425,-0.534973,0.617615
1470243816162053,0.189758,0.544189,-0.535156,0.617615
1470243816184572,0.189575,0.544128,-0.535339,0.617554
1470243816210096,0.189575,0.544128,-0.535339,0.617554
1470243816222107,0.189575,0.544128,-0.535339,0.617554
1470243816244629,0.189514,0.544128,-0.535339,0.617554
1470243816262643,0.189514,0.544128,-0.535339,0.617554
1470243816282161,0.189514,0.544128,-0.535339,0.617554
1470243816304681,0.189514,0.544128,-0.535339,0.617554
1470243816322697,0.189514,0.544128,-0.535339,0.617554
1470243816342215,0.18927,0.544128,-0.535339,0.617615
1470243816364735,0.188843,0.544312,-0.535278,0.617676
1470243816382752,0.188782,0.544556,-0.535034,0.617676
1470243816403270,0.189026,0.544861,-0.534851,0.617493
1470243816424789,0.189453,0.544983,-0.53479,0.61731
1470243816442305,0.18988,0.545166,-0.534485,0.617249
1470243816463324,0.190491,0.545532,-0.533997,0.617188
1470243816492350,0.190979,0.545898,-0.533447,0.617188
1470243816502359,0.19165,0.546265,-0.532898,0.617126
1470243816523878,0.192383,0.54657,-0.53241,0.617004
1470243816544898,0.193115,0.546814,-0.531982,0.616943
1470243816562412,0.193726,0.547119,-0.531433,0.617004
1470243816583433,0.194092,0.547424,-0.530823,0.617126
1470243816604450,0.194397,0.547791,-0.530273,0.617188
1470243816622467,0.19458,0.547913,-0.529785,0.617432
1470243816650992,0.194824,0.548035,-0.529297,0.617676
1470243816664504,0.194885,0.548096,-0.528992,0.617859
1470243816690529,0.194946,0.548096,-0.528809,0.617981
1470243816703541,0.195251,0.548035,-0.528625,0.618103
1470243816724559,0.195251,0.548096,-0.52832,0.618286
1470243816742574,0.19519,0.548218,-0.527954,0.618591
1470243816765095,0.195129,0.548279,-0.527588,0.618774
1470243816784612,0.195068,0.54834,-0.527405,0.618958
1470243816802628,0.19519,0.548401,-0.5271,0.61908
1470243816825149,0.195129,0.548584,-0.526733,0.619263
1470243816844665,0.195007,0.548889,-0.526001,0.619629
1470243816862681,0.195129,0.549377,-0.525208,0.619873
1470243816885201,0.195557,0.549805,-0.524231,0.620178
1470243816904719,0.195984,0.55011,-0.523193,0.620605
1470243816922236,0.196167,0.550659,-0.521973,0.621094
1470243816944756,0.196777,0.551392,-0.520447,0.621582
1470243816964773,0.197998,0.552063,-0.518738,0.622009
1470243816982289,0.199707,0.552551,-0.516602,0.622803
1470243817004810,0.201294,0.553223,-0.514221,0.623657
1470243817024829,0.203369,0.554199,-0.511414,0.624451
1470243817047347,0.206116,0.554993,-0.508118,0.625488
1470243817069368,0.209351,0.555603,-0.504333,0.626892
1470243817084381,0.213013,0.556152,-0.500122,0.628601
1470243817102397,0.217102,0.556519,-0.495422,0.630615
1470243817125919,0.221069,0.556824,-0.490601,0.63269
1470243817144935,0.224976,0.556946,-0.486084,0.634705
1470243817162451,0.229065,0.556946,-0.48175,0.636597
1470243817184974,0.233032,0.556885,-0.477295,0.638489
1470243817204489,0.236816,0.556885,-0.4729,0.640381
1470243817222505,0.240356,0.556824,-0.468201,0.642578
1470243817245026,0.243835,0.556641,-0.46344,0.644897
1470243817264543,0.246826,0.55658,-0.459045,0.646912
1470243817294570,0.25,0.556396,-0.454773,0.648865
1470243817305080,0.253418,0.55603,-0.450745,0.650696
1470243817324600,0.256653,0.555603,-0.446899,0.652466
1470243817347118,0.259827,0.555054,-0.443298,0.654053
1470243817365133,0.262756,0.554626,-0.440063,0.655457
1470243817386152,0.265198,0.554138,-0.437317,0.656738
1470243817402666,0.266785,0.553833,-0.43512,0.657837
1470243817424188,0.267334,0.553589,-0.433472,0.658875
1470243817445206,0.267151,0.553406,-0.432068,0.659973
1470243817467726,0.266907,0.553345,-0.430603,0.661133
1470243817484240,0.266907,0.553284,-0.429443,0.661926
1470243817505260,0.26709,0.553101,-0.428711,0.662476
1470243817521773,0.26709,0.552979,-0.428223,0.662903
1470243817544294,0.266296,0.553101,-0.42804,0.663208
1470243817567815,0.265381,0.553223,-0.427795,0.663635
1470243817581829,0.265015,0.553162,-0.427612,0.66394
1470243817610353,0.264954,0.552979,-0.427673,0.664124
1470243817625367,0.264832,0.552856,-0.427734,0.664185
1470243817641883,0.264526,0.552795,-0.427856,0.664307
1470243817664401,0.264038,0.552856,-0.42804,0.664368
1470243817685421,0.263672,0.552795,-0.428406,0.664307
1470243817701936,0.263245,0.552734,-0.42865,0.664368
1470243817724456,0.262878,0.552734,-0.428833,0.664368
1470243817746475,0.262756,0.552612,-0.429138,0.664368
1470243817761989,0.262634,0.552673,-0.429321,0.664246
1470243817799022,0.262573,0.552734,-0.429504,0.664063
1470243817807030,0.263,0.552734,-0.42981,0.663696
1470243817821544,0.263794,0.552673,-0.430176,0.663208
1470243817844064,0.264893,0.552795,-0.430664,0.662354
1470243817866583,0.266846,0.553101,-0.431519,0.660767
1470243817887602,0.269714,0.553711,-0.432861,0.658203
1470243817910124,0.273193,0.55481,-0.434814,0.654541
1470243817934144,0.2771,0.556641,-0.437073,0.64978
1470243817947657,0.281128,0.559021,-0.439758,0.644226
1470243817964171,0.285034,0.562134,-0.442749,0.637756
1470243817986691,0.288452,0.56604,-0.446106,0.63031
1470243818007711,0.291504,0.570313,-0.450073,0.622192
1470243818024728,0.293823,0.57489,-0.454529,0.613586
1470243818046746,0.295166,0.579651,-0.459412,0.604797
1470243818067764,0.295471,0.584534,-0.464417,0.596008
1470243818084278,0.2948,0.589294,-0.469482,0.587646
1470243818106801,0.292969,0.594177,-0.474609,0.579529
1470243818127820,0.290344,0.598694,-0.479736,0.571899
1470243818144333,0.286926,0.602905,-0.485291,0.564453
1470243818166853,0.282532,0.606567,-0.491516,0.557373
1470243818187871,0.276978,0.610291,-0.497742,0.550476
1470243818204387,0.27063,0.614014,-0.504395,0.543396
1470243818226907,0.264587,0.617798,-0.511353,0.535522
1470243818247925,0.259399,0.621216,-0.518433,0.527283
1470243818264440,0.254456,0.624512,-0.525024,0.519165
1470243818286960,0.24884,0.628296,-0.530762,0.511414
1470243818307979,0.243042,0.632568,-0.535767,0.503601
1470243818324498,0.237671,0.63678,-0.540527,0.495789
1470243818347015,0.23291,0.640747,-0.545044,0.487976
1470243818368034,0.228394,0.64502,-0.548706,0.480225
1470243818384048,0.223938,0.649292,-0.551941,0.4729
1470243818407069,0.21936,0.653503,-0.55481,0.46582
1470243818428087,0.214905,0.657654,-0.557556,0.458679
1470243818443602,0.211304,0.661377,-0.559875,0.452087
1470243818466622,0.208679,0.664673,-0.561523,0.446411
1470243818487640,0.206482,0.667786,-0.562622,0.441467
1470243818503655,0.204407,0.670715,-0.563354,0.436951
1470243818526677,0.202637,0.673462,-0.564209,0.432495
1470243818547695,0.201538,0.675659,-0.565308,0.428101
1470243818564210,0.200928,0.677368,-0.566467,0.424133
1470243818586730,0.2005,0.678894,-0.567017,0.421082
1470243818607751,0.200073,0.680481,-0.567017,0.418823
1470243818623764,0.199463,0.681885,-0.566711,0.417114
1470243818646784,0.199036,0.682983,-0.56665,0.41571
1470243818667803,0.198914,0.683594,-0.566772,0.414551
1470243818684317,0.198975,0.683838,-0.566956,0.413879
1470243818706841,0.198975,0.683838,-0.566895,0.413879
1470243818736864,0.198914,0.683838,-0.566711,0.414246
1470243818744372,0.198547,0.683655,-0.566589,0.414856
1470243818766891,0.198303,0.683228,-0.56665,0.415649
1470243818789412,0.19812,0.682678,-0.566772,0.416443
1470243818804425,0.197876,0.682007,-0.566895,0.41748
1470243818826945,0.19751,0.681396,-0.566895,0.41864
1470243818849966,0.196899,0.680786,-0.567017,0.419739
1470243818863479,0.196289,0.680115,-0.567261,0.420715
1470243818886499,0.195679,0.679382,-0.56781,0.421448
1470243818909520,0.195129,0.678711,-0.56842,0.422119
1470243818923533,0.194336,0.678284,-0.568848,0.422546
1470243818946554,0.193359,0.677979,-0.569397,0.422729
1470243818969074,0.192444,0.677673,-0.570129,0.422668
1470243818983586,0.191711,0.677307,-0.570923,0.422485
1470243819007611,0.190796,0.677185,-0.571594,0.422302
1470243819029628,0.189819,0.677063,-0.572083,0.422241
1470243819044641,0.188843,0.677063,-0.572449,0.422119
1470243819066661,0.187866,0.676941,-0.572937,0.422119
1470243819089181,0.187073,0.676636,-0.573303,0.422424
1470243819103694,0.186096,0.67627,-0.573303,0.423401
1470243819126715,0.184631,0.675903,-0.573059,0.424988
1470243819149235,0.183044,0.675293,-0.572632,0.427185
1470243819170253,0.181274,0.674133,-0.572449,0.430054
1470243819186769,0.178955,0.672424,-0.572327,0.433838
1470243819209289,0.176086,0.670044,-0.572205,0.438843
1470243819230308,0.172241,0.667419,-0.572205,0.444275
1470243819246823,0.168152,0.664429,-0.572693,0.449768
1470243819269343,0.164307,0.660278,-0.574402,0.455078
1470243819290862,0.160706,0.655518,-0.576355,0.460693
1470243819307380,0.156616,0.650452,-0.57843,0.466614
1470243819329397,0.1521,0.645569,-0.580383,0.472473
1470243819350416,0.147522,0.640625,-0.582336,0.47821
1470243819366930,0.142822,0.635742,-0.584167,0.483887
1470243819389450,0.138184,0.630615,-0.585999,0.489685
1470243819410470,0.133423,0.625366,-0.587891,0.495483
1470243819426985,0.128052,0.620422,-0.589722,0.500916
1470243819449005,0.122559,0.615662,-0.591675,0.505737
1470243819470524,0.117432,0.610718,-0.594055,0.510132
1470243819487038,0.112427,0.605835,-0.596619,0.51416
1470243819509559,0.107483,0.601135,-0.599304,0.517578
1470243819537602,0.102478,0.596741,-0.602234,0.520325
1470243819546110,0.0977173,0.592651,-0.605286,0.522278
1470243819569131,0.0932617,0.58905,-0.608093,0.523926
1470243819590651,0.0895386,0.585999,-0.610352,0.525391
1470243819606165,0.0863647,0.583496,-0.612183,0.52655
1470243819629684,0.0838013,0.58136,-0.613831,0.527466
1470243819651704,0.0817871,0.579346,-0.615479,0.528015
1470243819666217,0.0803833,0.577637,-0.617004,0.528381
1470243819689238,0.0794067,0.576233,-0.618103,0.528748
1470243819711759,0.0783691,0.575256,-0.618835,0.529053
1470243819732777,0.0775757,0.57489,-0.619202,0.529175
1470243819749291,0.0769653,0.574768,-0.619385,0.529175
1470243819771812,0.0769653,0.574768,-0.619385,0.529175
1470243819786325,0.0773926,0.57489,-0.619568,0.528809
1470243819809346,0.0783691,0.575073,-0.619324,0.528748
1470243819831866,0.0794067,0.575378,-0.618652,0.528992
1470243819845879,0.0805054,0.575989,-0.617676,0.529297
1470243819868989,0.0823364,0.57666,-0.616394,0.529846
1470243819892010,0.0846558,0.577209,-0.614746,0.530762
1470243819913027,0.0873413,0.57782,-0.612793,0.531921
1470243819929042,0.0905151,0.578308,-0.610535,0.533447
1470243819951563,0.0938721,0.578796,-0.608215,0.535034
1470243819972582,0.0975342,0.579224,-0.605774,0.536682
1470243819989096,0.101563,0.579712,-0.603027,0.538513
1470243820011618,0.105774,0.580261,-0.599854,0.540588
1470243820032635,0.110107,0.580627,-0.596619,0.542908
1470243820049150,0.11438,0.580933,-0.593384,0.545227
1470243820071670,0.118652,0.581238,-0.590088,0.547607
1470243820092689,0.122498,0.581543,-0.586914,0.549805
1470243820109208,0.126343,0.581604,-0.583984,0.552002
1470243820132225,0.129822,0.58136,-0.581482,0.554077
1470243820152744,0.13208,0.580811,-0.579346,0.556335
1470243820175264,0.133606,0.579712,-0.577942,0.558533
1470243820191780,0.137573,0.580933,-0.575195,0.559204
1470243820212798,0.137512,0.579041,-0.575073,0.56134
1470243820229312,0.140442,0.580139,-0.572937,0.561584
1470243820251832,0.141296,0.579468,-0.572571,0.562439
1470243820272851,0.140686,0.578186,-0.57312,0.563416
1470243820290369,0.138733,0.576782,-0.574036,0.564331
1470243820311886,0.135559,0.575684,-0.5755,0.564758
1470243820332905,0.131592,0.574463,-0.578003,0.564392
1470243820349422,0.126892,0.572937,-0.581238,0.563721
1470243820371940,0.121826,0.571411,-0.584778,0.562683
1470243820392959,0.116699,0.569824,-0.588562,0.561523
1470243820409473,0.111511,0.568115,-0.592285,0.560303
1470243820431995,0.106384,0.566406,-0.595947,0.559143
1470243820454014,0.101257,0.564819,-0.599609,0.5578
1470243820468528,0.0960083,0.563599,-0.603027,0.556335
1470243820492048,0.0910034,0.562439,-0.606262,0.55481
1470243820513068,0.0864258,0.561157,-0.609436,0.553284
1470243820536588,0.0822144,0.560242,-0.612122,0.551941
1470243820551602,0.0783691,0.559753,-0.61438,0.550537
1470243820572621,0.0756836,0.559448,-0.616455,0.548828
1470243820588634,0.0738525,0.559265,-0.618347,0.54718
1470243820611656,0.0730591,0.559692,-0.619629,0.545349
1470243820634176,0.0730591,0.560974,-0.620422,0.543213
1470243820648689,0.0740967,0.562744,-0.62085,0.54071
1470243820671709,0.0759277,0.56488,-0.620972,0.538025
1470243820694232,0.078064,0.567505,-0.620789,0.535156
1470243820708743,0.0803833,0.570618,-0.620361,0.531982
1470243820731763,0.0827026,0.574219,-0.619873,0.52832
1470243820754283,0.085144,0.578125,-0.619385,0.524231
1470243820769297,0.0877075,0.582336,-0.618835,0.519836
1470243820791818,0.090332,0.586792,-0.618103,0.515259
1470243820814339,0.0928345,0.591614,-0.617188,0.510315
1470243820835356,0.0953979,0.596619,-0.616272,0.505066
1470243820851871,0.0980225,0.601685,-0.61554,0.499451
1470243820874391,0.100891,0.606689,-0.614685,0.493774
1470243820895411,0.103943,0.611938,-0.613586,0.488037
1470243820912428,0.107239,0.61731,-0.612183,0.4823
1470243820934445,0.110718,0.622559,-0.610779,0.476563
1470243820955463,0.114441,0.627808,-0.609009,0.471008
1470243820971978,0.118286,0.632935,-0.607056,0.465698
1470243820994000,0.122375,0.637939,-0.605042,0.460449
1470243821015018,0.126648,0.642578,-0.603027,0.455383
1470243821031532,0.130859,0.647034,-0.601013,0.4505
1470243821061559,0.134888,0.651245,-0.599121,0.445679
1470243821075073,0.138611,0.655334,-0.597229,0.441162
1470243821092088,0.142029,0.659302,-0.595276,0.436768
1470243821114107,0.145081,0.662964,-0.593445,0.432617
1470243821135125,0.147705,0.666687,-0.591492,0.428772
1470243821151642,0.14978,0.670288,-0.5896,0.424927
1470243821174161,0.15155,0.673401,-0.588074,0.421509
1470243821202686,0.153076,0.676086,-0.586853,0.418457
1470243821211694,0.154297,0.678345,-0.585815,0.415771
1470243821241724,0.155396,0.680115,-0.584961,0.413635
1470243821255233,0.156311,0.681519,-0.584167,0.412048
1470243821271748,0.157104,0.682617,-0.583557,0.410828
1470243821294268,0.157776,0.683289,-0.583191,0.409973
1470243821315289,0.158264,0.683777,-0.582947,0.409302
1470243821331802,0.158386,0.684143,-0.582764,0.408875
1470243821354323,0.158203,0.684326,-0.582764,0.408691
1470243821375342,0.157776,0.684387,-0.582825,0.40863
1470243821391856,0.15686,0.68457,-0.583069,0.408386
1470243821414376,0.155701,0.684753,-0.583435,0.407959
1470243821436896,0.154541,0.684875,-0.583984,0.407471
1470243821451909,0.153198,0.685059,-0.584473,0.406921
1470243821474431,0.151489,0.685547,-0.584839,0.406189
1470243821495448,0.149841,0.685974,-0.585449,0.405212
1470243821511963,0.14856,0.686218,-0.586304,0.404114
1470243821534485,0.147339,0.686523,-0.586914,0.403076
1470243821556503,0.145935,0.687134,-0.587219,0.4021
1470243821571517,0.144531,0.687805,-0.587524,0.401001
1470243821594037,0.143188,0.688599,-0.587769,0.39978
1470243821616557,0.141968,0.68927,-0.588196,0.398438
1470243821631571,0.140503,0.690186,-0.588318,0.397217
1470243821654091,0.138672,0.69165,-0.587646,0.39624
1470243821676612,0.136353,0.693726,-0.586121,0.395691
1470243821691627,0.133667,0.695984,-0.58429,0.395386
1470243821714145,0.130798,0.697754,-0.583374,0.394592
1470243821736665,0.128418,0.698547,-0.583923,0.393066
1470243821758187,0.126465,0.69873,-0.585266,0.391357
1470243821774200,0.12439,0.699219,-0.585999,0.390137
1470243821796719,0.121582,0.700256,-0.585938,0.38916
1470243821817737,0.118408,0.701599,-0.585876,0.387878
1470243821834253,0.115295,0.702576,-0.586304,0.386353
1470243821857775,0.112427,0.703552,-0.586792,0.384766
1470243821877793,0.109497,0.704651,-0.587158,0.382996
1470243821894307,0.106323,0.706055,-0.58728,0.381104
1470243821916827,0.103271,0.707397,-0.587463,0.37915
1470243821938347,0.100159,0.70874,-0.587646,0.377136
1470243821954361,0.0971069,0.710327,-0.587524,0.375244
1470243821976881,0.0939941,0.711853,-0.587463,0.37323
1470243821997900,0.0911255,0.713196,-0.587524,0.371155
1470243822014414,0.0883789,0.714294,-0.588135,0.368835
1470243822036935,0.0858154,0.715149,-0.588989,0.366394
1470243822058457,0.0830688,0.716125,-0.589905,0.363647
1470243822074468,0.0800781,0.717346,-0.590698,0.360657
1470243822096989,0.0769653,0.718811,-0.591187,0.357544
1470243822117507,0.0737915,0.720398,-0.591553,0.354431
1470243822134022,0.0703735,0.721802,-0.592224,0.351135
1470243822157044,0.0668945,0.723022,-0.593018,0.347961
1470243822178061,0.0633545,0.723938,-0.593811,0.345276
1470243822194576,0.0596924,0.724854,-0.594543,0.342773
1470243822216596,0.0560303,0.725647,-0.595215,0.340515
1470243822237617,0.0523682,0.726379,-0.595886,0.33844
1470243822255631,0.0488281,0.726929,-0.596558,0.336487
1470243822277151,0.0456543,0.727356,-0.59729,0.334778
1470243822297669,0.0426636,0.727722,-0.597961,0.333252
1470243822321691,0.0400391,0.727905,-0.598572,0.332031
1470243822336704,0.0380249,0.727905,-0.599182,0.331238
1470243822365229,0.036499,0.727783,-0.599487,0.330994
1470243822375739,0.0354614,0.7276,-0.599548,0.331299
1470243822396759,0.0349731,0.727417,-0.599548,0.33197
1470243822417776,0.0348511,0.727112,-0.599487,0.332581
1470243822434292,0.0350342,0.726929,-0.599365,0.333313
1470243822457815,0.0355835,0.726563,-0.599304,0.334167
1470243822477831,0.0361328,0.726318,-0.59906,0.335083
1470243822494346,0.0366821,0.72644,-0.598389,0.335938
1470243822516866,0.0372925,0.726501,-0.597961,0.336426
1470243822546893,0.0380859,0.726685,-0.597595,0.336609
1470243822554400,0.0388184,0.726929,-0.59729,0.33667
1470243822576921,0.0394287,0.727234,-0.596863,0.336609
1470243822599439,0.0400391,0.727661,-0.596436,0.336426
1470243822614453,0.0405273,0.728088,-0.596069,0.33606
1470243822636473,0.0409546,0.728455,-0.595764,0.335632
1470243822658997,0.0414429,0.728821,-0.595642,0.335083
1470243822664499,0.0418091,0.729126,-0.59552,0.334656
1470243822682515,0.0422363,0.729431,-0.595276,0.33429
1470243822703534,0.0426636,0.729797,-0.59491,0.334045
1470243822724554,0.0431519,0.730164,-0.594482,0.333984
1470243822741069,0.0436401,0.730286,-0.594299,0.333984
1470243822762086,0.0440674,0.730408,-0.594177,0.333801
1470243822793113,0.0444336,0.730469,-0.594116,0.33374
1470243822801121,0.0446777,0.730652,-0.593994,0.333618
1470243822822140,0.0449829,0.730896,-0.593689,0.333496
1470243822844662,0.0452881,0.731262,-0.593323,0.333435
1470243822868682,0.0456543,0.731567,-0.592896,0.333435
1470243822882194,0.0459595,0.731873,-0.59259,0.333313
1470243822904715,0.0462646,0.732117,-0.592224,0.333252
1470243822921229,0.0465088,0.732544,-0.591858,0.333008
1470243822942249,0.046814,0.732849,-0.591492,0.332947
1470243822964768,0.0470581,0.733337,-0.591003,0.332703
1470243822981283,0.0473022,0.733826,-0.590637,0.332336
1470243823002301,0.0476685,0.734314,-0.59021,0.331909
1470243823025323,0.0480347,0.734802,-0.589844,0.33136
1470243823041337,0.0484009,0.735474,-0.589294,0.330811
1470243823062355,0.0490112,0.736206,-0.588684,0.330139
1470243823092883,0.0498657,0.736755,-0.588257,0.329651
1470243823100890,0.0506592,0.737183,-0.587769,0.329468
1470243823122411,0.0512085,0.737732,-0.587341,0.328796
1470243823152938,0.0517578,0.738342,-0.587097,0.32782
1470243823160945,0.0523682,0.738953,-0.586792,0.326843
1470243823181963,0.0528564,0.739868,-0.586243,0.325623
1470243823204483,0.0532837,0.740845,-0.585754,0.324158
1470243823220998,0.0536499,0.742004,-0.585205,0.322693
1470243823242520,0.0540161,0.743347,-0.584412,0.32074
1470243823264537,0.0544434,0.745239,-0.583496,0.318054
1470243823281052,0.0542603,0.74884,-0.580688,0.314819
1470243823309578,0.0548706,0.754272,-0.574341,0.313293
1470243823325093,0.0592041,0.759216,-0.566101,0.315491
1470243823342610,0.0679932,0.76178,-0.559143,0.319946
1470243823362126,0.0793457,0.761536,-0.555115,0.325012
1470243823384646,0.0928955,0.759033,-0.552856,0.330994
1470243823402662,0.107666,0.755493,-0.551086,0.337463
1470243823422179,0.122437,0.752991,-0.547119,0.344421
1470243823444699,0.135803,0.751709,-0.541016,0.351746
1470243823462715,0.147705,0.751282,-0.534363,0.358032
1470243823482232,0.158752,0.75,-0.529724,0.362793
1470243823513761,0.169189,0.74762,-0.5271,0.36676
1470243823522769,0.179077,0.744446,-0.525513,0.370789
1470243823542287,0.187927,0.740906,-0.52356,0.376282
1470243823564807,0.195923,0.737549,-0.51947,0.384338
1470243823582824,0.202271,0.734131,-0.515625,0.3927
1470243823603342,0.207336,0.730103,-0.513123,0.400818
1470243823624864,0.211731,0.72467,-0.512207,0.409363
1470243823649883,0.217468,0.716919,-0.512512,0.419495
1470243823662895,0.222534,0.707764,-0.514221,0.430237
1470243823684914,0.225952,0.696716,-0.516968,0.442993
1470243823702430,0.230347,0.685547,-0.51886,0.45575
1470243823738462,0.231018,0.673157,-0.520569,0.471619
1470243823744971,0.231384,0.660278,-0.520142,0.489807
1470243823762484,0.229675,0.644226,-0.519897,0.51178
1470243823790009,0.226135,0.625244,-0.522034,0.53418
1470243823805023,0.22113,0.603821,-0.526062,0.556519
1470243823822540,0.214844,0.579956,-0.530212,0.579895
1470243823849562,0.207031,0.553284,-0.533386,0.605347
1470243823864576,0.195984,0.524231,-0.5354,0.632568
1470243823882592,0.182068,0.493164,-0.535889,0.660645
1470243823902610,0.166382,0.459717,-0.534363,0.689514
1470243823925131,0.149536,0.423401,-0.530884,0.718628
1470243823942646,0.13092,0.384094,-0.525513,0.747742
1470243823963668,0.109802,0.342163,-0.517395,0.776611
1470243823984684,0.0866699,0.299805,-0.506287,0.803894
1470243824002701,0.0640869,0.257263,-0.49353,0.828308
1470243824022217,0.0452271,0.213745,-0.480103,0.849548
1470243824044738,0.0310059,0.172546,-0.465454,0.867493
1470243824067258,0.0212402,0.135681,-0.449219,0.882751
1470243824083772,0.0158081,0.100891,-0.431274,0.896423
1470243824104791,0.0134277,0.0689697,-0.411743,0.908569
1470243824122307,0.0098877,0.0427246,-0.391052,0.919312
1470243824143328,0.0045166,0.0219116,-0.371887,0.927979
1470243824164845,0.000244141,0.00494385,-0.355469,0.934692
1470243824182361,-0.00012207,-0.0115967,-0.342224,0.939514
1470243824203380,-0.000488281,-0.026062,-0.330811,0.943298
1470243824224900,-0.00238037,-0.0371094,-0.322937,0.945679
1470243824242916,-0.00366211,-0.0452881,-0.319641,0.946411
1470243824263434,-0.003479,-0.0516968,-0.319519,0.946167
1470243824284953,-0.00500488,-0.057251,-0.322144,0.944946
1470243824302469,-0.00756836,-0.0610962,-0.329041,0.942261
1470243824323992,-0.00866699,-0.0634155,-0.339172,0.938538
1470243824347510,-0.00921631,-0.0648193,-0.351563,0.933838
1470243824362523,-0.0105591,-0.0651245,-0.366699,0.927979
1470243824385044,-0.0114136,-0.0623169,-0.384888,0.920776
1470243824404562,-0.0102539,-0.0594482,-0.406006,0.911865
1470243824422577,-0.00854492,-0.0565796,-0.42981,0.901062
1470243824445097,-0.00769043,-0.0528564,-0.456543,0.888062
1470243824464615,-0.00848389,-0.0474243,-0.486145,0.872498
1470243824482631,-0.00836182,-0.0401611,-0.5177,0.854553
1470243824505152,-0.00665283,-0.0321045,-0.55072,0.834045
1470243824532175,-0.0043335,-0.0238647,-0.585205,0.810547
1470243824542685,-0.00158691,-0.0144043,-0.620789,0.783875
1470243824565205,0.00311279,-0.00421143,-0.656433,0.754395
1470243824584722,0.00909424,0.00598145,-0.691589,0.722229
1470243824602739,0.0152588,0.015686,-0.726318,0.687012
1470243824629763,0.0214233,0.0244141,-0.759644,0.649536
1470243824644776,0.027771,0.0325317,-0.79071,0.610718
1470243824662792,0.0349121,0.0401611,-0.819397,0.570801
1470243824685313,0.043396,0.0463867,-0.845886,0.529602
1470243824705334,0.052124,0.0506592,-0.870361,0.487061
1470243824727352,0.0585327,0.0552368,-0.8927,0.443359
1470243824744866,0.0637207,0.0595093,-0.91272,0.39917
1470243824764884,0.0657349,0.0656128,-0.930237,0.355042
1470243824782400,0.0645142,0.0745239,-0.945129,0.311523
1470243824804920,0.0611572,0.0855103,-0.957336,0.269165
1470243824832444,0.0559082,0.0977173,-0.96698,0.228821
1470243824848459,0.0494995,0.110718,-0.974243,0.190125
1470243824864974,0.0437012,0.124084,-0.979309,0.153748
1470243824884992,0.0385742,0.137451,-0.982422,0.120605
1470243824902508,0.0344238,0.151611,-0.983582,0.0917358
1470243824925029,0.0310059,0.165588,-0.983398,0.0681763
1470243824952553,0.0280151,0.177002,-0.982605,0.0490723
1470243824962561,0.0253296,0.189148,-0.981079,0.03302
1470243824985082,0.0231934,0.199219,-0.979492,0.0203857
1470243825006101,0.0223389,0.20752,-0.977905,0.0114746
1470243825022615,0.022583,0.214539,-0.97644,0.00561523
1470243825045136,0.0227051,0.220154,-0.97522,0.00262451
1470243825066155,0.0219116,0.224487,-0.974243,0.00323486
1470243825082669,0.0211182,0.227173,-0.973633,0.00714111
1470243825105190,0.0213623,0.228149,-0.973328,0.0141602
1470243825126209,0.0220337,0.227234,-0.973267,0.0245361
1470243825142726,0.0229492,0.224976,-0.973389,0.0383911
1470243825165245,0.0245972,0.221985,-0.973206,0.0551147
1470243825185262,0.0270386,0.216187,-0.973083,0.0754395
1470243825208284,0.0304565,0.208618,-0.972473,0.0997314
1470243825224299,0.0349121,0.199524,-0.970947,0.127686
1470243825252823,0.0397339,0.189758,-0.968079,0.158813
1470243825267837,0.0454712,0.178589,-0.963745,0.193176
1470243825284351,0.0523682,0.165771,-0.957275,0.23114
1470243825305369,0.0596313,0.150879,-0.948242,0.272949
1470243825327890,0.0664673,0.135498,-0.935913,0.318359
1470243825344405,0.0716553,0.122498,-0.920227,0.364746
1470243825366925,0.0753174,0.112549,-0.901794,0.410461
1470243825380937,0.076355,0.105408,-0.880432,0.455933
1470243825404460,0.0726929,0.0997314,-0.855774,0.50238
1470243825426979,0.062439,0.097168,-0.82782,0.54895
1470243825441493,0.050415,0.0964355,-0.797363,0.593628
1470243825465013,0.0422363,0.09198,-0.765564,0.635376
1470243825487032,0.0358276,0.0834351,-0.731018,0.67627
1470243825501046,0.0249634,0.0745239,-0.695007,0.714722
1470243825524568,0.0144653,0.0671997,-0.659668,0.748413
1470243825547089,0.00836182,0.0606689,-0.624023,0.778992
1470243825568105,0.003479,0.0524902,-0.587097,0.8078
1470243825590625,-0.00317383,0.0441284,-0.551147,0.833191
1470243825606641,-0.00854492,0.0369263,-0.51709,0.855103
1470243825628159,-0.0127563,0.0302124,-0.484192,0.874329
1470243825644174,-0.0162354,0.0234375,-0.453796,0.890625
1470243825666694,-0.0174561,0.0177002,-0.427856,0.903503
1470243825687713,-0.0178833,0.0125122,-0.405579,0.913757
1470243825704227,-0.0217285,0.00787354,-0.387451,0.92157
1470243825734254,-0.0287476,0.00128174,-0.373962,0.927002
1470243825747766,-0.0332642,-0.00378418,-0.365112,0.930359
1470243825764281,-0.0354614,-0.00811768,-0.359985,0.932251
1470243825786802,-0.0377197,-0.0116577,-0.358765,0.932556
1470243825808322,-0.0404663,-0.0148315,-0.361938,0.931213
1470243825824338,-0.0429077,-0.0169067,-0.368347,0.928528
1470243825846855,-0.0447388,-0.0182495,-0.377747,0.924622
1470243825867874,-0.0460815,-0.0189819,-0.390808,0.919128
1470243825884390,-0.0473633,-0.0166016,-0.408081,0.91156
1470243825906909,-0.0493164,-0.0133667,-0.428406,0.9021
1470243825927929,-0.0510254,-0.00915527,-0.451965,0.890503
1470243825943945,-0.0510254,-0.003479,-0.478638,0.876526
1470243825966964,-0.0487671,0.00390625,-0.508057,0.859924
1470243825987982,-0.0455933,0.0125122,-0.5401,0.840271
1470243826012004,-0.0412598,0.0231323,-0.574646,0.817017
1470243826027018,-0.0351563,0.0356445,-0.611267,0.789856
1470243826048039,-0.0253906,0.0490112,-0.648926,0.75885
1470243826064050,-0.0126343,0.0610962,-0.685669,0.72522
1470243826087071,0.000488281,0.071167,-0.721191,0.689087
1470243826115597,0.0106812,0.0809937,-0.756226,0.64917
1470243826124606,0.0199585,0.0912476,-0.789917,0.606079
1470243826146626,0.0302734,0.0999146,-0.820251,0.562378
1470243826169146,0.0396118,0.106873,-0.846619,0.519836
1470243826183658,0.0460205,0.115173,-0.869141,0.47876
1470243826206679,0.0498657,0.125122,-0.888062,0.439575
1470243826227697,0.052063,0.135498,-0.903625,0.403015
1470243826243713,0.0545044,0.145264,-0.915894,0.370239
1470243826266733,0.0579224,0.154053,-0.925659,0.340698
1470243826289253,0.0622559,0.16095,-0.933228,0.315125
1470243826303766,0.0664673,0.166687,-0.938782,0.294006
1470243826326787,0.0672607,0.17688,-0.942078,0.276917
1470243826349307,0.067749,0.187195,-0.943726,0.264099
1470243826363820,0.0688477,0.197083,-0.944153,0.255066
1470243826386841,0.069458,0.205933,-0.943665,0.249573
1470243826409369,0.0701904,0.213318,-0.942627,0.247131
1470243826431881,0.0707397,0.219482,-0.940857,0.24823
1470243826446895,0.0696411,0.225769,-0.938171,0.253113
1470243826469416,0.0667725,0.232056,-0.934631,0.261047
1470243826483927,0.0650024,0.235779,-0.930603,0.272278
1470243826506948,0.0640869,0.236877,-0.92572,0.287842
1470243826529469,0.0639038,0.23468,-0.919739,0.308167
1470243826550489,0.0628662,0.232544,-0.911865,0.332458
1470243826567003,0.0598755,0.231812,-0.901489,0.360596
1470243826589023,0.0560913,0.230103,-0.888977,0.391907
1470243826610541,0.0516357,0.225952,-0.874573,0.425903
1470243826627056,0.0463867,0.220337,-0.857788,0.462036
1470243826649577,0.0397949,0.213928,-0.838684,0.499268
1470243826670596,0.0303345,0.207886,-0.816833,0.537292
1470243826686609,0.0181274,0.202637,-0.792664,0.574768
1470243826709632,0.00396729,0.195435,-0.766602,0.611694
1470243826730148,-0.0128784,0.18634,-0.73877,0.647522
1470243826746664,-0.0299683,0.176025,-0.710327,0.680847
1470243826769184,-0.0452271,0.165039,-0.682495,0.710571
1470243826790705,-0.0599976,0.15448,-0.655396,0.736877
1470243826806718,-0.0738525,0.143616,-0.629639,0.759949
1470243826835243,-0.0848389,0.133301,-0.605591,0.779907
1470243826850256,-0.0931396,0.124512,-0.584534,0.796326
1470243826866771,-0.100281,0.118408,-0.567444,0.808655
1470243826889291,-0.106812,0.111816,-0.554749,0.817505
1470243826910311,-0.113159,0.107056,-0.545898,0.823242
1470243826927327,-0.119873,0.104858,-0.541321,0.825562
1470243826949347,-0.125061,0.104492,-0.540405,0.825439
1470243826970368,-0.128845,0.104736,-0.542114,0.82373
1470243826986879,-0.126709,0.102173,-0.546753,0.821289
1470243827009400,-0.126343,0.0979004,-0.553223,0.817566
1470243827032421,-0.125488,0.0992432,-0.561279,0.812012
1470243827060446,-0.127686,0.104187,-0.571289,0.804016
1470243827069454,-0.12738,0.108093,-0.584412,0.794067
1470243827090974,-0.122681,0.114075,-0.599792,0.78241
1470243827105986,-0.118835,0.121826,-0.616211,0.768982
1470243827129507,-0.114502,0.131104,-0.63385,0.753601
1470243827150526,-0.108276,0.141418,-0.653015,0.736084
1470243827166040,-0.100159,0.152344,-0.67334,0.716492
1470243827190061,-0.0917358,0.164124,-0.693909,0.695068
1470243827210580,-0.0835571,0.176025,-0.713989,0.672485
1470243827226094,-0.0761108,0.187622,-0.732788,0.649658
1470243827249114,-0.0691528,0.198181,-0.749207,0.628174
1470243827271636,-0.0623169,0.207886,-0.763855,0.607849
1470243827292655,-0.055542,0.215942,-0.777649,0.58783
1470243827309170,-0.0482788,0.221985,-0.790771,0.568359
1470243827331689,-0.0413208,0.226624,-0.802856,0.549866
1470243827346203,-0.0352783,0.23053,-0.813049,0.533447
1470243827369222,-0.0319824,0.233887,-0.821716,0.518738
1470243827391749,-0.0313721,0.239563,-0.828857,0.504639
1470243827406256,-0.0325317,0.246643,-0.834534,0.491638
1470243827429277,-0.0342407,0.251831,-0.839294,0.480652
1470243827451797,-0.0357056,0.254456,-0.843689,0.471313
1470243827472816,-0.0377197,0.255676,-0.847961,0.462769
1470243827489330,-0.0424194,0.257507,-0.851379,0.455017
1470243827511851,-0.0473633,0.258972,-0.853943,0.448914
1470243827532869,-0.0513306,0.259521,-0.855713,0.444702
1470243827549385,-0.0553589,0.259766,-0.856873,0.441833
1470243827571904,-0.0612183,0.259705,-0.857727,0.439453
1470243827592924,-0.0635986,0.252991,-0.86145,0.435791
1470243827608940,-0.0681763,0.249695,-0.862244,0.435425
1470243827631959,-0.0702515,0.25354,-0.860596,0.436096
1470243827652979,-0.0690308,0.255371,-0.858582,0.439209
1470243827669992,-0.0709839,0.256958,-0.856323,0.442322
1470243827692513,-0.0720825,0.255432,-0.85614,0.44342
1470243827713031,-0.0686035,0.249817,-0.857788,0.443909
1470243827730547,-0.0658569,0.246216,-0.858582,0.444824
1470243827751566,-0.065918,0.247314,-0.857727,0.445862
1470243827773086,-0.0667114,0.25,-0.856201,0.447205
1470243827789100,-0.0680542,0.251953,-0.854797,0.448608
1470243827811619,-0.0686035,0.252319,-0.853821,0.450195
1470243827833138,-0.0682373,0.250671,-0.853638,0.451477
1470243827849656,-0.0663452,0.249451,-0.853088,0.453491
1470243827871674,-0.0649414,0.249573,-0.852112,0.455383
1470243827893194,-0.06427,0.250244,-0.851074,0.457153
1470243827909214,-0.0646362,0.251648,-0.850037,0.458191
1470243827931729,-0.0656128,0.251953,-0.84967,0.458496
1470243827952746,-0.0664063,0.250122,-0.850037,0.45874
1470243827969261,-0.0668945,0.247437,-0.850525,0.459229
1470243827991783,-0.0682373,0.24469,-0.851074,0.459534
1470243828012800,-0.0698853,0.24115,-0.852051,0.459351
1470243828028817,-0.0697021,0.236938,-0.853516,0.458801
1470243828051836,-0.0675659,0.233276,-0.855103,0.458069
1470243828072855,-0.0651245,0.230835,-0.856018,0.457947
1470243828088868,-0.064209,0.23053,-0.855957,0.458313
1470243828111890,-0.064209,0.230774,-0.855957,0.458191
1470243828132908,-0.0635376,0.230103,-0.856506,0.457642
1470243828149423,-0.0621948,0.22937,-0.856812,0.457581
1470243828172444,-0.0616455,0.22937,-0.85675,0.457825
1470243828194464,-0.0617065,0.229736,-0.856506,0.458008
1470243828209477,-0.0610962,0.22937,-0.856628,0.458069
1470243828231997,-0.0597534,0.228577,-0.856934,0.45813
1470243828255519,-0.0585327,0.228088,-0.857178,0.458069
1470243828269531,-0.0576782,0.2276,-0.857361,0.458069
1470243828292052,-0.0565186,0.22699,-0.857544,0.45813
1470243828314572,-0.0554199,0.226929,-0.857544,0.458374
1470243828336591,-0.0543823,0.227173,-0.857483,0.458435
1470243828351604,-0.053833,0.227539,-0.857544,0.458252
1470243828374625,-0.0536499,0.228271,-0.857483,0.458008
1470243828388638,-0.0532227,0.228577,-0.857544,0.457764
1470243828412159,-0.0529175,0.228882,-0.857544,0.457642
1470243828434180,-0.0529175,0.228943,-0.857544,0.457581
1470243828448692,-0.0529175,0.228882,-0.857605,0.457581
1470243828471712,-0.0524902,0.22821,-0.857849,0.45752
1470243828494233,-0.0518799,0.227722,-0.858093,0.457397
1470243828508750,-0.0513306,0.227417,-0.858276,0.457214
1470243828531767,-0.0514526,0.227783,-0.858276,0.456909
1470243828554286,-0.0517578,0.228271,-0.858337,0.456665
1470243828568799,-0.0521851,0.228821,-0.858276,0.456421
1470243828591823,-0.0522461,0.228882,-0.858276,0.456421
1470243828614341,-0.0523682,0.228821,-0.858154,0.456604
1470243828628856,-0.0523071,0.227905,-0.858337,0.456726
1470243828652875,-0.0518188,0.227051,-0.858459,0.456909
1470243828681901,-0.0513916,0.226624,-0.858521,0.457092
1470243828695414,-0.0513916,0.226563,-0.858521,0.457092
1470243828711929,-0.0513916,0.226563,-0.858521,0.457092
1470243828734450,-0.0513916,0.226501,-0.858521,0.457092
1470243828755467,-0.0515747,0.22699,-0.858398,0.457153
1470243828771982,-0.0518799,0.227539,-0.858215,0.457214
1470243828794504,-0.0523071,0.228027,-0.858093,0.457153
1470243828815521,-0.0523071,0.228027,-0.858093,0.457153
1470243828832036,-0.0523682,0.228088,-0.858093,0.457153
1470243828854556,-0.0525513,0.227844,-0.858154,0.457092
1470243828875576,-0.0524902,0.227661,-0.858154,0.457092
1470243828892092,-0.0526123,0.227417,-0.858215,0.457214
1470243828914610,-0.0526123,0.227478,-0.858215,0.457214
1470243828935628,-0.0528564,0.227661,-0.858093,0.457214
1470243828952144,-0.0531006,0.227844,-0.858032,0.457214
1470243828975666,-0.0534668,0.228149,-0.857971,0.457092
1470243828995683,-0.0535278,0.228149,-0.857971,0.457092
1470243829011701,-0.0535278,0.228149,-0.857971,0.457092
1470243829034218,-0.0535278,0.228149,-0.858032,0.457092
1470243829062744,-0.0535278,0.228149,-0.858032,0.457092
1470243829071752,-0.0535889,0.228455,-0.857971,0.45697
1470243829094272,-0.0535278,0.229187,-0.857849,0.456848
1470243829115290,-0.0533447,0.230103,-0.857666,0.456726
1470243829131806,-0.0532227,0.230835,-0.857361,0.45697
1470243829154326,-0.0532227,0.231812,-0.856934,0.457275
1470243829176848,-0.0539551,0.233337,-0.856323,0.45752
1470243829191861,-0.0548096,0.234375,-0.855896,0.457764
1470243829214380,-0.0552979,0.234863,-0.85553,0.45813
1470243829236900,-0.0548096,0.234253,-0.85553,0.458496
1470243829251919,-0.0544434,0.233337,-0.855652,0.458801
1470243829274936,-0.0540161,0.232727,-0.855713,0.459045
1470243829296954,-0.0540161,0.232788,-0.855591,0.459167
1470243829319473,-0.0542603,0.233093,-0.85553,0.459167
1470243829334487,-0.0546265,0.233459,-0.85553,0.458923
1470243829357007,-0.0550537,0.233704,-0.85553,0.458679
1470243829371019,-0.0556641,0.234009,-0.85553,0.458496
1470243829394542,-0.0561523,0.234253,-0.85553,0.458313
1470243829417061,-0.0561523,0.233887,-0.855713,0.458191
1470243829431074,-0.0561523,0.233948,-0.855774,0.458008
1470243829454596,-0.0563354,0.234009,-0.855896,0.457703
1470243829476615,-0.0567017,0.234497,-0.855835,0.457581
1470243829491128,-0.0567017,0.234497,-0.855835,0.45752
1470243829514649,-0.0567627,0.234558,-0.855835,0.45752
1470243829536669,-0.0565186,0.234375,-0.855957,0.457458
1470243829551184,-0.0565796,0.234131,-0.856079,0.457275
1470243829574703,-0.0571289,0.234619,-0.855896,0.457275
1470243829596723,-0.0575562,0.234314,-0.855957,0.457336
1470243829618243,-0.0567017,0.233215,-0.856262,0.457397
1470243829634256,-0.0562744,0.232849,-0.856384,0.457397
1470243829656776,-0.0564575,0.232727,-0.856445,0.457275
1470243829678297,-0.0567017,0.232544,-0.856567,0.457214
1470243829694311,-0.0567017,0.232544,-0.856567,0.457214
1470243829716831,-0.0567627,0.232361,-0.856628,0.457214
1470243829737849,-0.0567627,0.232056,-0.856689,0.457153
1470243829754365,-0.0567017,0.231812,-0.856812,0.457153
1470243829776885,-0.0567017,0.23175,-0.856812,0.457153
1470243829797903,-0.0567017,0.23175,-0.856812,0.457153
1470243829814418,-0.0570679,0.231995,-0.856689,0.457153
1470243829836938,-0.0570679,0.231995,-0.856689,0.457153
1470243829857960,-0.0570679,0.232056,-0.856689,0.457153
1470243829874973,-0.0570679,0.232056,-0.856689,0.457153
1470243829896992,-0.0571289,0.232056,-0.856689,0.457153
1470243829918011,-0.0571289,0.232056,-0.856689,0.457153
1470243829934527,-0.0571289,0.232056,-0.856689,0.457153
1470243829957047,-0.0571289,0.232056,-0.856689,0.457153
1470243829978066,-0.0571289,0.232056,-0.856689,0.457153
1470243829994580,-0.0571289,0.232056,-0.856689,0.457153
1470243830016599,-0.0571289,0.232056,-0.856689,0.457153
1470243830038119,-0.0571899,0.232117,-0.856689,0.457153
1470243830054634,-0.0571899,0.232117,-0.856689,0.457153
1470243830077154,-0.057251,0.231873,-0.85675,0.457092
1470243830099174,-0.057251,0.231873,-0.85675,0.457092
1470243830114688,-0.057251,0.231873,-0.85675,0.457092
1470243830136708,-0.057251,0.231873,-0.85675,0.457092
1470243830166735,-0.057251,0.231873,-0.85675,0.457092
1470243830174743,-0.057312,0.231873,-0.85675,0.457092
1470243830204268,-0.057312,0.231873,-0.85675,0.457092
1470243830219783,-0.057251,0.231689,-0.856812,0.457092
1470243830233794,-0.0571899,0.231567,-0.85675,0.457275
1470243830256815,-0.0569458,0.231384,-0.856689,0.45752
1470243830279336,-0.0563965,0.230957,-0.856628,0.457886
1470243830293850,-0.0554199,0.230103,-0.856812,0.458069
1470243830316869,-0.0536499,0.229004,-0.856934,0.458679
1470243830339390,-0.0523682,0.228882,-0.856445,0.459778
1470243830353902,-0.0526123,0.22998,-0.855774,0.460449
1470243830376924,-0.0531006,0.230896,-0.855286,0.460754
1470243830399443,-0.0532837,0.230896,-0.855286,0.460815
1470243830413956,-0.0531616,0.230408,-0.855591,0.46051
1470243830420963,-0.0534058,0.230408,-0.855713,0.460205
1470243830442483,-0.0540771,0.230774,-0.855774,0.459839
1470243830464501,-0.0547485,0.231201,-0.855896,0.459351
1470243830481016,-0.0550537,0.231323,-0.856018,0.458984
1470243830502036,-0.0553589,0.231323,-0.85614,0.458801
1470243830525056,-0.0553589,0.231262,-0.85614,0.458801
1470243830541572,-0.0553589,0.231262,-0.85614,0.458801
1470243830562090,-0.055481,0.231445,-0.856079,0.45874
1470243830584610,-0.055481,0.231506,-0.856079,0.45874
1470243830607633,-0.055481,0.231506,-0.856079,0.45874
1470243830622644,-0.055542,0.231506,-0.856079,0.45874
1470243830645165,-0.055542,0.231506,-0.856079,0.45874
1470243830661178,-0.055542,0.231506,-0.856079,0.45874
1470243830682197,-0.055542,0.231506,-0.856079,0.45874
1470243830704718,-0.055542,0.231506,-0.856079,0.45874
1470243830721232,-0.055542,0.231506,-0.856079,0.45874
1470243830742252,-0.055542,0.231506,-0.856079,0.45874
1470243830764771,-0.055542,0.231506,-0.856079,0.45874
1470243830781286,-0.055603,0.231506,-0.856079,0.45874
1470243830802306,-0.055603,0.231506,-0.856079,0.458679
1470243830824828,-0.055603,0.231506,-0.856079,0.458679
1470243830842842,-0.055603,0.231567,-0.856079,0.458679
1470243830862359,-0.055603,0.231506,-0.856079,0.458679
1470243830884880,-0.055603,0.231506,-0.856079,0.458679
1470243830902895,-0.055603,0.231506,-0.856079,0.458679
1470243830922413,-0.055603,0.231567,-0.856079,0.458679
1470243830944933,-0.055603,0.231567,-0.856079,0.458679
1470243830961449,-0.055481,0.231201,-0.856201,0.458679
1470243830982467,-0.0552368,0.230896,-0.856323,0.458618
1470243831004987,-0.0551758,0.230896,-0.856323,0.458618
1470243831022503,-0.0552979,0.231079,-0.856323,0.458496
1470243831043022,-0.055603,0.231445,-0.856262,0.458435
1470243831065041,-0.055542,0.231323,-0.856323,0.458374
1470243831082557,-0.055542,0.231323,-0.856323,0.458374
1470243831102575,-0.055542,0.231323,-0.856323,0.458374
1470243831125596,-0.055542,0.231323,-0.856323,0.458374
1470243831142611,-0.0554199,0.231323,-0.856262,0.458496
1470243831162629,-0.0554199,0.231262,-0.856262,0.458496
1470243831184648,-0.055542,0.231384,-0.856201,0.458618
1470243831202665,-0.0557861,0.231567,-0.85614,0.458618
1470243831222183,-0.0557861,0.231567,-0.85614,0.458618
1470243831245202,-0.0557861,0.231567,-0.85614,0.458618
1470243831262719,-0.0557861,0.231628,-0.85614,0.458618
1470243831282236,-0.0559082,0.231445,-0.856201,0.458557
1470243831307761,-0.0557861,0.23114,-0.856323,0.458435
1470243831322772,-0.0557861,0.230957,-0.856445,0.458313
1470243831342291,-0.0560303,0.230774,-0.856506,0.458252
1470243831364812,-0.0560303,0.230774,-0.856506,0.458252
1470243831382827,-0.0560303,0.230713,-0.856506,0.458252
1470243831402344,-0.0560913,0.230896,-0.856445,0.458313
1470243831425367,-0.0562744,0.23114,-0.856323,0.458374
1470243831456893,-0.0563354,0.23114,-0.856323,0.458374
1470243831462398,-0.0563354,0.23114,-0.856323,0.458374
1470243831484947,-0.0563354,0.23114,-0.856323,0.458374
1470243831502462,-0.0563354,0.23114,-0.856323,0.458374
1470243831522481,-0.0564575,0.231262,-0.856262,0.458435
1470243831545001,-0.0564575,0.231262,-0.856262,0.458435
1470243831562516,-0.0565186,0.231262,-0.856262,0.458435
1470243831582534,-0.0565186,0.231262,-0.856262,0.458435
1470243831605555,-0.0565186,0.231262,-0.856262,0.458435
1470243831622571,-0.0565186,0.231262,-0.856262,0.458435
1470243831644090,-0.0565186,0.231262,-0.856262,0.458374
1470243831665110,-0.0565186,0.231262,-0.856262,0.458374
1470243831682626,-0.0563965,0.231262,-0.856201,0.458557
1470243831703644,-0.0557861,0.23114,-0.856079,0.458984
1470243831725163,-0.0552979,0.231262,-0.855591,0.459839
1470243831743679,-0.0551147,0.231323,-0.855347,0.460266
1470243831763698,-0.0551147,0.231323,-0.855347,0.460266
1470243831786218,-0.0551758,0.231567,-0.855286,0.460205
1470243831802733,-0.0554199,0.232056,-0.855286,0.459961
1470243831823751,-0.0556641,0.232849,-0.855225,0.459656
1470243831846272,-0.0560303,0.233154,-0.855164,0.459595
1470243831868792,-0.0560303,0.233154,-0.855164,0.459595
1470243831884306,-0.0559692,0.232849,-0.855286,0.459473
1470243831904824,-0.0560913,0.23291,-0.855347,0.459351
1470243831928846,-0.0566406,0.233459,-0.855225,0.45929
1470243831943859,-0.0571899,0.234009,-0.855042,0.459229
1470243831964878,-0.0576782,0.234436,-0.854919,0.459229
1470243831982895,-0.0576782,0.234436,-0.854919,0.459229
1470243832005414,-0.0576782,0.234436,-0.854919,0.459229
1470243832024933,-0.0576782,0.234436,-0.854919,0.459229
1470243832042949,-0.0578613,0.234497,-0.854797,0.45929
1470243832065468,-0.0582275,0.234741,-0.854675,0.459412
1470243832092494,-0.0586548,0.235046,-0.854553,0.459473
1470243832102502,-0.0588989,0.235107,-0.854492,0.459473
1470243832125524,-0.059082,0.235168,-0.854492,0.459473
1470243832145042,-0.0592651,0.235413,-0.85437,0.459534
1470243832162556,-0.0592651,0.235474,-0.85437,0.459534
1470243832185077,-0.0595093,0.235657,-0.854248,0.459595
1470243832205095,-0.0595093,0.235657,-0.854248,0.459595
1470243832222610,-0.0596313,0.235901,-0.854187,0.459534
1470243832245130,-0.0596313,0.235901,-0.854187,0.459534
1470243832264648,-0.0596313,0.235901,-0.854187,0.459534
1470243832288669,-0.0596924,0.235901,-0.854187,0.459534
1470243832305187,-0.0596924,0.235962,-0.854187,0.459534
1470243832325203,-0.0596924,0.235962,-0.854187,0.459534
1470243832342717,-0.0595093,0.23584,-0.854187,0.459534
1470243832365237,-0.0595093,0.235901,-0.854187,0.459534
1470243832384755,-0.0595093,0.235657,-0.85437,0.459351
1470243832402771,-0.0596313,0.235107,-0.854553,0.45929
1470243832425293,-0.0609741,0.235168,-0.854431,0.459229
1470243832453817,-0.0640259,0.236389,-0.853943,0.459167
1470243832467329,-0.0675659,0.238098,-0.853149,0.459167
1470243832485346,-0.0703125,0.239136,-0.852539,0.459473
1470243832504864,-0.0722046,0.23938,-0.852173,0.459656
1470243832527384,-0.0739746,0.239563,-0.85199,0.459656
1470243832545399,-0.0753784,0.238892,-0.852051,0.459595
1470243832564917,-0.0750732,0.236572,-0.852722,0.459717
1470243832582933,-0.0735474,0.233521,-0.853577,0.4599
1470243832604953,-0.0724487,0.231323,-0.854065,0.460327
1470243832626973,-0.0722046,0.230164,-0.854065,0.460815
1470243832642987,-0.0731812,0.230225,-0.853638,0.461426
1470243832665006,-0.0741577,0.230225,-0.853394,0.461731
1470243832686528,-0.0750732,0.230164,-0.853271,0.461853
1470243832702540,-0.0762939,0.230225,-0.852966,0.462158
1470243832726062,-0.0789185,0.231506,-0.852173,0.462585
1470243832746082,-0.081604,0.233276,-0.850891,0.463562
1470243832762595,-0.0836182,0.234558,-0.849609,0.464905
1470243832785115,-0.0845337,0.23468,-0.848572,0.466553
1470243832806133,-0.0853271,0.234619,-0.847046,0.469238
1470243832827654,-0.086792,0.235718,-0.844177,0.473633
1470243832846169,-0.0883179,0.237854,-0.840027,0.479553
1470243832866188,-0.0889282,0.238892,-0.835632,0.486572
1470243832887208,-0.0892334,0.241211,-0.82959,0.495667
1470243832905223,-0.0895996,0.242554,-0.822388,0.506836
1470243832927743,-0.0899658,0.243774,-0.814392,0.518921
1470243832947760,-0.0911255,0.245605,-0.805359,0.531738
1470243832965277,-0.0914307,0.24646,-0.795776,0.545593
1470243832986796,-0.09021,0.244873,-0.786499,0.559753
1470243833008316,-0.0886841,0.24176,-0.777344,0.573975
1470243833024830,-0.0870972,0.238037,-0.767944,0.588257
1470243833052855,-0.0858765,0.233521,-0.758301,0.6026
1470243833067868,-0.0852051,0.228149,-0.748596,0.616699
1470243833084383,-0.0849609,0.223022,-0.739441,0.629517
1470243833114411,-0.085083,0.219543,-0.730896,0.640564
1470243833128423,-0.0854492,0.216187,-0.723572,0.649902
1470243833144938,-0.0866089,0.212036,-0.717041,0.658325
1470243833172962,-0.0878906,0.20697,-0.711609,0.665649
1470243833187976,-0.0882568,0.201843,-0.707581,0.671387
1470243833204492,-0.0880127,0.197632,-0.704712,0.67572
1470243833227011,-0.0887451,0.194641,-0.702698,0.678528
1470243833248031,-0.0916748,0.193176,-0.70105,0.680298
1470243833264545,-0.0957031,0.192932,-0.699829,0.681091
1470243833287065,-0.098938,0.192078,-0.699585,0.681091
1470243833308085,-0.100769,0.190369,-0.7005,0.680359
1470243833324599,-0.101685,0.188477,-0.702087,0.679138
1470243833347119,-0.102966,0.187439,-0.703369,0.677856
1470243833361133,-0.105408,0.187012,-0.704224,0.676697
1470243833384653,-0.107788,0.186646,-0.705078,0.675598
1470243833407174,-0.108826,0.185242,-0.706421,0.674377
1470243833428192,-0.10907,0.183472,-0.707764,0.673401
1470243833444708,-0.109985,0.182434,-0.708618,0.672668
1470243833466728,-0.110901,0.181702,-0.708923,0.672363
1470243833487745,-0.110962,0.180237,-0.709167,0.672485
1470243833504260,-0.109619,0.177795,-0.709778,0.672729
1470243833527282,-0.107178,0.174988,-0.710632,0.672974
1470243833547799,-0.104187,0.172302,-0.711426,0.673279
1470243833564315,-0.10144,0.170288,-0.711975,0.673645
1470243833586835,-0.0991821,0.16864,-0.712341,0.67395
1470243833608356,-0.09729,0.167053,-0.712891,0.674133
1470243833624370,-0.0952759,0.165344,-0.71344,0.674194
1470243833646888,-0.0931396,0.163574,-0.714111,0.674255
1470243833669409,-0.0908813,0.161865,-0.7146,0.6745
1470243833684424,-0.088623,0.160645,-0.714844,0.674805
1470243833706943,-0.0866699,0.159912,-0.715027,0.675049
1470243833729463,-0.0848389,0.159607,-0.71521,0.675171
1470243833744477,-0.0831299,0.159546,-0.715393,0.675171
1470243833766502,-0.0817261,0.15979,-0.715637,0.675049
1470243833788014,-0.0807495,0.1604,-0.715942,0.674683
1470243833804529,-0.0807495,0.161072,-0.716431,0.674011
1470243833827551,-0.0828857,0.162537,-0.716919,0.672852
1470243833848069,-0.0884399,0.165894,-0.716919,0.671326
1470243833864083,-0.0969238,0.170959,-0.716614,0.669189
1470243833887105,-0.104492,0.175964,-0.717163,0.666199
1470243833909625,-0.108643,0.179443,-0.719482,0.662048
1470243833924138,-0.110718,0.182617,-0.722412,0.657654
1470243833947157,-0.111145,0.185364,-0.725952,0.652893
1470243833969178,-0.109131,0.187439,-0.730164,0.647949
1470243833984191,-0.104675,0.188538,-0.735779,0.641968
1470243834006712,-0.0999756,0.190613,-0.743347,0.633301
1470243834029232,-0.0963135,0.194458,-0.75238,0.621948
1470243834043746,-0.0918579,0.200073,-0.760925,0.610352
1470243834066765,-0.0880127,0.204712,-0.770264,0.597534
1470243834089285,-0.0831299,0.209106,-0.78064,0.583069
1470243834110805,-0.0772705,0.212585,-0.791626,0.567566
1470243834127320,-0.071106,0.211914,-0.803528,0.551758
1470243834149340,-0.0661621,0.209473,-0.815247,0.535828
1470243834171860,-0.0634155,0.207275,-0.825928,0.520447
1470243834186873,-0.0634766,0.207153,-0.834717,0.506287
1470243834209395,-0.067749,0.208618,-0.841553,0.493652
1470243834230412,-0.0720825,0.208984,-0.847534,0.482544
1470243834246927,-0.0751953,0.207092,-0.852661,0.473816
1470243834285463,-0.0787354,0.204712,-0.856445,0.467285
1470243834290466,-0.0844727,0.20459,-0.858154,0.463257
1470243834314488,-0.0905151,0.206665,-0.857727,0.461975
1470243834330001,-0.0930786,0.207886,-0.856384,0.463379
1470243834367535,-0.090271,0.20575,-0.856018,0.465576
1470243834370038,-0.0846558,0.200623,-0.856812,0.467468
1470243834389555,-0.0809937,0.19751,-0.8573,0.468506
1470243834418081,-0.079834,0.19696,-0.857239,0.469055
1470243834427089,-0.0793457,0.197571,-0.857056,0.469177
1470243834449613,-0.0786133,0.19928,-0.856995,0.468689
1470243834479281,-0.0775757,0.200562,-0.8573,0.467773
1470243834486790,-0.0759277,0.201355,-0.85791,0.466614
1470243834509313,-0.0738525,0.201843,-0.858459,0.465698
1470243834531831,-0.0719604,0.202515,-0.858826,0.465027
1470243834546845,-0.0704956,0.203491,-0.858948,0.464539
1470243834569365,-0.0689087,0.204102,-0.859131,0.464172
1470243834592388,-0.0670776,0.204285,-0.859436,0.463867
1470243834606899,-0.0650635,0.204163,-0.859802,0.463562
1470243834635924,-0.0629883,0.203735,-0.860352,0.462952
1470243834650938,-0.0616455,0.203857,-0.860901,0.462036
1470243834666952,-0.0611572,0.20459,-0.861145,0.461365
1470243834689473,-0.060791,0.204895,-0.861206,0.461182
1470243834710492,-0.0600586,0.204468,-0.86145,0.460999
1470243834727009,-0.0592651,0.203918,-0.861755,0.460815
1470243834749527,-0.0585327,0.203674,-0.862061,0.460388
1470243834770545,-0.0581665,0.203979,-0.862305,0.459839
1470243834787061,-0.0581055,0.204651,-0.862427,0.459351
1470243834809581,-0.0579834,0.205139,-0.862549,0.458923
1470243834832101,-0.0576782,0.205322,-0.862671,0.458557
1470243834847114,-0.0571899,0.205322,-0.862976,0.45813
1470243834869634,-0.0568848,0.20575,-0.863159,0.457642
1470243834898161,-0.0569458,0.206726,-0.86322,0.45697
1470243834907168,-0.0571899,0.207764,-0.863281,0.456421
1470243834929688,-0.057251,0.208679,-0.863342,0.455872
1470243834952209,-0.0571289,0.209106,-0.863525,0.455322
1470243834981735,-0.0568237,0.20929,-0.863831,0.454712
1470243834996749,-0.0566406,0.209351,-0.864075,0.454224
1470243835011762,-0.0562134,0.208862,-0.864258,0.454163
1470243835026276,-0.0557251,0.207947,-0.864441,0.454346
1470243835049296,-0.0550537,0.206787,-0.864563,0.454712
1470243835071816,-0.0546265,0.205811,-0.864624,0.455078
1470243835086329,-0.0544434,0.204895,-0.864746,0.455322
1470243835109350,-0.0543823,0.204224,-0.864807,0.455444
1470243835145882,-0.0546265,0.204102,-0.864868,0.455444
1470243835160395,-0.0549316,0.204346,-0.864746,0.455444
1470243835169404,-0.0549927,0.204407,-0.864746,0.455444
1470243835191926,-0.0551147,0.204468,-0.864868,0.455139
1470243835206436,-0.0548096,0.204468,-0.865112,0.454712
1470243835229458,-0.0546265,0.204712,-0.865356,0.454224
1470243835251978,-0.0545044,0.205017,-0.865479,0.453796
1470243835266991,-0.0545044,0.205383,-0.86554,0.453491
1470243835289511,-0.0544434,0.205811,-0.865662,0.453186
1470243835312033,-0.0542603,0.206116,-0.865723,0.45282
1470243835333050,-0.0540771,0.20636,-0.865906,0.452515
1470243835349565,-0.0541992,0.206787,-0.865967,0.452148
1470243835372085,-0.0542603,0.20697,-0.866089,0.451843
1470243835394607,-0.0545044,0.207275,-0.866089,0.451599
1470243835409620,-0.0546875,0.207642,-0.86615,0.451355
1470243835432140,-0.0549927,0.208191,-0.86615,0.450989
1470243835453158,-0.0552368,0.208801,-0.866211,0.450623
1470243835475678,-0.055481,0.209412,-0.866211,0.450378
1470243835492696,-0.0557251,0.2099,-0.86615,0.450073
1470243835513212,-0.0557861,0.210571,-0.86615,0.449829
1470243835529230,-0.0559082,0.211365,-0.86615,0.449463
1470243835552248,-0.0560913,0.212219,-0.86615,0.449036
1470243835573266,-0.0560913,0.212952,-0.866211,0.448486
1470243835589281,-0.0561523,0.213623,-0.866272,0.44812
1470243835611800,-0.0560303,0.213989,-0.866394,0.447754
1470243835633320,-0.0558472,0.214233,-0.866516,0.447327
1470243835649834,-0.055603,0.214539,-0.86676,0.446777
1470243835672855,-0.0550537,0.214233,-0.867126,0.446228
1470243835692876,-0.0546875,0.214172,-0.867432,0.445801
1470243835716897,-0.0541382,0.213745,-0.867737,0.445496
1470243835732910,-0.0537109,0.214111,-0.867737,0.445313
1470243835752929,-0.053772,0.213867,-0.867981,0.444946
1470243835768942,-0.0531006,0.21283,-0.868408,0.444763
1470243835792463,-0.0526733,0.212219,-0.868591,0.444702
1470243835814483,-0.0526733,0.21228,-0.868652,0.44458
1470243835829496,-0.0529175,0.212585,-0.86853,0.44458
1470243835852017,-0.0529175,0.212585,-0.86853,0.44458
1470243835880543,-0.0527954,0.212463,-0.868652,0.444458
1470243835889550,-0.0527344,0.212463,-0.868652,0.444458
1470243835912072,-0.0527344,0.212463,-0.868652,0.444458
1470243835935592,-0.0528564,0.212769,-0.868591,0.444397
1470243835948603,-0.0529785,0.213135,-0.86853,0.444336
1470243835972124,-0.0530396,0.213501,-0.868469,0.444275
1470243835994644,-0.0531616,0.213989,-0.868408,0.444153
1470243836009159,-0.0535278,0.214966,-0.868225,0.444031
1470243836032179,-0.053833,0.215576,-0.868164,0.443848
1470243836061705,-0.0535889,0.215454,-0.868225,0.443726
1470243836075719,-0.0532837,0.215271,-0.868347,0.443665
1470243836092233,-0.0533447,0.215393,-0.868286,0.443726
1470243836114255,-0.0535278,0.215759,-0.868164,0.443726
1470243836128765,-0.0537109,0.215942,-0.868103,0.443726
1470243836159795,-0.0537109,0.215942,-0.868103,0.443726
1470243836174807,-0.0537109,0.215942,-0.868103,0.443726
1470243836188819,-0.0537109,0.215942,-0.868103,0.443726
1470243836211840,-0.053772,0.216125,-0.868103,0.443665
1470243836234360,-0.053772,0.216125,-0.868103,0.443665
1470243836248873,-0.053772,0.216187,-0.868042,0.443665
1470243836279400,-0.053772,0.216125,-0.868042,0.443665
1470243836301920,-0.053772,0.216125,-0.868042,0.443665
1470243836315434,-0.053772,0.216125,-0.868103,0.443665
1470243836331948,-0.053772,0.216125,-0.868103,0.443665
1470243836355470,-0.053772,0.216125,-0.868103,0.443665
1470243836375988,-0.053772,0.216125,-0.868103,0.443665
1470243836392002,-0.053772,0.216125,-0.868103,0.443665
1470243836430036,-0.053772,0.216125,-0.868103,0.443665
1470243836435540,-0.053772,0.216125,-0.868103,0.443665
1470243836452055,-0.053772,0.216125,-0.868103,0.443665
1470243836482083,-0.053772,0.216125,-0.868103,0.443665
1470243836495596,-0.053772,0.216125,-0.868103,0.443665
1470243836512108,-0.053772,0.216125,-0.868103,0.443665
1470243836534629,-0.053772,0.216125,-0.868103,0.443665
1470243836558152,-0.053772,0.216125,-0.868042,0.443665
1470243836585674,-0.053833,0.216187,-0.868042,0.443665
1470243836594683,-0.053833,0.216187,-0.868042,0.443665
1470243836615704,-0.053833,0.216187,-0.868042,0.443665
1470243836631717,-0.053833,0.216187,-0.868042,0.443665
1470243836654738,-0.053833,0.216187,-0.868042,0.443665
1470243836675757,-0.053894,0.216187,-0.868042,0.443665
1470243836699778,-0.053894,0.216248,-0.868042,0.443665
1470243836714791,-0.053894,0.216248,-0.868042,0.443665
1470243836736811,-0.053894,0.216248,-0.868042,0.443665
1470243836751824,-0.0540161,0.216492,-0.867981,0.443665
1470243836775346,-0.0540161,0.216492,-0.867981,0.443604
1470243836796865,-0.0540771,0.216553,-0.867981,0.443604
1470243836811881,-0.0540771,0.216553,-0.867981,0.443604
1470243836834399,-0.0540771,0.216553,-0.867981,0.443604
1470243836863425,-0.0541382,0.216675,-0.86792,0.443604
1470243836871932,-0.0543823,0.217041,-0.867859,0.443604
1470243836894454,-0.0545654,0.217285,-0.867798,0.443542
1470243836916972,-0.0545654,0.217285,-0.867798,0.443542
1470243836939493,-0.0545654,0.217346,-0.867798,0.443542
1470243836955507,-0.0545654,0.217346,-0.867798,0.443542
1470243836977029,-0.0546265,0.217346,-0.867798,0.443542
1470243836998045,-0.0546265,0.217346,-0.867798,0.443481
1470243837014560,-0.0546265,0.217407,-0.867798,0.443481
1470243837043587,-0.0546265,0.217651,-0.867737,0.44342
1470243837052594,-0.0546875,0.218079,-0.867737,0.443298
1470243837089627,-0.0549316,0.218567,-0.867615,0.443237
1470243837097137,-0.0549316,0.218567,-0.867615,0.443237
1470243837111647,-0.0549316,0.218567,-0.867615,0.443237
1470243837134168,-0.0549316,0.218567,-0.867615,0.443237
1470243837157188,-0.0549316,0.218567,-0.867615,0.443237
1470243837171701,-0.0549927,0.218567,-0.867615,0.443237
1470243837200727,-0.0549927,0.218567,-0.867615,0.443237
1470243837216742,-0.0549927,0.218567,-0.867615,0.443237
1470243837238261,-0.0549927,0.218628,-0.867615,0.443237
1470243837254276,-0.0549927,0.218628,-0.867615,0.443176
1470243837277300,-0.0549927,0.218628,-0.867615,0.443176
1470243837299316,-0.0549927,0.218689,-0.867615,0.443176
1470243837314329,-0.0549927,0.218689,-0.867615,0.443176
1470243837336850,-0.0549927,0.218689,-0.867615,0.443176
1470243837358370,-0.0550537,0.218689,-0.867615,0.443176
1470243837374885,-0.0550537,0.218689,-0.867615,0.443176
1470243837396904,-0.0550537,0.21875,-0.867615,0.443176
1470243837418426,-0.0550537,0.21875,-0.867615,0.443176
1470243837434437,-0.0549316,0.218628,-0.867676,0.443176
1470243837456958,-0.0549316,0.218628,-0.867676,0.443176
1470243837477977,-0.0548706,0.218628,-0.867615,0.443176
1470243837500497,-0.0548706,0.218689,-0.867615,0.443176
1470243837533526,-0.0549316,0.218689,-0.867615,0.443176
1470243837538030,-0.0549316,0.218689,-0.867615,0.443176
1470243837554546,-0.0549316,0.21875,-0.867615,0.443176
1470243837577067,-0.0549316,0.21875,-0.867615,0.443176
1470243837598084,-0.0549316,0.21875,-0.867615,0.443115
1470243837615099,-0.0549316,0.21875,-0.867615,0.443115
1470243837637119,-0.0549316,0.218811,-0.867615,0.443176
1470243837658639,-0.0549316,0.218811,-0.867615,0.443115
1470243837674655,-0.0549316,0.218811,-0.867615,0.443115
1470243837697173,-0.0549316,0.218872,-0.867615,0.443115
1470243837727201,-0.0549927,0.218872,-0.867615,0.443115
1470243837734707,-0.0548096,0.21875,-0.867615,0.443115
1470243837757227,-0.0548096,0.21875,-0.867615,0.443115
1470243837779748,-0.0548096,0.218811,-0.867615,0.443115
1470243837794761,-0.0548096,0.218811,-0.867615,0.443115
1470243837817281,-0.0548096,0.218811,-0.867615,0.443115
1470243837839300,-0.0548096,0.218811,-0.867615,0.443115
1470243837853813,-0.0548096,0.218872,-0.867615,0.443115
1470243837877335,-0.0548096,0.218872,-0.867615,0.443115
1470243837899355,-0.0548096,0.218872,-0.867615,0.443115
1470243837913868,-0.0548096,0.218872,-0.867615,0.443115
1470243837942896,-0.0548096,0.218933,-0.867615,0.443115
1470243837966915,-0.0548096,0.218933,-0.867615,0.443115
1470243837975427,-0.0547485,0.218811,-0.867615,0.443115
1470243837997443,-0.0546875,0.218689,-0.867615,0.443237
1470243838025971,-0.0546875,0.21875,-0.867615,0.443237
1470243838033976,-0.0548706,0.218628,-0.867493,0.443481
1470243838056996,-0.0551147,0.218506,-0.867371,0.443726
1470243838087023,-0.0552368,0.218445,-0.867249,0.44397
1470243838094532,-0.0552368,0.218445,-0.867249,0.44397
1470243838117050,-0.0552368,0.218445,-0.867249,0.44397
1470243838139571,-0.0552368,0.218445,-0.867249,0.44397
1470243838168096,-0.0552368,0.218445,-0.867249,0.44397
1470243838177606,-0.0552368,0.218506,-0.867249,0.44397
1470243838190116,-0.0552979,0.218506,-0.867249,0.44397
1470243838205129,-0.0551147,0.218384,-0.867371,0.443848
1470243838230152,-0.0551147,0.218445,-0.86731,0.443848
1470243838251672,-0.0551147,0.218445,-0.86731,0.443848
1470243838265183,-0.0551147,0.218445,-0.86731,0.443848
1470243838290206,-0.0551147,0.218445,-0.86731,0.443848
1470243838305219,-0.0551147,0.218445,-0.86731,0.443848
1470243838327739,-0.0551147,0.218445,-0.86731,0.443848
1470243838342754,-0.0551147,0.218445,-0.86731,0.443848
1470243838362773,-0.0551147,0.218506,-0.86731,0.443848
1470243838385291,-0.0551147,0.218506,-0.86731,0.443848
1470243838407811,-0.0550537,0.218506,-0.86731,0.443848
1470243838422825,-0.0552979,0.218689,-0.867188,0.443909
1470243838445345,-0.0552979,0.21875,-0.867188,0.443909
1470243838479376,-0.0552979,0.21875,-0.867188,0.443909
1470243838483880,-0.0552979,0.21875,-0.867188,0.443909
1470243838504899,-0.0552979,0.21875,-0.867188,0.443909
1470243838522914,-0.0552979,0.21875,-0.867188,0.443909
1470243838542433,-0.0552979,0.21875,-0.867188,0.443909
1470243838564954,-0.0552979,0.21875,-0.867188,0.443909
1470243838582581,-0.0552979,0.21875,-0.867188,0.443909
1470243838603600,-0.0552979,0.218811,-0.867188,0.443909
1470243838625119,-0.0552979,0.218811,-0.867188,0.443909
1470243838643151,-0.0553589,0.218811,-0.867188,0.443909
1470243838662669,-0.0552979,0.218811,-0.867188,0.443909
1470243838685189,-0.0553589,0.218872,-0.867188,0.443909
1470243838702705,-0.0553589,0.218872,-0.867188,0.443909
1470243838722723,-0.0552979,0.218872,-0.867188,0.443909
1470243838745243,-0.0552979,0.218872,-0.867188,0.443909
1470243838770265,-0.0552979,0.218872,-0.867188,0.443909
1470243838782780,-0.0552979,0.218872,-0.867188,0.443909
1470243838804796,-0.0553589,0.218872,-0.867188,0.443909
1470243838828818,-0.0553589,0.218872,-0.867188,0.443909
1470243838842833,-0.0553589,0.218872,-0.867188,0.443909
1470243838864851,-0.0553589,0.218933,-0.867188,0.443909
1470243838890374,-0.0553589,0.218933,-0.867188,0.443909
1470243838909894,-0.0553589,0.218933,-0.867188,0.443909
1470243838925406,-0.0553589,0.218933,-0.867188,0.443909
1470243838943422,-0.0553589,0.218994,-0.867188,0.443909
1470243838962437,-0.0553589,0.218994,-0.867188,0.443909
1470243838986460,-0.0553589,0.218994,-0.867126,0.443909
1470243839002974,-0.0553589,0.218933,-0.867188,0.443848
1470243839029999,-0.0552979,0.218872,-0.867188,0.443848
1470243839045013,-0.0552979,0.218872,-0.867188,0.443848
1470243839063029,-0.0552979,0.218933,-0.867188,0.443848
1470243839082546,-0.0552979,0.218933,-0.867188,0.443848
1470243839115575,-0.0553589,0.218933,-0.867188,0.443848
1470243839122583,-0.0553589,0.218933,-0.867188,0.443787
1470243839142601,-0.0553589,0.218933,-0.867188,0.443787
1470243839165120,-0.0553589,0.218994,-0.867188,0.443787
1470243839182638,-0.0553589,0.218994,-0.867188,0.443787
1470243839202654,-0.0553589,0.218994,-0.867188,0.443787
1470243839225175,-0.0553589,0.218994,-0.867188,0.443787
1470243839242691,-0.0553589,0.218994,-0.867188,0.443787
1470243839263709,-0.0553589,0.219055,-0.867188,0.443787
1470243839293236,-0.0554199,0.219055,-0.867188,0.443787
1470243839310254,-0.0554199,0.219055,-0.867188,0.443787
1470243839323762,-0.0554199,0.219055,-0.867188,0.443787
1470243839352288,-0.0554199,0.219116,-0.867188,0.443787
1470243839362798,-0.0554199,0.219055,-0.867188,0.443787
1470243839391826,-0.0554199,0.219116,-0.867188,0.443787
1470243839404836,-0.0554199,0.219116,-0.867188,0.443787
1470243839422852,-0.0554199,0.219116,-0.867188,0.443787
1470243839444872,-0.0554199,0.219177,-0.867188,0.443787
1470243839472397,-0.055481,0.219177,-0.867188,0.443787
1470243839488912,-0.055481,0.219177,-0.867188,0.443787
1470243839503924,-0.055481,0.219177,-0.867126,0.443787
1470243839525446,-0.0554199,0.219177,-0.867126,0.443787
1470243839543462,-0.0554199,0.219238,-0.867126,0.443787
1470243839564478,-0.055481,0.219177,-0.867126,0.443787
1470243839584997,-0.055481,0.219177,-0.867126,0.443787
1470243839603013,-0.055481,0.219238,-0.867126,0.443787
1470243839631540,-0.055481,0.219238,-0.867126,0.443787
1470243839645052,-0.055481,0.219238,-0.867126,0.443787
1470243839663067,-0.055481,0.219238,-0.867126,0.443787
1470243839685587,-0.055481,0.219299,-0.867126,0.443787
1470243839705106,-0.055481,0.219299,-0.867126,0.443787
1470243839722622,-0.055481,0.219299,-0.867126,0.443787
1470243839745641,-0.055481,0.219299,-0.867126,0.443787
1470243839765158,-0.055542,0.219299,-0.867126,0.443787
1470243839782675,-0.055542,0.21936,-0.867126,0.443726
1470243839805195,-0.055542,0.21936,-0.867126,0.443726
1470243839835222,-0.055542,0.21936,-0.867126,0.443726
1470243839842730,-0.055542,0.21936,-0.867126,0.443726
1470243839865250,-0.055542,0.21936,-0.867126,0.443726
1470243839885267,-0.055542,0.21936,-0.867126,0.443726
1470243839916295,-0.055542,0.21936,-0.867126,0.443726
1470243839925806,-0.055603,0.21936,-0.867126,0.443726
1470243839945324,-0.055603,0.21936,-0.867126,0.443726
1470243839962837,-0.055603,0.219421,-0.867126,0.443726
1470243839985356,-0.055603,0.219421,-0.867126,0.443726
1470243840004876,-0.055603,0.219421,-0.867126,0.443726
1470243840022890,-0.055603,0.219421,-0.867126,0.443726
1470243840045411,-0.055603,0.219421,-0.867126,0.443726
1470243840065930,-0.0556641,0.219421,-0.867126,0.443726
1470243840087449,-0.0556641,0.219482,-0.867126,0.443726
1470243840111470,-0.0556641,0.219482,-0.867126,0.443726
1470243840125985,-0.0556641,0.219482,-0.867126,0.443726
1470243840143000,-0.0556641,0.219482,-0.867126,0.443726
1470243840165520,-0.0556641,0.219421,-0.867126,0.443726
1470243840195545,-0.0556641,0.219482,-0.867126,0.443726
1470243840203052,-0.0556641,0.219482,-0.867126,0.443726
1470243840225575,-0.0556641,0.219482,-0.867126,0.443726
1470243840246591,-0.0557251,0.219482,-0.867065,0.443726
1470243840263107,-0.0557251,0.219482,-0.867065,0.443726
1470243840286627,-0.0557251,0.219543,-0.867065,0.443726
1470243840309465,-0.0557251,0.219543,-0.867065,0.443726
1470243840323478,-0.0557251,0.219543,-0.867065,0.443726
1470243840345497,-0.0557251,0.219604,-0.867065,0.443726
1470243840366516,-0.0557251,0.219604,-0.867065,0.443726
1470243840390538,-0.0557251,0.219604,-0.867065,0.443726
1470243840405550,-0.0557251,0.219604,-0.867065,0.443726
1470243840434078,-0.0557251,0.219604,-0.867065,0.443665
1470243840443085,-0.0557251,0.219666,-0.867065,0.443665
1470243840465604,-0.0557861,0.219666,-0.867065,0.443665
1470243840486623,-0.0557861,0.219666,-0.867065,0.443665
1470243840525181,-0.0557861,0.219666,-0.867065,0.443665
1470243840526683,-0.0557861,0.219666,-0.867065,0.443665
1470243840553704,-0.0557861,0.219727,-0.867065,0.443665
1470243840564213,-0.0557861,0.219727,-0.867065,0.443665
1470243840585232,-0.0557861,0.219727,-0.867065,0.443665
1470243840608255,-0.0557861,0.219727,-0.867065,0.443665
1470243840628771,-0.0557861,0.219727,-0.867065,0.443665
1470243840645286,-0.0557861,0.219727,-0.867065,0.443665
1470243840667807,-0.0558472,0.219727,-0.867065,0.443665
1470243840687325,-0.055603,0.219727,-0.867126,0.443542
1470243840705340,-0.055603,0.219727,-0.867126,0.443542
1470243840727361,-0.0554199,0.219788,-0.867188,0.443359
1470243840748379,-0.0552979,0.219971,-0.867249,0.443237
1470243840764393,-0.0552979,0.220398,-0.867188,0.443115
1470243840787416,-0.0551758,0.22052,-0.867249,0.442932
1470243840809114,-0.0549316,0.220398,-0.867432,0.442688
1470243840827128,-0.0549316,0.220459,-0.867432,0.442688
1470243840847145,-0.0549316,0.220459,-0.867432,0.442688
1470243840868164,-0.0549316,0.220459,-0.867432,0.442688
1470243840884678,-0.0549316,0.220459,-0.867432,0.442688
1470243840907199,-0.0549316,0.220459,-0.867432,0.442688
1470243840928219,-0.0549316,0.220459,-0.867432,0.442688
1470243840944732,-0.0550537,0.220764,-0.86731,0.44281
1470243840974760,-0.0550537,0.220764,-0.86731,0.44281
1470243840988271,-0.0549316,0.220642,-0.867432,0.442627
1470243841004786,-0.0546265,0.220398,-0.867554,0.442444
1470243841027307,-0.0545654,0.220398,-0.867554,0.442444
1470243841056060,-0.0546265,0.220581,-0.867493,0.442505
1470243841064568,-0.0548096,0.220886,-0.867371,0.442566
1470243841102601,-0.0548096,0.220947,-0.867371,0.442566
1470243841108608,-0.0548096,0.220947,-0.867371,0.442566
1470243841124621,-0.0548096,0.220947,-0.867371,0.442566
1470243841147142,-0.0548096,0.220947,-0.867371,0.442566
1470243841168161,-0.0548096,0.221008,-0.867371,0.442566
1470243841184675,-0.0548096,0.221008,-0.867371,0.442566
1470243841207196,-0.0546875,0.220886,-0.867432,0.442505
1470243841228215,-0.0546265,0.220703,-0.867554,0.442383
1470243841244729,-0.0546265,0.220703,-0.867554,0.442383
1470243841274756,-0.0546265,0.220703,-0.867554,0.442383
1470243841295776,-0.0546265,0.220581,-0.867554,0.442383
1470243841305784,-0.0546265,0.220398,-0.867615,0.442383
1470243841327303,-0.0545654,0.220215,-0.867676,0.442383
1470243841347821,-0.0545654,0.220215,-0.867676,0.442383
1470243841364337,-0.0545044,0.220215,-0.867676,0.442383
1470243841386857,-0.0545654,0.220215,-0.867676,0.442383
1470243841407916,-0.0545044,0.220215,-0.867676,0.442383
1470243841423930,-0.0550537,0.221436,-0.867249,0.442505
1470243841446952,-0.055542,0.221924,-0.867065,0.442566
1470243841467970,-0.0551758,0.221313,-0.867249,0.442566
1470243841485487,-0.0541992,0.220764,-0.867371,0.442688
1470243841507005,-0.0527344,0.220398,-0.867249,0.443298
1470243841537032,-0.0518799,0.220215,-0.866943,0.444092
1470243841544540,-0.0516968,0.220398,-0.866699,0.444519
1470243841580571,-0.0515137,0.220581,-0.866455,0.444946
1470243841589580,-0.0509644,0.220276,-0.866455,0.44519
1470243841604592,-0.050293,0.219543,-0.866699,0.445129
1470243841627614,-0.0498047,0.219177,-0.866882,0.445007
1470243841649633,-0.0493774,0.219177,-0.866882,0.445007
1470243841664147,-0.0493774,0.219604,-0.86676,0.445007
1470243841687167,-0.0496216,0.220215,-0.866577,0.445068
1470243841709688,-0.0500488,0.220459,-0.866577,0.444946
1470243841723700,-0.050354,0.22052,-0.866516,0.445007
1470243841747220,-0.050354,0.220398,-0.866394,0.445313
1470243841770241,-0.050415,0.220215,-0.866455,0.445251
1470243841783754,-0.0496216,0.219666,-0.86676,0.444946
1470243841806774,-0.0494995,0.219788,-0.867004,0.444519
1470243841829294,-0.0493774,0.21991,-0.867126,0.444153
1470243841859824,-0.0489502,0.219788,-0.867371,0.443848
1470243841866828,-0.0488281,0.219849,-0.867493,0.443542
1470243841890350,-0.0488281,0.220093,-0.867615,0.443176
1470243841904361,-0.0490723,0.220398,-0.867737,0.442871
1470243841927382,-0.0494385,0.220886,-0.867737,0.442505
1470243841949402,-0.0498657,0.221497,-0.867676,0.442261
1470243841970924,-0.050354,0.221863,-0.867676,0.442078
1470243841986936,-0.0506592,0.221863,-0.867676,0.442017
1470243842009956,-0.0510864,0.221863,-0.867676,0.442017
1470243842031479,-0.0516968,0.221741,-0.867554,0.442139
1470243842046989,-0.0523682,0.221802,-0.867432,0.442322
1470243842069510,-0.0534058,0.222229,-0.867065,0.442627
1470243842098537,-0.0542603,0.222473,-0.866882,0.44281
1470243842107044,-0.0549316,0.222839,-0.866699,0.442993
1470243842130066,-0.055481,0.223145,-0.866333,0.44342
1470243842150583,-0.0562744,0.223206,-0.86615,0.443604
1470243842167098,-0.0568237,0.223083,-0.866089,0.443726
1470243842189617,-0.057312,0.222717,-0.865967,0.444092
1470243842212138,-0.0576782,0.222595,-0.865784,0.444458
1470243842227151,-0.0581665,0.222656,-0.865479,0.444946
1470243842249672,-0.0587769,0.222534,-0.865356,0.445129
1470243842270692,-0.0587158,0.222168,-0.865417,0.44519
1470243842286704,-0.0585327,0.221924,-0.86554,0.44519
1470243842309725,-0.0585938,0.221985,-0.865417,0.445374
1470243842332246,-0.0588379,0.222168,-0.865173,0.44574
1470243842346759,-0.059082,0.222046,-0.865051,0.446045
1470243842369780,-0.0592041,0.22168,-0.865051,0.446106
1470243842390798,-0.0592651,0.221375,-0.865112,0.446167
1470243842407313,-0.0593262,0.22113,-0.865051,0.446411
1470243842429333,-0.0593872,0.221008,-0.864807,0.44696
1470243842452354,-0.0593872,0.220459,-0.864624,0.44751
1470243842467368,-0.059082,0.21991,-0.864563,0.447998
1470243842489887,-0.059021,0.219849,-0.864563,0.447998
1470243842511909,-0.059021,0.220093,-0.864624,0.447815
1470243842527423,-0.0594482,0.221252,-0.86438,0.447632
1470243842549441,-0.0595093,0.221252,-0.86438,0.447632
1470243842571960,-0.059021,0.220703,-0.864441,0.447815
1470243842586476,-0.059021,0.220703,-0.864441,0.447815
1470243842609997,-0.059082,0.220642,-0.864502,0.447815
1470243842632016,-0.0587769,0.220398,-0.864624,0.447693
1470243842646530,-0.0581665,0.220276,-0.864807,0.44751
1470243842669549,-0.0580444,0.220886,-0.864746,0.447266
1470243842692070,-0.0581055,0.221619,-0.864746,0.44696
1470243842706582,-0.0577393,0.222107,-0.864868,0.446533
1470243842729602,-0.057312,0.222778,-0.864929,0.446106
1470243842752123,-0.057251,0.223511,-0.864807,0.445984
1470243842766636,-0.0571899,0.223877,-0.864563,0.446289
1470243842789657,-0.0568237,0.223633,-0.86438,0.446777
1470243842818182,-0.0563354,0.223572,-0.864319,0.447021
1470243842828192,-0.0560303,0.223633,-0.86438,0.446899
1470243842849711,-0.0558472,0.223999,-0.86438,0.446777
1470243842888245,-0.0559692,0.224487,-0.864197,0.446838
1470243842893250,-0.0562134,0.225037,-0.863953,0.44696
1470243842909765,-0.0563965,0.225342,-0.863831,0.447021
1470243842932284,-0.0562744,0.225586,-0.863892,0.446899
1470243842953304,-0.0560913,0.22583,-0.863892,0.446655
1470243842969317,-0.0561523,0.226318,-0.86377,0.446716
1470243842992340,-0.0563354,0.226746,-0.863586,0.446838
1470243843013358,-0.0563354,0.22699,-0.863403,0.447021
1470243843029872,-0.0560303,0.226807,-0.863525,0.44696
1470243843051892,-0.0551758,0.226318,-0.863708,0.446899
1470243843073411,-0.0544434,0.226379,-0.863525,0.447388
1470243843089425,-0.0537109,0.226257,-0.863281,0.447998
1470243843112447,-0.0525513,0.225403,-0.863403,0.448303
1470243843132965,-0.0510864,0.22345,-0.863708,0.448853
1470243843150480,-0.0500488,0.222046,-0.86377,0.449524
1470243843172000,-0.0498657,0.22229,-0.863525,0.44989
1470243843193019,-0.0504761,0.223267,-0.863159,0.450073
1470243843209535,-0.0514526,0.224609,-0.862854,0.44989
1470243843246566,-0.0524902,0.226013,-0.86261,0.449524
1470243843253073,-0.0534668,0.227173,-0.862488,0.449097
1470243843270089,-0.0540771,0.227722,-0.862549,0.448547
1470243843292610,-0.0541992,0.227844,-0.862793,0.448059
1470243843313627,-0.0541992,0.228027,-0.862915,0.447693
1470243843329642,-0.0545044,0.228394,-0.862915,0.44751
1470243843352161,-0.0548096,0.22876,-0.862915,0.447327
1470243843375184,-0.0550537,0.229126,-0.862915,0.447083
1470243843389697,-0.0553589,0.229797,-0.862854,0.446838
1470243843412218,-0.0559082,0.230469,-0.862671,0.446716
1470243843434735,-0.0564575,0.230774,-0.86261,0.446655
1470243843449750,-0.0563965,0.230774,-0.86261,0.446655
1470243843472270,-0.0564575,0.230469,-0.862732,0.446533
1470243843495291,-0.0563354,0.230286,-0.862793,0.446594
1470243843515808,-0.0560913,0.230103,-0.862793,0.446716
1470243843532322,-0.0561523,0.230164,-0.862671,0.446838
1470243843554343,-0.0562134,0.22998,-0.86261,0.447083
1470243843568856,-0.0563965,0.229553,-0.862488,0.44751
1470243843592377,-0.0563354,0.22876,-0.862427,0.447998
1470243843614396,-0.0560303,0.227966,-0.862549,0.448242
1470243843628911,-0.0560913,0.227234,-0.86261,0.448425
1470243843651930,-0.0563354,0.226563,-0.862854,0.448364
1470243843674451,-0.0565796,0.226074,-0.862976,0.448242
1470243843688964,-0.0569458,0.226013,-0.863037,0.448181
1470243843711985,-0.057312,0.22583,-0.863037,0.448242
1470243843734505,-0.0571899,0.225708,-0.863098,0.448242
1470243843749018,-0.0568848,0.225403,-0.86322,0.44812
1470243843772038,-0.0568848,0.225403,-0.86322,0.44812
1470243843794560,-0.0568848,0.225403,-0.86322,0.44812
1470243843809073,-0.0565186,0.225281,-0.863281,0.44812
1470243843832092,-0.0558472,0.225403,-0.863098,0.448486
1470243843854613,-0.0541992,0.224487,-0.863342,0.448669
1470243843877134,-0.0517578,0.22229,-0.863464,0.44989
1470243843892149,-0.0509033,0.221558,-0.863342,0.450562
1470243843914667,-0.0510254,0.222107,-0.862793,0.451294
1470243843935687,-0.0518799,0.223206,-0.862244,0.451721
1470243843952200,-0.0527954,0.224121,-0.862,0.45166
1470243843974720,-0.0536499,0.224609,-0.861938,0.451355
1470243843995869,-0.0541992,0.224976,-0.861938,0.451111
1470243844011882,-0.0549316,0.225525,-0.861938,0.450806
1470243844042410,-0.0556641,0.225464,-0.862122,0.450378
1470243844056927,-0.0556641,0.224915,-0.862488,0.44989
1470243844071935,-0.0552979,0.224426,-0.862854,0.449524
1470243844094458,-0.0551758,0.224426,-0.862976,0.44928
1470243844115530,-0.0546875,0.223816,-0.863281,0.449097
1470243844137995,-0.0535278,0.223022,-0.863281,0.449646
1470243844154509,-0.0526123,0.222839,-0.862732,0.450806
1470243844176029,-0.0537109,0.223389,-0.862122,0.45166
1470243844192545,-0.0557861,0.22406,-0.861755,0.451721
1470243844214564,-0.05896,0.226135,-0.860962,0.451843
1470243844235687,-0.0634155,0.229492,-0.85968,0.452026
1470243844251597,-0.0689697,0.232422,-0.858582,0.451782
1470243844274621,-0.0748291,0.235168,-0.857361,0.451782
1470243844295654,-0.0814209,0.240479,-0.855042,0.452209
1470243844311151,-0.0865479,0.244873,-0.851929,0.454712
1470243844334673,-0.0895386,0.246582,-0.848816,0.458984
1470243844357191,-0.0908813,0.244995,-0.846252,0.464355
1470243844371208,-0.0918579,0.243408,-0.84259,0.471619
1470243844394725,-0.0933838,0.243896,-0.837219,0.48053
1470243844417245,-0.0944824,0.245056,-0.83075,0.490784
1470243844431260,-0.0943604,0.245361,-0.823608,0.502563
1470243844454780,-0.0936279,0.244934,-0.815735,0.515564
1470243844477301,-0.0923462,0.244324,-0.807251,0.529236
1470243844491813,-0.0908203,0.24408,-0.798218,0.543213
1470243844514835,-0.0895996,0.24408,-0.788635,0.55719
1470243844537353,-0.0893555,0.244263,-0.778931,0.570618
1470243844558373,-0.0892334,0.244446,-0.769531,0.583252
1470243844574887,-0.0888672,0.244751,-0.760559,0.594727
1470243844596907,-0.0875854,0.244202,-0.752686,0.605164
1470243844618426,-0.0863647,0.243286,-0.745544,0.61438
1470243844634450,-0.0860596,0.242554,-0.738953,0.62262
1470243844656970,-0.0869751,0.242615,-0.732727,0.629883
1470243844678207,-0.0889893,0.242859,-0.727234,0.635742
1470243844694722,-0.0906982,0.24176,-0.723022,0.640747
1470243844717242,-0.0911255,0.238892,-0.720154,0.64502
1470243844739762,-0.0912476,0.234375,-0.71814,0.648865
1470243844754776,-0.0932617,0.230286,-0.716431,0.651917
1470243844777297,-0.097168,0.226746,-0.715332,0.653748
1470243844798316,-0.100708,0.222595,-0.715332,0.654663
1470243844814830,-0.103088,0.217834,-0.716309,0.654846
1470243844837351,-0.105713,0.21283,-0.717834,0.654419
1470243844858369,-0.109009,0.208923,-0.719727,0.653076
1470243844874884,-0.110291,0.206238,-0.722046,0.651123
1470243844897407,-0.109009,0.204834,-0.724609,0.648926
1470243844918423,-0.108887,0.205017,-0.727173,0.645996
1470243844934450,-0.111206,0.20697,-0.72998,0.641846
1470243844956958,-0.113098,0.20929,-0.73407,0.636047
1470243844978476,-0.111633,0.210266,-0.740051,0.629028
1470243844994491,-0.107056,0.210327,-0.747131,0.621338
1470243845017011,-0.102417,0.211182,-0.754395,0.613037
1470243845038044,-0.0997925,0.213623,-0.761414,0.603821
1470243845054546,-0.0982056,0.216858,-0.768921,0.593323
1470243845077091,-0.0957031,0.219666,-0.776978,0.582153
1470243845098127,-0.0925293,0.221558,-0.785278,0.570679
1470243845114599,-0.0898438,0.223083,-0.793701,0.558777
1470243845137121,-0.0880127,0.224426,-0.802246,0.546204
1470243845158138,-0.0864258,0.226196,-0.810547,0.533264
1470243845174152,-0.0837402,0.227478,-0.818726,0.520508
1470243845197173,-0.0802612,0.228271,-0.826111,0.508972
1470243845218246,-0.0779419,0.22937,-0.832275,0.498596
1470243845234207,-0.0780029,0.230347,-0.837708,0.488953
1470243845257227,-0.079895,0.230652,-0.842834,0.479614
1470243845279748,-0.0823364,0.230042,-0.847717,0.470825
1470243845294260,-0.0841064,0.230042,-0.851685,0.463379
1470243845316781,-0.0862427,0.230774,-0.854248,0.457825
1470243845339801,-0.0882568,0.231812,-0.85553,0.454529
1470243845353814,-0.0897217,0.232971,-0.855652,0.453308
1470243845377335,-0.0871582,0.231506,-0.855896,0.454224
1470243845399855,-0.0837402,0.228577,-0.856018,0.456055
1470243845413868,-0.0821533,0.227539,-0.855774,0.457336
1470243845436888,-0.081543,0.228027,-0.855225,0.458191
1470243845459909,-0.0809937,0.227966,-0.854919,0.458862
1470243845473922,-0.0797729,0.226624,-0.855103,0.459473
1470243845497443,-0.0783081,0.22583,-0.855469,0.459351
1470243845519462,-0.0775757,0.225952,-0.855774,0.458862
1470243845542486,-0.0773926,0.227051,-0.855835,0.458313
1470243845556996,-0.0773926,0.228333,-0.855896,0.45752
1470243845580017,-0.0769043,0.228882,-0.856201,0.456787
1470243845594030,-0.0758667,0.22876,-0.85675,0.455994
1470243845617050,-0.0745239,0.228394,-0.857422,0.4552
1470243845639570,-0.0736694,0.228455,-0.857849,0.454407
1470243845654083,-0.0733643,0.22876,-0.858154,0.453674
1470243845677106,-0.0731812,0.228882,-0.858459,0.453125
1470243845699625,-0.072937,0.228455,-0.858826,0.452759
1470243845714138,-0.072876,0.227539,-0.859192,0.452393
1470243845737157,-0.0726318,0.226135,-0.859802,0.452087
1470243845759678,-0.0723267,0.224548,-0.860352,0.451843
1470243845780711,-0.0726318,0.223328,-0.860779,0.451538
1470243845797211,-0.0731201,0.222351,-0.861145,0.451233
1470243845819732,-0.0736694,0.221436,-0.86145,0.45105
1470243845840799,-0.0741577,0.220215,-0.861816,0.450867
1470243845857266,-0.074646,0.219116,-0.862244,0.450562
1470243845879786,-0.0751343,0.218384,-0.862549,0.450256
1470243845900805,-0.0758667,0.218079,-0.862671,0.450012
1470243845917319,-0.0768433,0.218018,-0.862671,0.44989
1470243845939839,-0.0776367,0.217957,-0.862671,0.449768
1470243845945345,-0.078125,0.21759,-0.862854,0.449524
1470243845967939,-0.0784302,0.217224,-0.863037,0.449341
1470243845982946,-0.0787964,0.216919,-0.863159,0.449097
1470243846012405,-0.0790405,0.216675,-0.863342,0.448853
1470243846027432,-0.0793457,0.216553,-0.863525,0.448547
1470243846042933,-0.0794678,0.216309,-0.863708,0.448303
1470243846064995,-0.0794067,0.215942,-0.863892,0.448059
1470243846087473,-0.0792236,0.215515,-0.864075,0.447876
1470243846102519,-0.0791016,0.215088,-0.864258,0.447815
1470243846125507,-0.0789795,0.2146,-0.864441,0.447693
1470243846150529,-0.0789185,0.214111,-0.864624,0.447571
1470243846162556,-0.0787964,0.213745,-0.864807,0.447449
1470243846185107,-0.0788574,0.213623,-0.86499,0.447144
1470243846207596,-0.0788574,0.213501,-0.865234,0.446716
1470243846222650,-0.0788574,0.213379,-0.86554,0.446167
1470243846245115,-0.0787354,0.212952,-0.866028,0.445496
1470243846267689,-0.0786743,0.212585,-0.866455,0.444824
1470243846282721,-0.0787354,0.212219,-0.866943,0.44397
1470243846305259,-0.0786743,0.211914,-0.867493,0.443115
1470243846327688,-0.0785522,0.211609,-0.868103,0.442139
1470243846342710,-0.0784912,0.211426,-0.868591,0.441162
1470243846365222,-0.0784912,0.211304,-0.869141,0.440247
1470243846387746,-0.0786133,0.211426,-0.869568,0.439331
1470243846402756,-0.0786133,0.211487,-0.869934,0.438538
1470243846425282,-0.0784302,0.211304,-0.870361,0.437805
1470243846447801,-0.0782471,0.211304,-0.870728,0.437073
1470243846462814,-0.078125,0.211426,-0.871155,0.436279
1470243846485468,-0.0778809,0.211426,-0.871582,0.435486
1470243846507850,-0.0775757,0.211609,-0.871948,0.434631
1470243846522891,-0.0772705,0.211792,-0.872253,0.434021
1470243846545445,-0.0769043,0.211975,-0.872437,0.433594
1470243846576428,-0.0762939,0.212097,-0.872681,0.433228
1470243846582418,-0.0756226,0.212097,-0.872925,0.432861
1470243846604939,-0.0748291,0.212463,-0.872986,0.432617
1470243846627470,-0.0740356,0.213013,-0.872986,0.432556
1470243846642972,-0.0728149,0.213501,-0.872864,0.432678
1470243846665046,-0.0712891,0.213989,-0.872803,0.4328
1470243846687574,-0.069458,0.214417,-0.872803,0.432922
1470243846702556,-0.0673218,0.214905,-0.872681,0.433289
1470243846725047,-0.0657959,0.215698,-0.872437,0.433655
1470243846747584,-0.0641479,0.214478,-0.873108,0.433105
1470243846762608,-0.0632324,0.214905,-0.872864,0.433594
1470243846788101,-0.0631104,0.216125,-0.872009,0.434692
1470243846807621,-0.0640869,0.217163,-0.871277,0.435425
1470243846822660,-0.0648804,0.218018,-0.870728,0.435974
1470243846845154,-0.0655518,0.218933,-0.870117,0.436646
1470243846867706,-0.0667725,0.219727,-0.869568,0.437195
1470243846884189,-0.0678711,0.219849,-0.869141,0.437805
1470243846905252,-0.0678101,0.219299,-0.86908,0.438171
1470243846927726,-0.0673218,0.218872,-0.86908,0.438477
1470243846944241,-0.0669556,0.219299,-0.868774,0.438965
1470243846965260,-0.0669556,0.220703,-0.868286,0.439209
1470243846987794,-0.0665894,0.222168,-0.86792,0.439209
1470243847003795,-0.0664063,0.223572,-0.867615,0.439148
1470243847025316,-0.06604,0.223694,-0.867615,0.439148
1470243847047835,-0.0648804,0.222717,-0.867859,0.439392
1470243847063849,-0.0634766,0.222046,-0.86792,0.439758
1470243847084868,-0.062561,0.221802,-0.867798,0.440247
1470243847107389,-0.0620728,0.221558,-0.867554,0.440918
1470243847131410,-0.0619507,0.22229,-0.866821,0.442017
1470243847144922,-0.0629883,0.224609,-0.865784,0.44281
1470243847167443,-0.0643311,0.227295,-0.864746,0.443176
1470243847185459,-0.0657959,0.228699,-0.864258,0.443176
1470243847204975,-0.0653076,0.227722,-0.864502,0.443298
1470243847227496,-0.0644531,0.227234,-0.864563,0.443542
1470243847246014,-0.0650024,0.2276,-0.864319,0.443848
1470243847265031,-0.0654297,0.227966,-0.864197,0.443787
1470243847287551,-0.0658569,0.228577,-0.864136,0.443481
1470243847305566,-0.0656128,0.227844,-0.864563,0.443054
1470243847327087,-0.0654907,0.227051,-0.865051,0.442627
1470243847347605,-0.0656128,0.226563,-0.865234,0.442444
1470243847365620,-0.0662231,0.226807,-0.865173,0.442383
1470243847385137,-0.0669556,0.227295,-0.86499,0.442383
1470243847407658,-0.067688,0.2276,-0.864868,0.442322
1470243847425676,-0.0678711,0.2276,-0.864929,0.442139
1470243847445191,-0.067688,0.227234,-0.865173,0.441956
1470243847467712,-0.0675049,0.227051,-0.865234,0.441833
1470243847485728,-0.0673828,0.226868,-0.865295,0.441833
1470243847505245,-0.0670776,0.226318,-0.86554,0.441772
1470243847527765,-0.0670776,0.226318,-0.86554,0.441772
1470243847545282,-0.0673218,0.226501,-0.865479,0.441711
1470243847565298,-0.067688,0.226563,-0.865479,0.44165
1470243847587319,-0.0678711,0.226563,-0.86554,0.441467
1470243847605899,-0.0679321,0.22644,-0.865601,0.441406
1470243847625355,-0.0679321,0.22644,-0.865723,0.441223
1470243847650378,-0.0679932,0.226379,-0.865845,0.440979
1470243847665966,-0.0678711,0.226318,-0.865967,0.440735
1470243847684912,-0.0675659,0.22583,-0.866272,0.44043
1470243847707427,-0.0671387,0.225586,-0.866455,0.440247
1470243847725445,-0.067627,0.226624,-0.866272,0.440125
1470243847744977,-0.067627,0.226624,-0.866272,0.440125
1470243847767482,-0.0670776,0.226624,-0.866333,0.440063
1470243847793004,-0.0667725,0.226563,-0.866394,0.439941
1470243847806518,-0.0664673,0.226379,-0.866577,0.439758
1470243847827539,-0.0661621,0.226257,-0.86676,0.439514
1470243847845553,-0.0658569,0.226196,-0.866943,0.43927
1470243847866569,-0.0655518,0.226257,-0.867065,0.439026
1470243847895097,-0.0654907,0.226379,-0.867126,0.438843
1470243847905606,-0.0655518,0.226685,-0.867126,0.43866
1470243847927125,-0.0656738,0.227112,-0.867065,0.438599
1470243847947645,-0.0656738,0.2276,-0.866943,0.438477
1470243847965660,-0.0656738,0.227966,-0.866943,0.438354
1470243847986678,-0.0657349,0.228027,-0.866943,0.438354
1470243848007697,-0.0656738,0.228088,-0.866943,0.438354
1470243848026214,-0.0654297,0.227783,-0.867065,0.438293
1470243848046731,-0.0648804,0.227295,-0.867188,0.438354
1470243848067753,-0.0643921,0.226929,-0.867249,0.438538
1470243848091774,-0.0643311,0.226929,-0.867249,0.438538
1470243848106285,-0.0648193,0.227417,-0.867004,0.438599
1470243848127806,-0.0651245,0.227112,-0.866943,0.438843
1470243848145322,-0.0643921,0.226135,-0.866882,0.439575
1470243848167841,-0.0641479,0.225952,-0.866882,0.439758
1470243848187858,-0.0643311,0.226379,-0.866699,0.439819
1470243848205374,-0.0644531,0.226624,-0.866638,0.439819
1470243848227894,-0.0646362,0.226929,-0.866577,0.439697
1470243848247412,-0.0646362,0.226929,-0.866577,0.439697
1470243848265429,-0.0648193,0.226929,-0.866638,0.439575
1470243848287949,-0.0649414,0.226929,-0.86676,0.439392
1470243848307466,-0.0653687,0.227234,-0.866699,0.439209
1470243848325984,-0.0655518,0.227417,-0.866699,0.439087
1470243848348002,-0.0656128,0.227478,-0.866699,0.439087
1470243848367520,-0.0656128,0.227478,-0.866699,0.439087
1470243848385536,-0.0656128,0.227478,-0.866821,0.438843
1470243848408559,-0.0654297,0.227356,-0.866882,0.438782
1470243848427574,-0.0651855,0.227112,-0.867004,0.43866
1470243848445590,-0.0651855,0.22699,-0.867188,0.438477
1470243848468112,-0.0651855,0.226807,-0.86731,0.438293
1470243848488162,-0.0652466,0.226685,-0.867432,0.43811
1470243848519656,-0.0653076,0.226501,-0.867615,0.437866
1470243848527201,-0.0653076,0.226135,-0.867798,0.437683
1470243848548182,-0.0653076,0.225952,-0.867981,0.437439
1470243848564697,-0.0650024,0.22522,-0.868164,0.437439
1470243848587217,-0.0641479,0.224121,-0.86853,0.437378
1470243848609237,-0.0646973,0.225891,-0.867859,0.437744
1470243848624753,-0.0645752,0.225586,-0.867615,0.438354
1470243848647270,-0.0640869,0.225525,-0.867554,0.438599
1470243848668299,-0.0650635,0.227722,-0.866394,0.439575
1470243848684804,-0.0661011,0.229126,-0.865845,0.439819
1470243848707825,-0.0666504,0.230042,-0.86554,0.439941
1470243848728378,-0.0671997,0.230225,-0.865417,0.439941
1470243848744858,-0.0675659,0.230957,-0.865173,0.439941
1470243848766878,-0.0681763,0.231934,-0.864868,0.440002
1470243848788397,-0.0681763,0.232117,-0.864807,0.439941
1470243848804912,-0.0672607,0.230774,-0.865417,0.439697
1470243848827432,-0.0664673,0.229553,-0.865845,0.439514
1470243848847975,-0.0663452,0.229065,-0.866089,0.439392
1470243848864467,-0.0661011,0.228699,-0.866272,0.439209
1470243848886996,-0.0656738,0.228149,-0.866516,0.439148
1470243848908505,-0.0650635,0.2276,-0.866638,0.439209
1470243848924520,-0.0645142,0.227173,-0.866699,0.439392
1470243848947540,-0.06427,0.227173,-0.866577,0.439636
1470243848968559,-0.0644531,0.2276,-0.866333,0.43988
1470243848984574,-0.0647583,0.228333,-0.866028,0.440125
1470243849007095,-0.0651855,0.229126,-0.865662,0.440308
1470243849028689,-0.0657349,0.229614,-0.865417,0.440491
1470243849044627,-0.0654297,0.229675,-0.865295,0.440796
1470243849067147,-0.0657959,0.231018,-0.864624,0.441223
1470243849089670,-0.06604,0.232178,-0.864075,0.441772
1470243849104681,-0.0658569,0.232239,-0.863892,0.442017
1470243849127203,-0.0655518,0.232849,-0.863525,0.442505
1470243849149742,-0.0658569,0.234131,-0.862976,0.442871
1470243849164737,-0.0662842,0.234436,-0.862732,0.443115
1470243849187256,-0.065918,0.234192,-0.862671,0.44342
1470243849209777,-0.0656738,0.233887,-0.862793,0.44342
1470243849223810,-0.0651855,0.233337,-0.862976,0.443359
1470243849247310,-0.0649414,0.233459,-0.862915,0.443481
1470243849269830,-0.0653076,0.233704,-0.862793,0.443481
1470243849283843,-0.0654297,0.233765,-0.862793,0.44342
1470243849307365,-0.0648193,0.23291,-0.86322,0.443176
1470243849329384,-0.0638428,0.231445,-0.863892,0.44281
1470243849343899,-0.0626221,0.229736,-0.864563,0.442566
1470243849367417,-0.0618896,0.228455,-0.865173,0.442139
1470243849389437,-0.0612793,0.227661,-0.865479,0.442017
1470243849403964,-0.0606689,0.227295,-0.865662,0.441895
1470243849426972,-0.0599976,0.226929,-0.865723,0.442078
1470243849449508,-0.0595093,0.226807,-0.865723,0.442261
1470243849464013,-0.0596924,0.227295,-0.865417,0.442505
1470243849487525,-0.0599365,0.227966,-0.865112,0.442749
1470243849510047,-0.0602417,0.228577,-0.864868,0.442871
1470243849524058,-0.0606689,0.229126,-0.864624,0.442993
1470243849547080,-0.0604858,0.229126,-0.864563,0.443115
1470243849569598,-0.0609741,0.228088,-0.864868,0.443054
1470243849590650,-0.0603027,0.228516,-0.864624,0.44342
1470243849607133,-0.0612183,0.230713,-0.86377,0.443726
1470243849629653,-0.0606689,0.22937,-0.864197,0.443726
1470243849650671,-0.0596313,0.228699,-0.86438,0.443848
1470243849667186,-0.0603638,0.22937,-0.864075,0.44397
1470243849689708,-0.0614624,0.230347,-0.863831,0.443909
1470243849710726,-0.0620117,0.230713,-0.863647,0.44397
1470243849727241,-0.0620728,0.230591,-0.86377,0.443665
1470243849749761,-0.0619507,0.230225,-0.864014,0.443481
1470243849770882,-0.0617676,0.22998,-0.864136,0.44342
1470243849787296,-0.0616455,0.229797,-0.864258,0.443237
1470243849809816,-0.0615234,0.229614,-0.86438,0.443115
1470243849830893,-0.0615234,0.229248,-0.864563,0.442993
1470243849847348,-0.0614624,0.229248,-0.864563,0.442993
1470243849877375,-0.0614624,0.229248,-0.864563,0.442993
1470243849890903,-0.0612793,0.229065,-0.864441,0.443298
1470243849906902,-0.0614014,0.229492,-0.864136,0.443665
1470243849929922,-0.0620728,0.230042,-0.863708,0.444153
1470243849950942,-0.062439,0.230042,-0.863403,0.444641
1470243849966956,-0.0623779,0.229797,-0.863281,0.445007
1470243849989476,-0.0619507,0.229858,-0.863098,0.445374
1470243850010999,-0.0613403,0.229614,-0.862976,0.445801
1470243850027510,-0.0606689,0.228882,-0.862976,0.446289
1470243850049529,-0.0596313,0.227905,-0.863098,0.446716
1470243850072050,-0.0599365,0.228821,-0.862732,0.447021
1470243850088066,-0.0602417,0.228821,-0.862488,0.447388
1470243850110084,-0.0598755,0.229065,-0.862366,0.44751
1470243850132608,-0.0602417,0.229797,-0.862061,0.447632
1470243850153623,-0.0601196,0.229675,-0.862061,0.447815
1470243850169638,-0.0599976,0.229614,-0.862061,0.447815
1470243850192161,-0.0595703,0.229065,-0.862183,0.447937
1470243850206673,-0.05896,0.229187,-0.862122,0.447998
