timestamp,x,y,z,w
1472092257631649,-0.0105591,-0.0577393,0.905334,0.420532
1472092257653683,-0.0105591,-0.0576782,0.905334,0.420532
1472092257677722,-0.0105591,-0.0576782,0.905334,0.420532
1472092257692747,-0.0105591,-0.0576782,0.905334,0.420532
1472092257714274,-0.0105591,-0.0576782,0.905334,0.420532
1472092257737796,-0.010437,-0.057373,0.905396,0.420471
1472092257791845,-0.0103149,-0.0570068,0.905396,0.420471
1472092257792845,-0.0102539,-0.0567017,0.905457,0.420349
1472092257793346,-0.0102539,-0.0567017,0.905457,0.420349
1472092257804856,-0.0102539,-0.0567017,0.905457,0.420349
1472092257819369,-0.0102539,-0.0567017,0.905457,0.420349
1472092257843391,-0.0102539,-0.0567017,0.905457,0.420349
1472092257866412,-0.0102539,-0.0567017,0.905457,0.420349
1472092257901444,-0.0103149,-0.0567017,0.905457,0.420349
1472092257911453,-0.0103149,-0.0567017,0.905457,0.420349
1472092257924464,-0.0103149,-0.0567017,0.905457,0.420349
1472092257947485,-0.010376,-0.0566406,0.905457,0.420349
1472092257961998,-0.010376,-0.0566406,0.905457,0.420349
1472092257986029,-0.0103149,-0.0565796,0.905457,0.420349
1472092258007061,-0.010376,-0.0565796,0.905457,0.420349
1472092258023592,-0.010376,-0.0565796,0.905457,0.420349
1472092258046138,-0.010376,-0.0565796,0.905457,0.420349
1472092258067169,-0.010376,-0.0565186,0.905457,0.420349
1472092258083696,-0.010437,-0.0565186,0.905457,0.420349
1472092258106227,-0.010437,-0.0565186,0.905518,0.420349
1472092258127283,-0.010437,-0.0565186,0.905518,0.420349
1472092258143305,-0.010437,-0.0564575,0.905518,0.420349
1472092258165837,-0.010437,-0.0564575,0.905518,0.420349
1472092258187356,-0.010437,-0.0564575,0.905518,0.420349
1472092258203370,-0.010498,-0.0564575,0.905518,0.420349
1472092258225891,-0.010498,-0.0564575,0.905518,0.420349
1472092258247410,-0.010498,-0.0563965,0.905518,0.420349
1472092258263425,-0.010498,-0.0563965,0.905518,0.420349
1472092258285945,-0.0105591,-0.0563965,0.905518,0.420349
1472092258307465,-0.0105591,-0.0563965,0.905518,0.420349
1472092258323479,-0.0105591,-0.0563965,0.905518,0.420349
1472092258345999,-0.0106201,-0.0563354,0.905518,0.420349
1472092258367018,-0.0106201,-0.0563354,0.905518,0.420349
1472092258383533,-0.0106201,-0.0563354,0.905518,0.420349
1472092258406053,-0.0106812,-0.0563354,0.905518,0.420349
1472092258427073,-0.0106812,-0.0563354,0.905518,0.420349
1472092258443588,-0.0106812,-0.0563354,0.905518,0.420349
1472092258466108,-0.0107422,-0.0563354,0.905518,0.420349
1472092258487127,-0.0107422,-0.0562744,0.905518,0.420349
1472092258503643,-0.0107422,-0.0562744,0.905518,0.420349
1472092258526162,-0.0107422,-0.0562744,0.905518,0.420349
1472092258547181,-0.0107422,-0.0562134,0.905518,0.420349
1472092258563696,-0.0108032,-0.0562134,0.905518,0.420349
1472092258586216,-0.0108032,-0.0562134,0.905518,0.420349
1472092258607236,-0.0108032,-0.0562134,0.905518,0.420349
1472092258623751,-0.0108032,-0.0561523,0.905518,0.420349
1472092258645781,-0.0108643,-0.0561523,0.905518,0.420349
1472092258667324,-0.0108643,-0.0561523,0.905518,0.420349
1472092258683851,-0.0108643,-0.0561523,0.905518,0.420349
1472092258705898,-0.0109253,-0.0560913,0.905518,0.420349
1472092258728419,-0.0109253,-0.0560913,0.905518,0.420349
1472092258743460,-0.0109253,-0.0560303,0.905518,0.420349
1472092258765990,-0.0109253,-0.0560303,0.905518,0.420349
1472092258788771,-0.0109253,-0.0559692,0.905518,0.420349
1472092258803768,-0.0109253,-0.0559692,0.905518,0.420349
1472092258825805,-0.0109863,-0.0559692,0.905518,0.420349
1472092258848564,-0.0109863,-0.0559692,0.905518,0.420349
1472092258862576,-0.0109863,-0.0559692,0.905518,0.420349
1472092258899481,-0.0108643,-0.0557861,0.905579,0.420227
1472092258908501,-0.0106201,-0.055603,0.90564,0.420105
1472092258931030,-0.010437,-0.055481,0.905701,0.419983
1472092258959590,-0.0103149,-0.055481,0.905823,0.4198
1472092258968614,-0.0101318,-0.0554199,0.905884,0.419678
1472092258991148,-0.0101929,-0.0554199,0.905884,0.419678
1472092259012190,-0.0101929,-0.0554199,0.905884,0.419678
1472092259028705,-0.0101929,-0.0554199,0.905884,0.419678
1472092259051242,-0.0101929,-0.0554199,0.905884,0.419678
1472092259072275,-0.0101929,-0.0554199,0.905884,0.419678
1472092259088811,-0.0101929,-0.0553589,0.905884,0.419678
1472092259110848,-0.0102539,-0.0553589,0.905884,0.419678
1472092259132367,-0.0102539,-0.0552979,0.905884,0.419678
1472092259148400,-0.0102539,-0.0552979,0.905884,0.419678
1472092259171430,-0.0102539,-0.0552368,0.905884,0.419678
1472092259193475,-0.0103149,-0.0552368,0.905884,0.419678
1472092259207989,-0.0103149,-0.0552368,0.905884,0.419678
1472092259231023,-0.0103149,-0.0552368,0.905884,0.419678
1472092259253552,-0.010376,-0.0552368,0.905884,0.419617
1472092259268575,-0.010437,-0.0552368,0.905884,0.419617
1472092259291114,-0.010437,-0.0552368,0.905884,0.419617
1472092259313329,-0.010437,-0.0551758,0.905884,0.419617
1472092259328844,-0.010437,-0.0551758,0.905884,0.419617
1472092259350890,-0.010498,-0.0553589,0.905945,0.419617
1472092259373739,-0.010498,-0.0552979,0.905945,0.419617
1472092259387809,-0.010498,-0.0552979,0.905945,0.419617
1472092259411190,-0.0105591,-0.0552979,0.905945,0.419617
1472092259433732,-0.0105591,-0.0552979,0.905945,0.419617
1472092259447733,-0.0105591,-0.0552979,0.905945,0.419617
1472092259471279,-0.0106201,-0.0552979,0.905945,0.419617
1472092259493411,-0.0106201,-0.0552368,0.905945,0.419556
1472092259507943,-0.0106201,-0.0552368,0.905945,0.419556
1472092259530999,-0.0106201,-0.0552368,0.905945,0.419556
1472092259553225,-0.0106201,-0.0551758,0.905945,0.419556
1472092259567867,-0.0106201,-0.0551758,0.905945,0.419556
1472092259590948,-0.0106812,-0.0551758,0.905945,0.419556
1472092259613764,-0.0106812,-0.0551147,0.905945,0.419556
1472092259628132,-0.0106812,-0.0551147,0.905945,0.419556
1472092259651081,-0.0106812,-0.0551147,0.905945,0.419556
1472092259673618,-0.0106812,-0.0551147,0.905945,0.419556
1472092259694676,-0.010498,-0.0546265,0.906006,0.419434
1472092259711205,-0.0101318,-0.053833,0.906189,0.419189
1472092259733305,-0.00976563,-0.0531616,0.906494,0.418701
1472092259754825,-0.00946045,-0.052124,0.90686,0.41803
1472092259770901,-0.00915527,-0.0527954,0.907349,0.416931
1472092259793491,-0.00872803,-0.0547485,0.907837,0.415527
1472092259814658,-0.00805664,-0.0565796,0.908447,0.41394
1472092259831126,-0.00653076,-0.0569458,0.90918,0.412415
1472092259853710,-0.0045166,-0.057373,0.909912,0.410706
1472092259874858,-0.00262451,-0.0587769,0.910583,0.409058
1472092259890965,-0.000915527,-0.0587158,0.911316,0.407349
1472092259913563,0.000427246,-0.0570679,0.912415,0.405212
1472092259934607,0.00128174,-0.0557861,0.913391,0.403137
1472092259949725,0.000976563,-0.0561523,0.914368,0.400818
1472092259973924,0,-0.0565796,0.915649,0.397827
1472092259994707,-0.000793457,-0.0553589,0.917175,0.39447
1472092260010673,-0.00152588,-0.0531006,0.919128,0.39032
1472092260033696,-0.00250244,-0.0509644,0.921448,0.385071
1472092260054557,-0.00384521,-0.0489502,0.924133,0.378845
1472092260070579,-0.00524902,-0.0463257,0.927002,0.372131
1472092260093672,-0.00671387,-0.0435181,0.930115,0.364563
1472092260114695,-0.00787354,-0.0401611,0.933472,0.356201
1472092260130209,-0.0090332,-0.0366211,0.937073,0.346924
1472092260154088,-0.0101929,-0.0330811,0.940857,0.336975
1472092260176375,-0.0111694,-0.029541,0.944641,0.326477
1472092260190397,-0.0119629,-0.026001,0.948486,0.31543
1472092260213343,-0.0125732,-0.0224609,0.952332,0.303894
1472092260236231,-0.0127563,-0.019043,0.956238,0.291626
1472092260250250,-0.0125732,-0.0154419,0.960144,0.278625
1472092260273904,-0.0117798,-0.0115356,0.964111,0.264771
1472092260296048,-0.0105591,-0.00762939,0.96814,0.250061
1472092260317385,-0.00872803,-0.00335693,0.971985,0.23468
1472092260333810,-0.00634766,0.0010376,0.975708,0.218811
1472092260355920,-0.00372314,0.00506592,0.979248,0.202271
1472092260377105,-0.000854492,0.00921631,0.982666,0.184998
1472092260393859,0.00256348,0.0131226,0.985718,0.167542
1472092260415987,0.00646973,0.0168457,0.988464,0.15033
1472092260438705,0.010498,0.0193481,0.990662,0.134094
1472092260453828,0.0142212,0.0209351,0.992554,0.118652
1472092260475968,0.0181274,0.0223999,0.994202,0.103271
1472092260497114,0.022644,0.0244141,0.995483,0.0881958
1472092260513416,0.0274658,0.026001,0.996521,0.0739136
1472092260535981,0.0320435,0.0263062,0.997253,0.0604248
1472092260557239,0.0361328,0.0267944,0.997803,0.0480347
1472092260573752,0.0395508,0.027771,0.998108,0.0368652
1472092260596106,0.0425415,0.0291138,0.998291,0.0267944
1472092260617206,0.0457153,0.0306396,0.998291,0.0184326
1472092260633269,0.0480347,0.0322266,0.99823,0.0118408
1472092260656076,0.0493164,0.0338135,0.998169,0.00726318
1472092260677368,0.0494385,0.0352173,0.998108,0.00457764
1472092260693379,0.0481567,0.0359497,0.998169,0.00390625
1472092260716119,0.0454712,0.0362549,0.998291,0.00531006
1472092260737118,0.0402222,0.0363159,0.998474,0.00878906
1472092260753704,0.0324707,0.0368042,0.998657,0.0144043
1472092260776271,0.0217285,0.0375977,0.998779,0.0220337
1472092260797436,0.00738525,0.0388794,0.998657,0.0325928
1472092260812995,-0.012085,0.0407104,0.997986,0.0461426
1472092260836025,-0.0350342,0.0441284,0.99646,0.0618896
1472092260857170,-0.0608521,0.0484619,0.993713,0.0802612
1472092260873742,-0.0893555,0.0531616,0.98938,0.101379
1472092260896398,-0.120483,0.0578613,0.983154,0.124329
1472092260917197,-0.153381,0.0620728,0.975037,0.147827
1472092260933156,-0.187622,0.0664063,0.964966,0.170837
1472092260956082,-0.219971,0.0707397,0.953735,0.192261
1472092260977258,-0.250244,0.0764771,0.941589,0.211792
1472092260992823,-0.277954,0.0827637,0.929016,0.229614
1472092261015915,-0.301514,0.0906372,0.916748,0.245605
1472092261037355,-0.319946,0.0983887,0.905701,0.26001
1472092261052897,-0.333191,0.105164,0.896484,0.272278
1472092261076209,-0.341003,0.111816,0.890198,0.280518
1472092261098771,-0.339417,0.119019,0.888855,0.283691
1472092261112842,-0.327026,0.126282,0.893616,0.280212
1472092261136045,-0.302979,0.136719,0.903381,0.270752
1472092261158123,-0.269348,0.14856,0.916382,0.255981
1472092261173017,-0.228149,0.159729,0.93103,0.235657
1472092261196077,-0.181885,0.167786,0.945862,0.209961
1472092261218727,-0.13269,0.171143,0.959534,0.179749
1472092261239787,-0.0834961,0.17157,0.970398,0.147766
1472092261256231,-0.0388794,0.169434,0.977539,0.118958
1472092261278850,-0.000427246,0.168762,0.981018,0.0947876
1472092261299905,0.0316162,0.170532,0.982117,0.0731201
1472092261316244,0.0557251,0.167725,0.982788,0.0535278
1472092261338407,0.0735474,0.155334,0.984375,0.0369873
1472092261359687,0.0864868,0.139038,0.986145,0.024292
1472092261376191,0.0945435,0.124268,0.98761,0.0144043
1472092261398849,0.0986938,0.113098,0.988586,0.00695801
1472092261419736,0.0999146,0.105896,0.989319,0.00189209
1472092261436253,0.10022,0.100769,0.989807,-0.00335693
1472092261458953,0.100342,0.0942383,0.990417,-0.00909424
1472092261479607,0.100098,0.0872192,0.991028,-0.0142212
1472092261496314,0.0994263,0.0838623,0.991272,-0.0186157
1472092261518450,0.0984497,0.0839233,0.991272,-0.0228882
1472092261539959,0.0976563,0.0842285,0.991272,-0.0267334
1472092261556010,0.0980225,0.0825195,0.991211,-0.0310059
1472092261578426,0.0996094,0.0785522,0.991272,-0.03479
1472092261601630,0.10144,0.0751953,0.991211,-0.0380249
1472092261615155,0.103394,0.0737915,0.991028,-0.0406494
1472092261638458,0.105652,0.0751953,0.990601,-0.0427246
1472092261660068,0.109009,0.0779419,0.98999,-0.0440063
1472092261676117,0.11377,0.0811157,0.989136,-0.0444336
1472092261698719,0.11676,0.0844727,0.988586,-0.0430908
1472092261719904,0.115173,0.0892944,0.988586,-0.0378418
1472092261736419,0.109741,0.102112,0.988281,-0.0264893
1472092261758640,0.09375,0.12439,0.987732,-0.00909424
1472092261779861,0.0681152,0.152893,0.985718,0.0175171
1472092261795949,0.0343628,0.184692,0.980652,0.0547485
1472092261818618,-0.00354004,0.21759,0.970764,0.10083
1472092261838643,-0.0440674,0.248413,0.955811,0.150818
1472092261855638,-0.0849609,0.276123,0.935059,0.205322
1472092261878912,-0.126282,0.302246,0.907532,0.262695
1472092261899916,-0.172119,0.32489,0.872986,0.320251
1472092261915515,-0.22229,0.341309,0.832092,0.376282
1472092261938566,-0.273865,0.348755,0.788818,0.425537
1472092261959824,-0.32666,0.340637,0.748535,0.465637
1472092261976898,-0.377319,0.322876,0.710449,0.498596
1472092261998422,-0.42395,0.301147,0.676147,0.521912
1472092262027351,-0.467163,0.280579,0.647461,0.532715
1472092262042391,-0.505127,0.263489,0.624207,0.534546
1472092262058740,-0.535339,0.248352,0.609375,0.52948
1472092262081275,-0.55835,0.239563,0.598206,0.522461
1472092262095300,-0.568909,0.239929,0.588623,0.52179
1472092262118481,-0.572998,0.255554,0.577148,0.522705
1472092262142509,-0.565186,0.277954,0.571472,0.52594
1472092262162586,-0.550598,0.302612,0.569641,0.529846
1472092262178656,-0.533386,0.324463,0.571533,0.532471
1472092262200898,-0.51532,0.340881,0.578674,0.532288
1472092262223882,-0.49353,0.354065,0.591614,0.530151
1472092262238395,-0.462402,0.36499,0.611023,0.528687
1472092262261041,-0.417725,0.369934,0.640686,0.527344
1472092262291635,-0.367981,0.369446,0.67749,0.518677
1472092262298682,-0.313538,0.357971,0.721619,0.502808
1472092262321180,-0.243835,0.350342,0.768921,0.475891
1472092262342231,-0.164124,0.350525,0.813904,0.433289
1472092262358826,-0.0869141,0.347412,0.854492,0.376099
1472092262381387,-0.0248413,0.330872,0.890198,0.312073
1472092262402726,0.0214844,0.304077,0.920349,0.244873
1472092262417765,0.0542603,0.273743,0.943237,0.179626
1472092262441181,0.0716553,0.243652,0.958984,0.125732
1472092262462375,0.0800171,0.210693,0.971069,0.0784912
1472092262478401,0.0825806,0.172607,0.980835,0.0350952
1472092262500945,0.0817261,0.132324,0.987793,-0.0032959
1472092262522572,0.0801392,0.0980225,0.991394,-0.0317993
1472092262538529,0.0768433,0.0743408,0.992981,-0.0499268
1472092262561186,0.0754395,0.0557251,0.993286,-0.0672607
1472092262583806,0.0721436,0.0454102,0.992615,-0.0861206
1472092262598384,0.0698242,0.0408325,0.991211,-0.104431
1472092262620929,0.0717163,0.039978,0.989685,-0.117065
1472092262642383,0.0725708,0.0413208,0.988586,-0.124939
1472092262658949,0.0742188,0.0442505,0.98761,-0.130798
1472092262680948,0.0767212,0.0444336,0.986877,-0.134888
1472092262702386,0.079895,0.0402222,0.986511,-0.136719
1472092262718915,0.0839844,0.03479,0.98645,-0.136536
1472092262741260,0.0884399,0.029541,0.98645,-0.134583
1472092262762227,0.0922852,0.0253296,0.986633,-0.13147
1472092262778033,0.0898438,0.0244751,0.98761,-0.125977
1472092262801238,0.0877686,0.0316162,0.988342,-0.120239
1472092262822318,0.0892334,0.0380859,0.988953,-0.111633
1472092262837887,0.0929565,0.0437622,0.989624,-0.100159
1472092262861419,0.0888062,0.0534058,0.991272,-0.0811157
1472092262882722,0.0809326,0.0688477,0.992859,-0.0534058
1472092262897834,0.0706787,0.0831299,0.993896,-0.013916
1472092262920967,0.0541992,0.0979614,0.99292,0.0383911
1472092262942094,0.0328979,0.113525,0.987976,0.098999
1472092262957909,0.00842285,0.124023,0.978027,0.167053
1472092262981173,-0.0197754,0.131104,0.961365,0.24115
1472092263003447,-0.0474854,0.138062,0.936401,0.31897
1472092263018505,-0.0666504,0.145569,0.903564,0.397278
1472092263041029,-0.0739136,0.141479,0.867371,0.471313
1472092263063714,-0.0767822,0.117554,0.830139,0.539551
1472092263077863,-0.0929565,0.0748901,0.793701,0.596436
1472092263101082,-0.114441,0.0482178,0.765015,0.631836
1472092263123795,-0.133972,0.0269775,0.744995,0.652832
1472092263144815,-0.151611,0.0100708,0.733948,0.661926
1472092263161089,-0.161072,0.000427246,0.733521,0.660217
1472092263183792,-0.152527,0.0128174,0.745178,0.648987
1472092263204628,-0.136292,0.0276489,0.763855,0.630188
1472092263228492,-0.117981,0.0379028,0.78772,0.603394
1472092263243505,-0.0991821,0.041748,0.815674,0.568298
1472092263264623,-0.0775146,0.0438843,0.845703,0.526062
1472092263281004,-0.0508423,0.0482788,0.877075,0.475098
1472092263303646,-0.0249023,0.0493164,0.908081,0.414978
1472092263324904,-0.00299072,0.0487061,0.934875,0.35144
1472092263343421,0.017395,0.0505981,0.95752,0.283264
1472092263362938,0.0385742,0.0550537,0.975952,0.207092
1472092263385067,0.055542,0.0585327,0.987915,0.132019
1472092263401695,0.0634766,0.0674438,0.99292,0.0736084
1472092263423246,0.0600586,0.0877075,0.993652,0.0357056
1472092263444680,0.0432739,0.113281,0.992432,0.0171509
1472092263461224,0.0115356,0.136719,0.990295,0.0199585
1472092263483775,-0.0301514,0.154297,0.986511,0.0452271
1472092263504759,-0.0787354,0.165161,0.979187,0.0877686
1472092263521087,-0.131165,0.175415,0.96521,0.1427
1472092263545182,-0.182007,0.180603,0.944214,0.206421
1472092263564600,-0.231995,0.172913,0.919617,0.265503
1472092263580560,-0.285767,0.155701,0.891907,0.313965
1472092263603920,-0.343994,0.137146,0.859985,0.350952
1472092263624975,-0.397095,0.122009,0.824158,0.384949
1472092263641568,-0.4328,0.11792,0.791504,0.415039
1472092263665098,-0.441345,0.123413,0.773987,0.436829
1472092263684758,-0.426086,0.141174,0.776062,0.442993
1472092263701292,-0.391479,0.164673,0.79541,0.432312
1472092263723875,-0.339478,0.19342,0.824158,0.409973
1472092263746385,-0.273804,0.220276,0.856812,0.377197
1472092263760408,-0.200745,0.242188,0.888428,0.334229
1472092263783817,-0.124023,0.257507,0.915588,0.282654
1472092263804928,-0.0498657,0.264709,0.936279,0.22522
1472092263820800,0.0231934,0.269165,0.948425,0.165649
1472092263843827,0.0871582,0.271851,0.951477,0.114319
1472092263864924,0.128723,0.280945,0.947815,0.0776367
1472092263880429,0.142761,0.293945,0.943176,0.0596313
1472092263903811,0.131287,0.299683,0.943054,0.0591431
1472092263924937,0.0956421,0.299255,0.946106,0.0780029
1472092263940483,0.0435791,0.29657,0.947327,0.112183
1472092263963693,-0.0172119,0.290649,0.943848,0.155701
1472092263986291,-0.0807495,0.276001,0.93573,0.204102
1472092264000875,-0.141907,0.252075,0.923584,0.251526
1472092264023247,-0.204712,0.2229,0.906494,0.294373
1472092264046284,-0.263245,0.196106,0.883728,0.333435
1472092264060867,-0.308533,0.178528,0.859253,0.366882
1472092264083649,-0.333801,0.172424,0.840027,0.391357
1472092264106227,-0.333557,0.175232,0.835449,0.400024
1472092264127367,-0.314758,0.183716,0.84375,0.39386
1472092264143841,-0.281494,0.19281,0.860779,0.377563
1472092264165183,-0.23407,0.204041,0.882019,0.354431
1472092264187190,-0.178406,0.213501,0.903564,0.325745
1472092264203727,-0.119934,0.221313,0.922668,0.291992
1472092264226327,-0.0634766,0.225647,0.938049,0.255066
1472092264247357,-0.0112915,0.228943,0.948059,0.220398
1472092264263716,0.0316772,0.231201,0.953186,0.192017
1472092264286114,0.0632324,0.238342,0.954041,0.170044
1472092264307516,0.0837402,0.243469,0.953796,0.154541
1472092264323832,0.0907593,0.237122,0.95575,0.148254
1472092264345907,0.0838013,0.221924,0.959473,0.151672
1472092264374929,0.0673218,0.206848,0.962402,0.162598
1472092264383504,0.0464478,0.194641,0.963135,0.179382
1472092264406253,0.0232544,0.179138,0.962952,0.200012
1472092264427161,-0.000305176,0.159973,0.961914,0.221375
1472092264443735,-0.0234375,0.138428,0.959961,0.242249
1472092264466355,-0.0456543,0.118591,0.956604,0.262146
1472092264487144,-0.0629272,0.103149,0.952087,0.280884
1472092264504322,-0.0747681,0.0946045,0.947876,0.2948
1472092264526380,-0.081543,0.0916748,0.945679,0.300842
1472092264547514,-0.0819702,0.0891113,0.945496,0.302185
1472092264563659,-0.0753784,0.0829468,0.947083,0.300781
1472092264585945,-0.0635376,0.0769043,0.948242,0.30127
1472092264607218,-0.0494385,0.0749512,0.948853,0.302551
1472092264623782,-0.0337524,0.0780029,0.949097,0.303162
1472092264646301,-0.0186768,0.0823975,0.949219,0.302979
1472092264667496,-0.00756836,0.0795898,0.949707,0.302734
1472092264682990,-0.00140381,0.0680542,0.950317,0.303589
1472092264706487,0.00177002,0.0570068,0.950195,0.306335
1472092264727307,0.00390625,0.0507813,0.94928,0.31012
1472092264742767,0.00476074,0.0463257,0.948242,0.313904
1472092264765926,0.00390625,0.0405884,0.947754,0.316345
1472092264787691,0.00244141,0.034729,0.948242,0.315491
1472092264803183,0.00213623,0.0303345,0.949646,0.311707
1472092264825312,0.00292969,0.0288086,0.950989,0.307678
1472092264847154,0.00335693,0.031189,0.952271,0.303589
1472092264869854,0.00390625,0.0355225,0.953735,0.298401
1472092264885960,0.0043335,0.0391846,0.955444,0.292358
1472092264908570,0.0045166,0.0407715,0.957397,0.285706
1472092264923116,0.00354004,0.0400391,0.959229,0.279663
1472092264946195,0.00189209,0.0379639,0.960571,0.275208
1472092264968850,0.000793457,0.036377,0.961548,0.272034
1472092264982992,0.000488281,0.0355835,0.962402,0.269104
1472092265006052,0.000610352,0.0349731,0.963257,0.266235
1472092265028613,0.000854492,0.0330811,0.96405,0.26355
1472092265049852,0.00134277,0.0303955,0.964722,0.261414
1472092265066356,0.00256348,0.0278931,0.965271,0.259521
1472092265088444,0.00421143,0.026001,0.965759,0.257996
1472092265109859,0.00640869,0.0232544,0.966064,0.256958
1472092265127007,0.00897217,0.019104,0.966309,0.25647
1472092265156140,0.0111084,0.015686,0.966431,0.255981
1472092265169785,0.0128174,0.0140381,0.966675,0.255066
1472092265186251,0.0141602,0.0134888,0.96698,0.253845
1472092265208457,0.0151978,0.0128784,0.967346,0.252441
1472092265229975,0.0158081,0.0119629,0.967651,0.251282
1472092265246568,0.0159912,0.0117798,0.967834,0.250732
1472092265268864,0.015686,0.0123901,0.967773,0.250854
1472092265282443,0.0151978,0.0127563,0.967651,0.251404
1472092265306371,0.0143433,0.0129395,0.967468,0.252136
1472092265328460,0.0128784,0.0130005,0.967224,0.253113
1472092265343719,0.0112915,0.0132446,0.966919,0.254272
1472092265366381,0.00964355,0.0136108,0.966614,0.255554
1472092265388619,0.00787354,0.0140381,0.966248,0.256897
1472092265409853,0.00646973,0.0139771,0.965881,0.258301
1472092265426035,0.00506592,0.0137329,0.965576,0.259583
1472092265448578,0.00384521,0.0134888,0.965332,0.26062
1472092265469798,0.00280762,0.0134277,0.965088,0.261536
1472092265485994,0.00195313,0.0131836,0.964844,0.26239
1472092265509010,0.00128174,0.0126343,0.9646,0.263367
1472092265529770,0.000915527,0.0119019,0.964355,0.26416
1472092265546243,0.000793457,0.0112915,0.964172,0.264771
1472092265568815,0.000671387,0.0105591,0.96405,0.265381
1472092265590038,0.000854492,0.00976563,0.963928,0.26593
1472092265606124,0.00115967,0.0088501,0.963806,0.266418
1472092265628315,0.00158691,0.00811768,0.963745,0.266663
1472092265649890,0.00201416,0.00744629,0.963684,0.266846
1472092265666082,0.00244141,0.00665283,0.963623,0.267029
1472092265688727,0.00292969,0.00592041,0.963684,0.266907
1472092265709385,0.00323486,0.00518799,0.963745,0.266663
1472092265726474,0.00323486,0.00476074,0.963867,0.266235
1472092265748541,0.00299072,0.00457764,0.96405,0.265503
1472092265770015,0.00268555,0.00445557,0.964294,0.264587
1472092265786414,0.00244141,0.00396729,0.9646,0.26355
1472092265809001,0.00219727,0.0032959,0.964966,0.262207
1472092265830072,0.00170898,0.00262451,0.965515,0.260254
1472092265846475,0.000976563,0.00134277,0.966248,0.257507
1472092265868633,-0.000305176,-0.000610352,0.967224,0.253784
1472092265898503,-0.00231934,-0.00238037,0.968445,0.249023
1472092265905517,-0.00561523,-0.00476074,0.96991,0.243164
1472092265928686,-0.0098877,-0.00726318,0.971558,0.236267
1472092265951323,-0.015625,-0.00958252,0.973511,0.2276
1472092265965453,-0.0227661,-0.0114746,0.975708,0.217407
1472092265988650,-0.0320435,-0.0125122,0.978027,0.205505
1472092266011144,-0.0437622,-0.012207,0.980286,0.192139
1472092266032282,-0.0574341,-0.010498,0.982422,0.177246
1472092266048768,-0.0731201,-0.00708008,0.984192,0.160889
1472092266071581,-0.0891113,-0.00244141,0.985596,0.143372
1472092266092710,-0.106018,0.00360107,0.986511,0.124207
1472092266108906,-0.122437,0.0107422,0.986938,0.103943
1472092266131096,-0.137878,0.0175781,0.986755,0.0831299
1472092266152231,-0.152222,0.0227661,0.986084,0.0626831
1472092266168437,-0.165771,0.0264282,0.984924,0.0409546
1472092266191154,-0.178589,0.0308838,0.983276,0.0177612
1472092266212550,-0.190063,0.036377,0.981079,-0.00585938
1472092266236171,-0.199646,0.041626,0.978516,-0.0288086
1472092266251293,-0.207581,0.0459595,0.975769,-0.0509644
1472092266272508,-0.215088,0.0497437,0.972656,-0.0718994
1472092266288597,-0.222107,0.0534058,0.969238,-0.0912476
1472092266311248,-0.228943,0.0571289,0.965576,-0.109497
1472092266332370,-0.233887,0.059082,0.962158,-0.126343
1472092266348843,-0.238464,0.0603638,0.95874,-0.142212
1472092266371252,-0.24292,0.0613403,0.955261,-0.156982
1472092266392409,-0.246704,0.0617676,0.952087,-0.169617
1472092266408452,-0.249939,0.0614624,0.949341,-0.180115
1472092266430524,-0.251953,0.0603027,0.947144,-0.189148
1472092266452277,-0.25354,0.0591431,0.945251,-0.196777
1472092266468842,-0.254395,0.0574341,0.943909,-0.202454
1472092266491403,-0.254089,0.0550537,0.943176,-0.206787
1472092266511888,-0.252686,0.0524292,0.942993,-0.2099
1472092266528559,-0.250427,0.0498047,0.943359,-0.211853
1472092266551123,-0.247925,0.0470581,0.943848,-0.213135
1472092266572707,-0.245422,0.0440063,0.944336,-0.214478
1472092266596186,-0.244263,0.041626,0.944275,-0.216492
1472092266611238,-0.244263,0.0403442,0.943726,-0.219116
1472092266633121,-0.243164,0.0393066,0.943359,-0.222168
1472092266647936,-0.241516,0.038147,0.943115,-0.225098
1472092266671518,-0.239441,0.0373535,0.943115,-0.227539
1472092266692684,-0.237244,0.0361328,0.943359,-0.229065
1472092266708166,-0.234802,0.0350342,0.943665,-0.230408
1472092266731495,-0.233276,0.034668,0.943848,-0.231262
1472092266752568,-0.232544,0.0341797,0.943909,-0.231812
1472092266768451,-0.232056,0.0338135,0.944031,-0.231934
1472092266791087,-0.23175,0.0335083,0.944092,-0.232056
1472092266821124,-0.231201,0.03302,0.944214,-0.232178
1472092266828628,-0.230591,0.0324097,0.944458,-0.231995
1472092266851182,-0.22998,0.0317993,0.944824,-0.231018
1472092266873570,-0.229614,0.0314941,0.945129,-0.230225
1472092266889108,-0.229431,0.0310669,0.945313,-0.229797
1472092266911062,-0.229614,0.0308228,0.945313,-0.229492
1472092266933707,-0.229736,0.0304565,0.945374,-0.229187
1472092266947825,-0.229919,0.0297852,0.945435,-0.228821
1472092266971494,-0.22998,0.0286255,0.945557,-0.228333
1472092266993705,-0.230225,0.027832,0.945618,-0.228149
1472092267007913,-0.23053,0.0270996,0.945557,-0.228149
1472092267031383,-0.230896,0.0264893,0.945435,-0.228333
1472092267053682,-0.231506,0.0261841,0.945251,-0.228577
1472092267067832,-0.231995,0.026062,0.945129,-0.228516
1472092267091371,-0.231995,0.0253906,0.945251,-0.228027
1472092267113575,-0.232178,0.0249023,0.945313,-0.227661
1472092267127992,-0.232666,0.0245361,0.945251,-0.227417
1472092267151096,-0.233215,0.024231,0.94519,-0.227295
1472092267173686,-0.233765,0.0238647,0.945129,-0.226929
1472092267188641,-0.234192,0.0239258,0.945068,-0.226746
1472092267211312,-0.234558,0.0241089,0.945007,-0.226685
1472092267232967,-0.234436,0.0239868,0.945068,-0.226379
1472092267247892,-0.234375,0.0240479,0.945129,-0.226135
1472092267271064,-0.234436,0.0240479,0.945129,-0.226135
1472092267293769,-0.234192,0.0236206,0.94519,-0.226196
1472092267314909,-0.23407,0.0233765,0.94519,-0.226318
1472092267331475,-0.234009,0.0232544,0.94519,-0.226563
1472092267354070,-0.233643,0.0229492,0.94519,-0.226746
1472092267375210,-0.233154,0.0224609,0.945313,-0.226929
1472092267391369,-0.232849,0.0222778,0.945374,-0.227112
1472092267413768,-0.232239,0.0217896,0.945496,-0.227173
1472092267434705,-0.231934,0.0216675,0.945496,-0.227539
1472092267451299,-0.231628,0.0216064,0.945496,-0.227783
1472092267473852,-0.231323,0.0215454,0.945557,-0.227783
1472092267502114,-0.230957,0.0214844,0.94574,-0.2276
1472092267511133,-0.230286,0.0209961,0.945923,-0.227417
1472092267533762,-0.229858,0.020752,0.946045,-0.227295
1472092267554711,-0.229126,0.0203857,0.946289,-0.227234
1472092267571328,-0.22821,0.0200195,0.946472,-0.227295
1472092267593565,-0.227295,0.0197754,0.946716,-0.227356
1472092267614818,-0.226624,0.0197754,0.946777,-0.227539
1472092267631495,-0.226013,0.0196533,0.946899,-0.227722
1472092267653587,-0.225342,0.0192261,0.947083,-0.227783
1472092267674656,-0.22467,0.0188599,0.947205,-0.227905
1472092267690323,-0.224365,0.0186768,0.947205,-0.22821
1472092267713942,-0.224426,0.0186157,0.947144,-0.228455
1472092267736058,-0.224426,0.0186157,0.947144,-0.228455
1472092267751101,-0.224548,0.0186157,0.947205,-0.228149
1472092267773962,-0.225037,0.0184326,0.947144,-0.227783
1472092267796305,-0.225647,0.0186768,0.947144,-0.227173
1472092267811333,-0.226257,0.0188599,0.947083,-0.226868
1472092267833913,-0.226807,0.019165,0.94696,-0.226746
1472092267856436,-0.227661,0.0197144,0.946777,-0.226685
1472092267871479,-0.229065,0.0203857,0.946472,-0.226501
1472092267893031,-0.230347,0.020752,0.946289,-0.22583
1472092267916223,-0.231628,0.0212402,0.946106,-0.225281
1472092267930769,-0.233032,0.0217896,0.945862,-0.224792
1472092267953841,-0.234253,0.0221558,0.945679,-0.224304
1472092267976469,-0.234924,0.0219727,0.945679,-0.223633
1472092267990520,-0.235352,0.0214233,0.94574,-0.222839
1472092268013952,-0.236572,0.0217285,0.945618,-0.22229
1472092268035579,-0.237549,0.0220947,0.945374,-0.222107
1472092268050840,-0.237915,0.0219727,0.945251,-0.222168
1472092268074032,-0.237915,0.0220337,0.945251,-0.222168
1472092268096224,-0.237915,0.0220337,0.945251,-0.222168
1472092268110468,-0.237976,0.0219727,0.945251,-0.222168
1472092268133721,-0.237976,0.0215454,0.945251,-0.222107
1472092268156448,-0.237549,0.020874,0.945435,-0.222046
1472092268170485,-0.237,0.0200806,0.945557,-0.222107
1472092268193630,-0.236267,0.0194092,0.945679,-0.22229
1472092268216314,-0.235962,0.0192261,0.945679,-0.222656
1472092268237370,-0.235413,0.0188599,0.945801,-0.222839
1472092268253534,-0.234619,0.0182495,0.946045,-0.222778
1472092268276276,-0.233887,0.0175781,0.946228,-0.222839
1472092268297446,-0.233276,0.0171509,0.946289,-0.223145
1472092268313656,-0.232971,0.0167847,0.946289,-0.22345
1472092268336379,-0.232483,0.0163574,0.94635,-0.223633
1472092268357463,-0.231506,0.0154419,0.946655,-0.223633
1472092268373613,-0.230713,0.0148926,0.946838,-0.223694
1472092268396454,-0.230164,0.0144653,0.94696,-0.223633
1472092268417263,-0.229736,0.0139771,0.947144,-0.22345
1472092268433596,-0.229614,0.0135498,0.947266,-0.223083
1472092268456157,-0.229553,0.0131226,0.947388,-0.222595
1472092268477510,-0.22937,0.0129395,0.94751,-0.222229
1472092268493833,-0.229431,0.0129395,0.947571,-0.221863
1472092268516301,-0.229553,0.0129395,0.947632,-0.221558
1472092268537438,-0.229614,0.0128784,0.947693,-0.221313
1472092268554037,-0.229736,0.0128784,0.947693,-0.221069
1472092268576220,-0.230103,0.0130005,0.947693,-0.220764
1472092268597279,-0.230591,0.0131836,0.947632,-0.220459
1472092268613837,-0.231079,0.0134277,0.947571,-0.220215
1472092268636096,-0.231384,0.0134277,0.947571,-0.219849
1472092268657619,-0.23175,0.0134277,0.947571,-0.219482
1472092268673686,-0.232117,0.0134888,0.947571,-0.219177
1472092268695853,-0.232788,0.0136108,0.94751,-0.21875
1472092268718894,-0.233154,0.0135498,0.94751,-0.218262
1472092268734003,-0.233398,0.0135498,0.947571,-0.217773
1472092268756232,-0.233887,0.0136108,0.94751,-0.217346
1472092268778793,-0.234375,0.0136108,0.947571,-0.216858
1472092268793837,-0.234924,0.0136719,0.947449,-0.216553
1472092268816265,-0.235474,0.0137939,0.947388,-0.216187
1472092268838327,-0.235962,0.013855,0.947388,-0.215881
1472092268852922,-0.236389,0.0140381,0.947388,-0.215332
1472092268876492,-0.236877,0.0140381,0.947388,-0.214661
1472092268898606,-0.237549,0.0144043,0.947388,-0.21405
1472092268913215,-0.238098,0.0147095,0.947266,-0.213806
1472092268936168,-0.238586,0.0149536,0.947205,-0.213623
1472092268958724,-0.239136,0.0150146,0.947144,-0.213318
1472092268973255,-0.239563,0.0148926,0.947144,-0.212891
1472092268996082,-0.240295,0.0150757,0.947021,-0.212585
1472092269018657,-0.241455,0.015686,0.946716,-0.212463
1472092269033733,-0.242676,0.0161743,0.946472,-0.21228
1472092269056254,-0.243713,0.0162964,0.946228,-0.211975
1472092269078988,-0.244629,0.0164795,0.946045,-0.21167
1472092269093433,-0.245728,0.0167847,0.945862,-0.211426
1472092269116092,-0.246582,0.0169067,0.945679,-0.211182
1472092269138827,-0.247253,0.0170288,0.945557,-0.210876
1472092269152907,-0.248047,0.017395,0.945374,-0.210693
1472092269176133,-0.24884,0.0176392,0.945251,-0.210449
1472092269198745,-0.249451,0.0177002,0.945129,-0.210266
1472092269220111,-0.249878,0.0178833,0.945007,-0.210266
1472092269244059,-0.250305,0.0179443,0.944885,-0.210144
1472092269258836,-0.250854,0.0182495,0.944763,-0.210083
1472092269279981,-0.251526,0.0186157,0.94458,-0.210083
1472092269295608,-0.252075,0.0188599,0.944458,-0.2099
1472092269318712,-0.252808,0.019165,0.944275,-0.209717
1472092269340012,-0.253296,0.0192261,0.944214,-0.209473
1472092269356494,-0.253906,0.0196533,0.944153,-0.209167
1472092269378844,-0.254639,0.0203247,0.94397,-0.208923
1472092269400035,-0.255676,0.020874,0.943665,-0.208862
1472092269416550,-0.256958,0.0212402,0.943298,-0.209045
1472092269438993,-0.258606,0.0219116,0.942749,-0.20929
1472092269460013,-0.260132,0.0227051,0.942322,-0.20929
1472092269476131,-0.260498,0.022583,0.9422,-0.209534
1472092269498289,-0.260437,0.022644,0.942139,-0.2099
1472092269519938,-0.260559,0.0228271,0.942017,-0.210327
1472092269536463,-0.260193,0.0227051,0.942017,-0.210632
1472092269558504,-0.259399,0.022522,0.9422,-0.210815
1472092269579877,-0.258118,0.0220947,0.942566,-0.210815
1472092269596463,-0.257019,0.0216675,0.942871,-0.210938
1472092269618642,-0.256714,0.0216675,0.942871,-0.211121
1472092269641263,-0.256592,0.0216675,0.942871,-0.211426
1472092269656277,-0.255859,0.0214233,0.942993,-0.211731
1472092269678754,-0.2547,0.0211792,0.943176,-0.212219
1472092269701222,-0.254089,0.0216064,0.943176,-0.21283
1472092269716383,-0.253906,0.022522,0.943054,-0.213623
1472092269746347,-0.253845,0.0231323,0.942932,-0.214294
1472092269761312,-0.25415,0.0236206,0.942688,-0.214844
1472092269776414,-0.254456,0.0241089,0.942444,-0.215515
1472092269798560,-0.254395,0.024292,0.942322,-0.216187
1472092269821471,-0.254822,0.0245972,0.942017,-0.21698
1472092269835609,-0.255249,0.0248413,0.941711,-0.21759
1472092269858655,-0.256165,0.0252686,0.941345,-0.218201
1472092269881258,-0.257019,0.0256348,0.940918,-0.218872
1472092269895906,-0.257507,0.0257568,0.940735,-0.219116
1472092269918594,-0.257751,0.026001,0.940674,-0.219238
1472092269941251,-0.257813,0.0261841,0.940552,-0.219421
1472092269955805,-0.258118,0.0264282,0.94043,-0.219727
1472092269978670,-0.258423,0.0267334,0.940308,-0.219727
1472092270001348,-0.258423,0.0267334,0.940308,-0.219727
1472092270015926,-0.258423,0.0269775,0.940186,-0.220154
1472092270039028,-0.25824,0.0274048,0.940125,-0.220642
1472092270061103,-0.257751,0.0276489,0.940125,-0.22113
1472092270075496,-0.256836,0.0275269,0.940369,-0.221313
1472092270099084,-0.25592,0.0273438,0.940674,-0.22113
1472092270121193,-0.255066,0.0270996,0.940918,-0.221069
1472092270142393,-0.254456,0.0269775,0.941101,-0.220886
1472092270158828,-0.253906,0.0266724,0.941284,-0.220764
1472092270181562,-0.253418,0.0267944,0.941406,-0.220886
1472092270202323,-0.252869,0.0270996,0.941528,-0.221069
1472092270218970,-0.252136,0.0272217,0.94165,-0.221313
1472092270241228,-0.25177,0.0273438,0.941711,-0.221436
1472092270262297,-0.251465,0.0275269,0.941772,-0.221497
1472092270278778,-0.251343,0.027832,0.941711,-0.221802
1472092270300865,-0.251587,0.0282593,0.941589,-0.221985
1472092270322336,-0.251587,0.0285645,0.941528,-0.222107
1472092270338644,-0.251892,0.0291138,0.941406,-0.222229
1472092270361217,-0.25238,0.0297241,0.941284,-0.22229
1472092270382334,-0.252502,0.0299072,0.941162,-0.222412
1472092270398802,-0.252869,0.0302124,0.940979,-0.222839
1472092270421480,-0.253479,0.0310669,0.940674,-0.223267
1472092270442578,-0.254028,0.0319214,0.940369,-0.223755
1472092270458620,-0.254578,0.0327148,0.940186,-0.223999
1472092270481285,-0.2547,0.0328369,0.940186,-0.223755
1472092270502325,-0.254456,0.0323486,0.940247,-0.223755
1472092270519012,-0.254333,0.0321045,0.940308,-0.223816
1472092270541250,-0.254333,0.0320435,0.940308,-0.223816
1472092270562375,-0.254089,0.0317993,0.94043,-0.223694
1472092270579038,-0.253784,0.0316162,0.940552,-0.223511
1472092270601135,-0.253479,0.0314331,0.940674,-0.223328
1472092270623916,-0.252808,0.0306396,0.940918,-0.223022
1472092270638873,-0.252075,0.0297241,0.941284,-0.222534
1472092270661460,-0.251709,0.0290527,0.941467,-0.222168
1472092270683617,-0.251587,0.0287476,0.941589,-0.221863
1472092270698983,-0.251587,0.0283813,0.94165,-0.22168
1472092270721066,-0.251221,0.0279541,0.941833,-0.221436
1472092270743945,-0.250977,0.027832,0.941895,-0.221375
1472092270757982,-0.250977,0.027832,0.941895,-0.221375
1472092270781744,-0.250977,0.027832,0.941895,-0.221375
1472092270803840,-0.251282,0.0280762,0.941772,-0.221558
1472092270818432,-0.251831,0.0285645,0.941589,-0.221741
1472092270841208,-0.252319,0.0289307,0.941345,-0.222046
1472092270863862,-0.252747,0.02948,0.941162,-0.222351
1472092270877911,-0.253235,0.0300293,0.940918,-0.222778
1472092270901443,-0.253296,0.0303955,0.940796,-0.223206
1472092270923986,-0.253662,0.0307617,0.940613,-0.223511
1472092270938012,-0.253479,0.0310669,0.940552,-0.223938
1472092270961578,-0.253479,0.0310059,0.940552,-0.223938
1472092270983844,-0.25354,0.0310669,0.940552,-0.223694
1472092270997904,-0.253601,0.0311279,0.940613,-0.223389
1472092271021347,-0.253601,0.0311279,0.940613,-0.223389
1472092271043985,-0.253662,0.0311279,0.940613,-0.223389
1472092271057998,-0.253662,0.0310669,0.940613,-0.223389
1472092271081090,-0.253723,0.0311279,0.940613,-0.223389
1472092271103812,-0.25354,0.031311,0.940674,-0.223328
1472092271124908,-0.253235,0.031311,0.940796,-0.223145
1472092271141426,-0.253235,0.031311,0.940796,-0.223145
1472092271171498,-0.253235,0.031311,0.940796,-0.223145
1472092271184782,-0.253113,0.0310669,0.940857,-0.2229
1472092271201522,-0.252686,0.0304565,0.94104,-0.222717
1472092271223651,-0.25238,0.0300293,0.941223,-0.222534
1472092271244908,-0.252014,0.0296021,0.941345,-0.222412
1472092271261383,-0.251587,0.0289917,0.941528,-0.22229
1472092271283963,-0.251282,0.0288086,0.941589,-0.222229
1472092271304913,-0.251038,0.0286255,0.941711,-0.222046
1472092271321489,-0.250732,0.0281982,0.941833,-0.221924
1472092271343607,-0.250671,0.0280762,0.941833,-0.221863
1472092271365146,-0.250732,0.0280762,0.941833,-0.221863
1472092271381288,-0.250916,0.0281372,0.941711,-0.222168
1472092271403765,-0.251343,0.0285645,0.941528,-0.222412
1472092271424927,-0.251587,0.0288086,0.941467,-0.222473
1472092271441211,-0.251587,0.0288696,0.941467,-0.222473
1472092271463716,-0.251587,0.0288696,0.941467,-0.222473
1472092271484838,-0.251831,0.0291748,0.941345,-0.222717
1472092271501379,-0.251892,0.0294189,0.941223,-0.223022
1472092271523837,-0.252197,0.0299683,0.94104,-0.223389
1472092271546452,-0.251892,0.0297852,0.941101,-0.223633
1472092271561221,-0.25177,0.0299072,0.94104,-0.223877
1472092271583761,-0.251892,0.0301514,0.940979,-0.22406
1472092271613657,-0.251587,0.0296021,0.94104,-0.224121
1472092271621164,-0.251282,0.0293579,0.941162,-0.223999
1472092271643807,-0.251282,0.0293579,0.941162,-0.223999
1472092271666392,-0.251343,0.0293579,0.941162,-0.223999
1472092271681442,-0.251343,0.0293579,0.941162,-0.223999
1472092271702966,-0.251465,0.0296021,0.941101,-0.22406
1472092271726963,-0.251465,0.0296021,0.941101,-0.22406
1472092271740713,-0.251404,0.0297852,0.941101,-0.224121
1472092271763853,-0.251038,0.0296021,0.941223,-0.22406
1472092271786468,-0.250732,0.0293579,0.941284,-0.223999
1472092271800466,-0.250549,0.0291138,0.941406,-0.223877
1472092271823755,-0.250488,0.0289917,0.941467,-0.223694
1472092271846281,-0.250183,0.0285645,0.941589,-0.22345
1472092271860803,-0.25,0.0283813,0.941711,-0.223328
1472092271883962,-0.249817,0.0283203,0.941711,-0.223389
1472092271906163,-0.249817,0.0283813,0.941711,-0.223511
1472092271920607,-0.249512,0.0281982,0.941833,-0.223389
1472092271943806,-0.249573,0.0281982,0.941772,-0.223389
1472092271966351,-0.249512,0.0281982,0.941833,-0.223389
1472092271980920,-0.249695,0.0283813,0.941772,-0.223389
1472092272004010,-0.249756,0.0283813,0.941772,-0.223389
1472092272026097,-0.249756,0.0283813,0.941772,-0.223389
1472092272047424,-0.250305,0.0291138,0.941528,-0.223511
1472092272063947,-0.251099,0.0296631,0.941284,-0.223633
1472092272086505,-0.25177,0.0300903,0.94104,-0.223816
1472092272107328,-0.252319,0.0305786,0.940918,-0.223755
1472092272123647,-0.252441,0.0308228,0.940979,-0.223267
1472092272146296,-0.25293,0.0311279,0.940979,-0.222839
1472092272167403,-0.253418,0.0311279,0.940979,-0.222107
1472092272183981,-0.254028,0.0310669,0.940979,-0.221436
1472092272206054,-0.254517,0.03125,0.94104,-0.220703
1472092272227502,-0.254761,0.0315552,0.941162,-0.219788
1472092272243696,-0.255005,0.0316162,0.941345,-0.218689
1472092272266359,-0.255432,0.0317993,0.941406,-0.217834
1472092272287471,-0.255798,0.0323486,0.941406,-0.217224
1472092272303641,-0.255859,0.0325317,0.941528,-0.216675
1472092272326317,-0.25592,0.03302,0.94165,-0.216003
1472092272347410,-0.256287,0.0336914,0.941833,-0.214722
1472092272363966,-0.256836,0.0341797,0.941956,-0.213318
1472092272386083,-0.257629,0.03479,0.942017,-0.212097
1472092272407681,-0.258667,0.0354614,0.942017,-0.210815
1472092272423779,-0.259888,0.0360107,0.941956,-0.209351
1472092272446411,-0.261536,0.0368042,0.941895,-0.207458
1472092272467385,-0.263245,0.0378418,0.941895,-0.205139
1472092272484041,-0.264587,0.0385742,0.942017,-0.202576
1472092272505420,-0.265991,0.0394897,0.942139,-0.200073
1472092272528811,-0.267212,0.0395508,0.942261,-0.197754
1472092272543876,-0.268494,0.0388184,0.942505,-0.19519
1472092272566430,-0.270203,0.0380859,0.942627,-0.1922
1472092272588645,-0.272339,0.0380249,0.942566,-0.189514
1472092272603117,-0.275024,0.0391235,0.942078,-0.187866
1472092272626023,-0.277832,0.0405884,0.941345,-0.187073
1472092272648857,-0.280518,0.0419312,0.940613,-0.186523
1472092272663374,-0.283386,0.043396,0.939758,-0.186096
1472092272686593,-0.28656,0.0448608,0.938843,-0.185547
1472092272708764,-0.28949,0.0457764,0.937988,-0.185059
1472092272729375,-0.291992,0.0460815,0.937256,-0.184631
1472092272746453,-0.29425,0.0461426,0.936584,-0.184692
1472092272768596,-0.296448,0.0463867,0.935791,-0.18512
1472092272783211,-0.298584,0.0466309,0.934937,-0.18573
1472092272806318,-0.300232,0.0463257,0.934326,-0.186279
1472092272828969,-0.30188,0.0461426,0.933655,-0.187012
1472092272843182,-0.303528,0.0458374,0.933044,-0.187622
1472092272866589,-0.30481,0.0452271,0.932495,-0.188416
1472092272888750,-0.305481,0.0440674,0.932129,-0.189331
1472092272903317,-0.305969,0.0430908,0.931824,-0.190247
1472092272926188,-0.306458,0.0424194,0.931458,-0.191284
1472092272948748,-0.306396,0.0412598,0.931396,-0.192139
1472092272963149,-0.305542,0.039978,0.93158,-0.19281
1472092272986302,-0.303955,0.0388184,0.932068,-0.193176
1472092273008745,-0.301575,0.0375977,0.9328,-0.193481
1472092273031548,-0.299255,0.0360718,0.933655,-0.193542
1472092273046432,-0.297363,0.0349731,0.934265,-0.193604
1472092273068534,-0.295715,0.0336914,0.934814,-0.193726
1472092273090071,-0.294495,0.0327759,0.935181,-0.19397
1472092273106672,-0.29364,0.0317993,0.935425,-0.194214
1472092273128968,-0.293091,0.0308838,0.935608,-0.194336
1472092273150105,-0.292908,0.0304565,0.935669,-0.194275
1472092273166224,-0.292786,0.0301514,0.93573,-0.194214
1472092273189025,-0.292725,0.0301514,0.935791,-0.194092
1472092273209914,-0.292908,0.0303955,0.93573,-0.194031
1472092273226531,-0.293152,0.0307617,0.935669,-0.19397
1472092273249111,-0.293762,0.031311,0.935486,-0.193909
1472092273270131,-0.294739,0.0319214,0.935242,-0.193542
1472092273286260,-0.296021,0.0325317,0.934875,-0.192993
1472092273308321,-0.296936,0.0327759,0.934692,-0.192444
1472092273329955,-0.298157,0.0332642,0.934448,-0.191772
1472092273346428,-0.299377,0.0336914,0.934204,-0.190979
1472092273368587,-0.300537,0.0340576,0.93396,-0.190186
1472092273390244,-0.301819,0.0345459,0.933655,-0.189697
1472092273406362,-0.303101,0.0350342,0.933289,-0.189331
1472092273428815,-0.304321,0.0355225,0.932983,-0.188782
1472092273451485,-0.305298,0.0360107,0.932739,-0.188354
1472092273466503,-0.306335,0.0366211,0.932434,-0.188171
1472092273488610,-0.307251,0.0369873,0.932068,-0.188416
1472092273511670,-0.307861,0.0369873,0.931702,-0.188965
1472092273527234,-0.307922,0.0366211,0.931641,-0.189392
1472092273548902,-0.307617,0.0362549,0.931702,-0.189636
1472092273571290,-0.306824,0.0353394,0.931885,-0.190063
1472092273593655,-0.30542,0.0338745,0.932312,-0.190552
1472092273608700,-0.303284,0.0322266,0.932922,-0.191284
1472092273631218,-0.301331,0.0308228,0.933472,-0.191956
1472092273645484,-0.299927,0.029541,0.933899,-0.192261
1472092273668545,-0.299316,0.0282593,0.934143,-0.192139
1472092273691211,-0.298767,0.0272217,0.934387,-0.191956
1472092273705531,-0.297668,0.0259399,0.934814,-0.191956
1472092273729209,-0.296265,0.0250244,0.935242,-0.1922
1472092273751345,-0.294922,0.024292,0.935608,-0.192444
1472092273765948,-0.294006,0.0234375,0.935913,-0.192383
1472092273789032,-0.293701,0.0227051,0.936157,-0.191956
1472092273811156,-0.293823,0.0223999,0.936157,-0.191589
1472092273832487,-0.294189,0.0222778,0.936096,-0.191284
1472092273848909,-0.295044,0.0224609,0.935913,-0.190857
1472092273871219,-0.296082,0.0230103,0.93573,-0.190369
1472092273885876,-0.296875,0.0235596,0.935608,-0.189575
1472092273908786,-0.297913,0.024292,0.935425,-0.188782
1472092273931396,-0.29895,0.0249634,0.935242,-0.187866
1472092273952432,-0.300232,0.0258179,0.934998,-0.187012
1472092273968744,-0.301331,0.0263672,0.934814,-0.185974
1472092273991186,-0.30249,0.0267944,0.934692,-0.18457
1472092274012532,-0.303589,0.0272827,0.93457,-0.183411
1472092274029089,-0.304688,0.0283813,0.934387,-0.182373
1472092274051303,-0.305847,0.0292358,0.934143,-0.18158
1472092274072388,-0.307251,0.0302734,0.933838,-0.180542
1472092274089170,-0.309143,0.0314941,0.933411,-0.17926
1472092274110879,-0.310791,0.0325317,0.933105,-0.177734
1472092274132603,-0.311768,0.0331421,0.933044,-0.176331
1472092274148617,-0.3125,0.0338135,0.933044,-0.175049
1472092274171650,-0.313416,0.0345459,0.932861,-0.174072
1472092274192790,-0.314697,0.0355835,0.932556,-0.173279
1472092274208824,-0.316528,0.0370483,0.932068,-0.172424
1472092274231594,-0.318481,0.0388184,0.931519,-0.171387
1472092274252715,-0.319519,0.0396729,0.931335,-0.170105
1472092274268974,-0.320068,0.0405884,0.931274,-0.169067
1472092274291124,-0.320374,0.041626,0.931274,-0.168457
1472092274312844,-0.319885,0.0418701,0.931458,-0.16803
1472092274328904,-0.319397,0.0419922,0.931641,-0.167969
1472092274351055,-0.319214,0.0421143,0.931702,-0.168091
1472092274372586,-0.319397,0.0422363,0.931519,-0.168579
1472092274388811,-0.319946,0.0422974,0.931213,-0.169067
1472092274411471,-0.320801,0.0422363,0.930847,-0.169739
1472092274433574,-0.322021,0.0425415,0.930298,-0.17041
1472092274448755,-0.32312,0.0424805,0.929749,-0.171204
1472092274471419,-0.323975,0.0419312,0.929382,-0.171936
1472092274493732,-0.324829,0.0413818,0.928955,-0.172546
1472092274508854,-0.325134,0.0407715,0.928711,-0.173584
1472092274531327,-0.324585,0.0401001,0.92865,-0.174866
1472092274554090,-0.32373,0.0394287,0.928772,-0.176086
1472092274568195,-0.322876,0.0388794,0.928894,-0.177185
1472092274591276,-0.321899,0.0377808,0.929077,-0.177979
1472092274613959,-0.320557,0.0360718,0.929443,-0.178894
1472092274628363,-0.319031,0.0344238,0.929871,-0.180054
1472092274651506,-0.317749,0.0330811,0.930054,-0.181335
1472092274674058,-0.31665,0.0316772,0.930237,-0.182556
1472092274688115,-0.31543,0.0300903,0.930542,-0.183533
1472092274711346,-0.313904,0.0286865,0.930908,-0.184448
1472092274733932,-0.311768,0.0271606,0.931519,-0.185303
1472092274748478,-0.309631,0.0258789,0.932068,-0.186218
1472092274771244,-0.307922,0.0247192,0.932495,-0.187012
1472092274794140,-0.306519,0.0238037,0.932861,-0.187622
1472092274808176,-0.305969,0.0232544,0.932983,-0.18811
1472092274831362,-0.30603,0.0232544,0.932861,-0.188538
1472092274853830,-0.306641,0.0238647,0.932617,-0.18866
1472092274874884,-0.307007,0.024353,0.932556,-0.188477
1472092274891581,-0.306885,0.0247192,0.932556,-0.188293
1472092274913220,-0.306091,0.0247803,0.932861,-0.188232
1472092274934688,-0.305542,0.0251465,0.933044,-0.188232
1472092274951294,-0.305481,0.026123,0.932983,-0.188293
1472092274973825,-0.305847,0.0274048,0.932861,-0.188416
1472092274994410,-0.306396,0.0288086,0.932617,-0.188354
1472092275011452,-0.305603,0.0288696,0.932922,-0.187988
1472092275034171,-0.304199,0.0281982,0.933533,-0.187622
1472092275054928,-0.303162,0.0281372,0.933899,-0.187256
1472092275071654,-0.302734,0.0281372,0.934143,-0.186951
1472092275093674,-0.302673,0.027771,0.934204,-0.186646
1472092275114938,-0.303162,0.02771,0.934143,-0.186401
1472092275131653,-0.303772,0.027832,0.93396,-0.186096
1472092275153773,-0.304138,0.0274048,0.933899,-0.185791
1472092275174865,-0.304199,0.0270386,0.933899,-0.18573
1472092275191389,-0.304504,0.0270386,0.933716,-0.186096
1472092275214043,-0.304871,0.0271606,0.933533,-0.186401
1472092275235094,-0.30481,0.0269165,0.933594,-0.186401
1472092275251551,-0.304688,0.0267334,0.933655,-0.186279
1472092275274092,-0.303894,0.0263062,0.933899,-0.186401
1472092275295108,-0.302673,0.0255737,0.934204,-0.186951
1472092275311281,-0.301453,0.0247192,0.934448,-0.187744
1472092275334089,-0.300598,0.0241699,0.934631,-0.188354
1472092275356332,-0.299988,0.0237427,0.934753,-0.188721
1472092275371468,-0.299377,0.0227661,0.934937,-0.188965
1472092275394092,-0.29895,0.0218506,0.935059,-0.18927
1472092275416517,-0.298645,0.0212402,0.935059,-0.18988
1472092275430988,-0.298645,0.0211182,0.934875,-0.190613
1472092275454076,-0.298706,0.0209351,0.934814,-0.190918
1472092275476632,-0.299194,0.0210571,0.934631,-0.19104
1472092275490709,-0.299622,0.0213013,0.934448,-0.19104
1472092275513833,-0.299866,0.0217285,0.934387,-0.191101
1472092275536536,-0.299866,0.0222778,0.934387,-0.19104
1472092275550644,-0.299866,0.0228271,0.934387,-0.190979
1472092275574113,-0.300171,0.0237427,0.934265,-0.190857
1472092275596209,-0.300659,0.0246582,0.934204,-0.190369
1472092275611377,-0.301086,0.0256958,0.934204,-0.189636
1472092275633653,-0.301697,0.0265503,0.934143,-0.188721
1472092275656250,-0.302002,0.0269165,0.934204,-0.187927
1472092275670761,-0.302551,0.027832,0.934143,-0.187256
1472092275693991,-0.302856,0.0283813,0.934204,-0.186401
1472092275715755,-0.303101,0.0289917,0.934265,-0.185486
1472092275730973,-0.303589,0.0297852,0.934204,-0.184753
1472092275753883,-0.30426,0.0309448,0.934082,-0.184265
1472092275776544,-0.304993,0.0321045,0.933899,-0.183716
1472092275791090,-0.305603,0.0332642,0.933777,-0.183228
1472092275813848,-0.30603,0.0344238,0.933655,-0.1828
1472092275836679,-0.305908,0.0350952,0.933777,-0.182129
1472092275857805,-0.305664,0.0360107,0.93396,-0.181458
1472092275874017,-0.305664,0.0369873,0.934082,-0.180786
1472092275896550,-0.305664,0.0374756,0.934204,-0.180054
1472092275917647,-0.306152,0.0383911,0.934143,-0.17926
1472092275933752,-0.306946,0.0396118,0.933899,-0.178833
1472092275956324,-0.307617,0.0404663,0.933655,-0.178833
1472092275977631,-0.308105,0.0413818,0.933533,-0.178589
1472092275993764,-0.308105,0.0424805,0.933472,-0.178345
1472092276016468,-0.307678,0.043396,0.933655,-0.178162
1472092276037616,-0.307129,0.0441284,0.933777,-0.178101
1472092276053799,-0.306213,0.0445557,0.934143,-0.177795
1472092276076429,-0.304932,0.045105,0.934509,-0.177917
1472092276105224,-0.303223,0.0455322,0.934998,-0.178162
1472092276113756,-0.300781,0.0454712,0.935791,-0.178223
1472092276138026,-0.298035,0.0457764,0.936584,-0.178528
1472092276157625,-0.295166,0.0465698,0.937317,-0.179138
1472092276173716,-0.292297,0.0473633,0.93811,-0.179382
1472092276196250,-0.288696,0.0481567,0.939148,-0.179871
1472092276217548,-0.284851,0.0489502,0.940186,-0.180237
1472092276233152,-0.280701,0.0493164,0.941284,-0.180847
1472092276256409,-0.277039,0.0494995,0.9422,-0.181641
1472092276279060,-0.274658,0.0502319,0.942749,-0.182312
1472092276293164,-0.273865,0.0511475,0.942871,-0.182678
1472092276316297,-0.273499,0.0515747,0.94281,-0.183411
1472092276338874,-0.272949,0.0518799,0.942749,-0.184265
1472092276353805,-0.272339,0.0524902,0.942749,-0.185181
1472092276376579,-0.27179,0.0532837,0.942688,-0.185913
1472092276398793,-0.272095,0.0541992,0.942505,-0.18634
1472092276413405,-0.272217,0.0546875,0.942322,-0.18689
1472092276436540,-0.271606,0.0546265,0.942261,-0.18811
1472092276458656,-0.27063,0.0541992,0.942261,-0.189575
1472092276473188,-0.269897,0.0541382,0.942261,-0.190491
1472092276496572,-0.269287,0.0543213,0.942261,-0.191345
1472092276518158,-0.268494,0.0540771,0.942322,-0.192383
1472092276533040,-0.267273,0.0531006,0.942505,-0.193298
1472092276556253,-0.265869,0.0517578,0.942871,-0.19397
1472092276578811,-0.264526,0.0502319,0.943237,-0.194275
1472092276593376,-0.263916,0.0494995,0.94342,-0.194458
1472092276616244,-0.263672,0.0490112,0.943542,-0.194397
1472092276639019,-0.263245,0.0482788,0.943604,-0.194702
1472092276653362,-0.263,0.0476685,0.943665,-0.194946
1472092276676455,-0.262939,0.0470581,0.943726,-0.195068
1472092276698763,-0.263062,0.0464478,0.943726,-0.195007
1472092276713377,-0.263184,0.0459595,0.943726,-0.194946
1472092276736424,-0.26355,0.0458984,0.943604,-0.194885
1472092276759020,-0.264038,0.0460815,0.943481,-0.194946
1472092276780167,-0.264648,0.0462646,0.943237,-0.19519
1472092276796320,-0.26532,0.0464478,0.942993,-0.195435
1472092276818993,-0.266235,0.0469971,0.942627,-0.195679
1472092276840062,-0.267334,0.0474854,0.9422,-0.196228
1472092276856185,-0.268066,0.0473022,0.941833,-0.197021
1472092276878796,-0.268921,0.0472412,0.941467,-0.197693
1472092276899919,-0.270081,0.0473633,0.940979,-0.198425
1472092276916556,-0.27124,0.0471802,0.940552,-0.198853
1472092276939135,-0.272095,0.0463257,0.940247,-0.199402
1472092276960203,-0.273315,0.0457153,0.939819,-0.199829
1472092276976247,-0.274963,0.045105,0.93927,-0.200195
1472092276999082,-0.277039,0.0443726,0.93866,-0.200562
1472092277020377,-0.279358,0.043396,0.937866,-0.20105
1472092277035959,-0.281433,0.0420532,0.937317,-0.201172
1472092277059034,-0.283325,0.0410156,0.936768,-0.201233
1472092277080196,-0.285278,0.0402832,0.936279,-0.200867
1472092277096344,-0.287415,0.0395508,0.935669,-0.200745
1472092277118950,-0.289673,0.0387573,0.934998,-0.200745
1472092277141220,-0.292114,0.0380859,0.934326,-0.200623
1472092277163820,-0.29541,0.0378418,0.93335,-0.200256
1472092277179055,-0.298767,0.0374756,0.932373,-0.200134
1472092277199847,-0.301331,0.0368042,0.93158,-0.200073
1472092277216433,-0.30249,0.0362549,0.931213,-0.200134
1472092277239167,-0.303589,0.0354614,0.930908,-0.199951
1472092277261515,-0.304382,0.0345459,0.930725,-0.199646
1472092277276499,-0.304749,0.0333862,0.930725,-0.199219
1472092277299012,-0.304626,0.0321655,0.930908,-0.198792
1472092277321673,-0.303894,0.0307617,0.931274,-0.198364
1472092277335780,-0.302795,0.0291138,0.931763,-0.198242
1472092277358966,-0.301453,0.0273438,0.932251,-0.198059
1472092277381497,-0.300049,0.0256958,0.9328,-0.197815
1472092277396022,-0.299011,0.0249023,0.933289,-0.197144
1472092277419088,-0.298523,0.0244751,0.933655,-0.196411
1472092277441220,-0.298584,0.0241089,0.933777,-0.195801
1472092277455897,-0.299255,0.0241699,0.933716,-0.195068
1472092277478936,-0.300049,0.0245972,0.933594,-0.194336
1472092277501505,-0.300781,0.0250854,0.933472,-0.193848
1472092277515995,-0.301514,0.0255127,0.933228,-0.193604
1472092277539084,-0.302368,0.0261841,0.933044,-0.193237
1472092277561555,-0.303284,0.0271606,0.9328,-0.192688
1472092277575677,-0.304382,0.0281982,0.932434,-0.192444
1472092277598703,-0.30542,0.0291138,0.932068,-0.192688
1472092277621615,-0.306519,0.0307007,0.931519,-0.193115
1472092277643772,-0.307739,0.0328979,0.930969,-0.193604
1472092277659053,-0.309082,0.0349731,0.930481,-0.193481
1472092277681611,-0.309937,0.0365601,0.930298,-0.19281
1472092277702359,-0.31012,0.0370483,0.930481,-0.191467
1472092277718959,-0.309998,0.036377,0.930908,-0.189697
1472092277741628,-0.30957,0.0352173,0.931396,-0.188049
1472092277762710,-0.309509,0.034668,0.931824,-0.18634
1472092277778767,-0.309509,0.0344238,0.932068,-0.185181
1472092277801501,-0.309326,0.0341797,0.932068,-0.185486
1472092277822574,-0.309448,0.0341187,0.931763,-0.186523
1472092277846407,-0.309875,0.0343018,0.931335,-0.18811
1472092277861489,-0.310364,0.03479,0.930847,-0.189575
1472092277882650,-0.309875,0.0349121,0.930847,-0.19043
1472092277899115,-0.308167,0.0343018,0.931335,-0.190918
1472092277921205,-0.306396,0.0341187,0.931824,-0.191345
1472092277942469,-0.305115,0.0340576,0.932068,-0.192322
1472092277959055,-0.304199,0.0337524,0.93219,-0.193115
1472092277981397,-0.303467,0.0326538,0.932373,-0.193604
1472092278002442,-0.302795,0.0316162,0.932556,-0.194092
1472092278018759,-0.302002,0.0311279,0.932678,-0.194641
1472092278041353,-0.301086,0.0308228,0.932861,-0.195313
1472092278062346,-0.299316,0.0303955,0.93335,-0.195801
1472092278079003,-0.296814,0.0290527,0.934021,-0.196533
1472092278101675,-0.2948,0.0281982,0.93457,-0.197021
1472092278122736,-0.293518,0.02771,0.934937,-0.197205
1472092278139093,-0.29248,0.0275269,0.935242,-0.197327
1472092278161320,-0.291321,0.0272827,0.935547,-0.197693
1472092278183783,-0.289856,0.0269775,0.935913,-0.198181
1472092278198400,-0.287598,0.0258789,0.936401,-0.199219
1472092278221316,-0.285461,0.0247192,0.936829,-0.200684
1472092278243700,-0.283997,0.0238037,0.937012,-0.201965
1472092278258739,-0.28302,0.0233765,0.937073,-0.203186
1472092278281200,-0.281982,0.0228882,0.937134,-0.204285
1472092278303743,-0.281006,0.0224609,0.937256,-0.205139
1472092278318537,-0.279724,0.0216675,0.9375,-0.205933
1472092278341562,-0.278625,0.0209961,0.937622,-0.206787
1472092278364195,-0.278076,0.0206299,0.937561,-0.207825
1472092278378309,-0.277893,0.0201416,0.937439,-0.208679
1472092278401266,-0.278076,0.0201416,0.937195,-0.209473
1472092278423940,-0.278198,0.0206299,0.936951,-0.210449
1472092278438107,-0.277954,0.0206909,0.936768,-0.21167
1472092278461682,-0.278015,0.0213013,0.936462,-0.21283
1472092278483711,-0.278259,0.0223999,0.936035,-0.214294
1472092278498215,-0.278442,0.0235596,0.935486,-0.216125
1472092278521344,-0.278931,0.024353,0.935181,-0.216919
1472092278543695,-0.27887,0.0246582,0.935059,-0.217529
1472092278558330,-0.278687,0.0250854,0.934875,-0.218384
1472092278581189,-0.278503,0.0253296,0.934814,-0.218933
1472092278603841,-0.277954,0.0255127,0.934875,-0.219238
1472092278618179,-0.277222,0.0250244,0.93512,-0.219238
1472092278641290,-0.276367,0.0241089,0.935425,-0.218994
1472092278663941,-0.275818,0.0236816,0.935669,-0.21875
1472092278684984,-0.27533,0.0233765,0.935791,-0.21875
1472092278701476,-0.274719,0.0231934,0.935974,-0.218872
1472092278723877,-0.274536,0.0233154,0.936035,-0.218933
1472092278745021,-0.274231,0.0232544,0.936096,-0.218933
1472092278761564,-0.273804,0.0228882,0.936218,-0.219055
1472092278784184,-0.273621,0.022644,0.936218,-0.219238
1472092278805269,-0.27356,0.022583,0.936218,-0.219482
1472092278821441,-0.27356,0.022583,0.936157,-0.219482
1472092278843733,-0.273621,0.022644,0.936157,-0.219482
1472092278864835,-0.273621,0.022644,0.936157,-0.219482
1472092278881651,-0.273621,0.022644,0.936157,-0.219482
1472092278903958,-0.273865,0.0229492,0.936096,-0.219543
1472092278925074,-0.274231,0.0232544,0.935974,-0.219604
1472092278941266,-0.274841,0.0238647,0.935669,-0.219849
1472092278963937,-0.275574,0.0244141,0.935364,-0.220276
1472092278984962,-0.276367,0.0249634,0.93512,-0.220276
1472092279001560,-0.276367,0.0249634,0.93512,-0.220276
1472092279023804,-0.276367,0.0249634,0.93512,-0.220276
1472092279029337,-0.276489,0.0249023,0.935181,-0.219971
1472092279052094,-0.27655,0.0249023,0.935181,-0.219727
1472092279067229,-0.27655,0.0248413,0.935242,-0.219543
1472092279089833,-0.27655,0.0245972,0.935364,-0.219177
1472092279111974,-0.276489,0.0247192,0.935425,-0.218933
1472092279127002,-0.276306,0.0249634,0.935425,-0.218994
1472092279149566,-0.275635,0.0245972,0.935547,-0.219299
1472092279172136,-0.27478,0.0237427,0.935913,-0.218994
1472092279186638,-0.274048,0.0227051,0.936279,-0.218567
1472092279209349,-0.273621,0.0222168,0.936462,-0.218262
1472092279231630,-0.273132,0.0213013,0.936646,-0.218262
1472092279247030,-0.272156,0.0198364,0.937012,-0.217957
1472092279269210,-0.271179,0.0183105,0.9375,-0.217224
1472092279291805,-0.270386,0.0169678,0.937927,-0.216492
1472092279306830,-0.27002,0.0161743,0.938232,-0.215698
1472092279329371,-0.269775,0.0155029,0.938477,-0.214905
1472092279351763,-0.269775,0.0151978,0.938599,-0.214478
1472092279368300,-0.269958,0.0148926,0.93866,-0.213928
1472092279389373,-0.270325,0.0152588,0.938599,-0.213806
1472092279412051,-0.270813,0.0159302,0.938354,-0.21405
1472092279428420,-0.27179,0.0171509,0.937988,-0.214478
1472092279449619,-0.273132,0.0183716,0.937622,-0.214294
1472092279471925,-0.274353,0.019165,0.937439,-0.213501
1472092279488423,-0.276001,0.0210571,0.937256,-0.211975
1472092279509507,-0.278076,0.0228271,0.937134,-0.209534
1472092279531801,-0.280884,0.0249023,0.937012,-0.206055
1472092279554382,-0.28363,0.02771,0.937134,-0.201477
1472092279569554,-0.285522,0.0315552,0.937744,-0.195007
1472092279592037,-0.286194,0.0348511,0.93927,-0.186218
1472092279614118,-0.286316,0.038208,0.941345,-0.174255
1472092279629140,-0.286255,0.0420532,0.943909,-0.159119
1472092279652061,-0.28595,0.0467529,0.946594,-0.141479
1472092279674581,-0.284668,0.0513306,0.949585,-0.12085
1472092279689097,-0.279602,0.0540771,0.953796,-0.0957642
1472092279711683,-0.272278,0.052063,0.958496,-0.0662231
1472092279734211,-0.265015,0.0487671,0.962402,-0.0330811
1472092279748797,-0.257568,0.0481567,0.965027,0.00292969
1472092279771960,-0.247559,0.0510254,0.966614,0.0412598
1472092279794480,-0.230103,0.0507202,0.968323,0.0822144
1472092279809517,-0.206116,0.0403442,0.970276,0.119751
1472092279832077,-0.184998,0.0202637,0.970642,0.1521
1472092279854454,-0.169067,-0.00134277,0.968689,0.181641
1472092279869477,-0.153809,-0.0153809,0.965332,0.210266
1472092279891997,-0.136108,-0.0216675,0.960938,0.23999
1472092279914376,-0.118408,-0.0268555,0.955872,0.267273
1472092279929397,-0.102356,-0.034729,0.951172,0.289063
1472092279951929,-0.0843506,-0.043396,0.947937,0.303955
1472092279974767,-0.0654297,-0.0488892,0.945679,0.314575
1472092279989298,-0.0501099,-0.0501099,0.944458,0.320801
1472092280011933,-0.0402222,-0.0498657,0.943542,0.324829
1472092280034394,-0.0350952,-0.0516968,0.94281,0.327271
1472092280051011,-0.0330811,-0.0544434,0.942383,0.328247
1472092280071920,-0.0323486,-0.0541992,0.9422,0.328979
1472092280094071,-0.0334473,-0.0493774,0.941772,0.330811
1472092280111075,-0.0343018,-0.0428467,0.941833,0.33136
1472092280131818,-0.0356445,-0.0411987,0.941895,0.33136
1472092280154474,-0.038147,-0.0439453,0.94165,0.33136
1472092280170607,-0.0411377,-0.0440063,0.941528,0.331421
1472092280191815,-0.0441895,-0.0431519,0.941589,0.330933
1472092280214529,-0.0465088,-0.0449219,0.941345,0.331177
1472092280229211,-0.0480957,-0.0469971,0.940674,0.332458
1472092280251804,-0.0481567,-0.0469971,0.940125,0.333923
1472092280274491,-0.0484009,-0.0446777,0.939331,0.336609
1472092280291021,-0.048584,-0.0429077,0.938904,0.337952
1472092280311843,-0.0477295,-0.0424194,0.939148,0.337341
1472092280334508,-0.0449829,-0.0450439,0.939453,0.336609
1472092280350710,-0.0411377,-0.0455933,0.939392,0.337158
1472092280371824,-0.0404053,-0.0441284,0.939331,0.337708
1472092280394353,-0.0420532,-0.0422363,0.939331,0.337708
1472092280410882,-0.0441284,-0.0418701,0.93927,0.337708
1472092280432002,-0.0459595,-0.0438232,0.938782,0.338562
1472092280454584,-0.0470581,-0.046936,0.938232,0.339539
1472092280469763,-0.0479736,-0.0488892,0.937744,0.340454
1472092280493154,-0.0481567,-0.0495605,0.9375,0.340881
1472092280514410,-0.0480957,-0.0517578,0.937561,0.340515
1472092280530985,-0.0482788,-0.0556641,0.937439,0.340149
1472092280552174,-0.0482178,-0.0608521,0.937134,0.340149
1472092280574510,-0.0480347,-0.0650635,0.936829,0.340271
1472092280597002,-0.0493164,-0.0662231,0.936584,0.340454
1472092280612074,-0.0507813,-0.0651855,0.93689,0.339539
1472092280634317,-0.052124,-0.0656738,0.937256,0.338318
1472092280656853,-0.0548706,-0.0690308,0.937073,0.337708
1472092280671949,-0.0576172,-0.072876,0.936584,0.337708
1472092280694460,-0.0595703,-0.0751343,0.936218,0.338013
1472092280716988,-0.0612183,-0.0754395,0.935791,0.338745
1472092280732012,-0.0627441,-0.0761108,0.935425,0.339294
1472092280754161,-0.064209,-0.0775757,0.935181,0.339417
1472092280772733,-0.0656738,-0.0794678,0.934937,0.339355
1472092280791790,-0.067688,-0.0818481,0.93457,0.339478
1472092280814482,-0.0697632,-0.0837402,0.934082,0.339844
1472092280830751,-0.0717773,-0.0848389,0.933716,0.340271
1472092280852249,-0.0740967,-0.0856934,0.93335,0.340576
1472092280881730,-0.0765381,-0.0869141,0.933044,0.340515
1472092280892284,-0.0792236,-0.0882568,0.932739,0.340393
1472092280912044,-0.0817261,-0.0892334,0.932434,0.340332
1472092280934204,-0.0841675,-0.0894775,0.932251,0.340271
1472092280952360,-0.0865479,-0.0889893,0.932251,0.339844
1472092280971957,-0.0888062,-0.0884399,0.932373,0.33905
1472092280994649,-0.0908813,-0.0880127,0.932556,0.338074
1472092281016718,-0.0926514,-0.0880737,0.932678,0.337219
1472092281031824,-0.0941772,-0.088562,0.932739,0.336426
1472092281054351,-0.095459,-0.0892944,0.932861,0.33551
1472092281077382,-0.0961914,-0.0900879,0.933105,0.334412
1472092281091947,-0.0967407,-0.0910034,0.933533,0.332947
1472092281122068,-0.0969238,-0.0918579,0.933838,0.331665
1472092281136658,-0.0967407,-0.0923462,0.934265,0.330383
1472092281152313,-0.0962524,-0.0928955,0.934692,0.329224
1472092281174468,-0.0953369,-0.0933838,0.935059,0.328369
1472092281197010,-0.0939941,-0.093811,0.935303,0.32782
1472092281212040,-0.0916138,-0.0938721,0.935547,0.327942
1472092281234297,-0.0881958,-0.093811,0.935547,0.328796
1472092281256849,-0.0836792,-0.0940552,0.935547,0.329834
1472092281273367,-0.0776367,-0.0947266,0.935547,0.331177
1472092281294419,-0.0707397,-0.0963135,0.935486,0.33252
1472092281316677,-0.0629272,-0.0980225,0.935425,0.33374
1472092281333255,-0.0539551,-0.0985107,0.935547,0.334778
1472092281353751,-0.043457,-0.0980835,0.935791,0.335754
1472092281376783,-0.03125,-0.0969238,0.935791,0.337463
1472092281393350,-0.0178833,-0.0982056,0.935242,0.3396
1472092281414467,-0.00567627,-0.100769,0.934875,0.340332
1472092281437359,0.00482178,-0.101501,0.935242,0.33905
1472092281453405,0.0147705,-0.0984497,0.936096,0.337219
1472092281474486,0.0247192,-0.0929565,0.937195,0.335144
1472092281497014,0.034729,-0.0875244,0.938232,0.332825
1472092281513528,0.0442505,-0.0834961,0.939209,0.330017
1472092281534637,0.0519409,-0.0801392,0.940308,0.326599
1472092281556880,0.0578003,-0.0775146,0.941528,0.322693
1472092281574832,0.0631104,-0.0744019,0.942932,0.318176
1472092281594379,0.0680542,-0.0693359,0.944763,0.312988
1472092281617030,0.0717163,-0.0645752,0.946838,0.306824
1472092281634829,0.0737915,-0.0615234,0.949036,0.300049
1472092281654670,0.0751343,-0.0598755,0.951233,0.293091
1472092281677249,0.0762939,-0.0582275,0.953247,0.286316
1472092281694771,0.0770874,-0.0569458,0.955017,0.280457
1472092281714859,0.0773315,-0.0570068,0.956543,0.275269
1472092281739523,0.0770874,-0.0585327,0.957886,0.270264
1472092281759719,0.076416,-0.0600586,0.959229,0.265137
1472092281774371,0.0740356,-0.0593262,0.960876,0.260132
1472092281796948,0.0693359,-0.0569458,0.962646,0.255432
1472092281819735,0.0623169,-0.0533447,0.964478,0.251099
1472092281834866,0.0534668,-0.0484619,0.966064,0.247925
1472092281857008,0.0437012,-0.043335,0.967346,0.245728
1472092281879449,0.0331421,-0.0391235,0.968384,0.243958
1472092281894492,0.0217285,-0.0356445,0.969238,0.242432
1472092281917104,0.00933838,-0.0324707,0.96991,0.241089
1472092281939726,-0.0032959,-0.0304565,0.970093,0.240662
1472092281954315,-0.013916,-0.0297852,0.969238,0.243713
1472092281977192,-0.0219116,-0.0301514,0.96759,0.249512
1472092281999224,-0.0276489,-0.0327148,0.965881,0.255249
1472092282014247,-0.0324707,-0.0371704,0.964355,0.259888
1472092282037015,-0.0368042,-0.0415039,0.963013,0.263611
1472092282059203,-0.0405273,-0.0435791,0.961609,0.267883
1472092282074300,-0.0428467,-0.0436401,0.960205,0.2724
1472092282097231,-0.0432129,-0.0427246,0.959045,0.276489
1472092282119412,-0.0432129,-0.0432739,0.95813,0.279663
1472092282134476,-0.043457,-0.0463257,0.957092,0.282593
1472092282156532,-0.0441284,-0.0506592,0.955933,0.285767
1472092282179861,-0.0447998,-0.053833,0.954529,0.289734
1472092282194223,-0.0447388,-0.0544434,0.953247,0.293762
1472092282216950,-0.0442505,-0.0531616,0.952332,0.296936
1472092282239386,-0.0443115,-0.0523682,0.951721,0.299072
1472092282254634,-0.045105,-0.0526123,0.951111,0.300842
1472092282276763,-0.0458374,-0.0531616,0.950317,0.303162
1472092282299656,-0.0457153,-0.052002,0.949585,0.305664
1472092282314660,-0.0444336,-0.0491333,0.94928,0.307312
1472092282337247,-0.0422363,-0.0463867,0.949097,0.308594
1472092282359336,-0.0409546,-0.0454712,0.948792,0.309814
1472092282376192,-0.0407715,-0.0461426,0.948364,0.311035
1472092282397360,-0.0396729,-0.0473633,0.947693,0.31311
1472092282419379,-0.0387573,-0.0482178,0.94696,0.315186
1472092282434472,-0.0384521,-0.048645,0.94635,0.317078
1472092282457115,-0.0378418,-0.0488892,0.945679,0.319031
1472092282479747,-0.0373535,-0.0496826,0.944885,0.32135
1472092282494437,-0.0369873,-0.0496216,0.944153,0.323608
1472092282517098,-0.036438,-0.0484619,0.943542,0.3255
1472092282547592,-0.0361328,-0.0474243,0.943054,0.327209
1472092282562593,-0.0358887,-0.0465088,0.942566,0.328796
1472092282576922,-0.0355835,-0.0460815,0.942017,0.330383
1472092282599479,-0.0354004,-0.0455933,0.94165,0.331482
1472092282616204,-0.0346069,-0.0443726,0.941589,0.331848
1472092282636859,-0.0339355,-0.0431519,0.941589,0.332214
1472092282659532,-0.0334473,-0.0430298,0.941467,0.332642
1472092282675805,-0.03302,-0.043396,0.941406,0.332642
1472092282696787,-0.0327759,-0.043457,0.941406,0.332764
1472092282719870,-0.0328369,-0.0432129,0.941467,0.332642
1472092282735421,-0.0326538,-0.0427856,0.941528,0.33252
1472092282756930,-0.032959,-0.0428467,0.94165,0.332092
1472092282779541,-0.0337524,-0.043457,0.941772,0.331543
1472092282796084,-0.03479,-0.0438232,0.941833,0.331299
1472092282818209,-0.0358887,-0.0438232,0.941833,0.331055
1472092282839471,-0.0369873,-0.0438232,0.941833,0.330994
1472092282856014,-0.0379639,-0.0440674,0.941833,0.330994
1472092282877177,-0.0387573,-0.0443115,0.941772,0.331055
1472092282899331,-0.0396729,-0.0447998,0.941711,0.330994
1472092282917319,-0.0407715,-0.0456543,0.941589,0.330994
1472092282937162,-0.0419312,-0.0462036,0.941528,0.330933
1472092282959383,-0.0427246,-0.0466919,0.941528,0.330872
1472092282977460,-0.043335,-0.0474243,0.941467,0.33075
1472092282996917,-0.0440063,-0.0477295,0.941528,0.330505
1472092283019459,-0.0445557,-0.0479126,0.941528,0.330383
1472092283037534,-0.0452271,-0.0480347,0.941528,0.330322
1472092283057061,-0.0457764,-0.0482788,0.941467,0.330383
1472092283079652,-0.0463257,-0.048645,0.941467,0.330261
1472092283105021,-0.046814,-0.0487671,0.941528,0.330017
1472092283116952,-0.0471191,-0.0487061,0.94165,0.32959
1472092283139861,-0.0475464,-0.048645,0.941772,0.329224
1472092283157447,-0.0483398,-0.0482788,0.941895,0.328796
1472092283176771,-0.0488892,-0.0480957,0.941833,0.328918
1472092283199805,-0.0490112,-0.0477295,0.94165,0.329346
1472092283217285,-0.0490112,-0.0478516,0.941528,0.329834
1472092283236902,-0.0492554,-0.0491943,0.941406,0.329895
1472092283259360,-0.0499268,-0.0493774,0.941589,0.329285
1472092283281951,-0.0504761,-0.0488892,0.941833,0.328552
1472092283297035,-0.0505371,-0.0477295,0.941895,0.32843
1472092283319555,-0.0500488,-0.0463867,0.941895,0.328857
1472092283342119,-0.0496826,-0.0460815,0.941772,0.329163
1472092283357306,-0.0497437,-0.0463257,0.941833,0.328979
1472092283379422,-0.0499878,-0.0461426,0.941956,0.328613
1472092283401983,-0.0501099,-0.0454712,0.942078,0.328491
1472092283417006,-0.0499268,-0.0443726,0.942017,0.328735
1472092283439611,-0.0498047,-0.0441284,0.941956,0.329041
1472092283461909,-0.0498657,-0.0446777,0.941895,0.329102
1472092283476850,-0.0499878,-0.0455933,0.941895,0.328918
1472092283499631,-0.050293,-0.0462036,0.941956,0.328674
1472092283521864,-0.0507202,-0.0461426,0.941956,0.328613
1472092283537941,-0.0511475,-0.0458984,0.941895,0.328613
1472092283559342,-0.0516968,-0.0456543,0.941956,0.32843
1472092283581735,-0.0524292,-0.0454102,0.942078,0.328064
1472092283598851,-0.0532227,-0.0454712,0.942139,0.327637
1472092283619438,-0.0540161,-0.0458374,0.942322,0.327087
1472092283641923,-0.0546875,-0.0462646,0.942444,0.326599
1472092283658449,-0.0553589,-0.046875,0.942444,0.326233
1472092283679564,-0.0560303,-0.0474854,0.942444,0.326172
1472092283702027,-0.0567627,-0.0483398,0.942322,0.326172
1472092283718547,-0.0574341,-0.0491333,0.942261,0.326172
1472092283739464,-0.0579834,-0.0495605,0.9422,0.326111
1472092283761771,-0.0585938,-0.0497437,0.9422,0.325989
1472092283778438,-0.059082,-0.0500488,0.9422,0.325867
1472092283800944,-0.0595703,-0.050293,0.9422,0.325745
1472092283822100,-0.0601196,-0.050415,0.9422,0.325623
1472092283840152,-0.0609131,-0.0500488,0.942322,0.325134
1472092283859663,-0.0615234,-0.0493774,0.942383,0.325073
1472092283882337,-0.0619507,-0.0485229,0.942322,0.325317
1472092283899718,-0.0622559,-0.048584,0.942139,0.325684
1472092283919258,-0.0626221,-0.0498657,0.941956,0.325928
1472092283941855,-0.0633545,-0.0507813,0.942017,0.3255
1472092283960092,-0.0638428,-0.0507813,0.942139,0.325012
1472092283979434,-0.0640869,-0.0500488,0.942261,0.324829
1472092284002013,-0.06427,-0.0492554,0.9422,0.325012
1472092284020148,-0.0644531,-0.0493164,0.9422,0.325073
1472092284039259,-0.0648804,-0.0499878,0.9422,0.32489
1472092284061730,-0.0652466,-0.0509033,0.9422,0.324646
1472092284080006,-0.0656738,-0.0516968,0.942139,0.324524
1472092284102482,-0.0661011,-0.0522461,0.942078,0.324463
1472092284122095,-0.0666504,-0.0525513,0.942017,0.324524
1472092284139660,-0.0673828,-0.0529175,0.941895,0.324585
1472092284159461,-0.0681152,-0.0533447,0.941833,0.324707
1472092284182163,-0.0689697,-0.053772,0.941711,0.324768
1472092284199801,-0.0698853,-0.0543823,0.941589,0.324768
1472092284219695,-0.0708618,-0.0551758,0.941467,0.324768
1472092284242266,-0.0717163,-0.0559082,0.941406,0.324646
1472092284259136,-0.0723877,-0.0563965,0.941406,0.324524
1472092284279404,-0.072998,-0.0568237,0.941406,0.324341
1472092284301937,-0.0735474,-0.0570679,0.941406,0.324036
1472092284320034,-0.0740356,-0.057251,0.941467,0.323792
1472092284339545,-0.0744629,-0.0574951,0.941467,0.323547
1472092284361954,-0.0748291,-0.0578613,0.941528,0.323364
1472092284380126,-0.0750732,-0.0582275,0.941528,0.323242
1472092284402634,-0.0755005,-0.0586548,0.941528,0.323059
1472092284424718,-0.0758667,-0.059082,0.941528,0.322876
1472092284444393,-0.0762939,-0.0592651,0.941528,0.322693
1472092284460914,-0.0768433,-0.0595093,0.941528,0.322449
1472092284484826,-0.0773926,-0.0596924,0.941528,0.322327
1472092284504349,-0.0780029,-0.0599365,0.941467,0.322266
1472092284520899,-0.0784912,-0.0602417,0.941467,0.322205
1472092284542102,-0.0788574,-0.0604858,0.941406,0.322144
1472092284564038,-0.0792236,-0.0606689,0.941406,0.322083
1472092284581111,-0.0795898,-0.0609131,0.941345,0.322083
1472092284602208,-0.0797729,-0.0610962,0.941345,0.322021
1472092284624777,-0.0800781,-0.0613403,0.941345,0.321899
1472092284641154,-0.0803833,-0.0616455,0.941345,0.321716
1472092284661888,-0.0807495,-0.0618896,0.941406,0.321472
1472092284684597,-0.0809937,-0.0621338,0.941406,0.32135
1472092284701136,-0.0814209,-0.0622559,0.941406,0.321167
1472092284721752,-0.0818481,-0.0623779,0.941467,0.320984
1472092284744427,-0.0823364,-0.062561,0.941467,0.320801
1472092284761182,-0.0828857,-0.0628662,0.941406,0.320679
1472092284782388,-0.083313,-0.0631104,0.941406,0.320618
1472092284804601,-0.0837402,-0.0633545,0.941345,0.320557
1472092284822059,-0.0841675,-0.0635986,0.941345,0.320496
1472092284842143,-0.0845337,-0.0638428,0.941284,0.320496
1472092284864446,-0.0848389,-0.0640869,0.941223,0.320557
1472092284882388,-0.085144,-0.0643311,0.941162,0.320618
1472092284909509,-0.0854492,-0.0645142,0.941101,0.320557
1472092284924584,-0.0857544,-0.0645142,0.941101,0.320557
1472092284942689,-0.0862427,-0.0645142,0.941101,0.320496
1472092284978376,-0.0865479,-0.0646362,0.94104,0.320496
1472092284984396,-0.0869141,-0.0648804,0.940979,0.320496
1472092285002189,-0.0873413,-0.0651245,0.940918,0.320557
1472092285025241,-0.0875854,-0.0651245,0.940857,0.320618
1472092285044780,-0.0875244,-0.0653076,0.940796,0.320862
1472092285061872,-0.0875854,-0.0652466,0.940735,0.320923
1472092285081914,-0.0878296,-0.0649414,0.940796,0.320862
1472092285104434,-0.0880127,-0.0645752,0.940796,0.32074
1472092285122450,-0.0882568,-0.0644531,0.940918,0.320435
1472092285141990,-0.0883789,-0.0646362,0.940918,0.320251
1472092285164529,-0.0884399,-0.0646362,0.940918,0.320251
1472092285182554,-0.0884399,-0.0646362,0.940918,0.320251
1472092285202079,-0.0884399,-0.0646362,0.940918,0.320251
1472092285224627,-0.088501,-0.0646362,0.940918,0.320251
1472092285242242,-0.088562,-0.0648804,0.940918,0.320129
1472092285263461,-0.0886841,-0.0653076,0.940918,0.320068
1472092285284552,-0.0886841,-0.0653076,0.940918,0.320068
1472092285302620,-0.0886841,-0.0653687,0.940918,0.320068
1472092285322128,-0.0887451,-0.0653076,0.940918,0.320068
1472092285344663,-0.0887451,-0.0653076,0.940918,0.320068
1472092285362720,-0.0887451,-0.0653076,0.940918,0.320068
1472092285381792,-0.0888062,-0.0655518,0.940918,0.320068
1472092285404313,-0.0888062,-0.0655518,0.940918,0.320068
1472092285427055,-0.0888062,-0.0655518,0.940918,0.320068
1472092285443866,-0.0888062,-0.0655518,0.940918,0.320007
1472092285464863,-0.0888062,-0.0655518,0.940918,0.320007
1472092285482633,-0.0888062,-0.0655518,0.940918,0.320007
1472092285503704,-0.0888062,-0.0655518,0.940918,0.320007
1472092285524577,-0.0888062,-0.0655518,0.940918,0.320007
1472092285547165,-0.0888672,-0.0655518,0.940918,0.320007
1472092285563730,-0.0888672,-0.0655518,0.940918,0.320007
1472092285584743,-0.0888672,-0.0655518,0.940918,0.320007
1472092285606777,-0.0888672,-0.0655518,0.940918,0.320007
1472092285623844,-0.0889282,-0.0654907,0.940918,0.320007
1472092285644440,-0.0889282,-0.0654907,0.940918,0.320007
1472092285667191,-0.0889282,-0.0654907,0.940918,0.320007
1472092285683805,-0.0889282,-0.0654907,0.940918,0.320007
1472092285704330,-0.0889893,-0.0654907,0.940918,0.320007
1472092285727128,-0.0889893,-0.0654907,0.940918,0.320007
1472092285745273,-0.0889893,-0.0654907,0.940918,0.320007
1472092285764419,-0.0890503,-0.0654907,0.940918,0.320007
1472092285787077,-0.0890503,-0.0654907,0.940918,0.320007
1472092285805093,-0.0890503,-0.0654907,0.940918,0.320007
1472092285824682,-0.0890503,-0.0654907,0.940918,0.320007
1472092285846893,-0.0893555,-0.0656128,0.940918,0.319946
1472092285864002,-0.0895996,-0.0657349,0.940918,0.319885
1472092285884525,-0.0896606,-0.0657349,0.940857,0.319885
1472092285907012,-0.0896606,-0.0657349,0.940857,0.319885
1472092285925161,-0.0896606,-0.0656738,0.940857,0.319885
1472092285947673,-0.0896606,-0.0656738,0.940918,0.319824
1472092285966264,-0.0897217,-0.0656738,0.940857,0.319824
1472092285984674,-0.0897217,-0.0656738,0.940857,0.319824
1472092286004701,-0.0897217,-0.0656738,0.940857,0.319824
1472092286026897,-0.0898438,-0.0655518,0.940857,0.319824
1472092286045073,-0.0898438,-0.0653076,0.940857,0.319885
1472092286064666,-0.0899048,-0.0652466,0.940857,0.319885
1472092286087021,-0.0899048,-0.0652466,0.940857,0.319885
1472092286105028,-0.0899658,-0.0651855,0.940857,0.319885
1472092286124524,-0.0899658,-0.0651855,0.940857,0.319885
1472092286147135,-0.0899658,-0.0651855,0.940857,0.319885
1472092286165287,-0.0899658,-0.0651855,0.940857,0.319885
1472092286184898,-0.0900269,-0.0651855,0.940857,0.319885
1472092286206923,-0.0900269,-0.0651245,0.940857,0.319885
1472092286225015,-0.0900879,-0.0653076,0.940918,0.319763
1472092286244644,-0.0900269,-0.0653687,0.940918,0.319641
1472092286266900,-0.0899048,-0.0653687,0.940979,0.319519
1472092286284997,-0.0894775,-0.0652466,0.94104,0.319519
1472092286304579,-0.0889893,-0.0651245,0.941101,0.319519
1472092286327386,-0.0883789,-0.0651245,0.941162,0.31958
1472092286344964,-0.0878296,-0.0652466,0.941162,0.319641
1472092286366164,-0.0874023,-0.0653687,0.941162,0.319641
1472092286387818,-0.0870972,-0.0657349,0.941162,0.319702
1472092286404910,-0.0869141,-0.0661011,0.941162,0.319824
1472092286427566,-0.086731,-0.0663452,0.94104,0.320007
1472092286450079,-0.0866089,-0.0665283,0.940979,0.320251
1472092286464793,-0.0863647,-0.0665283,0.940918,0.320496
1472092286485888,-0.0859985,-0.0665894,0.940857,0.32074
1472092286507015,-0.0856934,-0.0666504,0.940857,0.320923
1472092286524613,-0.0853271,-0.0667114,0.940796,0.320984
1472092286546032,-0.0848999,-0.0668335,0.940796,0.321106
1472092286567157,-0.0844727,-0.0666504,0.940857,0.321167
1472092286584788,-0.0840454,-0.0664063,0.940918,0.321167
1472092286605911,-0.0837402,-0.0663452,0.940979,0.321106
1472092286625897,-0.0836182,-0.0665283,0.940979,0.321106
1472092286650883,-0.0834351,-0.0668945,0.940979,0.321106
1472092286665907,-0.0831909,-0.0670776,0.940918,0.321228
1472092286687014,-0.083252,-0.0670776,0.940918,0.321228
1472092286709396,-0.083252,-0.0670166,0.940918,0.321228
1472092286727454,-0.0834351,-0.0671997,0.940857,0.321289
1472092286747005,-0.0834351,-0.0671997,0.940857,0.321289
1472092286769633,-0.0834351,-0.0671997,0.940857,0.321289
1472092286787756,-0.0834961,-0.0671387,0.940857,0.321289
1472092286807330,-0.0834961,-0.0674438,0.940857,0.321228
1472092286829354,-0.0834961,-0.067749,0.940857,0.321167
1472092286854847,-0.0836792,-0.0678101,0.940857,0.321106
1472092286866867,-0.0838623,-0.067749,0.940918,0.320923
1472092286889511,-0.0840454,-0.067688,0.940979,0.320679
1472092286907544,-0.0841064,-0.067688,0.940979,0.320679
1472092286926998,-0.0841064,-0.067688,0.940979,0.320679
1472092286949650,-0.0841675,-0.067749,0.940979,0.320679
1472092286967329,-0.0843506,-0.0679321,0.940979,0.320618
1472092286987003,-0.0845947,-0.0681763,0.940918,0.320557
1472092287009634,-0.0848999,-0.0684814,0.940918,0.320496
1472092287027738,-0.085144,-0.0687256,0.940857,0.320435
1472092287047062,-0.0853882,-0.0689087,0.940857,0.320435
1472092287069295,-0.0854492,-0.0690918,0.940796,0.320496
1472092287087416,-0.0855713,-0.0692139,0.940796,0.320496
1472092287106991,-0.0857544,-0.069397,0.940796,0.320435
1472092287131157,-0.0859985,-0.0696411,0.940735,0.320435
1472092287147855,-0.0861816,-0.0699463,0.940735,0.320435
1472092287166961,-0.0861816,-0.0699463,0.940735,0.320435
1472092287189460,-0.0864868,-0.0701294,0.940674,0.320496
1472092287207627,-0.086731,-0.0701294,0.940613,0.320557
1472092287227250,-0.0870361,-0.0703125,0.940552,0.320557
1472092287249488,-0.0870972,-0.0703125,0.940552,0.320557
1472092287268059,-0.0873413,-0.0703735,0.940552,0.320496
1472092287286608,-0.0875854,-0.0705566,0.940552,0.320496
1472092287309847,-0.0878296,-0.0706787,0.940552,0.320374
1472092287327466,-0.0878296,-0.0706787,0.940552,0.320374
1472092287348664,-0.0878296,-0.0706787,0.940491,0.320374
1472092287369418,-0.0878906,-0.0706177,0.940552,0.320374
1472092287387782,-0.0878906,-0.0706177,0.940491,0.320374
1472092287408315,-0.0878906,-0.0706177,0.940491,0.320374
1472092287429859,-0.0880127,-0.0704956,0.940552,0.320313
1472092287447602,-0.0880737,-0.0704956,0.940552,0.320313
1472092287468658,-0.0880737,-0.0704346,0.940552,0.320313
1472092287489725,-0.0880737,-0.0704346,0.940552,0.320313
1472092287507266,-0.0880737,-0.0704346,0.940552,0.320313
1472092287528330,-0.0881348,-0.0703735,0.940552,0.320313
1472092287549990,-0.0881348,-0.0703735,0.940552,0.320313
1472092287567670,-0.0881958,-0.0703735,0.940552,0.320313
1472092287588461,-0.0881958,-0.0703735,0.940552,0.320313
1472092287609578,-0.0882568,-0.0703735,0.940552,0.320251
1472092287627314,-0.0882568,-0.0703735,0.940552,0.320251
1472092287649915,-0.0883179,-0.0703125,0.940552,0.320251
1472092287669624,-0.0883179,-0.0703125,0.940552,0.320251
1472092287687171,-0.088562,-0.0704956,0.940491,0.320313
1472092287710192,-0.088562,-0.0704956,0.940491,0.320313
1472092287729715,-0.0886841,-0.0702515,0.94043,0.320435
1472092287747365,-0.0886841,-0.0702515,0.940491,0.320435
1472092287769885,-0.0886841,-0.0702515,0.940491,0.320435
1472092287789448,-0.0887451,-0.0702515,0.940491,0.320374
1472092287811974,-0.0888672,-0.0700073,0.940491,0.320251
1472092287830013,-0.0889282,-0.0700073,0.940491,0.320251
1472092287849547,-0.0889282,-0.0700073,0.940491,0.320251
1472092287872034,-0.0889282,-0.0698242,0.940552,0.320129
1472092287890065,-0.0889893,-0.069458,0.940613,0.320129
1472092287909615,-0.0889893,-0.0692139,0.940613,0.320007
1472092287931998,-0.0890503,-0.0692139,0.940613,0.320007
1472092287950144,-0.0890503,-0.0692139,0.940613,0.320007
1472092287969778,-0.0890503,-0.0692139,0.940613,0.320007
1472092287992183,-0.0891724,-0.0689087,0.940674,0.319946
1472092288009886,-0.0892944,-0.0686035,0.940674,0.319946
1472092288029550,-0.0892944,-0.0685425,0.940674,0.319946
1472092288051873,-0.0892944,-0.0685425,0.940674,0.319946
1472092288069809,-0.0893555,-0.0685425,0.940674,0.319946
1472092288089525,-0.0895386,-0.0684814,0.940735,0.319702
1472092288112181,-0.0896606,-0.0685425,0.940796,0.319458
1472092288129840,-0.0897217,-0.0685425,0.940796,0.319458
1472092288152387,-0.0895996,-0.0683594,0.940857,0.319397
1472092288171960,-0.0896606,-0.0682983,0.940857,0.319397
1472092288189990,-0.0896606,-0.0682983,0.940857,0.319397
1472092288209510,-0.0897217,-0.0682373,0.940857,0.319397
1472092288231378,-0.0897217,-0.0682373,0.940857,0.319397
1472092288250014,-0.0897217,-0.0680542,0.940857,0.319397
1472092288271121,-0.0897217,-0.0680542,0.940857,0.319397
1472092288295073,-0.0897827,-0.0680542,0.940857,0.319397
1472092288310080,-0.0897827,-0.0679932,0.940857,0.319397
1472092288330793,-0.0898438,-0.0679932,0.940857,0.319397
1472092288352102,-0.0898438,-0.0679932,0.940857,0.319397
1472092288377329,-0.0899048,-0.0679932,0.940857,0.319397
1472092288390807,-0.0899048,-0.0679932,0.940857,0.319336
1472092288411903,-0.0900879,-0.0681763,0.940857,0.319336
1472092288430029,-0.09021,-0.0684814,0.940857,0.319275
1472092288451208,-0.090332,-0.0688477,0.940796,0.319275
1472092288471828,-0.0904541,-0.0690308,0.940735,0.319336
1472092288489987,-0.0908203,-0.0692749,0.940613,0.31958
1472092288511016,-0.0913086,-0.0696411,0.940552,0.31958
1472092288532050,-0.0913696,-0.0700073,0.940491,0.31958
1472092288549880,-0.0913086,-0.0698242,0.94043,0.319763
1472092288571134,-0.0911865,-0.0692139,0.94043,0.320007
1472092288593564,-0.0913696,-0.0690308,0.940491,0.319885
1472092288610144,-0.0915527,-0.0686035,0.940552,0.319763
1472092288640231,-0.092041,-0.0673828,0.940613,0.319641
1472092288651823,-0.0926514,-0.0661621,0.940735,0.319397
1472092288669985,-0.0932007,-0.0654297,0.940735,0.319275
1472092288692595,-0.0934448,-0.0644531,0.940918,0.31897
1472092288712197,-0.0934448,-0.0636597,0.941101,0.318604
1472092288729239,-0.0934448,-0.0629272,0.941223,0.318298
1472092288752464,-0.0932617,-0.0623169,0.941406,0.317993
1472092288771996,-0.0931396,-0.0618896,0.941467,0.31781
1472092288790038,-0.0933838,-0.0615845,0.941467,0.317871
1472092288812823,-0.093689,-0.0615845,0.941406,0.317993
1472092288832364,-0.0939331,-0.0617676,0.941345,0.318054
1472092288849954,-0.0944214,-0.0618896,0.941162,0.318359
1472092288872863,-0.0949097,-0.0620117,0.940979,0.318787
1472092288891853,-0.0953979,-0.0619507,0.940918,0.318909
1472092288909910,-0.0956421,-0.0618896,0.940918,0.318848
1472092288932476,-0.0958252,-0.0620728,0.940918,0.318604
1472092288952131,-0.0957642,-0.0620728,0.94104,0.31842
1472092288969922,-0.0956421,-0.0618286,0.94104,0.318359
1472092288992488,-0.0956421,-0.0616455,0.940979,0.318542
1472092289012007,-0.0958862,-0.0614624,0.940918,0.318726
1472092289034066,-0.0957642,-0.0611572,0.940979,0.318726
1472092289052655,-0.0955811,-0.0609131,0.94104,0.318726
1472092289071743,-0.09552,-0.0609131,0.94104,0.318726
1472092289094418,-0.0957031,-0.0610962,0.940979,0.318726
1472092289112469,-0.0959473,-0.0614014,0.940918,0.318787
1472092289132036,-0.0962524,-0.0617065,0.940857,0.318848
1472092289154748,-0.0964966,-0.0618286,0.940796,0.31897
1472092289172325,-0.0964966,-0.0618286,0.940796,0.31897
1472092289192294,-0.0964966,-0.0618286,0.940796,0.31897
1472092289222158,-0.0966187,-0.0619507,0.940674,0.319153
1472092289232667,-0.0966797,-0.0621338,0.940613,0.319275
1472092289253813,-0.0967407,-0.0622559,0.940552,0.319458
1472092289277404,-0.0968018,-0.0622559,0.940552,0.319458
1472092289292390,-0.0968018,-0.0621948,0.940552,0.319458
1472092289313423,-0.0968628,-0.0621948,0.940552,0.319458
1472092289334476,-0.0968628,-0.0621948,0.940552,0.319458
1472092289352422,-0.0968628,-0.0621948,0.940552,0.319458
1472092289373255,-0.0968628,-0.0620728,0.940491,0.319641
1472092289394397,-0.0968628,-0.0620117,0.940491,0.319641
1472092289412446,-0.0968628,-0.0620117,0.940491,0.319641
1472092289433446,-0.0969238,-0.0620117,0.940491,0.319641
1472092289454479,-0.0969238,-0.0619507,0.940491,0.319641
1472092289472473,-0.0968628,-0.0623169,0.940491,0.31958
1472092289493646,-0.0968628,-0.0626831,0.940552,0.319397
1472092289514688,-0.0968628,-0.0626831,0.940552,0.319397
1472092289532633,-0.0969238,-0.0626831,0.940552,0.319397
1472092289554774,-0.0969238,-0.0628662,0.940491,0.319397
1472092289574933,-0.0969238,-0.0629883,0.940552,0.319336
1472092289592406,-0.0968628,-0.0630493,0.940613,0.319153
1472092289615156,-0.0968628,-0.0630493,0.940613,0.319153
1472092289634372,-0.0968628,-0.0630493,0.940613,0.319153
1472092289652919,-0.0969238,-0.0630493,0.940613,0.319153
1472092289674986,-0.0970459,-0.0626831,0.940552,0.319214
1472092289694558,-0.09729,-0.0626221,0.940552,0.319275
1472092289712454,-0.0974731,-0.0625,0.94043,0.319458
1472092289734483,-0.0975342,-0.0623779,0.940369,0.319702
1472092289762196,-0.0975342,-0.0623779,0.940369,0.319702
1472092289772556,-0.0974121,-0.0625,0.94043,0.319519
1472092289794796,-0.0973511,-0.0627441,0.94043,0.319458
1472092289814578,-0.09729,-0.0630493,0.94043,0.319458
1472092289832605,-0.09729,-0.0631714,0.940491,0.319336
1472092289855071,-0.097168,-0.0634155,0.940491,0.319214
1472092289874517,-0.0969238,-0.0639038,0.940552,0.319092
1472092289892639,-0.0967407,-0.0644531,0.940552,0.319092
1472092289915379,-0.0965576,-0.0646362,0.940552,0.319092
1472092289934737,-0.0965576,-0.0646362,0.940552,0.319092
1472092289952368,-0.0964355,-0.0648804,0.940491,0.319153
1472092289974905,-0.0963745,-0.0651245,0.940552,0.319031
1472092289994446,-0.0962524,-0.0651855,0.940613,0.318848
1472092290012474,-0.0961914,-0.0653687,0.940613,0.318787
1472092290043053,-0.0961304,-0.0654907,0.940613,0.318787
1472092290056063,-0.0960083,-0.0656128,0.940613,0.318787
1472092290072599,-0.0958252,-0.0657349,0.940613,0.318848
1472092290095130,-0.0955811,-0.0658569,0.940674,0.318787
1472092290114660,-0.09552,-0.0662231,0.940674,0.318726
1472092290137147,-0.095459,-0.0664673,0.940674,0.318665
1472092290155173,-0.0953979,-0.0667725,0.940674,0.318604
1472092290175712,-0.095459,-0.0667725,0.940674,0.318604
1472092290197239,-0.095459,-0.0668335,0.940674,0.318604
1472092290215268,-0.0953979,-0.0670776,0.940613,0.318604
1472092290236302,-0.0953369,-0.0674438,0.940613,0.318604
1472092290257294,-0.0952148,-0.0678101,0.940674,0.318542
1472092290274838,-0.0952148,-0.0681152,0.940674,0.318359
1472092290295870,-0.0952759,-0.0683594,0.940674,0.318298
1472092290316898,-0.0952759,-0.0683594,0.940674,0.318298
1472092290334418,-0.0953369,-0.0685425,0.940674,0.318237
1472092290355966,-0.0953979,-0.0688477,0.940613,0.318298
1472092290376994,-0.0953369,-0.0691528,0.940613,0.318298
1472092290395018,-0.0953979,-0.069397,0.940613,0.318298
1472092290416109,-0.09552,-0.0696411,0.940613,0.318237
1472092290437204,-0.0956421,-0.0699463,0.940613,0.318115
1472092290454727,-0.0957642,-0.0701904,0.940552,0.318176
1472092290475888,-0.0957642,-0.0701904,0.940552,0.318176
1472092290497182,-0.0957642,-0.0701904,0.940552,0.318176
1472092290514753,-0.0957642,-0.0701904,0.940552,0.318176
1472092290537313,-0.0957642,-0.0701294,0.940552,0.318176
1472092290557480,-0.0959473,-0.0703735,0.940552,0.318054
1472092290575294,-0.0961304,-0.0706177,0.940491,0.318054
1472092290597511,-0.0963135,-0.0707397,0.94043,0.318115
1472092290617367,-0.0963135,-0.0707397,0.94043,0.318115
1472092290634994,-0.0963135,-0.0707397,0.94043,0.318115
1472092290657668,-0.0963745,-0.0707397,0.94043,0.318115
1472092290677202,-0.0963745,-0.0707397,0.94043,0.318115
1472092290694861,-0.0963745,-0.0707397,0.94043,0.318115
1472092290717418,-0.0963745,-0.0707397,0.94043,0.318115
1472092290737249,-0.0964355,-0.0706787,0.94043,0.318115
1472092290754925,-0.0964355,-0.0706787,0.94043,0.318115
1472092290777680,-0.0964355,-0.0706787,0.94043,0.318054
1472092290797044,-0.0964355,-0.0706787,0.94043,0.318115
1472092290815219,-0.0964355,-0.0706787,0.94043,0.318054
1472092290837249,-0.0964966,-0.0704956,0.94043,0.318176
1472092290856992,-0.0964966,-0.0701294,0.94043,0.318237
1472092290875151,-0.0964355,-0.0698242,0.94043,0.318298
1472092290897506,-0.0964966,-0.0698242,0.94043,0.318298
1472092290917024,-0.0964966,-0.0697632,0.94043,0.318298
1472092290935051,-0.0964966,-0.0697632,0.94043,0.318298
1472092290957622,-0.0964966,-0.0697632,0.94043,0.318298
1472092290977105,-0.0964355,-0.069458,0.940552,0.318176
1472092290994688,-0.0964355,-0.0692139,0.940552,0.318115
1472092291017828,-0.0964355,-0.0692139,0.940552,0.318115
1472092291038735,-0.0964966,-0.0692139,0.940552,0.318115
1472092291054779,-0.0964355,-0.0690308,0.940552,0.318115
1472092291077417,-0.0962524,-0.0688477,0.940613,0.318054
1472092291098479,-0.0962524,-0.0688477,0.940613,0.318054
1472092291115017,-0.0963745,-0.0687866,0.940735,0.317749
1472092291137547,-0.0963745,-0.0687866,0.940735,0.317749
1472092291158603,-0.0964355,-0.0687866,0.940796,0.317505
1472092291175117,-0.0964966,-0.0687866,0.940796,0.317505
1472092291197183,-0.0964966,-0.0687866,0.940796,0.317505
1472092291220173,-0.0964966,-0.0687866,0.940796,0.317505
1472092291235196,-0.0964966,-0.0687866,0.940796,0.317505
1472092291257718,-0.0964966,-0.0687866,0.940796,0.317505
1472092291279278,-0.0964966,-0.0687866,0.940796,0.317505
1472092291299322,-0.0965576,-0.0687256,0.940796,0.317505
1472092291317350,-0.0965576,-0.0687256,0.940796,0.317505
1472092291338376,-0.0966187,-0.0687256,0.940796,0.317505
1472092291359515,-0.0966187,-0.0687256,0.940796,0.317505
1472092291377418,-0.0966187,-0.0687256,0.940796,0.317505
1472092291398507,-0.0966187,-0.0687256,0.940796,0.317505
1472092291419862,-0.0966187,-0.0686646,0.940796,0.317505
1472092291437511,-0.0966797,-0.0686646,0.940796,0.317505
1472092291460160,-0.0966797,-0.0686646,0.940796,0.317505
1472092291479475,-0.0967407,-0.0686646,0.940796,0.317505
1472092291497662,-0.0967407,-0.0686646,0.940796,0.317505
1472092291520714,-0.0967407,-0.0686035,0.940796,0.317505
1472092291539710,-0.0968018,-0.0686035,0.940796,0.317505
1472092291557481,-0.0968018,-0.0686035,0.940796,0.317505
1472092291580130,-0.0968018,-0.0686035,0.940796,0.317444
1472092291599653,-0.0968628,-0.0686035,0.940796,0.317444
1472092291617781,-0.0969238,-0.0687256,0.940796,0.317444
1472092291639783,-0.0969849,-0.0688477,0.940796,0.317322
1472092291659611,-0.0970459,-0.0687866,0.940796,0.317322
1472092291677777,-0.0970459,-0.0687866,0.940796,0.317322
1472092291704294,-0.0970459,-0.0687866,0.940796,0.317322
1472092291719540,-0.0970459,-0.0687866,0.940796,0.317322
1472092291737854,-0.0971069,-0.0687866,0.940796,0.317322
1472092291760168,-0.0974121,-0.0683594,0.940796,0.317383
1472092291779393,-0.0979614,-0.0680542,0.940735,0.317383
1472092291797418,-0.0985107,-0.0681152,0.940674,0.317261
1472092291818951,-0.0986328,-0.0682983,0.940674,0.317383
1472092291839831,-0.0986328,-0.0681763,0.940613,0.317505
1472092291857857,-0.0985718,-0.067749,0.940613,0.317627
1472092291879887,-0.0985718,-0.067688,0.940613,0.317627
1472092291906937,-0.0986938,-0.0679321,0.940613,0.317444
1472092291917452,-0.098877,-0.0681763,0.940613,0.317383
1472092291939472,-0.098877,-0.0681763,0.940613,0.317383
1472092291959507,-0.0990601,-0.067749,0.940613,0.317505
1472092291985047,-0.0991211,-0.067749,0.940613,0.317505
1472092292000080,-0.0991211,-0.067749,0.940613,0.317505
1472092292019618,-0.0991211,-0.067749,0.940613,0.317505
1472092292037645,-0.0991211,-0.067688,0.940613,0.317505
1472092292059925,-0.0991821,-0.0678101,0.940613,0.317444
1472092292080985,-0.0992432,-0.0678101,0.940613,0.317444
1472092292097765,-0.0992432,-0.0678101,0.940613,0.317444
1472092292119933,-0.0992432,-0.0678101,0.940613,0.317444
1472092292141025,-0.0993042,-0.0678101,0.940613,0.317444
1472092292157689,-0.0993042,-0.0678101,0.940613,0.317444
1472092292180256,-0.0993042,-0.067749,0.940613,0.317444
1472092292200913,-0.0993042,-0.067749,0.940613,0.317444
1472092292217520,-0.0993652,-0.067749,0.940613,0.317444
1472092292240205,-0.0993652,-0.067749,0.940613,0.317444
1472092292261240,-0.0993652,-0.067749,0.940613,0.317383
1472092292277402,-0.0993652,-0.067749,0.940613,0.317383
1472092292299932,-0.0994263,-0.067749,0.940613,0.317383
1472092292321058,-0.0994263,-0.067749,0.940613,0.317383
1472092292337671,-0.0994263,-0.067749,0.940613,0.317383
1472092292359989,-0.0994873,-0.0679321,0.940613,0.317322
1472092292381050,-0.0994873,-0.0679321,0.940613,0.317322
1472092292397552,-0.0994873,-0.0679321,0.940613,0.317322
1472092292420373,-0.0995483,-0.0678711,0.940613,0.317322
1472092292442581,-0.0995483,-0.0678711,0.940613,0.317322
1472092292462140,-0.0996094,-0.0679321,0.940613,0.317322
1472092292480177,-0.0993652,-0.067749,0.940613,0.317444
1472092292502378,-0.0991211,-0.067627,0.940613,0.317383
1472092292521898,-0.0991821,-0.0673828,0.940796,0.317017
1472092292540416,-0.0993042,-0.0675659,0.940796,0.316895
1472092292562448,-0.0993652,-0.0675659,0.940796,0.316895
1472092292581979,-0.0993652,-0.0675659,0.940796,0.316895
1472092292599501,-0.0994263,-0.0675659,0.940796,0.316895
1472092292622722,-0.0994263,-0.0675659,0.940796,0.316895
1472092292642239,-0.0994263,-0.0675659,0.940796,0.316895
1472092292660254,-0.0994263,-0.0675049,0.940796,0.316895
1472092292682835,-0.0995483,-0.067688,0.940796,0.316833
1472092292702359,-0.0995483,-0.067688,0.940796,0.316833
1472092292720389,-0.0996094,-0.067688,0.940796,0.316833
1472092292742839,-0.0996094,-0.067688,0.940796,0.316833
1472092292761908,-0.0996094,-0.067688,0.940796,0.316833
1472092292780501,-0.0996094,-0.067688,0.940796,0.316833
1472092292802519,-0.0996704,-0.067688,0.940796,0.316833
1472092292822179,-0.0996704,-0.067688,0.940796,0.316833
1472092292840297,-0.0996704,-0.067688,0.940735,0.316833
1472092292862444,-0.0997314,-0.067688,0.940735,0.316833
1472092292882494,-0.0997314,-0.067688,0.940735,0.316833
1472092292900043,-0.0997314,-0.067688,0.940735,0.316833
1472092292922746,-0.0997314,-0.067688,0.940735,0.316833
1472092292942333,-0.0997925,-0.067688,0.940735,0.316833
1472092292959992,-0.0997925,-0.067688,0.940735,0.316833
1472092292982606,-0.0997925,-0.067688,0.940735,0.316833
1472092293003842,-0.0997925,-0.067688,0.940735,0.316833
1472092293019934,-0.0998535,-0.067688,0.940735,0.316833
1472092293042613,-0.0998535,-0.067688,0.940735,0.316833
1472092293063900,-0.0998535,-0.067688,0.940735,0.316833
1472092293080145,-0.0998535,-0.067627,0.940735,0.316833
1472092293109489,-0.0999146,-0.067627,0.940735,0.316833
1472092293123489,-0.0999146,-0.067688,0.940735,0.316833
1472092293140307,-0.0999146,-0.067688,0.940735,0.316833
1472092293162402,-0.0999146,-0.067627,0.940735,0.316772
1472092293183533,-0.0999146,-0.0678711,0.940735,0.316772
1472092293200092,-0.0999756,-0.0681152,0.940735,0.316711
1472092293222764,-0.0999756,-0.0681763,0.940735,0.316711
1472092293243981,-0.100037,-0.0681763,0.940735,0.316711
1472092293259959,-0.100037,-0.0681763,0.940735,0.316711
1472092293282783,-0.100037,-0.0681763,0.940735,0.316711
1472092293302831,-0.100037,-0.0681763,0.940735,0.316711
1472092293325381,-0.100037,-0.0681763,0.940735,0.316711
1472092293342104,-0.100098,-0.0682373,0.940735,0.316711
1472092293364314,-0.100098,-0.0682373,0.940735,0.316711
1472092293385746,-0.100098,-0.0682373,0.940735,0.316711
1472092293401775,-0.100159,-0.0682373,0.940735,0.316711
1472092293424379,-0.100159,-0.0682373,0.940735,0.316711
1472092293445375,-0.100159,-0.0682373,0.940735,0.316711
1472092293461499,-0.100159,-0.0682373,0.940735,0.316711
1472092293483261,-0.10022,-0.0682373,0.940735,0.316711
1472092293512830,-0.10022,-0.0682373,0.940735,0.316711
1472092293521921,-0.10022,-0.0682373,0.940735,0.316711
1472092293544520,-0.100281,-0.0682983,0.940735,0.316711
1472092293565720,-0.100281,-0.0682983,0.940674,0.316711
1472092293581667,-0.100281,-0.0682983,0.940674,0.316711
1472092293604511,-0.100281,-0.0682983,0.940674,0.316711
1472092293625272,-0.100281,-0.0683594,0.940674,0.316711
1472092293641834,-0.100342,-0.0683594,0.940674,0.316711
1472092293664488,-0.100342,-0.0683594,0.940674,0.316711
1472092293685254,-0.100342,-0.0683594,0.940674,0.316711
1472092293716901,-0.100403,-0.0683594,0.940674,0.316711
1472092293724425,-0.100403,-0.0684204,0.940674,0.31665
1472092293745522,-0.100403,-0.0684204,0.940674,0.31665
1472092293761723,-0.100464,-0.0684204,0.940674,0.31665
1472092293784367,-0.100464,-0.0684204,0.940674,0.31665
1472092293805561,-0.100464,-0.0684204,0.940674,0.31665
1472092293822271,-0.100525,-0.0684204,0.940674,0.31665
1472092293844299,-0.100525,-0.0684204,0.940674,0.31665
1472092293865251,-0.100525,-0.0684204,0.940674,0.31665
1472092293881533,-0.100525,-0.0684204,0.940674,0.31665
1472092293904257,-0.100586,-0.0684814,0.940674,0.31665
1472092293925366,-0.100586,-0.0684814,0.940674,0.31665
1472092293941880,-0.100647,-0.0684814,0.940674,0.31665
1472092293964435,-0.100647,-0.0684814,0.940674,0.31665
1472092293985392,-0.100647,-0.0684814,0.940674,0.31665
1472092294001517,-0.100647,-0.0684814,0.940674,0.31665
1472092294024137,-0.100708,-0.0684814,0.940674,0.31665
1472092294045349,-0.100708,-0.0684814,0.940674,0.31665
1472092294061946,-0.100708,-0.0684814,0.940674,0.31665
1472092294084254,-0.100769,-0.0684814,0.940674,0.31665
1472092294105401,-0.100769,-0.0684814,0.940674,0.31665
1472092294129523,-0.100769,-0.0684814,0.940674,0.31665
1472092294144563,-0.10083,-0.0685425,0.940674,0.31665
1472092294165593,-0.10083,-0.0684814,0.940613,0.31665
1472092294181648,-0.10083,-0.0685425,0.940613,0.31665
1472092294204296,-0.101074,-0.0678101,0.940674,0.316711
1472092294225482,-0.101746,-0.0671387,0.940613,0.316833
1472092294241504,-0.102356,-0.0668945,0.940552,0.316711
1472092294264097,-0.102356,-0.0667725,0.940613,0.316528
1472092294286153,-0.102173,-0.0664063,0.940674,0.316528
1472092294301684,-0.102112,-0.0657959,0.940735,0.316589
1472092294324576,-0.102295,-0.0654297,0.940735,0.316589
1472092294346588,-0.1026,-0.0655518,0.940735,0.316467
1472092294369141,-0.102661,-0.0655518,0.940735,0.316467
1472092294384154,-0.102661,-0.0655518,0.940735,0.316467
1472092294407197,-0.102722,-0.0653076,0.940735,0.316406
1472092294421219,-0.102783,-0.0653687,0.940735,0.316406
1472092294451593,-0.102783,-0.0653687,0.940735,0.316406
1472092294466615,-0.102783,-0.0653687,0.940735,0.316406
1472092294480911,-0.102783,-0.0653687,0.940735,0.316406
1472092294504130,-0.102783,-0.0653687,0.940735,0.316406
1472092294526930,-0.102783,-0.0653687,0.940735,0.316406
1472092294549469,-0.102844,-0.0653687,0.940735,0.316406
1472092294564484,-0.102844,-0.0653687,0.940735,0.316406
1472092294587019,-0.102905,-0.0653687,0.940735,0.316406
1472092294601033,-0.102905,-0.0653687,0.940735,0.316406
1472092294624073,-0.102905,-0.0653687,0.940735,0.316406
1472092294646602,-0.102905,-0.0653687,0.940735,0.316406
1472092294661123,-0.102905,-0.0653687,0.940735,0.316406
1472092294684181,-0.102966,-0.0653687,0.940735,0.316406
1472092294706850,-0.102966,-0.0654297,0.940735,0.316406
1472092294727881,-0.103027,-0.0654297,0.940735,0.316406
1472092294744396,-0.103027,-0.0654297,0.940735,0.316406
1472092294766434,-0.103027,-0.0654297,0.940735,0.316406
1472092294787965,-0.103088,-0.0654297,0.940735,0.316406
1472092294803990,-0.103088,-0.0654297,0.940735,0.316406
1472092294827028,-0.103088,-0.0654297,0.940735,0.316406
1472092294848046,-0.103149,-0.0654297,0.940674,0.316345
1472092294864075,-0.10321,-0.0654297,0.940674,0.316345
1472092294886622,-0.10321,-0.0654297,0.940674,0.316345
1472092294907663,-0.103088,-0.0656738,0.940674,0.316406
1472092294924185,-0.102905,-0.065979,0.940674,0.316345
1472092294946262,-0.102661,-0.0663452,0.940735,0.316223
1472092294968019,-0.102356,-0.0665894,0.940796,0.316101
1472092294984576,-0.102173,-0.0668945,0.940857,0.31604
1472092295006595,-0.102112,-0.0670166,0.940857,0.315979
1472092295027824,-0.102112,-0.0671997,0.940857,0.315857
1472092295044363,-0.102051,-0.0673828,0.940918,0.315735
1472092295066998,-0.10199,-0.0675659,0.940918,0.315674
1472092295087783,-0.101929,-0.067627,0.940979,0.315552
1472092295104520,-0.101868,-0.067627,0.940979,0.315491
1472092295126696,-0.101868,-0.067627,0.940979,0.315491
1472092295147828,-0.101746,-0.067749,0.940979,0.31543
1472092295164235,-0.101685,-0.0679321,0.94104,0.315369
1472092295186882,-0.101685,-0.0682373,0.94104,0.315247
1472092295207909,-0.101685,-0.0682373,0.94104,0.315247
1472092295224257,-0.101746,-0.0681763,0.94104,0.315247
1472092295254497,-0.101746,-0.0682373,0.94104,0.315247
1472092295269139,-0.101807,-0.0681763,0.94104,0.315247
1472092295284616,-0.101807,-0.0681763,0.94104,0.315247
1472092295306713,-0.101807,-0.0681763,0.94104,0.315247
1472092295329285,-0.101807,-0.0681763,0.94104,0.315247
1472092295344392,-0.101807,-0.0681763,0.94104,0.315247
1472092295366651,-0.101868,-0.0681763,0.94104,0.315247
1472092295389433,-0.101868,-0.0681763,0.94104,0.315247
1472092295410533,-0.101868,-0.0681763,0.94104,0.315247
1472092295426691,-0.101929,-0.0681763,0.94104,0.315247
1472092295449189,-0.101929,-0.0681763,0.94104,0.315247
1472092295463698,-0.101929,-0.0681763,0.94104,0.315247
1472092295486747,-0.10199,-0.0681763,0.94104,0.315247
1472092295509419,-0.10199,-0.0681763,0.94104,0.315247
1472092295523894,-0.102051,-0.0681763,0.94104,0.315247
1472092295546952,-0.102051,-0.0681763,0.940979,0.315247
1472092295569755,-0.102051,-0.0681763,0.940979,0.315247
1472092295583401,-0.102051,-0.0681763,0.94104,0.315247
1472092295606512,-0.102051,-0.0681763,0.940979,0.315247
1472092295629470,-0.102112,-0.0681763,0.940979,0.315247
1472092295643485,-0.102112,-0.0681763,0.940979,0.315247
1472092295666627,-0.102112,-0.0681763,0.940979,0.315247
1472092295689470,-0.102173,-0.0681763,0.940979,0.315247
1472092295703540,-0.102173,-0.0681763,0.940979,0.315247
1472092295727285,-0.102173,-0.0681763,0.940979,0.315247
1472092295748703,-0.102173,-0.0681763,0.940979,0.315247
1472092295770263,-0.102173,-0.0681763,0.940979,0.315247
1472092295786950,-0.102234,-0.0682373,0.940979,0.315186
1472092295809446,-0.102234,-0.0682373,0.940979,0.315186
1472092295830218,-0.102234,-0.0682373,0.940979,0.315186
1472092295846797,-0.102234,-0.0681763,0.940979,0.315186
1472092295869426,-0.102234,-0.0682373,0.940979,0.315186
1472092295890478,-0.102295,-0.0682373,0.940979,0.315186
1472092295906755,-0.102295,-0.0682373,0.940979,0.315186
1472092295929159,-0.102295,-0.0684204,0.940979,0.315186
1472092295950242,-0.102295,-0.0686646,0.940979,0.315125
1472092295966708,-0.102356,-0.0689087,0.940979,0.315002
1472092295989366,-0.102356,-0.0689087,0.940979,0.315002
1472092296011868,-0.102417,-0.0689087,0.940979,0.315002
1472092296027702,-0.102417,-0.0689087,0.940979,0.315002
1472092296049304,-0.102417,-0.0689697,0.940979,0.315002
1472092296070556,-0.102417,-0.0689697,0.940979,0.315002
1472092296087024,-0.102417,-0.0689697,0.940979,0.315002
1472092296109090,-0.102478,-0.0689697,0.940979,0.315002
1472092296130234,-0.102478,-0.0689697,0.940979,0.315002
1472092296146814,-0.102478,-0.0690308,0.940979,0.315002
1472092296169303,-0.102478,-0.0690308,0.940979,0.315002
1472092296192009,-0.102478,-0.0690308,0.940979,0.315002
1472092296207058,-0.102478,-0.0690308,0.940979,0.315002
1472092296229156,-0.102478,-0.0690308,0.940979,0.315002
1472092296251855,-0.102539,-0.0690918,0.940979,0.315002
1472092296266496,-0.102539,-0.0690918,0.940979,0.315002
1472092296289173,-0.102539,-0.0690918,0.940979,0.315002
1472092296311908,-0.102539,-0.0690918,0.940979,0.315002
1472092296325998,-0.102539,-0.0691528,0.940979,0.315002
1472092296349534,-0.102539,-0.0691528,0.940979,0.315002
1472092296371695,-0.1026,-0.0691528,0.940979,0.315002
1472092296386414,-0.1026,-0.0691528,0.940979,0.315002
1472092296409057,-0.1026,-0.0691528,0.940918,0.315002
1472092296431674,-0.102661,-0.0692139,0.940918,0.315002
1472092296446158,-0.102661,-0.0692139,0.940918,0.315002
1472092296469282,-0.102661,-0.0692139,0.940918,0.315002
1472092296492213,-0.102661,-0.0692139,0.940918,0.315002
1472092296506343,-0.102661,-0.0692139,0.940918,0.315002
1472092296529208,-0.102661,-0.0692749,0.940918,0.315002
1472092296551254,-0.102661,-0.0692749,0.940918,0.315002
1472092296566323,-0.102722,-0.0692749,0.940918,0.315002
1472092296589230,-0.102722,-0.0693359,0.940918,0.315002
1472092296611883,-0.102722,-0.0693359,0.940918,0.315002
1472092296626367,-0.102722,-0.0693359,0.940918,0.315002
1472092296650092,-0.102722,-0.0693359,0.940918,0.315002
1472092296671856,-0.102722,-0.0693359,0.940918,0.315002
1472092296693059,-0.102783,-0.0693359,0.940918,0.315002
1472092296709182,-0.102783,-0.0693359,0.940918,0.315002
1472092296731987,-0.102783,-0.0693359,0.940918,0.315002
1472092296753013,-0.102783,-0.069397,0.940918,0.315002
1472092296769146,-0.102844,-0.069397,0.940918,0.315002
1472092296791824,-0.102966,-0.0690918,0.940918,0.315125
1472092296813098,-0.103455,-0.0688477,0.940857,0.315125
1472092296829261,-0.104004,-0.0687256,0.940735,0.315308
1472092296852109,-0.104553,-0.0686035,0.940674,0.315308
1472092296872764,-0.104858,-0.0684814,0.940674,0.315308
1472092296889293,-0.105164,-0.0684814,0.940613,0.315369
1472092296912024,-0.105408,-0.0684204,0.940552,0.315369
1472092296932987,-0.10553,-0.0684204,0.940552,0.31543
1472092296949514,-0.105713,-0.0682373,0.940491,0.315491
1472092296972050,-0.105713,-0.0682373,0.940491,0.315491
1472092296992593,-0.105713,-0.0682373,0.940491,0.315491
1472092297008112,-0.105713,-0.0682373,0.940491,0.315491
1472092297031629,-0.105774,-0.0682373,0.940491,0.315491
1472092297052653,-0.105774,-0.0682373,0.940491,0.315491
1472092297069176,-0.105835,-0.0682373,0.940491,0.315491
1472092297092008,-0.105713,-0.0681763,0.940552,0.31543
1472092297113087,-0.105469,-0.0682373,0.940613,0.315369
1472092297129164,-0.105286,-0.0682983,0.940674,0.315247
1472092297151761,-0.105164,-0.0684204,0.940674,0.315125
1472092297174351,-0.10498,-0.0684814,0.940674,0.315125
1472092297189338,-0.104858,-0.0684204,0.940735,0.315125
1472092297211409,-0.104614,-0.0684814,0.940735,0.315063
1472092297234205,-0.104431,-0.0685425,0.940796,0.315002
1472092297249365,-0.104492,-0.0685425,0.940796,0.315002
1472092297271966,-0.104492,-0.0685425,0.940796,0.315002
1472092297294554,-0.104492,-0.0685425,0.940796,0.315002
1472092297308691,-0.104492,-0.0685425,0.940796,0.315002
1472092297331904,-0.104553,-0.0685425,0.940796,0.315002
1472092297353988,-0.104553,-0.0685425,0.940796,0.315002
1472092297368688,-0.104553,-0.0685425,0.940796,0.315002
1472092297391795,-0.104553,-0.0685425,0.940796,0.315002
1472092297414306,-0.104553,-0.0685425,0.940796,0.315002
1472092297428550,-0.104614,-0.0685425,0.940796,0.315002
1472092297451751,-0.104614,-0.0685425,0.940796,0.315002
1472092297474340,-0.104614,-0.0685425,0.940796,0.315002
1472092297488680,-0.104553,-0.0683594,0.940796,0.315063
1472092297511852,-0.104553,-0.0682983,0.940796,0.315063
1472092297534541,-0.104553,-0.0682983,0.940796,0.315063
1472092297549087,-0.104614,-0.0682983,0.940796,0.315063
1472092297571791,-0.104614,-0.0682983,0.940796,0.315063
1472092297594695,-0.104614,-0.0682983,0.940796,0.315063
1472092297607661,-0.104614,-0.0682983,0.940796,0.315063
1472092297631827,-0.104614,-0.0682983,0.940796,0.315063
1472092297654429,-0.104614,-0.0682983,0.940796,0.315063
1472092297675629,-0.104675,-0.0682373,0.940796,0.315063
1472092297691817,-0.104675,-0.0682373,0.940796,0.315063
1472092297714516,-0.104675,-0.0682373,0.940796,0.315063
1472092297735621,-0.104675,-0.0682373,0.940796,0.315002
1472092297751689,-0.104675,-0.0682373,0.940796,0.315002
1472092297774509,-0.104736,-0.0682373,0.940796,0.315002
1472092297795276,-0.104736,-0.0682373,0.940796,0.315002
1472092297812239,-0.104736,-0.0682373,0.940796,0.315002
1472092297834307,-0.104736,-0.0682373,0.940796,0.315002
1472092297855512,-0.104736,-0.0681763,0.940796,0.315002
1472092297871643,-0.104736,-0.0681763,0.940796,0.315002
1472092297900174,-0.104797,-0.0681763,0.940796,0.315002
1472092297915449,-0.104797,-0.0681763,0.940796,0.315002
1472092297932069,-0.104797,-0.0681763,0.940796,0.315002
1472092297954449,-0.104858,-0.0681763,0.940796,0.315002
1472092297975674,-0.104858,-0.0681763,0.940796,0.315002
1472092297991696,-0.104858,-0.0681763,0.940796,0.315002
1472092298014221,-0.104858,-0.0681763,0.940796,0.315002
1472092298035245,-0.104919,-0.0681763,0.940796,0.315002
1472092298051776,-0.104919,-0.0681763,0.940796,0.315002
1472092298074258,-0.104919,-0.0681763,0.940796,0.315002
1472092298097428,-0.104919,-0.0681763,0.940796,0.315002
1472092298112041,-0.10498,-0.0681763,0.940796,0.315002
1472092298134315,-0.105164,-0.0679321,0.940674,0.315186
1472092298156381,-0.105408,-0.0679321,0.940613,0.315308
1472092298171992,-0.105774,-0.0680542,0.940613,0.315186
1472092298194218,-0.106018,-0.0682983,0.940613,0.315002
1472092298216962,-0.106018,-0.0682983,0.940613,0.315002
1472092298231168,-0.106018,-0.0679932,0.940674,0.315002
1472092298254165,-0.106018,-0.0679932,0.940674,0.315002
1472092298276719,-0.106018,-0.0679321,0.940674,0.315002
1472092298291234,-0.10614,-0.0679321,0.940735,0.314758
1472092298314350,-0.106079,-0.0681763,0.940796,0.314575
1472092298336882,-0.106079,-0.0682983,0.940857,0.314453
1472092298351398,-0.106079,-0.0682983,0.940796,0.314453
1472092298374557,-0.10614,-0.0682983,0.940796,0.314453
1472092298396600,-0.10614,-0.0682983,0.940796,0.314453
1472092298410620,-0.106201,-0.0682983,0.940796,0.314453
1472092298434159,-0.106201,-0.0682983,0.940796,0.314392
1472092298456707,-0.106201,-0.0682983,0.940796,0.314392
1472092298471247,-0.106201,-0.0684814,0.940796,0.314392
1472092298494282,-0.106262,-0.0686646,0.940796,0.314392
1472092298516910,-0.106323,-0.0686646,0.940796,0.314392
1472092298531094,-0.106323,-0.0686646,0.940796,0.314331
1472092298554623,-0.106323,-0.0686646,0.940796,0.314331
1472092298577181,-0.106384,-0.0686646,0.940796,0.314331
1472092298597850,-0.106384,-0.0686646,0.940796,0.314331
1472092298614764,-0.106384,-0.0686646,0.940796,0.314331
1472092298636917,-0.106384,-0.0689087,0.940796,0.31427
1472092298658009,-0.106384,-0.0689087,0.940796,0.31427
1472092298673984,-0.106445,-0.0689087,0.940796,0.31427
1472092298697189,-0.106445,-0.0689087,0.940796,0.31427
1472092298717714,-0.106445,-0.0689087,0.940796,0.31427
1472092298734331,-0.106384,-0.0691528,0.940796,0.314209
1472092298757033,-0.106384,-0.0691528,0.940796,0.314209
1472092298777834,-0.106445,-0.0691528,0.940796,0.314209
1472092298794341,-0.106445,-0.0691528,0.940796,0.314209
1472092298816643,-0.106445,-0.0691528,0.940796,0.314209
1472092298839259,-0.106323,-0.069397,0.940796,0.314209
1472092298854438,-0.106323,-0.069397,0.940796,0.314209
1472092298876577,-0.10614,-0.0695801,0.940796,0.314148
1472092298897669,-0.10614,-0.0695801,0.940796,0.314148
1472092298914212,-0.106018,-0.069458,0.940918,0.313965
1472092298937233,-0.106079,-0.069458,0.940918,0.313965
1472092298957752,-0.106079,-0.0696411,0.940918,0.313904
1472092298974326,-0.106079,-0.0697021,0.940918,0.313904
1472092298996845,-0.10614,-0.0696411,0.940918,0.313904
1472092299019397,-0.10614,-0.0696411,0.940918,0.313904
1472092299034420,-0.10614,-0.0697632,0.940857,0.313904
1472092299064459,-0.106079,-0.0699463,0.940857,0.313904
1472092299079481,-0.106018,-0.0700073,0.940857,0.313904
1472092299094518,-0.105896,-0.0701294,0.940857,0.313904
1472092299116551,-0.105896,-0.0701294,0.940857,0.313904
1472092299139086,-0.105896,-0.0703125,0.940857,0.313843
1472092299154110,-0.105896,-0.0706177,0.940918,0.313782
1472092299176617,-0.105957,-0.0706177,0.940918,0.313782
1472092299199602,-0.105835,-0.0707397,0.940918,0.313782
1472092299213117,-0.105835,-0.0706787,0.940918,0.313782
1472092299236667,-0.105835,-0.0706787,0.940918,0.313782
1472092299259198,-0.105835,-0.0706787,0.940918,0.313782
1472092299273720,-0.105835,-0.0706787,0.940918,0.313782
1472092299296611,-0.105896,-0.0706787,0.940918,0.313721
1472092299319215,-0.105896,-0.0706787,0.940918,0.313721
1472092299333737,-0.105896,-0.0706787,0.940918,0.313721
1472092299356799,-0.105896,-0.0706787,0.940918,0.313721
1472092299379405,-0.105896,-0.0706787,0.940918,0.313721
1472092299393866,-0.105957,-0.0706787,0.940918,0.313721
1472092299417051,-0.105957,-0.0706787,0.940918,0.313721
1472092299439631,-0.105957,-0.0706787,0.940918,0.313721
1472092299453636,-0.105957,-0.0706787,0.940918,0.313721
1472092299476781,-0.105957,-0.0706787,0.940918,0.313721
1472092299499556,-0.105957,-0.0706787,0.940918,0.313721
1472092299520669,-0.105957,-0.0706787,0.940918,0.313721
1472092299536926,-0.105957,-0.0706177,0.940918,0.313721
1472092299559527,-0.105957,-0.0706177,0.940918,0.313721
1472092299580752,-0.105957,-0.0706177,0.940918,0.313721
1472092299596673,-0.105957,-0.0706177,0.940918,0.313721
1472092299619480,-0.105957,-0.0706177,0.940918,0.313721
1472092299640646,-0.105957,-0.0706177,0.940918,0.313721
1472092299656714,-0.105957,-0.0706177,0.940918,0.313721
1472092299679307,-0.105957,-0.0706177,0.940918,0.313721
1472092299700500,-0.105957,-0.0706177,0.940918,0.313721
1472092299716663,-0.105957,-0.0706177,0.940918,0.313721
1472092299739324,-0.106018,-0.0706177,0.940918,0.313721
1472092299760355,-0.106018,-0.0706177,0.940918,0.313721
1472092299776617,-0.106018,-0.0706177,0.940918,0.313721
1472092299799283,-0.106018,-0.0706177,0.940918,0.313721
1472092299820518,-0.105957,-0.0705566,0.940918,0.313721
1472092299836771,-0.105957,-0.0705566,0.940918,0.313721
1472092299859271,-0.106018,-0.0706177,0.940918,0.313721
1472092299880543,-0.106018,-0.0706177,0.940918,0.313721
1472092299897096,-0.105957,-0.0706177,0.940918,0.313721
1472092299919702,-0.105957,-0.0706177,0.940918,0.313721
1472092299940261,-0.105652,-0.0706177,0.940918,0.313782
1472092299956959,-0.105652,-0.0705566,0.940918,0.313782
1472092299979493,-0.105774,-0.0706787,0.940918,0.31366
1472092300002028,-0.105774,-0.0706787,0.940979,0.31366
1472092300015553,-0.105774,-0.0706787,0.940979,0.31366
1472092300039092,-0.105774,-0.0704346,0.940979,0.31366
1472092300061629,-0.105652,-0.0701294,0.940979,0.313721
1472092300076147,-0.105652,-0.0701294,0.940979,0.31366
1472092300099278,-0.105896,-0.0703735,0.94104,0.313416
1472092300121809,-0.105957,-0.0706787,0.94104,0.313293
1472092300136329,-0.105957,-0.0707397,0.94104,0.313293
1472092300159362,-0.105835,-0.0703125,0.94104,0.313354
1472092300181893,-0.105835,-0.0703125,0.94104,0.313354
1472092300196133,-0.105774,-0.0703125,0.94104,0.313354
1472092300218664,-0.105774,-0.0703125,0.94104,0.313354
1472092300241694,-0.105835,-0.0703125,0.94104,0.313354
1472092300256206,-0.105835,-0.0703125,0.94104,0.313354
1472092300279265,-0.105835,-0.0703125,0.94104,0.313354
1472092300301638,-0.105835,-0.0703125,0.94104,0.313354
1472092300323317,-0.105835,-0.0703125,0.94104,0.313354
1472092300339403,-0.105835,-0.0703125,0.94104,0.313354
1472092300361986,-0.105835,-0.0703125,0.94104,0.313354
1472092300376110,-0.105835,-0.0703125,0.94104,0.313354
1472092300399245,-0.105835,-0.0703125,0.94104,0.313354
1472092300421792,-0.105835,-0.0702515,0.94104,0.313354
1472092300436417,-0.105835,-0.0702515,0.94104,0.313354
1472092300459469,-0.105835,-0.0702515,0.94104,0.313354
1472092300482042,-0.105835,-0.0702515,0.94104,0.313354
1472092300502689,-0.105835,-0.0702515,0.94104,0.313354
1472092300526873,-0.105835,-0.0701904,0.94104,0.313354
1472092300541942,-0.105835,-0.0701904,0.941101,0.313354
1472092300563172,-0.105774,-0.0701904,0.941101,0.313354
1472092300579835,-0.105774,-0.0701904,0.941101,0.313354
1472092300601666,-0.105774,-0.0701904,0.941101,0.313354
