timestamp,x,y,z,w
1470330784371565,-0.0523071,0.0122681,0.57373,0.8172
1470330784387579,-0.0545044,0.0114136,0.57196,0.818359
1470330784409097,-0.0570068,0.0105591,0.570068,0.819519
1470330784432619,-0.0598755,0.00976563,0.568237,0.820618
1470330784447632,-0.0628662,0.00927734,0.566467,0.821594
1470330784469152,-0.0656128,0.00933838,0.56488,0.822449
1470330784492672,-0.0679321,0.00970459,0.563538,0.823181
1470330784522702,-0.0698242,0.0098877,0.562317,0.823853
1470330784531708,-0.0717773,0.0100708,0.561218,0.824463
1470330784539214,-0.0737915,0.0102539,0.560059,0.825073
1470330784559734,-0.0760498,0.010498,0.558899,0.825623
1470330784575747,-0.0780029,0.0108643,0.557983,0.82605
1470330784604774,-0.0792847,0.0114746,0.55719,0.826416
1470330784648814,-0.0797729,0.0125122,0.556763,0.826721
1470330784659322,-0.0795898,0.0137939,0.55658,0.826843
1470330784661324,-0.0794067,0.0148926,0.556274,0.827026
1470330784679841,-0.0797119,0.015686,0.555847,0.827271
1470330784693853,-0.0803223,0.0160522,0.55542,0.827454
1470330784716373,-0.0808105,0.0161133,0.554993,0.827698
1470330784738894,-0.0811157,0.0163574,0.554626,0.827881
1470330784753907,-0.0814209,0.0167847,0.554382,0.828064
1470330784776427,-0.0819702,0.0170898,0.554016,0.828247
1470330784798947,-0.0827637,0.0170898,0.553589,0.82843
1470330784813962,-0.0838013,0.0170898,0.553223,0.828613
1470330784839484,-0.0845947,0.0170898,0.552979,0.828674
1470330784859001,-0.0847778,0.0172119,0.552734,0.828796
1470330784874014,-0.0845947,0.0176392,0.552551,0.828979
1470330784896537,-0.0845337,0.0177002,0.552551,0.828979
1470330784919056,-0.0847168,0.0176392,0.552612,0.828857
1470330784934070,-0.085022,0.0172119,0.552856,0.828674
1470330784956589,-0.085144,0.0169067,0.553101,0.828552
1470330784979109,-0.085083,0.0167236,0.553284,0.82843
1470330784994123,-0.0848999,0.0162964,0.553406,0.828369
1470330785016643,-0.085022,0.0158081,0.553467,0.828308
1470330785039163,-0.0852661,0.0151978,0.553589,0.828247
1470330785055678,-0.0856934,0.0145264,0.55365,0.828125
1470330785076697,-0.0859375,0.0141602,0.553711,0.828064
1470330785099218,-0.0859375,0.0141602,0.553711,0.828064
1470330785115233,-0.0859375,0.0141602,0.553711,0.828064
1470330785136250,-0.0859375,0.0141602,0.553711,0.828064
1470330785158771,-0.0859375,0.0141602,0.553711,0.828064
1470330785175286,-0.0859375,0.0141602,0.553711,0.828064
1470330785196304,-0.0859375,0.0141602,0.553711,0.828064
1470330785218824,-0.0859375,0.0142212,0.553711,0.828064
1470330785235340,-0.0859375,0.0142212,0.553711,0.828064
1470330785256359,-0.0859375,0.0142212,0.553711,0.828064
1470330785278879,-0.0861206,0.0143433,0.553589,0.828186
1470330785295394,-0.0861816,0.0147095,0.553406,0.828247
1470330785316412,-0.0860596,0.0151978,0.553223,0.828369
1470330785338933,-0.0861206,0.015625,0.553162,0.82843
1470330785355448,-0.0862427,0.0158691,0.553101,0.82843
1470330785376467,-0.0863647,0.0160522,0.553162,0.828369
1470330785398987,-0.0864868,0.0162354,0.553223,0.828308
1470330785415501,-0.0866699,0.0164185,0.553345,0.828247
1470330785436520,-0.0869751,0.0164795,0.553406,0.828125
1470330785459040,-0.0872803,0.0165405,0.553467,0.828064
1470330785481560,-0.0873413,0.0165405,0.553467,0.828064
1470330785496575,-0.0875244,0.0167236,0.553467,0.828064
1470330785519095,-0.0875244,0.0167847,0.553467,0.828064
1470330785536610,-0.0877075,0.0169067,0.553467,0.828064
1470330785556627,-0.0877075,0.0169067,0.553467,0.828064
1470330785579148,-0.0877075,0.0169067,0.553467,0.828064
1470330785596665,-0.0877075,0.0169067,0.553467,0.828003
1470330785616682,-0.0877075,0.0169678,0.553467,0.828003
1470330785640204,-0.0877686,0.0169678,0.553467,0.828003
1470330785656988,-0.0877686,0.0169678,0.553467,0.828003
1470330785679509,-0.0877686,0.0170288,0.553467,0.828003
1470330785700528,-0.0877686,0.0170288,0.553467,0.828003
1470330785723050,-0.0880127,0.0170288,0.553345,0.828064
1470330785739565,-0.0881958,0.0169678,0.553223,0.828125
1470330785760583,-0.0881958,0.0169678,0.553223,0.828125
1470330785776597,-0.0881958,0.0170288,0.553223,0.828125
1470330785799617,-0.0881958,0.0170288,0.553223,0.828125
1470330785820636,-0.0881958,0.0170898,0.553223,0.828125
1470330785837151,-0.0882568,0.0170898,0.553223,0.828125
1470330785859172,-0.0882568,0.0170898,0.553223,0.828125
1470330785880714,-0.0882568,0.0170898,0.553223,0.828125
1470330785904212,-0.0882568,0.0170898,0.553223,0.828125
1470330785919275,-0.0882568,0.0171509,0.553223,0.828125
1470330785942248,-0.0882568,0.0171509,0.553223,0.828125
1470330785962263,-0.0883179,0.0171509,0.553223,0.828125
1470330785978778,-0.0883179,0.0171509,0.553223,0.828125
1470330786001298,-0.0883789,0.0171509,0.553223,0.828125
1470330786022317,-0.0883789,0.0171509,0.553223,0.828125
1470330786038331,-0.0883789,0.0171509,0.553223,0.828125
1470330786060851,-0.0883789,0.0172119,0.553223,0.828125
1470330786082371,-0.0883789,0.0172119,0.553223,0.828125
1470330786105892,-0.0884399,0.0172119,0.553223,0.828064
1470330786120907,-0.0884399,0.0172729,0.553223,0.828064
1470330786135418,-0.088623,0.0172119,0.553223,0.828064
1470330786158439,-0.0886841,0.0172119,0.553223,0.828064
1470330786180977,-0.088623,0.0172729,0.553223,0.828064
1470330786195488,-0.0886841,0.0172729,0.553223,0.828064
1470330786218493,-0.0886841,0.0172729,0.553223,0.828064
1470330786241013,-0.0888672,0.0170288,0.553284,0.828003
1470330786262033,-0.0889282,0.0170288,0.553284,0.828003
1470330786278547,-0.0889282,0.0170288,0.553284,0.828003
1470330786301068,-0.0889893,0.0170898,0.553284,0.828003
1470330786315607,-0.0889893,0.0170898,0.553284,0.828003
1470330786338600,-0.0889893,0.0171509,0.553284,0.828003
1470330786361127,-0.0889893,0.0171509,0.553284,0.828003
1470330786375634,-0.0889893,0.0171509,0.553284,0.828003
1470330786398655,-0.0889893,0.0172119,0.553284,0.828003
1470330786421176,-0.0889893,0.0172119,0.553284,0.828003
1470330786442196,-0.0893555,0.0172119,0.553284,0.827942
1470330786458723,-0.0896606,0.0171509,0.553284,0.827942
1470330786481231,-0.0896606,0.0171509,0.553284,0.827942
1470330786502248,-0.0895386,0.017334,0.553223,0.828003
1470330786519263,-0.0895386,0.017334,0.553223,0.828003
1470330786541282,-0.0895386,0.017395,0.553223,0.828003
1470330786562303,-0.0897217,0.0172729,0.553101,0.828003
1470330786578339,-0.0897827,0.0172729,0.553101,0.828003
1470330786600839,-0.0897827,0.0172729,0.553101,0.828003
1470330786622355,-0.0897827,0.017334,0.553101,0.828003
1470330786638371,-0.0897827,0.017334,0.553101,0.828003
1470330786660894,-0.0897827,0.017395,0.553101,0.828003
1470330786681942,-0.0897827,0.017395,0.553101,0.828003
1470330786698425,-0.0897827,0.0174561,0.553162,0.828003
1470330786720945,-0.0897827,0.0174561,0.553162,0.828003
1470330786741964,-0.0897827,0.0175171,0.553162,0.828003
1470330786758482,-0.0898438,0.0175171,0.553162,0.828003
1470330786780998,-0.0899048,0.0174561,0.553223,0.827942
1470330786802020,-0.0900879,0.017395,0.553345,0.827881
1470330786818559,-0.090332,0.0172119,0.553345,0.82782
1470330786841052,-0.0906372,0.0170898,0.553345,0.827759
1470330786862126,-0.0906372,0.0170898,0.553345,0.827759
1470330786878610,-0.0906982,0.0170898,0.553345,0.827759
1470330786901106,-0.0906372,0.017334,0.553223,0.827881
1470330786923626,-0.0904541,0.0176392,0.55304,0.828003
1470330786938640,-0.090332,0.0179443,0.552856,0.828125
1470330786961160,-0.090332,0.0179443,0.552856,0.828125
1470330786983680,-0.090332,0.0180054,0.552856,0.828125
1470330786998744,-0.0903931,0.0180054,0.552979,0.828064
1470330787021224,-0.0905151,0.0178833,0.553101,0.827942
1470330787043742,-0.0907593,0.0178223,0.553223,0.82782
1470330787057747,-0.0910645,0.0176392,0.553284,0.827759
1470330787081268,-0.0910645,0.0176392,0.553284,0.827759
1470330787103787,-0.0910645,0.0176392,0.553284,0.827759
1470330787117800,-0.0910645,0.0176392,0.553284,0.827759
1470330787141322,-0.0910645,0.0176392,0.553284,0.827759
1470330787163342,-0.0910645,0.0177002,0.553345,0.827759
1470330787177855,-0.0910645,0.0177002,0.553345,0.827759
1470330787200875,-0.0912476,0.0176392,0.553406,0.827637
1470330787223398,-0.0914917,0.017395,0.553467,0.827576
1470330787237911,-0.0915527,0.0174561,0.553467,0.827576
1470330787260929,-0.0915527,0.0174561,0.553467,0.827576
1470330787283449,-0.0915527,0.0174561,0.553467,0.827576
1470330787298008,-0.0915527,0.0174561,0.553467,0.827576
1470330787320982,-0.0915527,0.0175171,0.553467,0.827576
1470330787343544,-0.0915527,0.0175171,0.553467,0.827576
1470330787358016,-0.0915527,0.0175781,0.553467,0.827576
1470330787381037,-0.0915527,0.0175781,0.553467,0.827576
1470330787403560,-0.0914917,0.0175781,0.553467,0.827576
1470330787425076,-0.0914917,0.0175781,0.553467,0.827576
1470330787441090,-0.0914917,0.0176392,0.553467,0.827576
1470330787463611,-0.0914917,0.0176392,0.553467,0.827576
1470330787484630,-0.0914917,0.0176392,0.553467,0.827576
1470330787501145,-0.0915527,0.0176392,0.553467,0.827576
1470330787523665,-0.0915527,0.0176392,0.553467,0.827576
1470330787544684,-0.0915527,0.0176392,0.553467,0.827576
1470330787561242,-0.0915527,0.0177002,0.553467,0.827576
1470330787583718,-0.0915527,0.0177002,0.553467,0.827576
1470330787604768,-0.0915527,0.0177612,0.553467,0.827576
1470330787621252,-0.0914917,0.0177612,0.553467,0.827576
1470330787643772,-0.0914917,0.0177612,0.553467,0.827576
1470330787666312,-0.0914917,0.0177612,0.553467,0.827576
1470330787681306,-0.0915527,0.0178223,0.553467,0.827576
1470330787703330,-0.0915527,0.0178223,0.553467,0.827576
1470330787724870,-0.0915527,0.0178223,0.553467,0.827576
1470330787740885,-0.0915527,0.0178223,0.553467,0.827576
1470330787763691,-0.0915527,0.0178833,0.553467,0.827576
1470330787784668,-0.0915527,0.0178833,0.553467,0.827576
1470330787802181,-0.0916138,0.0177612,0.553467,0.827576
1470330787823721,-0.0916748,0.0177612,0.553467,0.827576
1470330787846221,-0.0916748,0.0178223,0.553467,0.827576
1470330787861240,-0.0916748,0.0178223,0.553467,0.827576
1470330787883753,-0.0916748,0.0178223,0.553467,0.827576
1470330787906273,-0.0916748,0.0178833,0.553467,0.827576
1470330787921287,-0.0917969,0.0178223,0.553528,0.827515
1470330787944308,-0.0917358,0.0178223,0.553528,0.827515
1470330787966328,-0.0917358,0.0178223,0.553528,0.827515
1470330787980341,-0.0917358,0.0178833,0.553528,0.827515
1470330788003361,-0.0917358,0.0178833,0.553528,0.827515
1470330788025882,-0.0917358,0.0178833,0.553528,0.827515
1470330788040396,-0.0917358,0.0178833,0.553528,0.827515
1470330788063415,-0.0917358,0.0178833,0.553528,0.827515
1470330788085954,-0.0917358,0.0179443,0.553528,0.827515
1470330788100448,-0.0917358,0.0179443,0.553528,0.827515
1470330788123470,-0.0917969,0.0179443,0.553528,0.827515
1470330788145989,-0.0917969,0.0179443,0.553528,0.827515
1470330788160504,-0.0917969,0.0179443,0.553528,0.827515
1470330788183523,-0.0917969,0.0180054,0.553528,0.827515
1470330788206051,-0.0917969,0.0180054,0.553528,0.827515
1470330788221071,-0.0917969,0.0180054,0.553528,0.827515
1470330788243604,-0.0917969,0.0180054,0.553528,0.827515
1470330788266099,-0.0918579,0.0180664,0.553528,0.827515
1470330788280610,-0.0918579,0.0180664,0.553528,0.827515
1470330788303631,-0.0918579,0.0180664,0.553528,0.827515
1470330788326152,-0.0918579,0.0180664,0.553528,0.827515
1470330788347225,-0.0919189,0.0180664,0.553528,0.827515
1470330788363736,-0.0919189,0.0181274,0.553528,0.827515
1470330788386228,-0.0919189,0.0181274,0.553528,0.827515
1470330788407251,-0.0919189,0.0181274,0.553528,0.827515
1470330788423761,-0.0919189,0.0181885,0.553528,0.827515
1470330788446282,-0.0919189,0.0181885,0.553528,0.827515
1470330788467302,-0.0919189,0.0181885,0.553528,0.827454
1470330788483815,-0.0919189,0.0181885,0.553528,0.827454
1470330788505836,-0.0919189,0.0181885,0.553528,0.827454
1470330788527375,-0.0919189,0.0181885,0.553528,0.827454
1470330788543413,-0.0919189,0.0182495,0.553528,0.827454
1470330788565890,-0.0919189,0.0182495,0.553528,0.827454
1470330788587408,-0.0919189,0.0182495,0.553528,0.827454
1470330788603424,-0.0919189,0.0182495,0.553528,0.827454
1470330788626444,-0.0919189,0.0183105,0.553528,0.827454
1470330788647463,-0.0919189,0.0183105,0.553528,0.827454
1470330788663478,-0.09198,0.0183105,0.553528,0.827454
1470330788685997,-0.09198,0.0183105,0.553528,0.827454
1470330788707552,-0.09198,0.0183105,0.553528,0.827454
1470330788723530,-0.09198,0.0183716,0.553528,0.827454
1470330788746053,-0.09198,0.0183716,0.553528,0.827454
1470330788767116,-0.092041,0.0183716,0.553528,0.827454
1470330788783586,-0.092041,0.0183716,0.553528,0.827454
1470330788806109,-0.092041,0.0183716,0.553528,0.827454
1470330788828626,-0.092041,0.0184326,0.553528,0.827454
1470330788843643,-0.092041,0.0184326,0.553528,0.827454
1470330788866160,-0.092041,0.0184937,0.553528,0.827454
1470330788888706,-0.092041,0.0184937,0.553528,0.827454
1470330788903693,-0.092041,0.0184937,0.553528,0.827454
1470330788926212,-0.092041,0.0184937,0.553528,0.827454
1470330788948733,-0.0921021,0.0184937,0.553528,0.827454
1470330788962768,-0.0921021,0.0184937,0.553528,0.827454
1470330788986266,-0.0921021,0.0185547,0.553528,0.827454
1470330789008787,-0.0921021,0.0185547,0.553528,0.827454
1470330789023301,-0.0921631,0.0185547,0.553528,0.827454
1470330789046337,-0.0921631,0.0185547,0.553528,0.827454
1470330789068842,-0.0921631,0.0186157,0.553528,0.827454
1470330789082853,-0.0921631,0.0186157,0.553528,0.827454
1470330789106374,-0.0921631,0.0186157,0.553528,0.827454
1470330789128396,-0.0921631,0.0186157,0.553528,0.827454
1470330789142937,-0.0922241,0.0186768,0.553528,0.827454
1470330789165932,-0.0922241,0.0186768,0.553528,0.827454
1470330789188462,-0.0922241,0.0186768,0.553528,0.827454
1470330789202961,-0.0922852,0.0186768,0.553528,0.827454
1470330789225981,-0.0922852,0.0187378,0.553528,0.827454
1470330789248502,-0.0922852,0.0187378,0.553528,0.827454
1470330789263015,-0.0922852,0.0187378,0.553528,0.827393
1470330789286036,-0.0922852,0.0187378,0.553528,0.827393
1470330789308558,-0.0922852,0.0187378,0.553528,0.827393
1470330789329575,-0.0923462,0.0187988,0.553528,0.827393
1470330789346090,-0.0923462,0.0187988,0.553528,0.827393
1470330789368610,-0.0923462,0.0187988,0.553528,0.827393
1470330789389665,-0.0923462,0.0187988,0.553528,0.827393
1470330789406148,-0.0923462,0.0188599,0.553528,0.827393
1470330789428663,-0.0924072,0.0187988,0.553528,0.827393
1470330789449715,-0.0924072,0.0188599,0.553528,0.827393
1470330789466197,-0.0924072,0.0188599,0.553528,0.827393
1470330789488721,-0.0924072,0.0188599,0.553528,0.827393
1470330789509736,-0.0924072,0.0188599,0.553528,0.827393
1470330789526251,-0.0924072,0.0189209,0.553528,0.827393
1470330789548772,-0.0924072,0.0189209,0.553528,0.827393
1470330789569822,-0.0924683,0.0189209,0.553528,0.827393
1470330789586324,-0.0924683,0.0189209,0.553528,0.827393
1470330789608325,-0.0924683,0.0189209,0.553528,0.827393
1470330789629877,-0.0924683,0.0189209,0.553528,0.827393
1470330789646360,-0.0924683,0.0189209,0.553528,0.827393
1470330789668422,-0.0924683,0.0189819,0.553589,0.827393
1470330789689898,-0.0924683,0.0189819,0.553589,0.827393
1470330789706413,-0.0925293,0.0189819,0.553528,0.827393
1470330789728933,-0.0924683,0.0189819,0.553528,0.827393
1470330789750954,-0.0924683,0.0189819,0.553589,0.827393
1470330789765969,-0.0924683,0.0189819,0.553589,0.827393
1470330789788496,-0.0924683,0.0189819,0.553589,0.827393
1470330789811009,-0.0924683,0.019043,0.553589,0.827393
1470330789826050,-0.0924683,0.019043,0.553589,0.827393
1470330789848545,-0.0925293,0.019043,0.553589,0.827393
1470330789871075,-0.0925293,0.019043,0.553589,0.827393
1470330789885575,-0.0925293,0.019043,0.553589,0.827393
1470330789908598,-0.0925293,0.019043,0.553589,0.827393
1470330789931115,-0.0925903,0.019043,0.553589,0.827393
1470330789945629,-0.0925903,0.019104,0.553589,0.827393
1470330789968653,-0.0925903,0.019104,0.553589,0.827393
1470330789991169,-0.0927734,0.0189819,0.553589,0.827332
1470330790005730,-0.0927734,0.0189819,0.553589,0.827332
1470330790028714,-0.0928345,0.0189819,0.553589,0.827332
1470330790051223,-0.0928345,0.0189819,0.553589,0.827332
1470330790065235,-0.0928345,0.0189819,0.553589,0.827332
1470330790088758,-0.0928345,0.0189819,0.553589,0.827332
1470330790111289,-0.0928345,0.019043,0.553589,0.827332
1470330790125343,-0.0928955,0.019043,0.553589,0.827332
1470330790148811,-0.0928955,0.019043,0.553589,0.827332
1470330790171331,-0.0928955,0.019043,0.553589,0.827332
1470330790185344,-0.0928955,0.019104,0.553589,0.827332
1470330790208877,-0.0929565,0.019104,0.553589,0.827332
1470330790230887,-0.0929565,0.019104,0.553589,0.827332
1470330790252412,-0.0929565,0.019104,0.553589,0.827332
1470330790268919,-0.0929565,0.019104,0.553589,0.827332
1470330790291438,-0.0929565,0.019165,0.553589,0.827332
1470330790311984,-0.0930176,0.019165,0.553589,0.827332
1470330790328520,-0.0930176,0.019165,0.553589,0.827332
1470330790350993,-0.0930176,0.019165,0.553589,0.827332
1470330790372551,-0.0930176,0.019165,0.553589,0.827332
1470330790388526,-0.0930176,0.019165,0.553589,0.827332
1470330790411048,-0.0930176,0.019165,0.553589,0.827332
1470330790432085,-0.0930786,0.019165,0.553589,0.827332
1470330790448579,-0.0930786,0.019165,0.553589,0.827332
1470330790471100,-0.0930786,0.019165,0.553589,0.827332
1470330790492148,-0.0930786,0.0192261,0.553589,0.827332
1470330790508644,-0.0930786,0.0192261,0.553589,0.827332
1470330790531174,-0.0930786,0.0192261,0.553589,0.827332
1470330790552216,-0.0930786,0.0192261,0.553589,0.827332
1470330790568689,-0.0930786,0.0192871,0.553589,0.827332
1470330790591212,-0.0931396,0.0192871,0.553589,0.827332
1470330790612226,-0.0931396,0.0192871,0.553589,0.827332
1470330790629242,-0.0931396,0.0192871,0.553589,0.827332
1470330790651262,-0.0932007,0.0192871,0.553589,0.827332
1470330790673784,-0.0930176,0.0194702,0.553528,0.827332
1470330790688796,-0.0929565,0.0194702,0.553528,0.827332
1470330790710815,-0.0929565,0.0195313,0.553528,0.827332
1470330790733335,-0.0929565,0.0195313,0.553528,0.827332
1470330790748850,-0.0929565,0.0195313,0.553528,0.827332
1470330790771370,-0.0930176,0.0195313,0.553528,0.827332
1470330790793889,-0.0930176,0.0195313,0.553528,0.827332
1470330790808904,-0.0930176,0.0195313,0.553528,0.827332
1470330790830924,-0.0930176,0.0195313,0.553528,0.827332
1470330790853444,-0.0930786,0.0195313,0.553528,0.827332
1470330790867956,-0.0930176,0.0195313,0.553528,0.827332
1470330790898483,-0.0930176,0.0195923,0.553528,0.827332
1470330790913517,-0.0930786,0.0195923,0.553528,0.827332
1470330790928014,-0.0930786,0.0195923,0.553528,0.827332
1470330790951031,-0.0930786,0.0195923,0.553528,0.827332
1470330790973551,-0.0930786,0.0195923,0.553528,0.827332
1470330790996090,-0.0930786,0.0195923,0.553528,0.827332
1470330791011086,-0.0930786,0.0195923,0.553528,0.827332
1470330791033609,-0.0931396,0.0195923,0.553528,0.827332
1470330791048126,-0.0931396,0.0196533,0.553528,0.827332
1470330791071139,-0.0931396,0.0196533,0.553528,0.827332
1470330791093660,-0.0931396,0.0196533,0.553528,0.827332
1470330791107676,-0.0931396,0.0196533,0.553528,0.827332
1470330791115183,-0.0931396,0.0196533,0.553528,0.827332
1470330791136771,-0.0931396,0.0196533,0.553528,0.827332
1470330791159217,-0.0931396,0.0196533,0.553528,0.827332
1470330791175231,-0.0931396,0.0196533,0.553528,0.827332
1470330791196752,-0.0931396,0.0196533,0.553528,0.827332
1470330791219271,-0.0932007,0.0196533,0.553528,0.827332
1470330791235286,-0.0932007,0.0196533,0.553528,0.827332
1470330791256805,-0.0932007,0.0196533,0.553528,0.827332
1470330791279328,-0.0932007,0.0196533,0.553528,0.827332
1470330791295340,-0.0932617,0.0196533,0.553528,0.827332
1470330791316966,-0.0932617,0.0196533,0.553528,0.827332
1470330791338896,-0.0932617,0.0197144,0.553528,0.827332
1470330791355418,-0.0932617,0.0197144,0.553528,0.827332
1470330791376445,-0.0932617,0.0197144,0.553528,0.827332
1470330791398948,-0.0932617,0.0197144,0.553528,0.827332
1470330791415450,-0.0933228,0.0197144,0.553528,0.827332
1470330791436493,-0.0933228,0.0197144,0.553528,0.827332
1470330791459494,-0.0933228,0.0197144,0.553528,0.827332
1470330791475503,-0.0933228,0.0197144,0.553528,0.827332
1470330791496535,-0.0933228,0.0197144,0.553528,0.827332
1470330791519042,-0.0930786,0.0197754,0.553406,0.827393
1470330791537120,-0.0925293,0.0192261,0.553467,0.827454
1470330791556575,-0.0925293,0.0177002,0.553833,0.827209
1470330791579122,-0.0942993,0.0142212,0.55426,0.826843
1470330791601614,-0.0962524,0.00915527,0.554871,0.826233
1470330791616661,-0.1026,0.000244141,0.554993,0.825439
1470330791639185,-0.106995,-0.00787354,0.554993,0.82489
1470330791661732,-0.115295,-0.0180664,0.554626,0.823853
1470330791676783,-0.121094,-0.0247803,0.552795,0.824036
1470330791699257,-0.123718,-0.026123,0.549805,0.825623
1470330791721723,-0.127808,-0.0256958,0.545898,0.827637
1470330791736736,-0.132874,-0.0227661,0.540833,0.8302
1470330791759259,-0.137085,-0.0186768,0.534607,0.833679
1470330791781777,-0.141602,-0.0128784,0.527161,0.837708
1470330791796794,-0.145691,-0.00616455,0.5177,0.843018
1470330791819410,-0.149841,0.000854492,0.507385,0.848572
1470330791841868,-0.153809,0.00793457,0.496155,0.854431
1470330791856957,-0.156555,0.0159912,0.484436,0.860535
1470330791878916,-0.157959,0.0244141,0.471741,0.867065
1470330791901409,-0.158447,0.0321655,0.457642,0.874268
1470330791916399,-0.158508,0.0386963,0.442261,0.881897
1470330791938935,-0.158569,0.0431519,0.425537,0.889832
1470330791961438,-0.158264,0.0469971,0.407654,0.898071
1470330791976966,-0.157471,0.050354,0.389526,0.906006
1470330791999000,-0.157349,0.0524902,0.371643,0.913391
1470330792021547,-0.158142,0.0531616,0.354431,0.920044
1470330792036574,-0.16095,0.0509033,0.338074,0.925842
1470330792059041,-0.163696,0.0472412,0.321777,0.931335
1470330792081579,-0.164185,0.0435181,0.30603,0.936707
1470330792104092,-0.159241,0.0425415,0.291443,0.942261
1470330792119081,-0.1521,0.0423584,0.278687,0.947266
1470330792141600,-0.147644,0.0406494,0.268372,0.95105
1470330792158115,-0.1474,0.0374756,0.259949,0.953552
1470330792179150,-0.149536,0.032959,0.252991,0.955261
1470330792201654,-0.152771,0.0264893,0.246399,0.956665
1470330792216724,-0.155029,0.0200195,0.239319,0.958252
1470330792239270,-0.154602,0.0157471,0.232544,0.960022
1470330792261707,-0.153503,0.013916,0.227844,0.961426
1470330792278250,-0.153748,0.0136719,0.226257,0.961731
1470330792299240,-0.15509,0.013916,0.226624,0.961426
1470330792321761,-0.156799,0.0141602,0.227234,0.960999
1470330792337781,-0.156982,0.0148926,0.227783,0.960815
1470330792359295,-0.154785,0.0159912,0.227783,0.961182
1470330792382816,-0.152588,0.0169067,0.226868,0.961731
1470330792397830,-0.15155,0.0174561,0.226013,0.962097
1470330792418851,-0.151184,0.0180664,0.225525,0.962219
1470330792437462,-0.15094,0.019043,0.224609,0.962463
1470330792457884,-0.151245,0.0195923,0.223389,0.962708
1470330792478944,-0.152405,0.0194702,0.221924,0.96283
1470330792496972,-0.153748,0.019165,0.220459,0.963013
1470330792517937,-0.154785,0.019104,0.21875,0.963196
1470330792538986,-0.155701,0.0195923,0.217285,0.963379
1470330792557484,-0.156799,0.0200806,0.215881,0.963501
1470330792579591,-0.157898,0.0203857,0.214539,0.963623
1470330792599010,-0.158813,0.0206299,0.213623,0.963684
1470330792617082,-0.159119,0.020752,0.213013,0.963745
1470330792639574,-0.158875,0.0212402,0.212402,0.963928
1470330792659092,-0.158569,0.0217285,0.211792,0.964111
1470330792684589,-0.158691,0.0222168,0.21106,0.964233
1470330792699600,-0.15918,0.0222778,0.210144,0.964355
1470330792719163,-0.160217,0.0222778,0.209229,0.964355
1470330792737240,-0.161255,0.0224609,0.208496,0.964355
1470330792759655,-0.16217,0.0228271,0.207825,0.964294
1470330792779232,-0.163208,0.0231934,0.207214,0.964294
1470330792797188,-0.164246,0.0234985,0.206604,0.964233
1470330792819209,-0.165344,0.0238647,0.206116,0.964111
1470330792839225,-0.166321,0.0241699,0.205627,0.96405
1470330792857243,-0.167358,0.0244751,0.205017,0.963989
1470330792879831,-0.168213,0.0245972,0.204407,0.963989
1470330792899290,-0.169067,0.0248413,0.203796,0.963928
1470330792917315,-0.169983,0.0250244,0.203247,0.963928
1470330792939349,-0.170898,0.0252075,0.202759,0.963867
1470330792959361,-0.171753,0.0253906,0.202271,0.963806
1470330792977350,-0.172668,0.0255127,0.201721,0.963745
1470330792999371,-0.173523,0.0258179,0.201172,0.963684
1470330793018890,-0.174255,0.026062,0.200623,0.963684
1470330793036903,-0.174988,0.0264282,0.200073,0.963623
1470330793059424,-0.175598,0.0267334,0.199524,0.963623
1470330793078941,-0.176147,0.0270386,0.199097,0.963623
1470330793097465,-0.176758,0.0271606,0.198792,0.963562
1470330793119536,-0.177246,0.0272827,0.198486,0.963501
1470330793139033,-0.177734,0.0273438,0.19812,0.963501
1470330793157097,-0.178223,0.0274048,0.197815,0.963501
1470330793179565,-0.17865,0.0275269,0.197571,0.96344
1470330793200592,-0.179138,0.0276489,0.197449,0.963379
1470330793217066,-0.179688,0.027771,0.197327,0.963318
1470330793239586,-0.179993,0.027832,0.197144,0.963257
1470330793260606,-0.180237,0.0278931,0.197021,0.963257
1470330793277119,-0.180542,0.0280151,0.19696,0.963196
1470330793299640,-0.180786,0.0280762,0.196899,0.963196
1470330793320662,-0.180908,0.0282593,0.196899,0.963135
1470330793337277,-0.181091,0.0283203,0.19696,0.963074
1470330793359697,-0.181091,0.0283813,0.196838,0.963135
1470330793380727,-0.181458,0.0284424,0.196838,0.963074
1470330793397256,-0.182007,0.0283203,0.196899,0.962952
1470330793419247,-0.182495,0.0281372,0.19696,0.96283
1470330793440766,-0.182495,0.0281982,0.19696,0.96283
1470330793456781,-0.182495,0.0281372,0.19696,0.96283
1470330793479300,-0.182495,0.0281372,0.19696,0.96283
1470330793500820,-0.182495,0.0281372,0.19696,0.96283
1470330793516848,-0.182556,0.0280151,0.197021,0.96283
1470330793539384,-0.182556,0.0280151,0.197021,0.96283
1470330793561875,-0.182739,0.0279541,0.197021,0.962769
1470330793582393,-0.182739,0.0278931,0.197021,0.962769
1470330793599426,-0.182739,0.0279541,0.197021,0.962769
1470330793620927,-0.182739,0.0279541,0.197021,0.962769
1470330793642463,-0.182678,0.0279541,0.197021,0.962769
1470330793658461,-0.1828,0.0278931,0.197021,0.962769
1470330793680982,-0.1828,0.0278931,0.197021,0.962769
1470330793702514,-0.1828,0.0278931,0.197021,0.962769
1470330793718517,-0.1828,0.0278931,0.197021,0.962769
1470330793741037,-0.1828,0.0278931,0.197021,0.962769
1470330793762102,-0.1828,0.0278931,0.197083,0.962769
1470330793778600,-0.1828,0.0278931,0.197083,0.962769
1470330793801089,-0.182983,0.0278931,0.197021,0.962708
1470330793815625,-0.183105,0.027832,0.19696,0.962708
1470330793838623,-0.183105,0.027832,0.19696,0.962708
1470330793861149,-0.183105,0.027832,0.19696,0.962708
1470330793875657,-0.183105,0.027832,0.19696,0.962708
1470330793898679,-0.183105,0.027832,0.19696,0.962708
1470330793921202,-0.183044,0.027832,0.19696,0.962708
1470330793935710,-0.183044,0.027832,0.19696,0.962708
1470330793958752,-0.183044,0.0278931,0.19696,0.962708
1470330793981251,-0.183044,0.027832,0.19696,0.962708
1470330793995796,-0.183044,0.027832,0.19696,0.962708
1470330794018806,-0.183044,0.027832,0.19696,0.962769
1470330794047350,-0.183044,0.027832,0.19696,0.962769
1470330794062329,-0.183044,0.027832,0.19696,0.962769
1470330794078839,-0.183044,0.027832,0.19696,0.962769
1470330794101359,-0.183044,0.027832,0.19696,0.962769
1470330794122408,-0.182983,0.027832,0.19696,0.962769
1470330794138912,-0.183167,0.0279541,0.19696,0.962708
1470330794161415,-0.18335,0.0280151,0.19696,0.962646
1470330794182500,-0.183411,0.0279541,0.19696,0.962646
1470330794198446,-0.183533,0.0281372,0.196899,0.962646
1470330794220966,-0.183533,0.0281372,0.196899,0.962646
1470330794242485,-0.183533,0.0281372,0.196899,0.962646
1470330794258502,-0.183472,0.0281372,0.196899,0.962646
1470330794281056,-0.183472,0.0281372,0.196899,0.962646
1470330794302040,-0.183716,0.0281982,0.196838,0.962646
1470330794318555,-0.184021,0.0282593,0.196777,0.962585
1470330794341074,-0.184021,0.0283203,0.196777,0.962585
1470330794362095,-0.184021,0.0283203,0.196777,0.962585
1470330794378609,-0.184021,0.0283203,0.196777,0.962585
1470330794401630,-0.18396,0.0283203,0.196777,0.962585
1470330794422648,-0.18396,0.0283203,0.196777,0.962585
1470330794438662,-0.184021,0.0283203,0.196777,0.962585
1470330794461209,-0.184021,0.0283203,0.196777,0.962585
1470330794483732,-0.184021,0.0283813,0.196838,0.962585
1470330794498766,-0.184021,0.0283813,0.196838,0.962585
1470330794521266,-0.183838,0.0283203,0.196838,0.962585
1470330794543787,-0.183411,0.0284424,0.19696,0.962646
1470330794558799,-0.183228,0.0286255,0.197266,0.962646
1470330794581320,-0.184204,0.0285645,0.197449,0.962402
1470330794603839,-0.184998,0.0292969,0.197876,0.962158
1470330794617852,-0.184998,0.0299683,0.198547,0.961975
1470330794641373,-0.18457,0.0305176,0.198914,0.961975
1470330794663393,-0.184021,0.0309448,0.199097,0.962036
1470330794677908,-0.184021,0.0309448,0.199097,0.962036
1470330794700927,-0.18396,0.0310059,0.199097,0.962036
1470330794723490,-0.184265,0.0308228,0.198914,0.962036
1470330794737961,-0.184509,0.0306396,0.19873,0.961975
1470330794760985,-0.184387,0.0306396,0.198547,0.962097
1470330794783501,-0.184204,0.0306396,0.198364,0.962158
1470330794798032,-0.184204,0.0306396,0.198364,0.962158
1470330794821035,-0.184204,0.0306396,0.198425,0.962158
1470330794843560,-0.184204,0.0307007,0.198242,0.962158
1470330794866082,-0.184143,0.0307007,0.198242,0.962158
1470330794881089,-0.184143,0.0306396,0.198242,0.962158
1470330794903609,-0.184326,0.0305786,0.198303,0.962158
1470330794918125,-0.183899,0.0305176,0.198486,0.962158
1470330794941143,-0.184326,0.0294189,0.198975,0.962036
1470330794963663,-0.18689,0.0265503,0.199707,0.961487
1470330794985183,-0.190491,0.0236816,0.2005,0.960693
1470330795001199,-0.19281,0.0219116,0.201416,0.960083
1470330795023716,-0.192505,0.0213013,0.202148,0.959961
1470330795044777,-0.19043,0.0215454,0.202637,0.960266
1470330795061250,-0.187805,0.0221558,0.203125,0.960693
1470330795083771,-0.185791,0.022583,0.203796,0.960938
1470330795104790,-0.184509,0.0228882,0.20459,0.960999
1470330795121327,-0.183411,0.0232544,0.205139,0.96106
1470330795143824,-0.182678,0.0235596,0.205444,0.961121
1470330795164913,-0.181946,0.0240479,0.205627,0.961243
1470330795181358,-0.181396,0.0245361,0.205627,0.961304
1470330795203879,-0.180908,0.0248413,0.205627,0.961426
1470330795224930,-0.180359,0.0252075,0.205383,0.961548
1470330795241016,-0.179993,0.0255127,0.205139,0.96167
1470330795263432,-0.17981,0.0258179,0.204956,0.961731
1470330795284956,-0.179932,0.026001,0.204834,0.961731
1470330795300966,-0.179932,0.026001,0.204834,0.961731
1470330795331493,-0.180115,0.026123,0.20459,0.961731
1470330795345062,-0.18042,0.0263062,0.204407,0.961731
1470330795361020,-0.180786,0.0264282,0.204224,0.96167
1470330795383542,-0.181335,0.0266724,0.204163,0.961609
1470330795404590,-0.181763,0.0269165,0.204163,0.961487
1470330795421076,-0.181946,0.0273438,0.204163,0.961426
1470330795443594,-0.182068,0.027832,0.204102,0.961426
1470330795466114,-0.18219,0.0283203,0.204041,0.961426
1470330795488634,-0.182739,0.0287476,0.203979,0.961304
1470330795503648,-0.183472,0.0291138,0.203979,0.961121
1470330795526170,-0.184082,0.029541,0.204041,0.960999
1470330795541182,-0.184326,0.0302124,0.204102,0.960938
1470330795563702,-0.184021,0.0307617,0.204285,0.960938
1470330795586227,-0.183655,0.0313721,0.204407,0.960938
1470330795600734,-0.18396,0.0316162,0.204468,0.960876
1470330795623756,-0.184875,0.0316772,0.204407,0.960693
1470330795646280,-0.185852,0.0317383,0.204285,0.960571
1470330795660288,-0.186279,0.0316772,0.204163,0.96051
1470330795683812,-0.186279,0.0316772,0.204163,0.96051
1470330795706330,-0.186829,0.0314331,0.204041,0.960449
1470330795720342,-0.188049,0.0310059,0.203918,0.960205
1470330795743864,-0.189209,0.0307617,0.203857,0.960022
1470330795766383,-0.189636,0.0308228,0.203674,0.959961
1470330795780398,-0.189819,0.0310059,0.203369,0.959961
1470330795803469,-0.190186,0.0311279,0.203125,0.959961
1470330795826438,-0.190857,0.0310669,0.202942,0.9599
1470330795840532,-0.191772,0.0310669,0.202759,0.959717
1470330795863471,-0.192322,0.0311279,0.202515,0.959656
1470330795885992,-0.192505,0.0313721,0.202209,0.959717
1470330795900513,-0.192383,0.0317993,0.201843,0.959778
1470330795924025,-0.192322,0.0321045,0.201477,0.959839
1470330795946047,-0.193054,0.0321045,0.201355,0.959717
1470330795967679,-0.193054,0.0320435,0.201355,0.959717
1470330795983626,-0.192566,0.0321655,0.201233,0.959839
1470330796006099,-0.192322,0.0325317,0.20105,0.959961
1470330796027196,-0.192444,0.0325928,0.200806,0.959961
1470330796043633,-0.192566,0.0328369,0.200623,0.959961
1470330796066154,-0.192505,0.0330811,0.2005,0.960022
1470330796087174,-0.192566,0.0332642,0.200256,0.960022
1470330796103689,-0.19281,0.0333862,0.200012,0.960022
1470330796126207,-0.193176,0.0335693,0.199768,0.960022
1470330796147266,-0.19342,0.0337524,0.199463,0.960022
1470330796163740,-0.193665,0.0339355,0.199158,0.960022
1470330796186293,-0.193848,0.0341187,0.198792,0.960022
1470330796207338,-0.194031,0.0342407,0.198547,0.960022
1470330796223848,-0.194275,0.0343018,0.198364,0.960022
1470330796246314,-0.194336,0.0343018,0.198364,0.960022
1470330796267333,-0.194397,0.0344238,0.198181,0.960083
1470330796283850,-0.194397,0.0344238,0.198181,0.960083
1470330796306368,-0.194397,0.0344238,0.198181,0.960022
1470330796327414,-0.194641,0.0344849,0.197998,0.960022
1470330796343410,-0.194946,0.0344849,0.197754,0.960022
1470330796366427,-0.195251,0.0344849,0.19751,0.960022
1470330796388446,-0.195435,0.0345459,0.197266,0.960022
1470330796403475,-0.195618,0.0345459,0.197083,0.960022
1470330796426477,-0.195862,0.0346069,0.197021,0.959961
1470330796448499,-0.196167,0.0346069,0.196899,0.959961
1470330796463512,-0.19635,0.034729,0.196716,0.959961
1470330796486030,-0.19635,0.034729,0.196716,0.959961
1470330796508571,-0.196289,0.034729,0.196716,0.959961
1470330796523066,-0.196289,0.034729,0.196716,0.959961
1470330796546084,-0.196289,0.034729,0.196716,0.959961
1470330796568619,-0.196533,0.034668,0.196777,0.9599
1470330796583116,-0.196777,0.0346069,0.196838,0.959839
1470330796613648,-0.196777,0.0346069,0.196838,0.959839
1470330796628698,-0.196777,0.0346069,0.196838,0.959839
1470330796643196,-0.196838,0.0346069,0.196838,0.959839
1470330796666191,-0.196899,0.0346069,0.196838,0.959778
1470330796688713,-0.197205,0.0346069,0.196777,0.959778
1470330796703225,-0.197449,0.034668,0.196838,0.959717
1470330796726261,-0.197449,0.034668,0.196838,0.959717
1470330796748768,-0.197449,0.034668,0.196838,0.959717
1470330796763284,-0.197449,0.034668,0.196838,0.959717
1470330796786301,-0.197693,0.034729,0.196838,0.959656
1470330796808825,-0.198059,0.0348511,0.196716,0.959595
1470330796822852,-0.198303,0.0348511,0.196655,0.959534
1470330796846368,-0.198364,0.0348511,0.196655,0.959534
1470330796868873,-0.198059,0.0350342,0.196594,0.959595
1470330796889892,-0.197632,0.0352173,0.196533,0.959717
1470330796906407,-0.197632,0.0352173,0.196533,0.959717
1470330796928927,-0.197693,0.0352173,0.196533,0.959656
1470330796949950,-0.19751,0.0353394,0.196594,0.959717
1470330796965961,-0.197144,0.0354614,0.196716,0.959778
1470330796988981,-0.19696,0.0355835,0.196899,0.959717
1470330797010001,-0.196594,0.0357056,0.197144,0.959778
1470330797026516,-0.196106,0.0358276,0.197388,0.959778
1470330797049037,-0.19574,0.0359497,0.197571,0.959839
1470330797069558,-0.195435,0.0360107,0.197693,0.9599
1470330797086571,-0.195251,0.0360107,0.197876,0.9599
1470330797108591,-0.194946,0.0358276,0.197998,0.9599
1470330797129612,-0.194641,0.0357666,0.198059,0.959961
1470330797146163,-0.194641,0.0357666,0.198059,0.959961
1470330797168643,-0.194641,0.0357666,0.198059,0.959961
1470330797189673,-0.194641,0.0357666,0.198059,0.959961
1470330797206177,-0.194702,0.0358276,0.198059,0.959961
1470330797228701,-0.194702,0.0358276,0.198059,0.959961
1470330797249740,-0.194702,0.0357666,0.198059,0.959961
1470330797266231,-0.195313,0.0354614,0.198059,0.959839
1470330797289251,-0.196228,0.0348511,0.19812,0.959656
1470330797309769,-0.196899,0.0345459,0.19812,0.959534
1470330797332317,-0.196899,0.0344849,0.19812,0.959534
1470330797348805,-0.19635,0.0344849,0.198181,0.959656
1470330797377361,-0.196045,0.0344238,0.198242,0.959717
1470330797386839,-0.195984,0.0344238,0.198242,0.959717
1470330797408358,-0.195984,0.0344238,0.198242,0.959717
1470330797431379,-0.195801,0.03479,0.198364,0.959717
1470330797446415,-0.195435,0.0352173,0.198547,0.959717
1470330797468913,-0.19519,0.0355835,0.198792,0.959717
1470330797491444,-0.195129,0.0359497,0.199036,0.959656
1470330797505485,-0.19519,0.0361938,0.19928,0.959595
1470330797528968,-0.19519,0.0361938,0.19928,0.959595
1470330797551486,-0.195068,0.036377,0.19928,0.959595
1470330797565501,-0.194946,0.0365601,0.19928,0.959656
1470330797588520,-0.194946,0.0365601,0.19928,0.959595
1470330797611540,-0.195007,0.036499,0.19928,0.959595
1470330797625553,-0.195007,0.0365601,0.19928,0.959595
1470330797648597,-0.195007,0.0365601,0.19928,0.959595
1470330797677599,-0.195007,0.0365601,0.19928,0.959595
1470330797685609,-0.195007,0.0365601,0.19928,0.959595
1470330797708628,-0.194946,0.0365601,0.19928,0.959595
1470330797731148,-0.195068,0.0363159,0.19928,0.959595
1470330797745661,-0.19519,0.0360107,0.199097,0.959656
1470330797768683,-0.195557,0.0357666,0.198853,0.959595
1470330797791202,-0.195862,0.0355835,0.198669,0.959595
1470330797812249,-0.196106,0.0353394,0.198486,0.959595
1470330797828737,-0.196106,0.0352783,0.198486,0.959595
1470330797851258,-0.196106,0.0352783,0.198486,0.959595
1470330797879783,-0.196655,0.0351563,0.198608,0.959473
1470330797888790,-0.197571,0.0348511,0.198669,0.95929
1470330797917331,-0.198425,0.0343628,0.198608,0.959167
1470330797933832,-0.198303,0.0340576,0.198547,0.959167
1470330797948846,-0.197693,0.0343018,0.198486,0.95929
1470330797971383,-0.197632,0.0342407,0.198486,0.959351
1470330797992384,-0.197632,0.0344238,0.19873,0.95929
1470330798008897,-0.197937,0.034729,0.198853,0.959167
1470330798031420,-0.197876,0.0350952,0.199097,0.959106
1470330798052436,-0.197632,0.0354004,0.199219,0.959106
1470330798068951,-0.197083,0.0357666,0.199341,0.959229
1470330798091471,-0.196655,0.0359497,0.199463,0.95929
1470330798112490,-0.196655,0.0360107,0.199463,0.95929
1470330798128505,-0.196594,0.0359497,0.199463,0.95929
1470330798151045,-0.196594,0.0360107,0.199463,0.95929
1470330798174045,-0.196533,0.0360718,0.199463,0.95929
1470330798196065,-0.19635,0.0362549,0.199463,0.95929
1470330798211079,-0.19635,0.0362549,0.199463,0.95929
1470330798232128,-0.19635,0.0362549,0.199463,0.95929
1470330798248616,-0.196777,0.0362549,0.199585,0.959229
1470330798271133,-0.197571,0.0361328,0.199707,0.959045
1470330798293653,-0.198547,0.0358887,0.199768,0.958801
1470330798308181,-0.199585,0.0354004,0.199829,0.958618
1470330798331187,-0.200745,0.03479,0.199707,0.958435
1470330798353754,-0.201111,0.0344849,0.199402,0.958435
1470330798368722,-0.200928,0.0344238,0.199036,0.958496
1470330798391245,-0.200745,0.0343628,0.198853,0.958618
1470330798413762,-0.200928,0.0343628,0.198853,0.958557
1470330798428274,-0.201965,0.0341797,0.198975,0.958313
1470330798451294,-0.203186,0.0336914,0.199097,0.958069
1470330798473815,-0.203552,0.0333862,0.199097,0.958008
1470330798488327,-0.202698,0.0339355,0.199158,0.95813
1470330798511350,-0.201782,0.034729,0.199341,0.958252
1470330798533868,-0.201782,0.0351563,0.199768,0.95813
1470330798547883,-0.202087,0.0350952,0.200195,0.958008
1470330798571406,-0.201904,0.0350952,0.2005,0.958008
1470330798593923,-0.201294,0.0352783,0.200928,0.958008
1470330798607956,-0.201172,0.0352783,0.201416,0.957947
1470330798631456,-0.201355,0.0349731,0.202026,0.957764
1470330798653977,-0.201538,0.0346069,0.20282,0.957581
1470330798667990,-0.200745,0.0344849,0.203613,0.957581
1470330798691025,-0.198853,0.0348511,0.204285,0.957825
1470330798713531,-0.196716,0.0354004,0.204712,0.958191
1470330798728046,-0.19519,0.0358276,0.204956,0.958435
1470330798751065,-0.194153,0.0361938,0.204956,0.958618
1470330798773585,-0.194153,0.0361938,0.205017,0.958618
1470330798795650,-0.194519,0.0361328,0.205017,0.958496
1470330798797139,-0.194214,0.0358276,0.205017,0.958618
1470330798816622,-0.193237,0.0356445,0.204956,0.958801
1470330798839146,-0.191772,0.0357056,0.205017,0.959106
1470330798857194,-0.190674,0.0355225,0.2052,0.95929
1470330798876705,-0.190308,0.0352783,0.205505,0.95929
1470330798899196,-0.19043,0.0349121,0.205933,0.959167
1470330798917213,-0.190247,0.034729,0.206299,0.959167
1470330798936732,-0.190125,0.0346069,0.206604,0.959106
1470330798959292,-0.190186,0.0343628,0.206787,0.959045
1470330798977267,-0.190491,0.0340576,0.206909,0.958984
1470330798996845,-0.190613,0.0337524,0.207031,0.958984
1470330799019306,-0.190369,0.0335083,0.207092,0.958984
1470330799041860,-0.190002,0.0334473,0.207092,0.959106
1470330799056872,-0.189758,0.0333862,0.207153,0.959106
1470330799079392,-0.189758,0.0333862,0.207153,0.959106
1470330799096909,-0.189758,0.0333862,0.207153,0.959106
1470330799116925,-0.189758,0.0332031,0.207031,0.959167
1470330799146956,-0.189758,0.0332642,0.207031,0.959167
1470330799157981,-0.189758,0.0332642,0.207031,0.959167
1470330799176479,-0.189758,0.0332642,0.207031,0.959167
1470330799199539,-0.189758,0.0332642,0.207031,0.959167
1470330799217050,-0.189758,0.0332031,0.207031,0.959167
1470330799236544,-0.189758,0.0332031,0.207031,0.959167
1470330799259067,-0.189758,0.0332031,0.207031,0.959167
1470330799277582,-0.189697,0.0332031,0.207031,0.959167
1470330799296587,-0.189697,0.0332031,0.207031,0.959167
1470330799320609,-0.189636,0.0333862,0.207336,0.959106
1470330799341638,-0.189575,0.0334473,0.20752,0.959045
1470330799356673,-0.189514,0.0335693,0.207825,0.958984
1470330799379194,-0.189087,0.0336304,0.208069,0.959045
1470330799397199,-0.188721,0.0335693,0.208313,0.959045
1470330799416778,-0.18866,0.0334473,0.208618,0.959045
1470330799439215,-0.188904,0.0332642,0.208862,0.958923
1470330799457232,-0.189148,0.0331421,0.209167,0.958801
1470330799476777,-0.189636,0.03302,0.209595,0.958618
1470330799499343,-0.190369,0.0325928,0.210022,0.958374
1470330799517381,-0.191406,0.0316162,0.210571,0.958069
1470330799536802,-0.193115,0.0307617,0.211365,0.957642
1470330799559322,-0.195007,0.0301514,0.212036,0.957092
1470330799576840,-0.195923,0.0296631,0.212524,0.956848
1470330799596856,-0.195679,0.0296631,0.212769,0.956787
1470330799619377,-0.195068,0.0298462,0.212708,0.95697
1470330799637428,-0.194275,0.0301514,0.212708,0.957092
1470330799656933,-0.193604,0.0306396,0.21283,0.957214
1470330799679568,-0.192871,0.031189,0.213013,0.957275
1470330799696949,-0.191711,0.0316772,0.213257,0.957458
1470330799716964,-0.190063,0.0324707,0.213806,0.957642
1470330799739489,-0.187927,0.0335083,0.214905,0.957764
1470330799757000,-0.186218,0.0339355,0.216309,0.957764
1470330799776518,-0.184937,0.0335083,0.217712,0.957703
1470330799799070,-0.183594,0.0327148,0.218994,0.957703
1470330799817058,-0.182251,0.0317383,0.220093,0.957764
1470330799838073,-0.180664,0.0307617,0.221008,0.957886
1470330799859596,-0.178894,0.0299683,0.22168,0.958069
1470330799877110,-0.177185,0.0294189,0.222229,0.958313
1470330799898127,-0.175781,0.0291138,0.222717,0.958435
1470330799919202,-0.174927,0.0288086,0.223083,0.958496
1470330799937163,-0.174255,0.0286255,0.223083,0.958618
1470330799958181,-0.173706,0.0287476,0.222961,0.95874
1470330799979226,-0.173523,0.0291138,0.222839,0.958801
1470330799997218,-0.17334,0.0296021,0.222839,0.958862
1470330800018269,-0.173218,0.0299072,0.2229,0.958862
1470330800039259,-0.173157,0.0299072,0.2229,0.958862
1470330800057270,-0.173157,0.0300903,0.222839,0.958862
1470330800078288,-0.173157,0.0301514,0.222717,0.958862
1470330800099310,-0.173157,0.0305176,0.222595,0.958923
1470330800117323,-0.173218,0.0306396,0.222229,0.958984
1470330800139344,-0.173401,0.0306396,0.221619,0.959045
1470330800159361,-0.173767,0.0305176,0.22113,0.959106
1470330800176879,-0.17395,0.0305786,0.220703,0.959167
1470330800199900,-0.173889,0.031189,0.220459,0.959229
1470330800219415,-0.173706,0.0317383,0.220337,0.95929
1470330800236931,-0.174072,0.0319824,0.220154,0.959229
1470330800259453,-0.174255,0.0322266,0.220154,0.959229
1470330800278969,-0.174255,0.0322266,0.220154,0.959229
1470330800297558,-0.174255,0.0322876,0.220154,0.959229
1470330800319523,-0.174316,0.0322876,0.220154,0.959167
1470330800339549,-0.174377,0.0321045,0.220032,0.959229
1470330800357079,-0.174744,0.0319214,0.21991,0.959167
1470330800379586,-0.17511,0.0317993,0.219971,0.959106
1470330800399091,-0.175049,0.0317993,0.219971,0.959106
1470330800417093,-0.175354,0.0317383,0.220154,0.959045
1470330800439668,-0.175598,0.0317993,0.220276,0.958923
1470330800459138,-0.175598,0.0317993,0.220276,0.958923
1470330800477147,-0.175537,0.0318604,0.220276,0.958923
1470330800499710,-0.175537,0.0318604,0.220276,0.958923
1470330800519202,-0.175659,0.0316772,0.220276,0.958923
1470330800537200,-0.175842,0.0316162,0.220154,0.958923
1470330800559764,-0.175842,0.0316162,0.220154,0.958923
1470330800579282,-0.175842,0.0316162,0.220154,0.958923
1470330800597254,-0.175842,0.0316162,0.220154,0.958923
1470330800619276,-0.175842,0.0316162,0.220093,0.958923
1470330800639292,-0.175781,0.0317383,0.220032,0.958984
1470330800657353,-0.175781,0.0317383,0.220032,0.958984
1470330800679328,-0.175781,0.0317383,0.220032,0.958984
1470330800706853,-0.175537,0.0319824,0.219849,0.959045
1470330800717363,-0.175415,0.0322266,0.219482,0.959167
1470330800739883,-0.175354,0.0325928,0.219177,0.959229
1470330800759400,-0.17572,0.0326538,0.218994,0.959167
1470330800777427,-0.175964,0.0325317,0.218811,0.959167
1470330800800066,-0.175659,0.0325928,0.218689,0.95929
1470330800820460,-0.17511,0.0328979,0.218628,0.959351
1470330800836970,-0.1745,0.0332031,0.218689,0.959473
1470330800859490,-0.173767,0.0335083,0.218872,0.959534
1470330800880510,-0.173218,0.0336914,0.219116,0.959595
1470330800897562,-0.172668,0.0335083,0.21936,0.959595
1470330800919544,-0.171692,0.0332031,0.219788,0.959717
1470330800940563,-0.171021,0.032959,0.220459,0.959717
1470330800957078,-0.170959,0.0324707,0.221252,0.959534
1470330800979599,-0.171692,0.0315552,0.221985,0.95929
1470330801000619,-0.171753,0.0307617,0.222351,0.959229
1470330801017132,-0.170166,0.0308838,0.222351,0.959473
1470330801039708,-0.169189,0.03125,0.22229,0.959656
1470330801060682,-0.169861,0.0316772,0.222473,0.959473
1470330801077185,-0.171448,0.0314331,0.222534,0.959167
1470330801099736,-0.172485,0.0315552,0.222473,0.958984
1470330801122252,-0.172302,0.0317383,0.222168,0.959106
1470330801141778,-0.171082,0.0320435,0.221741,0.959412
1470330801159760,-0.169556,0.0325928,0.221252,0.959778
1470330801182280,-0.169006,0.0327148,0.220764,0.959961
1470330801201807,-0.169373,0.0325928,0.22052,0.959961
1470330801219815,-0.169922,0.0324097,0.220459,0.9599
1470330801242407,-0.170227,0.0322876,0.220398,0.959839
1470330801263353,-0.170227,0.0323486,0.220154,0.9599
1470330801278869,-0.170044,0.0324707,0.21991,0.960022
1470330801301387,-0.169983,0.0327148,0.219727,0.960022
1470330801322485,-0.170349,0.0327148,0.219666,0.960022
1470330801338920,-0.170654,0.0327148,0.219604,0.959961
1470330801368947,-0.170593,0.0327148,0.219604,0.959961
1470330801382460,-0.170593,0.0327148,0.219604,0.959961
1470330801398975,-0.170593,0.0327759,0.219604,0.959961
1470330801420996,-0.170593,0.0327759,0.219604,0.959961
1470330801442514,-0.170593,0.0327759,0.219604,0.959961
1470330801458547,-0.170593,0.0327759,0.219604,0.959961
1470330801481549,-0.170715,0.0326538,0.219604,0.959961
1470330801495563,-0.170776,0.0324097,0.219543,0.959961
1470330801518583,-0.171082,0.0321045,0.219421,0.959961
1470330801541104,-0.171509,0.0316772,0.219238,0.9599
1470330801555660,-0.171814,0.03125,0.219116,0.9599
1470330801578636,-0.171814,0.03125,0.219116,0.9599
1470330801601156,-0.171387,0.0314331,0.219055,0.959961
1470330801622676,-0.171204,0.0316772,0.219177,0.960022
1470330801638692,-0.171265,0.0317993,0.219238,0.959961
1470330801661210,-0.171387,0.0319214,0.21936,0.9599
1470330801682773,-0.17157,0.0319214,0.219482,0.959839
1470330801698746,-0.17157,0.0319214,0.219482,0.959839
1470330801721264,-0.171448,0.0320435,0.219543,0.959839
1470330801742283,-0.171448,0.0320435,0.219543,0.959839
1470330801758830,-0.171448,0.0320435,0.219543,0.959839
1470330801781318,-0.171692,0.0319214,0.219604,0.959778
1470330801802380,-0.171692,0.0319824,0.219604,0.959778
1470330801818852,-0.171875,0.0319214,0.219482,0.959778
1470330801841373,-0.172302,0.0316772,0.219299,0.959778
1470330801862392,-0.173035,0.031311,0.219238,0.959656
1470330801878906,-0.173767,0.0310059,0.219177,0.959534
1470330801901425,-0.1745,0.0308228,0.219177,0.959412
1470330801922447,-0.175232,0.0307007,0.219421,0.959229
1470330801938959,-0.175476,0.0302734,0.219604,0.959167
1470330801961981,-0.175049,0.0299683,0.219421,0.95929
1470330801982503,-0.174194,0.0299072,0.219238,0.959534
1470330801999028,-0.173584,0.0299683,0.219177,0.959595
1470330802021034,-0.173584,0.0299072,0.219177,0.959656
1470330802042553,-0.173584,0.0299072,0.219177,0.959656
1470330802058573,-0.173523,0.0299683,0.219177,0.959656
1470330802081088,-0.173523,0.0299683,0.219177,0.959656
1470330802103653,-0.173523,0.0299683,0.219177,0.959656
1470330802118622,-0.173523,0.0302124,0.219116,0.959656
1470330802141141,-0.173401,0.0303345,0.219116,0.959656
1470330802163709,-0.173096,0.0303955,0.218994,0.959717
1470330802178676,-0.172668,0.0305786,0.218994,0.959778
1470330802201195,-0.172485,0.0306396,0.218933,0.959839
1470330802223716,-0.172485,0.0306396,0.218933,0.959839
1470330802238228,-0.172241,0.0307617,0.218933,0.9599
1470330802261248,-0.171875,0.0308228,0.219055,0.9599
1470330802283811,-0.171692,0.0305176,0.219116,0.959961
1470330802298300,-0.171814,0.0297241,0.219177,0.959961
1470330802321307,-0.171509,0.0292358,0.219299,0.959961
1470330802343845,-0.171875,0.0290527,0.219604,0.959839
1470330802358336,-0.173157,0.0287476,0.220032,0.959534
1470330802381356,-0.174805,0.0283203,0.220581,0.959106
1470330802403878,-0.175598,0.027832,0.220825,0.958923
1470330802417889,-0.174561,0.0280151,0.220459,0.959229
1470330802441410,-0.173523,0.0286255,0.220215,0.959412
1470330802463930,-0.174133,0.0288696,0.220276,0.95929
1470330802477943,-0.175171,0.0286865,0.220337,0.959106
1470330802501967,-0.175598,0.0288696,0.220459,0.958984
1470330802523517,-0.174866,0.0292969,0.220459,0.959106
1470330802537997,-0.173645,0.0296631,0.220398,0.959351
1470330802561018,-0.172913,0.0298462,0.220398,0.959473
1470330802583551,-0.172729,0.0300293,0.220276,0.959534
1470330802605057,-0.172729,0.0300903,0.220276,0.959534
1470330802621572,-0.173157,0.0299683,0.220215,0.959473
1470330802643594,-0.173218,0.0300293,0.220215,0.959473
1470330802665176,-0.173218,0.0300293,0.220215,0.959473
1470330802681135,-0.173035,0.0303345,0.220337,0.959473
1470330802703679,-0.172791,0.0307617,0.220642,0.959412
1470330802725284,-0.172791,0.0308838,0.220764,0.959351
1470330802741179,-0.172485,0.0310669,0.220825,0.959412
1470330802763701,-0.172485,0.0310669,0.220825,0.959412
1470330802784720,-0.172485,0.0310669,0.220825,0.959412
1470330802801233,-0.172485,0.0311279,0.220825,0.959412
1470330802823756,-0.172485,0.0311279,0.220825,0.959412
1470330802845273,-0.172485,0.0311279,0.220825,0.959412
1470330802861339,-0.172302,0.031189,0.220764,0.959473
1470330802883811,-0.172058,0.0313721,0.220825,0.959473
1470330802904845,-0.172058,0.0314331,0.220825,0.959473
1470330802928849,-0.172058,0.0313721,0.220825,0.959473
1470330802951368,-0.172119,0.0313721,0.220825,0.959473
1470330802964917,-0.172119,0.0313721,0.220825,0.959473
1470330802981432,-0.172241,0.0311279,0.220825,0.959473
1470330803003915,-0.172546,0.0307007,0.220764,0.959412
1470330803026435,-0.172974,0.0303345,0.220764,0.959351
1470330803041449,-0.173645,0.0300903,0.220825,0.959229
1470330803063970,-0.174072,0.0299072,0.220947,0.959106
1470330803086010,-0.174011,0.0296021,0.220947,0.959167
1470330803109011,-0.17395,0.0296021,0.220947,0.959167
1470330803124046,-0.173706,0.0297852,0.220886,0.959229
1470330803146043,-0.173889,0.0300903,0.220886,0.959167
1470330803160614,-0.174316,0.0302124,0.220886,0.959106
1470330803184077,-0.174316,0.0302124,0.220886,0.959106
1470330803206146,-0.173767,0.0303955,0.220886,0.959167
1470330803220611,-0.173218,0.0307617,0.220825,0.95929
1470330803243632,-0.172852,0.0311279,0.220764,0.959351
1470330803266152,-0.172668,0.03125,0.220642,0.959412
1470330803280668,-0.172607,0.0315552,0.220398,0.959473
1470330803310191,-0.172485,0.0316162,0.220093,0.959534
1470330803326242,-0.172607,0.0316162,0.219788,0.959595
1470330803340718,-0.172729,0.0316772,0.219604,0.959595
1470330803363739,-0.172729,0.0316772,0.219604,0.959595
1470330803386260,-0.172668,0.0316772,0.219604,0.959595
1470330803400807,-0.172913,0.0318604,0.219482,0.959595
1470330803423794,-0.172913,0.0318604,0.219482,0.959595
1470330803446313,-0.173096,0.0320435,0.219299,0.959595
1470330803460826,-0.173096,0.0322876,0.219177,0.959656
1470330803484348,-0.173218,0.0324707,0.219055,0.959656
1470330803506367,-0.17334,0.0327759,0.218994,0.959595
1470330803527443,-0.173523,0.032959,0.218872,0.959595
1470330803543936,-0.173645,0.0332031,0.218689,0.959595
1470330803566921,-0.17395,0.0334473,0.218506,0.959595
1470330803587467,-0.174377,0.0336304,0.218323,0.959534
1470330803603955,-0.174805,0.0337524,0.218079,0.959534
1470330803626475,-0.175232,0.0339355,0.217896,0.959473
1470330803647588,-0.175781,0.0341187,0.217651,0.959412
1470330803664009,-0.176331,0.0343628,0.217285,0.959412
1470330803686529,-0.177063,0.034729,0.216858,0.959351
1470330803707548,-0.177917,0.0352783,0.216492,0.959229
1470330803723563,-0.178711,0.0360107,0.216064,0.959167
1470330803746582,-0.179626,0.0368042,0.215393,0.959106
1470330803767601,-0.180542,0.0374146,0.214539,0.959106
1470330803783617,-0.181641,0.0379028,0.213806,0.959045
1470330803806160,-0.1828,0.038208,0.213074,0.958984
1470330803827657,-0.183655,0.0385742,0.212463,0.958923
1470330803843669,-0.184265,0.0390625,0.211975,0.958923
1470330803866203,-0.184753,0.0395508,0.21167,0.958862
1470330803887253,-0.185242,0.039856,0.211548,0.958801
1470330803903724,-0.185547,0.039917,0.211487,0.95874
1470330803926243,-0.185791,0.039856,0.211487,0.958679
1470330803947295,-0.18573,0.039917,0.211487,0.958679
1470330803963276,-0.185486,0.039978,0.211792,0.958679
1470330803986297,-0.185181,0.039856,0.212097,0.958679
1470330804008818,-0.18512,0.0396118,0.212463,0.958618
1470330804023833,-0.18573,0.0392456,0.212769,0.958435
1470330804046351,-0.18573,0.0391235,0.213074,0.958374
1470330804068872,-0.185547,0.0390625,0.213257,0.958374
1470330804083885,-0.185608,0.0388794,0.213379,0.958374
1470330804106406,-0.185852,0.0385742,0.213501,0.958313
1470330804128925,-0.185791,0.0383301,0.213684,0.958252
1470330804142939,-0.185425,0.038208,0.213867,0.958313
1470330804181473,-0.185059,0.0379639,0.213928,0.958374
1470330804188979,-0.184753,0.0378418,0.214111,0.958374
1470330804203002,-0.184509,0.0375977,0.214417,0.958374
1470330804226529,-0.184021,0.0375366,0.214783,0.958374
1470330804248543,-0.183411,0.0375977,0.215088,0.958435
1470330804263053,-0.182861,0.0375977,0.215271,0.958496
1470330804286567,-0.182556,0.0376587,0.215515,0.958496
1470330804309088,-0.182556,0.0376587,0.215515,0.958496
1470330804323102,-0.182556,0.0376587,0.215515,0.958496
1470330804346628,-0.1828,0.0377808,0.215393,0.958496
1470330804368644,-0.183044,0.0377808,0.21521,0.958496
1470330804383157,-0.183533,0.0377808,0.215027,0.958435
1470330804406192,-0.184082,0.0375366,0.214844,0.958374
1470330804428695,-0.184387,0.0373535,0.214722,0.958374
1470330804443223,-0.184753,0.0372314,0.214722,0.958313
1470330804466231,-0.184998,0.0369873,0.214661,0.958252
1470330804489250,-0.184998,0.0369873,0.214661,0.958252
1470330804509798,-0.18512,0.0366821,0.2146,0.958252
1470330804526282,-0.185486,0.0360718,0.214478,0.958252
1470330804548803,-0.185852,0.0356445,0.214417,0.958191
1470330804569821,-0.185791,0.0354004,0.214355,0.958252
1470330804593843,-0.185608,0.0354004,0.214417,0.958252
1470330804608872,-0.185547,0.0354614,0.214417,0.958252
1470330804629875,-0.185547,0.0354614,0.214417,0.958252
1470330804646390,-0.185852,0.0354004,0.214355,0.958252
1470330804668910,-0.185913,0.0354004,0.214355,0.958252
1470330804689931,-0.185913,0.0354004,0.214355,0.958191
1470330804706444,-0.185913,0.0354614,0.214355,0.958191
1470330804728964,-0.185913,0.0354614,0.214355,0.958191
1470330804749985,-0.185913,0.0353394,0.214294,0.958252
1470330804766498,-0.186279,0.0352173,0.214294,0.958191
1470330804789018,-0.186646,0.0350952,0.214294,0.958069
1470330804810039,-0.186646,0.0350952,0.214294,0.958069
1470330804826553,-0.186401,0.0352173,0.214355,0.95813
1470330804849072,-0.186401,0.0352783,0.214355,0.95813
1470330804871593,-0.186646,0.0352173,0.214417,0.958069
1470330804887107,-0.187073,0.0352173,0.214417,0.958008
1470330804908627,-0.187561,0.0351563,0.214417,0.957886
1470330804931146,-0.187988,0.0350952,0.214355,0.957825
1470330804946166,-0.188293,0.0351563,0.214172,0.957764
1470330804968680,-0.188477,0.0351563,0.213989,0.957825
1470330804991200,-0.188477,0.0351563,0.213989,0.957825
1470330805006213,-0.188477,0.0351563,0.213989,0.957825
1470330805028738,-0.18866,0.0350342,0.213867,0.957825
1470330805051277,-0.188599,0.0350342,0.213867,0.957825
1470330805065766,-0.188599,0.0350342,0.213867,0.957825
1470330805088788,-0.188599,0.0350342,0.213867,0.957825
1470330805111321,-0.188599,0.0350342,0.213867,0.957825
1470330805125820,-0.188599,0.0350342,0.213867,0.957825
1470330805149342,-0.188599,0.0350342,0.213867,0.957825
1470330805171383,-0.188599,0.0349731,0.213867,0.957825
1470330805185412,-0.188599,0.0349731,0.213867,0.957825
1470330805208917,-0.188843,0.0349121,0.213928,0.957764
1470330805231416,-0.188843,0.0349121,0.213928,0.957764
1470330805245928,-0.188904,0.0349121,0.213928,0.957764
1470330805268972,-0.188843,0.0349121,0.213928,0.957764
1470330805291514,-0.188843,0.0349121,0.213928,0.957764
1470330805305513,-0.188843,0.0349121,0.213928,0.957764
1470330805329058,-0.188965,0.03479,0.213989,0.957703
1470330805351547,-0.188965,0.03479,0.213989,0.957703
1470330805365563,-0.188965,0.03479,0.213989,0.957703
1470330805388582,-0.188965,0.034729,0.213989,0.957703
1470330805411601,-0.188965,0.03479,0.213989,0.957703
1470330805432619,-0.189026,0.03479,0.213989,0.957703
1470330805449135,-0.189026,0.03479,0.213989,0.957703
1470330805471156,-0.189026,0.03479,0.213989,0.957703
1470330805492735,-0.188965,0.03479,0.213989,0.957703
1470330805508692,-0.188965,0.03479,0.213989,0.957703
1470330805531208,-0.189026,0.034729,0.213989,0.957703
1470330805552258,-0.189026,0.034729,0.213928,0.957703
1470330805568742,-0.189026,0.03479,0.213989,0.957703
1470330805591262,-0.189026,0.034729,0.213989,0.957703
1470330805612311,-0.189026,0.034729,0.213989,0.957703
1470330805628796,-0.189087,0.034729,0.213928,0.957703
1470330805651337,-0.188965,0.0349121,0.213928,0.957764
1470330805672361,-0.188293,0.0351563,0.213806,0.957886
1470330805688850,-0.188232,0.0351563,0.213806,0.957886
1470330805711371,-0.188171,0.0350952,0.21405,0.957825
1470330805732455,-0.187805,0.0350952,0.214294,0.957886
1470330805748903,-0.187195,0.0350952,0.214478,0.957947
1470330805771426,-0.186707,0.0351563,0.214539,0.958008
1470330805792444,-0.186462,0.0350952,0.214661,0.958069
1470330805808958,-0.186462,0.0350952,0.214661,0.958069
1470330805831478,-0.186462,0.0350952,0.214661,0.958069
1470330805852498,-0.186523,0.0350952,0.214661,0.958069
1470330805869012,-0.186523,0.0350952,0.214661,0.958069
1470330805891532,-0.186462,0.0350952,0.214661,0.958069
1470330805914052,-0.186707,0.0349731,0.214661,0.958008
1470330805929066,-0.186951,0.0348511,0.214722,0.957947
1470330805951085,-0.186951,0.0348511,0.214722,0.957947
1470330805979613,-0.186951,0.0348511,0.214722,0.957947
1470330805989120,-0.186951,0.0348511,0.214722,0.957947
1470330806011640,-0.187134,0.03479,0.214783,0.957886
1470330806033660,-0.187134,0.03479,0.214783,0.957886
1470330806048173,-0.187378,0.034729,0.214783,0.957825
1470330806071201,-0.187378,0.034729,0.214783,0.957825
1470330806093714,-0.187439,0.034729,0.214783,0.957825
1470330806108227,-0.187439,0.034729,0.214783,0.957825
1470330806131248,-0.187439,0.034729,0.214783,0.957825
1470330806153772,-0.187439,0.034729,0.214783,0.957825
1470330806168281,-0.187744,0.034729,0.214783,0.957764
1470330806191301,-0.187988,0.034729,0.214783,0.957764
1470330806213823,-0.187988,0.034729,0.214783,0.957764
1470330806228335,-0.187988,0.034729,0.214783,0.957764
1470330806251358,-0.187988,0.034729,0.214783,0.957764
1470330806281382,-0.188293,0.034668,0.214783,0.957703
1470330806288389,-0.188293,0.034668,0.214783,0.957703
1470330806311409,-0.188293,0.034668,0.214783,0.957703
1470330806333989,-0.188293,0.034668,0.214783,0.957703
1470330806348443,-0.188293,0.034668,0.214783,0.957703
1470330806371464,-0.18866,0.034668,0.214783,0.957642
1470330806393983,-0.18866,0.0346069,0.214783,0.957642
1470330806415037,-0.188538,0.034668,0.214722,0.957642
1470330806431517,-0.188538,0.034668,0.214722,0.957642
1470330806454040,-0.188538,0.034729,0.214722,0.957642
1470330806459542,-0.188538,0.034729,0.214722,0.957642
1470330806482094,-0.188538,0.034729,0.214722,0.957642
1470330806497112,-0.188538,0.034729,0.214722,0.957642
1470330806519153,-0.188538,0.034729,0.214722,0.957642
1470330806541671,-0.188538,0.034729,0.214722,0.957642
1470330806556629,-0.188782,0.034668,0.214783,0.957581
1470330806579152,-0.188782,0.034729,0.214783,0.957581
1470330806601670,-0.188843,0.034729,0.214783,0.957581
1470330806617186,-0.188843,0.034729,0.214783,0.957581
1470330806639203,-0.188843,0.034729,0.214783,0.957581
1470330806661768,-0.188843,0.034729,0.214783,0.957581
1470330806676803,-0.188843,0.034729,0.214783,0.957581
1470330806699290,-0.188843,0.034729,0.214783,0.957581
1470330806721777,-0.188843,0.034729,0.214783,0.957581
1470330806736819,-0.188843,0.03479,0.214783,0.957581
1470330806759339,-0.188843,0.03479,0.214783,0.957581
1470330806781831,-0.188843,0.03479,0.214783,0.957581
1470330806796846,-0.188843,0.03479,0.214783,0.957581
1470330806819365,-0.188843,0.03479,0.214783,0.957581
1470330806841909,-0.188904,0.03479,0.214783,0.957581
1470330806856938,-0.188904,0.03479,0.214783,0.957581
1470330806879451,-0.188904,0.03479,0.214783,0.957581
1470330806901939,-0.188904,0.03479,0.214783,0.957581
1470330806919955,-0.188904,0.0348511,0.214783,0.95752
1470330806939563,-0.188904,0.0348511,0.214783,0.95752
1470330806961993,-0.188904,0.0348511,0.214783,0.95752
1470330806977009,-0.188965,0.0348511,0.214783,0.95752
1470330806999526,-0.188965,0.0348511,0.214783,0.95752
1470330807022047,-0.188965,0.0348511,0.214783,0.95752
1470330807037061,-0.188965,0.0348511,0.214783,0.95752
1470330807059136,-0.188965,0.0348511,0.214783,0.95752
1470330807081600,-0.188965,0.0348511,0.214783,0.95752
1470330807096672,-0.188965,0.0348511,0.214783,0.95752
1470330807119136,-0.188965,0.0348511,0.214783,0.95752
1470330807141681,-0.188965,0.0348511,0.214783,0.95752
1470330807156702,-0.189026,0.0348511,0.214783,0.95752
1470330807179189,-0.188782,0.0349121,0.214844,0.957581
1470330807201714,-0.188599,0.0349121,0.214966,0.957581
1470330807216723,-0.188599,0.0349731,0.214966,0.957581
1470330807239272,-0.188599,0.0349731,0.214966,0.957581
1470330807261795,-0.188599,0.0349731,0.214966,0.957581
1470330807276808,-0.188843,0.0348511,0.214966,0.95752
1470330807299345,-0.188904,0.0348511,0.214966,0.95752
1470330807321847,-0.188904,0.0349121,0.214966,0.95752
1470330807336862,-0.188904,0.0349121,0.214966,0.95752
1470330807359403,-0.188904,0.0349121,0.214966,0.95752
1470330807381934,-0.188904,0.0349121,0.214966,0.95752
1470330807396943,-0.189209,0.0348511,0.215027,0.957458
1470330807419403,-0.189514,0.034729,0.215027,0.957397
1470330807441923,-0.189514,0.034729,0.215027,0.957397
1470330807458438,-0.189514,0.03479,0.215027,0.957397
1470330807479457,-0.189514,0.03479,0.215027,0.957397
1470330807510041,-0.189514,0.03479,0.215027,0.957397
1470330807518492,-0.189514,0.03479,0.215027,0.957397
1470330807539512,-0.189514,0.03479,0.215027,0.957397
1470330807561607,-0.189514,0.03479,0.215027,0.957397
1470330807578548,-0.189514,0.03479,0.215027,0.957397
1470330807599566,-0.189514,0.03479,0.215027,0.957397
1470330807622096,-0.189575,0.03479,0.215027,0.957397
1470330807645608,-0.189575,0.03479,0.215027,0.957397
1470330807659146,-0.189575,0.0348511,0.215027,0.957397
1470330807682155,-0.189575,0.03479,0.215027,0.957397
1470330807698154,-0.189575,0.0348511,0.215027,0.957397
1470330807719173,-0.189575,0.0348511,0.215027,0.957336
1470330807741730,-0.189575,0.0348511,0.215027,0.957336
1470330807759748,-0.189575,0.0348511,0.215027,0.957336
1470330807779269,-0.189575,0.0348511,0.215027,0.957336
1470330807801795,-0.189575,0.0348511,0.215027,0.957336
1470330807819763,-0.189575,0.0348511,0.215027,0.957336
1470330807839296,-0.189575,0.0348511,0.215027,0.957336
1470330807861830,-0.189575,0.0348511,0.215027,0.957336
1470330807879847,-0.189575,0.0348511,0.215027,0.957336
1470330807899361,-0.189697,0.034668,0.215027,0.957336
1470330807924948,-0.18988,0.0344849,0.215088,0.957336
1470330807939371,-0.18988,0.0344849,0.215088,0.957336
1470330807959389,-0.18988,0.0344849,0.215088,0.957336
1470330807981934,-0.18988,0.0344849,0.215088,0.957336
1470330808000014,-0.18988,0.0344849,0.215088,0.957275
1470330808026949,-0.18988,0.0344238,0.215088,0.957275
1470330808041963,-0.189941,0.0344238,0.215088,0.957275
1470330808059505,-0.189941,0.0344238,0.215088,0.957275
1470330808079496,-0.189941,0.0344238,0.215088,0.957275
1470330808102017,-0.189941,0.0345459,0.215027,0.957275
1470330808120033,-0.189941,0.0345459,0.215027,0.957275
1470330808139050,-0.190002,0.0345459,0.215027,0.957275
1470330808161570,-0.189941,0.03479,0.215088,0.957275
1470330808179588,-0.189575,0.0350342,0.215271,0.957336
1470330808200605,-0.189209,0.0352173,0.215271,0.957397
1470330808221625,-0.189209,0.0352173,0.215271,0.957397
1470330808239641,-0.189636,0.0352173,0.215271,0.957275
1470330808259173,-0.189941,0.0352173,0.215271,0.957214
1470330808281701,-0.189941,0.0352173,0.215271,0.957214
1470330808299694,-0.189941,0.0352173,0.215271,0.957214
1470330808319213,-0.189941,0.0352173,0.215271,0.957214
1470330808341734,-0.189941,0.0352173,0.215271,0.957214
1470330808359748,-0.189941,0.0352173,0.215271,0.957214
1470330808380772,-0.189941,0.0352173,0.215271,0.957214
1470330808401817,-0.190002,0.0352173,0.215271,0.957214
1470330808419802,-0.190002,0.0352173,0.215271,0.957214
1470330808440821,-0.189941,0.0351563,0.215271,0.957214
1470330808461840,-0.190002,0.0352173,0.215271,0.957214
1470330808479857,-0.189941,0.0352173,0.215271,0.957214
1470330808500877,-0.190002,0.0352173,0.215271,0.957214
1470330808521895,-0.190002,0.0352173,0.215271,0.957214
1470330808539910,-0.189941,0.0352783,0.215332,0.957214
1470330808560928,-0.189514,0.0355225,0.215393,0.957275
1470330808584950,-0.18927,0.0356445,0.215332,0.957336
1470330808599465,-0.18927,0.0357056,0.215332,0.957336
1470330808620482,-0.18927,0.0357056,0.215332,0.957336
1470330808642095,-0.189331,0.0357056,0.215332,0.957336
1470330808659518,-0.189331,0.0357056,0.215332,0.957336
1470330808682054,-0.189331,0.0357056,0.215332,0.957336
1470330808701608,-0.189331,0.0357056,0.215332,0.957275
1470330808719571,-0.189392,0.0357056,0.215332,0.957275
1470330808742092,-0.189392,0.0357056,0.215332,0.957275
1470330808761671,-0.189392,0.0357056,0.215332,0.957275
1470330808779696,-0.189392,0.0357666,0.215332,0.957275
1470330808802186,-0.189392,0.0357056,0.215332,0.957275
1470330808822164,-0.189392,0.0357056,0.215332,0.957275
1470330808839708,-0.189209,0.0361938,0.215576,0.957275
1470330808862203,-0.189209,0.0366211,0.215759,0.957214
1470330808881751,-0.189209,0.0371094,0.216003,0.957153
1470330808899733,-0.18927,0.0374756,0.216187,0.957031
1470330808922254,-0.189331,0.0377197,0.216309,0.957031
1470330808941798,-0.189331,0.0377197,0.216309,0.957031
1470330808958786,-0.189331,0.0377197,0.216309,0.957031
1470330808981308,-0.189331,0.0377197,0.216309,0.957031
1470330809002825,-0.189392,0.0377197,0.216309,0.957031
1470330809018840,-0.189392,0.0377197,0.216309,0.957031
1470330809041360,-0.189392,0.0377808,0.216309,0.957031
1470330809062419,-0.189392,0.0377808,0.216309,0.957031
1470330809078896,-0.189392,0.0377808,0.216309,0.957031
1470330809101416,-0.189392,0.0377808,0.216309,0.957031
1470330809122467,-0.189392,0.0377808,0.216309,0.957031
1470330809138947,-0.189392,0.0377808,0.216309,0.957031
1470330809161468,-0.189392,0.0377808,0.216309,0.957031
1470330809182489,-0.189392,0.0377808,0.216309,0.957031
1470330809199029,-0.189453,0.0377808,0.216309,0.95697
1470330809221521,-0.189453,0.0377808,0.216309,0.95697
1470330809242541,-0.189453,0.0378418,0.216309,0.95697
1470330809259055,-0.189453,0.0377808,0.216309,0.95697
1470330809281075,-0.189453,0.0378418,0.216309,0.95697
1470330809310103,-0.189453,0.0378418,0.216309,0.95697
1470330809319110,-0.189453,0.0378418,0.216309,0.95697
1470330809341188,-0.189453,0.0378418,0.216309,0.95697
1470330809362702,-0.189209,0.0379028,0.216248,0.957031
1470330809379163,-0.189209,0.0379028,0.216248,0.957031
1470330809401183,-0.189209,0.0379028,0.216248,0.957031
1470330809422702,-0.189209,0.0376587,0.216248,0.957031
1470330809439217,-0.189026,0.0375366,0.216187,0.957092
1470330809461237,-0.188904,0.0374756,0.216125,0.957153
1470330809482258,-0.188904,0.0374756,0.216125,0.957153
1470330809498808,-0.188904,0.0374756,0.216125,0.957153
1470330809521314,-0.188965,0.0374756,0.216125,0.957153
1470330809542811,-0.188965,0.0374756,0.216125,0.957153
1470330809558829,-0.188965,0.0374756,0.216125,0.957153
1470330809581346,-0.188904,0.0374756,0.216125,0.957153
1470330809602865,-0.188965,0.0374756,0.216125,0.957153
1470330809618879,-0.188965,0.0374756,0.216125,0.957153
1470330809641411,-0.188965,0.0374756,0.216125,0.957153
1470330809663919,-0.189026,0.0375366,0.216125,0.957153
1470330809678935,-0.188965,0.0375366,0.216125,0.957153
1470330809701465,-0.188965,0.0375366,0.216125,0.957153
1470330809723993,-0.188965,0.0375366,0.216125,0.957153
1470330809739015,-0.188965,0.0375366,0.216125,0.957153
1470330809761529,-0.189026,0.0374756,0.216125,0.957153
1470330809784100,-0.189026,0.0374756,0.216125,0.957153
1470330809799040,-0.189026,0.0374756,0.216125,0.957092
1470330809821561,-0.189026,0.0374756,0.216125,0.957153
1470330809844082,-0.189026,0.0374756,0.216125,0.957153
1470330809865159,-0.189026,0.0374756,0.216125,0.957153
1470330809881632,-0.189026,0.0374756,0.216125,0.957153
1470330809904151,-0.189026,0.0374756,0.216125,0.957092
1470330809918154,-0.189026,0.0374756,0.216125,0.957092
1470330809941202,-0.189026,0.0374756,0.216125,0.957092
1470330809963688,-0.189087,0.0374756,0.216125,0.957092
1470330809985209,-0.189087,0.0374756,0.216125,0.957092
1470330810001221,-0.189026,0.0374756,0.216125,0.957092
1470330810024242,-0.189026,0.0375366,0.216125,0.957092
1470330810038256,-0.189087,0.0374756,0.216125,0.957092
1470330810061277,-0.189087,0.0374756,0.216125,0.957092
1470330810083796,-0.189087,0.0374756,0.216125,0.957092
1470330810098309,-0.189087,0.0374756,0.216125,0.957092
1470330810121330,-0.189087,0.0374756,0.216125,0.957092
1470330810143850,-0.189087,0.0374756,0.216125,0.957092
1470330810164871,-0.189087,0.0374756,0.216125,0.957092
1470330810181384,-0.189087,0.0374756,0.216125,0.957092
1470330810203905,-0.189087,0.0374756,0.216125,0.957092
1470330810224922,-0.189087,0.0374756,0.216125,0.957092
1470330810241437,-0.189087,0.0374756,0.216125,0.957092
1470330810263959,-0.189087,0.0374756,0.216125,0.957092
1470330810285001,-0.189148,0.0374146,0.216125,0.957092
1470330810301491,-0.189148,0.0374146,0.216125,0.957092
1470330810324012,-0.189087,0.0374146,0.216125,0.957092
1470330810345031,-0.189148,0.0374146,0.216125,0.957092
1470330810361552,-0.189148,0.0374146,0.216125,0.957092
1470330810384111,-0.189148,0.0374146,0.216125,0.957092
1470330810405176,-0.189148,0.0374146,0.216125,0.957092
1470330810421600,-0.18927,0.0372925,0.216125,0.957092
1470330810444119,-0.189331,0.0372925,0.216125,0.957092
1470330810465138,-0.189331,0.0372925,0.216125,0.957092
1470330810481157,-0.189331,0.0372314,0.216125,0.957092
1470330810504193,-0.189331,0.0372314,0.216125,0.957092
1470330810525192,-0.189331,0.0372314,0.216125,0.957092
1470330810541206,-0.189392,0.0372314,0.216125,0.957092
1470330810564226,-0.189392,0.0372314,0.216125,0.957092
1470330810585262,-0.189392,0.0372314,0.216125,0.957092
1470330810601261,-0.189392,0.0371704,0.216125,0.957092
1470330810623783,-0.189392,0.0371704,0.216064,0.957092
1470330810646316,-0.189392,0.0371704,0.216064,0.957092
1470330810661314,-0.189392,0.0371094,0.216064,0.957092
1470330810683835,-0.189453,0.0371094,0.216064,0.957092
1470330810706360,-0.189453,0.0371094,0.216064,0.957092
1470330810721368,-0.189453,0.0371094,0.216064,0.957092
1470330810743903,-0.189453,0.0370483,0.216064,0.957092
1470330810766409,-0.189453,0.0370483,0.216064,0.957092
1470330810780921,-0.189453,0.0370483,0.216064,0.957092
1470330810803943,-0.189697,0.0368652,0.216064,0.957031
1470330810826463,-0.189697,0.0368652,0.216064,0.957031
1470330810840479,-0.189697,0.0368652,0.216064,0.957031
1470330810864017,-0.189697,0.0368652,0.216064,0.957031
1470330810886517,-0.189758,0.0368652,0.216064,0.957031
1470330810900532,-0.189758,0.0368042,0.216064,0.957031
1470330810924050,-0.189758,0.0368042,0.216064,0.957031
1470330810946571,-0.189758,0.0368042,0.216064,0.957031
1470330810960584,-0.189758,0.0368042,0.216064,0.957031
1470330810984106,-0.189758,0.0368042,0.216064,0.957031
1470330811006124,-0.189758,0.0368042,0.216064,0.957031
1470330811020637,-0.189758,0.0368042,0.216064,0.957031
1470330811044158,-0.189758,0.0368042,0.216064,0.957031
1470330811066199,-0.189758,0.0367432,0.216064,0.957031
1470330811080691,-0.189758,0.0367432,0.216003,0.957031
1470330811103712,-0.189758,0.0367432,0.216003,0.957031
1470330811126733,-0.189819,0.0367432,0.216003,0.957031
1470330811147752,-0.189819,0.0367432,0.216003,0.957031
1470330811163766,-0.189819,0.0367432,0.216003,0.957031
1470330811186786,-0.189819,0.0366821,0.216003,0.957031
1470330811207841,-0.189819,0.0366821,0.216003,0.957031
1470330811223819,-0.18988,0.0366821,0.216003,0.957031
1470330811246380,-0.18988,0.0366821,0.216003,0.957031
1470330811267903,-0.18988,0.0366211,0.216003,0.957031
1470330811283873,-0.18988,0.0366211,0.216003,0.957031
1470330811306394,-0.18988,0.0366211,0.216003,0.957031
1470330811327427,-0.189941,0.0366211,0.216003,0.957031
1470330811343927,-0.189941,0.0366211,0.216003,0.957031
1470330811366448,-0.189941,0.0366211,0.216003,0.957031
1470330811387493,-0.189941,0.0366211,0.216003,0.957031
1470330811403981,-0.189941,0.0366211,0.216003,0.957031
1470330811426503,-0.189941,0.0366211,0.216003,0.957031
1470330811447547,-0.189941,0.0366211,0.216003,0.957031
1470330811464037,-0.190002,0.0366211,0.216003,0.95697
1470330811486555,-0.190002,0.0366211,0.216003,0.95697
1470330811507609,-0.190002,0.0366211,0.216003,0.95697
1470330811531095,-0.190002,0.0366211,0.216003,0.95697
1470330811546108,-0.190186,0.0365601,0.216003,0.95697
1470330811569129,-0.190491,0.0365601,0.216064,0.956909
1470330811584143,-0.190491,0.0365601,0.216064,0.956909
1470330811606662,-0.190491,0.0365601,0.216064,0.956909
1470330811629183,-0.190491,0.0365601,0.216064,0.956909
1470330811644215,-0.190552,0.036499,0.216064,0.956909
1470330811666717,-0.190552,0.036499,0.216064,0.956909
1470330811689286,-0.190552,0.036499,0.216064,0.956909
1470330811703250,-0.190552,0.0365601,0.216064,0.956848
1470330811726271,-0.190613,0.0365601,0.216064,0.956848
1470330811748801,-0.190735,0.0367432,0.216003,0.956848
1470330811763327,-0.190735,0.0372314,0.216248,0.956787
1470330811786325,-0.190796,0.0378418,0.216553,0.956665
1470330811808847,-0.190735,0.038147,0.216858,0.956604
1470330811823359,-0.190552,0.0383301,0.217163,0.956543
1470330811846378,-0.190369,0.0383301,0.217468,0.956543
1470330811868899,-0.190125,0.0380249,0.217896,0.956482
1470330811883416,-0.190063,0.0374756,0.218445,0.956421
1470330811913939,-0.18988,0.0368652,0.218872,0.95636
1470330811928954,-0.189392,0.036438,0.219238,0.95636
1470330811943505,-0.188721,0.0361938,0.219421,0.956482
1470330811966486,-0.188293,0.0361938,0.219604,0.956543
1470330811989007,-0.188293,0.0361938,0.219604,0.956543
1470330812003520,-0.188721,0.0361328,0.219604,0.956421
1470330812026540,-0.188721,0.0361328,0.219604,0.956421
1470330812049062,-0.188721,0.0361328,0.219604,0.956421
1470330812070079,-0.188538,0.0363159,0.219543,0.956482
1470330812087096,-0.188538,0.0363159,0.219543,0.956482
1470330812109142,-0.188477,0.0363159,0.219543,0.956482
1470330812130143,-0.188538,0.0363159,0.219543,0.956482
1470330812146650,-0.188538,0.0363159,0.219543,0.956482
1470330812169167,-0.188599,0.0363159,0.219543,0.956482
1470330812190187,-0.188599,0.036377,0.219543,0.956482
1470330812206702,-0.188599,0.0363159,0.219543,0.956482
1470330812228721,-0.188599,0.0363159,0.219543,0.956482
1470330812250241,-0.188599,0.0363159,0.219543,0.956482
1470330812266255,-0.188599,0.0363159,0.219543,0.956482
1470330812288775,-0.188599,0.036377,0.219543,0.956482
1470330812309850,-0.188599,0.036377,0.219543,0.956482
1470330812326329,-0.188599,0.036377,0.219543,0.956482
1470330812348829,-0.188599,0.0363159,0.219543,0.956482
1470330812370377,-0.188599,0.036377,0.219543,0.956482
1470330812386363,-0.188599,0.036377,0.219543,0.956482
1470330812408883,-0.188599,0.036377,0.219543,0.956482
1470330812429902,-0.18866,0.036377,0.219543,0.956482
1470330812446418,-0.18866,0.036377,0.219543,0.956482
1470330812468940,-0.18866,0.036377,0.219543,0.956482
1470330812490023,-0.188965,0.036377,0.219543,0.956421
1470330812506472,-0.188965,0.036377,0.219543,0.956421
1470330812528992,-0.188965,0.036377,0.219543,0.956421
1470330812551515,-0.189026,0.036377,0.219543,0.956421
1470330812566529,-0.189026,0.036377,0.219543,0.95636
1470330812589055,-0.189026,0.036377,0.219543,0.95636
1470330812611570,-0.189026,0.036377,0.219543,0.95636
1470330812626579,-0.189087,0.036377,0.219543,0.95636
1470330812649101,-0.189087,0.036377,0.219543,0.95636
1470330812671619,-0.189087,0.036377,0.219543,0.95636
1470330812685671,-0.189087,0.036377,0.219543,0.95636
1470330812709178,-0.189087,0.036377,0.219543,0.95636
1470330812731673,-0.189087,0.036377,0.219543,0.95636
1470330812745686,-0.189087,0.036438,0.219543,0.95636
1470330812769208,-0.189087,0.036377,0.219543,0.95636
1470330812791728,-0.189087,0.036377,0.219543,0.95636
1470330812805740,-0.189087,0.036377,0.219543,0.95636
1470330812828761,-0.189148,0.036438,0.219543,0.95636
1470330812851283,-0.189148,0.036438,0.219543,0.95636
1470330812865795,-0.189148,0.036438,0.219543,0.95636
1470330812888816,-0.189148,0.036438,0.219543,0.95636
1470330812911373,-0.189148,0.036438,0.219543,0.95636
1470330812925847,-0.189148,0.036438,0.219543,0.95636
1470330812948869,-0.189148,0.036438,0.219543,0.95636
1470330812971392,-0.189209,0.036438,0.219543,0.95636
1470330812985902,-0.189209,0.036438,0.219543,0.95636
1470330813008930,-0.18927,0.036438,0.219543,0.95636
1470330813031486,-0.18927,0.036438,0.219543,0.95636
1470330813052462,-0.18927,0.036438,0.219543,0.95636
1470330813068976,-0.18927,0.036438,0.219543,0.95636
1470330813091497,-0.18927,0.036438,0.219543,0.95636
1470330813112579,-0.18927,0.036438,0.219543,0.95636
1470330813129031,-0.18927,0.036438,0.219543,0.95636
1470330813151618,-0.189331,0.036438,0.219543,0.95636
1470330813172603,-0.189331,0.036377,0.219543,0.95636
1470330813189120,-0.189331,0.036377,0.219543,0.95636
1470330813211609,-0.189331,0.036377,0.219543,0.95636
1470330813232647,-0.189331,0.036377,0.219543,0.956299
1470330813249144,-0.189331,0.036377,0.219543,0.95636
1470330813271658,-0.189392,0.036377,0.219543,0.956299
1470330813292678,-0.189392,0.036377,0.219543,0.956299
1470330813309196,-0.189392,0.036377,0.219543,0.956299
1470330813331227,-0.189392,0.036377,0.219543,0.956299
1470330813352757,-0.189392,0.036377,0.219543,0.956299
1470330813368775,-0.189392,0.0363159,0.219543,0.956299
1470330813391266,-0.189453,0.0363159,0.219543,0.956299
1470330813412785,-0.189453,0.0363159,0.219543,0.956299
1470330813428800,-0.189453,0.0363159,0.219543,0.956299
1470330813457825,-0.189514,0.0363159,0.219482,0.956299
1470330813473840,-0.189514,0.0362549,0.219482,0.956299
1470330813496360,-0.189514,0.0362549,0.219482,0.956299
1470330813511375,-0.189514,0.0362549,0.219482,0.956299
1470330813533894,-0.189514,0.0362549,0.219482,0.956299
1470330813548907,-0.189514,0.0362549,0.219482,0.956299
1470330813571428,-0.189575,0.0362549,0.219482,0.956299
1470330813593947,-0.189575,0.0362549,0.219482,0.956299
1470330813616467,-0.189575,0.0362549,0.219482,0.956299
1470330813631502,-0.189575,0.0362549,0.219482,0.956299
1470330813654003,-0.189636,0.0361938,0.219482,0.956299
1470330813668517,-0.189636,0.0361938,0.219482,0.956299
1470330813691541,-0.189636,0.0361938,0.219482,0.956299
1470330813714105,-0.189636,0.0361328,0.219482,0.956299
1470330813736576,-0.189636,0.0361328,0.219482,0.956299
1470330813751615,-0.189697,0.0361328,0.219482,0.956299
1470330813774109,-0.189697,0.0361328,0.219482,0.956299
1470330813788127,-0.189697,0.0361328,0.219482,0.956299
1470330813811644,-0.189758,0.0361328,0.219482,0.956299
1470330813834163,-0.189758,0.0361328,0.219482,0.956299
1470330813848179,-0.189758,0.0360718,0.219482,0.956299
1470330813871697,-0.189758,0.0360718,0.219482,0.956299
1470330813894217,-0.189758,0.0360718,0.219421,0.956299
1470330813908233,-0.189819,0.0360718,0.219421,0.956299
1470330813931751,-0.189819,0.0360718,0.219421,0.956299
1470330813953772,-0.189819,0.0360718,0.219421,0.956299
1470330813974793,-0.189819,0.0360718,0.219421,0.956238
1470330813991304,-0.190125,0.0360107,0.219421,0.956238
1470330814013825,-0.190125,0.0360107,0.219421,0.956238
1470330814034855,-0.190125,0.0360107,0.219421,0.956238
1470330814051358,-0.190186,0.0360107,0.219421,0.956238
1470330814073881,-0.190186,0.0360107,0.219421,0.956238
1470330814095398,-0.190186,0.0360107,0.219421,0.956177
1470330814111448,-0.190247,0.0360107,0.219421,0.956177
1470330814133935,-0.190247,0.0360107,0.219421,0.956177
1470330814139488,-0.190247,0.0360107,0.219421,0.956177
1470330814161977,-0.190308,0.0360107,0.21936,0.956177
1470330814176974,-0.190308,0.0360107,0.21936,0.956177
1470330814199492,-0.190369,0.0359497,0.21936,0.956177
1470330814222020,-0.190369,0.0359497,0.21936,0.956177
1470330814237025,-0.19043,0.0359497,0.21936,0.956177
1470330814259545,-0.19043,0.0359497,0.21936,0.956177
1470330814282065,-0.19043,0.0359497,0.21936,0.956177
1470330814297078,-0.190491,0.0359497,0.21936,0.956177
1470330814319612,-0.190491,0.0359497,0.21936,0.956177
1470330814341660,-0.190491,0.0359497,0.21936,0.956177
1470330814357256,-0.190552,0.0359497,0.21936,0.956177
1470330814379178,-0.190552,0.0359497,0.21936,0.956116
1470330814401701,-0.190552,0.0359497,0.21936,0.956116
1470330814416686,-0.190613,0.0359497,0.21936,0.956116
1470330814439206,-0.190613,0.0359497,0.21936,0.956116
1470330814461737,-0.190613,0.0359497,0.21936,0.956116
1470330814476743,-0.190674,0.0359497,0.21936,0.956116
1470330814499312,-0.190857,0.0360718,0.219421,0.956055
1470330814521810,-0.191223,0.0361328,0.219482,0.955994
1470330814536794,-0.191284,0.0361328,0.219482,0.955994
1470330814559338,-0.191284,0.0361328,0.219482,0.955994
1470330814581868,-0.191284,0.0361328,0.219482,0.955994
1470330814596848,-0.191284,0.0361328,0.219482,0.955994
1470330814619382,-0.191345,0.0361328,0.219482,0.955933
1470330814642414,-0.191406,0.0361328,0.219421,0.955933
1470330814656927,-0.191345,0.036377,0.21936,0.955994
1470330814679953,-0.191284,0.0366211,0.219299,0.955994
1470330814701942,-0.191162,0.0369263,0.219299,0.955994
1470330814717046,-0.190857,0.0372314,0.219299,0.956055
1470330814739551,-0.19043,0.0376587,0.219299,0.956116
1470330814762071,-0.189941,0.0380249,0.219299,0.956177
1470330814777112,-0.189453,0.0385742,0.219238,0.956299
1470330814799618,-0.189087,0.0391235,0.219116,0.95636
1470330814822124,-0.188416,0.0396118,0.218872,0.956543
1470330814837138,-0.187866,0.0401001,0.218689,0.956665
1470330814860658,-0.187744,0.0404053,0.218567,0.956726
1470330814884693,-0.187744,0.0404053,0.218567,0.956726
1470330814897191,-0.187805,0.0404663,0.218567,0.956665
1470330814919225,-0.187805,0.0404663,0.218567,0.956665
1470330814942236,-0.187805,0.0404663,0.218567,0.956665
1470330814956772,-0.187805,0.0404663,0.218567,0.956665
1470330814979292,-0.188049,0.0404053,0.218689,0.956604
1470330815001802,-0.188354,0.0403442,0.21875,0.956543
1470330815018302,-0.188721,0.0402222,0.218872,0.956421
1470330815039321,-0.189148,0.0401611,0.218933,0.95636
1470330815061839,-0.189453,0.0400391,0.218994,0.956299
1470330815078354,-0.189758,0.039917,0.218994,0.956238
1470330815099374,-0.190125,0.039856,0.218994,0.956177
1470330815121938,-0.190369,0.0397339,0.218994,0.956116
1470330815138423,-0.19043,0.0397339,0.218994,0.956116
1470330815159463,-0.19043,0.0397339,0.218994,0.956116
1470330815181948,-0.19043,0.0397339,0.218994,0.956116
1470330815198464,-0.19043,0.0397339,0.218994,0.956116
1470330815219484,-0.19043,0.0397339,0.218994,0.956116
1470330815242041,-0.19043,0.0397339,0.218994,0.956116
1470330815258516,-0.190125,0.0397949,0.218933,0.956177
1470330815279534,-0.18988,0.039917,0.218872,0.956238
1470330815302055,-0.18988,0.039917,0.218872,0.956238
1470330815318606,-0.190247,0.0397949,0.218933,0.956177
1470330815339593,-0.190491,0.0396729,0.218933,0.956116
1470330815362113,-0.190491,0.0396729,0.218933,0.956116
1470330815379625,-0.190369,0.0397339,0.218933,0.956116
1470330815399647,-0.190369,0.0397339,0.218933,0.956116
1470330815422165,-0.190369,0.0397339,0.218933,0.956116
1470330815440208,-0.190369,0.0397339,0.218933,0.956116
1470330815459196,-0.190369,0.0397339,0.218933,0.956116
1470330815481716,-0.19043,0.0397339,0.218872,0.956116
1470330815499734,-0.19043,0.0397339,0.218872,0.956116
1470330815519250,-0.190552,0.0397339,0.218994,0.956055
1470330815541772,-0.190796,0.0396729,0.219177,0.955994
1470330815559817,-0.190796,0.0396729,0.219177,0.955994
1470330815579329,-0.190796,0.0396729,0.219177,0.955994
1470330815601838,-0.190796,0.0396729,0.219177,0.955994
1470330815619857,-0.190796,0.0396729,0.219177,0.955994
1470330815640859,-0.191101,0.0394897,0.219238,0.955933
1470330815661878,-0.191101,0.0394897,0.219238,0.955933
1470330815679935,-0.191162,0.0394897,0.219238,0.955933
1470330815699441,-0.191162,0.0394897,0.219238,0.955933
1470330815721933,-0.191162,0.0394897,0.219238,0.955933
1470330815739964,-0.191162,0.0394897,0.219238,0.955933
1470330815759500,-0.191162,0.0394897,0.219238,0.955933
1470330815782016,-0.191223,0.0394897,0.219238,0.955933
1470330815800003,-0.191223,0.0394897,0.219177,0.955933
1470330815819519,-0.191223,0.0394897,0.219177,0.955933
1470330815842072,-0.191223,0.0394897,0.219177,0.955933
1470330815860060,-0.191223,0.0394897,0.219177,0.955933
1470330815879573,-0.191223,0.0394287,0.219177,0.955933
1470330815902093,-0.191223,0.0394287,0.219177,0.955933
1470330815919610,-0.191101,0.0392456,0.219055,0.955994
1470330815939628,-0.191101,0.0392456,0.219055,0.955994
1470330815969655,-0.191101,0.0392456,0.219055,0.955994
1470330815979793,-0.191284,0.0390015,0.218994,0.955933
1470330816000682,-0.191284,0.0390015,0.218994,0.955933
1470330816021714,-0.191284,0.0390015,0.218994,0.955933
1470330816039769,-0.191284,0.0390015,0.218994,0.955933
1470330816060784,-0.191284,0.0389404,0.218994,0.955933
1470330816082255,-0.191284,0.0389404,0.218994,0.955994
1470330816099800,-0.191284,0.0389404,0.218994,0.955994
1470330816120790,-0.191345,0.0389404,0.218994,0.955933
1470330816141827,-0.191345,0.0389404,0.218994,0.955933
1470330816159830,-0.191345,0.0389404,0.218994,0.955933
1470330816180844,-0.191345,0.0389404,0.218994,0.955933
1470330816201888,-0.191345,0.0388794,0.218994,0.955933
1470330816219881,-0.191406,0.0388794,0.218994,0.955933
1470330816240905,-0.191406,0.0388794,0.218994,0.955933
1470330816261917,-0.191406,0.0388794,0.218933,0.955933
1470330816279953,-0.191406,0.0388184,0.218933,0.955933
1470330816302487,-0.191406,0.0388184,0.218933,0.955933
1470330816321991,-0.191406,0.0387573,0.218933,0.955933
1470330816338986,-0.191467,0.0388184,0.218933,0.955933
1470330816362506,-0.19165,0.0385132,0.219116,0.955872
1470330816382044,-0.19165,0.0384521,0.219116,0.955872
1470330816400047,-0.191528,0.0383911,0.219177,0.955933
1470330816422561,-0.191284,0.0383911,0.219177,0.955933
1470330816442078,-0.191284,0.0383301,0.219177,0.955933
1470330816460095,-0.191345,0.0383301,0.219177,0.955933
1470330816482729,-0.191345,0.0383301,0.219177,0.955933
1470330816502184,-0.191345,0.038269,0.219177,0.955933
1470330816519649,-0.191284,0.038269,0.219177,0.955933
1470330816542679,-0.191284,0.038269,0.219177,0.955933
1470330816562187,-0.191284,0.038269,0.219177,0.955933
1470330816579702,-0.191223,0.0383301,0.219116,0.955994
1470330816602222,-0.191162,0.0388184,0.219238,0.955933
1470330816622317,-0.191406,0.0391846,0.219604,0.955811
1470330816638778,-0.19165,0.0395508,0.21991,0.955627
1470330816661293,-0.191711,0.0397339,0.220093,0.955566
1470330816682794,-0.191589,0.0400391,0.220215,0.955566
1470330816698809,-0.191406,0.0402222,0.220276,0.955566
1470330816721330,-0.191406,0.0402832,0.220276,0.955566
1470330816742374,-0.191406,0.0402222,0.220276,0.955566
1470330816758878,-0.191406,0.0401611,0.220276,0.955627
1470330816787402,-0.191406,0.0401611,0.220276,0.955627
1470330816803903,-0.191589,0.0401001,0.220276,0.955566
1470330816818917,-0.191589,0.0401001,0.220276,0.955566
1470330816841438,-0.191711,0.0401611,0.220215,0.955566
1470330816862456,-0.191772,0.0401001,0.220215,0.955566
1470330816878972,-0.191711,0.039856,0.220154,0.955566
1470330816901491,-0.191711,0.0391235,0.220276,0.955566
1470330816922510,-0.192261,0.0368652,0.221375,0.955322
1470330816939025,-0.195129,0.0321045,0.22345,0.954407
1470330816961545,-0.199646,0.0268555,0.226257,0.953003
1470330816982564,-0.204102,0.0220337,0.229675,0.951355
1470330816999079,-0.206482,0.0175781,0.234314,0.949768
1470330817021604,-0.204407,0.0161133,0.240295,0.948792
1470330817042659,-0.195679,0.0195923,0.249023,0.948303
1470330817058134,-0.183777,0.0258789,0.261292,0.947205
1470330817082164,-0.176575,0.0320435,0.277954,0.943665
1470330817102671,-0.173096,0.0344849,0.29834,0.937927
1470330817118705,-0.169434,0.0355835,0.319702,0.931519
1470330817141208,-0.161011,0.038208,0.340698,0.925476
1470330817162754,-0.150452,0.0426025,0.359863,0.919739
1470330817178240,-0.141602,0.046814,0.377136,0.914001
1470330817201284,-0.134888,0.0496216,0.393555,0.907959
1470330817222779,-0.1297,0.0516968,0.408447,0.901978
1470330817238294,-0.120544,0.0527954,0.421387,0.897217
1470330817261313,-0.107666,0.0531006,0.432373,0.893616
1470330817284837,-0.0927124,0.0516968,0.440552,0.891357
1470330817298348,-0.0786133,0.0480957,0.446289,0.890076
1470330817321368,-0.067627,0.041748,0.4505,0.889221
1470330817343890,-0.0605469,0.032959,0.453796,0.888367
1470330817358419,-0.0540161,0.0239868,0.456116,0.887878
1470330817381422,-0.0455933,0.0169678,0.457397,0.887878
1470330817403943,-0.0340576,0.013855,0.457886,0.888184
1470330817418457,-0.0256958,0.010437,0.457947,0.888489
1470330817441492,-0.020874,0.00708008,0.458313,0.888489
1470330817463998,-0.0176392,0.003479,0.459167,0.888123
1470330817478509,-0.0148926,0.000854492,0.459961,0.887756
1470330817501530,-0.0125732,-0.000732422,0.460632,0.887451
1470330817524064,-0.0109253,-0.00183105,0.460754,0.887451
1470330817546579,-0.00970459,-0.00305176,0.46051,0.887573
1470330817561601,-0.00897217,-0.00390625,0.460571,0.887512
1470330817584120,-0.00811768,-0.00415039,0.460938,0.887329
1470330817598126,-0.00695801,-0.00366211,0.461609,0.887024
1470330817621646,-0.00592041,-0.00262451,0.461853,0.886902
1470330817644167,-0.00585938,-0.00286865,0.462524,0.886536
1470330817658179,-0.00543213,-0.00341797,0.463501,0.886047
1470330817681201,-0.00408936,-0.00317383,0.464478,0.885559
1470330817704247,-0.00299072,-0.00317383,0.465698,0.884888
1470330817718233,-0.00158691,-0.00213623,0.466614,0.884399
1470330817741253,-0.00146484,-0.00128174,0.467346,0.884033
1470330817764274,-0.00341797,-0.00189209,0.468262,0.883545
1470330817785325,-0.00616455,-0.00305176,0.46936,0.882935
1470330817801809,-0.00726318,-0.00323486,0.470093,0.882507
1470330817823828,-0.00683594,-0.00311279,0.470947,0.88208
1470330817845427,-0.00549316,-0.00274658,0.472229,0.881409
1470330817861364,-0.00390625,-0.00177002,0.473267,0.880859
1470330817883881,-0.00341797,-0.00134277,0.47467,0.880127
1470330817905400,-0.00341797,-0.00195313,0.476624,0.879028
1470330817921417,6.10352e-05,-0.00421143,0.477539,0.87854
1470330817943943,0.00158691,-0.00421143,0.479797,0.877319
1470330817965010,0.00286865,-0.00463867,0.480591,0.876892
1470330817981503,0.00427246,-0.00537109,0.482666,0.875732
1470330818003989,0.00457764,-0.00250244,0.484497,0.874756
1470330818025041,0.00640869,-0.000488281,0.483643,0.875183
1470330818041523,0.00640869,-0.00238037,0.483337,0.875366
1470330818064046,0.00549316,-0.00268555,0.483154,0.875488
1470330818085097,0.00421143,-0.00360107,0.482117,0.876038
1470330818101579,0.0032959,-0.00494385,0.481262,0.876526
1470330818124097,0.00317383,-0.00494385,0.480042,0.877197
1470330818145116,0.00299072,-0.00408936,0.479553,0.877441
1470330818161131,0.00189209,-0.00268555,0.480103,0.877136
1470330818183650,-0.000549316,-0.00280762,0.481262,0.876526
1470330818214178,-0.00317383,-0.00463867,0.482178,0.876038
1470330818221184,-0.003479,-0.00439453,0.483154,0.875488
1470330818244224,-0.00219727,-0.00274658,0.483948,0.875061
1470330818266743,-0.0010376,-0.000488281,0.484436,0.874756
1470330818280740,-0.00189209,0.000976563,0.484436,0.874817
1470330818304258,-0.00482178,0.00189209,0.483582,0.875244
1470330818326821,-0.00805664,0.0032959,0.482422,0.875854
1470330818347798,-0.0114746,0.00543213,0.480347,0.876953
1470330818364312,-0.0151978,0.00830078,0.477051,0.878662
1470330818386833,-0.0194092,0.0112305,0.472534,0.880981
1470330818400846,-0.0253296,0.0127563,0.466919,0.883789
1470330818424369,-0.0321655,0.0134888,0.460388,0.886963
1470330818446386,-0.0388794,0.0147095,0.45282,0.890564
1470330818468925,-0.0445557,0.0165405,0.444458,0.894531
1470330818483920,-0.0491333,0.0184937,0.435059,0.898865
1470330818506440,-0.0527954,0.0203247,0.424316,0.903687
1470330818527961,-0.0563354,0.0217285,0.412781,0.908752
1470330818543976,-0.0602417,0.0227661,0.400879,0.913818
1470330818566496,-0.0646362,0.0234375,0.388794,0.918701
1470330818587519,-0.069519,0.0233154,0.37616,0.923584
1470330818604028,-0.0742798,0.0228882,0.363037,0.928467
1470330818626549,-0.0789185,0.0221558,0.349487,0.933289
1470330818647582,-0.0839233,0.020813,0.335754,0.937927
1470330818664081,-0.0899658,0.0186157,0.322266,0.942139
1470330818686605,-0.0967407,0.015625,0.309204,0.945862
1470330818707639,-0.102905,0.0126343,0.297363,0.949097
1470330818724136,-0.107056,0.0100708,0.286499,0.951965
1470330818746656,-0.110718,0.00836182,0.276245,0.95459
1470330818767676,-0.116882,0.00610352,0.267517,0.95636
1470330818784191,-0.124695,0.00244141,0.259521,0.957642
1470330818806710,-0.132202,-0.000305176,0.253174,0.958313
1470330818827729,-0.139282,0.000976563,0.247681,0.95874
1470330818844244,-0.146667,0.00616455,0.243713,0.958618
1470330818866764,-0.15448,0.0107422,0.240417,0.958191
1470330818887782,-0.16272,0.0119019,0.237732,0.95752
1470330818904297,-0.167847,0.0126343,0.235107,0.957275
1470330818926331,-0.16803,0.0148315,0.232544,0.957825
1470330818947837,-0.166138,0.0168457,0.230408,0.958618
1470330818963853,-0.165344,0.0175171,0.229248,0.959045
1470330818986371,-0.165527,0.0167847,0.228943,0.959106
1470330819007891,-0.164612,0.0158691,0.228882,0.95929
1470330819024405,-0.162354,0.0153198,0.229187,0.959595
1470330819046425,-0.15979,0.0148926,0.229492,0.959961
1470330819068952,-0.15741,0.0143433,0.229797,0.960266
1470330819083959,-0.155334,0.013855,0.230103,0.960571
1470330819106481,-0.153809,0.0132446,0.230164,0.960815
1470330819127498,-0.152832,0.0125122,0.229919,0.960999
1470330819144013,-0.152893,0.0118408,0.229675,0.96106
1470330819166533,-0.153198,0.0114136,0.22937,0.961121
1470330819189054,-0.153137,0.0111694,0.228699,0.961304
1470330819204067,-0.152954,0.0110474,0.2276,0.961548
1470330819226588,-0.153076,0.0109253,0.226257,0.961853
1470330819249108,-0.153992,0.0106812,0.224792,0.962097
1470330819264122,-0.155701,0.0103149,0.223389,0.962158
1470330819286640,-0.157715,0.00982666,0.222107,0.962097
1470330819309177,-0.159302,0.00958252,0.220886,0.962097
1470330819323694,-0.160339,0.00970459,0.219666,0.962219
1470330819346703,-0.161438,0.0100098,0.218323,0.962341
1470330819369215,-0.163025,0.0100708,0.21698,0.962402
1470330819383228,-0.164978,0.0100708,0.215881,0.96228
1470330819406749,-0.166748,0.0100708,0.215149,0.962158
1470330819429269,-0.167847,0.0101929,0.214722,0.962036
1470330819443283,-0.168457,0.0105591,0.214478,0.962036
1470330819466333,-0.168762,0.0108032,0.214478,0.961914
1470330819489344,-0.169128,0.0109863,0.214661,0.961853
1470330819503338,-0.169617,0.0108643,0.214844,0.961731
1470330819526396,-0.170044,0.0106812,0.214966,0.961609
1470330819548909,-0.170227,0.010437,0.215088,0.961548
1470330819563392,-0.170593,0.0101929,0.215332,0.961426
1470330819586410,-0.170959,0.00994873,0.215515,0.961365
1470330819608930,-0.171204,0.00964355,0.215698,0.961243
1470330819629949,-0.171631,0.00939941,0.21582,0.961182
1470330819646465,-0.171997,0.00933838,0.215881,0.96106
1470330819668984,-0.172607,0.00933838,0.215881,0.960999
1470330819690064,-0.173523,0.00952148,0.216003,0.960754
1470330819706548,-0.174805,0.00994873,0.216064,0.96051
1470330819729038,-0.175598,0.0106201,0.216003,0.960388
1470330819750090,-0.176086,0.0113525,0.215698,0.960327
1470330819766574,-0.176941,0.0119019,0.215454,0.960266
1470330819789092,-0.178162,0.012146,0.215332,0.960022
1470330819810136,-0.179138,0.0123291,0.215271,0.9599
1470330819826627,-0.179565,0.0124512,0.215332,0.959778
1470330819849146,-0.179565,0.0127563,0.215454,0.959717
1470330819870165,-0.179688,0.0129395,0.215637,0.959656
1470330819886680,-0.179871,0.0129395,0.21582,0.959595
1470330819909217,-0.179871,0.0129395,0.21582,0.959595
1470330819930291,-0.179626,0.0129395,0.216003,0.959595
1470330819946733,-0.179565,0.0127563,0.216309,0.959534
1470330819968852,-0.179688,0.0124512,0.216553,0.959473
1470330819989869,-0.179993,0.0122681,0.216675,0.959412
1470330820006384,-0.180359,0.012085,0.216797,0.95929
1470330820028903,-0.180725,0.0117188,0.216736,0.959229
1470330820050475,-0.180908,0.0114746,0.216492,0.95929
1470330820066448,-0.180908,0.0115356,0.216187,0.959351
1470330820088957,-0.181091,0.0115356,0.216064,0.959351
1470330820111496,-0.181274,0.0115967,0.215942,0.959351
1470330820125991,-0.18103,0.0115356,0.215698,0.959412
1470330820149048,-0.180481,0.0116577,0.215576,0.959534
1470330820171534,-0.180481,0.0116577,0.215576,0.959534
1470330820186545,-0.180481,0.0116577,0.215576,0.959534
1470330820209066,-0.18042,0.0119019,0.215637,0.959534
1470330820231585,-0.179932,0.0123291,0.215637,0.959656
1470330820246098,-0.179138,0.0127563,0.215576,0.959778
1470330820269120,-0.17865,0.0130615,0.215515,0.9599
1470330820291640,-0.17865,0.0130615,0.215515,0.9599
1470330820306153,-0.17865,0.0130615,0.215454,0.9599
1470330820329173,-0.17865,0.0130615,0.215454,0.9599
1470330820351699,-0.178345,0.0131836,0.215515,0.959961
1470330820365705,-0.178284,0.0131226,0.215515,0.959961
1470330820389227,-0.178345,0.0134277,0.215637,0.9599
1470330820411749,-0.178711,0.0136108,0.215942,0.959778
1470330820425760,-0.179016,0.0137939,0.216248,0.959656
1470330820449282,-0.179016,0.0137939,0.216248,0.959656
1470330820471301,-0.179016,0.0137939,0.216248,0.959656
1470330820485814,-0.179077,0.0137329,0.216309,0.959656
1470330820516341,-0.179077,0.0134277,0.21637,0.959595
1470330820531355,-0.178955,0.0131226,0.21637,0.959656
1470330820545868,-0.178711,0.0129395,0.216553,0.959656
1470330820568902,-0.178345,0.0129395,0.216858,0.959656
1470330820591409,-0.177856,0.0131226,0.217102,0.959656
1470330820612453,-0.177612,0.0133667,0.217346,0.959656
1470330820628944,-0.177795,0.0136108,0.217346,0.959656
1470330820651462,-0.178284,0.0137329,0.217224,0.959595
1470330820672498,-0.178528,0.0140991,0.21698,0.959595
1470330820689003,-0.178528,0.0144043,0.216675,0.959656
1470330820711519,-0.178528,0.0146484,0.21637,0.959717
1470330820732569,-0.178772,0.0147705,0.216187,0.959717
1470330820749051,-0.179016,0.0147095,0.216003,0.959717
1470330820771571,-0.179016,0.0147095,0.216003,0.959717
1470330820792594,-0.178955,0.0147095,0.216003,0.959717
1470330820809106,-0.178955,0.0147095,0.216003,0.959717
1470330820831627,-0.179138,0.0147095,0.215942,0.959717
1470330820852676,-0.179321,0.0146484,0.21582,0.959656
1470330820869158,-0.179321,0.0146484,0.21582,0.959717
1470330820891716,-0.179321,0.0146484,0.21582,0.959656
1470330820912698,-0.179504,0.0148315,0.215637,0.959656
1470330820929212,-0.179626,0.0150146,0.215454,0.959717
1470330820951732,-0.17981,0.0151978,0.21521,0.959717
1470330820972751,-0.180176,0.0154419,0.215027,0.959717
1470330820988765,-0.180359,0.015564,0.214783,0.959717
1470330821011786,-0.180481,0.0158691,0.214478,0.959717
1470330821032805,-0.180664,0.0161133,0.214355,0.959717
1470330821048863,-0.18103,0.0162964,0.214233,0.959717
1470330821071876,-0.181274,0.0164795,0.214111,0.959656
1470330821093859,-0.181274,0.0164795,0.214111,0.959656
1470330821108875,-0.181274,0.0164795,0.214111,0.959656
1470330821131397,-0.181274,0.0164185,0.214111,0.959656
1470330821153914,-0.181274,0.0164795,0.214111,0.959656
1470330821168438,-0.181519,0.0165405,0.214111,0.959656
1470330821191447,-0.181763,0.0166626,0.214111,0.959595
1470330821213968,-0.182007,0.0168457,0.21405,0.959534
1470330821228513,-0.182251,0.0170898,0.213989,0.959534
1470330821251544,-0.182495,0.0172729,0.213867,0.959473
1470330821274025,-0.182678,0.0174561,0.213806,0.959473
1470330821288593,-0.182922,0.0175781,0.213684,0.959412
1470330821311563,-0.183228,0.0177612,0.213623,0.959412
1470330821334117,-0.183472,0.0178833,0.213562,0.959351
1470330821348611,-0.183655,0.0181885,0.213562,0.95929
1470330821371609,-0.183838,0.0185547,0.213501,0.95929
1470330821394130,-0.184082,0.0188599,0.21344,0.959229
1470330821408643,-0.184387,0.019043,0.213318,0.959229
1470330821431663,-0.184631,0.019165,0.213196,0.959167
1470330821454199,-0.184631,0.019165,0.213196,0.959167
1470330821468696,-0.18457,0.019165,0.213196,0.959229
1470330821491725,-0.18457,0.019165,0.213196,0.959229
1470330821521743,-0.184509,0.019165,0.213196,0.959229
1470330821528754,-0.184631,0.019043,0.213257,0.959167
1470330821551770,-0.184631,0.019043,0.213257,0.959167
1470330821574292,-0.184631,0.019104,0.213257,0.959167
1470330821595318,-0.184631,0.019104,0.213257,0.959167
1470330821611329,-0.184631,0.019043,0.213257,0.959167
1470330821633845,-0.184631,0.019104,0.213257,0.959167
1470330821655462,-0.184631,0.019043,0.213257,0.959167
1470330821671379,-0.184631,0.019043,0.213257,0.959167
1470330821693909,-0.184631,0.019043,0.213257,0.959167
1470330821714961,-0.184631,0.019043,0.213257,0.959167
1470330821731436,-0.184631,0.019043,0.213257,0.959167
1470330821753952,-0.184631,0.019043,0.213257,0.959167
1470330821775000,-0.184631,0.019043,0.213257,0.959167
1470330821791501,-0.184631,0.019043,0.213257,0.959167
1470330821814008,-0.184631,0.019043,0.213257,0.959167
1470330821819513,-0.184631,0.019043,0.213257,0.959167
1470330821842031,-0.184814,0.0189819,0.213196,0.959167
1470330821857067,-0.184814,0.0189819,0.213196,0.959167
1470330821879631,-0.184753,0.0189819,0.213196,0.959167
1470330821902088,-0.184753,0.0189819,0.213257,0.959167
1470330821917120,-0.184753,0.0189819,0.213257,0.959167
1470330821939619,-0.184937,0.0189209,0.213196,0.959106
1470330821962172,-0.184998,0.0188599,0.213196,0.959106
1470330821977152,-0.184998,0.0189209,0.213196,0.959106
1470330821999673,-0.184998,0.0189209,0.213196,0.959106
1470330822022193,-0.18512,0.019165,0.213257,0.959045
1470330822037207,-0.185242,0.0193481,0.21344,0.958984
1470330822059726,-0.185242,0.0195923,0.213684,0.958923
1470330822081789,-0.185059,0.0198364,0.213806,0.958923
1470330822097293,-0.185059,0.0198364,0.213806,0.958923
1470330822119781,-0.185059,0.0198975,0.213806,0.958923
1470330822142343,-0.185242,0.0200806,0.213928,0.958862
1470330822156832,-0.185242,0.0202637,0.214172,0.958801
1470330822179844,-0.185303,0.0202637,0.214172,0.958801
1470330822201899,-0.185303,0.0202637,0.214172,0.958801
1470330822218369,-0.185303,0.0202637,0.214172,0.958801
1470330822239390,-0.185303,0.0202637,0.214172,0.958801
1470330822261944,-0.185303,0.0203247,0.214172,0.958801
1470330822276925,-0.185547,0.0202637,0.214233,0.95874
1470330822299494,-0.185547,0.0202637,0.214233,0.95874
1470330822321962,-0.185547,0.0202637,0.214233,0.95874
1470330822336978,-0.185547,0.0203247,0.214233,0.95874
1470330822359498,-0.185547,0.0203247,0.214233,0.95874
1470330822382046,-0.185547,0.0203247,0.214233,0.95874
1470330822397058,-0.185547,0.0203247,0.214233,0.95874
1470330822419553,-0.185486,0.0203247,0.214233,0.95874
1470330822442090,-0.185486,0.0203247,0.214233,0.95874
1470330822460086,-0.185486,0.0203247,0.214233,0.95874
1470330822479604,-0.185486,0.0203247,0.214233,0.95874
1470330822502140,-0.185547,0.0203857,0.214233,0.95874
1470330822517138,-0.185547,0.0203247,0.214233,0.95874
1470330822539658,-0.185547,0.0203247,0.214233,0.95874
1470330822562178,-0.185608,0.0203247,0.214233,0.95874
1470330822578692,-0.185791,0.0202637,0.214172,0.95874
1470330822599711,-0.185974,0.0201416,0.214111,0.958679
1470330822622257,-0.185974,0.0201416,0.214111,0.958679
1470330822638278,-0.185974,0.0201416,0.214111,0.958679
1470330822659766,-0.186035,0.0201416,0.214111,0.958679
1470330822681786,-0.186035,0.0201416,0.21405,0.958679
1470330822698300,-0.186035,0.0201416,0.21405,0.958679
1470330822719319,-0.186035,0.0201416,0.21405,0.958679
1470330822742376,-0.186035,0.0201416,0.21405,0.958679
1470330822758354,-0.186096,0.0201416,0.21405,0.958679
1470330822779374,-0.186218,0.0198975,0.213989,0.958679
1470330822801944,-0.186462,0.0197144,0.213928,0.958679
1470330822818409,-0.186462,0.0197144,0.213928,0.958679
1470330822839458,-0.186462,0.0197144,0.213928,0.958679
1470330822861951,-0.186462,0.0197144,0.213928,0.958679
1470330822878463,-0.186462,0.0196533,0.213928,0.958679
1470330822899482,-0.186462,0.0196533,0.213867,0.958679
1470330822922002,-0.186462,0.0196533,0.213867,0.958679
1470330822940052,-0.186462,0.0196533,0.213867,0.958679
1470330822959598,-0.186523,0.0196533,0.213867,0.958679
1470330822982112,-0.186523,0.0196533,0.213867,0.958679
1470330823000151,-0.186523,0.0196533,0.213867,0.958679
1470330823019594,-0.186523,0.0196533,0.213867,0.958679
1470330823042132,-0.186523,0.0196533,0.213867,0.958679
1470330823060209,-0.186523,0.0196533,0.213867,0.958618
1470330823079643,-0.186707,0.0195923,0.213867,0.958618
1470330823102163,-0.186707,0.0195313,0.213867,0.958618
1470330823120179,-0.186707,0.0195923,0.213867,0.958618
1470330823139697,-0.186768,0.0195923,0.213867,0.958618
1470330823162331,-0.186768,0.0195313,0.213867,0.958618
1470330823179765,-0.186768,0.0195923,0.213867,0.958618
1470330823199250,-0.186768,0.0195923,0.213867,0.958618
1470330823222278,-0.186768,0.0195923,0.213867,0.958618
1470330823240310,-0.186768,0.0195923,0.213867,0.958618
1470330823259342,-0.186829,0.0195313,0.213806,0.958618
1470330823282325,-0.186829,0.0195313,0.213806,0.958618
1470330823299843,-0.186829,0.0195313,0.213806,0.958618
1470330823319359,-0.186829,0.0195313,0.213806,0.958618
1470330823341879,-0.186829,0.0195313,0.213806,0.958618
1470330823359897,-0.186829,0.0195313,0.213806,0.958618
1470330823379445,-0.18689,0.0195313,0.213806,0.958618
1470330823401998,-0.18689,0.0195313,0.213806,0.958618
1470330823419962,-0.18689,0.0195313,0.213806,0.958618
1470330823439482,-0.18689,0.0195313,0.213806,0.958618
1470330823464989,-0.186951,0.0195313,0.213806,0.958618
1470330823487509,-0.186951,0.0195313,0.213806,0.958618
1470330823499519,-0.186951,0.0195313,0.213806,0.958557
1470330823529574,-0.186951,0.0194702,0.213806,0.958618
1470330823540057,-0.186951,0.0194702,0.213806,0.958557
1470330823561083,-0.186951,0.0194702,0.213806,0.958557
1470330823582094,-0.186951,0.0194702,0.213806,0.958557
1470330823600110,-0.187012,0.0195313,0.213806,0.958557
1470330823621140,-0.187012,0.0195313,0.213806,0.958557
1470330823642148,-0.187012,0.0195313,0.213806,0.958557
1470330823660165,-0.187073,0.0195313,0.213806,0.958557
1470330823680682,-0.187073,0.0195313,0.213806,0.958557
1470330823701744,-0.187073,0.0195313,0.213806,0.958557
1470330823727752,-0.187073,0.0197144,0.21405,0.958496
1470330823740736,-0.187134,0.0200195,0.214355,0.958435
1470330823764776,-0.187134,0.0203247,0.2146,0.958374
1470330823779773,-0.187134,0.0203857,0.2146,0.958374
1470330823800793,-0.187195,0.0203857,0.2146,0.958374
1470330823822309,-0.187195,0.0203857,0.2146,0.958374
1470330823839834,-0.187195,0.0203857,0.2146,0.958374
1470330823860888,-0.187256,0.0203857,0.2146,0.958374
1470330823881936,-0.187256,0.0203857,0.2146,0.958313
1470330823899943,-0.187256,0.0203857,0.2146,0.958313
1470330823922433,-0.187256,0.0203857,0.2146,0.958313
1470330823941973,-0.187256,0.0203857,0.2146,0.958313
1470330823959986,-0.187317,0.0203857,0.2146,0.958313
1470330823982454,-0.187317,0.0203857,0.2146,0.958313
1470330824001987,-0.187317,0.0203857,0.2146,0.958313
1470330824019988,-0.187317,0.0203857,0.2146,0.958313
1470330824042508,-0.187317,0.0203857,0.2146,0.958313
1470330824062091,-0.187317,0.0204468,0.2146,0.958313
1470330824080095,-0.187317,0.0204468,0.2146,0.958313
1470330824102585,-0.187378,0.0204468,0.2146,0.958313
1470330824122125,-0.187378,0.0203857,0.2146,0.958313
1470330824140104,-0.187378,0.0204468,0.2146,0.958313
1470330824162646,-0.187378,0.0204468,0.2146,0.958313
1470330824182163,-0.187378,0.0204468,0.2146,0.958313
1470330824200149,-0.187378,0.0203857,0.214539,0.958313
1470330824222681,-0.187439,0.0203857,0.214539,0.958313
1470330824242279,-0.187439,0.0203857,0.214539,0.958313
1470330824260203,-0.187439,0.0203857,0.214539,0.958313
1470330824282237,-0.187439,0.0203857,0.214539,0.958313
1470330824302341,-0.187439,0.0203857,0.214539,0.958313
1470330824319256,-0.187439,0.0203857,0.214539,0.958313
1470330824341284,-0.1875,0.0203857,0.214539,0.958313
1470330824362866,-0.1875,0.0203247,0.214539,0.958313
1470330824378857,-0.1875,0.0203247,0.214539,0.958313
1470330824401851,-0.1875,0.0203247,0.214539,0.958313
1470330824422848,-0.187683,0.0205078,0.214478,0.958252
1470330824438863,-0.187805,0.020813,0.214539,0.958252
1470330824461884,-0.187927,0.0211182,0.2146,0.958191
1470330824482905,-0.187988,0.0213623,0.214722,0.95813
1470330824498924,-0.187805,0.0217285,0.214966,0.95813
1470330824521439,-0.187805,0.0219116,0.215149,0.958069
1470330824543027,-0.187866,0.0221558,0.215393,0.958008
1470330824558971,-0.188049,0.0221558,0.215576,0.957947
1470330824581493,-0.187988,0.0222778,0.215759,0.957886
1470330824602510,-0.188049,0.0222778,0.215759,0.957886
1470330824619076,-0.188049,0.0222778,0.215759,0.957886
1470330824641545,-0.188049,0.0222778,0.215759,0.957886
1470330824662578,-0.18811,0.0222778,0.215759,0.957886
1470330824679079,-0.18811,0.0222778,0.215759,0.957886
1470330824701637,-0.18811,0.0222778,0.215759,0.957886
1470330824722663,-0.18811,0.0222778,0.215759,0.957886
1470330824739133,-0.18811,0.0222778,0.215759,0.957886
1470330824761654,-0.18811,0.0222778,0.215759,0.957886
1470330824782676,-0.18811,0.0222778,0.215759,0.957886
1470330824799216,-0.18811,0.0222778,0.215759,0.957886
1470330824821707,-0.188171,0.0222778,0.215759,0.957886
1470330824844229,-0.188171,0.0222778,0.215759,0.957886
1470330824859241,-0.188171,0.0222778,0.215698,0.957886
1470330824881762,-0.188171,0.0222778,0.215698,0.957886
1470330824904281,-0.188171,0.0222778,0.215698,0.957886
1470330824918795,-0.188171,0.0222778,0.215698,0.957886
1470330824941825,-0.188171,0.0222778,0.215698,0.957886
1470330824964334,-0.188171,0.0222778,0.215698,0.957886
1470330824978848,-0.188171,0.0222778,0.215698,0.957886
1470330825001868,-0.188232,0.0222168,0.215698,0.957825
1470330825024388,-0.188232,0.0222168,0.215698,0.957825
1470330825038447,-0.188232,0.0222168,0.215698,0.957825
1470330825061422,-0.188232,0.0222168,0.215698,0.957825
1470330825083942,-0.188293,0.0222168,0.215698,0.957825
1470330825098456,-0.188293,0.0222168,0.215698,0.957825
1470330825128983,-0.188049,0.0222778,0.215759,0.957886
1470330825143996,-0.187805,0.0223389,0.21582,0.957886
1470330825158510,-0.187317,0.0222778,0.215942,0.957947
1470330825181530,-0.186768,0.0222168,0.216064,0.958069
1470330825204052,-0.186157,0.0221558,0.216309,0.95813
1470330825218563,-0.185364,0.0220947,0.216736,0.958191
1470330825241584,-0.184448,0.0217896,0.217468,0.958191
1470330825264106,-0.183594,0.0216064,0.218445,0.95813
1470330825278620,-0.18335,0.0211182,0.219666,0.957947
1470330825301638,-0.184021,0.0198364,0.220947,0.95752
1470330825324157,-0.184387,0.019104,0.222229,0.957214
1470330825345181,-0.184387,0.019104,0.223022,0.95697
1470330825361691,-0.18335,0.019165,0.223511,0.957092
1470330825384211,-0.181335,0.0197754,0.22406,0.957336
1470330825405232,-0.179321,0.0205688,0.225037,0.957458
1470330825421746,-0.177429,0.0212402,0.226135,0.95752
1470330825444282,-0.175659,0.0219116,0.227173,0.957581
1470330825465294,-0.174255,0.0222778,0.228271,0.957581
1470330825481836,-0.172913,0.0221558,0.229187,0.957581
1470330825504320,-0.171387,0.0217896,0.230103,0.957703
1470330825525343,-0.169373,0.0213623,0.231079,0.957825
1470330825547860,-0.167236,0.0209351,0.231812,0.958008
1470330825564378,-0.164917,0.0204468,0.2323,0.958313
1470330825585392,-0.162781,0.0201416,0.232483,0.958618
1470330825601407,-0.161255,0.0196533,0.232361,0.958923
1470330825624428,-0.160034,0.0188599,0.231934,0.95929
1470330825645450,-0.159241,0.0181885,0.231323,0.959534
1470330825661463,-0.158813,0.017334,0.230713,0.959778
1470330825683986,-0.158813,0.0164795,0.230164,0.9599
1470330825705501,-0.159241,0.015564,0.229797,0.959961
1470330825721548,-0.159668,0.0147095,0.229675,0.959961
1470330825744098,-0.159729,0.0141602,0.229675,0.959961
1470330825766573,-0.159607,0.0139771,0.229736,0.959961
1470330825781068,-0.159729,0.0137939,0.229797,0.9599
1470330825804089,-0.160217,0.0136108,0.229797,0.959839
1470330825826611,-0.160645,0.0134277,0.229675,0.959778
1470330825841623,-0.160706,0.0133057,0.229553,0.959839
1470330825864143,-0.160339,0.0131836,0.229492,0.9599
1470330825886663,-0.160522,0.0128174,0.229248,0.9599
1470330825901701,-0.16095,0.0122681,0.229126,0.9599
1470330825924197,-0.161194,0.0117188,0.229309,0.959839
1470330825946722,-0.160522,0.0115967,0.229553,0.959839
1470330825960730,-0.159424,0.0118408,0.229614,0.960022
1470330825984251,-0.158875,0.0116577,0.22998,0.960022
1470330826006771,-0.157898,0.0114746,0.230774,0.960022
1470330826020783,-0.156555,0.0115967,0.231628,0.960022
1470330826044305,-0.155334,0.0114136,0.2323,0.960083
1470330826066824,-0.154541,0.0107422,0.233032,0.960022
1470330826080837,-0.15332,0.0102539,0.234009,0.959961
1470330826104358,-0.151611,0.0100708,0.235229,0.959961
1470330826126883,-0.149658,0.00970459,0.236328,0.959961
1470330826140891,-0.147949,0.00921631,0.237427,0.960022
1470330826163914,-0.147217,0.00872803,0.238464,0.959839
1470330826186432,-0.147095,0.00817871,0.239136,0.959717
1470330826200949,-0.146912,0.00769043,0.239502,0.959656
1470330826223966,-0.146179,0.00744629,0.239929,0.959656
1470330826246488,-0.145386,0.00762939,0.240173,0.959717
1470330826268008,-0.144836,0.00787354,0.24054,0.959717
1470330826284067,-0.145081,0.00775146,0.240356,0.959717
1470330826306540,-0.14624,0.00811768,0.240295,0.959534
1470330826327561,-0.146851,0.00866699,0.240173,0.959473
1470330826344099,-0.147339,0.00933838,0.239868,0.959473
1470330826366594,-0.14801,0.00982666,0.239441,0.959473
1470330826387616,-0.148865,0.0100098,0.239075,0.959473
1470330826404128,-0.149597,0.00982666,0.238586,0.959412
1470330826426649,-0.150208,0.0100708,0.238403,0.959412
1470330826447681,-0.150879,0.0107422,0.238281,0.95929
1470330826464182,-0.151733,0.0111084,0.238586,0.959106
1470330826486702,-0.152344,0.0110474,0.238953,0.958923
1470330826515257,-0.152771,0.0109863,0.239258,0.958801
1470330826524235,-0.152771,0.0109863,0.239258,0.95874
1470330826546759,-0.152771,0.0110474,0.239258,0.95874
1470330826567819,-0.153381,0.0111694,0.23938,0.958618
1470330826584339,-0.15387,0.0112305,0.239563,0.958496
1470330826606827,-0.153931,0.0112305,0.239502,0.958496
1470330826627837,-0.153687,0.0112305,0.239563,0.958557
1470330826644346,-0.153381,0.0111694,0.23938,0.958618
1470330826666864,-0.153076,0.0112305,0.23938,0.958679
1470330826687882,-0.153137,0.0115356,0.239136,0.95874
1470330826704397,-0.153625,0.0119019,0.238953,0.958679
1470330826726417,-0.154724,0.0117798,0.238525,0.958618
1470330826748954,-0.155762,0.0116577,0.238037,0.958557
1470330826763951,-0.156311,0.0114136,0.237671,0.958557
1470330826793978,-0.156189,0.0114136,0.23761,0.958618
1470330826808991,-0.156006,0.0118408,0.237854,0.958557
1470330826824007,-0.155762,0.0124512,0.238098,0.958557
1470330826846528,-0.156006,0.0125732,0.238403,0.958435
1470330826869047,-0.156372,0.0123901,0.238586,0.958313
1470330826884106,-0.156799,0.0122681,0.238708,0.958252
1470330826906580,-0.156738,0.0123291,0.238586,0.958252
1470330826936606,-0.156738,0.0123291,0.238586,0.958252
1470330826943639,-0.157349,0.0122681,0.238525,0.958191
1470330826966633,-0.157959,0.012207,0.238586,0.958069
1470330826989156,-0.158447,0.0122681,0.238464,0.958008
1470330827003666,-0.15863,0.0125122,0.238281,0.958008
1470330827026687,-0.158752,0.0127563,0.238037,0.958069
1470330827049243,-0.159241,0.0126953,0.237793,0.958069
1470330827063719,-0.159729,0.0127563,0.237671,0.958008
1470330827086741,-0.160034,0.0128174,0.237488,0.958008
1470330827109261,-0.160278,0.0128174,0.237305,0.958008
1470330827123300,-0.160522,0.0128784,0.237183,0.958008
1470330827146797,-0.160522,0.0128784,0.237183,0.958008
1470330827169314,-0.160828,0.0130005,0.237,0.958008
1470330827183327,-0.161072,0.0130615,0.236877,0.957947
1470330827206856,-0.161255,0.0132446,0.236755,0.957947
1470330827229369,-0.161377,0.0133667,0.236572,0.958008
1470330827250388,-0.161499,0.0136108,0.23645,0.958008
1470330827266403,-0.161621,0.0139771,0.236267,0.958008
1470330827289423,-0.161804,0.0142212,0.236084,0.958008
1470330827310445,-0.161865,0.0144043,0.235962,0.958069
1470330827326957,-0.161804,0.0147095,0.235962,0.958069
1470330827348976,-0.161804,0.0147705,0.235962,0.958069
1470330827370495,-0.162048,0.0148926,0.235901,0.958008
1470330827386510,-0.162537,0.0147095,0.23584,0.957947
1470330827409030,-0.162842,0.0144653,0.235901,0.957886
1470330827430122,-0.162964,0.0142212,0.235901,0.957886
1470330827452571,-0.162903,0.013916,0.235901,0.957886
1470330827469084,-0.163086,0.0133667,0.236084,0.957825
1470330827490162,-0.163391,0.0128784,0.236145,0.957764
1470330827506618,-0.163391,0.0128174,0.236145,0.957764
1470330827529139,-0.163391,0.0128174,0.236145,0.957764
1470330827550213,-0.163757,0.0128174,0.236023,0.957703
1470330827566671,-0.164246,0.0127563,0.235901,0.957703
1470330827589192,-0.164246,0.0127563,0.235901,0.957703
1470330827610239,-0.164063,0.0128174,0.235718,0.957764
1470330827626725,-0.163879,0.0129395,0.235596,0.957825
1470330827649249,-0.163879,0.0128784,0.235474,0.957825
1470330827671767,-0.163818,0.0128784,0.235474,0.957825
1470330827686278,-0.163818,0.0128784,0.235474,0.957886
1470330827709299,-0.163818,0.0128784,0.235474,0.957886
1470330827731320,-0.163818,0.0128784,0.235474,0.957886
1470330827746833,-0.163818,0.0128784,0.235474,0.957825
1470330827769353,-0.163757,0.0130615,0.235718,0.957825
1470330827791874,-0.163696,0.0132446,0.235962,0.957764
1470330827806387,-0.163696,0.0132446,0.235962,0.957764
1470330827829507,-0.163757,0.0133057,0.235962,0.957764
1470330827851928,-0.163757,0.0133057,0.235962,0.957764
1470330827865940,-0.163757,0.0133057,0.235962,0.957764
1470330827888986,-0.163757,0.0133057,0.235962,0.957764
1470330827911481,-0.163757,0.0133057,0.235962,0.957764
1470330827926001,-0.163818,0.0133057,0.235962,0.957703
1470330827949015,-0.163818,0.0133057,0.235962,0.957764
1470330827971535,-0.163818,0.0133057,0.235962,0.957703
1470330827986047,-0.163818,0.0133057,0.235962,0.957703
1470330828009069,-0.163818,0.0133057,0.235962,0.957703
1470330828031626,-0.163757,0.0133667,0.235962,0.957764
1470330828046104,-0.163757,0.0133667,0.235962,0.957764
1470330828069127,-0.163757,0.0133057,0.235962,0.957764
1470330828091647,-0.163757,0.0133057,0.235962,0.957764
1470330828106157,-0.163757,0.0133667,0.235962,0.957764
