timestamp,roll,pitch,yaw
1470344207600628,0.637375,0.164548,0.113975
1470344207640719,0.651745,0.142787,0.138238
1470344207641696,0.669754,0.107378,0.11947
1470344207654727,0.665959,0.103323,0.0860744
1470344207685213,0.621543,0.117707,0.0538974
1470344207691733,0.522377,0.107658,0.00679096
1470344207713738,0.408666,0.0658507,-0.110401
1470344207736763,0.385226,0.0409421,-0.205999
1470344207751787,0.336651,0.00305117,-0.227425
1470344207774301,0.3331,-0.0241793,-0.153496
1470344207796847,0.337147,0.0150881,-0.13002
1470344207811877,0.3148,0.0278529,-0.0811426
1470344207835883,0.298114,0.0136942,-0.0434954
1470344207856899,0.315852,0.0712292,-0.055082
1470344207871960,0.358795,0.128969,-0.0761891
1470344207893989,0.371514,0.224306,-0.0946061
1470344207908015,0.349619,0.258816,-0.0720739
1470344207931997,0.339324,0.287169,-0.0490798
1470344207954017,0.305172,0.31319,-0.0612517
1470344207977070,0.277524,0.278923,-0.0628796
1470344207992164,0.247359,0.2222,-0.0635056
1470344208014205,0.227831,0.16828,-0.0523493
1470344208036202,0.179613,0.149421,-0.0460112
1470344208053185,0.126524,0.128186,-0.0198142
1470344208074231,0.184359,0.137773,-0.148873
1470344208097031,0.184706,0.217133,-0.202346
1470344208112044,0.203074,0.309092,-0.195465
1470344208134109,0.205733,0.359461,-0.18102
1470344208157085,0.192943,0.344011,-0.192493
1470344208171100,0.179466,0.305889,-0.181948
1470344208194167,0.143492,0.281682,-0.161305
1470344208217212,0.0515625,0.280479,-0.239737
1470344208231243,0.0011997,0.251958,-0.287894
1470344208254292,-0.0358752,0.14905,-0.26876
1470344208276789,-0.0849077,0.0731473,-0.165649
1470344208291392,-0.0319132,0.127832,-0.288049
1470344208314435,-0.0365667,0.30085,-0.350153
1470344208336443,0.0771254,0.479358,-0.323708
1470344208351411,0.0372103,0.400117,-0.467024
1470344208374516,-0.0256314,0.25736,-0.432772
1470344208397085,-0.0843056,0.121039,-0.354129
1470344208411100,-0.0592993,0.0828539,-0.375951
1470344208434161,-0.057809,0.0229943,-0.346042
1470344208457201,-0.0635405,-0.0236831,-0.365882
1470344208471180,-0.0513776,-0.0436289,-0.389875
1470344208493817,-0.0506267,-0.054836,-0.402877
1470344208516830,-0.0553144,-0.061338,-0.411865
1470344208530822,-0.0567106,-0.0649925,-0.429359
1470344208553893,-0.0574403,-0.0716066,-0.44511
1470344208585887,-0.0589287,-0.0884772,-0.454505
1470344208607956,-0.0414436,-0.104479,-0.454388
1470344208629955,-0.0367312,-0.102222,-0.469717
1470344208637026,-0.0247727,-0.115541,-0.478455
1470344208660981,-0.0148294,-0.110275,-0.493094
1470344208676001,-0.0107642,-0.116394,-0.490969
1470344208697023,-0.00405349,-0.120279,-0.477296
1470344208712038,-0.00039271,-0.118492,-0.467793
1470344208735059,0.00475026,-0.118285,-0.468489
1470344208757151,0.00808972,-0.108724,-0.472417
1470344208772157,0.00625192,-0.106031,-0.473639
1470344208795129,0.00107985,-0.0962655,-0.477909
1470344208816176,-0.00670266,-0.0872833,-0.482377
1470344208832177,-0.0114826,-0.0814823,-0.486678
1470344208854264,-0.0178102,-0.0831437,-0.491338
1470344208876820,-0.0252669,-0.0827434,-0.496584
1470344208891321,-0.0405756,-0.0763368,-0.502007
1470344208914325,-0.0615066,-0.0657592,-0.509784
1470344208936354,-0.0804656,-0.0584945,-0.515514
1470344208952339,-0.0949688,-0.0569797,-0.519246
1470344208974380,-0.106533,-0.0553334,-0.528747
1470344208996441,-0.11945,-0.0489791,-0.538448
1470344209012423,-0.142057,-0.0415231,-0.551373
1470344209034494,-0.163795,-0.0378746,-0.569908
1470344209056482,-0.17607,-0.0360583,-0.584216
1470344209072477,-0.193243,-0.0261839,-0.592211
1470344209093554,-0.224673,-0.00996442,-0.610944
1470344209109524,-0.247518,-0.00475896,-0.619798
1470344209132544,-0.292654,0.0275011,-0.628156
1470344209170623,-0.313152,0.067648,-0.641035
1470344209172591,-0.28305,0.111038,-0.670338
1470344209192442,-0.247634,0.147349,-0.696974
1470344209223447,-0.251591,0.17829,-0.72906
1470344209229496,-0.290464,0.206054,-0.767316
1470344209252476,-0.347669,0.231124,-0.810723
1470344209274998,-0.405621,0.251,-0.859184
1470344209290012,-0.451745,0.265525,-0.911778
1470344209312037,-0.488145,0.273057,-0.965869
1470344209333060,-0.52649,0.270474,-1.02235
1470344209350071,-0.560633,0.259766,-1.08275
1470344209372092,-0.588938,0.242628,-1.13953
1470344209393228,-0.616761,0.222796,-1.19424
1470344209416225,-0.644485,0.200687,-1.24992
1470344209432249,-0.663564,0.178541,-1.30453
1470344209453296,-0.675315,0.158335,-1.35377
1470344209470242,-0.688735,0.140348,-1.39566
1470344209498968,-0.703177,0.122856,-1.43204
1470344209514056,-0.720932,0.104853,-1.46517
1470344209529991,-0.73623,0.0843282,-1.49637
1470344209552009,-0.745497,0.0620111,-1.52535
1470344209600194,-0.754681,0.0385592,-1.55246
1470344209601210,-0.76042,0.0151335,-1.57671
1470344209628216,-0.766567,-0.00624851,-1.59855
1470344209643233,-0.77148,-0.0256963,-1.61874
1470344209658244,-0.775727,-0.0437627,-1.63725
1470344209680769,-0.777621,-0.0608492,-1.6544
1470344209702795,-0.778269,-0.0781991,-1.67144
1470344209723829,-0.778521,-0.0917505,-1.68548
1470344209740830,-0.778398,-0.108157,-1.69495
1470344209762971,-0.775852,-0.123965,-1.70705
1470344209784399,-0.776819,-0.13858,-1.7141
1470344209800968,-0.776067,-0.141202,-1.72314
1470344209829029,-0.767534,-0.15782,-1.72904
1470344209846011,-0.763558,-0.175437,-1.73372
1470344209868032,-0.770283,-0.179301,-1.73801
1470344209882580,-0.776002,-0.174592,-1.74078
1470344209905713,-0.776038,-0.168463,-1.74427
1470344209942772,-0.779707,-0.161505,-1.7483
1470344209945747,-0.789097,-0.155255,-1.75101
1470344209965766,-0.792626,-0.160239,-1.75219
1470344209995438,-0.784926,-0.18063,-1.75321
1470344210009481,-0.778723,-0.191223,-1.75575
1470344210025464,-0.789567,-0.177089,-1.75698
1470344210048485,-0.790151,-0.190188,-1.75759
1470344210069505,-0.786453,-0.187246,-1.75891
1470344210085582,-0.793457,-0.190151,-1.75906
1470344210107513,-0.796455,-0.185015,-1.76002
1470344210122526,-0.795167,-0.197077,-1.76088
1470344210145548,-0.799787,-0.182527,-1.76014
1470344210167579,-0.788507,-0.197452,-1.76232
1470344210182603,-0.792101,-0.202109,-1.76306
1470344210212657,-0.803382,-0.186023,-1.76211
1470344210227671,-0.800379,-0.18771,-1.76351
1470344210248704,-0.790079,-0.20511,-1.76546
1470344210265705,-0.786322,-0.218296,-1.76697
1470344210288229,-0.791489,-0.221047,-1.76626
1470344210308768,-0.793549,-0.220086,-1.76568
1470344210332780,-0.796176,-0.21836,-1.76526
1470344210347842,-0.804821,-0.213141,-1.7631
1470344210369863,-0.812216,-0.212235,-1.7617
1470344210371864,-0.812327,-0.213769,-1.76171
1470344210391360,-0.802596,-0.228444,-1.76366
1470344210413856,-0.791885,-0.23921,-1.76625
1470344210430875,-0.792144,-0.237869,-1.76608
1470344210450897,-0.804425,-0.224086,-1.76262
1470344210473911,-0.810454,-0.224731,-1.76036
1470344210498946,-0.798744,-0.23855,-1.76303
1470344210510957,-0.788549,-0.242808,-1.7652
1470344210533977,-0.795993,-0.230567,-1.76269
1470344210550993,-0.808118,-0.221051,-1.75939
1470344210571014,-0.805333,-0.229841,-1.75948
1470344210613056,-0.793193,-0.241288,-1.76212
1470344210620063,-0.793302,-0.234965,-1.76181
1470344210631074,-0.806471,-0.221471,-1.75831
1470344210670108,-0.810653,-0.2104,-1.75804
1470344210673111,-0.809859,-0.21073,-1.75765
1470344210691138,-0.809972,-0.211071,-1.75734
1470344210714173,-0.811512,-0.211586,-1.75674
1470344210728181,-0.812862,-0.21196,-1.75632
1470344210751198,-0.814318,-0.211944,-1.75606
1470344210774221,-0.815529,-0.212966,-1.75561
1470344210788739,-0.822513,-0.201013,-1.7553
1470344210811258,-0.82046,-0.198498,-1.7552
1470344210834279,-0.829987,-0.185848,-1.75281
1470344210848793,-0.841027,-0.178498,-1.74972
1470344210871314,-0.832693,-0.191875,-1.75021
1470344210893849,-0.820728,-0.198689,-1.75237
1470344210908850,-0.829228,-0.185236,-1.75
1470344210931905,-0.83839,-0.182137,-1.74741
1470344210953894,-0.826216,-0.196862,-1.74931
1470344210969053,-0.820292,-0.196568,-1.75003
1470344211000092,-0.820733,-0.196782,-1.74864
1470344211015061,-0.819097,-0.197796,-1.74823
1470344211028116,-0.818812,-0.198061,-1.74781
1470344211052135,-0.817483,-0.19828,-1.74739
1470344211073679,-0.817147,-0.198554,-1.74689
1470344211090861,-0.817226,-0.198835,-1.74684
1470344211110881,-0.817226,-0.198835,-1.74684
1470344211133899,-0.817411,-0.199684,-1.74661
1470344211158922,-0.817383,-0.199874,-1.74657
1470344211171440,-0.817383,-0.200034,-1.74651
1470344211193478,-0.816874,-0.201219,-1.74613
1470344211211497,-0.815997,-0.202301,-1.74561
1470344211231525,-0.81328,-0.202734,-1.74512
1470344211253534,-0.809499,-0.202904,-1.74393
1470344211271610,-0.803336,-0.201414,-1.74218
1470344211290709,-0.79342,-0.196941,-1.73836
1470344211313699,-0.77868,-0.190326,-1.73203
1470344211331733,-0.760668,-0.180012,-1.7246
1470344211350714,-0.739733,-0.167073,-1.71541
1470344211373770,-0.71574,-0.152929,-1.70638
1470344211391418,-0.691212,-0.138537,-1.6988
1470344211411433,-0.66764,-0.123421,-1.6914
1470344211433494,-0.643631,-0.107658,-1.68094
1470344211451470,-0.616824,-0.0934514,-1.66677
1470344211471019,-0.586562,-0.0816619,-1.65106
1470344211493095,-0.5568,-0.0713163,-1.63548
1470344211511061,-0.529347,-0.061841,-1.61771
1470344211531125,-0.504423,-0.0573206,-1.59503
1470344211553130,-0.479983,-0.0576659,-1.5708
1470344211572245,-0.451589,-0.0614525,-1.5487
1470344211590968,-0.421279,-0.0651903,-1.5275
1470344211613988,-0.393588,-0.0688003,-1.50591
1470344211631004,-0.374114,-0.0718466,-1.48668
1470344211652023,-0.365537,-0.0746932,-1.46986
1470344211673549,-0.364264,-0.0787479,-1.45414
1470344211691071,-0.3647,-0.0830012,-1.43937
1470344211712090,-0.36233,-0.0874186,-1.4265
1470344211733108,-0.356093,-0.0914561,-1.41812
1470344211751125,-0.347885,-0.0961343,-1.41084
1470344211772650,-0.342767,-0.101153,-1.40033
1470344211793173,-0.344895,-0.108663,-1.38895
1470344211811190,-0.347697,-0.117043,-1.38145
1470344211832208,-0.348051,-0.123079,-1.37713
1470344211853228,-0.345259,-0.126791,-1.37207
1470344211871751,-0.340926,-0.131626,-1.36694
1470344211892273,-0.335842,-0.135846,-1.36397
1470344211913293,-0.330055,-0.13751,-1.36274
1470344211931309,-0.324912,-0.138586,-1.36148
1470344211952327,-0.320868,-0.139587,-1.36097
1470344211973853,-0.321068,-0.141546,-1.35836
1470344211997378,-0.323293,-0.147468,-1.3569
1470344212013394,-0.322858,-0.155911,-1.35809
1470344212041417,-0.319272,-0.165304,-1.35958
1470344212051427,-0.314885,-0.174605,-1.35998
1470344212073952,-0.31173,-0.181725,-1.35957
1470344212093475,-0.311546,-0.186543,-1.35915
1470344212111493,-0.315247,-0.191412,-1.35968
1470344212133511,-0.319262,-0.196489,-1.3594
1470344212153529,-0.320128,-0.201605,-1.35803
1470344212171552,-0.319845,-0.205334,-1.35675
1470344212193577,-0.318066,-0.203936,-1.35698
1470344212216596,-0.312487,-0.195575,-1.35685
1470344212231611,-0.306486,-0.189148,-1.35684
1470344212253628,-0.310005,-0.187099,-1.35534
1470344212273651,-0.319401,-0.185191,-1.35438
1470344212291687,-0.323625,-0.183787,-1.35531
1470344212313705,-0.32604,-0.182868,-1.3571
1470344212333724,-0.326679,-0.182713,-1.35763
1470344212351741,-0.326481,-0.183775,-1.35754
1470344212374264,-0.3296,-0.184038,-1.35649
1470344212393788,-0.335926,-0.18521,-1.35586
1470344212411807,-0.339732,-0.186858,-1.35505
1470344212438829,-0.338972,-0.187393,-1.35465
1470344212453841,-0.336342,-0.187665,-1.35484
1470344212470862,-0.333753,-0.187898,-1.35535
1470344212493407,-0.332923,-0.187708,-1.35533
1470344212514427,-0.332923,-0.187708,-1.35533
1470344212530440,-0.333661,-0.187184,-1.35524
1470344212553460,-0.334673,-0.186523,-1.35503
1470344212574501,-0.336269,-0.186361,-1.35497
1470344212590024,-0.33734,-0.186622,-1.35498
1470344212613037,-0.338026,-0.186766,-1.35514
1470344212634085,-0.338326,-0.186215,-1.35522
1470344212650130,-0.339415,-0.18546,-1.35503
1470344212673138,-0.340484,-0.185295,-1.3546
1470344212694163,-0.342234,-0.185934,-1.35461
1470344212710176,-0.343633,-0.185816,-1.3547
1470344212733198,-0.343228,-0.185143,-1.35523
1470344212754215,-0.341421,-0.183843,-1.35657
1470344212771736,-0.34053,-0.182815,-1.35793
1470344212793261,-0.340815,-0.182129,-1.3593
1470344212814278,-0.341339,-0.180935,-1.36041
1470344212830293,-0.342259,-0.179474,-1.36174
1470344212853314,-0.343242,-0.178377,-1.36369
1470344212881173,-0.344418,-0.177467,-1.3658
1470344212890182,-0.346593,-0.176851,-1.36695
1470344212913201,-0.347544,-0.176917,-1.36732
1470344212935221,-0.346852,-0.176992,-1.36792
1470344212950235,-0.345426,-0.177023,-1.36898
1470344212973260,-0.345181,-0.177175,-1.36976
1470344212995284,-0.345181,-0.177175,-1.36976
1470344213010297,-0.343776,-0.176678,-1.36925
1470344213033319,-0.342383,-0.17595,-1.36892
1470344213055337,-0.341959,-0.176295,-1.36919
1470344213070856,-0.342436,-0.17672,-1.36933
1470344213093380,-0.343295,-0.176837,-1.36888
1470344213115399,-0.344602,-0.177791,-1.36836
1470344213130413,-0.345275,-0.178758,-1.36814
1470344213153434,-0.345123,-0.179552,-1.36806
1470344213175961,-0.34512,-0.180136,-1.36783
1470344213190199,-0.345324,-0.180449,-1.36716
1470344213213219,-0.345271,-0.180871,-1.36646
1470344213235239,-0.345043,-0.181758,-1.36637
1470344213250253,-0.345136,-0.182649,-1.36644
1470344213273277,-0.345632,-0.183046,-1.36643
1470344213295299,-0.346396,-0.183103,-1.36662
1470344213310313,-0.346496,-0.183158,-1.36645
1470344213333334,-0.346066,-0.183328,-1.36675
1470344213355353,-0.345416,-0.183117,-1.36673
1470344213376376,-0.344797,-0.183102,-1.36687
1470344213393396,-0.343986,-0.182721,-1.36735
1470344213415415,-0.344341,-0.182488,-1.36771
1470344213436434,-0.345083,-0.182397,-1.36808
1470344213453449,-0.345147,-0.182356,-1.36842
1470344213475976,-0.345224,-0.182263,-1.36844
1470344213496349,-0.345418,-0.182625,-1.36857
1470344213513366,-0.345759,-0.183208,-1.36853
1470344213535384,-0.346211,-0.183462,-1.36869
1470344213556404,-0.346211,-0.183462,-1.36869
1470344213573423,-0.34616,-0.183727,-1.36866
1470344213595393,-0.345691,-0.183929,-1.3691
1470344213616411,-0.345786,-0.184236,-1.3694
1470344213633427,-0.346233,-0.184467,-1.36939
1470344213655447,-0.347226,-0.184678,-1.36959
1470344213676997,-0.347832,-0.184746,-1.36978
1470344213693011,-0.348073,-0.184667,-1.36997
1470344213716034,-0.348485,-0.184373,-1.37002
1470344213737052,-0.348562,-0.18428,-1.37004
1470344213753067,-0.348857,-0.184113,-1.37022
1470344213775595,-0.349633,-0.184551,-1.37006
1470344213796623,-0.350198,-0.184656,-1.36992
1470344213812635,-0.350401,-0.184789,-1.36975
1470344213835656,-0.350445,-0.184932,-1.36958
1470344213857675,-0.350516,-0.185246,-1.36939
1470344213873197,-0.350516,-0.185246,-1.36939
1470344213895725,-0.350516,-0.185246,-1.36939
1470344213917743,-0.351091,-0.18512,-1.36942
1470344213932756,-0.351612,-0.185081,-1.36945
1470344213955778,-0.351689,-0.184988,-1.36947
1470344213977822,-0.351585,-0.18491,-1.36947
1470344213992836,-0.351662,-0.184817,-1.36948
1470344214015857,-0.351662,-0.184817,-1.36948
1470344214037875,-0.351662,-0.184817,-1.36948
1470344214051887,-0.351662,-0.184817,-1.36948
1470344214075916,-0.352051,-0.184959,-1.3695
1470344214097939,-0.352494,-0.185014,-1.36951
1470344214111954,-0.352571,-0.184921,-1.36953
1470344214135973,-0.352648,-0.184828,-1.36954
1470344214157993,-0.352128,-0.184866,-1.36951
1470344214172514,-0.351418,-0.184719,-1.36932
1470344214195552,-0.351418,-0.184719,-1.36932
1470344214217571,-0.351418,-0.184719,-1.36932
1470344214232584,-0.350721,-0.184366,-1.36901
1470344214255606,-0.349989,-0.183795,-1.36836
1470344214277880,-0.349256,-0.183071,-1.36791
1470344214291892,-0.348084,-0.181614,-1.36653
1470344214315914,-0.348888,-0.180683,-1.36456
1470344214337932,-0.35092,-0.179954,-1.36394
1470344214358951,-0.35205,-0.179728,-1.36369
1470344214383517,-0.352169,-0.179599,-1.36403
