timestamp,x,y,z,w
1470330447676778,-0.121033,-0.00164795,0.0844116,0.989014
1470330447691785,-0.121094,-0.00164795,0.0844116,0.989014
1470330447714306,-0.121094,-0.00164795,0.0844116,0.989014
1470330447738371,-0.121094,-0.00164795,0.0844116,0.989014
1470330447753366,-0.121094,-0.00164795,0.0844116,0.989014
1470330447774360,-0.121094,-0.00164795,0.0844116,0.989014
1470330447798382,-0.121155,-0.00164795,0.0844116,0.989014
1470330447844422,-0.121155,-0.00164795,0.0844116,0.989014
1470330447846424,-0.121216,-0.00164795,0.0844116,0.989014
1470330447857935,-0.121216,-0.00164795,0.0844116,0.989014
1470330447875952,-0.121216,-0.00164795,0.0844116,0.989014
1470330447895969,-0.121216,-0.00164795,0.0844116,0.989014
1470330447924994,-0.121216,-0.00170898,0.0844116,0.989014
1470330447969534,-0.121216,-0.00170898,0.0844116,0.989014
1470330447979553,-0.121216,-0.00164795,0.0844116,0.989014
1470330447980046,-0.121277,-0.00164795,0.0844116,0.989014
1470330447993056,-0.121277,-0.00164795,0.0844116,0.989014
1470330448014075,-0.121277,-0.00164795,0.0844116,0.989014
1470330448036595,-0.121277,-0.00164795,0.0844116,0.989014
1470330448054708,-0.121277,-0.00164795,0.0844116,0.989014
1470330448074216,-0.121338,-0.00164795,0.0844116,0.989014
1470330448096651,-0.121338,-0.00164795,0.0844116,0.989014
1470330448114669,-0.121338,-0.00164795,0.0844116,0.989014
1470330448134185,-0.121338,-0.00164795,0.0844116,0.988953
1470330448156731,-0.121338,-0.00164795,0.0844116,0.988953
1470330448174831,-0.121399,-0.00164795,0.0844116,0.988953
1470330448194292,-0.121399,-0.00164795,0.0844116,0.988953
1470330448216793,-0.121399,-0.00164795,0.0844116,0.988953
1470330448234776,-0.121399,-0.00164795,0.0844116,0.988953
1470330448254350,-0.121399,-0.00164795,0.0844116,0.988953
1470330448276812,-0.121399,-0.00164795,0.0844116,0.988953
1470330448294826,-0.121399,-0.00164795,0.0844116,0.988953
1470330448314379,-0.121399,-0.00164795,0.0844116,0.988953
1470330448336864,-0.12146,-0.00164795,0.0844116,0.988953
1470330448354882,-0.12146,-0.00164795,0.0844116,0.988953
1470330448374433,-0.12146,-0.00164795,0.0844116,0.988953
1470330448396965,-0.121521,-0.00164795,0.0844116,0.988953
1470330448414436,-0.121521,-0.00164795,0.0844116,0.988953
1470330448435486,-0.121521,-0.00164795,0.0844116,0.988953
1470330448456972,-0.121521,-0.00164795,0.0844116,0.988953
1470330448475055,-0.121521,-0.00164795,0.0844116,0.988953
1470330448496008,-0.121704,-0.00170898,0.0844727,0.988953
1470330448517028,-0.121704,-0.00170898,0.0844727,0.988953
1470330448534607,-0.121765,-0.00170898,0.0844727,0.988953
1470330448555602,-0.121765,-0.00170898,0.0844727,0.988953
1470330448576582,-0.121765,-0.00170898,0.0844727,0.988953
1470330448594628,-0.121765,-0.00170898,0.0844727,0.988953
1470330448615615,-0.121826,-0.00170898,0.0844727,0.988953
1470330448636718,-0.121826,-0.00170898,0.0844727,0.988953
1470330448654657,-0.121826,-0.00170898,0.0844727,0.988892
1470330448675669,-0.121826,-0.00170898,0.0844727,0.988892
1470330448696732,-0.121887,-0.00170898,0.0844727,0.988892
1470330448714721,-0.121887,-0.00170898,0.0844727,0.988892
1470330448735727,-0.121887,-0.00170898,0.0844727,0.988892
1470330448756742,-0.121887,-0.00164795,0.0844727,0.988892
1470330448774780,-0.121887,-0.00164795,0.0844727,0.988892
1470330448795778,-0.121887,-0.00164795,0.0844727,0.988892
1470330448819814,-0.121887,-0.00164795,0.0844727,0.988892
1470330448834867,-0.121887,-0.00164795,0.0844727,0.988892
1470330448857346,-0.121887,-0.00164795,0.0844727,0.988892
1470330448876872,-0.121887,-0.00164795,0.0844727,0.988892
1470330448894866,-0.121948,-0.00164795,0.0844727,0.988892
1470330448917388,-0.121948,-0.00164795,0.0844727,0.988892
1470330448939406,-0.121887,-0.00164795,0.0844727,0.988892
1470330448959986,-0.121765,-0.00183105,0.0846558,0.988892
1470330448976470,-0.121643,-0.0020752,0.0847778,0.988892
1470330448998960,-0.121826,-0.00250244,0.085022,0.988892
1470330449020004,-0.122925,-0.00341797,0.0854492,0.988708
1470330449036511,-0.125,-0.00469971,0.0859985,0.988403
1470330449059014,-0.127869,-0.0065918,0.0869141,0.987915
1470330449080120,-0.130859,-0.00830078,0.0878906,0.987427
1470330449096548,-0.135071,-0.00933838,0.0883179,0.986816
1470330449119067,-0.139771,-0.0101318,0.088562,0.986145
1470330449140123,-0.142639,-0.00970459,0.0881958,0.985779
1470330449156601,-0.144409,-0.00811768,0.0875854,0.985596
1470330449179151,-0.146912,-0.00646973,0.0870972,0.985229
1470330449200141,-0.150208,-0.00445557,0.086731,0.984802
1470330449216154,-0.15094,0.000671387,0.086853,0.98468
1470330449238676,-0.15033,0.00878906,0.0880127,0.984619
1470330449260194,-0.149231,0.0185547,0.0895386,0.984558
1470330449275710,-0.147949,0.0307617,0.0908203,0.984314
1470330449298730,-0.147217,0.0455933,0.0916138,0.983765
1470330449319761,-0.147583,0.0618286,0.0913696,0.982849
1470330449335763,-0.148193,0.0806885,0.0900879,0.981506
1470330449358783,-0.14801,0.10144,0.0872803,0.979858
1470330449381846,-0.1474,0.123901,0.0823975,0.977783
1470330449395816,-0.146362,0.147644,0.0755005,0.97522
1470330449418838,-0.14502,0.172119,0.0671997,0.971985
1470330449441358,-0.14325,0.196289,0.0582886,0.968262
1470330449455870,-0.141846,0.219482,0.0488892,0.963989
1470330449478891,-0.139709,0.241516,0.0389404,0.959473
1470330449501412,-0.135376,0.262268,0.0288086,0.954956
1470330449515437,-0.128479,0.281921,0.0184937,0.950562
1470330449538949,-0.119568,0.30011,0.00860596,0.946289
1470330449561467,-0.109192,0.316284,-0.000488281,0.942322
1470330449575478,-0.0996094,0.329285,-0.00866699,0.938904
1470330449622580,-0.0906982,0.340088,-0.015625,0.935852
1470330449627529,-0.0827637,0.349182,-0.0216064,0.933105
1470330449650045,-0.0750732,0.356628,-0.0270996,0.930786
1470330449659052,-0.0669556,0.362366,-0.0325317,0.929016
1470330449681572,-0.0586548,0.366882,-0.0378418,0.927612
1470330449702612,-0.0510864,0.370605,-0.0425415,0.926392
1470330449719106,-0.0446167,0.373413,-0.0463257,0.925415
1470330449741651,-0.0396729,0.375671,-0.0491943,0.924561
1470330449762645,-0.0366211,0.37793,-0.0515747,0.923645
1470330449778660,-0.034668,0.380066,-0.053894,0.922729
1470330449801180,-0.0325928,0.381836,-0.0562134,0.921875
1470330449822700,-0.0310059,0.383118,-0.0582886,0.921326
1470330449838717,-0.0302734,0.384033,-0.0597534,0.920837
1470330449861234,-0.0303955,0.384705,-0.0605469,0.920532
1470330449890272,-0.03125,0.38501,-0.0609131,0.920349
1470330449898769,-0.0324707,0.385254,-0.0612183,0.920166
1470330449921292,-0.0338135,0.385803,-0.0615234,0.919861
1470330449942349,-0.0352783,0.386536,-0.0614624,0.919495
1470330449958823,-0.0369263,0.38739,-0.0609741,0.919128
1470330449981343,-0.0390015,0.388672,-0.0602417,0.918518
1470330450009868,-0.041626,0.390442,-0.0594482,0.917725
1470330450018876,-0.0437012,0.392639,-0.0586548,0.916748
1470330450041443,-0.0457764,0.39563,-0.0577393,0.915405
1470330450062416,-0.0478516,0.399231,-0.0563965,0.913818
1470330450078932,-0.0507813,0.403564,-0.0548706,0.911865
1470330450101451,-0.0542603,0.408813,-0.0532837,0.909424
1470330450122470,-0.0585327,0.415649,-0.0516357,0.906128
1470330450138983,-0.0634155,0.424133,-0.0501099,0.901978
1470330450167509,-0.0690308,0.43457,-0.0488892,0.896606
1470330450182523,-0.0750732,0.446899,-0.0477295,0.890076
1470330450198037,-0.0814209,0.460571,-0.0466309,0.882629
1470330450221557,-0.0880737,0.475037,-0.0455933,0.874329
1470330450242576,-0.0960693,0.490723,-0.0444336,0.864868
1470330450258092,-0.104553,0.506104,-0.0426636,0.85498
1470330450281611,-0.11261,0.522827,-0.0413818,0.843933
1470330450303635,-0.120239,0.537476,-0.0396118,0.833679
1470330450318145,-0.127686,0.55304,-0.0384521,0.822388
1470330450341166,-0.135132,0.567261,-0.0363159,0.811523
1470330450363708,-0.140869,0.57959,-0.0341187,0.80188
1470330450378242,-0.145508,0.590698,-0.0316772,0.79303
1470330450414762,-0.149292,0.600586,-0.0289307,0.784912
1470330450423740,-0.152344,0.609192,-0.0258789,0.777771
1470330450438256,-0.15448,0.616333,-0.0227661,0.77179
1470330450461273,-0.15564,0.622131,-0.0195313,0.766968
1470330450483800,-0.156372,0.626831,-0.0159302,0.763062
1470330450498306,-0.157104,0.630676,-0.012146,0.759827
1470330450521327,-0.157654,0.633728,-0.00823975,0.757263
1470330450543848,-0.157898,0.63623,-0.00408936,0.755127
1470330450564867,-0.15802,0.638428,0,0.753235
1470330450581380,-0.157715,0.640381,0.00408936,0.751648
1470330450603901,-0.156921,0.641907,0.00787354,0.750427
1470330450624932,-0.155884,0.643127,0.0111694,0.749573
1470330450647538,-0.155212,0.643982,0.0141602,0.748962
1470330450663959,-0.154419,0.644897,0.0169678,0.748291
1470330450684975,-0.153503,0.645569,0.0202637,0.747803
1470330450701488,-0.152893,0.646362,0.0237427,0.747131
1470330450724028,-0.152405,0.647217,0.0269775,0.746399
1470330450745093,-0.152039,0.647888,0.0297241,0.745728
1470330450761542,-0.151733,0.64856,0.0321655,0.745178
1470330450784062,-0.151428,0.649353,0.0349731,0.744385
1470330450805111,-0.151184,0.650513,0.0378418,0.743286
1470330450821596,-0.150757,0.651917,0.0407104,0.741943
1470330450843615,-0.150085,0.653564,0.043335,0.74054
1470330450865135,-0.149048,0.655212,0.0459595,0.739136
1470330450881149,-0.14801,0.65686,0.048645,0.737732
1470330450903669,-0.147034,0.658691,0.0512085,0.736084
1470330450925189,-0.145691,0.6604,0.0536499,0.734619
1470330450941203,-0.14447,0.661865,0.0558472,0.733398
1470330450963759,-0.143433,0.663208,0.0580444,0.732239
1470330450985243,-0.142517,0.66449,0.0601807,0.731079
1470330451001257,-0.141418,0.665466,0.062561,0.730225
1470330451023779,-0.140442,0.66626,0.0649414,0.729431
1470330451044796,-0.139465,0.666809,0.0672607,0.728943
1470330451061310,-0.138428,0.667297,0.0693359,0.728455
1470330451083834,-0.137329,0.667664,0.0714111,0.728149
1470330451104876,-0.135986,0.667725,0.0736084,0.728088
1470330451121365,-0.134399,0.66748,0.0760498,0.728394
1470330451143885,-0.132629,0.666626,0.0787964,0.729187
1470330451164917,-0.130432,0.665039,0.0820313,0.730713
1470330451180918,-0.127991,0.662537,0.0858154,0.732971
1470330451203939,-0.125122,0.65918,0.0900269,0.735962
1470330451224962,-0.121521,0.654785,0.0947266,0.739868
1470330451240979,-0.117065,0.64917,0.10022,0.744812
1470330451263995,-0.112061,0.642212,0.106567,0.750732
1470330451286516,-0.106873,0.634033,0.113586,0.757324
1470330451300527,-0.101318,0.625122,0.120667,0.764404
1470330451324066,-0.0949097,0.615356,0.127747,0.771973
1470330451346566,-0.0878296,0.604431,0.135071,0.780151
1470330451360591,-0.0805054,0.592102,0.142334,0.789063
1470330451384101,-0.0736084,0.578796,0.149353,0.798218
1470330451406623,-0.0664673,0.56543,0.155884,0.807129
1470330451420635,-0.0579834,0.552246,0.161499,0.815796
1470330451444156,-0.0479736,0.538269,0.167358,0.824524
1470330451466174,-0.0375977,0.522888,0.174072,0.833557
1470330451480733,-0.0272827,0.506104,0.182007,0.84259
1470330451503708,-0.0160522,0.487915,0.190552,0.851624
1470330451526229,-0.00366211,0.468384,0.199463,0.860657
1470330451547813,0.00976563,0.447571,0.208435,0.869507
1470330451563763,0.0246582,0.425598,0.217285,0.878052
1470330451586284,0.0411987,0.4021,0.226074,0.88623
1470330451607329,0.0588379,0.376282,0.235718,0.893982
1470330451629858,0.0762329,0.349243,0.245911,0.90094
1470330451646336,0.092041,0.321594,0.256653,0.906738
1470330451667356,0.106384,0.293213,0.26709,0.911743
1470330451683870,0.12085,0.264038,0.276367,0.916077
1470330451712431,0.134644,0.234253,0.285095,0.919617
1470330451727439,0.145203,0.204102,0.293579,0.922485
1470330451743425,0.153015,0.175964,0.300293,0.924866
1470330451766444,0.159546,0.150452,0.305481,0.926575
1470330451787481,0.164795,0.125916,0.309753,0.927856
1470330451803980,0.168701,0.100708,0.31366,0.928955
1470330451834005,0.171387,0.074646,0.317383,0.929626
1470330451847590,0.173767,0.0480957,0.319763,0.930115
1470330451864058,0.175293,0.0214233,0.32135,0.930298
1470330451886551,0.175964,-0.0043335,0.322693,0.929932
1470330451907592,0.175354,-0.0284424,0.322632,0.929626
1470330451924085,0.174805,-0.0505981,0.321838,0.929077
1470330451946627,0.174866,-0.0708618,0.320435,0.928223
1470330451967625,0.174805,-0.0899658,0.318054,0.927429
1470330451983639,0.174255,-0.108948,0.314636,0.926636
1470330452006218,0.173767,-0.128052,0.309814,0.925964
1470330452027730,0.173401,-0.14679,0.303589,0.925293
1470330452043192,0.172424,-0.166321,0.295776,0.924683
1470330452066213,0.170593,-0.186523,0.286255,0.924194
1470330452087232,0.16925,-0.206299,0.276001,0.92334
1470330452103748,0.169006,-0.225464,0.265625,0.921936
1470330452126269,0.169739,-0.24469,0.25415,0.920166
1470330452147789,0.170776,-0.264038,0.240906,0.918152
1470330452163319,0.171448,-0.284607,0.226868,0.915466
1470330452186321,0.171204,-0.306152,0.213196,0.911865
1470330452208841,0.170898,-0.327393,0.199829,0.907532
1470330452223354,0.172363,-0.347595,0.185425,0.902832
1470330452246377,0.175964,-0.367126,0.171448,0.897095
1470330452268895,0.179321,-0.387146,0.159241,0.890259
1470330452283408,0.181335,-0.406982,0.147583,0.882996
1470330452306429,0.182068,-0.425964,0.136047,0.875671
1470330452328949,0.183105,-0.44397,0.125793,0.868042
1470330452343462,0.184387,-0.460815,0.117676,0.860107
1470330452366483,0.184631,-0.476685,0.112244,0.852112
1470330452389044,0.183899,-0.49231,0.108093,0.843872
1470330452403017,0.183655,-0.506836,0.104431,0.835693
1470330452426538,0.183472,-0.519409,0.103577,0.828125
1470330452449058,0.182251,-0.530334,0.10498,0.821289
1470330452470076,0.180603,-0.539917,0.106812,0.815125
1470330452486591,0.179016,-0.548157,0.108337,0.809753
1470330452509112,0.175903,-0.555908,0.109802,0.804932
1470330452530131,0.17218,-0.563599,0.110779,0.800293
1470330452546677,0.169067,-0.569885,0.112061,0.796265
1470330452569165,0.166016,-0.575256,0.11377,0.792786
1470330452590214,0.162903,-0.580383,0.115234,0.78949
1470330452606272,0.159241,-0.585999,0.116211,0.78595
1470330452628775,0.155396,-0.591797,0.116028,0.78241
1470330452649737,0.15155,-0.596802,0.115173,0.779419
1470330452666253,0.147705,-0.601624,0.114441,0.776611
1470330452688818,0.144104,-0.606445,0.113037,0.773743
1470330452709820,0.140442,-0.611206,0.110962,0.770996
1470330452726312,0.137207,-0.615906,0.108521,0.768188
1470330452748826,0.134521,-0.620056,0.105957,0.765625
1470330452769847,0.132507,-0.623474,0.103638,0.76355
1470330452786362,0.131226,-0.626404,0.101501,0.761658
1470330452808882,0.130127,-0.628906,0.0992432,0.760071
1470330452830401,0.128662,-0.631042,0.0966187,0.75885
1470330452846449,0.127075,-0.632874,0.0938721,0.757935
1470330452868934,0.125916,-0.634277,0.0913086,0.757263
1470330452889970,0.125366,-0.635315,0.0886841,0.756836
1470330452906468,0.124878,-0.635986,0.0860596,0.756653
1470330452929030,0.124512,-0.636475,0.0835571,0.756531
1470330452950010,0.124268,-0.63678,0.0809326,0.756653
1470330452966522,0.124023,-0.63678,0.0778809,0.756958
1470330452996569,0.123596,-0.636475,0.074707,0.757629
1470330453010071,0.123474,-0.635986,0.0720825,0.758301
1470330453026576,0.123596,-0.635254,0.0697021,0.759155
1470330453049096,0.123779,-0.634338,0.0675049,0.760071
1470330453070116,0.12384,-0.633362,0.0654297,0.761108
1470330453086133,0.123779,-0.632263,0.0634155,0.762146
1470330453109150,0.123352,-0.631042,0.0613403,0.763428
1470330453130242,0.122925,-0.6297,0.0596924,0.764709
1470330453146234,0.122498,-0.628174,0.0588379,0.766113
1470330453168721,0.122375,-0.626648,0.0581665,0.767395
1470330453191224,0.121826,-0.625,0.0574341,0.768921
1470330453206238,0.121094,-0.623352,0.0568848,0.770386
1470330453228757,0.120422,-0.62146,0.0565186,0.772034
1470330453251281,0.119873,-0.619507,0.0562744,0.773743
1470330453266291,0.118896,-0.617004,0.0552979,0.77594
1470330453288812,0.117737,-0.614441,0.0547485,0.778198
1470330453311331,0.117126,-0.611389,0.0544434,0.780701
1470330453325844,0.115479,-0.607117,0.0529175,0.784363
1470330453348865,0.110657,-0.600891,0.0483398,0.790161
1470330453371385,0.104614,-0.594604,0.0448608,0.795898
1470330453393905,0.100403,-0.588928,0.0429077,0.80072
1470330453408919,0.0979614,-0.582275,0.0407715,0.80603
1470330453431439,0.09375,-0.57373,0.0359497,0.812866
1470330453452958,0.086853,-0.563904,0.0283813,0.82074
1470330453454960,0.0776978,-0.554138,0.0211792,0.828491
1470330453474486,0.069519,-0.545227,0.0164795,0.835205
1470330453498514,0.0641479,-0.536133,0.0141602,0.841553
1470330453514514,0.0599365,-0.525757,0.0114136,0.848389
1470330453534533,0.0545044,-0.514038,0.00695801,0.856018
1470330453557087,0.0460815,-0.501831,0.00158691,0.863708
1470330453574568,0.0358887,-0.490112,-0.00341797,0.870911
1470330453594087,0.0258179,-0.478394,-0.0067749,0.877747
1470330453616613,0.017395,-0.466187,-0.00878906,0.88446
1470330453634622,0.010498,-0.45282,-0.010498,0.891479
1470330453654641,0.00421143,-0.438354,-0.012085,0.898682
1470330453676659,-0.0022583,-0.4245,-0.0128174,0.905334
1470330453694675,-0.00891113,-0.412231,-0.0126953,0.91095
1470330453714210,-0.0155029,-0.399963,-0.012085,0.916321
1470330453736741,-0.0216064,-0.386902,-0.0114746,0.921814
1470330453754760,-0.0266724,-0.373779,-0.0110474,0.927063
1470330453774295,-0.03125,-0.361389,-0.0107422,0.931824
1470330453796820,-0.0369873,-0.349854,-0.0101929,0.936035
1470330453814809,-0.0431519,-0.338257,-0.00897217,0.940002
1470330453834331,-0.0484009,-0.326111,-0.00726318,0.944031
1470330453856836,-0.0532837,-0.314514,-0.00585938,0.947754
1470330453874839,-0.0585938,-0.304199,-0.00531006,0.950745
1470330453894355,-0.0651245,-0.294006,-0.00457764,0.953552
1470330453916875,-0.0720825,-0.283569,-0.00292969,0.956238
1470330453934991,-0.0780029,-0.273254,-0.000915527,0.95874
1470330453954460,-0.0819702,-0.262939,0.00140381,0.961304
1470330453976933,-0.0841675,-0.252258,0.00415039,0.963989
1470330453994991,-0.0853882,-0.241699,0.00732422,0.966553
1470330454014462,-0.086853,-0.231812,0.010376,0.968811
1470330454036982,-0.0888672,-0.222473,0.0131836,0.970764
1470330454054999,-0.0910645,-0.213318,0.0160522,0.972595
1470330454074575,-0.0927734,-0.204529,0.0189209,0.974243
1470330454097162,-0.0939941,-0.196228,0.0216675,0.975769
1470330454114554,-0.0951538,-0.188232,0.0244141,0.977173
1470330454134586,-0.0963745,-0.180603,0.0269775,0.978394
1470330454156635,-0.0974731,-0.173645,0.0294189,0.979492
1470330454174608,-0.0982666,-0.167419,0.0316772,0.980469
1470330454194625,-0.098877,-0.161316,0.0338745,0.981323
1470330454216646,-0.0993652,-0.155457,0.0357666,0.982178
1470330454235162,-0.0999146,-0.150146,0.0374756,0.982849
1470330454254188,-0.100586,-0.145508,0.0391235,0.983398
1470330454276724,-0.10144,-0.141357,0.0409546,0.983887
1470330454294761,-0.102173,-0.137573,0.0426636,0.984253
1470330454314732,-0.102661,-0.134216,0.0441284,0.984619
1470330454337253,-0.102844,-0.131042,0.0456543,0.984924
1470330454354808,-0.102966,-0.128296,0.0471191,0.985229
1470330454374384,-0.103577,-0.125977,0.0485229,0.985413
1470330454396807,-0.104309,-0.123779,0.0498047,0.985535
1470330454414822,-0.104675,-0.121643,0.0509644,0.985718
1470330454434340,-0.104919,-0.119934,0.0518799,0.98584
1470330454456860,-0.105408,-0.118591,0.0526733,0.985901
1470330454474878,-0.106018,-0.117065,0.0534058,0.985962
1470330454494393,-0.106506,-0.115723,0.053894,0.986084
1470330454516923,-0.106628,-0.114563,0.0542603,0.986145
1470330454534930,-0.106995,-0.113708,0.0544434,0.986206
1470330454554447,-0.107727,-0.113037,0.0545654,0.986206
1470330454576968,-0.108215,-0.112366,0.0547485,0.986206
1470330454594483,-0.108398,-0.111816,0.0548706,0.986267
1470330454614501,-0.108459,-0.111328,0.0549927,0.986267
1470330454637021,-0.108643,-0.110962,0.0550537,0.986328
1470330454654555,-0.108887,-0.110718,0.0550537,0.986328
1470330454674602,-0.109131,-0.110657,0.0551758,0.986267
1470330454697136,-0.109375,-0.110596,0.0551758,0.986267
1470330454714591,-0.10968,-0.110596,0.0551758,0.986206
1470330454735610,-0.110107,-0.11084,0.0551758,0.986145
1470330454756695,-0.110718,-0.111511,0.0548706,0.986023
1470330454774668,-0.111572,-0.112305,0.0544434,0.98584
1470330454795676,-0.112732,-0.113159,0.0540771,0.985657
1470330454816683,-0.114014,-0.113892,0.053894,0.985413
1470330454834701,-0.114868,-0.114563,0.053772,0.985229
1470330454855750,-0.115112,-0.114929,0.053772,0.985168
1470330454877238,-0.114624,-0.11499,0.053772,0.985229
1470330454894797,-0.114075,-0.114868,0.053772,0.985291
1470330454915773,-0.114075,-0.114807,0.053772,0.985352
1470330454936835,-0.114502,-0.114685,0.053833,0.985291
1470330454954834,-0.114502,-0.114685,0.053833,0.985291
1470330454975869,-0.114136,-0.11438,0.0540771,0.985352
1470330454996900,-0.113403,-0.113892,0.0544434,0.985474
1470330455014879,-0.112427,-0.113403,0.0547485,0.985596
1470330455043387,-0.112061,-0.113037,0.0550537,0.985657
1470330455056950,-0.112122,-0.112732,0.0553589,0.985718
1470330455074954,-0.112366,-0.112366,0.0556641,0.985718
1470330455097434,-0.112305,-0.112,0.0559082,0.985718
1470330455116954,-0.112061,-0.11145,0.0562744,0.985779
1470330455134968,-0.111755,-0.110901,0.0566406,0.985901
1470330455157489,-0.111572,-0.110474,0.0569458,0.985901
1470330455177022,-0.111572,-0.110107,0.057251,0.985962
1470330455195041,-0.111572,-0.109741,0.0575562,0.985962
1470330455217045,-0.11145,-0.109375,0.0579834,0.986023
1470330455236579,-0.110962,-0.109192,0.0585938,0.986023
1470330455254580,-0.109985,-0.109253,0.0593872,0.986084
1470330455277131,-0.108398,-0.10968,0.0603027,0.986145
1470330455296615,-0.106079,-0.110168,0.0618286,0.986267
1470330455314630,-0.103027,-0.111023,0.064209,0.986328
1470330455337162,-0.0993652,-0.111938,0.0673218,0.986389
1470330455356745,-0.0949707,-0.112671,0.071228,0.986511
1470330455374738,-0.0896606,-0.112976,0.0759277,0.986572
1470330455397209,-0.0835571,-0.112732,0.081604,0.986694
1470330455416721,-0.0773315,-0.111694,0.0881958,0.986755
1470330455440745,-0.0710449,-0.109375,0.0957642,0.986816
1470330455457260,-0.0644531,-0.105591,0.103943,0.986816
1470330455479804,-0.0584106,-0.100769,0.112183,0.986816
1470330455494793,-0.053772,-0.095459,0.120117,0.986633
1470330455517372,-0.0512085,-0.0895996,0.128174,0.986328
1470330455536859,-0.050354,-0.0827637,0.136169,0.985901
1470330455554912,-0.0494385,-0.074646,0.144958,0.985352
1470330455577379,-0.0479736,-0.0644531,0.154541,0.98468
1470330455598384,-0.0474854,-0.0531616,0.163696,0.983887
1470330455614916,-0.050354,-0.0424805,0.172363,0.982788
1470330455637420,-0.0548706,-0.0319214,0.180786,0.981445
1470330455658438,-0.0592651,-0.0213013,0.188721,0.97998
1470330455674954,-0.0626221,-0.0109253,0.195618,0.978577
1470330455697473,-0.065979,0.000366211,0.202393,0.977051
1470330455717992,-0.0699463,0.0125122,0.208618,0.975403
1470330455734508,-0.0741577,0.0253296,0.21405,0.973633
1470330455757027,-0.0795898,0.0388184,0.218628,0.971741
1470330455778562,-0.0853882,0.0527344,0.223083,0.969604
1470330455795100,-0.0913086,0.0673218,0.227478,0.967102
1470330455817081,-0.0974731,0.0824585,0.231628,0.964355
1470330455838100,-0.102661,0.0981445,0.235779,0.961304
1470330455861621,-0.106384,0.114502,0.240051,0.958069
1470330455877667,-0.109497,0.131287,0.244507,0.954407
1470330455897653,-0.113831,0.148193,0.249451,0.950134
1470330455920174,-0.119263,0.165466,0.254395,0.945313
1470330455936694,-0.124268,0.183228,0.259399,0.940002
1470330455957711,-0.129211,0.201782,0.264038,0.934265
1470330455980227,-0.134399,0.221436,0.268677,0.927673
1470330455996242,-0.140381,0.242126,0.272461,0.920532
1470330456019262,-0.147095,0.264465,0.275208,0.912476
1470330456040282,-0.155151,0.287292,0.277283,0.903564
1470330456056296,-0.165833,0.309509,0.279785,0.893494
1470330456078817,-0.177795,0.331787,0.283325,0.882019
1470330456093330,-0.189453,0.354187,0.287231,0.869507
1470330456116356,-0.200562,0.375916,0.292114,0.856201
1470330456138871,-0.211121,0.39679,0.297607,0.842224
1470330456154386,-0.221252,0.416504,0.303345,0.827942
1470330456176404,-0.231873,0.435364,0.309143,0.813049
1470330456198924,-0.243774,0.452393,0.314331,0.798157
1470330456213437,-0.257629,0.46759,0.31958,0.782837
1470330456236458,-0.272034,0.481934,0.32373,0.767334
1470330456258978,-0.286133,0.493652,0.329163,0.752319
1470330456279997,-0.300171,0.505615,0.332886,0.737122
1470330456296513,-0.315979,0.515869,0.336792,0.721497
1470330456319033,-0.33197,0.524841,0.340881,0.70575
1470330456340050,-0.347656,0.532349,0.344238,0.690796
1470330456364073,-0.36261,0.536438,0.34613,0.678894
1470330456379086,-0.376404,0.539001,0.347046,0.668823
1470330456400106,-0.389038,0.53949,0.347656,0.660828
1470330456416620,-0.400513,0.538818,0.34845,0.653992
1470330456439139,-0.411011,0.537476,0.350037,0.647766
1470330456467666,-0.420471,0.535278,0.352356,0.642212
1470330456476673,-0.429016,0.532104,0.354858,0.637817
1470330456498693,-0.43573,0.52832,0.356567,0.635498
1470330456520213,-0.440979,0.523804,0.357483,0.635071
1470330456536227,-0.44458,0.519043,0.358276,0.636047
1470330456559248,-0.447266,0.513916,0.359802,0.637451
1470330456579766,-0.449219,0.509155,0.361755,0.638733
1470330456596782,-0.450989,0.504333,0.363586,0.64032
1470330456626310,-0.452698,0.499634,0.36499,0.641968
1470330456639839,-0.454407,0.49408,0.366089,0.644409
1470330456656339,-0.456055,0.497498,0.366211,0.640564
1470330456678861,-0.456055,0.498474,0.366577,0.639648
1470330456699894,-0.45343,0.495972,0.365967,0.643738
1470330456716389,-0.449707,0.496521,0.36438,0.646851
1470330456738911,-0.447632,0.497559,0.365051,0.647095
1470330456760441,-0.448669,0.495972,0.367554,0.646179
1470330456776442,-0.450195,0.494629,0.369568,0.64502
1470330456806470,-0.450623,0.494568,0.370972,0.643982
1470330456820037,-0.450073,0.493896,0.371094,0.644714
1470330456836543,-0.447937,0.494385,0.370422,0.646301
1470330456866524,-0.445618,0.49408,0.369202,0.648804
1470330456880061,-0.443604,0.492188,0.368103,0.652222
1470330456895549,-0.442627,0.489197,0.367065,0.655701
1470330456919070,-0.442566,0.484985,0.366455,0.659241
1470330456941595,-0.442322,0.48114,0.365723,0.662598
1470330456955619,-0.442078,0.476685,0.364563,0.666626
1470330456978651,-0.442627,0.471558,0.362732,0.670837
1470330457001644,-0.44342,0.467041,0.360901,0.674438
1470330457015660,-0.444275,0.463379,0.358704,0.677612
1470330457039178,-0.444275,0.460632,0.35675,0.680542
1470330457061198,-0.444336,0.458008,0.355469,0.682922
1470330457075749,-0.445129,0.454773,0.354187,0.685242
1470330457098735,-0.445923,0.451904,0.352539,0.687439
1470330457121758,-0.446167,0.449707,0.350586,0.689758
1470330457142780,-0.445313,0.448547,0.348938,0.691895
1470330457158788,-0.444214,0.447571,0.348083,0.693665
1470330457181312,-0.444336,0.445801,0.347656,0.694885
1470330457195850,-0.44519,0.443787,0.347534,0.695679
1470330457218840,-0.445862,0.442078,0.347229,0.696533
1470330457241361,-0.445801,0.441162,0.346802,0.697327
1470330457262422,-0.445435,0.440674,0.346558,0.698059
1470330457278894,-0.445313,0.440125,0.346558,0.698425
1470330457301420,-0.445557,0.439392,0.346619,0.698669
1470330457322467,-0.445862,0.438843,0.34668,0.698853
1470330457338948,-0.446228,0.438293,0.34668,0.698914
1470330457361467,-0.446228,0.438293,0.346741,0.698914
1470330457375507,-0.446106,0.438293,0.346863,0.698914
1470330457399003,-0.445984,0.438232,0.347107,0.698914
1470330457421524,-0.445923,0.438232,0.347229,0.698914
1470330457436034,-0.445923,0.438354,0.347229,0.698792
1470330457459056,-0.446045,0.438599,0.347351,0.698547
1470330457481575,-0.446045,0.438904,0.347412,0.698303
1470330457502610,-0.446045,0.439026,0.347656,0.69812
1470330457519112,-0.446167,0.439026,0.347839,0.697937
1470330457541654,-0.446167,0.439087,0.348083,0.697815
1470330457562662,-0.446289,0.439026,0.348328,0.697632
1470330457579172,-0.446289,0.439026,0.348267,0.697632
1470330457601683,-0.446228,0.439148,0.348206,0.697693
1470330457622702,-0.446228,0.439148,0.348206,0.697632
1470330457639217,-0.446228,0.439209,0.348206,0.697632
1470330457661739,-0.446228,0.439087,0.348145,0.697693
1470330457682756,-0.44635,0.438904,0.348206,0.697754
1470330457698771,-0.446289,0.438477,0.348083,0.698059
1470330457721312,-0.446289,0.437927,0.348022,0.698486
1470330457742371,-0.446533,0.437317,0.3479,0.69873
1470330457758837,-0.446899,0.436523,0.347778,0.699036
1470330457781345,-0.447205,0.435791,0.347717,0.699341
1470330457802363,-0.44751,0.435242,0.347534,0.699646
1470330457818888,-0.447449,0.434875,0.34729,0.700012
1470330457841403,-0.447266,0.434692,0.34729,0.700256
1470330457862934,-0.447266,0.434387,0.34729,0.700439
1470330457878934,-0.447388,0.434021,0.347473,0.7005
1470330457901453,-0.447388,0.433838,0.347778,0.700439
1470330457923974,-0.447449,0.433655,0.348206,0.700317
1470330457938986,-0.447327,0.433655,0.348694,0.700195
1470330457961509,-0.447205,0.433594,0.34906,0.700073
1470330457984027,-0.446899,0.433472,0.349609,0.700073
1470330457999040,-0.446655,0.433228,0.350403,0.700012
1470330458021561,-0.446472,0.4328,0.351501,0.699829
1470330458044083,-0.446167,0.43219,0.352844,0.699707
1470330458058093,-0.445618,0.431519,0.354431,0.699646
1470330458081614,-0.444885,0.430847,0.356262,0.699646
1470330458104158,-0.443909,0.429993,0.358337,0.699707
1470330458118150,-0.442749,0.429077,0.360718,0.699768
1470330458141668,-0.441528,0.427979,0.363525,0.699768
1470330458164189,-0.440186,0.42627,0.366821,0.699951
1470330458185207,-0.438721,0.424072,0.370728,0.700134
1470330458201222,-0.43689,0.421387,0.375244,0.7005
1470330458223742,-0.434631,0.418213,0.380615,0.700928
1470330458245300,-0.431885,0.414307,0.387085,0.701355
1470330458261776,-0.428772,0.40979,0.394714,0.70166
1470330458283796,-0.425232,0.404358,0.403442,0.702026
1470330458305388,-0.421082,0.397888,0.413269,0.702515
1470330458321330,-0.416565,0.390442,0.423828,0.703064
1470330458343852,-0.411377,0.382324,0.434875,0.703857
1470330458364921,-0.405396,0.373413,0.446411,0.704895
1470330458381384,-0.398193,0.364014,0.458618,0.706055
1470330458403903,-0.390198,0.35376,0.47168,0.707153
1470330458426424,-0.380981,0.34259,0.485535,0.708252
1470330458441439,-0.370911,0.330566,0.499939,0.709351
1470330458463958,-0.359924,0.317383,0.514465,0.710632
1470330458484992,-0.347961,0.303528,0.529236,0.711792
1470330458501493,-0.334656,0.288818,0.544373,0.712891
1470330458524011,-0.320618,0.272949,0.559631,0.713745
1470330458545043,-0.305542,0.256775,0.574829,0.714233
1470330458561560,-0.289368,0.239929,0.590027,0.714478
1470330458584071,-0.272034,0.222961,0.604553,0.7146
1470330458605084,-0.253906,0.206665,0.618225,0.714539
1470330458621599,-0.234131,0.191528,0.630737,0.714539
1470330458644121,-0.213806,0.177002,0.641724,0.714905
1470330458665158,-0.193909,0.163696,0.651733,0.714722
1470330458681152,-0.174744,0.150513,0.661438,0.713623
1470330458704173,-0.156006,0.137268,0.67041,0.712219
1470330458725196,-0.137695,0.124695,0.678894,0.710327
1470330458740711,-0.120544,0.112854,0.686646,0.707947
1470330458764228,-0.104004,0.101929,0.693542,0.705505
1470330458785246,-0.0875244,0.092041,0.699158,0.703552
1470330458800760,-0.0717163,0.0829468,0.704102,0.701538
1470330458823780,-0.0568848,0.0744019,0.708923,0.698975
1470330458846302,-0.043396,0.0672607,0.713074,0.696472
1470330458860816,-0.0308838,0.0615234,0.716125,0.694519
1470330458883835,-0.0196533,0.0565796,0.719116,0.692261
1470330458906355,-0.0106201,0.0513306,0.721924,0.68988
1470330458920869,-0.00378418,0.0449829,0.724487,0.687744
1470330458943888,0.00238037,0.0384521,0.726685,0.685852
1470330458966408,0.00848389,0.0331421,0.728638,0.68396
1470330458980924,0.0147705,0.0286865,0.730591,0.682007
1470330459003942,0.0183716,0.0228882,0.73114,0.681519
1470330459026462,0.0232544,0.0167847,0.731934,0.680725
1470330459047482,0.0274658,0.0109863,0.73291,0.679626
1470330459064003,0.0310059,0.00689697,0.733398,0.679016
1470330459086518,0.0339966,0.00354004,0.733826,0.678406
1470330459101029,0.0367432,0.00231934,0.733887,0.678223
1470330459124050,0.0407104,0.00366211,0.733948,0.677917
1470330459146595,0.0427856,0.00537109,0.733765,0.677979
1470330459167590,0.0437012,0.00622559,0.733093,0.678589
1470330459184104,0.0445557,0.00701904,0.732239,0.679504
1470330459206652,0.0463257,0.0088501,0.73114,0.680481
1470330459220637,0.0485229,0.0109253,0.730103,0.681458
1470330459244157,0.0499878,0.0109863,0.729248,0.682312
1470330459266678,0.0507202,0.00909424,0.728577,0.682983
1470330459280692,0.0510254,0.00634766,0.728027,0.683594
1470330459304214,0.0512695,0.00427246,0.727478,0.684082
1470330459326732,0.0518799,0.00390625,0.727173,0.684387
1470330459347250,0.0526123,0.00445557,0.726929,0.68457
1470330459363765,0.0537109,0.0057373,0.726746,0.684692
1470330459386286,0.0552979,0.00775146,0.726624,0.684692
1470330459407804,0.0570679,0.0102539,0.72644,0.684692
1470330459423824,0.0585938,0.0123291,0.726318,0.684692
1470330459446340,0.0603027,0.0146484,0.72583,0.684998
1470330459467359,0.0615234,0.0169067,0.725403,0.685242
1470330459483874,0.0615845,0.0184326,0.725281,0.685364
1470330459506394,0.0610352,0.0187378,0.725159,0.685547
1470330459527428,0.0606689,0.0182495,0.725098,0.685669
1470330459543928,0.0612793,0.0184326,0.724854,0.685852
1470330459566448,0.0623779,0.0198364,0.724609,0.685974
1470330459587467,0.0632324,0.0211792,0.724548,0.685913
1470330459603982,0.0633545,0.0219727,0.724609,0.685791
1470330459626503,0.0632935,0.0219727,0.724609,0.685791
1470330459649023,0.0634155,0.0221558,0.72467,0.68573
1470330459664049,0.0639648,0.0227661,0.72467,0.685669
1470330459686556,0.06427,0.0233154,0.724792,0.685486
1470330459707577,0.0640869,0.0231934,0.725037,0.685303
1470330459724089,0.0638428,0.0227661,0.725159,0.685181
1470330459746611,0.0637817,0.0227661,0.725159,0.685181
1470330459767628,0.0640259,0.0233154,0.725159,0.68512
1470330459784143,0.0640259,0.0236816,0.72522,0.685059
1470330459806663,0.0640259,0.0234985,0.725281,0.684998
1470330459829184,0.064209,0.0235596,0.72522,0.684998
1470330459843713,0.0643921,0.0240479,0.72522,0.684998
1470330459866718,0.0644531,0.024231,0.72522,0.684998
1470330459888737,0.0645752,0.0244141,0.725159,0.685059
1470330459903751,0.0648193,0.0250244,0.725037,0.68512
1470330459926271,0.0649414,0.0255127,0.725037,0.68512
1470330459965306,0.0648804,0.0255737,0.725037,0.68512
1470330459969809,0.0648804,0.0255737,0.725037,0.68512
1470330460001338,0.0648804,0.0255737,0.725037,0.68512
1470330460008845,0.0648193,0.0256348,0.725037,0.68512
1470330460023358,0.0648193,0.0256348,0.725037,0.68512
1470330460046379,0.0647583,0.0256958,0.725037,0.68512
1470330460068900,0.0646973,0.0256958,0.725037,0.68512
1470330460083413,0.0646973,0.0256958,0.725037,0.68512
1470330460106435,0.0646973,0.0257568,0.725037,0.68512
1470330460128952,0.0646362,0.0258179,0.725037,0.68512
1470330460143467,0.0646362,0.0258179,0.725037,0.68512
1470330460166486,0.0645752,0.0258179,0.725037,0.685181
1470330460189007,0.0645752,0.0258179,0.725037,0.685181
1470330460203519,0.0645142,0.0258789,0.725037,0.685181
1470330460226540,0.0645142,0.0258789,0.724976,0.685181
1470330460249060,0.0645142,0.0259399,0.724976,0.685181
1470330460263104,0.064209,0.0258789,0.725037,0.685181
1470330460286594,0.064209,0.0258789,0.725037,0.685181
1470330460309114,0.0641479,0.0259399,0.725037,0.685181
1470330460330149,0.0641479,0.0259399,0.725037,0.685181
1470330460346647,0.0640869,0.0259399,0.725037,0.685181
1470330460369168,0.0640869,0.0259399,0.725037,0.685181
1470330460390187,0.0640259,0.026001,0.725037,0.685181
1470330460406202,0.0640259,0.026001,0.725037,0.685181
1470330460428729,0.0639038,0.0259399,0.725037,0.685181
1470330460450241,0.0636597,0.0257568,0.725037,0.685181
1470330460466257,0.0635986,0.0257568,0.725037,0.685181
1470330460488777,0.0635986,0.0258179,0.725037,0.685181
1470330460510295,0.0633545,0.0257568,0.725098,0.685181
1470330460526309,0.0630493,0.0256958,0.725098,0.685181
1470330460555351,0.0630493,0.0256958,0.725098,0.685181
1470330460570382,0.0629883,0.0256958,0.725098,0.685181
1470330460592869,0.0629883,0.0256958,0.725098,0.685181
1470330460608885,0.0628052,0.0256348,0.725159,0.685181
1470330460630410,0.062561,0.0253906,0.725159,0.685242
1470330460646421,0.0625,0.0254517,0.725159,0.685242
1470330460668937,0.0625,0.0254517,0.725159,0.685242
1470330460690527,0.062439,0.0255127,0.725159,0.685242
1470330460706473,0.062439,0.0255127,0.725159,0.685242
1470330460729492,0.062439,0.0255127,0.725159,0.685242
1470330460751514,0.0623779,0.0255127,0.725159,0.685242
1470330460766525,0.0623779,0.0255127,0.725159,0.685242
1470330460789045,0.0623779,0.0255737,0.725159,0.685242
1470330460811566,0.0623779,0.0255737,0.725159,0.685242
1470330460826579,0.0623169,0.0255737,0.725159,0.685242
1470330460849100,0.0623779,0.0258789,0.725098,0.685242
1470330460854620,0.0623779,0.0259399,0.725098,0.685242
1470330460877124,0.0620728,0.0258179,0.725098,0.685303
1470330460892138,0.0620728,0.0258179,0.725098,0.685303
1470330460914658,0.0620117,0.0258179,0.725098,0.685303
1470330460937204,0.0620117,0.0258789,0.725098,0.685303
1470330460953194,0.0617676,0.0256958,0.725098,0.685303
1470330460974247,0.0614624,0.0256348,0.725098,0.685364
1470330460997271,0.0614624,0.0256348,0.725098,0.685364
1470330461011794,0.0614014,0.0256348,0.725098,0.685364
1470330461034374,0.0614014,0.0256958,0.725098,0.685364
1470330461056788,0.0614624,0.0256958,0.725098,0.685364
1470330461071801,0.0612183,0.0255127,0.72522,0.685242
1470330461094319,0.0606689,0.0250854,0.725342,0.685181
1470330461116840,0.0599365,0.0245361,0.725525,0.685059
1470330461131869,0.0595093,0.0238647,0.725647,0.684998
1470330461154373,0.0592651,0.0236206,0.725647,0.685059
1470330461185901,0.0592041,0.0235596,0.725708,0.684937
1470330461191909,0.059021,0.0230713,0.725891,0.684814
1470330461214427,0.0586548,0.0217896,0.726135,0.684631
1470330461236949,0.0586548,0.020874,0.726318,0.684448
1470330461253465,0.0587769,0.0201416,0.726501,0.684265
1470330461274482,0.0588379,0.0194092,0.727051,0.683716
1470330461297001,0.0614014,0.0162964,0.727051,0.683594
1470330461313516,0.0622559,0.0140991,0.728943,0.681519
1470330461334535,0.0616455,0.00891113,0.730164,0.68042
1470330461357055,0.0620728,0.0020752,0.732361,0.67804
1470330461373570,0.0657959,0.0010376,0.734619,0.675171
1470330461394588,0.0800781,0.0158691,0.735535,0.672485
1470330461417109,0.0946045,0.0305786,0.735229,0.67041
1470330461433624,0.109131,0.039917,0.735657,0.667236
1470330461462256,0.118652,0.0404663,0.737854,0.663147
1470330461476688,0.123779,0.0375366,0.739868,0.660156
1470330461493178,0.130005,0.0365601,0.740845,0.657837
1470330461514200,0.139709,0.0402222,0.740967,0.655518
1470330461536741,0.152222,0.0465698,0.740845,0.652466
1470330461553231,0.165405,0.0525513,0.74054,0.64917
1470330461574751,0.177917,0.0566406,0.739868,0.64624
1470330461596770,0.189941,0.0596313,0.739075,0.643433
1470330461613287,0.201965,0.0618286,0.738159,0.640625
1470330461634304,0.2146,0.0646973,0.737122,0.63739
1470330461656824,0.227722,0.0684814,0.736023,0.633728
1470330461674874,0.24176,0.0736084,0.734619,0.629578
1470330461694358,0.255676,0.0785522,0.732849,0.625549
1470330461716895,0.26886,0.0834961,0.730713,0.621887
1470330461734910,0.280518,0.0882568,0.728394,0.618774
1470330461754428,0.290039,0.0922852,0.724976,0.617798
1470330461776951,0.297363,0.0923462,0.722778,0.616882
1470330461794978,0.303284,0.0922241,0.71991,0.617371
1470330461814525,0.307251,0.0903931,0.717651,0.618347
1470330461836987,0.310547,0.0883789,0.715698,0.619202
1470330461855062,0.313904,0.0874023,0.714355,0.619263
1470330461874550,0.317383,0.0875244,0.713623,0.618286
1470330461897067,0.321472,0.0888062,0.713257,0.616394
1470330461915066,0.324951,0.0899658,0.713501,0.614136
1470330461934573,0.32782,0.0912476,0.714417,0.611328
1470330461957094,0.329712,0.0918579,0.715515,0.608948
1470330461982617,0.330322,0.0906372,0.716919,0.607117
1470330461994694,0.330139,0.0880127,0.718262,0.606018
1470330462018149,0.331299,0.0853271,0.719788,0.603943
1470330462035271,0.333801,0.0837402,0.72113,0.601135
1470330462054686,0.335815,0.0812988,0.722778,0.598389
1470330462077275,0.336426,0.0765381,0.725281,0.595703
1470330462095296,0.336853,0.0713501,0.728027,0.592712
1470330462114267,0.337341,0.0672607,0.730774,0.589478
1470330462137256,0.337952,0.0640259,0.733459,0.586182
1470330462154829,0.338501,0.0609741,0.736206,0.582764
1470330462174291,0.338928,0.0577393,0.739014,0.579285
1470330462196809,0.339172,0.0546875,0.741516,0.576233
1470330462214826,0.338074,0.0508423,0.743652,0.574463
1470330462234356,0.33551,0.0465088,0.745483,0.573975
1470330462256863,0.332581,0.0427856,0.747131,0.573792
1470330462274911,0.331482,0.0397949,0.747986,0.573486
1470330462295899,0.332153,0.0359497,0.747681,0.573792
1470330462316917,0.33313,0.0296631,0.746948,0.574524
1470330462334933,0.334229,0.0213013,0.746155,0.575317
1470330462355954,0.336731,0.0125122,0.745483,0.575012
1470330462377029,0.340454,0.0065918,0.744507,0.574158
1470330462394999,0.343445,0.00146484,0.743042,0.574341
1470330462417507,0.344299,-0.00445557,0.742676,0.57428
1470330462437024,0.344116,-0.010437,0.743347,0.573425
1470330462455040,0.344238,-0.0151367,0.744568,0.571655
1470330462475560,0.345398,-0.0187378,0.746338,0.568542
1470330462497093,0.347412,-0.0209961,0.748169,0.564819
1470330462514609,0.349609,-0.0240479,0.749573,0.561462
1470330462537615,0.351196,-0.0297241,0.750671,0.558716
1470330462556648,0.351074,-0.0339966,0.751831,0.557007
1470330462574651,0.349487,-0.0371094,0.75,0.560242
1470330462595667,0.34668,-0.0400391,0.751587,0.559631
1470330462617186,0.346558,-0.0429688,0.751892,0.559082
1470330462634703,0.347351,-0.0456543,0.751404,0.559082
1470330462657250,0.3479,-0.0460815,0.751221,0.55896
1470330462676766,0.3479,-0.0476685,0.75116,0.558899
1470330462694815,0.347839,-0.0490112,0.750671,0.559448
1470330462717277,0.348083,-0.0493774,0.750061,0.56012
1470330462736798,0.347412,-0.0498047,0.749756,0.560913
1470330462754815,0.346008,-0.0507202,0.749329,0.562256
1470330462777348,0.344238,-0.0515747,0.749207,0.563416
1470330462796863,0.342896,-0.0515137,0.749207,0.56427
1470330462814864,0.341919,-0.0512695,0.749329,0.564636
1470330462837385,0.341309,-0.0507813,0.74939,0.565063
1470330462856921,0.34082,-0.0505981,0.749512,0.565186
1470330462874946,0.340393,-0.0505981,0.749634,0.565247
1470330462897443,0.34021,-0.0502319,0.749573,0.565552
1470330462916956,0.340027,-0.0499268,0.749329,0.565918
1470330462935087,0.339844,-0.0496216,0.749207,0.566223
1470330462957556,0.339722,-0.0493164,0.749023,0.566589
1470330462977027,0.339478,-0.0490723,0.748962,0.566833
1470330462995026,0.339355,-0.0488281,0.74884,0.567078
1470330463017576,0.339294,-0.0484619,0.748779,0.567261
1470330463038064,0.339233,-0.0480347,0.748718,0.567444
1470330463055080,0.338867,-0.0476074,0.748657,0.567688
1470330463077600,0.338623,-0.0472412,0.748657,0.567871
1470330463097117,0.338318,-0.0469971,0.748657,0.568115
1470330463114636,0.337891,-0.0466919,0.748596,0.568481
1470330463137270,0.33728,-0.0463257,0.748657,0.568848
1470330463157171,0.336731,-0.0460205,0.748596,0.569214
1470330463175305,0.336182,-0.0459595,0.748718,0.569397
1470330463197249,0.335632,-0.0457764,0.748901,0.569397
1470330463217225,0.335205,-0.0454102,0.749023,0.569641
1470330463234768,0.334839,-0.0450439,0.749023,0.569885
1470330463256262,0.334473,-0.0449219,0.748962,0.570129
1470330463277782,0.333984,-0.0447388,0.749146,0.57019
1470330463294294,0.333557,-0.0444336,0.749451,0.570068
1470330463316815,0.333191,-0.0439453,0.749695,0.570007
1470330463337834,0.332886,-0.0435791,0.749878,0.570007
1470330463353848,0.332397,-0.0435181,0.75,0.570068
1470330463376368,0.331848,-0.0436401,0.750183,0.57019
1470330463397892,0.331421,-0.0440063,0.750244,0.570313
1470330463413904,0.330994,-0.0444336,0.750366,0.570374
1470330463436422,0.330322,-0.0447388,0.750427,0.570679
1470330463457947,0.32959,-0.0450439,0.750488,0.570984
1470330463473957,0.329041,-0.045105,0.75061,0.571106
1470330463496476,0.328552,-0.0448608,0.750977,0.570984
1470330463517495,0.328186,-0.0444336,0.751221,0.570801
1470330463534012,0.327759,-0.0441284,0.751465,0.570801
1470330463556561,0.327271,-0.0440063,0.751648,0.570923
1470330463577590,0.326904,-0.0441895,0.751831,0.570862
1470330463594068,0.326599,-0.0441895,0.751953,0.570862
1470330463616585,0.326233,-0.0441284,0.752075,0.570862
1470330463646611,0.325867,-0.0441284,0.752075,0.571106
1470330463654117,0.325439,-0.0443726,0.752136,0.571228
1470330463676638,0.325073,-0.0450439,0.752136,0.571411
1470330463699158,0.324829,-0.0460815,0.751831,0.571838
1470330463714188,0.324646,-0.0471191,0.751648,0.572144
1470330463736692,0.324097,-0.0479126,0.751465,0.572632
1470330463759226,0.323425,-0.0483398,0.75116,0.573303
1470330463773226,0.322876,-0.0488892,0.750854,0.574036
1470330463796757,0.322388,-0.0492554,0.75061,0.574585
1470330463818766,0.321838,-0.0493774,0.750427,0.575073
1470330463833280,0.321167,-0.0493774,0.750488,0.575439
1470330463856800,0.320618,-0.0492554,0.75061,0.575562
1470330463879320,0.320129,-0.0490723,0.750793,0.575562
1470330463893333,0.319824,-0.0488281,0.750916,0.575623
1470330463916853,0.319519,-0.0485229,0.751099,0.575562
1470330463938874,0.319275,-0.0483398,0.75116,0.575623
1470330463953387,0.318909,-0.0483398,0.751221,0.575745
1470330463976407,0.318542,-0.0485229,0.75116,0.57605
1470330463998927,0.317993,-0.0488281,0.751099,0.576477
1470330464013441,0.317444,-0.0490723,0.750854,0.577026
1470330464036461,0.316833,-0.0490723,0.750732,0.577515
1470330464058981,0.316101,-0.0489502,0.75061,0.578064
1470330464073494,0.315613,-0.048645,0.750488,0.578491
1470330464096516,0.315063,-0.0484009,0.750488,0.578857
1470330464119037,0.314514,-0.0481567,0.750488,0.579163
1470330464140055,0.314087,-0.0479736,0.750549,0.579346
1470330464156569,0.313721,-0.0479736,0.750549,0.579529
1470330464179102,0.313416,-0.0477905,0.750549,0.579651
1470330464200108,0.31311,-0.0476685,0.75061,0.579773
1470330464216639,0.313049,-0.0474243,0.750732,0.579712
1470330464239145,0.312866,-0.0471191,0.750854,0.579712
1470330464260192,0.312866,-0.0471191,0.750793,0.579712
1470330464276678,0.312866,-0.0471191,0.750793,0.579712
1470330464299197,0.312866,-0.0471191,0.750793,0.579712
1470330464320232,0.312866,-0.0471191,0.750793,0.579712
1470330464336766,0.312866,-0.0471191,0.750793,0.579712
1470330464359251,0.312561,-0.0471802,0.750854,0.579834
1470330464380309,0.312195,-0.0473633,0.750916,0.579956
1470330464396784,0.311951,-0.0474243,0.750916,0.580017
1470330464419304,0.311829,-0.0471802,0.750977,0.580078
1470330464440325,0.311584,-0.0470581,0.750977,0.5802
1470330464456338,0.311218,-0.0471191,0.750916,0.580505
1470330464478860,0.31073,-0.0473022,0.750732,0.580933
1470330464500377,0.31012,-0.0473022,0.750671,0.58136
1470330464516392,0.309631,-0.0472412,0.750549,0.581787
1470330464538912,0.309143,-0.0471802,0.750427,0.582214
1470330464561433,0.308655,-0.0469971,0.750366,0.582581
1470330464575946,0.308105,-0.0466309,0.750183,0.583069
1470330464598966,0.307556,-0.0463867,0.749939,0.583679
1470330464621488,0.306885,-0.0462036,0.749695,0.584351
1470330464636516,0.305908,-0.0457153,0.749573,0.585144
1470330464659020,0.304504,-0.0453491,0.749207,0.586365
1470330464681540,0.302734,-0.0457153,0.748596,0.588074
1470330464696053,0.30011,-0.0473633,0.747803,0.59021
1470330464719074,0.296448,-0.0492554,0.747192,0.592712
1470330464741594,0.292236,-0.0504761,0.746887,0.595093
1470330464755606,0.288025,-0.0498657,0.746826,0.59729
1470330464779128,0.283813,-0.0479736,0.74646,0.599915
1470330464801648,0.279175,-0.0463257,0.74585,0.602905
1470330464815660,0.273743,-0.0454102,0.745239,0.606201
1470330464839182,0.267273,-0.0447388,0.744873,0.609619
1470330464861702,0.260437,-0.0442505,0.744934,0.612549
1470330464875716,0.254211,-0.043396,0.74469,0.615479
1470330464899256,0.24884,-0.0413818,0.744629,0.61792
1470330464921755,0.243652,-0.0390625,0.744629,0.620117
1470330464935769,0.238037,-0.0369263,0.744202,0.622986
1470330464959289,0.232361,-0.0355225,0.743347,0.62616
1470330464981312,0.226868,-0.0346069,0.742371,0.629395
1470330465002828,0.221863,-0.0335693,0.74176,0.631958
1470330465018844,0.217346,-0.0321655,0.741272,0.634155
1470330465041373,0.21283,-0.0308838,0.740723,0.636414
1470330465062899,0.207947,-0.0301514,0.740112,0.638733
1470330465078901,0.203247,-0.0297241,0.739685,0.640808
1470330465101417,0.199341,-0.0287476,0.739441,0.642334
1470330465122953,0.195923,-0.0270386,0.739502,0.643372
1470330465138951,0.19281,-0.0252075,0.73938,0.64447
1470330465161471,0.189514,-0.0239868,0.739136,0.645874
1470330465182491,0.185791,-0.0230103,0.738892,0.647278
1470330465205023,0.182129,-0.0222168,0.73877,0.648376
1470330465221525,0.17926,-0.0211182,0.73877,0.649292
1470330465242578,0.17688,-0.0197754,0.738708,0.650024
1470330465259084,0.1745,-0.0184937,0.738586,0.650879
1470330465281581,0.171753,-0.0175171,0.738525,0.651733
1470330465302598,0.169067,-0.0164185,0.738525,0.652405
1470330465319114,0.166992,-0.0149536,0.738464,0.653015
1470330465341633,0.165344,-0.0134888,0.738342,0.653625
1470330465362666,0.163513,-0.0125122,0.738098,0.654419
1470330465379168,0.161499,-0.0119629,0.737793,0.655212
1470330465401686,0.159668,-0.0118408,0.73761,0.655884
1470330465422798,0.158447,-0.0114746,0.737488,0.656311
1470330465439221,0.157837,-0.0107422,0.737427,0.656555
1470330465461740,0.15741,-0.00976563,0.737488,0.656616
1470330465484261,0.157104,-0.00891113,0.737488,0.656677
1470330465499274,0.156555,-0.00860596,0.737549,0.656799
1470330465521827,0.156006,-0.00836182,0.73761,0.65686
1470330465544340,0.155579,-0.00787354,0.73761,0.656921
1470330465559328,0.155151,-0.00726318,0.73761,0.657043
1470330465581350,0.154419,-0.00683594,0.737732,0.657104
1470330465603868,0.15332,-0.00653076,0.737854,0.657227
1470330465618882,0.1521,-0.00646973,0.737976,0.657349
1470330465641402,0.150879,-0.00610352,0.738037,0.657593
1470330465670428,0.149414,-0.0055542,0.737976,0.657959
1470330465678435,0.147583,-0.00512695,0.737976,0.658386
1470330465701456,0.145569,-0.00482178,0.737976,0.658813
1470330465723976,0.143616,-0.00469971,0.738098,0.65918
1470330465738490,0.141846,-0.00421143,0.738159,0.659424
1470330465762010,0.139709,-0.00335693,0.738342,0.659729
1470330465784030,0.137207,-0.00262451,0.738525,0.660034
1470330465798543,0.134216,-0.0022583,0.738525,0.660645
1470330465821563,0.130737,-0.0020752,0.738403,0.661499
1470330465844084,0.126831,-0.00183105,0.738342,0.662354
1470330465865102,0.122742,-0.00152588,0.738403,0.663025
1470330465881618,0.118591,-0.000854492,0.738403,0.663818
1470330465904137,0.114502,-0.000183105,0.738403,0.66449
1470330465925156,0.110413,0.000610352,0.738586,0.665039
1470330465941672,0.106384,0.00164795,0.738831,0.665344
1470330465964192,0.102295,0.00262451,0.738953,0.665894
1470330465985210,0.0979004,0.0032959,0.738953,0.666565
1470330466001725,0.0933228,0.00378418,0.73877,0.667419
1470330466024245,0.0889893,0.00427246,0.738464,0.668335
1470330466045264,0.0846558,0.00463867,0.73822,0.669128
1470330466061779,0.0802002,0.00500488,0.738037,0.669861
1470330466084306,0.0756226,0.00585938,0.737793,0.670654
1470330466106319,0.0704346,0.00653076,0.737549,0.671509
1470330466121833,0.0646973,0.00683594,0.737305,0.672302
1470330466143853,0.0594482,0.00750732,0.737,0.673157
1470330466164871,0.0548706,0.00854492,0.736755,0.673767
1470330466181387,0.0505981,0.00964355,0.736755,0.674133
1470330466203907,0.0460815,0.0105591,0.736755,0.674377
1470330466225426,0.041687,0.0107422,0.736877,0.674622
1470330466241440,0.0379639,0.0109253,0.736877,0.674805
1470330466263961,0.0354614,0.0117188,0.736938,0.674866
1470330466285480,0.0336914,0.0123901,0.737122,0.674744
1470330466301494,0.0321045,0.0126953,0.737305,0.674561
1470330466324015,0.0305176,0.0126953,0.737427,0.674561
1470330466346536,0.0291138,0.0125122,0.737366,0.674683
1470330466361548,0.0279541,0.0123901,0.737244,0.674866
1470330466384069,0.0266113,0.0125122,0.737244,0.674927
1470330466405087,0.0247803,0.0125122,0.737122,0.67511
1470330466421603,0.0224609,0.0123901,0.736877,0.675476
1470330466444122,0.0198975,0.0123291,0.736572,0.675903
1470330466466643,0.017334,0.0124512,0.736328,0.676208
1470330466481656,0.0148315,0.0128784,0.736023,0.676575
1470330466504177,0.012085,0.0133057,0.735718,0.677002
1470330466526697,0.00921631,0.0134277,0.735291,0.67749
1470330466541210,0.00640869,0.0135498,0.734863,0.677979
1470330466564231,0.00396729,0.0139771,0.734375,0.678528
1470330466586751,0.00177002,0.0142822,0.734009,0.678955
1470330466600764,-0.00012207,0.0145874,0.733704,0.67926
1470330466624284,-0.00164795,0.0149536,0.733337,0.679626
1470330466646806,-0.00262451,0.0154419,0.732849,0.680115
1470330466660817,-0.00354004,0.0158691,0.732483,0.680542
1470330466684339,-0.00421143,0.0158081,0.732178,0.680847
1470330466706359,-0.00469971,0.0159912,0.731934,0.681152
1470330466720873,-0.00506592,0.0165405,0.731628,0.681396
1470330466744392,-0.00561523,0.0168457,0.731384,0.681702
1470330466772919,-0.00646973,0.0168457,0.731079,0.682007
1470330466780952,-0.00738525,0.0170288,0.730652,0.682434
1470330466803946,-0.00860596,0.0170898,0.730286,0.6828
1470330466826466,-0.0098877,0.0170898,0.72998,0.683167
1470330466840979,-0.0112915,0.0172729,0.729553,0.683533
1470330466864002,-0.0128784,0.0175171,0.729187,0.683899
1470330466886520,-0.0144043,0.0176392,0.728943,0.684143
1470330466901048,-0.015686,0.0177612,0.72876,0.684326
1470330466924066,-0.0168457,0.0180054,0.728638,0.684387
1470330466946575,-0.0179443,0.0180664,0.728577,0.684448
1470330466967594,-0.0189819,0.0181274,0.728516,0.684448
1470330466984135,-0.0196533,0.0182495,0.728577,0.684326
1470330467006638,-0.0198364,0.0185547,0.72876,0.684143
1470330467027672,-0.0198364,0.0188599,0.728943,0.68396
1470330467043663,-0.0199585,0.019043,0.729065,0.683838
1470330467066683,-0.0201416,0.019043,0.729004,0.683899
1470330467087726,-0.0204468,0.0187988,0.728882,0.684021
1470330467104216,-0.0209351,0.0184937,0.728821,0.684082
1470330467134243,-0.0214233,0.0184326,0.72876,0.684143
1470330467147755,-0.0220337,0.0184326,0.728699,0.684204
1470330467179283,-0.022644,0.0184326,0.728577,0.684265
1470330467186789,-0.0233765,0.0184937,0.728455,0.684387
1470330467207808,-0.024292,0.0184326,0.728333,0.684509
1470330467223823,-0.0252075,0.0183716,0.728149,0.684631
1470330467253850,-0.0261841,0.0182495,0.727966,0.684753
1470330467267862,-0.0270386,0.0182495,0.727844,0.684937
1470330467283877,-0.0278931,0.0183105,0.727661,0.685059
1470330467306397,-0.0286865,0.0183105,0.727478,0.685242
1470330467328917,-0.029541,0.0181885,0.727295,0.685364
1470330467343931,-0.0302124,0.0183105,0.727051,0.685608
1470330467373957,-0.0308838,0.0183716,0.726868,0.685791
1470330467388971,-0.0314331,0.0183105,0.726746,0.685913
1470330467403484,-0.0319214,0.0183105,0.726563,0.686096
1470330467426507,-0.0323486,0.0182495,0.726318,0.686279
1470330467449025,-0.03302,0.0178833,0.725952,0.686646
1470330467464054,-0.0338135,0.0171509,0.725342,0.687317
1470330467486560,-0.03479,0.0150757,0.724609,0.688049
1470330467509081,-0.0361938,0.0112305,0.723816,0.688904
1470330467531599,-0.0375977,0.00592041,0.723083,0.689636
1470330467546613,-0.038269,0.000183105,0.721863,0.690918
1470330467569133,-0.0388794,-0.00665283,0.719788,0.693054
1470330467583648,-0.041626,-0.0150146,0.71698,0.695618
1470330467606668,-0.0474854,-0.0211792,0.71344,0.69873
1470330467629186,-0.0533447,-0.0216675,0.708984,0.70282
1470330467650208,-0.0579224,-0.0167847,0.702698,0.708862
1470330467666720,-0.0638428,-0.012207,0.693542,0.717407
1470330467689240,-0.0709229,-0.00817871,0.681946,0.727844
1470330467710277,-0.0806885,-0.00146484,0.66803,0.739685
1470330467726774,-0.0910645,0.00543213,0.651367,0.753235
1470330467749295,-0.101379,0.0119019,0.632019,0.768127
1470330467770347,-0.110535,0.0178833,0.610718,0.783813
1470330467786333,-0.11853,0.0238037,0.588013,0.799683
1470330467808849,-0.125549,0.0303955,0.56366,0.815796
1470330467830380,-0.130859,0.0374146,0.538147,0.831726
1470330467846381,-0.133484,0.0435181,0.511475,0.847717
1470330467868902,-0.134338,0.0476685,0.483337,0.863708
1470330467890421,-0.132935,0.0512085,0.454041,0.879456
1470330467906440,-0.128784,0.0535889,0.423767,0.894897
1470330467928956,-0.123169,0.0542603,0.392761,0.909668
1470330467950501,-0.116333,0.053772,0.361328,0.923584
1470330467966490,-0.109863,0.0513916,0.33075,0.935852
1470330467989011,-0.105896,0.0467529,0.301331,0.946411
1470330468010028,-0.104736,0.0411377,0.273132,0.955322
1470330468026545,-0.105408,0.0354614,0.246704,0.962646
1470330468049064,-0.107788,0.0305176,0.223328,0.968262
1470330468070111,-0.109192,0.0255127,0.204041,0.972473
1470330468086598,-0.111267,0.0194702,0.1875,0.975708
1470330468109120,-0.117737,0.015564,0.17218,0.977844
1470330468130137,-0.125793,0.0100098,0.158875,0.979187
1470330468146654,-0.128052,0.00469971,0.148987,0.980469
1470330468168671,-0.122681,0.00152588,0.143372,0.981995
1470330468190191,-0.120239,-0.000732422,0.140137,0.982788
1470330468206705,-0.122253,-0.00323486,0.137817,0.982849
1470330468229227,-0.124207,-0.00549316,0.135986,0.982849
1470330468250278,-0.121948,-0.00610352,0.134277,0.983337
1470330468265758,-0.118896,-0.00598145,0.133057,0.983887
1470330468289281,-0.119141,-0.00665283,0.132568,0.983948
1470330468310312,-0.121277,-0.00726318,0.132385,0.983704
1470330468316818,-0.122742,-0.00720215,0.132385,0.983521
1470330468333319,-0.123535,-0.0065918,0.132019,0.983459
1470330468354338,-0.122498,-0.00616455,0.131592,0.983643
1470330468376871,-0.119873,-0.00616455,0.130859,0.98407
1470330468391887,-0.115723,-0.00585938,0.129822,0.984741
1470330468414406,-0.111084,-0.00494385,0.128479,0.985413
1470330468436912,-0.107239,-0.00439453,0.126648,0.986084
1470330468453427,-0.105896,-0.00561523,0.124634,0.986511
1470330468474445,-0.106689,-0.00738525,0.122681,0.986633
1470330468496967,-0.107971,-0.00872803,0.121033,0.986694
1470330468513481,-0.108704,-0.0100708,0.11969,0.986755
1470330468534499,-0.108521,-0.0117798,0.118774,0.986877
1470330468560023,-0.1073,-0.0131226,0.118347,0.987061
1470330468572033,-0.105591,-0.0137329,0.117859,0.987244
1470330468594553,-0.103699,-0.013855,0.117432,0.987549
1470330468617073,-0.101685,-0.013855,0.116882,0.987793
1470330468632088,-0.0996704,-0.0134277,0.116333,0.988098
1470330468654607,-0.0979614,-0.0130615,0.115601,0.988342
1470330468677128,-0.0969849,-0.0125122,0.114868,0.988525
1470330468693642,-0.0964355,-0.0123291,0.114197,0.988647
1470330468714661,-0.0959473,-0.012146,0.113403,0.988831
1470330468737181,-0.0956421,-0.0117188,0.112488,0.988953
1470330468752194,-0.0957642,-0.0112305,0.111816,0.989014
1470330468774715,-0.0953979,-0.0106812,0.111633,0.989075
1470330468796735,-0.0946655,-0.0102539,0.111572,0.989136
1470330468811748,-0.0933228,-0.00933838,0.111877,0.989258
1470330468834269,-0.0915527,-0.00830078,0.112976,0.989319
1470330468857290,-0.0911865,-0.00793457,0.113586,0.989258
1470330468871804,-0.09198,-0.00775146,0.113708,0.989197
1470330468894322,-0.0928955,-0.00775146,0.113892,0.989075
1470330468917436,-0.0933228,-0.00811768,0.114075,0.989014
1470330468933359,-0.0928955,-0.00823975,0.113953,0.989075
1470330468954437,-0.0925293,-0.00842285,0.113647,0.989136
1470330468976923,-0.0930786,-0.00878906,0.113464,0.989136
1470330468993412,-0.0938721,-0.00878906,0.113342,0.989014
1470330469014433,-0.0942993,-0.00854492,0.113159,0.989014
1470330469039955,-0.0944214,-0.00823975,0.112976,0.989014
1470330469053466,-0.0944824,-0.00799561,0.112732,0.989075
1470330469074497,-0.0948486,-0.00775146,0.11261,0.989014
1470330469097004,-0.095459,-0.00744629,0.112488,0.989014
1470330469115021,-0.0960693,-0.00708008,0.112244,0.988953
1470330469134539,-0.0967407,-0.00671387,0.112,0.988953
1470330469157060,-0.0971069,-0.00653076,0.111755,0.988953
1470330469173574,-0.097168,-0.00616455,0.111511,0.988953
1470330469194593,-0.09729,-0.0057373,0.111328,0.988953
1470330469217147,-0.0977783,-0.00549316,0.111206,0.988953
1470330469233627,-0.0981445,-0.0055542,0.110962,0.988892
1470330469254645,-0.0985107,-0.00579834,0.110901,0.988892
1470330469277166,-0.0982666,-0.00592041,0.111267,0.988892
1470330469294699,-0.0969849,-0.00579834,0.111511,0.988953
1470330469314707,-0.0958862,-0.00579834,0.111511,0.989075
1470330469337284,-0.09552,-0.00585938,0.111389,0.989136
1470330469355351,-0.0957031,-0.00579834,0.111694,0.989075
1470330469374262,-0.0964355,-0.00592041,0.112183,0.988953
1470330469397350,-0.0966187,-0.00634766,0.112427,0.988892
1470330469414790,-0.0958862,-0.00701904,0.112427,0.988953
1470330469434367,-0.0946655,-0.00750732,0.112305,0.989075
1470330469457328,-0.093811,-0.00787354,0.112366,0.989136
1470330469474859,-0.0936279,-0.00817871,0.112305,0.989197
1470330469494363,-0.0936279,-0.00817871,0.112305,0.989197
1470330469516897,-0.0932007,-0.00817871,0.112244,0.989258
1470330469534898,-0.0926514,-0.00799561,0.112183,0.989319
1470330469554415,-0.0921021,-0.0078125,0.112122,0.98938
1470330469576936,-0.0916138,-0.00762939,0.112,0.989441
1470330469594967,-0.0916138,-0.00762939,0.112,0.989441
1470330469614471,-0.0916138,-0.00762939,0.112,0.989441
1470330469636991,-0.0916138,-0.00744629,0.111816,0.989441
1470330469655007,-0.0912476,-0.00708008,0.111755,0.989502
1470330469674525,-0.0903931,-0.00671387,0.111694,0.989563
1470330469697043,-0.0893555,-0.00653076,0.111511,0.989685
1470330469715060,-0.088623,-0.00646973,0.111572,0.989746
1470330469734577,-0.0881348,-0.00665283,0.111572,0.989807
1470330469757097,-0.0879517,-0.00695801,0.11145,0.989807
1470330469775220,-0.0878296,-0.00738525,0.111145,0.989868
1470330469794633,-0.0876465,-0.00769043,0.110901,0.989929
1470330469817151,-0.0872803,-0.00775146,0.110779,0.989929
1470330469835168,-0.0869751,-0.00793457,0.110535,0.98999
1470330469855686,-0.0869751,-0.00811768,0.110291,0.990051
1470330469880208,-0.0874023,-0.00830078,0.110046,0.98999
1470330469894721,-0.0878296,-0.00805664,0.109924,0.98999
1470330469916741,-0.0877686,-0.00750732,0.109619,0.990051
1470330469937259,-0.0875854,-0.00708008,0.109314,0.990051
1470330469954775,-0.0874634,-0.00665283,0.109009,0.990112
1470330469977297,-0.0875854,-0.00646973,0.108765,0.990173
1470330469996813,-0.0874023,-0.00653076,0.108459,0.990173
1470330470014831,-0.0872803,-0.00653076,0.108459,0.990234
1470330470035849,-0.0872803,-0.00653076,0.108459,0.990234
1470330470056879,-0.0870972,-0.00646973,0.108215,0.990234
1470330470074882,-0.0873413,-0.00646973,0.107971,0.990234
1470330470095902,-0.0878296,-0.00665283,0.107849,0.990234
1470330470116921,-0.0881348,-0.00671387,0.107788,0.990173
1470330470134937,-0.0881958,-0.00671387,0.107788,0.990173
1470330470155956,-0.0878906,-0.00683594,0.107727,0.990234
1470330470193990,-0.0875244,-0.00671387,0.107727,0.990295
1470330470196492,-0.0872803,-0.00628662,0.107788,0.990295
1470330470216010,-0.0872192,-0.0057373,0.108276,0.990234
1470330470237031,-0.0878906,-0.0055542,0.108643,0.990112
1470330470262550,-0.0880737,-0.00506592,0.109009,0.990112
1470330470277565,-0.0883789,-0.00494385,0.109314,0.990051
1470330470304589,-0.0887451,-0.00500488,0.109253,0.98999
1470330470315098,-0.0892334,-0.00500488,0.10907,0.98999
1470330470337619,-0.0895996,-0.00512695,0.108887,0.98999
1470330470357135,-0.090271,-0.00524902,0.108398,0.989929
1470330470375152,-0.0914307,-0.00537109,0.107788,0.989929
1470330470397201,-0.0928955,-0.00549316,0.107239,0.989868
1470330470417190,-0.0946045,-0.0057373,0.106689,0.989746
1470330470435310,-0.0958862,-0.0057373,0.106445,0.989624
1470330470457794,-0.0966187,-0.00561523,0.106262,0.989563
1470330470477244,-0.097168,-0.00549316,0.106018,0.989563
1470330470494760,-0.0977783,-0.00537109,0.106018,0.989502
1470330470517281,-0.0980225,-0.00531006,0.105896,0.989502
1470330470544805,-0.0987549,-0.00543213,0.105591,0.989441
1470330470554814,-0.0995483,-0.0055542,0.105347,0.98938
1470330470579836,-0.0998535,-0.0055542,0.105164,0.98938
1470330470596866,-0.100159,-0.00567627,0.105042,0.98938
1470330470614868,-0.100403,-0.00579834,0.104858,0.98938
1470330470637388,-0.101074,-0.00598145,0.104736,0.989319
1470330470658407,-0.101868,-0.00604248,0.104553,0.989258
1470330470674922,-0.102417,-0.00592041,0.104492,0.989197
1470330470697442,-0.102478,-0.0055542,0.104492,0.989197
1470330470716960,-0.102417,-0.00506592,0.104431,0.989197
1470330470733975,-0.102539,-0.00457764,0.10437,0.989197
1470330470756495,-0.103088,-0.00427246,0.104187,0.989136
1470330470777514,-0.10376,-0.00390625,0.104248,0.989075
1470330470794029,-0.104004,-0.00354004,0.104492,0.989014
1470330470816550,-0.103821,-0.00311279,0.104675,0.989014
1470330470838068,-0.103577,-0.00280762,0.104675,0.989075
1470330470861589,-0.103577,-0.00274658,0.104675,0.989075
1470330470876604,-0.103943,-0.00256348,0.104675,0.989014
1470330470897621,-0.104614,-0.00250244,0.104492,0.988953
1470330470914136,-0.104919,-0.00250244,0.104309,0.988953
1470330470936657,-0.10498,-0.00231934,0.104187,0.988953
1470330470957677,-0.10498,-0.00213623,0.104065,0.988953
1470330470974190,-0.104919,-0.00201416,0.103882,0.989014
1470330470996711,-0.105042,-0.00201416,0.103638,0.989014
1470330471017729,-0.105347,-0.00201416,0.103394,0.989014
1470330471034244,-0.105774,-0.00195313,0.10321,0.989014
1470330471056764,-0.10614,-0.00195313,0.103027,0.988953
1470330471077784,-0.10614,-0.00189209,0.103027,0.988953
1470330471094298,-0.10614,-0.00189209,0.103027,0.988953
1470330471116319,-0.10614,-0.00189209,0.103027,0.988953
1470330471137854,-0.106323,-0.00195313,0.102966,0.988953
1470330471154352,-0.106628,-0.00201416,0.102905,0.988953
1470330471176871,-0.106628,-0.00201416,0.102905,0.988953
1470330471199392,-0.106628,-0.00201416,0.102905,0.988953
1470330471213906,-0.106628,-0.0020752,0.102905,0.988953
1470330471236426,-0.106873,-0.0020752,0.102783,0.988892
1470330471258946,-0.107117,-0.00195313,0.102722,0.988892
1470330471273959,-0.107422,-0.00177002,0.1026,0.988892
1470330471296481,-0.107605,-0.00164795,0.102417,0.988892
1470330471319000,-0.107971,-0.00152588,0.102295,0.988831
1470330471333513,-0.107971,-0.00152588,0.102295,0.988831
1470330471356534,-0.107971,-0.00146484,0.102295,0.988831
1470330471379054,-0.107971,-0.00146484,0.102295,0.988831
1470330471393569,-0.108093,-0.00134277,0.102295,0.988831
1470330471416588,-0.108215,-0.00134277,0.102295,0.988831
1470330471439109,-0.108215,-0.00128174,0.102295,0.988831
1470330471453620,-0.108215,-0.00128174,0.102295,0.988831
1470330471476641,-0.108215,-0.00128174,0.102295,0.988831
1470330471499162,-0.108215,-0.00134277,0.102295,0.988831
1470330471520182,-0.108398,-0.00128174,0.102417,0.98877
1470330471536697,-0.108887,-0.00128174,0.102478,0.988708
1470330471559215,-0.109253,-0.0012207,0.102417,0.988708
1470330471573228,-0.109558,-0.0012207,0.102295,0.988647
1470330471596751,-0.109924,-0.0012207,0.102234,0.988647
1470330471619271,-0.109924,-0.0012207,0.102234,0.988647
1470330471633784,-0.109863,-0.0012207,0.102234,0.988647
1470330471656802,-0.110107,-0.00109863,0.102234,0.988647
1470330471679325,-0.110291,-0.0010376,0.102173,0.988586
1470330471700361,-0.110291,-0.0010376,0.102173,0.988586
1470330471716856,-0.110291,-0.0010376,0.102173,0.988586
1470330471739376,-0.110291,-0.000976563,0.102173,0.988586
1470330471760397,-0.110291,-0.0010376,0.102173,0.988586
1470330471776411,-0.110291,-0.0010376,0.102173,0.988586
1470330471798931,-0.110291,-0.0010376,0.102173,0.988586
1470330471820454,-0.110535,-0.000976563,0.102112,0.988586
1470330471836465,-0.110779,-0.000915527,0.102051,0.988586
1470330471858988,-0.111145,-0.000854492,0.101929,0.988525
1470330471880008,-0.111145,-0.000854492,0.101929,0.988525
1470330471896521,-0.111145,-0.000854492,0.101929,0.988525
1470330471919038,-0.111328,-0.000976563,0.101868,0.988525
1470330471940564,-0.111572,-0.0010376,0.101868,0.988464
1470330471956572,-0.111572,-0.0010376,0.101868,0.988464
1470330471979093,-0.111572,-0.0010376,0.101868,0.988464
1470330472000112,-0.111572,-0.0010376,0.101868,0.988464
1470330472016630,-0.111572,-0.00109863,0.101868,0.988464
1470330472039147,-0.111877,-0.000976563,0.101807,0.988464
1470330472060165,-0.112183,-0.000915527,0.101685,0.988464
1470330472076681,-0.112183,-0.000976563,0.101685,0.988464
1470330472099201,-0.112,-0.000793457,0.101624,0.988464
1470330472121722,-0.111877,-0.000793457,0.101379,0.988525
1470330472136734,-0.111633,-0.000671387,0.101013,0.988586
1470330472159254,-0.111633,-0.000671387,0.101013,0.988586
1470330472181778,-0.111633,-0.000610352,0.101013,0.988586
1470330472196788,-0.111633,-0.000671387,0.101013,0.988586
1470330472219308,-0.111633,-0.000671387,0.101013,0.988586
1470330472241864,-0.111633,-0.000671387,0.101013,0.988586
1470330472256868,-0.111633,-0.000671387,0.101013,0.988586
1470330472279362,-0.111877,-0.000488281,0.100952,0.988525
1470330472301881,-0.111938,-0.000305176,0.100891,0.988525
1470330472315895,-0.111877,-0.000305176,0.100891,0.988525
1470330472339416,-0.111877,-0.000305176,0.100891,0.988586
1470330472361460,-0.112122,-0.000183105,0.100891,0.988525
1470330472375949,-0.112488,-0.000183105,0.10083,0.988464
1470330472398969,-0.112488,-0.000183105,0.10083,0.988464
1470330472421990,-0.112305,-0.000244141,0.10083,0.988525
1470330472436005,-0.112305,-0.000244141,0.10083,0.988525
1470330472459023,-0.112305,-0.000183105,0.10083,0.988525
1470330472481544,-0.112671,-0.000244141,0.100708,0.988464
1470330472496056,-0.112915,-0.000305176,0.100647,0.988464
1470330472519077,-0.112915,-0.000305176,0.100647,0.988464
1470330472541599,-0.112915,-0.000305176,0.100647,0.988464
1470330472564118,-0.112915,-0.000244141,0.100647,0.988464
1470330472579163,-0.112915,-0.000244141,0.100647,0.988464
1470330472601653,-0.112915,-0.000244141,0.100647,0.988464
1470330472616201,-0.113037,-0.000366211,0.100525,0.988464
1470330472646692,-0.113037,-0.000366211,0.100525,0.988464
1470330472661705,-0.113037,-0.000366211,0.100525,0.988464
1470330472682726,-0.113037,-0.000366211,0.100525,0.988464
1470330472699240,-0.112793,-0.000366211,0.100525,0.988464
1470330472721778,-0.112549,-0.000244141,0.100586,0.988525
1470330472742815,-0.112549,-0.000244141,0.100586,0.988525
1470330472759293,-0.112549,-0.000244141,0.100586,0.988525
1470330472781819,-0.112549,-0.000244141,0.100586,0.988525
1470330472802886,-0.112549,-0.000244141,0.100586,0.988525
1470330472819350,-0.112488,-0.000244141,0.100586,0.988525
1470330472841868,-0.112671,-0.000244141,0.100464,0.988525
1470330472862886,-0.112671,-0.000183105,0.100464,0.988525
1470330472879401,-0.112671,-0.000244141,0.100464,0.988525
1470330472901925,-0.112671,-0.000244141,0.100464,0.988525
1470330472922940,-0.112732,-0.000244141,0.100464,0.988525
1470330472939454,-0.112671,-0.000183105,0.100464,0.988525
1470330472961480,-0.112915,-0.000244141,0.100464,0.988464
1470330472982993,-0.112915,-0.000244141,0.100464,0.988464
1470330472999010,-0.112915,-0.000305176,0.100464,0.988464
1470330473021533,-0.112915,-0.000244141,0.100464,0.988464
1470330473042575,-0.112915,-0.000244141,0.100464,0.988464
1470330473059063,-0.112915,-0.000244141,0.100464,0.988464
1470330473081583,-0.112915,-0.000244141,0.100464,0.988464
1470330473104110,-0.113098,-0.000366211,0.100403,0.988464
1470330473119117,-0.113098,-0.000366211,0.100403,0.988464
1470330473141636,-0.113281,-0.000244141,0.100464,0.988464
1470330473164157,-0.113342,-0.000244141,0.100464,0.988464
1470330473179170,-0.11322,-0.000244141,0.100403,0.988464
1470330473201702,-0.113159,-0.000244141,0.100403,0.988464
1470330473224210,-0.113342,-0.000244141,0.100342,0.988464
1470330473238723,-0.113464,-0.000244141,0.100281,0.988464
1470330473261746,-0.11322,-6.10352e-05,0.100037,0.988464
1470330473284265,-0.113037,6.10352e-05,0.0998535,0.988525
1470330473298281,-0.113098,6.10352e-05,0.0998535,0.988525
1470330473323300,-0.113281,0.000183105,0.100098,0.988464
1470330473344345,-0.112976,0.000305176,0.100464,0.988464
1470330473358333,-0.111938,0.000610352,0.100586,0.988586
1470330473381854,-0.110901,0.000915527,0.100647,0.988708
1470330473404372,-0.110474,0.00109863,0.100647,0.988708
1470330473418385,-0.110657,0.00115967,0.100708,0.988708
1470330473441929,-0.111206,0.00128174,0.100647,0.988647
1470330473464436,-0.111572,0.00140381,0.100403,0.988647
1470330473478438,-0.111633,0.00170898,0.10022,0.988647
1470330473501459,-0.111633,0.00189209,0.100098,0.988647
1470330473523980,-0.111633,0.00189209,0.100098,0.988647
1470330473546525,-0.111633,0.00189209,0.100098,0.988647
1470330473561513,-0.111633,0.00189209,0.100098,0.988647
1470330473584033,-0.111633,0.00189209,0.100098,0.988647
1470330473605562,-0.111389,0.00213623,0.10022,0.988647
1470330473621569,-0.111389,0.00213623,0.10022,0.988708
1470330473644087,-0.111389,0.00213623,0.10022,0.988708
1470330473672656,-0.111694,0.00201416,0.100281,0.988647
1470330473681621,-0.111694,0.00201416,0.100281,0.988647
1470330473704141,-0.111755,0.00201416,0.100281,0.988647
1470330473725162,-0.111755,0.00201416,0.100281,0.988647
1470330473741675,-0.111755,0.00201416,0.100281,0.988647
1470330473764195,-0.111694,0.00201416,0.100281,0.988647
1470330473785228,-0.111694,0.0020752,0.100281,0.988647
1470330473801729,-0.111755,0.00183105,0.100159,0.988647
1470330473824266,-0.111877,0.00134277,0.100037,0.988647
1470330473845283,-0.112183,0.000976563,0.0998535,0.988647
1470330473861783,-0.112488,0.000610352,0.0996094,0.988586
1470330473884303,-0.112488,0.000549316,0.0996094,0.988586
1470330473905322,-0.112488,0.000549316,0.0996094,0.988586
1470330473921859,-0.112488,0.000610352,0.0996094,0.988586
1470330473951863,-0.112488,0.000610352,0.0996094,0.988647
1470330473965376,-0.112488,0.000610352,0.0996094,0.988647
1470330473996904,-0.112488,0.000610352,0.0996094,0.988647
1470330474003910,-0.112427,0.000610352,0.0996094,0.988647
1470330474026430,-0.112427,0.000610352,0.0996094,0.988647
1470330474041444,-0.112427,0.000610352,0.0996094,0.988647
1470330474071472,-0.112366,0.000366211,0.0995483,0.988647
1470330474086485,-0.112427,0.000183105,0.0995483,0.988647
1470330474116512,-0.112427,0.000183105,0.0995483,0.988647
1470330474124018,-0.112427,0.000183105,0.0995483,0.988647
1470330474146538,-0.112183,0.000183105,0.0994263,0.988647
1470330474161554,-0.112183,0.000183105,0.0994263,0.988647
1470330474191581,-0.112366,0.00012207,0.0993652,0.988647
1470330474206593,-0.11261,6.10352e-05,0.0991821,0.988647
1470330474229113,-0.112671,0,0.098999,0.988647
1470330474244128,-0.112793,6.10352e-05,0.0988159,0.988647
1470330474266646,-0.112732,6.10352e-05,0.0988159,0.988647
1470330474281159,-0.112732,6.10352e-05,0.0988159,0.988647
1470330474304180,-0.112122,0.00012207,0.0987549,0.98877
1470330474326702,-0.112061,-6.10352e-05,0.0988159,0.98877
1470330474341214,-0.112305,-0.000305176,0.098938,0.988708
1470330474364735,-0.112427,-0.000488281,0.0993042,0.988647
1470330474386755,-0.11084,-0.000427246,0.0994873,0.988831
1470330474401268,-0.109619,-0.000732422,0.0995483,0.988953
1470330474424290,-0.111389,-0.00231934,0.100098,0.988708
1470330474446809,-0.113403,-0.00396729,0.100891,0.988403
1470330474460821,-0.113281,-0.00512695,0.101563,0.988342
1470330474484350,-0.111755,-0.00616455,0.102051,0.988403
1470330474506863,-0.110474,-0.00708008,0.102234,0.988525
1470330474527881,-0.110168,-0.00787354,0.102844,0.988525
1470330474544396,-0.110168,-0.00823975,0.103638,0.988403
1470330474566916,-0.109924,-0.00848389,0.104187,0.988403
1470330474587935,-0.108948,-0.00823975,0.104614,0.988464
1470330474603954,-0.108337,-0.0078125,0.104553,0.988525
1470330474626974,-0.108459,-0.00750732,0.104248,0.988586
1470330474647993,-0.109253,-0.00714111,0.103821,0.988525
1470330474664004,-0.109741,-0.0065918,0.103455,0.988525
1470330474686526,-0.109436,-0.00598145,0.10321,0.988586
1470330474707569,-0.108887,-0.00524902,0.102844,0.988647
1470330474724058,-0.108765,-0.00457764,0.102295,0.98877
1470330474746578,-0.109985,-0.00445557,0.101807,0.988647
1470330474768096,-0.111694,-0.0045166,0.10144,0.988525
1470330474784111,-0.112488,-0.0045166,0.101318,0.988403
1470330474806633,-0.112793,-0.00445557,0.101318,0.988403
1470330474827650,-0.112854,-0.0045166,0.101257,0.988403
1470330474844176,-0.113342,-0.00463867,0.101257,0.988342
1470330474866685,-0.113708,-0.00482178,0.10144,0.988281
1470330474887723,-0.113953,-0.00488281,0.101624,0.98822
1470330474904236,-0.11377,-0.00482178,0.101807,0.98822
1470330474926740,-0.113159,-0.0045166,0.10199,0.988281
1470330474949260,-0.112732,-0.00415039,0.102051,0.988342
1470330474964284,-0.113281,-0.00415039,0.10199,0.988281
1470330474986299,-0.114197,-0.00415039,0.10199,0.988159
1470330475009352,-0.114807,-0.00390625,0.101929,0.988098
1470330475024352,-0.114441,-0.00354004,0.101868,0.988159
1470330475046853,-0.114502,-0.00335693,0.101746,0.988159
1470330475069374,-0.115112,-0.00323486,0.101685,0.988098
1470330475084428,-0.115784,-0.00323486,0.101624,0.988037
1470330475106406,-0.116211,-0.00311279,0.101624,0.987976
1470330475129428,-0.116089,-0.00280762,0.101563,0.987976
1470330475143441,-0.11554,-0.00244141,0.10144,0.988098
1470330475166461,-0.11554,-0.0022583,0.101257,0.988098
1470330475196490,-0.116211,-0.00213623,0.101013,0.988037
1470330475203496,-0.117188,-0.00201416,0.10083,0.987915
1470330475226515,-0.117554,-0.00201416,0.100708,0.987915
1470330475249036,-0.117188,-0.00189209,0.100525,0.987976
1470330475263548,-0.116943,-0.00158691,0.100342,0.988037
1470330475286588,-0.116516,-0.00146484,0.100159,0.988098
1470330475309089,-0.116577,-0.00128174,0.0999146,0.988098
1470330475323611,-0.116882,-0.00109863,0.0996704,0.988098
1470330475346642,-0.117126,-0.000976563,0.0994873,0.988098
1470330475369143,-0.117126,-0.000976563,0.0994873,0.988098
1470330475383656,-0.117126,-0.000976563,0.0994873,0.988098
1470330475406676,-0.117126,-0.000915527,0.0993042,0.988098
1470330475429199,-0.117126,-0.000915527,0.0993042,0.988098
1470330475450216,-0.117371,-0.000793457,0.0991211,0.988098
1470330475466731,-0.117493,-0.000671387,0.098877,0.988098
1470330475489251,-0.117737,-0.000671387,0.0986328,0.988098
1470330475510272,-0.11792,-0.000549316,0.0984497,0.988098
1470330475526785,-0.118225,-0.000549316,0.0982666,0.988098
1470330475549305,-0.11853,-0.000610352,0.0980835,0.988037
1470330475570325,-0.118713,-0.000671387,0.0979614,0.988037
1470330475586838,-0.119019,-0.000732422,0.0977783,0.988037
1470330475615421,-0.119263,-0.000793457,0.0975952,0.988037
1470330475630377,-0.119263,-0.000793457,0.0975952,0.988037
1470330475646892,-0.119263,-0.000793457,0.0975952,0.988037
1470330475668912,-0.119202,-0.000793457,0.0975952,0.988037
1470330475690431,-0.119263,-0.000793457,0.0975952,0.988037
1470330475706450,-0.119263,-0.000793457,0.0975952,0.988037
1470330475728993,-0.119263,-0.000793457,0.0975952,0.988037
1470330475750485,-0.119263,-0.000793457,0.0975952,0.988037
1470330475757009,-0.119568,-0.000793457,0.0974121,0.987976
1470330475772006,-0.120178,-0.000793457,0.097168,0.987976
1470330475794550,-0.120728,-0.000793457,0.0969849,0.987915
1470330475817593,-0.121216,-0.000732422,0.0968018,0.987854
1470330475832092,-0.121704,-0.000732422,0.0965576,0.987854
1470330475857603,-0.122009,-0.000793457,0.0963135,0.987793
1470330475877124,-0.12262,-0.000976563,0.0961304,0.987732
1470330475892157,-0.123413,-0.00109863,0.0958862,0.987671
1470330475914659,-0.124268,-0.0012207,0.09552,0.98761
1470330475937186,-0.125,-0.00134277,0.0951538,0.987549
1470330475952193,-0.125549,-0.00146484,0.0949097,0.987488
1470330475974725,-0.126099,-0.00164795,0.0946655,0.987488
1470330475997212,-0.12616,-0.00177002,0.0944214,0.987488
1470330476012246,-0.12616,-0.00195313,0.0941162,0.987488
1470330476034746,-0.126526,-0.00231934,0.093689,0.987488
1470330476057294,-0.127319,-0.00280762,0.0933228,0.987427
1470330476072281,-0.128113,-0.00323486,0.0930786,0.987366
1470330476094795,-0.128479,-0.00372314,0.0928345,0.987305
1470330476117390,-0.128601,-0.00415039,0.0925903,0.987305
1470330476132333,-0.128723,-0.00482178,0.0924683,0.987305
1470330476154852,-0.128845,-0.00567627,0.0923462,0.987305
1470330476177370,-0.129272,-0.00646973,0.0924072,0.987244
1470330476192383,-0.129272,-0.00689697,0.0927734,0.987183
1470330476214903,-0.128906,-0.00695801,0.0935059,0.987183
1470330476237422,-0.128052,-0.00695801,0.0941772,0.987244
1470330476252436,-0.126831,-0.00683594,0.0951538,0.987305
1470330476274457,-0.125854,-0.0067749,0.0962524,0.987305
1470330476296980,-0.12561,-0.0065918,0.0973511,0.987244
1470330476312490,-0.125671,-0.00628662,0.0984497,0.987122
1470330476334510,-0.125244,-0.00494385,0.100342,0.987
1470330476357030,-0.125244,-0.00390625,0.102112,0.986816
1470330476372059,-0.125793,-0.0032959,0.103516,0.986633
1470330476394593,-0.127014,-0.00292969,0.104736,0.986328
1470330476417086,-0.128235,-0.00256348,0.105835,0.986023
1470330476432098,-0.129089,-0.00244141,0.106689,0.98584
1470330476454648,-0.13031,-0.00219727,0.107239,0.985596
1470330476477172,-0.131775,-0.00213623,0.107849,0.985352
1470330476492151,-0.133118,-0.00213623,0.108215,0.985168
1470330476514702,-0.13385,-0.00213623,0.108459,0.985046
1470330476537209,-0.134094,-0.00183105,0.108521,0.984985
1470330476553707,-0.135132,-0.00164795,0.108765,0.984802
1470330476574728,-0.136414,-0.00134277,0.109192,0.984619
1470330476597276,-0.137512,-0.00109863,0.109436,0.984375
1470330476613261,-0.138306,-0.000915527,0.109558,0.984314
1470330476634780,-0.138733,-0.000610352,0.109619,0.984192
1470330476657325,-0.139099,-0.000305176,0.109863,0.984131
1470330476673316,-0.139526,0.00012207,0.110168,0.98407
1470330476694367,-0.139465,0.000671387,0.110474,0.984009
1470330476717353,-0.138733,0.00140381,0.110657,0.98407
1470330476733370,-0.137695,0.00231934,0.11084,0.984192
1470330476754389,-0.137146,0.00305176,0.111206,0.984253
1470330476777407,-0.137451,0.00360107,0.111816,0.984131
1470330476793422,-0.137756,0.00341797,0.112366,0.984009
1470330476814952,-0.140259,0.00164795,0.11377,0.983521
1470330476844533,-0.146729,-0.00256348,0.117004,0.982178
1470330476854977,-0.154419,-0.00714111,0.121399,0.980469
1470330476874494,-0.158203,-0.0103149,0.127014,0.979126
1470330476897545,-0.156067,-0.0102539,0.134949,0.978394
1470330476915033,-0.15033,-0.00695801,0.145813,0.977783
1470330476934549,-0.144714,-0.00213623,0.159424,0.976501
1470330476957173,-0.141724,0.00250244,0.175659,0.974182
1470330476975103,-0.145325,0.00427246,0.195251,0.96991
1470330476994628,-0.153076,0.00537109,0.215332,0.964417
1470330477017123,-0.158386,0.00720215,0.23407,0.959167
1470330477035165,-0.157288,0.0102539,0.251892,0.954773
1470330477054682,-0.152405,0.0137939,0.269043,0.950867
1470330477077177,-0.146423,0.0161743,0.286133,0.946777
1470330477095258,-0.142395,0.0167847,0.302368,0.942322
1470330477114712,-0.139648,0.0148926,0.316284,0.938171
1470330477137257,-0.137329,0.00982666,0.327759,0.934631
1470330477162755,-0.132629,0.00311279,0.336365,0.932312
1470330477174764,-0.124207,-0.00384521,0.341614,0.931519
1470330477197297,-0.112488,-0.0103149,0.344482,0.931946
1470330477215302,-0.101257,-0.0154419,0.347778,0.931885
1470330477234898,-0.0952148,-0.0206299,0.351746,0.930969
1470330477257392,-0.0938721,-0.0267944,0.354797,0.92981
1470330477274854,-0.0927124,-0.0438232,0.343689,0.933411
1470330477294945,-0.088501,-0.0473022,0.344543,0.93335
1470330477325399,-0.0817871,-0.0457764,0.344666,0.934021
1470330477335409,-0.0800171,-0.0453491,0.344543,0.934204
1470330477354966,-0.0814209,-0.0466309,0.345032,0.933838
1470330477384474,-0.0824585,-0.0463867,0.345947,0.933411
1470330477394967,-0.0804443,-0.0445557,0.346985,0.933289
1470330477415981,-0.0775757,-0.043335,0.347656,0.93335
1470330477437582,-0.0752563,-0.0425415,0.348022,0.933472
1470330477455075,-0.0731201,-0.0418091,0.348267,0.933533
1470330477476035,-0.0715332,-0.0424194,0.348572,0.933533
1470330477497558,-0.0692139,-0.043396,0.348633,0.933655
1470330477519575,-0.0658569,-0.0437012,0.34845,0.93396
1470330477536094,-0.0628052,-0.0438232,0.348511,0.934143
1470330477557152,-0.0614014,-0.0443726,0.348389,0.934265
1470330477575195,-0.0594482,-0.0432739,0.349304,0.934082
1470330477596183,-0.0581055,-0.0429688,0.348267,0.93457
1470330477617193,-0.055603,-0.0422363,0.347778,0.934937
1470330477635179,-0.0522461,-0.0419922,0.345947,0.935791
1470330477656219,-0.0483398,-0.0408936,0.343872,0.936829
1470330477677257,-0.0449219,-0.0403442,0.341431,0.937927
1470330477695233,-0.041626,-0.039917,0.338989,0.938965
1470330477716252,-0.0390625,-0.0391235,0.337402,0.939697
1470330477737270,-0.0371704,-0.0375366,0.336182,0.940247
1470330477755285,-0.0373535,-0.0358887,0.335876,0.94043
1470330477775807,-0.0406494,-0.0369263,0.334961,0.940613
1470330477797322,-0.0463257,-0.0395508,0.334167,0.940491
1470330477815439,-0.0493164,-0.0403442,0.334351,0.940247
1470330477837360,-0.046875,-0.0391235,0.335693,0.939941
1470330477857385,-0.0454102,-0.0379639,0.338989,0.938904
1470330477875406,-0.0513916,-0.0422363,0.340454,0.937866
1470330477897414,-0.0565796,-0.0476685,0.33606,0.938904
1470330477917433,-0.05896,-0.0501709,0.334229,0.93927
1470330477934948,-0.0610962,-0.0519409,0.331055,0.940186
1470330477957468,-0.0647583,-0.0542603,0.327209,0.941101
1470330477977486,-0.0692139,-0.0561523,0.324219,0.941711
1470330477995014,-0.0733643,-0.057251,0.321411,0.942322
1470330478017522,-0.0765381,-0.0576782,0.318359,0.943054
1470330478037039,-0.0785522,-0.0568848,0.315247,0.944031
1470330478055068,-0.0805054,-0.0557861,0.312561,0.944824
1470330478077575,-0.0824585,-0.0545044,0.309998,0.945557
1470330478097095,-0.0847778,-0.0529175,0.307922,0.946106
1470330478115109,-0.0869141,-0.0513306,0.306213,0.946594
1470330478137661,-0.088623,-0.0501709,0.304688,0.94696
1470330478158203,-0.0895996,-0.0487061,0.303833,0.947205
1470330478174162,-0.0903931,-0.0467529,0.303284,0.947388
1470330478196682,-0.0913696,-0.0446167,0.302917,0.947571
1470330478217704,-0.0928345,-0.0430298,0.302734,0.94751
1470330478234216,-0.093811,-0.0418091,0.302673,0.94751
1470330478256738,-0.0935669,-0.0402222,0.302551,0.947632
1470330478277756,-0.0925903,-0.0384521,0.302429,0.947876
1470330478294269,-0.0919189,-0.0366821,0.302429,0.947998
1470330478316790,-0.0915527,-0.0352173,0.302795,0.947937
1470330478337891,-0.0909424,-0.0339966,0.303406,0.947876
1470330478354326,-0.0899658,-0.0328979,0.304138,0.947754
1470330478376844,-0.0889282,-0.0316162,0.304932,0.947632
1470330478397868,-0.088562,-0.0304565,0.305603,0.94751
1470330478414378,-0.0888672,-0.0292358,0.306152,0.947327
1470330478436898,-0.0899048,-0.0283203,0.306396,0.947205
1470330478457977,-0.0911865,-0.0275269,0.306763,0.94696
1470330478474444,-0.0922852,-0.0262451,0.306946,0.946838
1470330478496958,-0.0932007,-0.0247803,0.306885,0.946838
1470330478517970,-0.0943604,-0.0233765,0.30658,0.946838
1470330478534485,-0.0956421,-0.0220947,0.306519,0.946777
1470330478556505,-0.0969238,-0.0209961,0.30658,0.946655
1470330478578024,-0.0977173,-0.0200806,0.306519,0.946594
1470330478594543,-0.0984497,-0.0192261,0.306458,0.946533
1470330478616558,-0.0998535,-0.0186768,0.306213,0.946472
1470330478638079,-0.101563,-0.0183105,0.305908,0.946411
1470330478654093,-0.103149,-0.0178223,0.305664,0.94635
1470330478676613,-0.104248,-0.0170898,0.305298,0.94635
1470330478698195,-0.104675,-0.0159302,0.304749,0.946472
1470330478714147,-0.104797,-0.0143433,0.304077,0.946716
1470330478736687,-0.104736,-0.0123291,0.303589,0.946899
1470330478759187,-0.104858,-0.0103149,0.303162,0.947021
1470330478774200,-0.10498,-0.00848389,0.302734,0.947205
1470330478796723,-0.104675,-0.00720215,0.302063,0.947449
1470330478819245,-0.104553,-0.00622559,0.301453,0.947693
1470330478834254,-0.10498,-0.00512695,0.301025,0.947754
1470330478856775,-0.106079,-0.0043335,0.300415,0.947815
1470330478879294,-0.107605,-0.00390625,0.299927,0.947815
1470330478894363,-0.108948,-0.0032959,0.299438,0.947815
1470330478916830,-0.110107,-0.00274658,0.299011,0.947815
1470330478939396,-0.110779,-0.00244141,0.298523,0.947937
1470330478960386,-0.111816,-0.0022583,0.298035,0.947937
1470330478982893,-0.112915,-0.00238037,0.297668,0.947937
1470330478999404,-0.113525,-0.00268555,0.297607,0.947876
1470330479013416,-0.113403,-0.00305176,0.297546,0.947937
1470330479036937,-0.112854,-0.00317383,0.297546,0.947998
1470330479059457,-0.112427,-0.003479,0.297607,0.947998
1470330479073513,-0.112305,-0.00384521,0.297607,0.947998
1470330479096990,-0.11322,-0.00457764,0.297729,0.947876
1470330479119510,-0.114563,-0.00543213,0.297852,0.947632
1470330479133523,-0.115967,-0.00585938,0.298157,0.947388
1470330479157044,-0.117371,-0.00640869,0.298096,0.947205
1470330479179066,-0.118652,-0.00701904,0.298157,0.947083
1470330479193578,-0.120056,-0.00762939,0.298157,0.946838
1470330479216598,-0.121399,-0.00836182,0.298279,0.946655
1470330479239123,-0.122681,-0.00909424,0.298157,0.946533
1470330479253630,-0.123901,-0.00982666,0.297729,0.946472
1470330479276652,-0.125183,-0.0107422,0.297302,0.946411
1470330479299171,-0.126038,-0.0117188,0.296997,0.946411
1470330479320706,-0.126465,-0.0124512,0.296753,0.946411
1470330479336706,-0.126648,-0.0131226,0.296448,0.946472
1470330479359227,-0.126892,-0.0135498,0.296265,0.946472
1470330479380263,-0.127441,-0.0136719,0.296082,0.946472
1470330479396761,-0.128418,-0.0137329,0.295715,0.946472
1470330479419280,-0.129395,-0.0136719,0.294983,0.946533
1470330479440340,-0.129883,-0.0133057,0.294189,0.946716
1470330479456830,-0.129944,-0.0125732,0.293396,0.947021
1470330479479376,-0.130127,-0.0117188,0.29248,0.947266
1470330479500369,-0.130737,-0.0111084,0.291565,0.947449
1470330479516869,-0.131775,-0.0106812,0.290649,0.947632
1470330479539388,-0.133118,-0.0105591,0.289673,0.947754
1470330479560498,-0.134094,-0.0108032,0.288879,0.947815
1470330479584479,-0.134094,-0.0110474,0.287964,0.94812
1470330479599441,-0.134521,-0.0117798,0.287231,0.948242
1470330479620469,-0.136353,-0.0130615,0.286743,0.94812
1470330479636974,-0.138428,-0.0144043,0.286316,0.947937
1470330479659495,-0.139954,-0.0152588,0.286133,0.947754
1470330479680518,-0.139648,-0.0153198,0.286133,0.947815
1470330479696532,-0.137634,-0.0144653,0.286255,0.948059
1470330479719051,-0.135193,-0.0133057,0.28595,0.948547
1470330479741571,-0.133423,-0.0122681,0.285461,0.948975
1470330479756585,-0.132202,-0.0113525,0.284485,0.949402
1470330479779110,-0.13092,-0.010498,0.283447,0.94989
1470330479801668,-0.129089,-0.00927734,0.282532,0.950439
1470330479816636,-0.127319,-0.00793457,0.282043,0.950867
1470330479839160,-0.127502,-0.00775146,0.281982,0.950867
1470330479861677,-0.131592,-0.010376,0.28241,0.950134
1470330479876196,-0.136658,-0.0137329,0.283203,0.949158
1470330479899210,-0.139221,-0.015564,0.282593,0.948914
1470330479921731,-0.139099,-0.0163574,0.281372,0.94928
1470330479942749,-0.138794,-0.0172119,0.280334,0.949646
1470330479959264,-0.13855,-0.0177002,0.279236,0.949951
1470330479981802,-0.139038,-0.0183105,0.278198,0.950195
1470330479996311,-0.139282,-0.0186768,0.277161,0.950439
1470330480019319,-0.138794,-0.0186768,0.276184,0.950806
1470330480041839,-0.137451,-0.0184326,0.275208,0.951294
1470330480056351,-0.135986,-0.0181274,0.274414,0.951721
1470330480079372,-0.135254,-0.0183716,0.273743,0.952026
1470330480101893,-0.135498,-0.0195313,0.273254,0.952087
1470330480115905,-0.136292,-0.0211792,0.272888,0.952087
1470330480139427,-0.13678,-0.0227051,0.272339,0.952148
1470330480161947,-0.13623,-0.0238647,0.272095,0.952271
1470330480175961,-0.135681,-0.024353,0.272217,0.952271
1470330480199480,-0.135864,-0.0246582,0.271912,0.952332
1470330480222000,-0.136414,-0.0256348,0.272034,0.952209
1470330480243019,-0.136902,-0.0265503,0.272339,0.952026
1470330480259535,-0.136536,-0.0269165,0.272644,0.951965
1470330480281556,-0.135315,-0.0272217,0.272949,0.952026
1470330480302572,-0.133972,-0.0271606,0.273315,0.952148
1470330480319088,-0.132874,-0.0270386,0.273743,0.952148
1470330480341608,-0.131653,-0.0266113,0.274048,0.952271
1470330480362629,-0.130798,-0.026123,0.27417,0.952332
1470330480379141,-0.130615,-0.0257568,0.273926,0.952454
1470330480401662,-0.130981,-0.0256958,0.273743,0.952454
1470330480422682,-0.13092,-0.0253906,0.273621,0.952515
1470330480439195,-0.130371,-0.0245972,0.273376,0.952698
1470330480467721,-0.129272,-0.0235596,0.273132,0.952942
1470330480490243,-0.128906,-0.0227661,0.272949,0.953064
1470330480499251,-0.129089,-0.0221558,0.272766,0.953064
1470330480521771,-0.130005,-0.0218506,0.272705,0.953003
1470330480542810,-0.130859,-0.0217896,0.272522,0.952942
1470330480559303,-0.131226,-0.0217896,0.272156,0.952942
1470330480581826,-0.131592,-0.0218506,0.271912,0.953003
1470330480602845,-0.132202,-0.0219727,0.271973,0.952881
1470330480619358,-0.132629,-0.0219116,0.272034,0.95282
1470330480641877,-0.132568,-0.0217896,0.271973,0.95282
1470330480664431,-0.132385,-0.0212402,0.271912,0.952881
1470330480679468,-0.13269,-0.020813,0.272034,0.95282
1470330480701931,-0.133362,-0.0205688,0.272278,0.952698
1470330480724454,-0.133362,-0.0203247,0.272034,0.952759
1470330480739465,-0.132019,-0.0194092,0.272034,0.952942
1470330480762003,-0.130737,-0.0181274,0.27179,0.953247
1470330480784219,-0.130005,-0.0168457,0.271545,0.95343
1470330480799232,-0.129456,-0.015564,0.271545,0.953552
1470330480821753,-0.128235,-0.0135498,0.272034,0.953552
1470330480844274,-0.126343,-0.0114136,0.273193,0.953552
1470330480858785,-0.124512,-0.00921631,0.274963,0.953308
1470330480887855,-0.123596,-0.00695801,0.276794,0.952881
1470330480904327,-0.12384,-0.00531006,0.278931,0.952271
1470330480918839,-0.124207,-0.0043335,0.280762,0.95166
1470330480941902,-0.124329,-0.00360107,0.282043,0.951294
1470330480964425,-0.123596,-0.00299072,0.282837,0.951111
1470330480978920,-0.123352,-0.00286865,0.282959,0.951111
1470330481001920,-0.124146,-0.00317383,0.282715,0.951111
1470330481024435,-0.125488,-0.00372314,0.282532,0.950989
1470330481038448,-0.126404,-0.00402832,0.282471,0.950867
1470330481061967,-0.126404,-0.00396729,0.282471,0.950867
1470330481084488,-0.125793,-0.00317383,0.282898,0.950806
1470330481098501,-0.125122,-0.00231934,0.283386,0.950745
1470330481122021,-0.125122,-0.00170898,0.283875,0.950623
1470330481144549,-0.125671,-0.00115967,0.284363,0.950439
1470330481165060,-0.126099,-0.000366211,0.284912,0.950195
1470330481181575,-0.126282,0.000732422,0.285583,0.949951
1470330481204095,-0.12616,0.0020752,0.286133,0.949829
1470330481225615,-0.126038,0.003479,0.286682,0.949646
1470330481241630,-0.126343,0.00482178,0.287048,0.949524
1470330481264149,-0.126648,0.00598145,0.287231,0.949402
1470330481285184,-0.127075,0.00726318,0.287048,0.949402
1470330481301685,-0.127808,0.00817871,0.286682,0.949402
1470330481324205,-0.128662,0.0088501,0.286316,0.949402
1470330481345224,-0.129456,0.00939941,0.285889,0.949402
1470330481361792,-0.130188,0.00982666,0.2854,0.949463
1470330481384321,-0.130737,0.0102539,0.284973,0.949524
1470330481405276,-0.131104,0.0106812,0.284485,0.949585
1470330481421792,-0.131287,0.0110474,0.283997,0.949707
1470330481444311,-0.13147,0.0114136,0.283386,0.949829
1470330481465330,-0.132019,0.0116577,0.282776,0.949951
1470330481481845,-0.132874,0.0117798,0.282227,0.950012
1470330481504365,-0.133362,0.0119629,0.281555,0.950134
1470330481525402,-0.133667,0.0122681,0.280945,0.950256
1470330481541900,-0.133789,0.0126953,0.280396,0.950378
1470330481564419,-0.133972,0.0130005,0.279907,0.9505
1470330481585439,-0.134277,0.0131226,0.279419,0.950623
1470330481601952,-0.134705,0.0131226,0.278931,0.950684
1470330481623973,-0.135071,0.0130615,0.278442,0.950806
1470330481646994,-0.135193,0.0131226,0.278015,0.950867
1470330481662006,-0.135254,0.0131836,0.277527,0.950989
1470330481684527,-0.135254,0.0131836,0.277161,0.951111
1470330481706605,-0.135193,0.0132446,0.276855,0.951233
1470330481721561,-0.135132,0.0133667,0.276672,0.951294
1470330481744081,-0.135071,0.0136719,0.27655,0.951355
1470330481766603,-0.134766,0.0142822,0.276489,0.951355
1470330481781113,-0.134521,0.0148315,0.276367,0.951416
1470330481804135,-0.13446,0.0153198,0.276123,0.951538
1470330481826654,-0.134583,0.0157471,0.275818,0.951599
1470330481841168,-0.134766,0.0159302,0.275391,0.95166
1470330481864190,-0.134888,0.0160522,0.274902,0.951782
1470330481886708,-0.134888,0.0160522,0.274536,0.951904
1470330481901221,-0.134888,0.0160522,0.274231,0.951965
1470330481924242,-0.134705,0.0159302,0.274048,0.952087
1470330481946790,-0.134583,0.015686,0.273987,0.952087
1470330481961303,-0.134399,0.0152588,0.273865,0.952148
1470330481984324,-0.13446,0.0148926,0.273743,0.952209
1470330482006844,-0.13446,0.0148926,0.273743,0.952209
1470330482021356,-0.13446,0.0148315,0.273743,0.952209
1470330482044376,-0.13446,0.0148315,0.273743,0.952209
1470330482066897,-0.13446,0.0148926,0.273743,0.952209
1470330482080909,-0.134521,0.0151978,0.273682,0.952209
1470330482104430,-0.134705,0.0155029,0.273621,0.952209
1470330482126950,-0.134827,0.0157471,0.27356,0.952209
1470330482147971,-0.134766,0.0157471,0.27356,0.952209
1470330482164484,-0.13501,0.0157471,0.273499,0.952209
1470330482186505,-0.135193,0.015625,0.273438,0.952148
1470330482208023,-0.135315,0.0155029,0.273438,0.952148
1470330482224039,-0.135254,0.0155029,0.273438,0.952148
1470330482246558,-0.135254,0.0155029,0.273438,0.952148
1470330482268077,-0.135559,0.0153198,0.273376,0.952148
1470330482284092,-0.135864,0.0151978,0.273193,0.952148
1470330482306612,-0.136047,0.0151367,0.27301,0.952209
1470330482327632,-0.136108,0.0151978,0.272827,0.952209
1470330482344146,-0.136169,0.0153809,0.272644,0.952271
1470330482366667,-0.13623,0.015625,0.272522,0.952271
1470330482388185,-0.13623,0.015625,0.272522,0.952271
1470330482404200,-0.13623,0.015625,0.272522,0.952271
1470330482426721,-0.13623,0.015625,0.272522,0.952271
1470330482447740,-0.136475,0.015564,0.2724,0.952271
1470330482464253,-0.136719,0.0154419,0.272217,0.952332
1470330482486774,-0.136902,0.0153809,0.272156,0.952332
1470330482515299,-0.136902,0.0153809,0.272156,0.952332
1470330482524308,-0.136658,0.0153809,0.272339,0.952271
1470330482546827,-0.136414,0.0152588,0.272644,0.952209
1470330482569349,-0.136292,0.0150757,0.273132,0.952148
1470330482584362,-0.136108,0.0147095,0.27356,0.952026
1470330482606883,-0.136047,0.0144043,0.273926,0.951965
1470330482629402,-0.136108,0.0140991,0.274292,0.951843
1470330482644415,-0.136353,0.013916,0.274597,0.951721
1470330482666935,-0.136597,0.013916,0.274963,0.951538
1470330482689455,-0.136597,0.0140991,0.27533,0.951477
1470330482704469,-0.136536,0.0143433,0.275818,0.951294
1470330482726989,-0.136353,0.0146484,0.276306,0.951172
1470330482756516,-0.13623,0.0149536,0.276794,0.95105
1470330482763522,-0.136353,0.0150146,0.277161,0.950928
1470330482794050,-0.136658,0.0150146,0.277466,0.950806
1470330482809064,-0.136902,0.0150757,0.277588,0.950745
1470330482823583,-0.137207,0.0151978,0.27771,0.950684
1470330482846598,-0.137512,0.0153809,0.277771,0.950623
1470330482869117,-0.137756,0.015625,0.277771,0.950562
1470330482883632,-0.137756,0.015625,0.277771,0.950562
1470330482906652,-0.137817,0.0157471,0.27771,0.950562
1470330482929172,-0.138,0.0159302,0.277588,0.950562
1470330482943684,-0.138123,0.0161133,0.277466,0.950562
1470330482966704,-0.138306,0.0162354,0.277222,0.950623
1470330482989225,-0.138428,0.0163574,0.276978,0.950684
1470330483003741,-0.138611,0.0164795,0.276672,0.950745
1470330483026759,-0.138794,0.0165405,0.276306,0.950806
1470330483049280,-0.139038,0.0167236,0.27594,0.950867
1470330483070298,-0.13916,0.0169067,0.275513,0.950989
1470330483086813,-0.139343,0.0170898,0.275208,0.95105
1470330483109333,-0.139526,0.0172729,0.274963,0.951111
1470330483130352,-0.139709,0.0174561,0.274719,0.951111
1470330483146868,-0.139709,0.0175781,0.274475,0.951172
1470330483169387,-0.139709,0.0177002,0.274353,0.951233
1470330483190405,-0.139648,0.0177002,0.274353,0.951233
1470330483206920,-0.139099,0.0177612,0.274231,0.951355
1470330483212425,-0.138306,0.0176392,0.274048,0.951538
1470330483234946,-0.138123,0.0172119,0.274109,0.951538
1470330483256966,-0.137451,0.0169678,0.274475,0.951538
1470330483271981,-0.136719,0.0167847,0.27478,0.951538
1470330483294498,-0.136169,0.0167847,0.275208,0.951538
1470330483317019,-0.136414,0.0167236,0.275391,0.951416
1470330483332034,-0.13678,0.0165405,0.275574,0.951294
1470330483354553,-0.137268,0.0166016,0.275574,0.951233
1470330483377090,-0.137512,0.0166626,0.275574,0.951233
1470330483392102,-0.137817,0.0169067,0.275574,0.951172
1470330483414673,-0.138062,0.0170898,0.275513,0.951111
1470330483437128,-0.138,0.0174561,0.275513,0.951172
1470330483452146,-0.138062,0.0178223,0.275696,0.951111
1470330483474662,-0.138367,0.0180054,0.275635,0.95105
1470330483497182,-0.137451,0.0182495,0.275818,0.951111
1470330483512196,-0.136475,0.0183105,0.276062,0.951172
1470330483534714,-0.135315,0.0178833,0.276611,0.951233
1470330483557261,-0.13446,0.0177002,0.277405,0.951111
1470330483572248,-0.133789,0.0175781,0.278076,0.950989
1470330483594813,-0.134155,0.0172729,0.278564,0.950806
1470330483617290,-0.134094,0.0170288,0.27887,0.950745
1470330483632346,-0.134705,0.0169067,0.278931,0.950623
1470330483654827,-0.135864,0.0169678,0.27887,0.9505
1470330483677342,-0.13623,0.0172729,0.278564,0.9505
1470330483692356,-0.136475,0.0177002,0.278442,0.9505
1470330483714876,-0.136719,0.0178223,0.278381,0.9505
1470330483745931,-0.136475,0.0178833,0.278625,0.950439
1470330483752410,-0.135376,0.0181885,0.27887,0.950562
1470330483774930,-0.134216,0.0185547,0.278992,0.950623
1470330483797495,-0.133789,0.0186157,0.279297,0.950623
1470330483819971,-0.134033,0.0183716,0.279602,0.9505
1470330483834985,-0.134705,0.0179443,0.279724,0.950378
1470330483857506,-0.135498,0.0177002,0.279724,0.950256
1470330483872020,-0.136719,0.0176392,0.279541,0.950134
1470330483894538,-0.137451,0.0177612,0.279175,0.950134
1470330483917058,-0.137512,0.0178833,0.278809,0.950256
1470330483932086,-0.137329,0.0181274,0.278687,0.950317
1470330483954618,-0.136841,0.0181274,0.27887,0.950317
1470330483977139,-0.135498,0.0184326,0.279297,0.950378
1470330483992153,-0.134094,0.0187378,0.279663,0.950439
1470330484014678,-0.13385,0.0187988,0.279968,0.950439
1470330484037199,-0.133667,0.0182495,0.28009,0.950378
1470330484052207,-0.133789,0.0177612,0.279968,0.950439
1470330484074726,-0.133972,0.0171509,0.279602,0.950562
1470330484097224,-0.134277,0.0167236,0.279175,0.950623
1470330484113737,-0.134766,0.0164185,0.278992,0.950623
1470330484134756,-0.135071,0.0162964,0.278748,0.950623
1470330484157301,-0.134888,0.0164795,0.278503,0.950745
1470330484173832,-0.13446,0.0167236,0.27832,0.950867
1470330484194851,-0.134216,0.0169678,0.278259,0.950928
1470330484217327,-0.134216,0.0169678,0.278259,0.950928
1470330484233842,-0.134155,0.0170288,0.278259,0.950928
1470330484254863,-0.134155,0.0170288,0.278259,0.950928
1470330484277381,-0.13446,0.0170288,0.278137,0.950867
1470330484293494,-0.134766,0.0170288,0.278076,0.950867
1470330484315063,-0.135071,0.0171509,0.278015,0.950806
1470330484337436,-0.135437,0.017395,0.278076,0.950745
1470330484354985,-0.135437,0.017395,0.278076,0.950745
1470330484374474,-0.135376,0.0175781,0.277893,0.950806
1470330484397049,-0.135437,0.0177002,0.277771,0.950867
1470330484413611,-0.135437,0.0177002,0.277771,0.950867
1470330484434554,-0.135437,0.0177002,0.277771,0.950867
1470330484457543,-0.135193,0.0178833,0.27771,0.950867
1470330484475059,-0.135193,0.0178833,0.27771,0.950928
1470330484494607,-0.135193,0.0178833,0.27771,0.950928
1470330484517128,-0.135193,0.0178833,0.27771,0.950867
1470330484535115,-0.135193,0.0178833,0.27771,0.950867
1470330484554665,-0.135193,0.0178833,0.27771,0.950867
1470330484577153,-0.135254,0.0178833,0.27771,0.950867
1470330484595199,-0.135254,0.0178833,0.27771,0.950867
1470330484615191,-0.135254,0.0178833,0.27771,0.950867
1470330484637251,-0.135254,0.0178833,0.27771,0.950867
1470330484655289,-0.135254,0.0178833,0.27771,0.950867
1470330484674772,-0.135193,0.0178833,0.27771,0.950867
1470330484697286,-0.135193,0.0180664,0.277893,0.950867
1470330484715341,-0.135498,0.0180054,0.277771,0.950806
1470330484734795,-0.135498,0.0180054,0.277771,0.950867
1470330484757312,-0.135498,0.0180054,0.277771,0.950867
1470330484775329,-0.135559,0.0179443,0.27771,0.950867
1470330484794845,-0.135864,0.0178833,0.277771,0.950806
1470330484817366,-0.136169,0.0180664,0.277771,0.950745
1470330484834882,-0.136292,0.0182495,0.277771,0.950745
1470330484857903,-0.136292,0.0184937,0.277771,0.950745
1470330484877539,-0.136292,0.0187988,0.277771,0.950684
1470330484894936,-0.136292,0.0188599,0.277771,0.950684
1470330484915011,-0.136292,0.0187988,0.277771,0.950684
1470330484937547,-0.136292,0.0187988,0.277771,0.950684
1470330484955038,-0.13623,0.0187988,0.277771,0.950745
1470330484975009,-0.136292,0.019043,0.277893,0.950684
1470330484997032,-0.136292,0.0194092,0.278015,0.950623
1470330485015045,-0.136169,0.0197144,0.278076,0.950623
1470330485034577,-0.13623,0.0197144,0.278076,0.950623
1470330485057108,-0.13623,0.0197754,0.278076,0.950623
1470330485075153,-0.136292,0.0195923,0.278076,0.950623
1470330485096156,-0.136292,0.0193481,0.277954,0.950623
1470330485117694,-0.136536,0.019104,0.277954,0.950623
1470330485135177,-0.136963,0.0189209,0.277893,0.950562
1470330485156172,-0.137268,0.0189819,0.277954,0.9505
1470330485177218,-0.137329,0.0189819,0.277954,0.9505
1470330485195207,-0.137329,0.0189819,0.277954,0.9505
1470330485216226,-0.137329,0.0189819,0.277954,0.9505
1470330485237261,-0.137512,0.0188599,0.277954,0.9505
1470330485255272,-0.137634,0.0187378,0.277954,0.950439
1470330485276278,-0.137695,0.0185547,0.277954,0.950439
1470330485297342,-0.137878,0.0183105,0.277893,0.950439
1470330485315327,-0.138,0.0180664,0.277893,0.950439
1470330485336333,-0.138245,0.0178223,0.277832,0.950439
1470330485357395,-0.138428,0.0175781,0.277771,0.950439
1470330485375368,-0.138306,0.0174561,0.277832,0.950439
1470330485395886,-0.138306,0.0174561,0.277832,0.950439
1470330485417406,-0.138306,0.0174561,0.277832,0.950439
1470330485435422,-0.138306,0.0174561,0.277832,0.950439
1470330485458441,-0.138367,0.0174561,0.277832,0.950439
1470330485477487,-0.138306,0.0174561,0.277832,0.950439
1470330485494975,-0.138306,0.0174561,0.277832,0.950439
1470330485517496,-0.138306,0.0174561,0.277832,0.950439
1470330485537513,-0.138062,0.017395,0.277893,0.950439
1470330485555034,-0.138062,0.0174561,0.277954,0.950439
1470330485577606,-0.138245,0.017334,0.278015,0.950378
1470330485597070,-0.138611,0.0171509,0.278076,0.950317
1470330485615083,-0.138916,0.0170898,0.278015,0.950256
1470330485644109,-0.138916,0.0170898,0.278015,0.950256
1470330485658121,-0.138916,0.0170898,0.278015,0.950256
1470330485674137,-0.138916,0.0170288,0.278015,0.950317
1470330485696656,-0.138916,0.0170288,0.278015,0.950317
1470330485718175,-0.138916,0.0170288,0.278015,0.950317
1470330485734692,-0.138916,0.0170288,0.278015,0.950317
1470330485764219,-0.13916,0.0170898,0.277832,0.950317
1470330485778263,-0.139404,0.0172729,0.277588,0.950317
1470330485801752,-0.139771,0.0174561,0.277344,0.950378
1470330485816763,-0.140015,0.0176392,0.2771,0.950378
1470330485837800,-0.140015,0.0180054,0.276978,0.950439
1470330485854298,-0.139893,0.0183716,0.276917,0.950439
1470330485876818,-0.139832,0.0187378,0.276855,0.950439
1470330485897837,-0.139771,0.0189209,0.276855,0.950439
1470330485914353,-0.139771,0.0189209,0.276855,0.950439
1470330485936887,-0.139771,0.0189209,0.276855,0.950439
1470330485957991,-0.139832,0.0189209,0.276855,0.950439
1470330485974405,-0.139832,0.0189209,0.276855,0.950439
1470330485996925,-0.139832,0.0189209,0.276855,0.950439
1470330486017989,-0.139832,0.0189819,0.276855,0.950439
1470330486034459,-0.139832,0.0189819,0.276855,0.950439
1470330486056979,-0.139832,0.0189819,0.276855,0.950439
1470330486077499,-0.140076,0.0189819,0.276794,0.950439
1470330486094015,-0.140137,0.0189819,0.276794,0.950439
1470330486117034,-0.140137,0.0189819,0.276794,0.950439
1470330486138054,-0.140137,0.0189819,0.276794,0.950439
1470330486154566,-0.140137,0.0189819,0.276794,0.950439
1470330486176591,-0.14032,0.0189819,0.276733,0.950439
1470330486198106,-0.140381,0.0189819,0.276733,0.950439
1470330486214179,-0.140381,0.019043,0.276733,0.950439
1470330486236686,-0.14032,0.019043,0.276733,0.950439
1470330486258165,-0.140381,0.019043,0.276733,0.950439
1470330486274174,-0.140381,0.019043,0.276733,0.950439
1470330486296695,-0.140381,0.019043,0.276733,0.950439
1470330486318214,-0.140381,0.019043,0.276733,0.950439
1470330486334228,-0.140381,0.019043,0.276733,0.950439
1470330486356751,-0.140381,0.019043,0.276733,0.950439
1470330486379269,-0.140381,0.019043,0.276733,0.950439
1470330486401806,-0.140381,0.019104,0.276733,0.950378
1470330486416803,-0.140381,0.019043,0.276733,0.950378
1470330486439334,-0.140381,0.019043,0.276733,0.950378
1470330486454336,-0.140381,0.019043,0.276733,0.950378
1470330486476856,-0.140442,0.019104,0.276733,0.950378
1470330486499377,-0.140442,0.019104,0.276733,0.950378
1470330486513890,-0.140442,0.019104,0.276733,0.950378
1470330486536910,-0.140442,0.019104,0.276733,0.950378
1470330486559430,-0.140442,0.019104,0.276733,0.950378
1470330486573943,-0.140442,0.019165,0.276733,0.950378
1470330486596992,-0.140503,0.019165,0.276733,0.950378
1470330486619484,-0.140503,0.019165,0.276733,0.950378
1470330486633497,-0.140503,0.019165,0.276733,0.950378
1470330486657020,-0.140564,0.019165,0.276733,0.950378
1470330486679538,-0.140564,0.019165,0.276733,0.950378
1470330486693551,-0.140564,0.0192261,0.276733,0.950378
1470330486717071,-0.140564,0.0192261,0.276733,0.950378
1470330486739629,-0.140564,0.0192261,0.276733,0.950378
1470330486753605,-0.140564,0.0192871,0.276733,0.950378
1470330486777126,-0.140564,0.0192871,0.276733,0.950378
1470330486799646,-0.140564,0.0192871,0.276733,0.950378
1470330486813661,-0.140625,0.0192871,0.276733,0.950378
1470330486836682,-0.140625,0.0194702,0.276672,0.950378
1470330486859202,-0.140686,0.0197754,0.276672,0.950378
1470330486880218,-0.140686,0.0198364,0.276672,0.950378
1470330486896735,-0.140686,0.0198364,0.276672,0.950378
1470330486919254,-0.140686,0.0198364,0.276672,0.950378
1470330486940288,-0.140686,0.0198975,0.276672,0.950378
1470330486956787,-0.140686,0.0198975,0.276672,0.950378
1470330486979307,-0.140747,0.0198975,0.276672,0.950378
1470330487000328,-0.140747,0.0198975,0.276672,0.950378
1470330487016844,-0.140747,0.0198975,0.276672,0.950378
1470330487039361,-0.140747,0.0198975,0.276672,0.950317
1470330487060436,-0.140808,0.0198975,0.276672,0.950317
1470330487076896,-0.140808,0.0199585,0.276672,0.950317
1470330487099419,-0.140808,0.0199585,0.276672,0.950317
1470330487120495,-0.140808,0.0199585,0.276672,0.950317
1470330487136949,-0.140808,0.0199585,0.276672,0.950317
1470330487159471,-0.140808,0.0199585,0.276672,0.950317
1470330487180537,-0.140808,0.0199585,0.276672,0.950317
1470330487197004,-0.140808,0.0199585,0.276672,0.950317
1470330487219523,-0.140808,0.0200195,0.276733,0.950317
1470330487240570,-0.140808,0.0200195,0.276733,0.950317
1470330487257057,-0.140808,0.0200195,0.276733,0.950317
1470330487279577,-0.140808,0.0200195,0.276733,0.950317
1470330487302097,-0.140808,0.0200195,0.276733,0.950317
1470330487317111,-0.140869,0.0200195,0.276733,0.950317
1470330487339632,-0.140869,0.0200195,0.276733,0.950317
1470330487361693,-0.140869,0.0200806,0.276733,0.950317
1470330487376708,-0.140869,0.0200806,0.276733,0.950317
1470330487399189,-0.14093,0.0200806,0.276733,0.950317
1470330487421706,-0.14093,0.0200806,0.276733,0.950317
1470330487436217,-0.14093,0.0200806,0.276733,0.950317
1470330487459238,-0.14093,0.0200806,0.276733,0.950317
1470330487481761,-0.14093,0.0200806,0.276733,0.950317
1470330487496290,-0.14093,0.0200806,0.276733,0.950317
1470330487519293,-0.140991,0.0200806,0.276733,0.950317
1470330487547861,-0.140991,0.0201416,0.276733,0.950317
1470330487556356,-0.140991,0.0201416,0.276733,0.950317
1470330487579349,-0.141052,0.0201416,0.276733,0.950317
1470330487601866,-0.141052,0.0202026,0.276733,0.950317
1470330487616380,-0.141052,0.0202026,0.276733,0.950317
1470330487639418,-0.141052,0.0202026,0.276733,0.950317
1470330487661921,-0.141052,0.0202026,0.276733,0.950317
1470330487682969,-0.141052,0.0202026,0.276733,0.950317
1470330487698953,-0.141113,0.0202026,0.276733,0.950317
1470330487721978,-0.141113,0.0202026,0.276733,0.950256
1470330487735987,-0.141174,0.0202026,0.276733,0.950256
1470330487759508,-0.141174,0.0202637,0.276733,0.950256
1470330487782032,-0.141174,0.0202637,0.276733,0.950256
1470330487803080,-0.141174,0.0202637,0.276733,0.950256
1470330487819562,-0.141174,0.0202637,0.276733,0.950256
1470330487842082,-0.140991,0.0201416,0.276794,0.950256
1470330487863101,-0.140747,0.0199585,0.276917,0.950256
1470330487879622,-0.140625,0.0198364,0.277039,0.950256
1470330487902137,-0.140381,0.0195923,0.277222,0.950256
1470330487922684,-0.14032,0.0193481,0.277405,0.950256
1470330487939205,-0.140198,0.019104,0.277527,0.950195
1470330487961730,-0.140198,0.0189819,0.277649,0.950195
1470330487982764,-0.140198,0.0189819,0.277649,0.950195
1470330487999226,-0.140076,0.019043,0.277771,0.950134
1470330488021759,-0.140076,0.019043,0.277771,0.950134
1470330488042776,-0.140076,0.019043,0.277771,0.950134
1470330488059293,-0.140076,0.019104,0.277771,0.950134
1470330488081797,-0.140076,0.019104,0.277771,0.950134
1470330488102817,-0.140076,0.019104,0.277771,0.950134
1470330488119334,-0.140137,0.019104,0.277771,0.950134
1470330488141855,-0.140137,0.019104,0.277771,0.950134
1470330488162926,-0.140137,0.019104,0.277771,0.950134
1470330488179432,-0.140137,0.019104,0.277771,0.950134
1470330488201909,-0.140137,0.019104,0.277771,0.950134
1470330488222953,-0.140137,0.019104,0.277771,0.950134
1470330488239439,-0.140137,0.019104,0.277771,0.950134
1470330488261961,-0.140198,0.019104,0.277771,0.950134
1470330488284479,-0.140198,0.019104,0.277771,0.950134
1470330488299494,-0.140198,0.019104,0.277771,0.950134
1470330488322013,-0.140198,0.019104,0.277771,0.950134
1470330488344534,-0.140198,0.019104,0.277771,0.950134
1470330488359547,-0.140198,0.019104,0.277771,0.950134
1470330488382067,-0.140198,0.019165,0.277771,0.950134
1470330488404589,-0.140259,0.019165,0.277771,0.950134
1470330488418601,-0.140259,0.019165,0.277771,0.950134
1470330488442128,-0.140259,0.019165,0.277771,0.950134
1470330488464142,-0.140259,0.019165,0.277771,0.950134
1470330488478655,-0.14032,0.019165,0.277771,0.950134
1470330488501674,-0.14032,0.019165,0.277771,0.950134
1470330488524196,-0.14032,0.019165,0.277771,0.950134
1470330488538707,-0.14032,0.019165,0.277771,0.950134
1470330488561729,-0.140259,0.019165,0.277771,0.950134
1470330488584271,-0.14032,0.019165,0.277771,0.950134
1470330488598761,-0.14032,0.019165,0.277771,0.950134
1470330488621784,-0.14032,0.019165,0.277771,0.950134
1470330488644303,-0.14032,0.019165,0.277771,0.950134
1470330488658823,-0.14032,0.019104,0.277771,0.950134
1470330488681837,-0.14032,0.019104,0.277771,0.950134
1470330488704367,-0.140381,0.019104,0.277771,0.950134
1470330488718870,-0.140381,0.019104,0.27771,0.950134
1470330488741890,-0.140381,0.019104,0.27771,0.950134
1470330488764411,-0.140381,0.019104,0.27771,0.950134
1470330488785508,-0.140381,0.019104,0.27771,0.950134
1470330488801945,-0.140381,0.019104,0.27771,0.950134
1470330488824464,-0.140381,0.019104,0.27771,0.950134
1470330488845496,-0.140442,0.019043,0.27771,0.950134
1470330488861998,-0.140442,0.019043,0.27771,0.950134
1470330488884518,-0.140442,0.019043,0.27771,0.950134
1470330488905537,-0.140442,0.019043,0.27771,0.950134
1470330488922052,-0.140442,0.019043,0.27771,0.950134
1470330488944573,-0.140442,0.019043,0.27771,0.950134
1470330488965608,-0.140442,0.019043,0.27771,0.950134
1470330488981605,-0.140442,0.019043,0.27771,0.950134
1470330489004642,-0.140442,0.019043,0.27771,0.950134
1470330489025683,-0.140503,0.019043,0.27771,0.950134
1470330489041715,-0.140442,0.019043,0.27771,0.950134
1470330489064217,-0.140442,0.019043,0.27771,0.950134
1470330489085699,-0.140442,0.0189819,0.27771,0.950134
1470330489101713,-0.140442,0.019043,0.27771,0.950134
1470330489124238,-0.140442,0.0189819,0.27771,0.950134
1470330489145256,-0.140442,0.019043,0.27771,0.950134
1470330489161767,-0.140503,0.019043,0.27771,0.950134
1470330489184287,-0.140503,0.019043,0.27771,0.950134
1470330489206838,-0.140503,0.019043,0.27771,0.950073
1470330489221322,-0.140503,0.019043,0.27771,0.950073
1470330489244346,-0.140503,0.019043,0.27771,0.950073
1470330489266861,-0.140503,0.019104,0.27771,0.950073
1470330489281875,-0.140503,0.019104,0.27771,0.950073
1470330489304395,-0.140503,0.019104,0.27771,0.950073
1470330489326923,-0.140503,0.019104,0.27771,0.950073
1470330489341429,-0.140503,0.019104,0.27771,0.950073
1470330489364451,-0.140503,0.019104,0.27771,0.950073
1470330489386969,-0.140503,0.019104,0.27771,0.950073
1470330489401482,-0.140503,0.019104,0.27771,0.950073
1470330489424516,-0.140564,0.019104,0.27771,0.950073
1470330489447061,-0.140564,0.019104,0.27771,0.950073
1470330489461658,-0.140564,0.019104,0.27771,0.950073
1470330489492069,-0.140503,0.019104,0.27771,0.950073
1470330489507076,-0.140564,0.019104,0.27771,0.950073
1470330489521090,-0.140564,0.019104,0.27771,0.950073
1470330489544613,-0.140564,0.019104,0.27771,0.950073
1470330489567132,-0.140564,0.019104,0.27771,0.950073
1470330489581146,-0.140564,0.019165,0.27771,0.950073
1470330489604196,-0.140625,0.019104,0.27771,0.950073
1470330489626699,-0.140564,0.019104,0.27771,0.950073
1470330489641200,-0.140564,0.019165,0.27771,0.950073
1470330489664223,-0.140625,0.019104,0.27771,0.950073
1470330489686930,-0.140625,0.019165,0.27771,0.950073
1470330489707988,-0.140625,0.019165,0.27771,0.950073
1470330489724463,-0.140625,0.019165,0.27771,0.950073
1470330489746998,-0.140625,0.019165,0.27771,0.950073
1470330489768002,-0.140625,0.019165,0.27771,0.950073
1470330489784517,-0.140625,0.019165,0.27771,0.950073
1470330489807038,-0.140625,0.019165,0.27771,0.950073
1470330489828065,-0.140686,0.0192261,0.27771,0.950073
1470330489844571,-0.140686,0.0192261,0.27771,0.950073
1470330489867090,-0.140686,0.0192261,0.27771,0.950073
1470330489888110,-0.140686,0.0192261,0.277771,0.950073
1470330489904126,-0.140686,0.0192261,0.277771,0.950073
1470330489926664,-0.140686,0.0192261,0.277771,0.950073
1470330489947691,-0.140686,0.0192871,0.277771,0.950073
1470330489964195,-0.140686,0.0192871,0.277771,0.950073
1470330489986701,-0.140686,0.0192871,0.277771,0.950073
1470330490008218,-0.140625,0.0192871,0.277771,0.950073
1470330490024232,-0.140686,0.0192871,0.277771,0.950073
1470330490046752,-0.140686,0.0192871,0.277771,0.950073
1470330490067771,-0.140686,0.0193481,0.277771,0.950073
1470330490084287,-0.140686,0.0192871,0.277771,0.950073
1470330490106806,-0.140686,0.0193481,0.277771,0.950073
1470330490127829,-0.140686,0.0193481,0.277771,0.950073
1470330490144344,-0.140686,0.0193481,0.277771,0.950073
1470330490166860,-0.140686,0.0193481,0.277771,0.950073
1470330490189384,-0.140686,0.0193481,0.277771,0.950073
1470330490204427,-0.140686,0.0193481,0.277771,0.950073
1470330490226915,-0.140686,0.0193481,0.277771,0.950073
1470330490249439,-0.140686,0.0193481,0.277771,0.950073
1470330490264447,-0.140747,0.0193481,0.277771,0.950073
1470330490286983,-0.140686,0.0193481,0.277771,0.950073
1470330490309490,-0.140686,0.0193481,0.277771,0.950073
1470330490324002,-0.140686,0.0193481,0.277771,0.950073
1470330490347022,-0.140686,0.0193481,0.277771,0.950073
1470330490369543,-0.140686,0.0194092,0.277771,0.950073
1470330490383554,-0.140564,0.0194092,0.278015,0.950012
1470330490407096,-0.140381,0.0194702,0.278259,0.949951
1470330490429596,-0.14032,0.0194702,0.278442,0.94989
1470330490443610,-0.140442,0.0193481,0.278625,0.949829
1470330490466640,-0.140503,0.0192871,0.278809,0.949768
1470330490489153,-0.140564,0.0192871,0.278809,0.949768
1470330490510668,-0.140503,0.0192871,0.278809,0.949768
1470330490526706,-0.140625,0.0193481,0.279053,0.949707
1470330490549203,-0.140503,0.0194702,0.279297,0.949646
1470330490563720,-0.140381,0.0195923,0.27948,0.949585
1470330490586787,-0.140442,0.0195923,0.279663,0.949524
1470330490609257,-0.140442,0.0195923,0.279663,0.949524
1470330490623774,-0.140503,0.0195923,0.279663,0.949524
1470330490646791,-0.140503,0.0195923,0.279663,0.949524
1470330490669312,-0.140503,0.0196533,0.279663,0.949524
1470330490682355,-0.140503,0.0196533,0.279663,0.949524
1470330490692833,-0.140503,0.0196533,0.279663,0.949524
1470330490712375,-0.140503,0.0196533,0.279663,0.949524
1470330490734959,-0.140503,0.0196533,0.279663,0.949524
1470330490752906,-0.140503,0.0196533,0.279663,0.949524
1470330490772442,-0.140503,0.0196533,0.279663,0.949524
1470330490794948,-0.140503,0.0196533,0.279663,0.949524
1470330490812953,-0.140503,0.0197144,0.279663,0.949524
1470330490832457,-0.140503,0.0197144,0.279663,0.949524
1470330490854978,-0.140564,0.0197754,0.279663,0.949524
1470330490873033,-0.140564,0.0197754,0.279663,0.949524
1470330490892595,-0.140564,0.0197754,0.279663,0.949524
1470330490915032,-0.140564,0.0197754,0.279663,0.949524
1470330490932571,-0.140564,0.0197754,0.279663,0.949524
