timestamp,x,y,z,w
1470261484737240,-0.256531,0.403992,0.788452,-0.386414
1470261484746246,-0.256165,0.403198,0.788879,-0.386597
1470261484768767,-0.255859,0.402344,0.789246,-0.386841
1470261484789785,-0.255676,0.401611,0.789612,-0.387085
1470261484806141,-0.255737,0.401123,0.789795,-0.387146
1470261484828660,-0.256104,0.401062,0.789734,-0.387146
1470261484849688,-0.256531,0.401306,0.78949,-0.387085
1470261484866697,-0.257019,0.401489,0.789246,-0.387085
1470261484888714,-0.257446,0.401245,0.789307,-0.386963
1470261484909732,-0.257568,0.400696,0.789551,-0.38678
1470261484925747,-0.257935,0.400574,0.789734,-0.386414
1470261484948769,-0.258423,0.400818,0.789673,-0.385925
1470261484971288,-0.258911,0.401123,0.789612,-0.385498
1470261484986302,-0.259583,0.401489,0.789429,-0.384949
1470261485008821,-0.26062,0.401611,0.789246,-0.384521
1470261485029841,-0.261963,0.402039,0.788635,-0.384399
1470261485046356,-0.264221,0.403503,0.787231,-0.384216
1470261485068875,-0.266663,0.40332,0.786743,-0.383728
1470261485089894,-0.269104,0.403015,0.786194,-0.383362
1470261485106409,-0.270264,0.403259,0.784912,-0.38501
1470261485128930,-0.27063,0.404358,0.782593,-0.388245
1470261485149952,-0.268494,0.405579,0.779419,-0.394775
1470261485165964,-0.264465,0.408691,0.774658,-0.403625
1470261485188985,-0.260193,0.414124,0.767944,-0.413574
1470261485211004,-0.255981,0.420776,0.76001,-0.424072
1470261485232524,-0.251404,0.426392,0.751709,-0.43573
1470261485249039,-0.246826,0.430908,0.743408,-0.447998
1470261485271058,-0.242371,0.435181,0.734619,-0.460693
1470261485285571,-0.237915,0.439331,0.725769,-0.4729
1470261485308591,-0.233154,0.441772,0.718201,-0.484375
1470261485332113,-0.229187,0.443237,0.711548,-0.494629
1470261485352631,-0.225159,0.441162,0.707092,-0.504639
1470261485368646,-0.224365,0.43927,0.703003,-0.512329
1470261485391166,-0.225464,0.436768,0.700012,-0.518066
1470261485412184,-0.227661,0.432739,0.698547,-0.522339
1470261485428700,-0.230347,0.427307,0.698792,-0.525391
1470261485451219,-0.233704,0.420715,0.700623,-0.526794
1470261485472237,-0.237793,0.413574,0.703552,-0.526733
1470261485488753,-0.24292,0.406555,0.706848,-0.525452
1470261485511273,-0.248657,0.399841,0.710205,-0.523376
1470261485532295,-0.253967,0.392883,0.71405,-0.520874
1470261485548809,-0.258362,0.385254,0.718445,-0.51825
1470261485571327,-0.262817,0.378113,0.722534,-0.515625
1470261485592345,-0.267761,0.372192,0.72583,-0.512756
1470261485608861,-0.273071,0.367554,0.72821,-0.509949
1470261485631381,-0.277222,0.362793,0.73053,-0.507751
1470261485652400,-0.280212,0.356689,0.732849,-0.507141
1470261485668914,-0.28125,0.34906,0.735413,-0.508118
1470261485691434,-0.281738,0.341858,0.73822,-0.508667
1470261485712453,-0.28241,0.336975,0.740295,-0.508545
1470261485728468,-0.283386,0.33374,0.741638,-0.508118
1470261485750990,-0.283875,0.330383,0.743103,-0.507935
1470261485772507,-0.282471,0.326965,0.745117,-0.508057
1470261485788522,-0.279724,0.325684,0.746826,-0.507935
1470261485811042,-0.277161,0.328308,0.747253,-0.506897
1470261485832561,-0.275757,0.333191,0.74707,-0.504822
1470261485848577,-0.273987,0.336914,0.747437,-0.502808
1470261485871096,-0.272644,0.340149,0.747498,-0.50116
1470261485892616,-0.270752,0.343201,0.747253,-0.500427
1470261485908630,-0.268372,0.345215,0.747192,-0.500488
1470261485931150,-0.266907,0.346802,0.747253,-0.500061
1470261485952170,-0.265869,0.347168,0.748108,-0.499146
1470261485968685,-0.265503,0.346802,0.749268,-0.497803
1470261485991204,-0.265198,0.347412,0.749695,-0.496948
1470261486012224,-0.265381,0.348389,0.749451,-0.496521
1470261486028737,-0.266357,0.348755,0.74939,-0.495789
1470261486051260,-0.267456,0.347595,0.749817,-0.495361
1470261486072277,-0.26825,0.345337,0.750732,-0.495178
1470261486088792,-0.268982,0.342896,0.751648,-0.495056
1470261486111312,-0.269653,0.340637,0.752197,-0.495422
1470261486133834,-0.270691,0.338623,0.751953,-0.496582
1470261486148848,-0.271851,0.33606,0.751648,-0.498108
1470261486171365,-0.271912,0.332458,0.751892,-0.500122
1470261486193886,-0.271729,0.330139,0.751831,-0.501892
1470261486214907,-0.271545,0.329712,0.751221,-0.503174
1470261486238926,-0.272522,0.331299,0.749695,-0.503906
1470261486253439,-0.274231,0.33252,0.748108,-0.504517
1470261486268453,-0.275818,0.33313,0.746338,-0.505798
1470261486291474,-0.276367,0.332397,0.744934,-0.508118
1470261486313493,-0.275696,0.3302,0.743652,-0.511841
1470261486334514,-0.273621,0.326721,0.742493,-0.516846
1470261486351030,-0.272339,0.323914,0.740662,-0.521851
1470261486374047,-0.271973,0.321533,0.738342,-0.526733
1470261486395067,-0.272095,0.318237,0.735962,-0.531982
1470261486411083,-0.271606,0.313721,0.733948,-0.537659
1470261486433604,-0.271179,0.309082,0.7323,-0.542847
1470261486462126,-0.270325,0.303345,0.731445,-0.547607
1470261486471135,-0.269653,0.297546,0.730774,-0.552002
1470261486493655,-0.269287,0.292419,0.730408,-0.55542
1470261486514674,-0.268921,0.288391,0.73053,-0.557556
1470261486531189,-0.269287,0.286133,0.730225,-0.558838
1470261486553709,-0.269592,0.284546,0.72998,-0.559875
1470261486574743,-0.269531,0.282715,0.730713,-0.559937
1470261486591243,-0.26886,0.280823,0.732178,-0.559265
1470261486613763,-0.268188,0.279602,0.73407,-0.557739
1470261486634782,-0.267029,0.278259,0.736938,-0.555176
1470261486651297,-0.264954,0.276611,0.740906,-0.551697
1470261486673816,-0.261658,0.274597,0.745667,-0.547791
1470261486694852,-0.258972,0.273499,0.750305,-0.543335
1470261486711350,-0.257507,0.273621,0.754578,-0.537964
1470261486733874,-0.256104,0.274658,0.75885,-0.532043
1470261486754889,-0.254333,0.276855,0.762878,-0.526001
1470261486771404,-0.253052,0.27948,0.766602,-0.519775
1470261486793925,-0.253113,0.282593,0.770081,-0.512878
1470261486815945,-0.254211,0.286072,0.773499,-0.505188
1470261486831961,-0.255371,0.289551,0.776978,-0.497253
1470261486853978,-0.256958,0.293091,0.779968,-0.489624
1470261486874997,-0.259094,0.296814,0.78241,-0.4823
1470261486890512,-0.261353,0.300659,0.784424,-0.475342
1470261486914032,-0.262756,0.303955,0.786438,-0.469116
1470261486935051,-0.264343,0.307373,0.787964,-0.463379
1470261486950569,-0.266174,0.310364,0.789307,-0.458069
1470261486973586,-0.267822,0.312927,0.790649,-0.453003
1470261486995105,-0.269226,0.314941,0.792175,-0.447998
1470261487010619,-0.270874,0.316956,0.793274,-0.443665
1470261487039646,-0.27301,0.318481,0.794373,-0.439331
1470261487055159,-0.275757,0.320068,0.79541,-0.434509
1470261487070673,-0.279297,0.321594,0.79657,-0.428955
1470261487101201,-0.282532,0.323547,0.798035,-0.422668
1470261487116214,-0.28186,0.329773,0.798218,-0.417969
1470261487130727,-0.273682,0.327454,0.80072,-0.420288
1470261487153749,-0.270752,0.328796,0.802185,-0.418396
1470261487176268,-0.273438,0.337463,0.800049,-0.413879
1470261487190780,-0.275452,0.345337,0.798218,-0.409424
1470261487213803,-0.274231,0.348267,0.798523,-0.407227
1470261487236322,-0.271973,0.349243,0.7995,-0.406006
1470261487257341,-0.270264,0.349915,0.800415,-0.404785
1470261487273856,-0.269043,0.351318,0.80072,-0.403687
1470261487296376,-0.268372,0.353455,0.800598,-0.402527
1470261487310389,-0.267883,0.355591,0.800415,-0.401306
1470261487333910,-0.267212,0.356995,0.800598,-0.400269
1470261487356430,-0.266113,0.357849,0.801025,-0.399414
1470261487370442,-0.265137,0.358582,0.801331,-0.398682
1470261487393963,-0.264465,0.359314,0.801575,-0.397949
1470261487416485,-0.263977,0.359863,0.80188,-0.397156
1470261487430496,-0.26355,0.360413,0.802124,-0.396423
1470261487467529,-0.263184,0.360657,0.802368,-0.395996
1470261487476537,-0.262939,0.360779,0.80249,-0.395874
1470261487497556,-0.262512,0.360535,0.802795,-0.395752
1470261487513572,-0.261963,0.360413,0.80304,-0.39563
1470261487536091,-0.261597,0.360657,0.803223,-0.395325
1470261487551105,-0.261292,0.360901,0.803467,-0.394897
1470261487573625,-0.260742,0.360962,0.803772,-0.39447
1470261487596144,-0.260315,0.361145,0.803955,-0.394226
1470261487617165,-0.259766,0.36145,0.804138,-0.393982
1470261487634181,-0.25946,0.361816,0.80426,-0.393555
1470261487656198,-0.258972,0.361755,0.804565,-0.39325
1470261487677219,-0.258484,0.36145,0.805054,-0.392944
1470261487693733,-0.257996,0.361206,0.80542,-0.392822
1470261487716257,-0.257568,0.36084,0.805725,-0.3927
1470261487737287,-0.257141,0.360535,0.80603,-0.3927
1470261487753786,-0.256836,0.360229,0.806213,-0.3927
1470261487776306,-0.256592,0.360046,0.806335,-0.392761
1470261487797325,-0.256287,0.359863,0.806458,-0.392944
1470261487813840,-0.256226,0.359863,0.806519,-0.392944
1470261487836361,-0.256226,0.359863,0.806458,-0.392944
1470261487857380,-0.256042,0.359985,0.806519,-0.392822
1470261487873894,-0.255859,0.360229,0.80658,-0.392639
1470261487896415,-0.255798,0.360657,0.806458,-0.392578
1470261487917436,-0.255676,0.360962,0.806396,-0.392395
1470261487933951,-0.255615,0.361328,0.806396,-0.392212
1470261487955968,-0.255432,0.361633,0.806396,-0.392029
1470261487977487,-0.25531,0.362122,0.806335,-0.391785
1470261487994001,-0.255188,0.362732,0.806274,-0.391418
1470261488016525,-0.255005,0.363098,0.806274,-0.391113
1470261488039043,-0.254822,0.363586,0.806274,-0.390869
1470261488053556,-0.254761,0.364075,0.806213,-0.390564
1470261488076075,-0.254639,0.364502,0.806152,-0.39032
1470261488099096,-0.254578,0.36499,0.806091,-0.390076
1470261488113609,-0.254517,0.365356,0.80603,-0.389893
1470261488136130,-0.254456,0.365601,0.80603,-0.389771
1470261488158650,-0.254395,0.365784,0.80603,-0.389648
1470261488173663,-0.254333,0.365784,0.80603,-0.389648
1470261488196184,-0.254395,0.366028,0.805969,-0.389526
1470261488219205,-0.254333,0.365967,0.805969,-0.389526
1470261488233220,-0.254333,0.365967,0.805969,-0.389526
1470261488256240,-0.254333,0.365967,0.805969,-0.389587
1470261488278758,-0.254333,0.366028,0.805969,-0.389587
1470261488301778,-0.254333,0.366028,0.805969,-0.389587
1470261488316294,-0.254272,0.366028,0.805969,-0.389587
1470261488338812,-0.254272,0.366028,0.805969,-0.389587
1470261488352826,-0.254395,0.36615,0.805908,-0.389526
1470261488376345,-0.254395,0.36615,0.805908,-0.389526
1470261488398867,-0.254395,0.366211,0.805908,-0.389526
1470261488413378,-0.254395,0.366211,0.805847,-0.389526
1470261488436402,-0.254395,0.366211,0.805847,-0.389526
1470261488458920,-0.254395,0.366211,0.805847,-0.389526
1470261488473432,-0.254395,0.366211,0.805847,-0.389526
1470261488496453,-0.254395,0.366211,0.805847,-0.389526
1470261488518975,-0.254456,0.366394,0.805786,-0.389465
1470261488539992,-0.254456,0.366394,0.805786,-0.389465
1470261488556507,-0.254456,0.366394,0.805786,-0.389465
1470261488579528,-0.254456,0.366455,0.805786,-0.389465
1470261488600047,-0.254517,0.366577,0.805725,-0.389343
1470261488616561,-0.254639,0.366821,0.805664,-0.389221
1470261488638581,-0.254639,0.366821,0.805603,-0.389221
1470261488660600,-0.254639,0.366821,0.805603,-0.389221
1470261488676114,-0.254639,0.367126,0.805542,-0.389099
1470261488699137,-0.254639,0.367126,0.805542,-0.38916
1470261488719654,-0.254639,0.367126,0.805542,-0.38916
1470261488736170,-0.254639,0.367188,0.805542,-0.38916
1470261488760691,-0.254578,0.367188,0.805542,-0.38916
1470261488779707,-0.254578,0.367188,0.805542,-0.38916
1470261488796223,-0.254578,0.367188,0.805542,-0.38916
1470261488818742,-0.254578,0.367188,0.805542,-0.38916
1470261488839762,-0.254578,0.367188,0.805542,-0.38916
1470261488856276,-0.254578,0.367249,0.805542,-0.38916
1470261488878797,-0.254578,0.367249,0.805481,-0.38916
1470261488884316,-0.254578,0.367249,0.805481,-0.38916
1470261488906850,-0.254578,0.367249,0.805481,-0.38916
1470261488921922,-0.254578,0.367249,0.805481,-0.38916
1470261488944386,-0.254578,0.36731,0.805481,-0.38916
1470261488966876,-0.254578,0.36731,0.805481,-0.38916
1470261488981888,-0.254578,0.36731,0.805481,-0.38916
1470261489004409,-0.254517,0.36731,0.805481,-0.389221
1470261489026930,-0.254517,0.36731,0.805481,-0.389221
1470261489041943,-0.254517,0.367371,0.805481,-0.389221
1470261489064463,-0.254578,0.367371,0.80542,-0.38916
1470261489086983,-0.254578,0.367371,0.80542,-0.38916
1470261489102003,-0.254578,0.367371,0.80542,-0.389221
1470261489127019,-0.254517,0.367371,0.80542,-0.389221
1470261489147040,-0.254639,0.367554,0.805359,-0.38916
1470261489162096,-0.254639,0.367615,0.805359,-0.38916
1470261489184071,-0.254639,0.367615,0.805359,-0.38916
1470261489206641,-0.254639,0.367615,0.805298,-0.38916
1470261489221636,-0.254639,0.367615,0.805298,-0.38916
1470261489244163,-0.254639,0.367615,0.805298,-0.38916
1470261489266647,-0.254639,0.367676,0.805298,-0.38916
1470261489281659,-0.254639,0.367676,0.805298,-0.38916
1470261489304196,-0.254639,0.367676,0.805298,-0.38916
1470261489326754,-0.254639,0.367676,0.805298,-0.38916
1470261489341740,-0.254639,0.367737,0.805298,-0.38916
1470261489364279,-0.254578,0.367676,0.805298,-0.38916
1470261489386753,-0.254761,0.36792,0.805176,-0.389099
1470261489409273,-0.254761,0.36792,0.805176,-0.389099
1470261489424288,-0.254761,0.36792,0.805176,-0.389099
1470261489446825,-0.254761,0.36792,0.805176,-0.389099
1470261489461847,-0.2547,0.36792,0.805176,-0.38916
1470261489484413,-0.2547,0.36792,0.805176,-0.38916
1470261489506919,-0.2547,0.367981,0.805176,-0.38916
1470261489521931,-0.2547,0.367981,0.805176,-0.38916
1470261489544394,-0.2547,0.367981,0.805176,-0.38916
1470261489566916,-0.2547,0.367981,0.805115,-0.38916
1470261489583430,-0.2547,0.367981,0.805115,-0.38916
1470261489604451,-0.2547,0.367981,0.805115,-0.38916
1470261489626969,-0.2547,0.367981,0.805115,-0.38916
1470261489642983,-0.2547,0.368042,0.805115,-0.38916
1470261489664001,-0.2547,0.368042,0.805115,-0.38916
1470261489686523,-0.2547,0.368042,0.805115,-0.38916
1470261489703037,-0.2547,0.368042,0.805115,-0.38916
1470261489731563,-0.2547,0.368042,0.805115,-0.38916
1470261489746575,-0.2547,0.368103,0.805115,-0.38916
1470261489763091,-0.2547,0.368103,0.805115,-0.38916
1470261489784112,-0.2547,0.368103,0.805115,-0.38916
1470261489815138,-0.2547,0.368103,0.805115,-0.38916
1470261489823145,-0.2547,0.368103,0.805054,-0.38916
1470261489844164,-0.2547,0.368103,0.805054,-0.38916
1470261489866685,-0.2547,0.368164,0.805054,-0.38916
1470261489884702,-0.2547,0.368164,0.805054,-0.38916
1470261489911724,-0.2547,0.368164,0.805054,-0.38916
1470261489929740,-0.2547,0.368225,0.805054,-0.38916
1470261489944753,-0.2547,0.368225,0.805054,-0.38916
1470261489964272,-0.254639,0.368225,0.804993,-0.38916
1470261489986812,-0.2547,0.368225,0.804993,-0.38916
1470261490004836,-0.2547,0.368286,0.804993,-0.38916
1470261490024350,-0.2547,0.368286,0.804993,-0.38916
1470261490046854,-0.254639,0.368286,0.804993,-0.38916
1470261490064957,-0.254639,0.368286,0.804993,-0.38916
1470261490084381,-0.254639,0.368347,0.804993,-0.389221
1470261490106899,-0.254639,0.368347,0.804993,-0.389221
1470261490124940,-0.254639,0.368347,0.804993,-0.389221
1470261490144433,-0.254639,0.368347,0.804932,-0.389221
1470261490166954,-0.254578,0.368347,0.804932,-0.389221
1470261490184471,-0.254578,0.368408,0.804932,-0.389221
1470261490204488,-0.254578,0.368408,0.804932,-0.389221
1470261490227028,-0.254578,0.368408,0.804932,-0.389221
1470261490244523,-0.254578,0.368469,0.804932,-0.389221
1470261490264040,-0.254578,0.368469,0.804932,-0.389282
1470261490287112,-0.254517,0.368469,0.804932,-0.389282
1470261490304577,-0.254517,0.368469,0.804932,-0.389282
1470261490324610,-0.254517,0.36853,0.804871,-0.389282
1470261490346616,-0.254517,0.36853,0.804871,-0.389282
1470261490364675,-0.254517,0.368591,0.804871,-0.389282
1470261490384150,-0.254517,0.368591,0.804871,-0.389282
1470261490406673,-0.254517,0.368591,0.80481,-0.389282
1470261490439234,-0.254517,0.368652,0.80481,-0.389282
1470261490444237,-0.254456,0.368652,0.80481,-0.389282
1470261490466734,-0.254456,0.368652,0.80481,-0.389282
1470261490484738,-0.254456,0.368652,0.80481,-0.389343
1470261490504290,-0.254456,0.368713,0.80481,-0.389343
1470261490526832,-0.254456,0.368713,0.80481,-0.389343
1470261490544792,-0.254456,0.368713,0.80481,-0.389343
1470261490567314,-0.254456,0.368774,0.804749,-0.389343
1470261490586863,-0.254395,0.368774,0.804749,-0.389343
1470261490604869,-0.254395,0.368774,0.804749,-0.389343
1470261490625865,-0.254395,0.368835,0.804749,-0.389343
1470261490647416,-0.254395,0.368835,0.804749,-0.389343
1470261490664900,-0.254395,0.368835,0.804749,-0.389343
1470261490685919,-0.254395,0.368835,0.804749,-0.389343
1470261490706938,-0.254395,0.368896,0.804749,-0.389404
1470261490730960,-0.254333,0.368896,0.804749,-0.389404
1470261490745491,-0.254333,0.368896,0.804688,-0.389404
1470261490766991,-0.254333,0.368896,0.804688,-0.389404
1470261490790513,-0.254272,0.368958,0.804688,-0.389404
1470261490805539,-0.254272,0.368958,0.804688,-0.389404
1470261490826570,-0.254272,0.368958,0.804688,-0.389404
1470261490844562,-0.254272,0.369019,0.804626,-0.389404
1470261490873117,-0.254272,0.36908,0.804626,-0.389404
1470261490887104,-0.254272,0.36908,0.804626,-0.389465
1470261490912127,-0.254272,0.36908,0.804626,-0.389465
1470261490928140,-0.254272,0.369141,0.804626,-0.389465
1470261490946672,-0.254272,0.369141,0.804626,-0.389465
1470261490964683,-0.254272,0.369141,0.804626,-0.389465
1470261490987192,-0.254272,0.369141,0.804565,-0.389465
1470261491006764,-0.254272,0.369202,0.804565,-0.389465
1470261491024774,-0.254211,0.369202,0.804565,-0.389465
1470261491047368,-0.254211,0.369202,0.804565,-0.389465
1470261491066782,-0.254211,0.369263,0.804565,-0.389465
1470261491084795,-0.254211,0.369263,0.804565,-0.389465
1470261491107297,-0.254211,0.369263,0.804504,-0.389465
1470261491126818,-0.254211,0.369324,0.804504,-0.389526
1470261491144847,-0.254211,0.369324,0.804504,-0.389526
1470261491167353,-0.25415,0.369324,0.804504,-0.389526
1470261491186869,-0.25415,0.369385,0.804504,-0.389526
1470261491204934,-0.25415,0.369385,0.804504,-0.389526
1470261491227406,-0.25415,0.369446,0.804443,-0.389526
1470261491246922,-0.25415,0.369446,0.804443,-0.389526
1470261491269443,-0.25415,0.369507,0.804443,-0.389526
1470261491294470,-0.254089,0.369507,0.804443,-0.389526
1470261491307002,-0.254089,0.369507,0.804443,-0.389587
1470261491324530,-0.254089,0.369507,0.804443,-0.389587
1470261491346512,-0.254089,0.369568,0.804382,-0.389587
1470261491367036,-0.254089,0.369568,0.804382,-0.389587
1470261491384551,-0.254028,0.369568,0.804382,-0.389587
1470261491406566,-0.254028,0.369629,0.804382,-0.389587
1470261491427650,-0.254028,0.369629,0.804382,-0.389587
1470261491443601,-0.254028,0.369629,0.804382,-0.389587
1470261491466621,-0.254028,0.36969,0.804382,-0.389648
1470261491487639,-0.254028,0.36969,0.804382,-0.389648
1470261491503702,-0.253967,0.36969,0.804321,-0.389648
1470261491526173,-0.254028,0.369751,0.804321,-0.389648
1470261491547192,-0.253967,0.369751,0.804321,-0.389648
1470261491564208,-0.253967,0.369751,0.804321,-0.389648
1470261491586227,-0.253906,0.369812,0.804321,-0.389648
1470261491607259,-0.253906,0.369812,0.804321,-0.389648
1470261491623761,-0.253906,0.369812,0.80426,-0.389648
1470261491646282,-0.253906,0.369812,0.80426,-0.389709
1470261491667302,-0.253906,0.369873,0.80426,-0.389709
1470261491684318,-0.253906,0.369873,0.80426,-0.389709
1470261491706335,-0.253845,0.369873,0.80426,-0.389709
1470261491727353,-0.253845,0.369934,0.80426,-0.389709
1470261491743869,-0.253845,0.369934,0.804199,-0.389709
1470261491766396,-0.253845,0.369934,0.804199,-0.389709
1470261491787408,-0.253845,0.370117,0.804138,-0.389709
1470261491803923,-0.253845,0.370178,0.804138,-0.389709
1470261491826445,-0.253845,0.370178,0.804138,-0.389709
1470261491848966,-0.253845,0.370178,0.804138,-0.389771
1470261491863976,-0.253845,0.370239,0.804077,-0.389771
1470261491886497,-0.253845,0.370239,0.804077,-0.389771
1470261491909017,-0.253784,0.370239,0.804077,-0.389771
1470261491924030,-0.253784,0.370239,0.804077,-0.389771
1470261491946056,-0.253784,0.3703,0.804077,-0.389771
1470261491968571,-0.253784,0.3703,0.804077,-0.389771
1470261491983586,-0.253723,0.370361,0.804077,-0.389771
1470261492006604,-0.253723,0.370361,0.804016,-0.389771
1470261492028625,-0.253723,0.370361,0.804016,-0.389832
1470261492043138,-0.253723,0.370422,0.804016,-0.389832
1470261492066179,-0.253662,0.370422,0.804016,-0.389832
1470261492088678,-0.253662,0.370422,0.804016,-0.389832
1470261492103209,-0.253662,0.370483,0.804016,-0.389832
1470261492126233,-0.253662,0.370483,0.804016,-0.389832
1470261492148738,-0.253601,0.370483,0.803955,-0.389893
1470261492163246,-0.253601,0.370544,0.803955,-0.389893
1470261492186266,-0.253601,0.370544,0.803955,-0.389893
1470261492208786,-0.253601,0.370544,0.803955,-0.389893
1470261492223301,-0.253601,0.370544,0.803955,-0.389893
1470261492246322,-0.25354,0.370605,0.803955,-0.389893
1470261492268840,-0.25354,0.370605,0.803894,-0.389893
1470261492283353,-0.25354,0.370667,0.803894,-0.389893
1470261492306410,-0.25354,0.370667,0.803894,-0.389954
1470261492328894,-0.25354,0.370728,0.803894,-0.389954
1470261492349952,-0.253479,0.370728,0.803894,-0.389954
1470261492366431,-0.253479,0.370789,0.803833,-0.389954
1470261492388948,-0.253479,0.370789,0.803833,-0.389954
1470261492409971,-0.253479,0.37085,0.803833,-0.389954
1470261492426481,-0.253418,0.37085,0.803833,-0.390015
1470261492456008,-0.253418,0.37085,0.803833,-0.390015
1470261492470054,-0.253418,0.370911,0.803833,-0.390015
1470261492486536,-0.253418,0.370911,0.803772,-0.390015
1470261492509056,-0.253357,0.370911,0.803772,-0.390015
1470261492530117,-0.253357,0.370972,0.803772,-0.390015
1470261492546089,-0.253357,0.370972,0.803772,-0.390015
1470261492568609,-0.253357,0.371033,0.803711,-0.390076
1470261492590172,-0.253357,0.371033,0.803711,-0.390076
1470261492606143,-0.253357,0.371033,0.803711,-0.390076
1470261492629164,-0.253296,0.371094,0.803711,-0.390076
1470261492657689,-0.253296,0.371094,0.803711,-0.390076
1470261492666701,-0.253296,0.371155,0.803711,-0.390076
1470261492688717,-0.253296,0.371155,0.80365,-0.390076
1470261492710237,-0.253296,0.371216,0.80365,-0.390076
1470261492739763,-0.253296,0.371216,0.80365,-0.390076
1470261492748773,-0.253296,0.371216,0.80365,-0.390076
1470261492769791,-0.253235,0.371216,0.80365,-0.390076
1470261492786305,-0.253235,0.371277,0.80365,-0.390137
1470261492808825,-0.253235,0.371277,0.803589,-0.390137
1470261492831345,-0.253235,0.371338,0.803589,-0.390137
1470261492846359,-0.253235,0.371338,0.803589,-0.390137
1470261492868879,-0.253174,0.371338,0.803589,-0.390137
1470261492891399,-0.253174,0.371338,0.803589,-0.390137
1470261492906415,-0.253174,0.371399,0.803589,-0.390137
1470261492928933,-0.253174,0.37146,0.803528,-0.390137
1470261492951454,-0.253174,0.37146,0.803528,-0.390198
1470261492965966,-0.253174,0.371521,0.803528,-0.390198
1470261492988986,-0.253174,0.371521,0.803467,-0.390198
1470261493011507,-0.253174,0.371582,0.803467,-0.390198
1470261493025523,-0.253113,0.371582,0.803467,-0.390198
1470261493049541,-0.253113,0.371582,0.803467,-0.390198
1470261493071084,-0.253113,0.371643,0.803467,-0.390198
1470261493094082,-0.253113,0.371643,0.803406,-0.390198
1470261493109094,-0.253113,0.371704,0.803406,-0.390198
1470261493131115,-0.253052,0.371704,0.803406,-0.390259
1470261493145628,-0.253052,0.371765,0.803406,-0.390259
1470261493176655,-0.253052,0.371765,0.803406,-0.390259
1470261493191170,-0.253052,0.371826,0.803345,-0.390259
1470261493205681,-0.253052,0.371826,0.803345,-0.390259
1470261493228722,-0.252991,0.371826,0.803345,-0.390259
1470261493251222,-0.252991,0.371887,0.803345,-0.390259
1470261493265737,-0.252991,0.371887,0.803345,-0.390259
1470261493296262,-0.252991,0.371887,0.803345,-0.39032
1470261493311278,-0.252991,0.371948,0.803345,-0.39032
1470261493332298,-0.25293,0.371948,0.803284,-0.39032
1470261493348812,-0.25293,0.371948,0.803284,-0.39032
1470261493371350,-0.25293,0.372009,0.803284,-0.39032
1470261493392365,-0.25293,0.372009,0.803284,-0.39032
1470261493408865,-0.25293,0.372009,0.803284,-0.39032
1470261493431386,-0.252869,0.37207,0.803284,-0.390381
1470261493452431,-0.252869,0.37207,0.803223,-0.390381
1470261493468923,-0.252869,0.37207,0.803223,-0.390381
1470261493491939,-0.252869,0.372131,0.803223,-0.390381
1470261493512508,-0.252869,0.372131,0.803223,-0.390381
1470261493528972,-0.252808,0.372192,0.803223,-0.390381
1470261493551497,-0.252808,0.372192,0.803162,-0.390381
1470261493572526,-0.252808,0.372253,0.803162,-0.390381
1470261493588527,-0.252808,0.37262,0.80304,-0.39032
1470261493618589,-0.252808,0.37262,0.80304,-0.390381
1470261493632570,-0.252747,0.372925,0.802917,-0.39032
1470261493649082,-0.252747,0.372986,0.802917,-0.39032
1470261493671600,-0.252747,0.372986,0.802856,-0.39032
1470261493692619,-0.252686,0.373047,0.802856,-0.39032
1470261493708633,-0.252686,0.373047,0.802856,-0.39032
1470261493731655,-0.252686,0.373108,0.802795,-0.39032
1470261493760180,-0.252686,0.373169,0.802795,-0.390381
1470261493769188,-0.252686,0.373169,0.802795,-0.390381
1470261493791207,-0.252686,0.373169,0.802795,-0.390381
1470261493813727,-0.252625,0.37323,0.802795,-0.390381
1470261493828741,-0.252625,0.37323,0.802734,-0.390381
1470261493851262,-0.252625,0.373291,0.802734,-0.390381
1470261493873782,-0.252625,0.373352,0.802734,-0.390381
1470261493888295,-0.252563,0.373352,0.802734,-0.390442
1470261493911320,-0.252563,0.373413,0.802673,-0.390442
1470261493934339,-0.252563,0.373413,0.802673,-0.390442
1470261493948348,-0.252563,0.373413,0.802673,-0.390442
1470261493971369,-0.252563,0.373474,0.802673,-0.390442
1470261493993891,-0.252502,0.373474,0.802673,-0.390442
1470261494007901,-0.252502,0.373535,0.802612,-0.390442
1470261494031423,-0.252502,0.373535,0.802612,-0.390503
1470261494053943,-0.252502,0.373596,0.802612,-0.390503
1470261494067957,-0.252502,0.374084,0.802429,-0.39032
1470261494091479,-0.252441,0.374573,0.802307,-0.390198
1470261494113997,-0.252258,0.375122,0.802185,-0.390076
1470261494128510,-0.252075,0.375793,0.802063,-0.389832
1470261494151532,-0.25177,0.376282,0.802002,-0.389587
1470261494174051,-0.251526,0.376892,0.80188,-0.389343
1470261494188063,-0.251343,0.377563,0.801758,-0.389099
1470261494217611,-0.251099,0.378052,0.801697,-0.388916
1470261494234105,-0.250854,0.378418,0.801636,-0.388794
1470261494256624,-0.250671,0.378662,0.801636,-0.388672
1470261494271183,-0.25061,0.379028,0.801575,-0.38855
1470261494293658,-0.250549,0.379333,0.801514,-0.388489
1470261494315178,-0.250488,0.379333,0.801514,-0.388489
1470261494331192,-0.250488,0.379395,0.801514,-0.388489
1470261494353712,-0.250488,0.379578,0.801453,-0.388428
1470261494382740,-0.250549,0.379883,0.80127,-0.388428
1470261494399756,-0.250549,0.379883,0.80127,-0.388428
1470261494413767,-0.250488,0.379944,0.80127,-0.388428
1470261494434786,-0.250488,0.379944,0.801208,-0.388428
1470261494451301,-0.250488,0.379944,0.801208,-0.388428
1470261494473859,-0.250488,0.380005,0.801208,-0.388428
1470261494495366,-0.250427,0.380005,0.801208,-0.388489
1470261494511354,-0.250427,0.380066,0.801208,-0.388489
1470261494533877,-0.250427,0.380066,0.801147,-0.388489
1470261494554895,-0.250427,0.380127,0.801147,-0.388489
1470261494571407,-0.250427,0.380127,0.801147,-0.388489
1470261494593928,-0.250366,0.380188,0.801147,-0.388489
1470261494614981,-0.250366,0.380188,0.801086,-0.388489
1470261494631462,-0.250366,0.380188,0.801086,-0.388489
1470261494653982,-0.250366,0.380249,0.801086,-0.38855
1470261494675001,-0.250366,0.380249,0.801086,-0.38855
1470261494691516,-0.250366,0.38031,0.801086,-0.38855
1470261494714038,-0.250366,0.38031,0.801025,-0.38855
1470261494736556,-0.250366,0.380371,0.801025,-0.38855
1470261494751570,-0.250305,0.380432,0.801025,-0.38855
1470261494774090,-0.250305,0.380432,0.800964,-0.38855
1470261494796610,-0.250305,0.380493,0.800964,-0.38855
1470261494811623,-0.250305,0.380493,0.800964,-0.38855
1470261494834145,-0.250305,0.380554,0.800964,-0.38855
1470261494856665,-0.250305,0.380554,0.800964,-0.38855
1470261494870677,-0.250305,0.380554,0.800903,-0.388611
1470261494893697,-0.250305,0.380615,0.800903,-0.388611
1470261494916719,-0.250244,0.380615,0.800903,-0.388611
1470261494930732,-0.250244,0.380676,0.800903,-0.388611
1470261494953751,-0.250244,0.380676,0.800842,-0.388611
1470261494976271,-0.250244,0.380737,0.800842,-0.388611
1470261494990785,-0.250244,0.380737,0.800842,-0.388611
1470261495013805,-0.250244,0.380798,0.800842,-0.388611
1470261495043832,-0.250244,0.380798,0.800842,-0.388611
1470261495051339,-0.250183,0.380798,0.800781,-0.388672
1470261495073860,-0.250183,0.380859,0.800781,-0.388672
1470261495096380,-0.250183,0.380859,0.800781,-0.388672
1470261495110893,-0.250183,0.380859,0.800781,-0.388672
1470261495133920,-0.250183,0.38092,0.800781,-0.388672
1470261495156434,-0.250122,0.38092,0.800781,-0.388672
1470261495177504,-0.250122,0.38092,0.80072,-0.388672
1470261495193967,-0.250122,0.380981,0.80072,-0.388672
1470261495216489,-0.250122,0.380981,0.80072,-0.388672
1470261495237505,-0.250122,0.380981,0.80072,-0.388733
1470261495254021,-0.250122,0.381042,0.80072,-0.388733
1470261495276542,-0.250061,0.380981,0.80072,-0.388794
1470261495297616,-0.250061,0.380981,0.80072,-0.388794
1470261495314076,-0.250061,0.380981,0.80072,-0.388794
1470261495336594,-0.250061,0.380981,0.80072,-0.388794
1470261495357614,-0.25,0.381042,0.80072,-0.388794
1470261495374128,-0.25,0.381042,0.80072,-0.388794
1470261495396150,-0.25,0.381042,0.800659,-0.388794
1470261495417670,-0.25,0.381104,0.800659,-0.388794
1470261495434183,-0.25,0.381104,0.800659,-0.388794
1470261495456203,-0.25,0.381165,0.800659,-0.388794
1470261495477221,-0.249939,0.381165,0.800659,-0.388855
1470261495493736,-0.249939,0.381165,0.800659,-0.388855
1470261495517259,-0.249939,0.381165,0.800659,-0.388855
1470261495537775,-0.249939,0.381165,0.800598,-0.388855
1470261495553790,-0.249939,0.381226,0.800598,-0.388855
1470261495576310,-0.249878,0.381226,0.800598,-0.388855
1470261495597343,-0.249878,0.381226,0.800598,-0.388855
1470261495613844,-0.249878,0.381287,0.800598,-0.388855
1470261495636364,-0.249878,0.381287,0.800598,-0.388855
1470261495658885,-0.249878,0.381348,0.800537,-0.388916
1470261495673900,-0.249878,0.381348,0.800537,-0.388916
1470261495696417,-0.249878,0.381348,0.800537,-0.388916
1470261495718938,-0.249878,0.381409,0.800537,-0.388916
1470261495734455,-0.249817,0.381409,0.800537,-0.388916
1470261495756473,-0.249817,0.381409,0.800537,-0.388916
1470261495784998,-0.249817,0.381409,0.800476,-0.388916
1470261495794506,-0.249817,0.38147,0.800476,-0.388916
1470261495816530,-0.249817,0.38147,0.800476,-0.388916
1470261495839046,-0.249817,0.381531,0.800476,-0.388916
1470261495853058,-0.249817,0.381531,0.800476,-0.388916
1470261495876598,-0.249817,0.381592,0.800415,-0.388916
1470261495899100,-0.249817,0.381592,0.800415,-0.388916
1470261495913112,-0.249756,0.381592,0.800415,-0.388977
1470261495936634,-0.249756,0.381592,0.800415,-0.388977
1470261495959153,-0.249756,0.381592,0.800415,-0.388977
1470261495973166,-0.249756,0.381653,0.800415,-0.388977
1470261495996187,-0.249756,0.381653,0.800415,-0.388977
1470261496018723,-0.249756,0.381653,0.800354,-0.388977
1470261496033723,-0.249756,0.381714,0.800354,-0.388977
1470261496056253,-0.249756,0.381714,0.800354,-0.388977
1470261496078761,-0.249756,0.381714,0.800354,-0.388977
1470261496093274,-0.249756,0.381714,0.800354,-0.388977
1470261496116797,-0.249756,0.381775,0.800354,-0.388977
1470261496138817,-0.249756,0.381775,0.800354,-0.388977
1470261496159848,-0.249756,0.381775,0.800354,-0.388977
1470261496176373,-0.249756,0.381775,0.800354,-0.388977
1470261496199372,-0.249756,0.381836,0.800293,-0.388977
1470261496227904,-0.249756,0.381836,0.800293,-0.388977
1470261496236404,-0.249756,0.381836,0.800293,-0.388977
1470261496266431,-0.249756,0.381836,0.800293,-0.388977
1470261496279983,-0.249756,0.381836,0.800293,-0.388977
1470261496296457,-0.249756,0.381897,0.800293,-0.388977
1470261496318977,-0.249756,0.381897,0.800293,-0.388977
1470261496347503,-0.249756,0.381958,0.800232,-0.388977
1470261496356512,-0.249756,0.381958,0.800232,-0.388977
1470261496379035,-0.249756,0.381958,0.800232,-0.388977
1470261496400055,-0.249756,0.381958,0.800232,-0.388977
1470261496422586,-0.249756,0.382019,0.800232,-0.388977
1470261496439084,-0.249756,0.382019,0.800232,-0.388977
1470261496460103,-0.249756,0.382019,0.800232,-0.388977
1470261496476623,-0.249695,0.381775,0.800293,-0.389038
1470261496499140,-0.249695,0.381287,0.800476,-0.38916
1470261496520157,-0.250183,0.380798,0.800537,-0.389221
1470261496536227,-0.251221,0.38031,0.800537,-0.389099
1470261496558697,-0.253296,0.380188,0.800049,-0.388855
1470261496579710,-0.25708,0.380127,0.798584,-0.389404
1470261496595728,-0.262085,0.378723,0.79718,-0.390259
1470261496618749,-0.267151,0.374939,0.796875,-0.391113
1470261496641268,-0.271545,0.369019,0.797668,-0.392273
1470261496646772,-0.276428,0.363586,0.798157,-0.392883
1470261496663288,-0.281067,0.360596,0.797546,-0.393494
1470261496684310,-0.282776,0.358948,0.797302,-0.394348
1470261496706827,-0.278687,0.357483,0.798706,-0.39563
1470261496723342,-0.268311,0.355652,0.801819,-0.398193
1470261496751867,-0.253479,0.356384,0.805481,-0.399963
1470261496766881,-0.233643,0.364258,0.807983,-0.39978
1470261496783396,-0.205566,0.374512,0.811401,-0.398926
1470261496804413,-0.169434,0.385559,0.815735,-0.396484
1470261496826932,-0.128296,0.397156,0.819946,-0.391785
1470261496843448,-0.0861206,0.408813,0.822998,-0.384766
1470261496864466,-0.0450439,0.41864,0.825012,-0.376953
1470261496886986,-0.00769043,0.424927,0.825928,-0.3703
1470261496905003,0.0234985,0.42749,0.826355,-0.365723
1470261496924520,0.0476685,0.427673,0.826172,-0.363708
1470261496947040,0.0646362,0.425964,0.826355,-0.362549
1470261496963055,0.0775757,0.419617,0.828735,-0.362
1470261496984575,0.0878906,0.405884,0.834167,-0.362854
1470261497007095,0.0935669,0.390442,0.840515,-0.363647
1470261497029130,0.0942383,0.378235,0.846069,-0.363525
1470261497044128,0.0906372,0.368713,0.850891,-0.362976
1470261497067149,0.0837402,0.361633,0.85498,-0.362183
1470261497083166,0.0743408,0.356689,0.858337,-0.361206
1470261497104182,0.0632935,0.354431,0.860779,-0.35968
1470261497126702,0.0518188,0.355103,0.862305,-0.357239
1470261497144718,0.0406494,0.357849,0.863037,-0.354187
1470261497164237,0.0299072,0.361572,0.863342,-0.350647
1470261497186757,0.0193481,0.366089,0.863159,-0.347107
1470261497203270,0.00878906,0.371887,0.862183,-0.343811
1470261497224306,-0.00201416,0.378174,0.860474,-0.341309
1470261497246809,-0.0130005,0.384216,0.858459,-0.339478
1470261497263325,-0.024231,0.389709,0.856079,-0.338501
1470261497284348,-0.0367432,0.394897,0.853394,-0.338196
1470261497309866,-0.050354,0.398315,0.851135,-0.338135
1470261497323378,-0.0634766,0.400024,0.849243,-0.338562
1470261497344397,-0.0759277,0.401428,0.846924,-0.340332
1470261497366920,-0.0888062,0.4021,0.844238,-0.342957
1470261497389438,-0.102783,0.401733,0.841553,-0.346191
1470261497404451,-0.116882,0.401245,0.838318,-0.349976
1470261497426971,-0.131348,0.401794,0.83429,-0.353821
1470261497452495,-0.146118,0.401855,0.830261,-0.357422
1470261497464504,-0.159973,0.399353,0.827087,-0.361633
1470261497487026,-0.173767,0.396729,0.823547,-0.366211
1470261497505042,-0.187866,0.396057,0.818848,-0.370544
1470261497524558,-0.201172,0.395325,0.814331,-0.374329
1470261497548080,-0.211853,0.392761,0.811035,-0.378235
1470261497564597,-0.221252,0.390076,0.807983,-0.382019
1470261497587118,-0.230347,0.388794,0.804749,-0.384888
1470261497606665,-0.23877,0.388245,0.801514,-0.387024
1470261497624687,-0.24585,0.388123,0.798645,-0.388733
1470261497644199,-0.252014,0.38916,0.795776,-0.389526
1470261497667189,-0.256531,0.390503,0.793213,-0.390442
1470261497684707,-0.259521,0.390198,0.791809,-0.391663
1470261497704220,-0.262329,0.389648,0.790894,-0.392212
1470261497734752,-0.265503,0.390198,0.789673,-0.392029
1470261497744771,-0.268555,0.391235,0.788208,-0.391724
1470261497764275,-0.270508,0.390747,0.787659,-0.392029
1470261497786795,-0.271484,0.388916,0.787842,-0.392883
1470261497804811,-0.272888,0.387024,0.787659,-0.394043
1470261497824328,-0.274902,0.385254,0.787109,-0.395508
1470261497846849,-0.276123,0.38269,0.786377,-0.398621
1470261497872373,-0.275696,0.375793,0.786072,-0.405945
1470261497884384,-0.277527,0.364014,0.784546,-0.418274
1470261497906903,-0.285706,0.346375,0.779785,-0.436279
1470261497924919,-0.302002,0.325439,0.768555,-0.460632
1470261497944437,-0.325745,0.303345,0.750122,-0.489075
1470261497966959,-0.353638,0.278442,0.726929,-0.518616
1470261497984973,-0.381287,0.250671,0.701294,-0.547668
1470261498014999,-0.408447,0.221558,0.673157,-0.575317
1470261498027010,-0.436096,0.193726,0.642395,-0.599731
1470261498045026,-0.465088,0.169067,0.610229,-0.618713
1470261498064543,-0.49353,0.148193,0.579834,-0.631042
1470261498087064,-0.518738,0.131165,0.553955,-0.637878
1470261498104581,-0.539001,0.115662,0.532776,-0.64209
1470261498124097,-0.554749,0.100891,0.516052,-0.644775
1470261498146617,-0.568909,0.0881348,0.503479,-0.644287
1470261498164634,-0.582336,0.0778198,0.496216,-0.639282
1470261498185653,-0.593018,0.0726318,0.491638,-0.633606
1470261498206672,-0.598511,0.069519,0.489136,-0.630676
1470261498224689,-0.601501,0.0679932,0.488708,-0.628296
1470261498245707,-0.603149,0.0689697,0.489197,-0.626221
1470261498266729,-0.60199,0.0713501,0.490784,-0.625854
1470261498284745,-0.599182,0.0751953,0.49353,-0.625916
1470261498305761,-0.596741,0.0809326,0.496887,-0.624878
1470261498326779,-0.593567,0.0864258,0.50116,-0.623779
1470261498344797,-0.589172,0.0910645,0.506226,-0.62323
1470261498365819,-0.584412,0.0955811,0.51178,-0.622437
1470261498386834,-0.5802,0.100525,0.51709,-0.621216
1470261498404850,-0.576355,0.105591,0.522339,-0.619629
1470261498425869,-0.57251,0.110168,0.527588,-0.617859
1470261498446888,-0.568909,0.114502,0.532532,-0.61615
1470261498464904,-0.565308,0.11853,0.536865,-0.614929
1470261498487424,-0.561646,0.121948,0.540344,-0.614624
1470261498506942,-0.558105,0.124634,0.542908,-0.61499
1470261498524957,-0.555664,0.12677,0.544495,-0.615417
1470261498547478,-0.554565,0.128357,0.545105,-0.61554
1470261498566997,-0.55426,0.129028,0.545166,-0.615601
1470261498585013,-0.554077,0.128601,0.544678,-0.616272
1470261498607032,-0.55426,0.127197,0.543884,-0.617126
1470261498627049,-0.554749,0.125,0.542847,-0.617981
1470261498644565,-0.556152,0.122742,0.54187,-0.618103
1470261498667587,-0.558289,0.119385,0.541138,-0.617493
1470261498687103,-0.561523,0.115417,0.540588,-0.615784
1470261498704632,-0.565063,0.110779,0.540466,-0.613464
1470261498727139,-0.567871,0.105835,0.540833,-0.611389
1470261498746656,-0.57074,0.100708,0.541748,-0.608826
1470261498764673,-0.573975,0.0957642,0.543152,-0.605286
1470261498787193,-0.578186,0.0905762,0.545288,-0.600159
1470261498806710,-0.583191,0.0844116,0.548706,-0.593079
1470261498824727,-0.588074,0.0795288,0.551819,-0.585938
1470261498847748,-0.591125,0.0755615,0.554016,-0.581299
1470261498866765,-0.591187,0.0708618,0.556458,-0.579529
1470261498884783,-0.591309,0.067627,0.558289,-0.578064
1470261498907301,-0.59314,0.0668335,0.559204,-0.575439
1470261498926835,-0.59552,0.067627,0.559326,-0.572693
1470261498944849,-0.596863,0.0682373,0.559448,-0.571106
1470261498974861,-0.59729,0.0686035,0.559753,-0.570251
1470261498986873,-0.597534,0.0689697,0.560181,-0.569641
1470261499004889,-0.597595,0.0693359,0.560547,-0.569092
1470261499027409,-0.597534,0.0700684,0.560852,-0.568787
1470261499049932,-0.597412,0.0712891,0.561035,-0.568604
1470261499064947,-0.596924,0.0726929,0.56134,-0.568665
1470261499087462,-0.596375,0.074585,0.561707,-0.568542
1470261499108481,-0.595703,0.0771484,0.562134,-0.568481
1470261499124995,-0.594788,0.079895,0.562439,-0.568787
1470261499147516,-0.593567,0.0825195,0.562866,-0.569336
1470261499167570,-0.592224,0.085144,0.563293,-0.569885
1470261499184085,-0.59082,0.0876465,0.563843,-0.570374
1470261499206602,-0.589844,0.0898438,0.564453,-0.570435
1470261499227634,-0.588989,0.0916748,0.565308,-0.570251
1470261499243635,-0.587646,0.0927124,0.566284,-0.570435
1470261499266660,-0.586487,0.0932007,0.567383,-0.570496
1470261499287675,-0.585815,0.0935059,0.568481,-0.570007
1470261499303689,-0.585693,0.0940552,0.569397,-0.569153
1470261499326709,-0.585632,0.0944824,0.570251,-0.568298
1470261499347728,-0.585388,0.0949707,0.570923,-0.567749
1470261499363756,-0.585205,0.0953979,0.571411,-0.567383
1470261499386763,-0.585022,0.0958862,0.571716,-0.5672
1470261499407783,-0.584839,0.0964355,0.57196,-0.567078
1470261499423797,-0.584778,0.0968628,0.572083,-0.566895
1470261499446317,-0.584717,0.0973511,0.572144,-0.566833
1470261499468838,-0.584656,0.0979004,0.572205,-0.566772
1470261499483854,-0.584534,0.0983887,0.572083,-0.566895
1470261499506372,-0.584534,0.0990601,0.572021,-0.566895
1470261499528892,-0.584473,0.100159,0.571899,-0.566833
1470261499543905,-0.584412,0.101685,0.571655,-0.566833
1470261499566928,-0.584351,0.10376,0.571289,-0.566956
1470261499588947,-0.584167,0.106689,0.570679,-0.5672
1470261499609965,-0.583435,0.110535,0.570007,-0.567871
1470261499626479,-0.582153,0.114807,0.569153,-0.569214
1470261499649000,-0.580322,0.119751,0.568054,-0.571167
1470261499670019,-0.578003,0.125916,0.566345,-0.573853
1470261499686533,-0.57428,0.13269,0.564453,-0.577942
1470261499709054,-0.569092,0.139893,0.563232,-0.58252
1470261499730072,-0.56311,0.1474,0.562988,-0.586731
1470261499746587,-0.557068,0.154968,0.563904,-0.589661
1470261499769107,-0.550659,0.163086,0.565369,-0.592102
1470261499790127,-0.542847,0.171021,0.567566,-0.59491
1470261499806641,-0.533386,0.178589,0.571289,-0.597717
1470261499836668,-0.52356,0.186768,0.576172,-0.599243
1470261499850181,-0.513794,0.195923,0.581787,-0.599365
1470261499866695,-0.50238,0.205017,0.588745,-0.599182
1470261499888715,-0.489502,0.213501,0.596924,-0.598694
1470261499910235,-0.47644,0.2229,0.605469,-0.597229
1470261499926749,-0.463318,0.233215,0.614319,-0.594604
1470261499955274,-0.449585,0.244019,0.623657,-0.591064
1470261499970287,-0.434814,0.254333,0.633911,-0.586853
1470261499986302,-0.419189,0.263855,0.645142,-0.581726
1470261500008822,-0.403687,0.273193,0.657104,-0.574951
1470261500037348,-0.388611,0.28241,0.669128,-0.567017
1470261500046357,-0.373108,0.290222,0.681458,-0.558716
1470261500069877,-0.358337,0.296936,0.693604,-0.549866
1470261500089895,-0.34552,0.302551,0.7052,-0.540161
1470261500106410,-0.334717,0.306946,0.716125,-0.530029
1470261500128930,-0.325195,0.310547,0.726379,-0.519775
1470261500149951,-0.316467,0.313354,0.735962,-0.509949
1470261500165964,-0.308838,0.316162,0.743896,-0.501221
1470261500196491,-0.303711,0.319702,0.749878,-0.493225
1470261500210004,-0.300598,0.322876,0.754944,-0.485229
1470261500225517,-0.299194,0.324402,0.759766,-0.477478
1470261500249040,-0.299316,0.325623,0.763916,-0.469849
1470261500270057,-0.300537,0.327209,0.767273,-0.462463
1470261500285572,-0.30011,0.327026,0.770691,-0.457153
1470261500309091,-0.298462,0.326111,0.773621,-0.453918
1470261500330112,-0.298035,0.325317,0.775696,-0.451294
1470261500345625,-0.300537,0.326294,0.776245,-0.447937
1470261500369147,-0.304871,0.328186,0.776062,-0.44397
1470261500391666,-0.308533,0.328247,0.776367,-0.440796
1470261500405679,-0.310852,0.326965,0.777222,-0.438538
1470261500429199,-0.307373,0.328491,0.776978,-0.440369
1470261500451721,-0.300537,0.323486,0.779053,-0.445129
1470261500465737,-0.298706,0.322327,0.779785,-0.445801
1470261500489254,-0.301575,0.327026,0.777405,-0.444641
1470261500511774,-0.30249,0.329224,0.776489,-0.44397
1470261500532794,-0.300842,0.32843,0.777466,-0.44397
1470261500549310,-0.299622,0.328125,0.778259,-0.443604
1470261500571328,-0.299316,0.329041,0.778381,-0.442932
1470261500593848,-0.299255,0.329956,0.778381,-0.442383
1470261500608862,-0.299377,0.331116,0.778259,-0.44165
1470261500631382,-0.299377,0.332214,0.778198,-0.440918
1470261500645894,-0.299316,0.333313,0.778259,-0.440063
1470261500668920,-0.298706,0.333984,0.778748,-0.439087
1470261500691435,-0.297791,0.33429,0.779541,-0.437988
1470261500705948,-0.296753,0.334839,0.780518,-0.436523
1470261500728971,-0.295776,0.335815,0.781433,-0.434814
1470261500751492,-0.294678,0.337097,0.78241,-0.4328
1470261500766004,-0.293213,0.338013,0.783813,-0.430603
1470261500789023,-0.291443,0.338501,0.785645,-0.427979
1470261500811543,-0.289246,0.338806,0.787659,-0.425598
1470261500832567,-0.286682,0.338928,0.789917,-0.423035
1470261500849578,-0.284729,0.339783,0.791626,-0.42041
1470261500877604,-0.282776,0.340515,0.793396,-0.417786
1470261500892618,-0.281189,0.341614,0.794678,-0.415588
1470261500916640,-0.279236,0.342468,0.795959,-0.413696
1470261500931652,-0.277222,0.343018,0.797485,-0.411621
1470261500952670,-0.275208,0.343994,0.798828,-0.409607
1470261500976692,-0.273682,0.34491,0.799622,-0.408386
1470261500991705,-0.272339,0.344238,0.800476,-0.408142
1470261501012724,-0.270752,0.342468,0.801697,-0.408264
1470261501029240,-0.268921,0.340576,0.80304,-0.408325
1470261501051759,-0.267578,0.340027,0.804016,-0.407837
1470261501072778,-0.266235,0.339844,0.804749,-0.40741
1470261501089292,-0.265137,0.340149,0.805115,-0.407166
1470261501111312,-0.264648,0.341003,0.805115,-0.406677
1470261501140339,-0.264282,0.341919,0.805237,-0.406067
1470261501149349,-0.263489,0.342163,0.805542,-0.40564
1470261501171367,-0.262512,0.342163,0.80603,-0.405273
1470261501192399,-0.262085,0.34259,0.806213,-0.404907
1470261501208900,-0.261902,0.342896,0.806213,-0.404724
1470261501231420,-0.26178,0.343018,0.806274,-0.404602
1470261501252451,-0.261536,0.343079,0.806519,-0.404297
1470261501268954,-0.261353,0.343262,0.806641,-0.403931
1470261501291473,-0.261536,0.343689,0.806641,-0.403442
1470261501312497,-0.26239,0.344421,0.806396,-0.402771
1470261501342578,-0.263977,0.345154,0.805969,-0.401917
1470261501351529,-0.265625,0.345825,0.805603,-0.401062
1470261501374048,-0.266052,0.345642,0.805481,-0.401123
1470261501389062,-0.26532,0.344788,0.805969,-0.401428
1470261501411581,-0.264709,0.34436,0.806274,-0.401489
1470261501434105,-0.264526,0.344482,0.806335,-0.401367
1470261501449116,-0.264282,0.344543,0.806396,-0.401306
1470261501471635,-0.264038,0.344055,0.806702,-0.401367
1470261501494156,-0.263977,0.343933,0.806824,-0.401306
1470261501508672,-0.264221,0.344238,0.806763,-0.401001
1470261501531190,-0.264282,0.344482,0.806885,-0.400513
1470261501554209,-0.263672,0.344177,0.807251,-0.400452
1470261501568225,-0.262756,0.343872,0.807617,-0.400635
1470261501591743,-0.26178,0.343628,0.807983,-0.400696
1470261501614265,-0.261047,0.343567,0.808228,-0.400696
1470261501628276,-0.260559,0.343628,0.808411,-0.400635
1470261501651800,-0.260071,0.343567,0.808594,-0.400513
1470261501673845,-0.259644,0.34375,0.808777,-0.400269
1470261501688330,-0.259399,0.343933,0.80896,-0.399963
1470261501711354,-0.259033,0.344055,0.809143,-0.399658
1470261501734372,-0.258545,0.34436,0.809387,-0.399292
1470261501748385,-0.257874,0.344666,0.809631,-0.398987
1470261501771440,-0.257141,0.345154,0.809875,-0.398499
1470261501793925,-0.25647,0.345764,0.81012,-0.397949
1470261501808438,-0.255859,0.346375,0.810303,-0.397461
1470261501833464,-0.255005,0.346924,0.810486,-0.397095
1470261501862514,-0.254333,0.347656,0.810608,-0.396667
1470261501875015,-0.253845,0.348389,0.810608,-0.396301
1470261501899021,-0.253235,0.348938,0.81073,-0.395935
1470261501914033,-0.252686,0.349487,0.810913,-0.395508
1470261501935051,-0.252197,0.349915,0.811096,-0.39502
1470261501951567,-0.25177,0.350342,0.81134,-0.39447
1470261501974087,-0.251404,0.350952,0.811462,-0.39386
1470261501995138,-0.25116,0.351685,0.811462,-0.393372
1470261502011621,-0.250732,0.351929,0.811646,-0.393005
1470261502034143,-0.250366,0.352295,0.811768,-0.392639
1470261502055175,-0.250122,0.352844,0.811829,-0.392273
1470261502071677,-0.249878,0.353271,0.811829,-0.391968
1470261502094196,-0.249634,0.353699,0.81189,-0.391663
1470261502115222,-0.249451,0.354187,0.811829,-0.391418
1470261502131728,-0.24939,0.354736,0.811829,-0.391052
1470261502154249,-0.249207,0.355225,0.811829,-0.390686
1470261502175272,-0.249084,0.355652,0.81189,-0.390259
1470261502191783,-0.248901,0.356018,0.811951,-0.389954
1470261502213835,-0.248718,0.356201,0.812073,-0.389526
1470261502235326,-0.248657,0.356384,0.812195,-0.389221
1470261502251339,-0.248657,0.356689,0.812195,-0.388977
1470261502273856,-0.248657,0.356689,0.812195,-0.388977
1470261502296376,-0.248657,0.356689,0.812195,-0.388977
1470261502311392,-0.248657,0.356689,0.812195,-0.388977
1470261502334412,-0.248291,0.356567,0.812439,-0.388733
1470261502356432,-0.247925,0.356628,0.812683,-0.388367
1470261502370943,-0.247681,0.356873,0.812927,-0.387878
1470261502393994,-0.247498,0.356995,0.81311,-0.387512
1470261502416486,-0.247131,0.357056,0.813232,-0.387268
1470261502431000,-0.246887,0.356934,0.813416,-0.387268
1470261502454520,-0.246704,0.356506,0.813599,-0.38739
1470261502476538,-0.246399,0.356018,0.813843,-0.387512
1470261502491051,-0.246216,0.355774,0.814087,-0.38739
1470261502514072,-0.246216,0.356018,0.814087,-0.387146
1470261502536592,-0.246277,0.356384,0.813965,-0.386963
1470261502552110,-0.246277,0.356628,0.813965,-0.38678
1470261502574125,-0.246277,0.356628,0.813965,-0.386719
1470261502596646,-0.246155,0.356567,0.814087,-0.386597
1470261502610677,-0.245972,0.356689,0.814209,-0.386353
1470261502634182,-0.24585,0.356995,0.814209,-0.386169
1470261502656700,-0.245789,0.357239,0.814209,-0.385986
1470261502670714,-0.245544,0.3573,0.814331,-0.385864
1470261502694234,-0.245178,0.3573,0.814514,-0.385742
1470261502716756,-0.244873,0.357422,0.814636,-0.385498
1470261502731266,-0.244629,0.357544,0.814758,-0.385376
1470261502753789,-0.244446,0.357666,0.814758,-0.385193
1470261502776307,-0.244446,0.357849,0.814758,-0.385071
1470261502797832,-0.244446,0.357849,0.814758,-0.385071
1470261502813841,-0.244507,0.35791,0.814758,-0.38501
1470261502836361,-0.244507,0.35791,0.814758,-0.38501
1470261502858381,-0.244507,0.35791,0.814758,-0.38501
1470261502873895,-0.244507,0.35791,0.814758,-0.38501
1470261502896415,-0.244507,0.35791,0.814758,-0.385071
1470261502917436,-0.244507,0.35791,0.814758,-0.38501
1470261502934452,-0.244629,0.358337,0.814575,-0.384949
1470261502956470,-0.244629,0.358337,0.814575,-0.384949
1470261502977502,-0.244507,0.358154,0.814697,-0.38501
1470261502994003,-0.244446,0.358154,0.814697,-0.38501
1470261503016525,-0.24469,0.358521,0.814453,-0.38501
1470261503037568,-0.244934,0.358948,0.814209,-0.38501
1470261503054059,-0.245361,0.359375,0.813965,-0.384827
1470261503076590,-0.245728,0.359985,0.813599,-0.384766
1470261503097611,-0.246216,0.360657,0.813232,-0.384583
1470261503114112,-0.246704,0.36145,0.812866,-0.384338
1470261503136633,-0.247131,0.362,0.812561,-0.384094
1470261503159151,-0.247375,0.362366,0.812439,-0.383972
1470261503174164,-0.247498,0.362671,0.812317,-0.38385
1470261503196689,-0.247498,0.362671,0.812317,-0.38385
1470261503217704,-0.247681,0.362732,0.812256,-0.383789
1470261503234223,-0.247986,0.363098,0.812012,-0.383728
1470261503256238,-0.248474,0.363586,0.811707,-0.383606
1470261503279261,-0.24884,0.363892,0.811523,-0.383484
1470261503293772,-0.24884,0.363953,0.811523,-0.383484
1470261503316794,-0.248901,0.363953,0.811523,-0.383484
1470261503338812,-0.248901,0.363953,0.811462,-0.383484
1470261503361334,-0.249023,0.364075,0.811401,-0.383362
1470261503376346,-0.249146,0.36438,0.811279,-0.383301
1470261503399369,-0.249268,0.364685,0.811157,-0.383179
1470261503413379,-0.24939,0.364929,0.811096,-0.383057
1470261503443908,-0.24939,0.36499,0.811035,-0.383057
1470261503458920,-0.24939,0.36499,0.811035,-0.383057
1470261503473433,-0.24939,0.36499,0.811035,-0.383057
1470261503496453,-0.24939,0.36499,0.811035,-0.383057
1470261503526481,-0.24939,0.36499,0.811035,-0.383057
1470261503533488,-0.249329,0.364746,0.811157,-0.383057
1470261503556508,-0.249207,0.364502,0.811279,-0.383118
1470261503579028,-0.249207,0.364502,0.811279,-0.383118
1470261503593541,-0.249207,0.364563,0.811279,-0.383118
1470261503616564,-0.249207,0.364563,0.811279,-0.383118
1470261503639083,-0.249207,0.364563,0.811279,-0.383118
1470261503653596,-0.249207,0.364563,0.811279,-0.383118
1470261503676616,-0.249207,0.364563,0.811279,-0.383118
1470261503699137,-0.249207,0.364563,0.811279,-0.383118
1470261503720155,-0.249207,0.364624,0.811279,-0.383118
1470261503736672,-0.249207,0.364624,0.811279,-0.383118
1470261503759689,-0.249207,0.364624,0.811279,-0.383118
1470261503780208,-0.249512,0.364929,0.811035,-0.383057
1470261503804230,-0.25,0.365234,0.810791,-0.382996
1470261503819244,-0.250366,0.365417,0.810608,-0.383057
1470261503840265,-0.25061,0.365662,0.810425,-0.382935
1470261503856778,-0.250854,0.36615,0.810181,-0.382874
1470261503879298,-0.250977,0.366577,0.809937,-0.382874
1470261503899815,-0.250977,0.366577,0.809937,-0.382874
1470261503916834,-0.250977,0.366638,0.809937,-0.382874
1470261503939351,-0.250977,0.366638,0.809937,-0.382874
1470261503967383,-0.250977,0.366638,0.809937,-0.382874
1470261503976385,-0.250793,0.366699,0.809937,-0.382874
1470261503999909,-0.250793,0.366699,0.809937,-0.382813
1470261504019925,-0.250671,0.366699,0.810059,-0.382751
1470261504036440,-0.250488,0.36676,0.81012,-0.382629
1470261504058958,-0.250488,0.36676,0.81012,-0.38269
1470261504079977,-0.250488,0.36676,0.81012,-0.38269
1470261504096492,-0.250488,0.36676,0.81012,-0.38269
1470261504119513,-0.250488,0.36676,0.81012,-0.38269
1470261504140032,-0.250488,0.36676,0.81012,-0.38269
1470261504156546,-0.250488,0.36676,0.81012,-0.38269
1470261504179067,-0.250427,0.366821,0.81012,-0.38269
1470261504207592,-0.250488,0.366821,0.810059,-0.38269
1470261504217103,-0.250488,0.366821,0.810059,-0.38269
1470261504239121,-0.250488,0.366882,0.810059,-0.38269
1470261504261641,-0.250488,0.366882,0.810059,-0.38269
1470261504276655,-0.250244,0.36676,0.810181,-0.38269
1470261504300180,-0.25,0.36676,0.810242,-0.38269
1470261504329201,-0.249756,0.366638,0.810364,-0.382751
1470261504335708,-0.249512,0.366394,0.810486,-0.382874
1470261504359230,-0.249146,0.366028,0.81073,-0.382935
1470261504389255,-0.248779,0.365662,0.810913,-0.383057
1470261504395762,-0.248535,0.365479,0.811096,-0.383118
1470261504403269,-0.248352,0.365356,0.811218,-0.383118
1470261504424288,-0.248169,0.365112,0.81134,-0.383057
1470261504446807,-0.248169,0.365112,0.811401,-0.383057
1470261504470829,-0.248169,0.365112,0.811401,-0.383057
1470261504484345,-0.248108,0.365112,0.811401,-0.383057
1470261504506863,-0.248108,0.365112,0.811401,-0.383057
1470261504523376,-0.248108,0.365112,0.811401,-0.383118
1470261504544395,-0.248108,0.365112,0.811401,-0.383118
1470261504566933,-0.248047,0.365112,0.811401,-0.383118
1470261504583932,-0.248169,0.365356,0.81134,-0.382996
1470261504604450,-0.248291,0.36554,0.811218,-0.382874
1470261504626985,-0.24823,0.36554,0.811218,-0.382874
1470261504643484,-0.24823,0.365601,0.811218,-0.382874
1470261504664504,-0.24823,0.365601,0.811218,-0.382874
1470261504687025,-0.248047,0.365479,0.81134,-0.382935
1470261504703539,-0.247986,0.365479,0.811279,-0.382935
1470261504724576,-0.247986,0.365479,0.811279,-0.382996
1470261504747077,-0.247986,0.365479,0.81134,-0.382996
1470261504763591,-0.247925,0.365479,0.811218,-0.383301
1470261504784627,-0.247803,0.365479,0.811096,-0.383484
1470261504807132,-0.24762,0.365417,0.811096,-0.383728
1470261504823147,-0.247559,0.365417,0.811096,-0.383728
1470261504844664,-0.247437,0.365356,0.811157,-0.383728
1470261504868687,-0.24707,0.365173,0.81134,-0.383789
1470261504884202,-0.246826,0.36499,0.811462,-0.38385
1470261504904719,-0.246826,0.365051,0.811462,-0.38385
1470261504926738,-0.246704,0.364929,0.811584,-0.383728
1470261504949761,-0.246521,0.364685,0.811768,-0.383667
1470261504966276,-0.246521,0.364685,0.811768,-0.383667
1470261504994818,-0.246521,0.364685,0.811768,-0.383667
1470261505003829,-0.246521,0.364685,0.811768,-0.383667
1470261505024344,-0.246521,0.364685,0.811768,-0.383667
1470261505046865,-0.246521,0.364746,0.811768,-0.383667
1470261505063380,-0.246521,0.364746,0.811768,-0.383667
1470261505084407,-0.24646,0.364746,0.811768,-0.383728
1470261505106919,-0.24646,0.364746,0.811768,-0.383728
1470261505124937,-0.24646,0.364746,0.811768,-0.383728
1470261505144453,-0.24646,0.364746,0.811768,-0.383728
1470261505166978,-0.246399,0.364746,0.811768,-0.383728
1470261505184991,-0.246399,0.364746,0.811768,-0.383728
1470261505204506,-0.246399,0.364746,0.811768,-0.383728
1470261505227026,-0.246216,0.364868,0.811768,-0.383667
1470261505245054,-0.246033,0.365051,0.811768,-0.383606
1470261505264561,-0.246033,0.365112,0.811768,-0.383606
1470261505287081,-0.246033,0.365112,0.811768,-0.383606
1470261505305097,-0.245972,0.365112,0.811768,-0.383606
1470261505324614,-0.245911,0.365417,0.811646,-0.383606
1470261505347144,-0.245728,0.365662,0.811646,-0.383606
1470261505364650,-0.245422,0.36554,0.811707,-0.383728
1470261505384670,-0.245422,0.36554,0.811707,-0.383728
1470261505406687,-0.245361,0.36554,0.811707,-0.383728
1470261505424704,-0.245178,0.365417,0.811768,-0.383911
1470261505444721,-0.244934,0.365295,0.811829,-0.384094
1470261505469744,-0.244934,0.365295,0.811829,-0.384094
1470261505484761,-0.244934,0.365295,0.811829,-0.384094
1470261505504776,-0.244934,0.365295,0.811829,-0.384094
1470261505526819,-0.244873,0.365295,0.811768,-0.384094
1470261505552319,-0.24469,0.365234,0.811829,-0.384277
1470261505564329,-0.244385,0.36499,0.81189,-0.384521
1470261505586850,-0.244324,0.36499,0.81189,-0.384521
1470261505604866,-0.244385,0.36499,0.81189,-0.384521
1470261505624384,-0.244324,0.36499,0.81189,-0.384521
1470261505646904,-0.244324,0.36499,0.81189,-0.384521
1470261505664922,-0.244324,0.36499,0.81189,-0.384521
1470261505684448,-0.244324,0.36499,0.81189,-0.384521
1470261505714490,-0.244263,0.365051,0.81189,-0.384583
1470261505724987,-0.244263,0.365051,0.81189,-0.384583
1470261505745994,-0.244263,0.365051,0.81189,-0.384583
1470261505767014,-0.243896,0.36499,0.811951,-0.384705
1470261505785531,-0.243896,0.36499,0.811951,-0.384705
1470261505806047,-0.243896,0.36499,0.811951,-0.384705
1470261505827065,-0.24353,0.365051,0.811951,-0.384827
1470261505845087,-0.243103,0.365051,0.812012,-0.385071
1470261505867604,-0.242737,0.365051,0.811951,-0.385315
1470261505887119,-0.242432,0.36499,0.811951,-0.38562
1470261505905139,-0.242126,0.364746,0.812073,-0.385864
1470261505925654,-0.241638,0.36438,0.812256,-0.386047
1470261505947175,-0.24115,0.364014,0.8125,-0.386292
1470261505964689,-0.241089,0.364014,0.8125,-0.386292
1470261505993215,-0.241089,0.364014,0.812439,-0.386292
1470261506006730,-0.240845,0.363892,0.812439,-0.386597
1470261506024743,-0.240784,0.363708,0.812439,-0.386841
1470261506045763,-0.240723,0.363586,0.812378,-0.387146
1470261506067282,-0.240601,0.363281,0.812378,-0.387512
1470261506084800,-0.24054,0.362976,0.812378,-0.387756
1470261506107317,-0.240662,0.362976,0.812256,-0.388
1470261506126836,-0.240723,0.362854,0.812195,-0.388184
1470261506144850,-0.240723,0.362732,0.812195,-0.388367
1470261506167874,-0.240723,0.362732,0.812195,-0.388367
1470261506186888,-0.240723,0.362732,0.812195,-0.388367
1470261506204907,-0.240723,0.362732,0.812134,-0.388367
1470261506227435,-0.240662,0.362732,0.812134,-0.388367
1470261506254450,-0.240662,0.362732,0.812134,-0.388428
1470261506264959,-0.240662,0.362732,0.812134,-0.388428
1470261506287479,-0.240662,0.362732,0.812134,-0.388428
1470261506306996,-0.240601,0.362732,0.812134,-0.388428
1470261506325045,-0.240601,0.362732,0.812134,-0.388428
1470261506347534,-0.24054,0.362732,0.812195,-0.388428
1470261506367052,-0.24054,0.362732,0.812134,-0.388489
1470261506385069,-0.24054,0.362793,0.812134,-0.388489
1470261506407586,-0.240417,0.362549,0.812195,-0.388672
1470261506428605,-0.240234,0.362366,0.812195,-0.388916
1470261506445120,-0.23999,0.362061,0.812256,-0.389221
1470261506467643,-0.239502,0.361511,0.812378,-0.389771
1470261506487173,-0.239197,0.361023,0.8125,-0.390259
1470261506504675,-0.239075,0.360596,0.8125,-0.390686
1470261506527194,-0.239075,0.360168,0.812439,-0.391113
1470261506547213,-0.239319,0.359924,0.812378,-0.391357
1470261506564728,-0.239563,0.359863,0.812256,-0.391541
1470261506587248,-0.239746,0.359619,0.812256,-0.391663
1470261506617778,-0.239929,0.359497,0.812256,-0.391663
1470261506624784,-0.239929,0.359497,0.812256,-0.391663
1470261506647331,-0.239929,0.359497,0.812256,-0.391663
1470261506667320,-0.239929,0.359497,0.812256,-0.391663
1470261506684840,-0.239807,0.359802,0.812195,-0.391541
1470261506707357,-0.239624,0.359924,0.812256,-0.391418
1470261506728376,-0.239441,0.360168,0.812317,-0.391235
1470261506744965,-0.239319,0.360352,0.812317,-0.391113
1470261506767413,-0.239258,0.360474,0.812317,-0.391052
1470261506788430,-0.239197,0.360474,0.812317,-0.391052
1470261506804972,-0.239319,0.360535,0.812195,-0.391296
1470261506827591,-0.239563,0.360474,0.811951,-0.391602
1470261506854490,-0.239868,0.360352,0.811707,-0.392029
1470261506865000,-0.240234,0.360229,0.811523,-0.392334
1470261506887517,-0.240723,0.360107,0.81134,-0.392517
1470261506908540,-0.241028,0.359863,0.81134,-0.392639
1470261506924050,-0.241089,0.359558,0.811401,-0.392639
1470261506946570,-0.241089,0.359375,0.811584,-0.392517
1470261506969092,-0.241028,0.359436,0.811584,-0.392517
1470261506983606,-0.24115,0.359497,0.811584,-0.392334
1470261507006625,-0.241272,0.359741,0.811584,-0.392029
1470261507029144,-0.241455,0.360107,0.811523,-0.391724
1470261507044158,-0.241638,0.360535,0.811401,-0.391418
1470261507066678,-0.241638,0.360718,0.811462,-0.391174
1470261507089199,-0.241577,0.360718,0.811523,-0.391052
1470261507103711,-0.241516,0.360718,0.811584,-0.390869
1470261507126732,-0.241577,0.360779,0.811646,-0.390686
1470261507149754,-0.241638,0.361023,0.811646,-0.390503
1470261507163265,-0.24176,0.361328,0.811584,-0.390198
1470261507186786,-0.241882,0.361572,0.811523,-0.390076
1470261507216816,-0.241882,0.361572,0.811523,-0.390076
1470261507223319,-0.241882,0.361572,0.811523,-0.390076
1470261507246840,-0.241882,0.361572,0.811523,-0.390076
1470261507268860,-0.241821,0.361572,0.811523,-0.390076
1470261507283375,-0.241821,0.361572,0.811523,-0.390076
1470261507306394,-0.241821,0.361572,0.811523,-0.390076
1470261507328914,-0.241821,0.361572,0.811523,-0.390137
1470261507343427,-0.241882,0.361816,0.811401,-0.390137
1470261507366951,-0.242004,0.361938,0.81134,-0.390076
1470261507388969,-0.242004,0.361938,0.81134,-0.390076
1470261507403482,-0.242004,0.361938,0.81134,-0.390076
1470261507426502,-0.242126,0.362122,0.811279,-0.389893
1470261507449022,-0.242188,0.362427,0.811218,-0.389648
1470261507463535,-0.242249,0.362915,0.811157,-0.389343
1470261507486556,-0.242249,0.363525,0.811096,-0.388916
1470261507509076,-0.24231,0.364197,0.810974,-0.388489
1470261507530094,-0.24231,0.365173,0.810791,-0.387878
1470261507546609,-0.242371,0.366333,0.810547,-0.38739
1470261507569130,-0.242493,0.367432,0.81012,-0.387024
1470261507590150,-0.242615,0.367859,0.809875,-0.387146
1470261507606664,-0.242737,0.367554,0.809692,-0.387756
1470261507629184,-0.243103,0.367371,0.809326,-0.388489
1470261507650205,-0.243591,0.367188,0.809082,-0.388855
1470261507667219,-0.244019,0.367188,0.808899,-0.388977
1470261507688759,-0.244446,0.367432,0.808655,-0.388916
1470261507717766,-0.244934,0.368164,0.808289,-0.388672
1470261507728341,-0.245544,0.369141,0.807922,-0.388123
1470261507749291,-0.246033,0.370178,0.807617,-0.387512
1470261507770353,-0.246094,0.370911,0.807495,-0.386963
1470261507786825,-0.245911,0.371521,0.807617,-0.386353
1470261507809344,-0.245605,0.371948,0.807861,-0.38562
1470261507830372,-0.245605,0.372437,0.807983,-0.384888
1470261507846881,-0.245667,0.372742,0.807922,-0.384583
1470261507869400,-0.245239,0.372437,0.808167,-0.384705
1470261507890420,-0.244629,0.37207,0.808411,-0.384888
1470261507906432,-0.244202,0.372131,0.808533,-0.384827
1470261507935458,-0.24408,0.372559,0.808533,-0.384521
1470261507950475,-0.243958,0.372803,0.808533,-0.384277
1470261507966989,-0.243591,0.372559,0.808777,-0.384277
1470261507996514,-0.243042,0.37207,0.809204,-0.384277
1470261508011526,-0.242798,0.371826,0.809387,-0.384216
1470261508032545,-0.242737,0.371643,0.80957,-0.384155
1470261508049060,-0.242554,0.371094,0.809753,-0.384338
1470261508079088,-0.242371,0.370483,0.809998,-0.384583
1470261508087095,-0.242554,0.370422,0.809937,-0.384583
1470261508109114,-0.242859,0.370728,0.809753,-0.384521
1470261508131634,-0.242859,0.370728,0.809753,-0.384521
1470261508145647,-0.242798,0.370605,0.809753,-0.384705
1470261508169168,-0.242676,0.370422,0.809753,-0.384888
1470261508191690,-0.242554,0.3703,0.809753,-0.385132
1470261508205701,-0.242493,0.370239,0.809753,-0.385132
1470261508229222,-0.242981,0.369751,0.80957,-0.385681
1470261508252244,-0.243347,0.369324,0.809387,-0.38623
1470261508266256,-0.243408,0.369019,0.809387,-0.386536
1470261508289275,-0.243286,0.368713,0.809509,-0.386719
1470261508311796,-0.243103,0.368408,0.809692,-0.386719
1470261508325817,-0.242859,0.367981,0.809998,-0.386658
1470261508349330,-0.242615,0.367493,0.810303,-0.386597
1470261508371349,-0.242371,0.367188,0.810547,-0.386597
1470261508385867,-0.242126,0.366943,0.81073,-0.386475
1470261508408883,-0.242126,0.366943,0.81073,-0.386536
1470261508431404,-0.242126,0.366943,0.81073,-0.386536
1470261508445916,-0.242126,0.367004,0.81073,-0.386536
1470261508468991,-0.242126,0.367004,0.81073,-0.386536
1470261508491457,-0.242126,0.367004,0.81073,-0.386536
1470261508512492,-0.242126,0.367004,0.81073,-0.386536
1470261508528991,-0.24231,0.367371,0.810547,-0.386475
1470261508559018,-0.242554,0.367615,0.810303,-0.386475
1470261508572530,-0.24292,0.36792,0.810059,-0.386475
1470261508589046,-0.243225,0.368164,0.809814,-0.386536
1470261508611565,-0.243408,0.368347,0.809692,-0.386597
1470261508634089,-0.243408,0.368347,0.809692,-0.386597
1470261508649099,-0.243347,0.368347,0.809692,-0.386597
1470261508671619,-0.243347,0.368408,0.809692,-0.386597
1470261508692640,-0.243347,0.368408,0.809692,-0.386597
1470261508709153,-0.243408,0.368347,0.809692,-0.386597
1470261508731675,-0.243286,0.368164,0.809753,-0.386719
1470261508752694,-0.243164,0.36792,0.809814,-0.386841
1470261508769208,-0.243103,0.36792,0.809814,-0.386841
1470261508797755,-0.242859,0.367676,0.809937,-0.387024
1470261508812763,-0.242615,0.367371,0.810059,-0.387207
1470261508829261,-0.24231,0.367126,0.810181,-0.387329
1470261508851782,-0.242188,0.367004,0.810303,-0.38739
1470261508873304,-0.242065,0.36676,0.810364,-0.387451
1470261508889314,-0.242126,0.366821,0.810364,-0.387451
1470261508911835,-0.242065,0.366638,0.810364,-0.387573
1470261508934358,-0.242065,0.366394,0.810364,-0.387817
1470261508949371,-0.242065,0.366394,0.810364,-0.387817
1470261508971388,-0.242065,0.366455,0.810364,-0.387817
1470261508993909,-0.242065,0.366455,0.810364,-0.387817
1470261509008922,-0.241882,0.366394,0.810364,-0.387939
1470261509031442,-0.241882,0.366394,0.810364,-0.387939
1470261509053965,-0.241882,0.366455,0.810364,-0.387939
1470261509076492,-0.241882,0.366455,0.810364,-0.387939
1470261509091496,-0.241638,0.366394,0.810425,-0.387939
1470261509114037,-0.241638,0.366394,0.810425,-0.387939
1470261509128529,-0.241638,0.366394,0.810425,-0.387939
1470261509152052,-0.241333,0.366577,0.810425,-0.388062
1470261509174071,-0.240906,0.366699,0.810486,-0.388
1470261509188584,-0.240723,0.367188,0.810486,-0.387695
1470261509211606,-0.240784,0.367615,0.810486,-0.387329
1470261509234628,-0.240601,0.367493,0.810669,-0.387146
1470261509248638,-0.24054,0.36731,0.81073,-0.387085
1470261509271658,-0.24054,0.367371,0.81073,-0.387146
1470261509294180,-0.24054,0.36731,0.810669,-0.387329
1470261509315216,-0.240845,0.367188,0.810547,-0.387451
1470261509331712,-0.240967,0.367249,0.810364,-0.387695
1470261509354234,-0.241089,0.367065,0.810364,-0.387756
1470261509368746,-0.241089,0.367126,0.810364,-0.387756
1470261509391767,-0.241089,0.367126,0.810364,-0.387756
1470261509414287,-0.241089,0.367126,0.810364,-0.387756
1470261509435305,-0.241089,0.367126,0.810364,-0.387756
1470261509451822,-0.241089,0.367188,0.810364,-0.387756
1470261509474339,-0.241089,0.367188,0.810364,-0.387756
1470261509495360,-0.241089,0.367188,0.810364,-0.387756
1470261509511380,-0.241089,0.367188,0.810364,-0.387756
1470261509534395,-0.241089,0.367188,0.810364,-0.387756
1470261509555412,-0.241089,0.367188,0.810303,-0.387756
1470261509571427,-0.241089,0.367188,0.810364,-0.387756
1470261509593948,-0.241028,0.367188,0.810364,-0.387817
1470261509615491,-0.241211,0.36731,0.810242,-0.387756
1470261509631488,-0.241272,0.367371,0.810181,-0.387817
1470261509654001,-0.241455,0.36731,0.810059,-0.388
1470261509675036,-0.241516,0.367126,0.810059,-0.388123
1470261509691535,-0.24176,0.367065,0.809998,-0.388245
1470261509714056,-0.242004,0.367249,0.809814,-0.388184
1470261509735075,-0.242004,0.367249,0.809814,-0.388184
1470261509751593,-0.242004,0.367249,0.809814,-0.388184
1470261509774109,-0.242004,0.367249,0.809814,-0.388245
1470261509795183,-0.242004,0.36731,0.809814,-0.388245
1470261509811643,-0.242004,0.36731,0.809814,-0.388245
1470261509834165,-0.241638,0.367493,0.809814,-0.388245
1470261509855182,-0.241211,0.367493,0.809998,-0.388184
1470261509871697,-0.240845,0.367676,0.809937,-0.388245
1470261509894218,-0.240662,0.368225,0.809753,-0.388306
1470261509916739,-0.240784,0.368713,0.80957,-0.388123
1470261509945263,-0.240845,0.368103,0.809814,-0.388184
1470261509954271,-0.241455,0.368042,0.80957,-0.388428
1470261509976791,-0.242981,0.369507,0.808472,-0.388245
1470261509991804,-0.244507,0.370972,0.807373,-0.388184
1470261510014325,-0.245056,0.371277,0.807007,-0.388306
1470261510036844,-0.245178,0.370728,0.807068,-0.388672
1470261510050860,-0.2453,0.370117,0.807129,-0.388977
1470261510073879,-0.245422,0.369812,0.807251,-0.388916
1470261510096398,-0.245361,0.369812,0.807373,-0.388733
1470261510110912,-0.245239,0.369873,0.807495,-0.38855
1470261510134434,-0.244995,0.369995,0.807556,-0.388489
1470261510156452,-0.244385,0.369934,0.807678,-0.388611
1470261510170966,-0.243469,0.36969,0.808105,-0.38855
1470261510193988,-0.242676,0.369507,0.808533,-0.388367
1470261510224014,-0.242126,0.369629,0.808594,-0.388367
1470261510231020,-0.242859,0.370667,0.808105,-0.388062
1470261510254040,-0.243896,0.371216,0.807617,-0.387939
1470261510276561,-0.244385,0.371033,0.807434,-0.388123
1470261510291076,-0.244751,0.371277,0.807129,-0.388306
1470261510314095,-0.2453,0.371216,0.806885,-0.38855
1470261510336617,-0.245728,0.371338,0.80658,-0.388672
1470261510351129,-0.246033,0.371643,0.806396,-0.388611
1470261510374149,-0.246033,0.371643,0.806396,-0.388611
1470261510396668,-0.245972,0.371582,0.806458,-0.38855
1470261510417691,-0.24585,0.37146,0.806641,-0.388489
1470261510434704,-0.245667,0.371277,0.806824,-0.388367
1470261510456722,-0.245361,0.370972,0.807129,-0.388245
1470261510477741,-0.244995,0.37085,0.807312,-0.388184
1470261510494256,-0.244751,0.37085,0.807434,-0.388123
1470261510516777,-0.244385,0.370728,0.807556,-0.388062
1470261510537804,-0.244141,0.370544,0.807739,-0.388062
1470261510554309,-0.24408,0.370544,0.807739,-0.388062
1470261510576374,-0.243958,0.370605,0.807922,-0.387817
1470261510597883,-0.243713,0.370544,0.808105,-0.387573
1470261510613863,-0.243774,0.370667,0.808167,-0.387268
1470261510636385,-0.243835,0.370667,0.808167,-0.387268
1470261510657902,-0.243835,0.370667,0.808167,-0.387268
1470261510673923,-0.243835,0.370667,0.808167,-0.387268
1470261510696438,-0.243774,0.370667,0.808167,-0.387268
1470261510717958,-0.243774,0.370667,0.808167,-0.387268
1470261510733976,-0.243774,0.370667,0.808167,-0.387268
1470261510756523,-0.243774,0.370667,0.808167,-0.387268
1470261510777542,-0.243652,0.370544,0.808289,-0.387268
1470261510794025,-0.243652,0.370544,0.808289,-0.387268
1470261510816547,-0.243652,0.370544,0.808289,-0.387268
1470261510839074,-0.243469,0.370422,0.808411,-0.387207
1470261510853579,-0.243164,0.3703,0.808655,-0.387085
1470261510876599,-0.242981,0.370239,0.808777,-0.386902
1470261510899120,-0.242676,0.370178,0.80896,-0.38678
1470261510914133,-0.242432,0.369995,0.809204,-0.386658
1470261510936654,-0.242126,0.369995,0.809265,-0.386658
1470261510959173,-0.241882,0.370117,0.809265,-0.386658
1470261510974687,-0.241943,0.370483,0.809082,-0.386719
1470261510996707,-0.242126,0.370728,0.80896,-0.386719
1470261511019230,-0.242493,0.370422,0.808899,-0.386841
1470261511033742,-0.243042,0.370178,0.808716,-0.387085
1470261511056761,-0.243713,0.370544,0.80835,-0.387085
1470261511079282,-0.244141,0.371033,0.807983,-0.387146
1470261511093293,-0.244324,0.370667,0.807983,-0.38739
1470261511116816,-0.244446,0.370361,0.807861,-0.387756
1470261511139334,-0.244507,0.370361,0.8078,-0.387939
1470261511153348,-0.244507,0.370361,0.8078,-0.387939
1470261511176868,-0.244507,0.370361,0.8078,-0.387939
1470261511198891,-0.244385,0.370422,0.807861,-0.387817
1470261511213401,-0.244263,0.370544,0.807922,-0.387634
1470261511236422,-0.244385,0.370789,0.807861,-0.387512
1470261511258943,-0.244385,0.370789,0.807861,-0.387512
1470261511273455,-0.244263,0.37085,0.807861,-0.38739
1470261511296476,-0.244141,0.371094,0.8078,-0.38739
1470261511335010,-0.244141,0.371094,0.8078,-0.38739
1470261511340029,-0.244141,0.371094,0.8078,-0.38739
1470261511356532,-0.244324,0.371094,0.807678,-0.387512
1470261511379050,-0.244507,0.371216,0.807556,-0.387634
1470261511400571,-0.244507,0.371216,0.807556,-0.387634
1470261511417087,-0.244446,0.371216,0.807556,-0.387634
1470261511439105,-0.244507,0.371216,0.807556,-0.387634
1470261511460123,-0.244202,0.371155,0.807678,-0.387573
1470261511476638,-0.243896,0.371216,0.807739,-0.387573
1470261511499158,-0.243774,0.371521,0.8078,-0.387268
1470261511520213,-0.243469,0.37146,0.808044,-0.387024
1470261511536694,-0.243469,0.371399,0.808044,-0.387024
1470261511559213,-0.243591,0.371643,0.8078,-0.387268
1470261511580235,-0.243774,0.371765,0.807739,-0.387268
1470261511596746,-0.243774,0.371704,0.807739,-0.387268
1470261511619267,-0.243774,0.371765,0.807678,-0.387268
1470261511640285,-0.243591,0.371643,0.807739,-0.387329
1470261511656799,-0.243286,0.37146,0.8078,-0.387573
1470261511679320,-0.243103,0.37146,0.807739,-0.387817
1470261511700354,-0.24292,0.371826,0.807495,-0.388184
1470261511716854,-0.242737,0.372253,0.807251,-0.388306
1470261511739374,-0.24231,0.371948,0.807434,-0.38855
1470261511760479,-0.241821,0.371643,0.807678,-0.388611
1470261511776408,-0.241516,0.371399,0.807922,-0.388489
1470261511806433,-0.241028,0.371155,0.808289,-0.388367
1470261511821485,-0.241028,0.371094,0.808289,-0.388367
1470261511836461,-0.240967,0.371521,0.808105,-0.388428
1470261511858983,-0.240845,0.371948,0.807983,-0.388367
1470261511881502,-0.240845,0.372131,0.807983,-0.388062
1470261511896515,-0.240845,0.372131,0.808044,-0.388062
1470261511919537,-0.24115,0.371582,0.808167,-0.388
1470261511947560,-0.241211,0.371338,0.808167,-0.388184
1470261511962575,-0.241089,0.371155,0.808105,-0.388611
1470261511979089,-0.24115,0.371155,0.808044,-0.388733
1470261512001612,-0.241089,0.371216,0.807922,-0.388916
1470261512016122,-0.241028,0.371033,0.808044,-0.388916
1470261512039143,-0.241089,0.370911,0.808105,-0.388977
1470261512061664,-0.241089,0.37085,0.808105,-0.388977
1470261512076175,-0.24115,0.370911,0.808044,-0.388977
1470261512099197,-0.24115,0.370911,0.808044,-0.388916
1470261512121717,-0.24115,0.370911,0.808044,-0.388977
1470261512142762,-0.24115,0.370911,0.808044,-0.388916
1470261512159251,-0.24115,0.370911,0.808044,-0.388916
1470261512181771,-0.24115,0.370911,0.808044,-0.388977
1470261512187344,-0.24115,0.370911,0.808044,-0.388977
1470261512203290,-0.241089,0.370911,0.808044,-0.388977
1470261512224309,-0.240784,0.371094,0.808044,-0.389099
1470261512247330,-0.240356,0.371277,0.808044,-0.389038
1470261512263345,-0.240173,0.371948,0.807739,-0.38916
1470261512284867,-0.24054,0.37262,0.807434,-0.389038
1470261512307385,-0.240601,0.371765,0.8078,-0.389038
1470261512323899,-0.240173,0.370544,0.808472,-0.389038
1470261512344433,-0.240479,0.370544,0.80835,-0.389099
1470261512366946,-0.241089,0.370667,0.808105,-0.38916
1470261512383455,-0.241211,0.370422,0.808044,-0.389404
1470261512407474,-0.241028,0.370117,0.808167,-0.389526
1470261512427004,-0.241028,0.370483,0.808105,-0.389343
1470261512445034,-0.240967,0.370605,0.808167,-0.38916
1470261512464584,-0.240723,0.3703,0.808472,-0.388916
1470261512487049,-0.24054,0.370605,0.808411,-0.388855
1470261512503560,-0.24054,0.371277,0.808105,-0.388916
1470261512524583,-0.240112,0.371521,0.807983,-0.38916
1470261512547100,-0.239868,0.372253,0.807983,-0.38855
1470261512563614,-0.239868,0.373657,0.807617,-0.388062
1470261512590138,-0.240051,0.374451,0.807129,-0.388123
1470261512608156,-0.23999,0.373291,0.807495,-0.38855
1470261512623667,-0.239258,0.37085,0.808533,-0.389221
1470261512644686,-0.239502,0.370667,0.80835,-0.389587
1470261512667208,-0.240784,0.371399,0.807678,-0.389526
1470261512683723,-0.241516,0.370911,0.807495,-0.389893
1470261512704741,-0.241394,0.369751,0.8078,-0.390503
1470261512726760,-0.241516,0.369202,0.807861,-0.390808
1470261512745285,-0.241821,0.369385,0.807678,-0.390808
1470261512764795,-0.242249,0.369934,0.807434,-0.390503
1470261512787815,-0.242188,0.369934,0.807495,-0.390381
1470261512804831,-0.241821,0.369446,0.8078,-0.390442
1470261512824848,-0.241394,0.369141,0.808044,-0.390442
1470261512846870,-0.24115,0.369019,0.808228,-0.390442
1470261512864885,-0.240601,0.369263,0.808289,-0.390381
1470261512884902,-0.24054,0.369812,0.808228,-0.389954
1470261512908424,-0.240723,0.370483,0.808167,-0.389404
1470261512924940,-0.240723,0.370483,0.808105,-0.389404
1470261512944455,-0.24054,0.370239,0.808289,-0.389465
1470261512967981,-0.24054,0.370239,0.808289,-0.389465
1470261512989496,-0.240479,0.370667,0.808167,-0.389404
1470261513004512,-0.240417,0.37085,0.808167,-0.389282
1470261513027030,-0.240295,0.371155,0.807983,-0.389404
1470261513045047,-0.240601,0.371338,0.807861,-0.389282
1470261513072070,-0.241333,0.371155,0.807556,-0.389587
1470261513087584,-0.242432,0.370972,0.806946,-0.390442
1470261513105102,-0.243408,0.370972,0.806335,-0.391052
1470261513124617,-0.243835,0.371094,0.80603,-0.391235
1470261513147138,-0.243835,0.371094,0.80603,-0.391235
1470261513171159,-0.24353,0.371094,0.806213,-0.391113
1470261513184671,-0.243408,0.371155,0.806335,-0.39093
1470261513207192,-0.243408,0.371155,0.806335,-0.39093
1470261513225208,-0.243469,0.371155,0.806274,-0.39093
1470261513244757,-0.243408,0.371033,0.806458,-0.390747
1470261513274752,-0.243103,0.370789,0.806702,-0.390686
1470261513285262,-0.242737,0.370483,0.806946,-0.390686
1470261513304844,-0.242737,0.370483,0.806946,-0.390686
1470261513327299,-0.242859,0.370789,0.806824,-0.390564
1470261513345433,-0.242859,0.37085,0.806824,-0.390564
1470261513365850,-0.242676,0.370728,0.806946,-0.390503
1470261513387354,-0.242676,0.370728,0.806946,-0.390503
1470261513404870,-0.242737,0.370972,0.806885,-0.39032
1470261513425888,-0.242737,0.371033,0.806885,-0.39032
1470261513447407,-0.242737,0.371033,0.806885,-0.39032
1470261513472429,-0.242798,0.371033,0.806824,-0.39032
1470261513485943,-0.242798,0.371033,0.806824,-0.39032
1470261513507470,-0.242798,0.371033,0.806824,-0.39032
1470261513524977,-0.242798,0.371033,0.806885,-0.39032
1470261513545996,-0.242737,0.371033,0.806824,-0.39032
1470261513567059,-0.242737,0.371033,0.806824,-0.39032
1470261513585034,-0.242554,0.370972,0.806946,-0.39032
1470261513606050,-0.242493,0.370972,0.806946,-0.39032
1470261513627071,-0.242493,0.371033,0.806946,-0.39032
1470261513645092,-0.242493,0.371033,0.806946,-0.39032
1470261513666103,-0.242554,0.371033,0.806946,-0.39032
1470261513687124,-0.242554,0.371033,0.806946,-0.39032
1470261513705173,-0.242371,0.370667,0.807129,-0.39032
1470261513727659,-0.242371,0.370667,0.807129,-0.39032
1470261513747205,-0.242554,0.370972,0.807007,-0.390137
1470261513765193,-0.242554,0.370972,0.807007,-0.390198
1470261513787712,-0.242371,0.370667,0.80719,-0.390259
1470261513807232,-0.242371,0.370667,0.80719,-0.390259
1470261513832774,-0.242432,0.370667,0.80719,-0.390198
1470261513847767,-0.242432,0.370667,0.80719,-0.390198
1470261513867290,-0.242249,0.370422,0.807373,-0.390198
1470261513885303,-0.242126,0.370178,0.807495,-0.390137
1470261513907320,-0.242126,0.370178,0.807495,-0.390198
1470261513927338,-0.242126,0.370422,0.807434,-0.390137
1470261513944854,-0.242126,0.370422,0.807434,-0.390198
1470261513967376,-0.242126,0.370422,0.807373,-0.390198
1470261513987393,-0.242126,0.370422,0.807373,-0.390137
1470261514004908,-0.242126,0.370422,0.807434,-0.390137
1470261514027429,-0.242126,0.370422,0.807434,-0.390137
1470261514046946,-0.242126,0.370422,0.807434,-0.390137
1470261514064964,-0.242188,0.370361,0.807434,-0.390137
1470261514087483,-0.242249,0.370361,0.807312,-0.39032
1470261514110004,-0.242493,0.370544,0.807129,-0.390442
1470261514125036,-0.242493,0.370544,0.807129,-0.390381
1470261514147599,-0.242615,0.370605,0.807068,-0.390442
1470261514167056,-0.242859,0.371338,0.806702,-0.390259
1470261514185572,-0.243225,0.372314,0.806213,-0.390076
1470261514207627,-0.243408,0.373169,0.805908,-0.389893
1470261514227137,-0.243469,0.37384,0.805664,-0.389709
1470261514245145,-0.24353,0.374512,0.805359,-0.389526
1470261514267645,-0.243652,0.375061,0.805115,-0.389404
1470261514294684,-0.243774,0.375427,0.804932,-0.389404
1470261514305178,-0.243774,0.375732,0.80481,-0.389404
1470261514327702,-0.243835,0.375732,0.80481,-0.389404
1470261514350221,-0.243835,0.375793,0.80481,-0.389404
1470261514364731,-0.243652,0.376038,0.804749,-0.389404
1470261514387251,-0.243591,0.376282,0.804688,-0.389282
1470261514408771,-0.243591,0.376282,0.804626,-0.389282
1470261514424785,-0.243347,0.376038,0.80481,-0.389404
1470261514447322,-0.242981,0.375916,0.804932,-0.389465
1470261514468325,-0.242981,0.375916,0.804932,-0.389465
1470261514484841,-0.242981,0.375916,0.804932,-0.389465
1470261514507380,-0.243042,0.375916,0.804932,-0.389465
1470261514528378,-0.24292,0.375671,0.805115,-0.389404
1470261514544893,-0.242798,0.375427,0.805237,-0.389404
1470261514567414,-0.242676,0.375244,0.805359,-0.389404
1470261514595939,-0.242432,0.374939,0.805603,-0.389404
1470261514604947,-0.242188,0.374634,0.805725,-0.389465
1470261514627467,-0.242126,0.374268,0.805908,-0.389648
1470261514649991,-0.242004,0.374023,0.805969,-0.389709
1470261514665020,-0.242004,0.374023,0.805969,-0.389709
1470261514687522,-0.242004,0.374023,0.805969,-0.389709
1470261514709040,-0.241943,0.374023,0.80603,-0.389709
1470261514730059,-0.241638,0.373657,0.806213,-0.389832
1470261514746574,-0.241394,0.373413,0.806396,-0.389832
1470261514769097,-0.241394,0.373413,0.806396,-0.389832
1470261514790617,-0.241394,0.373413,0.806396,-0.389832
1470261514806628,-0.241333,0.373169,0.806519,-0.389893
1470261514829149,-0.24115,0.37262,0.806702,-0.390015
1470261514851671,-0.240906,0.372192,0.806946,-0.390198
1470261514866684,-0.24054,0.372009,0.807068,-0.39032
1470261514889202,-0.24054,0.372009,0.807068,-0.39032
1470261514903715,-0.240845,0.371826,0.806946,-0.390625
1470261514926736,-0.24115,0.37146,0.806885,-0.390869
1470261514949256,-0.241211,0.371155,0.806885,-0.391113
1470261514963268,-0.241211,0.37085,0.806946,-0.391296
1470261514986791,-0.241333,0.371155,0.806763,-0.391235
1470261515016818,-0.241577,0.371948,0.806458,-0.391113
1470261515023822,-0.241882,0.372559,0.806152,-0.390869
1470261515046957,-0.241882,0.372559,0.806152,-0.390869
1470261515069478,-0.24176,0.372498,0.806274,-0.390747
1470261515083493,-0.241516,0.372559,0.806396,-0.390625
1470261515106511,-0.241455,0.372986,0.806335,-0.390381
1470261515129031,-0.241455,0.373352,0.806213,-0.390259
1470261515150053,-0.241455,0.373352,0.806213,-0.390259
1470261515166566,-0.241211,0.373169,0.806396,-0.390259
1470261515189085,-0.240906,0.372864,0.80658,-0.390259
1470261515218114,-0.240662,0.372559,0.806824,-0.390259
1470261515226619,-0.240417,0.372375,0.807007,-0.390198
1470261515249139,-0.240051,0.372253,0.80719,-0.390137
1470261515270158,-0.239624,0.372009,0.807434,-0.390076
1470261515286678,-0.23938,0.371521,0.807678,-0.390259
1470261515309194,-0.239441,0.371399,0.807556,-0.390564
1470261515330212,-0.239685,0.371277,0.807495,-0.390747
1470261515346727,-0.239929,0.370911,0.807312,-0.391235
1470261515369248,-0.240234,0.370728,0.807129,-0.391541
1470261515390266,-0.240234,0.370728,0.807129,-0.391541
1470261515406780,-0.240234,0.370728,0.807129,-0.391541
1470261515429301,-0.240234,0.370728,0.807129,-0.391541
1470261515450339,-0.240234,0.370728,0.807129,-0.391541
1470261515466834,-0.240234,0.370728,0.807129,-0.391541
1470261515496861,-0.240417,0.371033,0.807068,-0.391296
1470261515510373,-0.240417,0.371033,0.807068,-0.391296
1470261515526888,-0.240356,0.371216,0.807129,-0.391113
1470261515548908,-0.240356,0.371216,0.807129,-0.391113
1470261515570507,-0.240356,0.371216,0.807068,-0.391174
1470261515586941,-0.240356,0.371277,0.807068,-0.391174
1470261515609462,-0.240356,0.371277,0.807068,-0.391113
1470261515631482,-0.240845,0.372192,0.806763,-0.390564
1470261515645995,-0.243164,0.375732,0.805237,-0.388977
1470261515669016,-0.24884,0.381836,0.80188,-0.386353
1470261515691537,-0.257324,0.390381,0.796326,-0.383606
1470261515706050,-0.264282,0.397949,0.791138,-0.381897
1470261515736576,-0.267395,0.400024,0.788879,-0.382263
1470261515751592,-0.268555,0.397827,0.786926,-0.387695
1470261515772638,-0.269714,0.395691,0.782715,-0.397461
1470261515789125,-0.273132,0.39801,0.773926,-0.409912
1470261515811644,-0.279541,0.402954,0.762024,-0.422791
1470261515832706,-0.285767,0.404541,0.750671,-0.437256
1470261515849179,-0.29126,0.405212,0.739441,-0.451904
1470261515873702,-0.296204,0.406799,0.728027,-0.465515
1470261515892753,-0.300354,0.40918,0.717224,-0.477356
1470261515909232,-0.302979,0.410217,0.708374,-0.487976
1470261515931751,-0.304688,0.410645,0.701599,-0.496216
1470261515952771,-0.304871,0.410034,0.697449,-0.502441
1470261515969289,-0.305603,0.408997,0.695129,-0.506104
1470261515991807,-0.307556,0.409058,0.693481,-0.507141
1470261516012824,-0.308838,0.409058,0.692749,-0.507324
1470261516029339,-0.308472,0.408691,0.692749,-0.507813
1470261516051861,-0.308289,0.408447,0.692932,-0.507874
1470261516072886,-0.309204,0.408203,0.693237,-0.507141
1470261516089393,-0.311462,0.407959,0.692871,-0.506409
1470261516111913,-0.313232,0.406494,0.692871,-0.506531
1470261516134435,-0.31366,0.403564,0.693665,-0.507446
1470261516148994,-0.313599,0.401062,0.694519,-0.508362
1470261516178974,-0.312866,0.399231,0.695557,-0.50885
1470261516193988,-0.312561,0.397766,0.696106,-0.509399
1470261516209502,-0.311279,0.396606,0.69696,-0.509888
1470261516231521,-0.310852,0.397522,0.696899,-0.509583
1470261516252540,-0.31073,0.396301,0.697937,-0.509216
1470261516269055,-0.312622,0.395264,0.698242,-0.508423
1470261516291575,-0.313843,0.394531,0.698303,-0.508118
1470261516312595,-0.31427,0.393555,0.698669,-0.508118
1470261516329109,-0.313171,0.392517,0.699158,-0.508972
1470261516351632,-0.312683,0.392639,0.698669,-0.509827
1470261516381656,-0.313049,0.392334,0.698303,-0.510315
1470261516389162,-0.313782,0.392334,0.698242,-0.509949
1470261516417697,-0.313782,0.391968,0.698975,-0.509216
1470261516432701,-0.312195,0.390747,0.700928,-0.508484
1470261516449217,-0.309875,0.389587,0.703552,-0.507141
1470261516471737,-0.308472,0.389282,0.70636,-0.504333
1470261516492755,-0.307068,0.388733,0.709778,-0.500793
1470261516508769,-0.305786,0.387756,0.713806,-0.496643
1470261516531790,-0.304138,0.386597,0.718384,-0.491882
1470261516554311,-0.301453,0.385132,0.723816,-0.486694
1470261516568824,-0.29834,0.38446,0.729614,-0.480469
1470261516591844,-0.295227,0.384399,0.735413,-0.47345
1470261516614364,-0.29187,0.383972,0.741638,-0.466125
1470261516628377,-0.287415,0.38269,0.748596,-0.458801
1470261516651899,-0.28302,0.381348,0.755615,-0.451111
1470261516674418,-0.278748,0.379761,0.762512,-0.44342
1470261516695437,-0.274536,0.378662,0.768555,-0.436584
1470261516711452,-0.271057,0.377747,0.773682,-0.43042
1470261516734474,-0.268555,0.377319,0.778076,-0.424438
1470261516755491,-0.267029,0.377014,0.781921,-0.418457
1470261516771528,-0.266113,0.377319,0.785095,-0.412781
1470261516794026,-0.265869,0.377869,0.787476,-0.407898
1470261516815624,-0.267212,0.37793,0.78894,-0.404175
1470261516831560,-0.270874,0.377197,0.789551,-0.401123
1470261516854079,-0.273743,0.377808,0.789429,-0.398804
1470261516875099,-0.270325,0.377441,0.789734,-0.40094
1470261516891614,-0.266663,0.375549,0.791016,-0.402649
1470261516914134,-0.267822,0.378845,0.789673,-0.401489
1470261516935656,-0.270569,0.38269,0.787659,-0.399902
1470261516959174,-0.270508,0.382141,0.787903,-0.400024
1470261516974187,-0.268433,0.379578,0.789368,-0.40094
1470261516995206,-0.267273,0.378601,0.7901,-0.401184
1470261517011721,-0.267273,0.379211,0.790039,-0.400757
1470261517034244,-0.267456,0.379944,0.789856,-0.40033
1470261517055261,-0.267212,0.380188,0.789917,-0.400024
1470261517071776,-0.266541,0.379578,0.790527,-0.399902
1470261517094296,-0.26593,0.378723,0.791077,-0.399963
1470261517115314,-0.265503,0.378235,0.791382,-0.400146
1470261517131829,-0.26532,0.37793,0.791504,-0.400269
1470261517154350,-0.265259,0.377747,0.791565,-0.400452
1470261517175368,-0.26532,0.377686,0.791565,-0.400513
1470261517191882,-0.265564,0.377441,0.791504,-0.400574
1470261517214403,-0.265625,0.377136,0.791565,-0.400696
1470261517235437,-0.265625,0.377136,0.791565,-0.400696
1470261517251938,-0.265442,0.377136,0.791687,-0.400696
1470261517273958,-0.265076,0.377014,0.79187,-0.400696
1470261517295476,-0.264404,0.376587,0.792175,-0.400818
1470261517311490,-0.263794,0.376282,0.792542,-0.400879
1470261517334512,-0.263184,0.376038,0.792847,-0.400818
1470261517356531,-0.262756,0.375854,0.793152,-0.400696
1470261517371545,-0.262573,0.375977,0.793274,-0.400513
1470261517394064,-0.262207,0.375916,0.793579,-0.400208
1470261517415100,-0.261597,0.375488,0.794067,-0.400024
1470261517431598,-0.260986,0.375,0.794556,-0.399841
1470261517454119,-0.260498,0.374878,0.794922,-0.399597
1470261517476639,-0.260437,0.375122,0.794922,-0.399353
1470261517491652,-0.260437,0.375427,0.794922,-0.399109
1470261517514173,-0.260193,0.37561,0.794983,-0.398987
1470261517536692,-0.259888,0.375427,0.795227,-0.398865
1470261517551708,-0.259583,0.375122,0.795593,-0.398743
1470261517574226,-0.259277,0.375,0.795776,-0.398682
1470261517596747,-0.259094,0.374817,0.795898,-0.39856
1470261517611760,-0.25885,0.374695,0.796082,-0.398499
1470261517634284,-0.25885,0.374756,0.796021,-0.39856
1470261517656801,-0.25885,0.374756,0.796021,-0.39856
1470261517671313,-0.258789,0.37439,0.796143,-0.398743
1470261517694334,-0.25885,0.374329,0.796021,-0.398987
1470261517716857,-0.259033,0.374451,0.795837,-0.399109
1470261517731368,-0.259033,0.374451,0.795837,-0.399109
1470261517754389,-0.259033,0.374451,0.795837,-0.399109
1470261517776908,-0.259094,0.374817,0.795654,-0.399109
1470261517799429,-0.259338,0.375305,0.79541,-0.398926
1470261517814442,-0.25946,0.375793,0.795227,-0.398804
1470261517836962,-0.259583,0.37616,0.795105,-0.398621
1470261517850977,-0.25946,0.376282,0.795166,-0.398438
1470261517873995,-0.259399,0.376465,0.795227,-0.398254
1470261517896515,-0.259399,0.376709,0.795105,-0.398254
1470261517911528,-0.259399,0.376709,0.795105,-0.398315
1470261517934053,-0.259277,0.376953,0.794983,-0.398254
1470261517956569,-0.259277,0.377197,0.794922,-0.398193
1470261517978116,-0.259277,0.377258,0.794922,-0.398193
1470261517994104,-0.259094,0.377136,0.794983,-0.398254
1470261518017126,-0.259033,0.377136,0.794983,-0.398315
1470261518038144,-0.259033,0.377136,0.794983,-0.398315
1470261518054157,-0.259033,0.377136,0.794983,-0.398315
1470261518076678,-0.259094,0.377136,0.794983,-0.398254
1470261518097722,-0.259094,0.377136,0.794983,-0.398254
1470261518120234,-0.259094,0.377136,0.794983,-0.398254
1470261518136732,-0.259094,0.377136,0.794983,-0.398254
1470261518157770,-0.259033,0.377258,0.795044,-0.398132
1470261518173767,-0.258789,0.377197,0.795166,-0.39801
1470261518196785,-0.258362,0.377136,0.795349,-0.39801
1470261518217808,-0.258057,0.377075,0.795471,-0.39801
1470261518234323,-0.258057,0.377075,0.795471,-0.39801
1470261518256840,-0.258057,0.377075,0.795471,-0.39801
1470261518277937,-0.258057,0.377075,0.795471,-0.39801
1470261518294372,-0.258057,0.377136,0.795471,-0.39801
1470261518316894,-0.258057,0.37738,0.795349,-0.397949
1470261518345428,-0.258057,0.37738,0.795349,-0.397949
1470261518354426,-0.257813,0.377319,0.795471,-0.397949
1470261518376447,-0.257507,0.377136,0.795654,-0.397949
1470261518398056,-0.257507,0.377136,0.795654,-0.397949
1470261518413986,-0.257629,0.377136,0.79541,-0.398315
1470261518436501,-0.257874,0.376648,0.795288,-0.398865
1470261518459021,-0.258118,0.37616,0.795166,-0.399475
1470261518474034,-0.258362,0.376221,0.794922,-0.399658
1470261518496558,-0.25885,0.376892,0.794556,-0.399475
1470261518519576,-0.259644,0.378296,0.793945,-0.398926
1470261518534590,-0.260681,0.379883,0.793213,-0.398071
1470261518556608,-0.261841,0.381165,0.792786,-0.397095
1470261518579128,-0.262634,0.382141,0.792419,-0.39624
1470261518593642,-0.262268,0.382385,0.792603,-0.395996
1470261518616663,-0.262085,0.383118,0.792297,-0.395996
1470261518639183,-0.262085,0.382385,0.791931,-0.397339
1470261518653696,-0.262451,0.380615,0.791748,-0.399231
1470261518676735,-0.264465,0.380798,0.789978,-0.401245
1470261518699237,-0.266113,0.380188,0.787415,-0.40564
1470261518720255,-0.267273,0.378967,0.784302,-0.412048
1470261518736771,-0.267944,0.377441,0.78009,-0.420959
1470261518759293,-0.269104,0.377075,0.77417,-0.431274
1470261518787815,-0.271912,0.37854,0.766113,-0.442505
1470261518798340,-0.275757,0.380432,0.756836,-0.454285
1470261518818848,-0.280945,0.382874,0.746582,-0.465881
1470261518840379,-0.286621,0.385437,0.736206,-0.476685
1470261518862886,-0.291626,0.387817,0.726746,-0.486145
1470261518879398,-0.294983,0.38916,0.718628,-0.495056
1470261518900419,-0.296082,0.388367,0.712402,-0.503906
1470261518916932,-0.296143,0.386658,0.707581,-0.511902
1470261518939452,-0.297302,0.385681,0.703796,-0.517212
1470261518961973,-0.30072,0.385193,0.700745,-0.519714
1470261518982992,-0.305481,0.386108,0.697754,-0.520325
1470261518999505,-0.308655,0.386292,0.696228,-0.520386
1470261519020524,-0.308594,0.384033,0.696838,-0.521301
1470261519036540,-0.308228,0.383057,0.697021,-0.521912
1470261519059060,-0.309692,0.384094,0.69635,-0.52124
1470261519080578,-0.311768,0.385925,0.695557,-0.519714
1470261519096594,-0.313049,0.387268,0.694824,-0.518799
1470261519119617,-0.312927,0.386719,0.695007,-0.519104
1470261519140634,-0.312012,0.385254,0.695618,-0.52002
1470261519156647,-0.311157,0.383911,0.695984,-0.520935
1470261519186674,-0.310669,0.38385,0.695923,-0.521362
1470261519200690,-0.309143,0.382874,0.696838,-0.52179
1470261519222706,-0.308044,0.382507,0.697693,-0.521545
1470261519239221,-0.308289,0.384033,0.697632,-0.520386
1470261519260242,-0.308533,0.382874,0.698364,-0.520081
1470261519276755,-0.310852,0.381714,0.698486,-0.519409
1470261519299275,-0.311401,0.379761,0.699585,-0.519043
1470261519320310,-0.311401,0.378113,0.701111,-0.518188
1470261519337309,-0.312195,0.377869,0.702087,-0.516541
1470261519359331,-0.312378,0.378479,0.702942,-0.514832
1470261519381850,-0.310974,0.379211,0.704102,-0.513489
1470261519396863,-0.308594,0.379456,0.705505,-0.512878
1470261519419384,-0.30719,0.379517,0.706299,-0.512634
1470261519441903,-0.30719,0.379822,0.706055,-0.512695
1470261519456916,-0.308716,0.379578,0.706055,-0.511902
1470261519479437,-0.309937,0.37915,0.706909,-0.510376
1470261519508963,-0.309631,0.378113,0.708557,-0.509033
1470261519522977,-0.307373,0.376648,0.711365,-0.507568
1470261519546997,-0.304504,0.375305,0.715027,-0.505127
1470261519577525,-0.302307,0.375427,0.718689,-0.50116
1470261519583030,-0.299683,0.375488,0.723083,-0.496277
1470261519599051,-0.296509,0.375122,0.728394,-0.490662
1470261519621565,-0.29303,0.374817,0.734192,-0.484375
1470261519643083,-0.289185,0.375122,0.740234,-0.477234
1470261519659098,-0.284912,0.375122,0.746643,-0.469727
1470261519681620,-0.280518,0.374939,0.753113,-0.462097
1470261519704138,-0.276978,0.374939,0.759277,-0.454102
1470261519719155,-0.274109,0.374512,0.765259,-0.446045
1470261519748202,-0.27179,0.37384,0.770874,-0.438232
1470261519762747,-0.269653,0.373047,0.776001,-0.431213
1470261519779206,-0.268188,0.372314,0.780518,-0.424561
1470261519802230,-0.267639,0.37207,0.784302,-0.418091
1470261519822745,-0.268311,0.371521,0.787537,-0.412048
1470261519839261,-0.26947,0.369873,0.790588,-0.40686
1470261519861781,-0.270874,0.368347,0.792847,-0.402832
1470261519883801,-0.271912,0.36969,0.792786,-0.401001
1470261519899314,-0.2677,0.368286,0.793091,-0.404663
1470261519935854,-0.265076,0.366455,0.793884,-0.406372
1470261519942854,-0.266479,0.370361,0.791931,-0.405701
1470261519949859,-0.267822,0.373474,0.790527,-0.404724
1470261519964372,-0.26593,0.371826,0.791504,-0.405518
1470261519987393,-0.263611,0.369629,0.792847,-0.406494
1470261520009913,-0.263123,0.369873,0.792847,-0.406616
1470261520024927,-0.263245,0.371643,0.792114,-0.406311
1470261520047449,-0.263611,0.373413,0.79126,-0.406128
1470261520069969,-0.263428,0.374023,0.790955,-0.406311
1470261520084983,-0.262817,0.373962,0.791016,-0.406677
1470261520107501,-0.262268,0.373657,0.79126,-0.406799
1470261520129521,-0.261719,0.373596,0.791382,-0.406921
1470261520146037,-0.261536,0.374207,0.791321,-0.406677
1470261520167058,-0.26178,0.375305,0.790894,-0.40625
1470261520189575,-0.262268,0.376404,0.790405,-0.405945
1470261520207591,-0.261963,0.376953,0.790344,-0.405762
1470261520227109,-0.26123,0.377197,0.790527,-0.40564
1470261520249629,-0.26062,0.37738,0.790649,-0.405579
1470261520264643,-0.260132,0.377441,0.790771,-0.405579
1470261520287163,-0.259644,0.377502,0.790955,-0.405457
1470261520309682,-0.259521,0.377808,0.790894,-0.405457
1470261520324695,-0.259338,0.378174,0.790771,-0.405457
1470261520347217,-0.258728,0.378113,0.790955,-0.405518
1470261520369737,-0.257996,0.377869,0.791321,-0.405518
1470261520384753,-0.257263,0.377747,0.791626,-0.405457
1470261520410272,-0.256897,0.377991,0.791687,-0.405396
1470261520429790,-0.256958,0.378662,0.791443,-0.40509
1470261520444803,-0.257263,0.379822,0.791016,-0.404785
1470261520467325,-0.257385,0.380493,0.790649,-0.404724
1470261520492347,-0.257263,0.380676,0.790588,-0.404785
1470261520504858,-0.256958,0.380615,0.790649,-0.404907
1470261520534886,-0.256592,0.380432,0.790833,-0.405029
1470261520550402,-0.256226,0.379822,0.791138,-0.405151
1470261520567416,-0.25592,0.379395,0.79126,-0.405457
1470261520586933,-0.255676,0.378784,0.791565,-0.40564
1470261520609452,-0.255432,0.378479,0.791748,-0.405762
1470261520624965,-0.255188,0.37854,0.791809,-0.405701
1470261520646987,-0.254944,0.37854,0.79187,-0.405762
1470261520678514,-0.254639,0.378296,0.792053,-0.405884
1470261520685023,-0.254089,0.377686,0.792358,-0.406189
1470261520707040,-0.253601,0.377136,0.792664,-0.406311
1470261520729560,-0.253601,0.377136,0.792664,-0.406311
1470261520744573,-0.25354,0.377441,0.792664,-0.406067
1470261520770097,-0.25354,0.377441,0.792664,-0.406067
1470261520789615,-0.253601,0.37738,0.792664,-0.406067
1470261520804627,-0.253723,0.377441,0.792664,-0.405884
1470261520827149,-0.253906,0.377686,0.792603,-0.405762
1470261520849669,-0.25415,0.377991,0.792419,-0.40564
1470261520869688,-0.254395,0.378235,0.792358,-0.405457
1470261520887228,-0.254395,0.378479,0.792297,-0.405273
1470261520909721,-0.254395,0.378723,0.792297,-0.405029
1470261520927737,-0.254211,0.378845,0.792419,-0.404785
1470261520947256,-0.253906,0.379028,0.792542,-0.404541
1470261520969779,-0.253601,0.379333,0.792725,-0.404236
1470261520986294,-0.253357,0.379578,0.792847,-0.40387
1470261521007308,-0.253296,0.379822,0.792847,-0.403625
1470261521029828,-0.253296,0.380066,0.792847,-0.403381
1470261521045843,-0.253296,0.38031,0.792847,-0.403137
1470261521067364,-0.253235,0.380493,0.792908,-0.402893
1470261521089383,-0.253235,0.380554,0.792908,-0.402893
1470261521105897,-0.253235,0.380554,0.792908,-0.402893
1470261521127416,-0.253235,0.380554,0.792908,-0.402893
1470261521149936,-0.253235,0.380554,0.792908,-0.402893
1470261521165951,-0.253357,0.380676,0.792908,-0.40271
1470261521187470,-0.253357,0.380737,0.792908,-0.40271
1470261521209990,-0.253357,0.380737,0.792908,-0.40271
1470261521226005,-0.253357,0.380737,0.792908,-0.40271
1470261521247524,-0.253357,0.380737,0.792847,-0.40271
1470261521269544,-0.253357,0.380737,0.792847,-0.40271
1470261521287561,-0.253357,0.380981,0.792847,-0.402527
1470261521307630,-0.253357,0.381165,0.792908,-0.402283
1470261521329599,-0.253357,0.381348,0.792908,-0.402039
1470261521347614,-0.253418,0.381348,0.792908,-0.402039
1470261521367633,-0.253357,0.381348,0.792908,-0.402039
1470261521389653,-0.253357,0.381348,0.792908,-0.402039
1470261521407668,-0.253418,0.381531,0.792847,-0.401978
1470261521427186,-0.25354,0.381714,0.792725,-0.401855
1470261521449705,-0.253662,0.381958,0.792664,-0.401733
1470261521467724,-0.253845,0.382385,0.79248,-0.401611
1470261521487241,-0.254089,0.382935,0.792236,-0.401367
1470261521509759,-0.254089,0.383423,0.792114,-0.401184
1470261521527775,-0.254211,0.384216,0.79187,-0.400818
1470261521547294,-0.254639,0.385254,0.791382,-0.400513
1470261521569814,-0.255005,0.386414,0.790833,-0.400208
1470261521587830,-0.255432,0.388,0.790222,-0.399658
1470261521607347,-0.256348,0.389648,0.789429,-0.399109
1470261521629879,-0.257751,0.391113,0.788513,-0.398499
1470261521647383,-0.25885,0.391907,0.787964,-0.398132
1470261521667402,-0.259277,0.391663,0.787842,-0.398193
1470261521689925,-0.259277,0.390564,0.788147,-0.398804
1470261521707439,-0.259094,0.389221,0.788574,-0.399353
1470261521727455,-0.259033,0.38855,0.788757,-0.399719
1470261521749975,-0.259216,0.388855,0.788513,-0.39978
1470261521767493,-0.259399,0.389404,0.788208,-0.399658
1470261521787509,-0.259338,0.389709,0.788147,-0.399536
1470261521810029,-0.259033,0.389771,0.788208,-0.399658
1470261521827549,-0.258728,0.389343,0.78833,-0.399963
1470261521847076,-0.258606,0.388794,0.788391,-0.400452
1470261521869585,-0.258545,0.388489,0.788513,-0.400635
1470261521887599,-0.258789,0.388794,0.78833,-0.400452
1470261521910620,-0.258911,0.388794,0.78833,-0.400391
1470261521929637,-0.258545,0.388367,0.788452,-0.400757
1470261521947655,-0.257996,0.387695,0.788879,-0.40094
1470261521968674,-0.257629,0.387268,0.789124,-0.401062
1470261521989691,-0.257629,0.387268,0.789124,-0.401062
1470261522007707,-0.257507,0.387085,0.789124,-0.401367
1470261522028726,-0.257507,0.387085,0.789124,-0.401367
1470261522049748,-0.257446,0.387085,0.789124,-0.401367
1470261522067761,-0.257446,0.387085,0.789124,-0.401367
1470261522088780,-0.257446,0.387085,0.789063,-0.401489
1470261522109800,-0.257263,0.386597,0.789307,-0.401611
1470261522127815,-0.25708,0.386292,0.78949,-0.401733
1470261522155840,-0.257019,0.386108,0.789612,-0.401672
1470261522169852,-0.256836,0.385803,0.789795,-0.401672
1470261522187368,-0.256714,0.385498,0.789978,-0.401733
1470261522208887,-0.256592,0.385315,0.7901,-0.401733
1470261522229906,-0.256592,0.385315,0.7901,-0.401733
1470261522247422,-0.256592,0.385315,0.7901,-0.401733
1470261522269943,-0.256592,0.385315,0.7901,-0.401733
1470261522289960,-0.256592,0.385315,0.7901,-0.401733
1470261522312480,-0.256592,0.385315,0.7901,-0.401733
1470261522329996,-0.256592,0.385315,0.7901,-0.401733
1470261522350015,-0.256592,0.385132,0.790222,-0.401733
1470261522367532,-0.256531,0.384949,0.790344,-0.401733
1470261522390051,-0.256409,0.384705,0.790466,-0.401672
1470261522410568,-0.256409,0.384705,0.790466,-0.401672
1470261522432089,-0.256409,0.384705,0.790466,-0.401672
1470261522450105,-0.256409,0.384705,0.790466,-0.401672
1470261522469628,-0.256409,0.384705,0.790466,-0.401672
1470261522486638,-0.256409,0.384705,0.790466,-0.401672
1470261522509157,-0.256592,0.384827,0.790466,-0.40155
1470261522530175,-0.256592,0.384827,0.790466,-0.401489
1470261522546692,-0.256531,0.384521,0.790649,-0.401428
1470261522569213,-0.256348,0.384216,0.790894,-0.401428
1470261522590730,-0.256348,0.384216,0.790894,-0.401428
1470261522606745,-0.256348,0.384216,0.790894,-0.401428
1470261522629265,-0.256348,0.384216,0.790894,-0.401428
1470261522650785,-0.256348,0.384216,0.790894,-0.401428
1470261522666801,-0.256348,0.384216,0.790894,-0.401428
1470261522689319,-0.256348,0.383972,0.791016,-0.401489
1470261522710340,-0.256348,0.383911,0.791016,-0.401428
1470261522726853,-0.256409,0.384033,0.790955,-0.401428
1470261522748873,-0.256592,0.384338,0.790771,-0.401306
1470261522770392,-0.256775,0.384521,0.79071,-0.401245
1470261522786906,-0.256775,0.384521,0.79071,-0.401245
1470261522809428,-0.256775,0.384399,0.790771,-0.401123
1470261522830446,-0.256592,0.384155,0.790955,-0.401123
1470261522846961,-0.256592,0.384155,0.790955,-0.401123
1470261522869483,-0.256592,0.384094,0.791016,-0.401123
1470261522890499,-0.256592,0.384094,0.791016,-0.401123
1470261522907014,-0.256592,0.384094,0.791016,-0.401123
1470261522929535,-0.25647,0.383911,0.791138,-0.401123
1470261522950556,-0.256409,0.383667,0.79126,-0.401184
1470261522967068,-0.256409,0.383667,0.79126,-0.401123
1470261522989588,-0.256409,0.383667,0.79126,-0.401123
1470261523010607,-0.256409,0.383667,0.79126,-0.401123
1470261523026622,-0.256409,0.383667,0.79126,-0.401123
1470261523049142,-0.256409,0.383728,0.79126,-0.401123
1470261523070662,-0.256409,0.383667,0.79126,-0.401123
1470261523086677,-0.256409,0.383667,0.79126,-0.401123
1470261523109197,-0.256409,0.383667,0.79126,-0.401123
1470261523130215,-0.25647,0.383728,0.79126,-0.401123
1470261523146730,-0.25647,0.383728,0.79126,-0.401123
1470261523169251,-0.25647,0.383728,0.79126,-0.401123
1470261523191770,-0.25647,0.383728,0.79126,-0.401123
1470261523206784,-0.25647,0.383728,0.79126,-0.401123
1470261523229304,-0.25647,0.383667,0.79126,-0.401123
1470261523251827,-0.25647,0.383667,0.79126,-0.401123
1470261523266839,-0.25647,0.383667,0.79126,-0.401123
1470261523289358,-0.25647,0.383667,0.79126,-0.401123
1470261523311878,-0.256348,0.383545,0.791382,-0.401123
1470261523325891,-0.256348,0.383484,0.791382,-0.401123
1470261523349412,-0.256348,0.383484,0.791382,-0.401123
1470261523371932,-0.256348,0.383484,0.791382,-0.401123
1470261523394454,-0.256348,0.383484,0.791382,-0.401123
1470261523409466,-0.256348,0.383484,0.791382,-0.401123
1470261523431985,-0.256348,0.383484,0.791382,-0.401123
1470261523446499,-0.256348,0.383484,0.791382,-0.401123
1470261523477026,-0.256348,0.383484,0.791382,-0.401123
1470261523492040,-0.256287,0.383484,0.791382,-0.401123
1470261523506054,-0.256287,0.383484,0.791382,-0.401184
1470261523529573,-0.256287,0.383484,0.791382,-0.401123
1470261523552095,-0.256287,0.383484,0.791382,-0.401184
1470261523566111,-0.256287,0.383484,0.791382,-0.401184
1470261523589627,-0.256287,0.383484,0.791382,-0.401184
1470261523611647,-0.256287,0.383484,0.791382,-0.401184
1470261523626160,-0.256348,0.383606,0.79126,-0.401245
1470261523649181,-0.256348,0.383606,0.79126,-0.401245
1470261523671701,-0.256348,0.383606,0.79126,-0.401245
1470261523692749,-0.256348,0.383545,0.79126,-0.401245
1470261523709235,-0.256348,0.383545,0.79126,-0.401245
1470261523731756,-0.256287,0.383545,0.791321,-0.401245
1470261523752776,-0.256287,0.383545,0.791321,-0.401245
1470261523769292,-0.256287,0.383545,0.791321,-0.401306
1470261523791810,-0.256165,0.383423,0.791382,-0.401306
1470261523821836,-0.255859,0.383301,0.791443,-0.401489
1470261523829342,-0.255737,0.383057,0.791504,-0.401611
1470261523851866,-0.256714,0.382935,0.79071,-0.40271
1470261523872885,-0.257751,0.38269,0.789917,-0.40387
1470261523889398,-0.258118,0.38208,0.789612,-0.404785
1470261523912918,-0.257935,0.381348,0.789734,-0.405396
1470261523932935,-0.257813,0.381042,0.789856,-0.405518
1470261523949451,-0.257751,0.381042,0.789917,-0.405396
1470261523979477,-0.257629,0.381104,0.7901,-0.40509
1470261523992989,-0.257446,0.381348,0.790222,-0.404663
