timestamp,x,y,z,w
1472133267274504,-0.195801,0.154785,-0.59436,0.764465
1472133267289518,-0.195801,0.154785,-0.59436,0.764465
1472133267313540,-0.195801,0.154785,-0.59436,0.764465
1472133267335058,-0.195801,0.154785,-0.59436,0.764465
1472133267350072,-0.195801,0.154846,-0.59436,0.764465
1472133267373594,-0.195801,0.154846,-0.59436,0.764465
1472133267395113,-0.195801,0.154846,-0.59436,0.764465
1472133267410128,-0.195801,0.154846,-0.594299,0.764465
1472133267449162,-0.195801,0.154846,-0.594299,0.764465
1472133267451164,-0.195801,0.154846,-0.594299,0.764465
1472133267470682,-0.195801,0.154907,-0.594299,0.764465
1472133267485695,-0.195801,0.154907,-0.594299,0.764465
1472133267509216,-0.195801,0.154907,-0.594299,0.764465
1472133267530735,-0.195801,0.154907,-0.594299,0.764465
1472133267574775,-0.195801,0.154907,-0.594299,0.764465
1472133267584784,-0.195801,0.154907,-0.594299,0.764465
1472133267591290,-0.195801,0.154907,-0.594299,0.764465
1472133267606304,-0.195801,0.154968,-0.594299,0.764465
1472133267628824,-0.195801,0.154968,-0.594299,0.764465
1472133267659352,-0.195557,0.154846,-0.594299,0.764587
1472133267673864,-0.195557,0.154846,-0.594299,0.764587
1472133267696885,-0.195557,0.154846,-0.594299,0.764587
1472133267719405,-0.195557,0.154846,-0.594299,0.764587
1472133267733919,-0.195557,0.154907,-0.594299,0.764587
1472133267756940,-0.195618,0.154907,-0.594299,0.764587
1472133267779460,-0.195557,0.154907,-0.594299,0.764587
1472133267793472,-0.19574,0.15509,-0.594238,0.764526
1472133267816994,-0.19574,0.15509,-0.594238,0.764526
1472133267839514,-0.19574,0.15509,-0.594238,0.764526
1472133267853527,-0.19574,0.15509,-0.594238,0.764526
1472133267877048,-0.19574,0.15509,-0.594238,0.764526
1472133267899568,-0.19574,0.155151,-0.594238,0.764526
1472133267920086,-0.19574,0.155151,-0.594238,0.764526
1472133267936601,-0.19574,0.155151,-0.594238,0.764526
1472133267959122,-0.19574,0.155151,-0.594238,0.764526
1472133267980641,-0.19574,0.155151,-0.594238,0.764526
1472133267996656,-0.19574,0.155212,-0.594238,0.764526
1472133268019176,-0.195984,0.155273,-0.594238,0.764465
1472133268040695,-0.195984,0.155334,-0.594238,0.764465
1472133268056711,-0.195984,0.155334,-0.594238,0.764465
1472133268079230,-0.196045,0.155334,-0.594238,0.764465
1472133268100249,-0.196045,0.155334,-0.594238,0.764404
1472133268124270,-0.196045,0.155334,-0.594238,0.764404
1472133268139285,-0.196045,0.155334,-0.594177,0.764404
1472133268160304,-0.195923,0.155273,-0.594177,0.764465
1472133268176819,-0.195923,0.155273,-0.594177,0.764465
1472133268199338,-0.195923,0.155273,-0.594177,0.764465
1472133268220358,-0.195923,0.155273,-0.594177,0.764465
1472133268236872,-0.195923,0.155273,-0.594177,0.764465
1472133268259393,-0.195923,0.155273,-0.594177,0.764465
1472133268280412,-0.195923,0.155273,-0.594177,0.764465
1472133268296927,-0.195984,0.155273,-0.594177,0.764465
1472133268319447,-0.195984,0.155273,-0.594177,0.764465
1472133268340466,-0.195984,0.155273,-0.594177,0.764465
1472133268356981,-0.195984,0.155273,-0.594177,0.764465
1472133268379502,-0.195984,0.155273,-0.594177,0.764465
1472133268402022,-0.195984,0.155273,-0.594177,0.764465
1472133268417035,-0.195984,0.155273,-0.594177,0.764465
1472133268439557,-0.195984,0.155273,-0.594177,0.764465
1472133268461576,-0.195984,0.155273,-0.594177,0.764465
1472133268476589,-0.195984,0.155273,-0.594177,0.764465
1472133268499109,-0.195984,0.155273,-0.594177,0.764465
1472133268521630,-0.195984,0.155273,-0.594177,0.764465
1472133268536143,-0.196045,0.155273,-0.594177,0.764465
1472133268565169,-0.196045,0.155273,-0.594177,0.764465
1472133268581684,-0.196045,0.155273,-0.594177,0.764465
1472133268604204,-0.196045,0.155273,-0.594177,0.764465
1472133268625223,-0.196106,0.155273,-0.594177,0.764465
1472133268641739,-0.195923,0.155212,-0.594238,0.764465
1472133268664259,-0.195923,0.155151,-0.594238,0.764465
1472133268685277,-0.195923,0.155151,-0.594238,0.764465
1472133268701793,-0.195984,0.155151,-0.594238,0.764465
1472133268724312,-0.195984,0.155151,-0.594238,0.764465
1472133268745331,-0.195984,0.155151,-0.594238,0.764465
1472133268761847,-0.196045,0.155151,-0.594238,0.764465
1472133268784367,-0.196045,0.155151,-0.594238,0.764465
1472133268805385,-0.196167,0.155273,-0.594177,0.764404
1472133268821900,-0.196228,0.155273,-0.594177,0.764404
1472133268844421,-0.195984,0.155273,-0.594238,0.764404
1472133268866941,-0.195984,0.155273,-0.594238,0.764404
1472133268881955,-0.195984,0.155273,-0.594238,0.764404
1472133268904474,-0.195984,0.155212,-0.594238,0.764404
1472133268926995,-0.196045,0.155212,-0.594238,0.764404
1472133268942009,-0.196045,0.155273,-0.594238,0.764404
1472133268964529,-0.196045,0.155273,-0.594238,0.764404
1472133268987049,-0.196045,0.155273,-0.594238,0.764404
1472133269008069,-0.196045,0.155273,-0.594238,0.764404
1472133269024083,-0.196106,0.155273,-0.594238,0.764404
1472133269046604,-0.196106,0.155273,-0.594238,0.764404
1472133269061117,-0.196106,0.155273,-0.594238,0.764404
1472133269084137,-0.196106,0.155273,-0.594238,0.764404
1472133269106658,-0.196106,0.155334,-0.594238,0.764404
1472133269121170,-0.196106,0.155273,-0.594238,0.764404
1472133269144192,-0.196106,0.155334,-0.594238,0.764404
1472133269166712,-0.196106,0.155334,-0.594238,0.764404
1472133269181226,-0.196106,0.155334,-0.594238,0.764404
1472133269204246,-0.196106,0.155334,-0.594238,0.764404
1472133269234273,-0.196045,0.155334,-0.594238,0.764404
1472133269241279,-0.196106,0.155334,-0.594238,0.764404
1472133269264300,-0.196106,0.155334,-0.594238,0.764404
1472133269286821,-0.196106,0.155334,-0.594238,0.764404
1472133269301333,-0.196106,0.155334,-0.594238,0.764404
1472133269324355,-0.196106,0.155334,-0.594238,0.764404
1472133269346874,-0.196106,0.155334,-0.594238,0.764404
1472133269361387,-0.196106,0.155334,-0.594238,0.764404
1472133269384408,-0.196106,0.155334,-0.594238,0.764404
1472133269406929,-0.196106,0.155334,-0.594238,0.764404
1472133269427949,-0.196106,0.155334,-0.594238,0.764404
1472133269444463,-0.196167,0.155334,-0.594238,0.764404
1472133269466983,-0.196167,0.155334,-0.594238,0.764404
1472133269488002,-0.196167,0.155334,-0.594238,0.764343
1472133269504016,-0.196167,0.155334,-0.594238,0.764343
1472133269527037,-0.196167,0.155334,-0.594238,0.764343
1472133269548056,-0.196167,0.155396,-0.594238,0.764343
1472133269564071,-0.196167,0.155396,-0.594238,0.764343
1472133269586591,-0.196167,0.155396,-0.594238,0.764343
1472133269608111,-0.196167,0.155396,-0.594238,0.764343
1472133269624124,-0.196045,0.155273,-0.594238,0.764404
1472133269646645,-0.196045,0.155273,-0.594238,0.764404
1472133269667664,-0.196045,0.155273,-0.594238,0.764404
1472133269684179,-0.196045,0.155273,-0.594238,0.764404
1472133269706699,-0.196045,0.155273,-0.594238,0.764404
1472133269727718,-0.196045,0.155273,-0.594238,0.764404
1472133269744233,-0.196045,0.155273,-0.594238,0.764404
1472133269749739,-0.196045,0.155273,-0.594238,0.764404
1472133269772259,-0.196106,0.155273,-0.594238,0.764404
1472133269794779,-0.195862,0.155273,-0.594238,0.764465
1472133269809792,-0.195862,0.155273,-0.594238,0.764465
1472133269832314,-0.196045,0.155396,-0.594238,0.764404
1472133269854832,-0.196045,0.155396,-0.594238,0.764404
1472133269869846,-0.196045,0.155396,-0.594238,0.764404
1472133269892367,-0.196045,0.155396,-0.594238,0.764404
1472133269914887,-0.196106,0.155396,-0.594238,0.764404
1472133269929900,-0.196106,0.155396,-0.594238,0.764404
1472133269952420,-0.196106,0.155396,-0.594238,0.764404
1472133269974947,-0.196106,0.155396,-0.594238,0.764404
1472133269989961,-0.196106,0.155396,-0.594238,0.764404
1472133270011981,-0.196106,0.155396,-0.594238,0.764404
1472133270035000,-0.196106,0.155396,-0.594238,0.764404
1472133270051020,-0.196106,0.155396,-0.594238,0.764404
1472133270072043,-0.196106,0.155457,-0.594238,0.764404
1472133270094063,-0.196106,0.155457,-0.594177,0.764404
1472133270111078,-0.196106,0.155457,-0.594177,0.764404
1472133270132098,-0.196106,0.155457,-0.594177,0.764404
1472133270154623,-0.196167,0.155457,-0.594177,0.764404
1472133270171144,-0.196167,0.155457,-0.594177,0.764404
1472133270192163,-0.196167,0.155457,-0.594177,0.764404
1472133270214183,-0.196167,0.155457,-0.594177,0.764404
1472133270231198,-0.196167,0.155457,-0.594177,0.764404
1472133270252223,-0.196167,0.155457,-0.594177,0.764343
1472133270274253,-0.196167,0.155457,-0.594177,0.764404
1472133270291266,-0.196167,0.155457,-0.594177,0.764343
1472133270312285,-0.196167,0.155457,-0.594177,0.764343
1472133270334304,-0.196167,0.155457,-0.594177,0.764343
1472133270351325,-0.196167,0.155457,-0.594177,0.764343
1472133270372345,-0.196167,0.155457,-0.594177,0.764343
1472133270394865,-0.196167,0.155457,-0.594177,0.764343
1472133270411379,-0.196228,0.155457,-0.594177,0.764343
1472133270432398,-0.196228,0.155457,-0.594177,0.764343
1472133270454919,-0.196228,0.155457,-0.594177,0.764343
1472133270472936,-0.196228,0.155457,-0.594177,0.764343
1472133270492453,-0.196289,0.155457,-0.594177,0.764343
1472133270514472,-0.196289,0.155518,-0.594177,0.764343
1472133270532493,-0.196289,0.155457,-0.594177,0.764343
1472133270552509,-0.196167,0.155396,-0.594177,0.764404
1472133270574530,-0.196167,0.155396,-0.594177,0.764404
1472133270597550,-0.196167,0.155396,-0.594177,0.764404
1472133270612570,-0.196228,0.155396,-0.594177,0.764404
1472133270634596,-0.196228,0.155396,-0.594177,0.764404
1472133270656619,-0.196228,0.155396,-0.594177,0.764404
1472133270671629,-0.196228,0.155396,-0.594177,0.764404
1472133270694650,-0.196228,0.155396,-0.594177,0.764404
1472133270717177,-0.196228,0.155396,-0.594177,0.764404
1472133270731695,-0.196228,0.155396,-0.594177,0.764404
1472133270754717,-0.196228,0.155396,-0.594177,0.764404
1472133270776737,-0.196228,0.155396,-0.594177,0.764404
1472133270791750,-0.196228,0.155457,-0.594177,0.764404
1472133270814776,-0.196228,0.155457,-0.594177,0.764404
1472133270836800,-0.196228,0.155457,-0.594177,0.764404
1472133270851814,-0.196228,0.155457,-0.594177,0.764404
1472133270874836,-0.196289,0.155457,-0.594177,0.764404
1472133270896856,-0.196289,0.155457,-0.594177,0.764404
1472133270912374,-0.196289,0.155457,-0.594177,0.764404
1472133270934895,-0.196289,0.155457,-0.594177,0.764404
1472133270957415,-0.196289,0.155457,-0.594177,0.764404
1472133270972429,-0.196289,0.155457,-0.594177,0.764404
1472133270994950,-0.196289,0.155457,-0.594177,0.764404
1472133271017469,-0.196289,0.155457,-0.594177,0.764404
1472133271032483,-0.196289,0.155457,-0.594177,0.764343
1472133271055003,-0.196289,0.155457,-0.594177,0.764343
1472133271077523,-0.19635,0.155457,-0.594177,0.764343
1472133271092538,-0.19635,0.155457,-0.594177,0.764343
1472133271115057,-0.19635,0.155457,-0.594177,0.764343
1472133271137578,-0.19635,0.155457,-0.594177,0.764343
1472133271152591,-0.19635,0.155457,-0.594177,0.764343
1472133271174611,-0.196411,0.155457,-0.594177,0.764343
1472133271197632,-0.196411,0.155457,-0.594177,0.764343
1472133271213647,-0.196411,0.155457,-0.594177,0.764343
1472133271234665,-0.196411,0.155457,-0.594177,0.764343
1472133271257186,-0.196411,0.155457,-0.594177,0.764343
1472133271273702,-0.196411,0.155457,-0.594177,0.764343
1472133271294719,-0.196411,0.155457,-0.594177,0.764343
1472133271317240,-0.196411,0.155457,-0.594177,0.764343
1472133271333755,-0.196411,0.155457,-0.594177,0.764343
1472133271354774,-0.196289,0.155396,-0.594177,0.764343
1472133271377295,-0.196289,0.155396,-0.594177,0.764343
1472133271393810,-0.196289,0.155396,-0.594177,0.764343
1472133271414829,-0.196289,0.155396,-0.594177,0.764343
1472133271437349,-0.196289,0.155396,-0.594177,0.764343
1472133271453863,-0.196106,0.155396,-0.594177,0.764404
1472133271474883,-0.195984,0.155273,-0.594177,0.764465
1472133271497403,-0.195984,0.155273,-0.594177,0.764465
1472133271514918,-0.195984,0.155273,-0.594177,0.764465
1472133271534936,-0.195984,0.155273,-0.594177,0.764465
1472133271557457,-0.195984,0.155273,-0.594177,0.764465
1472133271574973,-0.195984,0.155273,-0.594177,0.764465
1472133271594990,-0.195984,0.155273,-0.594177,0.764465
1472133271617511,-0.195984,0.155273,-0.594177,0.764465
1472133271635027,-0.196045,0.155273,-0.594177,0.764465
1472133271655045,-0.195862,0.155273,-0.594177,0.764526
1472133271677565,-0.195862,0.155273,-0.594177,0.764526
1472133271695081,-0.195923,0.155273,-0.594177,0.764465
1472133271714599,-0.195923,0.155273,-0.594177,0.764465
1472133271737119,-0.195923,0.155273,-0.594177,0.764465
1472133271759640,-0.195923,0.155273,-0.594177,0.764465
1472133271774653,-0.195984,0.155273,-0.594177,0.764465
1472133271797173,-0.195984,0.155334,-0.594177,0.764465
1472133271819694,-0.195984,0.155334,-0.594177,0.764465
1472133271834708,-0.195984,0.155334,-0.594177,0.764465
1472133271857228,-0.195984,0.155334,-0.594177,0.764465
1472133271879748,-0.196045,0.155334,-0.594177,0.764465
1472133271894762,-0.196045,0.155334,-0.594177,0.764465
1472133271917282,-0.196045,0.155334,-0.594177,0.764465
1472133271939803,-0.196045,0.155334,-0.594177,0.764465
1472133271954816,-0.196045,0.155334,-0.594177,0.764465
1472133271977336,-0.196045,0.155334,-0.594177,0.764465
1472133271999857,-0.196045,0.155396,-0.594177,0.764465
1472133272014870,-0.196045,0.155396,-0.594177,0.764465
1472133272037390,-0.196106,0.155396,-0.594177,0.764465
1472133272059910,-0.196106,0.155396,-0.594177,0.764465
1472133272074924,-0.196106,0.155396,-0.594177,0.764404
1472133272097444,-0.196106,0.155457,-0.594177,0.764404
1472133272119964,-0.196106,0.155457,-0.594116,0.764404
1472133272134978,-0.196167,0.155457,-0.594116,0.764404
1472133272157499,-0.196167,0.155457,-0.594116,0.764404
1472133272180018,-0.196167,0.155457,-0.594116,0.764404
1472133272196534,-0.196167,0.155457,-0.594116,0.764404
1472133272217552,-0.196167,0.155457,-0.594116,0.764404
1472133272240074,-0.196167,0.155457,-0.594116,0.764404
1472133272255087,-0.196228,0.155518,-0.594116,0.764404
1472133272277607,-0.196228,0.155518,-0.594116,0.764404
1472133272299627,-0.196228,0.155518,-0.594116,0.764404
1472133272316143,-0.196228,0.155518,-0.594116,0.764404
1472133272337160,-0.196228,0.155518,-0.594116,0.764404
1472133272359681,-0.196045,0.155457,-0.594116,0.764465
1472133272376196,-0.196106,0.155457,-0.594116,0.764465
1472133272397216,-0.196106,0.155457,-0.594116,0.764465
1472133272419736,-0.196106,0.155457,-0.594116,0.764465
1472133272436250,-0.196106,0.155457,-0.594116,0.764465
1472133272457270,-0.196167,0.155518,-0.594116,0.764465
1472133272479790,-0.196167,0.155518,-0.594116,0.764465
1472133272496305,-0.196167,0.155518,-0.594116,0.764465
1472133272517323,-0.196167,0.155518,-0.594116,0.764465
1472133272539844,-0.196167,0.155518,-0.594116,0.764465
1472133272556359,-0.196228,0.155518,-0.594116,0.764404
1472133272577378,-0.196228,0.155579,-0.594055,0.764404
1472133272599898,-0.196228,0.155579,-0.594116,0.764404
1472133272616413,-0.196289,0.155579,-0.594055,0.764404
1472133272637432,-0.196228,0.155579,-0.594055,0.764404
1472133272659952,-0.196228,0.155579,-0.594055,0.764404
1472133272677468,-0.196289,0.155579,-0.594055,0.764404
1472133272697486,-0.196289,0.15564,-0.594055,0.764404
1472133272720006,-0.196289,0.15564,-0.594055,0.764404
1472133272738022,-0.196289,0.15564,-0.594055,0.764404
1472133272757540,-0.196289,0.15564,-0.594055,0.764404
1472133272780060,-0.196289,0.15564,-0.594055,0.764404
1472133272797576,-0.19635,0.15564,-0.594055,0.764404
1472133272817594,-0.196289,0.15564,-0.594055,0.764404
1472133272839615,-0.196289,0.15564,-0.594055,0.764404
1472133272857630,-0.196289,0.15564,-0.594055,0.764404
1472133272877148,-0.196289,0.155701,-0.594055,0.764404
1472133272899668,-0.196289,0.15564,-0.594055,0.764404
1472133272917684,-0.19635,0.15564,-0.594055,0.764404
1472133272937202,-0.19635,0.155701,-0.594055,0.764404
1472133272959722,-0.19635,0.155701,-0.594055,0.764404
1472133272982243,-0.196655,0.155762,-0.593994,0.764343
1472133272997257,-0.19696,0.155884,-0.593994,0.764282
1472133273019777,-0.197388,0.155945,-0.593872,0.764221
1472133273042296,-0.197754,0.156006,-0.59375,0.76416
1472133273057310,-0.198059,0.156006,-0.59375,0.76416
1472133273079335,-0.198669,0.156067,-0.593567,0.764099
1472133273102356,-0.19989,0.156128,-0.593323,0.763916
1472133273117369,-0.201721,0.156433,-0.592896,0.763733
1472133273139389,-0.203674,0.156921,-0.592407,0.763489
1472133273162413,-0.205017,0.157043,-0.592102,0.763306
1472133273177429,-0.205566,0.15686,-0.592041,0.763306
1472133273199450,-0.205566,0.156616,-0.592041,0.763367
1472133273222470,-0.205566,0.156616,-0.592041,0.763367
1472133273237483,-0.205566,0.156616,-0.592041,0.763367
1472133273260007,-0.205627,0.156616,-0.592041,0.763367
1472133273282393,-0.205444,0.156494,-0.592102,0.763367
1472133273298408,-0.2052,0.156372,-0.592163,0.763428
1472133273319427,-0.204834,0.156372,-0.592163,0.763489
1472133273342448,-0.204407,0.156189,-0.592224,0.763611
1472133273358969,-0.203918,0.156189,-0.592346,0.763611
1472133273379491,-0.203613,0.15625,-0.592407,0.763611
1472133273402512,-0.203613,0.15625,-0.592407,0.763611
1472133273418527,-0.203308,0.156189,-0.592468,0.763672
1472133273439547,-0.20282,0.155945,-0.59259,0.763794
1472133273462572,-0.202393,0.155762,-0.592651,0.763916
1472133273478593,-0.202393,0.155762,-0.592651,0.763916
1472133273499612,-0.202454,0.155762,-0.592651,0.763855
1472133273522632,-0.202393,0.155945,-0.592651,0.763855
1472133273538646,-0.202393,0.155945,-0.592651,0.763855
1472133273559673,-0.202148,0.156006,-0.592712,0.763855
1472133273581701,-0.201782,0.156006,-0.592773,0.763916
1472133273598717,-0.201538,0.156128,-0.592834,0.763916
1472133273619735,-0.201538,0.156128,-0.592834,0.763916
1472133273641755,-0.201477,0.156067,-0.592834,0.763916
1472133273660276,-0.201477,0.156067,-0.592834,0.763916
1472133273679795,-0.201477,0.156067,-0.592834,0.763916
1472133273702315,-0.201599,0.155823,-0.592834,0.763916
1472133273720331,-0.202026,0.155762,-0.592712,0.763977
1472133273739849,-0.202881,0.155884,-0.592346,0.763977
1472133273762368,-0.203674,0.155884,-0.592041,0.763977
1472133273780385,-0.204468,0.155701,-0.591797,0.763977
1472133273799903,-0.205383,0.155579,-0.591553,0.763977
1472133273822423,-0.207214,0.155396,-0.591125,0.763855
1472133273839940,-0.209717,0.155273,-0.590454,0.763733
1472133273859958,-0.213623,0.156311,-0.589355,0.763245
1472133273882478,-0.217896,0.157776,-0.587585,0.763123
1472133273904997,-0.221069,0.158325,-0.586121,0.763184
1472133273920011,-0.222961,0.157227,-0.585144,0.763672
1472133273942531,-0.224609,0.156189,-0.58374,0.764465
1472133273965052,-0.226746,0.155823,-0.580139,0.766602
1472133273980065,-0.230652,0.157654,-0.575439,0.768677
1472133274002586,-0.232788,0.160522,-0.570007,0.771484
1472133274024112,-0.232422,0.164429,-0.563293,0.775696
1472133274039124,-0.230713,0.169189,-0.554932,0.781128
1472133274062145,-0.228149,0.174072,-0.544556,0.788086
1472133274084164,-0.225769,0.178284,-0.531677,0.79657
1472133274099685,-0.224304,0.180603,-0.516235,0.80658
1472133274122212,-0.222534,0.181091,-0.497559,0.818604
1472133274144233,-0.220093,0.178894,-0.475403,0.832764
1472133274159245,-0.217773,0.173828,-0.450012,0.848389
1472133274182265,-0.216003,0.166077,-0.421814,0.864746
1472133274204293,-0.214478,0.156128,-0.391174,0.881226
1472133274221310,-0.213196,0.144043,-0.358643,0.897278
1472133274242328,-0.212402,0.130554,-0.325134,0.91217
1472133274264348,-0.211243,0.116272,-0.291626,0.925598
1472133274281364,-0.209534,0.10199,-0.258972,0.937317
1472133274302387,-0.207214,0.0883789,-0.228455,0.947083
1472133274324412,-0.203979,0.0748291,-0.200623,0.955261
1472133274341429,-0.200195,0.0608521,-0.174866,0.962097
1472133274362447,-0.197449,0.0474243,-0.151672,0.967346
1472133274384471,-0.196045,0.0359497,-0.131714,0.971008
1472133274401489,-0.194336,0.0236206,-0.115173,0.973877
1472133274422511,-0.192383,0.0123901,-0.101196,0.975952
1472133274444532,-0.190735,0.00274658,-0.090332,0.977478
1472133274461547,-0.187073,-0.00445557,-0.0827637,0.978821
1472133274481564,-0.184143,-0.00933838,-0.0773926,0.979797
1472133274504590,-0.184509,-0.0134888,-0.0740967,0.979919
1472133274520604,-0.186768,-0.017334,-0.0731201,0.979492
1472133274541624,-0.188049,-0.0203247,-0.074585,0.979065
1472133274564645,-0.187134,-0.0223389,-0.0783691,0.978943
1472133274582661,-0.186035,-0.0236206,-0.0831299,0.978699
1472133274602182,-0.186646,-0.0239868,-0.088562,0.978088
1472133274624705,-0.18866,-0.0236206,-0.0944214,0.977173
1472133274642722,-0.190857,-0.0232544,-0.100525,0.976135
1472133274664741,-0.191895,-0.0227051,-0.106689,0.975342
1472133274684760,-0.192261,-0.0217285,-0.112793,0.974548
1472133274702784,-0.193054,-0.0205078,-0.11853,0.973755
1472133274721810,-0.194397,-0.019165,-0.123718,0.9729
1472133274744832,-0.195984,-0.0179443,-0.128113,0.972046
1472133274762848,-0.197632,-0.0169678,-0.131775,0.971191
1472133274781864,-0.199585,-0.0163574,-0.134705,0.970398
1472133274804392,-0.201233,-0.0157471,-0.136841,0.969788
1472133274822658,-0.203125,-0.0151367,-0.137817,0.969238
1472133274841675,-0.205078,-0.0145874,-0.138123,0.968811
1472133274864697,-0.206604,-0.0140991,-0.137817,0.968567
1472133274882713,-0.207886,-0.0136108,-0.137329,0.968323
1472133274902239,-0.209595,-0.0134277,-0.13678,0.968079
1472133274924766,-0.211182,-0.0137329,-0.13623,0.967773
1472133274942783,-0.212769,-0.0144653,-0.135803,0.967468
1472133274961799,-0.214355,-0.0152588,-0.135376,0.967163
1472133274984820,-0.215759,-0.0159302,-0.134888,0.966919
1472133275002844,-0.216797,-0.0166626,-0.13446,0.966736
1472133275023868,-0.218079,-0.0176392,-0.134216,0.966492
1472133275044888,-0.219299,-0.0188599,-0.134277,0.966187
1472133275062904,-0.220337,-0.0200806,-0.134521,0.965881
1472133275081921,-0.22113,-0.0213623,-0.134888,0.965637
1472133275104946,-0.222107,-0.022583,-0.135437,0.965271
1472133275122969,-0.223022,-0.0236816,-0.13623,0.964966
1472133275141987,-0.223206,-0.0239258,-0.136902,0.964783
1472133275165007,-0.22229,-0.0233154,-0.137329,0.964966
1472133275183023,-0.221619,-0.0224609,-0.137512,0.965088
1472133275204046,-0.221863,-0.0217896,-0.137756,0.965027
1472133275225073,-0.222473,-0.0213013,-0.138062,0.964844
1472133275243089,-0.221802,-0.020813,-0.138245,0.965027
1472133275263106,-0.219971,-0.0202637,-0.138306,0.965393
1472133275284125,-0.218567,-0.0194702,-0.138489,0.965698
1472133275307158,-0.218323,-0.0186157,-0.138733,0.965759
1472133275323171,-0.218567,-0.0177002,-0.138977,0.965698
1472133275344190,-0.218384,-0.0167847,-0.13916,0.965698
1472133275367209,-0.21759,-0.0159302,-0.139465,0.965881
1472133275383224,-0.216614,-0.0150757,-0.139832,0.966064
1472133275404747,-0.21582,-0.0141602,-0.140259,0.966187
1472133275427273,-0.215515,-0.0130615,-0.140564,0.966187
1472133275443288,-0.215515,-0.012146,-0.14093,0.966187
1472133275464308,-0.215759,-0.0112915,-0.141357,0.966064
1472133275487330,-0.215942,-0.010498,-0.141785,0.966003
1472133275511358,-0.216125,-0.00970459,-0.142212,0.965881
1472133275524370,-0.216309,-0.0090332,-0.142456,0.96582
1472133275547391,-0.216614,-0.00848389,-0.1427,0.965698
1472133275565407,-0.21698,-0.00799561,-0.143005,0.965576
1472133275584433,-0.217285,-0.00762939,-0.143372,0.965454
1472133275607471,-0.217468,-0.00726318,-0.143677,0.965393
1472133275625485,-0.217712,-0.00701904,-0.143921,0.965271
1472133275644535,-0.218018,-0.00671387,-0.144226,0.96521
1472133275667524,-0.21814,-0.00640869,-0.144531,0.965088
1472133275684542,-0.218262,-0.00616455,-0.144775,0.965088
1472133275705063,-0.218384,-0.00585938,-0.144958,0.965027
1472133275727221,-0.218506,-0.00561523,-0.14502,0.964966
1472133275745240,-0.218506,-0.00561523,-0.14502,0.964966
1472133275764257,-0.218628,-0.00537109,-0.145081,0.964905
1472133275787277,-0.218628,-0.00537109,-0.145081,0.964905
1472133275805298,-0.218689,-0.00537109,-0.145081,0.964905
1472133275824477,-0.218689,-0.00537109,-0.145081,0.964905
1472133275847495,-0.219116,-0.00524902,-0.145081,0.964844
1472133275865512,-0.219604,-0.00512695,-0.145081,0.964722
1472133275884563,-0.220032,-0.00506592,-0.145081,0.9646
1472133275907665,-0.220459,-0.00494385,-0.145081,0.964539
1472133275924682,-0.220825,-0.00494385,-0.145142,0.964417
1472133275944711,-0.221436,-0.00488281,-0.145203,0.964294
1472133275966733,-0.221863,-0.00469971,-0.145264,0.964172
1472133275984736,-0.222107,-0.00445557,-0.145386,0.964111
1472133276004763,-0.222351,-0.00427246,-0.145569,0.963989
1472133276027286,-0.222717,-0.00402832,-0.145752,0.963928
1472133276045304,-0.222839,-0.00372314,-0.145935,0.963867
1472133276064320,-0.223022,-0.003479,-0.146057,0.963806
1472133276087341,-0.223022,-0.003479,-0.146057,0.963806
1472133276105365,-0.222961,-0.003479,-0.146057,0.963806
1472133276126391,-0.222534,-0.00354004,-0.146118,0.963867
1472133276147410,-0.221558,-0.00396729,-0.145874,0.964172
1472133276172433,-0.220398,-0.00537109,-0.144958,0.964539
1472133276186446,-0.220581,-0.00848389,-0.143311,0.964722
1472133276207473,-0.223206,-0.0125122,-0.141418,0.964355
1472133276229495,-0.227173,-0.0157471,-0.139404,0.963684
1472133276246508,-0.230042,-0.0180054,-0.137024,0.963318
1472133276267528,-0.230103,-0.0205078,-0.134155,0.963623
1472133276289549,-0.227966,-0.0233765,-0.131104,0.964478
1472133276307588,-0.225098,-0.0263672,-0.128113,0.965515
1472133276326602,-0.222473,-0.0290527,-0.125305,0.966431
1472133276349622,-0.220459,-0.031311,-0.122559,0.967163
1472133276365636,-0.218872,-0.0332031,-0.120117,0.967773
1472133276387656,-0.216919,-0.0348511,-0.118103,0.968384
1472133276409701,-0.214355,-0.0361328,-0.116516,0.969055
1472133276425700,-0.21167,-0.0369873,-0.115356,0.969788
1472133276447720,-0.209167,-0.0374146,-0.114685,0.970398
1472133276469755,-0.207275,-0.0372925,-0.114441,0.970825
1472133276487758,-0.205994,-0.0368042,-0.114441,0.97113
1472133276506781,-0.205383,-0.0360107,-0.114929,0.971252
1472133276529808,-0.205261,-0.0349731,-0.115967,0.971191
1472133276547825,-0.205444,-0.0335083,-0.117432,0.971008
1472133276566856,-0.20575,-0.0317993,-0.118896,0.970825
1472133276589863,-0.205994,-0.0300903,-0.120544,0.970581
1472133276607894,-0.206238,-0.0284424,-0.122437,0.970398
1472133276626912,-0.20697,-0.0268555,-0.124634,0.969971
1472133276649933,-0.208984,-0.0250244,-0.127258,0.969299
1472133276667962,-0.212769,-0.0228882,-0.130249,0.968079
1472133276686999,-0.217041,-0.0203247,-0.133545,0.966736
1472133276710026,-0.219849,-0.0176392,-0.13623,0.965759
1472133276728043,-0.221313,-0.0155029,-0.138855,0.965149
1472133276747074,-0.22168,-0.013916,-0.141602,0.964661
1472133276770080,-0.222229,-0.0123901,-0.144287,0.964172
1472133276787096,-0.223328,-0.0106201,-0.146606,0.963562
1472133276807122,-0.224548,-0.00891113,-0.148254,0.963074
1472133276830148,-0.225403,-0.0078125,-0.149475,0.962708
1472133276847164,-0.225708,-0.00714111,-0.150208,0.962524
1472133276867194,-0.225891,-0.00671387,-0.150574,0.962402
1472133276889201,-0.226135,-0.00640869,-0.150635,0.962341
1472133276907223,-0.226318,-0.00628662,-0.150574,0.96228
1472133276927278,-0.226318,-0.00628662,-0.150574,0.96228
1472133276949267,-0.226379,-0.00640869,-0.15033,0.962341
1472133276967282,-0.226685,-0.00640869,-0.150146,0.96228
1472133276987299,-0.227112,-0.00646973,-0.149963,0.962219
1472133277010012,-0.227478,-0.00634766,-0.149963,0.962158
1472133277027996,-0.227844,-0.00622559,-0.149902,0.962036
1472133277047026,-0.228271,-0.00604248,-0.149963,0.961975
1472133277070035,-0.22876,-0.00579834,-0.150024,0.961792
1472133277087052,-0.229492,-0.0055542,-0.150269,0.961609
1472133277108646,-0.230164,-0.00518799,-0.150513,0.961426
1472133277129666,-0.230774,-0.00469971,-0.150818,0.961243
1472133277147724,-0.231506,-0.00421143,-0.151123,0.960999
1472133277168699,-0.232056,-0.00366211,-0.151489,0.960815
1472133277189720,-0.232788,-0.00305176,-0.151978,0.960571
1472133277207743,-0.233521,-0.00250244,-0.152588,0.960266
1472133277228766,-0.23407,-0.00177002,-0.153137,0.960083
1472133277249799,-0.234497,-0.00115967,-0.153625,0.9599
1472133277271820,-0.234985,-0.000610352,-0.154114,0.959656
1472133277288823,-0.235474,-6.10352e-05,-0.154541,0.959473
1472133277309890,-0.235718,0.000366211,-0.154968,0.959351
1472133277327896,-0.235901,0.000793457,-0.155334,0.95929
1472133277348948,-0.236084,0.00109863,-0.15564,0.959167
1472133277369965,-0.236267,0.00134277,-0.155823,0.959106
1472133277387948,-0.236511,0.00164795,-0.156006,0.958984
1472133277408991,-0.236511,0.00164795,-0.156006,0.958984
1472133277430042,-0.23645,0.00170898,-0.156006,0.959045
1472133277448026,-0.23645,0.00170898,-0.156006,0.959045
1472133277470061,-0.23645,0.00170898,-0.156006,0.959045
1472133277490066,-0.23645,0.00170898,-0.156006,0.959045
1472133277507585,-0.23645,0.00170898,-0.156006,0.959045
1472133277529995,-0.23645,0.00170898,-0.156006,0.959045
1472133277550011,-0.236389,0.00170898,-0.156006,0.959045
1472133277568028,-0.23645,0.00170898,-0.156006,0.959045
1472133277590050,-0.23645,0.00170898,-0.156006,0.959045
1472133277610099,-0.23645,0.00170898,-0.156006,0.959045
1472133277627115,-0.23645,0.00170898,-0.156006,0.959045
1472133277650156,-0.23645,0.00170898,-0.156006,0.959045
1472133277670153,-0.23645,0.00177002,-0.156006,0.959045
1472133277692173,-0.23645,0.00177002,-0.156006,0.959045
1472133277710214,-0.23645,0.00177002,-0.156006,0.959045
1472133277729230,-0.23645,0.00177002,-0.156006,0.959045
1472133277752238,-0.236511,0.00177002,-0.156006,0.958984
1472133277770291,-0.236511,0.00183105,-0.156006,0.958984
1472133277789270,-0.236511,0.00183105,-0.156006,0.958984
1472133277812085,-0.236511,0.00183105,-0.155945,0.958984
1472133277830101,-0.236511,0.00183105,-0.155945,0.958984
1472133277849119,-0.236511,0.00183105,-0.155945,0.958984
1472133277872169,-0.236511,0.00183105,-0.155945,0.958984
1472133277890157,-0.236511,0.00183105,-0.155945,0.958984
1472133277909977,-0.236511,0.00189209,-0.155945,0.958984
1472133277931966,-0.236511,0.00189209,-0.155945,0.958984
1472133277949983,-0.236572,0.00189209,-0.155945,0.958984
1472133277969999,-0.236572,0.00195313,-0.155945,0.958984
1472133277992557,-0.236572,0.00195313,-0.155945,0.958984
1472133278009637,-0.236572,0.00195313,-0.155945,0.958984
1472133278031657,-0.236633,0.00195313,-0.155945,0.958984
1472133278052677,-0.236633,0.00195313,-0.155945,0.958984
1472133278069696,-0.236633,0.00195313,-0.155945,0.958984
1472133278090711,-0.236694,0.00201416,-0.155945,0.958984
1472133278112121,-0.236694,0.00201416,-0.155945,0.958984
1472133278130138,-0.236694,0.00201416,-0.155945,0.958984
1472133278151157,-0.236694,0.00201416,-0.155945,0.958984
1472133278172177,-0.236755,0.00201416,-0.155945,0.958984
1472133278190196,-0.236755,0.00201416,-0.155945,0.958984
1472133278211250,-0.236755,0.0020752,-0.155884,0.958984
1472133278232270,-0.236755,0.0020752,-0.155884,0.958923
1472133278250288,-0.236816,0.0020752,-0.155884,0.958923
1472133278271305,-0.236816,0.0020752,-0.155884,0.958923
1472133278292322,-0.236816,0.0020752,-0.155884,0.958923
1472133278310363,-0.236816,0.0020752,-0.155884,0.958923
1472133278331365,-0.236816,0.00213623,-0.155884,0.958923
1472133278352396,-0.236877,0.00213623,-0.155884,0.958923
1472133278370400,-0.236877,0.00213623,-0.155884,0.958923
1472133278392990,-0.236877,0.00213623,-0.155884,0.958923
1472133278412195,-0.236877,0.00219727,-0.155884,0.958923
1472133278430178,-0.236938,0.00219727,-0.155884,0.958923
1472133278452198,-0.236938,0.00219727,-0.155884,0.958923
1472133278472218,-0.236938,0.00219727,-0.155884,0.958923
1472133278490234,-0.237,0.00219727,-0.155884,0.958923
1472133278512572,-0.237,0.0022583,-0.155884,0.958923
1472133278532609,-0.237061,0.0022583,-0.155823,0.958923
1472133278549593,-0.237061,0.0022583,-0.155823,0.958923
1472133278572612,-0.237061,0.0022583,-0.155823,0.958862
1472133278592629,-0.237122,0.00231934,-0.155823,0.958862
1472133278609652,-0.237122,0.00231934,-0.155823,0.958862
1472133278632673,-0.237122,0.00231934,-0.155823,0.958862
1472133278652690,-0.237122,0.00231934,-0.155823,0.958862
1472133278669710,-0.237183,0.00238037,-0.155823,0.958862
1472133278692728,-0.237183,0.00238037,-0.155823,0.958862
1472133278712651,-0.237183,0.00238037,-0.155823,0.958862
1472133278729669,-0.237244,0.00244141,-0.155823,0.958862
1472133278752688,-0.237244,0.00244141,-0.155823,0.958862
1472133278772705,-0.237244,0.00244141,-0.155823,0.958862
1472133278789721,-0.237244,0.00244141,-0.155823,0.958862
1472133278812784,-0.237305,0.00244141,-0.155762,0.958862
1472133278831831,-0.237305,0.00250244,-0.155762,0.958862
1472133278854822,-0.237366,0.00250244,-0.155762,0.958801
1472133278872839,-0.237366,0.00250244,-0.155762,0.958801
1472133278891853,-0.237427,0.00256348,-0.155762,0.958801
1472133278914883,-0.237427,0.00256348,-0.155762,0.958801
1472133278932929,-0.237427,0.00256348,-0.155762,0.958801
1472133278951948,-0.237488,0.00256348,-0.155762,0.958801
1472133278974966,-0.237488,0.00262451,-0.155762,0.958801
1472133278992952,-0.237488,0.00262451,-0.155762,0.958801
1472133279014010,-0.237549,0.00262451,-0.155762,0.958801
1472133279035029,-0.237549,0.00262451,-0.155762,0.958801
1472133279053043,-0.237549,0.00262451,-0.155762,0.958801
1472133279073062,-0.23761,0.00268555,-0.155701,0.958801
1472133279095123,-0.23761,0.00268555,-0.155701,0.958801
1472133279112140,-0.237671,0.00268555,-0.155701,0.95874
1472133279134160,-0.237549,0.00274658,-0.155762,0.958801
1472133279155179,-0.237549,0.00274658,-0.155762,0.958801
1472133279172196,-0.237549,0.00274658,-0.155762,0.958801
1472133279193747,-0.237549,0.00280762,-0.155762,0.958801
1472133279215001,-0.237549,0.00280762,-0.155762,0.958801
1472133279232991,-0.23761,0.00280762,-0.155762,0.958801
1472133279254004,-0.23761,0.00280762,-0.155762,0.958801
1472133279275053,-0.23761,0.00280762,-0.155762,0.95874
1472133279293038,-0.237671,0.00286865,-0.155762,0.95874
1472133279315100,-0.237671,0.00286865,-0.155762,0.95874
1472133279335116,-0.237671,0.00286865,-0.155762,0.95874
1472133279353132,-0.237732,0.00286865,-0.155762,0.95874
1472133279375151,-0.237732,0.00292969,-0.155701,0.95874
1472133279395171,-0.237793,0.00292969,-0.155701,0.95874
1472133279412223,-0.237793,0.00292969,-0.155701,0.95874
1472133279439249,-0.237854,0.00292969,-0.155701,0.95874
1472133279455262,-0.237854,0.00299072,-0.155701,0.95874
1472133279472277,-0.238159,0.00311279,-0.155701,0.958618
1472133279495306,-0.23822,0.00311279,-0.155701,0.958618
1472133279514970,-0.23822,0.00311279,-0.155701,0.958618
1472133279532986,-0.238281,0.00311279,-0.155701,0.958618
1472133279555007,-0.238281,0.00311279,-0.155701,0.958618
1472133279575025,-0.238281,0.00317383,-0.155701,0.958618
1472133279593039,-0.238342,0.00317383,-0.155701,0.958618
1472133279614570,-0.238342,0.00317383,-0.155701,0.958618
1472133279634586,-0.238342,0.00317383,-0.155701,0.958618
1472133279652603,-0.238342,0.00317383,-0.155701,0.958618
1472133279675623,-0.238403,0.00317383,-0.155701,0.958618
1472133279695157,-0.238403,0.00323486,-0.155701,0.958557
1472133279718693,-0.238464,0.00323486,-0.15564,0.958557
1472133279734722,-0.238464,0.00323486,-0.15564,0.958557
1472133279754743,-0.238525,0.0032959,-0.15564,0.958557
1472133279772742,-0.238525,0.0032959,-0.15564,0.958557
1472133279795334,-0.238586,0.0032959,-0.15564,0.958557
1472133279814854,-0.238647,0.0032959,-0.15564,0.958557
1472133279832873,-0.238708,0.0032959,-0.15564,0.958496
1472133279854861,-0.23877,0.00335693,-0.15564,0.958496
1472133279874880,-0.23877,0.00335693,-0.15564,0.958496
1472133279892895,-0.23877,0.00335693,-0.15564,0.958496
1472133279914951,-0.239014,0.00360107,-0.155701,0.958435
1472133279935970,-0.239136,0.00390625,-0.155701,0.958374
1472133279952984,-0.23938,0.00415039,-0.155823,0.958313
1472133279975006,-0.23938,0.00415039,-0.155823,0.958313
1472133279996030,-0.23938,0.00415039,-0.155823,0.958313
1472133280017086,-0.23938,0.00415039,-0.155823,0.958313
1472133280035092,-0.23938,0.00415039,-0.155823,0.958313
1472133280056089,-0.23938,0.00421143,-0.155823,0.958313
1472133280077123,-0.239441,0.00421143,-0.155823,0.958313
1472133280095129,-0.239441,0.00421143,-0.155823,0.958313
1472133280116181,-0.239441,0.00427246,-0.155823,0.958313
1472133280137232,-0.239502,0.00427246,-0.155823,0.958313
1472133280155232,-0.239563,0.00427246,-0.155762,0.958252
1472133280176236,-0.239563,0.00427246,-0.155762,0.958252
1472133280197261,-0.239624,0.00427246,-0.155762,0.958252
1472133280215312,-0.239624,0.0043335,-0.155762,0.958252
1472133280236301,-0.239685,0.0043335,-0.155762,0.958252
1472133280257356,-0.239685,0.0043335,-0.155762,0.958252
1472133280275369,-0.239746,0.00439453,-0.155762,0.958252
1472133280297894,-0.239746,0.00439453,-0.155762,0.958252
1472133280317429,-0.239746,0.00439453,-0.155762,0.958252
1472133280335446,-0.239746,0.00445557,-0.155762,0.958252
1472133280357451,-0.239807,0.00445557,-0.155762,0.958252
1472133280377470,-0.239807,0.00445557,-0.155701,0.958252
1472133280395491,-0.239807,0.0045166,-0.155701,0.958252
1472133280417516,-0.239807,0.0045166,-0.155701,0.958191
1472133280437534,-0.239807,0.0045166,-0.155701,0.958191
1472133280454548,-0.239868,0.0045166,-0.155701,0.958191
1472133280477595,-0.239868,0.00457764,-0.155701,0.958191
1472133280505112,-0.239868,0.00457764,-0.155701,0.958191
1472133280515626,-0.239929,0.00457764,-0.155701,0.958191
1472133280537646,-0.239929,0.00457764,-0.155701,0.958191
1472133280557664,-0.239929,0.00463867,-0.155701,0.958191
1472133280575680,-0.23999,0.00463867,-0.155701,0.958191
1472133280597721,-0.23999,0.00463867,-0.155701,0.958191
1472133280617756,-0.23999,0.00469971,-0.155701,0.958191
1472133280634772,-0.240051,0.00469971,-0.15564,0.958191
1472133280657794,-0.240051,0.00469971,-0.15564,0.958191
1472133280676837,-0.240112,0.00469971,-0.15564,0.95813
1472133280695331,-0.240112,0.00476074,-0.15564,0.95813
1472133280717417,-0.240112,0.00476074,-0.15564,0.95813
1472133280737435,-0.240173,0.00476074,-0.15564,0.95813
1472133280755452,-0.240234,0.00482178,-0.15564,0.95813
1472133280777473,-0.240234,0.00482178,-0.15564,0.95813
1472133280797525,-0.240295,0.00482178,-0.15564,0.95813
1472133280815057,-0.240295,0.00482178,-0.15564,0.95813
1472133280838080,-0.240295,0.00482178,-0.15564,0.95813
1472133280859098,-0.240295,0.00488281,-0.15564,0.95813
1472133280875114,-0.240356,0.00488281,-0.15564,0.95813
1472133280898149,-0.240356,0.00488281,-0.155579,0.95813
1472133280919183,-0.240356,0.00488281,-0.155579,0.958069
1472133280935217,-0.240417,0.00488281,-0.155579,0.958069
1472133280957218,-0.240417,0.00494385,-0.155579,0.958069
1472133280978236,-0.240417,0.00494385,-0.155579,0.958069
1472133280995286,-0.240479,0.00494385,-0.155579,0.958069
1472133281017314,-0.240479,0.00500488,-0.155579,0.958069
1472133281038404,-0.240479,0.00500488,-0.155579,0.958069
1472133281055351,-0.24054,0.00500488,-0.155579,0.958069
1472133281077370,-0.24054,0.00506592,-0.155579,0.958069
1472133281098909,-0.240601,0.00506592,-0.155579,0.958069
1472133281115454,-0.240601,0.00506592,-0.155579,0.958069
1472133281137457,-0.240601,0.00506592,-0.155579,0.958069
1472133281166484,-0.240662,0.00512695,-0.155518,0.958008
1472133281179511,-0.240662,0.00512695,-0.155518,0.958008
1472133281198086,-0.240723,0.00512695,-0.155518,0.958008
1472133281220590,-0.240723,0.00518799,-0.155518,0.958008
1472133281239608,-0.240723,0.00518799,-0.155518,0.958008
1472133281257625,-0.240784,0.00518799,-0.155518,0.958008
1472133281280645,-0.240784,0.00518799,-0.155518,0.958008
1472133281300180,-0.240845,0.00518799,-0.155518,0.958008
1472133281317727,-0.240845,0.00524902,-0.155518,0.958008
1472133281339732,-0.240845,0.00524902,-0.155518,0.958008
1472133281359781,-0.240906,0.00524902,-0.155518,0.958008
1472133281377769,-0.240906,0.00524902,-0.155518,0.958008
1472133281400326,-0.240906,0.00524902,-0.155518,0.957947
1472133281419827,-0.240967,0.00531006,-0.155518,0.957947
1472133281437829,-0.240967,0.00531006,-0.155457,0.957947
1472133281459856,-0.240967,0.00531006,-0.155457,0.957947
1472133281479868,-0.241028,0.00531006,-0.155457,0.957947
1472133281497890,-0.241089,0.00531006,-0.155457,0.957947
1472133281519927,-0.241089,0.00531006,-0.155457,0.957947
1472133281539944,-0.241089,0.00537109,-0.155457,0.957947
1472133281557960,-0.24115,0.00537109,-0.155457,0.957947
1472133281579980,-0.24115,0.00537109,-0.155457,0.957947
1472133281600018,-0.241211,0.00543213,-0.155457,0.957886
1472133281618051,-0.241211,0.00543213,-0.155457,0.957886
1472133281640058,-0.241211,0.00543213,-0.155457,0.957886
1472133281660107,-0.241211,0.00543213,-0.155457,0.957886
1472133281678117,-0.241211,0.00543213,-0.155457,0.957886
1472133281700119,-0.241272,0.00543213,-0.155457,0.957886
1472133281720138,-0.241272,0.00549316,-0.155457,0.957886
1472133281738155,-0.241272,0.00549316,-0.155457,0.957886
1472133281760189,-0.241333,0.00549316,-0.155457,0.957886
1472133281780193,-0.241333,0.00549316,-0.155396,0.957886
1472133281797750,-0.241394,0.00549316,-0.155396,0.957886
1472133281820248,-0.241394,0.00549316,-0.155396,0.957886
1472133281841267,-0.241455,0.00549316,-0.155396,0.957886
1472133281857281,-0.241455,0.0055542,-0.155396,0.957825
1472133281880318,-0.241516,0.0055542,-0.155396,0.957825
1472133281901346,-0.241516,0.0055542,-0.155396,0.957825
1472133281918182,-0.241577,0.0055542,-0.155396,0.957825
1472133281940201,-0.241577,0.0055542,-0.155396,0.957825
1472133281961219,-0.241638,0.0055542,-0.155396,0.957825
1472133281977233,-0.241638,0.00561523,-0.155396,0.957825
1472133282000272,-0.241699,0.00561523,-0.155396,0.957825
1472133282021309,-0.241699,0.00561523,-0.155396,0.957825
1472133282037323,-0.241699,0.00561523,-0.155396,0.957764
1472133282060387,-0.24176,0.00561523,-0.155396,0.957764
1472133282081363,-0.24176,0.00567627,-0.155396,0.957764
1472133282097881,-0.24176,0.00567627,-0.155396,0.957764
1472133282118932,-0.241821,0.00567627,-0.155396,0.957764
1472133282140953,-0.241821,0.00567627,-0.155334,0.957764
1472133282157970,-0.241821,0.00567627,-0.155334,0.957764
1472133282179987,-0.241882,0.00567627,-0.155334,0.957764
1472133282203044,-0.241882,0.0057373,-0.155334,0.957764
1472133282222599,-0.241943,0.0057373,-0.155334,0.957764
1472133282239583,-0.241943,0.0057373,-0.155334,0.957703
1472133282261602,-0.242004,0.0057373,-0.155334,0.957703
1472133282282652,-0.242065,0.0057373,-0.155334,0.957703
1472133282299672,-0.242126,0.0057373,-0.155334,0.957703
1472133282321727,-0.242126,0.00579834,-0.155334,0.957703
1472133282342747,-0.242188,0.00579834,-0.155334,0.957703
1472133282359763,-0.242249,0.00579834,-0.155334,0.957642
1472133282381801,-0.242249,0.00579834,-0.155334,0.957642
1472133282403323,-0.242249,0.00585938,-0.155334,0.957642
1472133282419852,-0.24231,0.00585938,-0.155273,0.957642
1472133282441872,-0.24231,0.00585938,-0.155273,0.957642
1472133282462893,-0.24231,0.00592041,-0.155273,0.957642
1472133282478937,-0.242371,0.00592041,-0.155273,0.957642
1472133282501962,-0.242371,0.00592041,-0.155273,0.957642
1472133282522522,-0.242371,0.00598145,-0.155273,0.957642
1472133282539522,-0.242432,0.00598145,-0.155273,0.957642
1472133282561541,-0.242432,0.00598145,-0.155273,0.957642
1472133282582563,-0.242493,0.00598145,-0.155273,0.957642
1472133282599613,-0.242493,0.00604248,-0.155273,0.957581
1472133282622131,-0.242554,0.00604248,-0.155273,0.957581
1472133282644151,-0.242554,0.00604248,-0.155273,0.957581
1472133282659165,-0.242554,0.00604248,-0.155212,0.957581
1472133282682186,-0.242615,0.00610352,-0.155212,0.957581
1472133282703274,-0.242615,0.00610352,-0.155212,0.957581
1472133282719322,-0.242615,0.00610352,-0.155212,0.957581
1472133282742341,-0.242676,0.00610352,-0.155212,0.957581
1472133282763328,-0.242676,0.00616455,-0.155212,0.957581
1472133282779343,-0.242676,0.00616455,-0.155212,0.957581
1472133282801874,-0.242676,0.00616455,-0.155212,0.957581
1472133282830434,-0.242676,0.00622559,-0.155212,0.957581
1472133282839442,-0.242737,0.00622559,-0.155212,0.957581
1472133282861478,-0.242737,0.00622559,-0.155212,0.957581
1472133282882485,-0.242737,0.00628662,-0.155212,0.957581
1472133282899501,-0.242798,0.00628662,-0.155212,0.957581
1472133282921523,-0.242798,0.00628662,-0.155151,0.95752
1472133282943544,-0.242798,0.00634766,-0.155151,0.95752
1472133282959558,-0.242859,0.00634766,-0.155151,0.95752
1472133282981578,-0.242859,0.00634766,-0.155151,0.95752
1472133283003105,-0.242859,0.00634766,-0.155151,0.95752
1472133283019625,-0.24292,0.00634766,-0.155151,0.95752
1472133283041645,-0.24292,0.00640869,-0.155151,0.95752
1472133283062676,-0.242981,0.00640869,-0.155151,0.95752
1472133283079681,-0.242981,0.00640869,-0.155151,0.95752
1472133283101707,-0.242981,0.00646973,-0.155151,0.95752
1472133283124732,-0.243042,0.00646973,-0.155151,0.95752
1472133283139745,-0.243042,0.00646973,-0.155151,0.95752
1472133283161763,-0.243103,0.00653076,-0.15509,0.957458
1472133283184785,-0.243103,0.00653076,-0.15509,0.957458
1472133283199803,-0.243103,0.00653076,-0.15509,0.957458
1472133283221830,-0.243103,0.0065918,-0.15509,0.957458
1472133283243880,-0.243103,0.0065918,-0.15509,0.957458
1472133283258864,-0.243103,0.0065918,-0.15509,0.957458
1472133283281883,-0.243164,0.00665283,-0.15509,0.957458
1472133283304925,-0.243164,0.00665283,-0.15509,0.957458
1472133283318973,-0.243164,0.00665283,-0.15509,0.957458
1472133283341994,-0.243225,0.00671387,-0.15509,0.957458
1472133283364014,-0.243164,0.00671387,-0.155029,0.957458
1472133283379028,-0.243225,0.00671387,-0.155029,0.957458
1472133283402084,-0.243225,0.0067749,-0.155029,0.957458
1472133283424678,-0.243225,0.0067749,-0.155029,0.957458
1472133283438690,-0.243286,0.00683594,-0.155029,0.957458
1472133283461712,-0.243286,0.00683594,-0.155029,0.957458
1472133283484730,-0.243286,0.00683594,-0.155029,0.957458
1472133283498743,-0.243347,0.00683594,-0.155029,0.957458
1472133283522307,-0.243347,0.00689697,-0.155029,0.957458
1472133283544324,-0.243347,0.00689697,-0.155029,0.957397
1472133283565374,-0.243408,0.00695801,-0.155029,0.957397
1472133283582358,-0.243408,0.00695801,-0.154968,0.957397
1472133283604413,-0.243408,0.00695801,-0.154968,0.957397
1472133283625127,-0.243469,0.00695801,-0.154968,0.957397
1472133283642109,-0.243469,0.00701904,-0.154968,0.957397
1472133283664128,-0.243469,0.00701904,-0.154968,0.957397
1472133283685177,-0.243469,0.00701904,-0.154968,0.957397
1472133283702169,-0.243469,0.00708008,-0.154968,0.957397
1472133283724694,-0.243469,0.00708008,-0.154968,0.957397
1472133283745713,-0.243469,0.00708008,-0.154968,0.957397
1472133283761727,-0.24353,0.00714111,-0.154968,0.957397
1472133283784748,-0.24353,0.00714111,-0.154968,0.957397
1472133283805785,-0.24353,0.00714111,-0.154907,0.957397
1472133283821802,-0.243591,0.00720215,-0.154907,0.957397
1472133283844824,-0.243591,0.00720215,-0.154907,0.957397
1472133283865897,-0.243591,0.00726318,-0.154907,0.957397
1472133283881857,-0.243591,0.00726318,-0.154907,0.957397
1472133283904385,-0.243591,0.00726318,-0.154907,0.957397
1472133283925906,-0.243591,0.00726318,-0.154907,0.957397
1472133283941921,-0.243591,0.00732422,-0.154907,0.957397
1472133283963970,-0.243652,0.00732422,-0.154907,0.957397
1472133283985961,-0.243652,0.00732422,-0.154907,0.957336
1472133284002031,-0.243469,0.00732422,-0.154846,0.957397
1472133284024083,-0.243408,0.00738525,-0.154846,0.957458
1472133284045102,-0.243408,0.00738525,-0.154846,0.957397
1472133284062121,-0.243469,0.00738525,-0.154846,0.957397
1472133284084137,-0.243469,0.00738525,-0.154846,0.957397
1472133284107162,-0.243469,0.00738525,-0.154846,0.957397
1472133284122180,-0.243469,0.00744629,-0.154846,0.957397
1472133284144199,-0.24353,0.00732422,-0.154785,0.957397
1472133284167221,-0.243591,0.00732422,-0.154785,0.957397
1472133284182235,-0.243591,0.00738525,-0.154785,0.957397
1472133284204770,-0.243591,0.00738525,-0.154785,0.957397
1472133284227293,-0.243591,0.00738525,-0.154785,0.957397
1472133284241308,-0.243652,0.00738525,-0.154785,0.957397
1472133284264326,-0.243652,0.00738525,-0.154724,0.957397
1472133284287359,-0.243652,0.00744629,-0.154724,0.957397
1472133284301378,-0.243713,0.00744629,-0.154724,0.957397
1472133284324415,-0.243713,0.00744629,-0.154724,0.957397
1472133284347437,-0.243713,0.00744629,-0.154724,0.957397
1472133284361448,-0.243713,0.00750732,-0.154724,0.957397
1472133284384469,-0.243713,0.00750732,-0.154724,0.957397
1472133284407034,-0.243774,0.00750732,-0.154724,0.957336
1472133284421584,-0.243774,0.00756836,-0.154724,0.957336
1472133284444603,-0.243835,0.00756836,-0.154724,0.957336
1472133284466622,-0.243835,0.00756836,-0.154724,0.957336
1472133284481634,-0.243835,0.00756836,-0.154724,0.957336
1472133284504674,-0.243835,0.00756836,-0.154724,0.957336
1472133284526728,-0.243835,0.00756836,-0.154724,0.957336
1472133284541724,-0.243896,0.00762939,-0.154663,0.957336
1472133284564748,-0.243896,0.00762939,-0.154663,0.957336
1472133284586766,-0.243958,0.00762939,-0.154663,0.957336
1472133284608304,-0.243958,0.00769043,-0.154663,0.957336
1472133284624852,-0.243958,0.00769043,-0.154663,0.957336
1472133284646873,-0.244019,0.00769043,-0.154663,0.957336
1472133284667922,-0.244019,0.00769043,-0.154663,0.957336
1472133284684907,-0.24408,0.00769043,-0.154663,0.957275
1472133284707435,-0.24408,0.00769043,-0.154663,0.957275
1472133284727989,-0.243958,0.0078125,-0.154724,0.957336
1472133284744004,-0.243958,0.00787354,-0.154724,0.957336
1472133284767026,-0.243958,0.00787354,-0.154724,0.957336
1472133284788075,-0.244019,0.00787354,-0.154724,0.957336
1472133284804598,-0.244019,0.00787354,-0.154724,0.957275
1472133284826730,-0.244019,0.00787354,-0.154724,0.957275
1472133284847708,-0.244019,0.00793457,-0.154663,0.957275
1472133284864726,-0.244019,0.00793457,-0.154663,0.957275
1472133284886743,-0.24408,0.00793457,-0.154663,0.957275
1472133284908269,-0.24408,0.00799561,-0.154663,0.957275
1472133284924292,-0.24408,0.00799561,-0.154663,0.957275
1472133284947334,-0.24408,0.00799561,-0.154663,0.957275
1472133284968333,-0.244141,0.00805664,-0.154663,0.957275
1472133284984345,-0.244141,0.00805664,-0.154663,0.957275
1472133285007386,-0.244202,0.00805664,-0.154663,0.957275
1472133285029444,-0.244202,0.00811768,-0.154663,0.957275
1472133285044458,-0.244202,0.00811768,-0.154663,0.957275
1472133285066475,-0.244202,0.00811768,-0.154602,0.957275
1472133285089497,-0.244263,0.00817871,-0.154602,0.957275
1472133285110523,-0.244263,0.00817871,-0.154602,0.957275
1472133285126541,-0.244324,0.00817871,-0.154602,0.957214
1472133285149564,-0.244324,0.00823975,-0.154602,0.957214
1472133285163575,-0.244324,0.00823975,-0.154602,0.957214
1472133285186594,-0.244324,0.00823975,-0.154602,0.957214
1472133285209625,-0.244324,0.00830078,-0.154602,0.957214
1472133285223639,-0.244324,0.00830078,-0.154602,0.957214
1472133285246659,-0.244324,0.00830078,-0.154602,0.957214
1472133285269681,-0.244324,0.00836182,-0.154602,0.957214
1472133285283693,-0.244324,0.00836182,-0.154602,0.957214
1472133285307235,-0.244385,0.00836182,-0.154541,0.957214
1472133285329805,-0.244385,0.00836182,-0.154541,0.957214
1472133285343785,-0.244385,0.00842285,-0.154541,0.957214
1472133285366804,-0.244446,0.00842285,-0.154541,0.957214
1472133285389825,-0.244446,0.00842285,-0.154541,0.957214
1472133285403846,-0.244446,0.00842285,-0.154541,0.957214
1472133285426869,-0.244446,0.00848389,-0.154541,0.957214
1472133285449894,-0.244507,0.00848389,-0.154541,0.957214
1472133285463902,-0.244507,0.00848389,-0.154541,0.957214
1472133285486923,-0.244507,0.00854492,-0.154541,0.957214
1472133285509452,-0.244568,0.00854492,-0.154541,0.957214
1472133285529986,-0.244568,0.00854492,-0.154541,0.957214
1472133285546999,-0.244568,0.00860596,-0.15448,0.957214
1472133285569020,-0.244568,0.00860596,-0.15448,0.957214
1472133285590040,-0.244568,0.00860596,-0.15448,0.957214
1472133285607074,-0.244568,0.00866699,-0.15448,0.957214
1472133285629098,-0.244568,0.00866699,-0.15448,0.957214
1472133285650150,-0.244568,0.00866699,-0.15448,0.957153
1472133285667134,-0.244629,0.00866699,-0.15448,0.957153
1472133285689152,-0.244629,0.00872803,-0.15448,0.957153
1472133285710709,-0.244629,0.00872803,-0.15448,0.957153
1472133285727244,-0.24469,0.00872803,-0.15448,0.957153
1472133285749261,-0.24469,0.00878906,-0.15448,0.957153
1472133285778290,-0.24469,0.00878906,-0.15448,0.957153
1472133285787296,-0.244751,0.00878906,-0.15448,0.957153
1472133285809854,-0.244751,0.0088501,-0.154419,0.957153
1472133285830442,-0.244751,0.0088501,-0.154419,0.957153
1472133285847425,-0.244812,0.0088501,-0.154419,0.957153
1472133285869445,-0.244812,0.00891113,-0.154419,0.957153
1472133285890464,-0.244812,0.00891113,-0.154419,0.957153
1472133285906996,-0.244873,0.00897217,-0.154419,0.957153
1472133285929548,-0.244873,0.00897217,-0.154419,0.957092
1472133285951567,-0.244873,0.00897217,-0.154419,0.957092
1472133285966581,-0.244934,0.0090332,-0.154419,0.957092
1472133285989602,-0.244934,0.0090332,-0.154358,0.957092
1472133286012164,-0.244934,0.0090332,-0.154358,0.957092
1472133286027216,-0.244934,0.00909424,-0.154358,0.957092
1472133286049271,-0.244934,0.00909424,-0.154358,0.957092
1472133286072303,-0.244995,0.00909424,-0.154358,0.957092
1472133286087269,-0.244995,0.00915527,-0.154358,0.957092
1472133286109827,-0.245056,0.00915527,-0.154358,0.957092
1472133286131881,-0.245056,0.00915527,-0.154358,0.957092
1472133286145892,-0.245056,0.00921631,-0.154358,0.957092
1472133286169914,-0.245117,0.00921631,-0.154358,0.957092
1472133286191935,-0.245117,0.00921631,-0.154358,0.957092
1472133286206455,-0.245178,0.00927734,-0.154297,0.957031
1472133286228981,-0.245178,0.00927734,-0.154297,0.957031
1472133286252003,-0.245178,0.00933838,-0.154297,0.957031
1472133286266015,-0.245239,0.00933838,-0.154297,0.957031
1472133286289035,-0.245239,0.00933838,-0.154297,0.957031
1472133286312059,-0.2453,0.00939941,-0.154297,0.957031
1472133286326074,-0.245361,0.00946045,-0.154297,0.957031
1472133286349095,-0.245361,0.00946045,-0.154236,0.957031
1472133286372116,-0.2453,0.00946045,-0.154236,0.957031
1472133286386128,-0.2453,0.00952148,-0.154236,0.957031
1472133286409670,-0.2453,0.00952148,-0.154236,0.957031
1472133286432194,-0.2453,0.00958252,-0.154236,0.957031
1472133286446206,-0.245361,0.00958252,-0.154236,0.957031
1472133286469226,-0.245361,0.00958252,-0.154236,0.957031
1472133286492249,-0.245422,0.00952148,-0.154114,0.957031
1472133286513273,-0.245605,0.00946045,-0.154053,0.95697
1472133286529307,-0.245544,0.00939941,-0.153931,0.957031
1472133286552348,-0.245605,0.00939941,-0.153931,0.957031
1472133286573345,-0.245667,0.00939941,-0.153931,0.95697
1472133286589361,-0.245667,0.00939941,-0.153931,0.95697
1472133286612899,-0.245667,0.00946045,-0.153931,0.95697
1472133286633420,-0.245728,0.00946045,-0.153931,0.95697
1472133286649437,-0.245728,0.00946045,-0.153931,0.95697
1472133286671456,-0.245789,0.00946045,-0.153931,0.95697
1472133286693475,-0.245789,0.00946045,-0.153931,0.95697
1472133286709509,-0.24585,0.00952148,-0.153931,0.95697
1472133286731562,-0.24585,0.00952148,-0.153931,0.95697
1472133286752580,-0.24585,0.00952148,-0.153931,0.95697
1472133286769596,-0.24585,0.00952148,-0.15387,0.95697
1472133286791620,-0.245911,0.00958252,-0.15387,0.956909
1472133286813170,-0.245911,0.00958252,-0.15387,0.956909
1472133286829689,-0.245911,0.00958252,-0.15387,0.956909
1472133286851710,-0.245911,0.00958252,-0.15387,0.956909
1472133286872749,-0.245972,0.00958252,-0.15387,0.956909
1472133286889744,-0.245972,0.00964355,-0.15387,0.956909
1472133286912283,-0.245972,0.00964355,-0.15387,0.956909
1472133286934341,-0.245972,0.00964355,-0.15387,0.956909
1472133286949356,-0.246033,0.00964355,-0.15387,0.956909
1472133286972375,-0.246033,0.00970459,-0.15387,0.956909
1472133286994395,-0.246094,0.00970459,-0.15387,0.956909
1472133287009915,-0.246094,0.00970459,-0.15387,0.956909
1472133287031537,-0.246094,0.00970459,-0.15387,0.956909
1472133287054559,-0.246155,0.00976563,-0.15387,0.956848
1472133287068571,-0.246155,0.00976563,-0.153809,0.956848
1472133287091591,-0.246216,0.00976563,-0.153809,0.956848
1472133287114649,-0.246216,0.00976563,-0.153809,0.956848
1472133287129194,-0.246216,0.00976563,-0.153809,0.956848
1472133287152218,-0.246277,0.00976563,-0.153809,0.956848
1472133287174236,-0.246338,0.00982666,-0.153809,0.956848
1472133287189265,-0.246338,0.00982666,-0.153809,0.956848
1472133287212294,-0.246338,0.00982666,-0.153809,0.956848
1472133287234855,-0.246399,0.00982666,-0.153809,0.956848
1472133287248864,-0.246399,0.00982666,-0.153809,0.956787
1472133287271883,-0.246399,0.0098877,-0.153809,0.956787
1472133287294905,-0.24646,0.0098877,-0.153809,0.956787
1472133287308926,-0.24646,0.0098877,-0.153809,0.956787
1472133287331467,-0.24646,0.0098877,-0.153809,0.956787
1472133287354487,-0.246521,0.00994873,-0.153809,0.956787
1472133287368497,-0.246521,0.00994873,-0.153748,0.956787
1472133287391519,-0.246521,0.00994873,-0.153748,0.956787
1472133287414559,-0.246582,0.0100098,-0.153748,0.956787
1472133287435618,-0.246582,0.0100098,-0.153748,0.956787
1472133287451596,-0.246582,0.0100098,-0.153748,0.956787
1472133287474619,-0.246582,0.0100708,-0.153748,0.956787
1472133287495636,-0.246582,0.0100708,-0.153748,0.956787
1472133287512157,-0.246643,0.0100708,-0.153748,0.956787
1472133287534696,-0.246643,0.0100708,-0.153748,0.956787
1472133287555714,-0.246643,0.0101318,-0.153748,0.956787
1472133287571729,-0.246643,0.0101318,-0.153748,0.956787
1472133287594750,-0.246643,0.0101318,-0.153748,0.956787
1472133287615774,-0.246704,0.0101318,-0.153748,0.956726
1472133287631792,-0.246704,0.0101929,-0.153687,0.956726
1472133287654814,-0.246704,0.0101929,-0.153687,0.956726
1472133287675832,-0.246765,0.0101929,-0.153687,0.956726
1472133287691847,-0.246765,0.0101929,-0.153687,0.956726
1472133287714873,-0.246765,0.0102539,-0.153687,0.956726
1472133287735445,-0.246765,0.0102539,-0.153687,0.956726
1472133287751459,-0.246765,0.0102539,-0.153687,0.956726
1472133287774467,-0.246704,0.0102539,-0.153687,0.956787
1472133287795500,-0.246704,0.0102539,-0.153687,0.956787
1472133287812018,-0.246704,0.0103149,-0.153687,0.956726
1472133287834042,-0.246765,0.0103149,-0.153687,0.956726
1472133287857064,-0.246765,0.0103149,-0.153625,0.956726
1472133287872078,-0.246765,0.0103149,-0.153625,0.956726
1472133287894096,-0.246582,0.0103149,-0.153625,0.956787
1472133287917135,-0.246582,0.0103149,-0.153625,0.956787
1472133287931767,-0.246582,0.0103149,-0.153625,0.956787
1472133287954789,-0.246582,0.010376,-0.153625,0.956787
1472133287976807,-0.246643,0.010376,-0.153625,0.956787
1472133287991820,-0.246643,0.010376,-0.153625,0.956787
1472133288014845,-0.246643,0.010376,-0.153625,0.956787
1472133288037381,-0.246643,0.010376,-0.153625,0.956787
1472133288051395,-0.246704,0.010376,-0.153625,0.956787
1472133288074415,-0.246704,0.010376,-0.153625,0.956787
1472133288096447,-0.246704,0.010437,-0.153625,0.956787
1472133288111463,-0.246704,0.010437,-0.153625,0.956787
1472133288134018,-0.246765,0.010437,-0.153625,0.956726
1472133288157040,-0.246765,0.010437,-0.153625,0.956726
1472133288171052,-0.246765,0.010437,-0.153625,0.956726
1472133288194073,-0.246765,0.010498,-0.153625,0.956726
1472133288217116,-0.246765,0.010498,-0.153625,0.956726
1472133288231645,-0.24707,0.0106812,-0.153564,0.956665
1472133288254664,-0.247131,0.0106812,-0.153564,0.956665
1472133288277687,-0.247131,0.0107422,-0.153564,0.956665
1472133288291698,-0.247131,0.0107422,-0.153564,0.956665
1472133288314763,-0.247131,0.0107422,-0.153564,0.956665
1472133288336785,-0.247131,0.0108032,-0.153564,0.956665
1472133288357805,-0.247131,0.0108032,-0.153564,0.956665
1472133288374859,-0.247131,0.0108032,-0.153564,0.956665
1472133288396837,-0.247131,0.0108032,-0.153564,0.956665
1472133288418375,-0.247192,0.0108032,-0.153564,0.956665
1472133288434893,-0.247192,0.0108643,-0.153564,0.956665
1472133288456913,-0.247192,0.0108643,-0.153564,0.956665
1472133288477947,-0.247253,0.0108643,-0.153564,0.956665
1472133288493946,-0.247253,0.0108643,-0.153503,0.956604
1472133288517473,-0.247253,0.0109253,-0.153503,0.956665
1472133288538030,-0.247253,0.0109253,-0.153503,0.956604
1472133288554012,-0.247253,0.0109253,-0.153503,0.956604
1472133288577031,-0.247314,0.0109253,-0.153503,0.956604
1472133288599051,-0.247314,0.0109253,-0.153503,0.956604
1472133288614586,-0.247314,0.0109863,-0.153503,0.956604
1472133288636655,-0.247314,0.0109863,-0.153503,0.956604
1472133288657675,-0.247314,0.0109863,-0.153503,0.956604
1472133288674691,-0.247375,0.0109863,-0.153503,0.956604
1472133288696710,-0.247375,0.0110474,-0.153503,0.956604
1472133288718267,-0.247375,0.0110474,-0.153503,0.956604
1472133288734842,-0.247375,0.0110474,-0.153503,0.956604
1472133288756860,-0.247375,0.0110474,-0.153503,0.956604
1472133288777882,-0.247375,0.0111084,-0.153503,0.956604
1472133288794896,-0.247375,0.0111084,-0.153503,0.956604
1472133288816952,-0.247375,0.0111084,-0.153503,0.956604
1472133288839146,-0.247375,0.0111084,-0.153503,0.956604
1472133288854160,-0.247437,0.0111084,-0.153442,0.956604
1472133288877181,-0.247437,0.0111084,-0.153442,0.956604
1472133288899200,-0.247437,0.0111084,-0.153442,0.956604
1472133288914718,-0.247437,0.0111694,-0.153442,0.956604
1472133288937390,-0.247498,0.0111694,-0.153442,0.956604
1472133288959410,-0.247498,0.0111694,-0.153442,0.956604
1472133288973422,-0.247498,0.0111694,-0.153442,0.956543
1472133288997444,-0.247498,0.0111694,-0.153442,0.956543
1472133289019467,-0.247498,0.0112305,-0.153442,0.956543
1472133289033985,-0.247559,0.0112305,-0.153442,0.956543
1472133289057006,-0.247925,0.0111084,-0.153503,0.956482
1472133289079058,-0.249512,0.00994873,-0.153259,0.956116
1472133289101045,-0.254089,0.00640869,-0.153259,0.954895
1472133289117068,-0.259766,0.00341797,-0.153442,0.953369
1472133289139088,-0.266052,0.00231934,-0.153931,0.951538
1472133289161108,-0.26947,0.0022583,-0.155518,0.950378
1472133289177123,-0.269836,0.00286865,-0.158447,0.949768
1472133289199144,-0.270142,0.00354004,-0.162415,0.948975
1472133289220734,-0.271973,0.0043335,-0.167419,0.947571
1472133289237052,-0.274963,0.00585938,-0.173645,0.945618
1472133289259073,-0.278137,0.00805664,-0.181519,0.943176
1472133289280093,-0.279419,0.0112305,-0.190063,0.941101
1472133289297106,-0.278809,0.0152588,-0.201294,0.938904
1472133289319629,-0.2771,0.0203247,-0.215698,0.936096
1472133289340162,-0.274536,0.0269165,-0.232788,0.932556
1472133289357178,-0.271484,0.0349731,-0.251953,0.928223
1472133289385236,-0.269348,0.0449829,-0.273804,0.92218
1472133289400215,-0.267822,0.0562134,-0.298218,0.914429
1472133289417238,-0.265808,0.0679932,-0.324768,0.90509
1472133289439275,-0.261658,0.0796509,-0.352844,0.894775
1472133289460295,-0.255371,0.0907593,-0.381592,0.883728
1472133289477310,-0.248657,0.101074,-0.40979,0.871765
1472133289499328,-0.24176,0.110596,-0.437256,0.859131
1472133289520880,-0.234314,0.119141,-0.463867,0.846008
1472133289536449,-0.22699,0.126831,-0.488525,0.832886
1472133289559436,-0.219666,0.132751,-0.510559,0.820618
1472133289580455,-0.213318,0.136108,-0.529968,0.809387
1472133289596469,-0.210327,0.138916,-0.547119,0.798157
1472133289620028,-0.2099,0.140991,-0.560974,0.788269
1472133289640565,-0.209167,0.140198,-0.57196,0.780701
1472133289657580,-0.20752,0.138367,-0.580688,0.774963
1472133289679599,-0.20575,0.136902,-0.587158,0.770813
1472133289700617,-0.205505,0.136292,-0.591675,0.767517
1472133289716636,-0.20636,0.136475,-0.594482,0.765137
1472133289739176,-0.207336,0.135803,-0.59613,0.763672
1472133289762198,-0.208313,0.134766,-0.596863,0.763062
1472133289776210,-0.210571,0.134705,-0.597473,0.761902
1472133289799230,-0.212952,0.135315,-0.598145,0.76062
1472133289822256,-0.213684,0.13623,-0.599365,0.759277
1472133289836360,-0.21051,0.138,-0.600708,0.758789
1472133289859380,-0.205139,0.138733,-0.601685,0.759399
1472133289882402,-0.204163,0.141113,-0.602295,0.758667
1472133289896414,-0.205261,0.144653,-0.6026,0.757507
1472133289919441,-0.203735,0.14563,-0.6026,0.75769
1472133289941964,-0.201233,0.145508,-0.602478,0.758484
1472133289955976,-0.19989,0.144897,-0.60199,0.759399
1472133289979011,-0.198975,0.14386,-0.600952,0.76062
1472133290002018,-0.197937,0.142212,-0.599854,0.762085
1472133290016537,-0.196411,0.140686,-0.598999,0.763428
1472133290039753,-0.195374,0.140076,-0.597778,0.764771
1472133290061773,-0.195862,0.141052,-0.59613,0.765747
1472133290076786,-0.197449,0.143188,-0.594421,0.766235
