timestamp,x,y,z,w
1470250755502508,0.121216,0.125427,-0.448059,-0.876831
1470250755524528,0.121643,0.125854,-0.445679,-0.87793
1470250755539041,0.122009,0.126831,-0.443359,-0.878967
1470250755562061,0.122681,0.127808,-0.441284,-0.8797
1470250755584581,0.123474,0.128723,-0.439453,-0.880432
1470250755599094,0.123779,0.129089,-0.437805,-0.881165
1470250755622115,0.123779,0.129211,-0.436218,-0.881897
1470250755645135,0.123901,0.129211,-0.434753,-0.882629
1470250755659149,0.124451,0.129395,-0.433411,-0.883179
1470250755682170,0.125122,0.129517,-0.432373,-0.883545
1470250755704690,0.125305,0.129333,-0.431458,-0.884033
1470250755719202,0.124878,0.128784,-0.430603,-0.884583
1470250755742223,0.124634,0.128235,-0.42981,-0.885071
1470250755764743,0.124695,0.127991,-0.429138,-0.885437
1470250755785762,0.124817,0.127625,-0.428467,-0.885803
1470250755802277,0.124878,0.127258,-0.427734,-0.886169
1470250755832304,0.125,0.126892,-0.42688,-0.886597
1470250755845816,0.125122,0.12677,-0.426025,-0.887024
1470250755862331,0.125183,0.126709,-0.425171,-0.887451
1470250755884851,0.125366,0.126709,-0.424377,-0.887817
1470250755905872,0.12561,0.126709,-0.423645,-0.888123
1470250755922385,0.125732,0.12677,-0.422852,-0.888489
1470250755944905,0.125488,0.126587,-0.42218,-0.888855
1470250755965924,0.125122,0.126465,-0.42157,-0.889221
1470250755982438,0.125,0.126526,-0.420898,-0.889526
1470250756004958,0.125,0.126587,-0.420288,-0.889832
1470250756025977,0.124878,0.126587,-0.419739,-0.890076
1470250756042492,0.124573,0.126404,-0.419373,-0.89032
1470250756065012,0.124268,0.12616,-0.419067,-0.890564
1470250756086031,0.123962,0.125854,-0.418823,-0.890747
1470250756102046,0.123962,0.125793,-0.418579,-0.890869
1470250756124568,0.124084,0.125793,-0.418152,-0.891052
1470250756146085,0.124084,0.125671,-0.417725,-0.891296
1470250756169607,0.124268,0.125549,-0.417358,-0.891418
1470250756184620,0.124573,0.125427,-0.417114,-0.891541
1470250756207140,0.124634,0.125427,-0.417114,-0.891541
1470250756222154,0.124634,0.125244,-0.416992,-0.891602
1470250756244674,0.124634,0.125244,-0.416992,-0.891602
1470250756267195,0.124939,0.125366,-0.416809,-0.891663
1470250756282207,0.125244,0.125427,-0.416565,-0.891724
1470250756304728,0.125549,0.125488,-0.416382,-0.891724
1470250756327249,0.125549,0.125488,-0.416382,-0.891724
1470250756342262,0.125427,0.125366,-0.416443,-0.891724
1470250756364782,0.125427,0.125366,-0.416443,-0.891724
1470250756387302,0.12561,0.125488,-0.416321,-0.891724
1470250756401815,0.12561,0.125488,-0.416321,-0.891724
1470250756424836,0.12561,0.125549,-0.416321,-0.891724
1470250756447357,0.125671,0.125549,-0.416321,-0.891724
1470250756461869,0.126038,0.125549,-0.416199,-0.891724
1470250756484889,0.126343,0.125549,-0.415955,-0.891785
1470250756507410,0.126648,0.125549,-0.41571,-0.891907
1470250756528429,0.126953,0.125671,-0.415344,-0.891968
1470250756544943,0.127258,0.12561,-0.4151,-0.89209
1470250756567463,0.127319,0.125671,-0.414917,-0.892151
1470250756581477,0.127319,0.125549,-0.414734,-0.892273
1470250756612504,0.127258,0.125488,-0.414551,-0.892334
1470250756627520,0.127136,0.125488,-0.414368,-0.892456
1470250756641531,0.127136,0.125488,-0.414185,-0.892517
1470250756665052,0.127136,0.125549,-0.414185,-0.892517
1470250756693577,0.126953,0.125305,-0.414124,-0.892639
1470250756708090,0.126709,0.125061,-0.414001,-0.892761
1470250756724605,0.126709,0.125061,-0.414001,-0.892761
1470250756755133,0.126709,0.125061,-0.414001,-0.892761
1470250756785159,0.126709,0.125,-0.413818,-0.892822
1470250756785159,0.12677,0.125,-0.413818,-0.892822
1470250756807179,0.12677,0.125,-0.413818,-0.892822
1470250756828198,0.12677,0.125,-0.413818,-0.892822
1470250756844713,0.12677,0.125,-0.413818,-0.892822
1470250756867233,0.12677,0.124939,-0.413818,-0.892822
1470250756888252,0.12677,0.124939,-0.413818,-0.892822
1470250756904767,0.126831,0.124939,-0.413818,-0.892822
1470250756927287,0.126831,0.124939,-0.413818,-0.892822
1470250756948306,0.126831,0.124939,-0.413818,-0.892822
1470250756964820,0.127136,0.125,-0.413635,-0.892822
1470250756987341,0.127136,0.124939,-0.413635,-0.892822
1470250757008359,0.127136,0.124939,-0.413635,-0.892822
1470250757024874,0.127136,0.124939,-0.413635,-0.892822
1470250757048395,0.127136,0.124939,-0.413635,-0.892822
1470250757068414,0.127197,0.124939,-0.413635,-0.892822
1470250757084928,0.127197,0.124939,-0.413696,-0.892822
1470250757107448,0.127197,0.124939,-0.413696,-0.892822
1470250757128469,0.127197,0.124878,-0.413696,-0.892822
1470250757144986,0.127258,0.124878,-0.413696,-0.892822
1470250757167502,0.127258,0.124878,-0.413696,-0.892822
1470250757190023,0.127258,0.124878,-0.413696,-0.892822
1470250757204536,0.127319,0.124878,-0.413696,-0.892822
1470250757227556,0.127319,0.124878,-0.413696,-0.892822
1470250757249576,0.127319,0.124817,-0.413696,-0.892822
1470250757264590,0.12738,0.124817,-0.413696,-0.892822
1470250757287610,0.12738,0.124817,-0.413696,-0.892822
1470250757309630,0.127441,0.124817,-0.413696,-0.892822
1470250757324144,0.127441,0.124817,-0.413696,-0.892822
1470250757347164,0.127441,0.124817,-0.413696,-0.892822
1470250757369684,0.127502,0.124817,-0.413696,-0.892822
1470250757384197,0.127502,0.124817,-0.413696,-0.892822
1470250757407218,0.127563,0.124817,-0.413696,-0.892761
1470250757429738,0.127563,0.124817,-0.413696,-0.892761
1470250757444251,0.127625,0.124817,-0.413696,-0.892761
1470250757467271,0.127625,0.124817,-0.413696,-0.892761
1470250757489792,0.127686,0.124817,-0.413696,-0.892761
1470250757504311,0.127686,0.124817,-0.413696,-0.892761
1470250757527325,0.127686,0.124756,-0.413696,-0.892761
1470250757549846,0.127747,0.124756,-0.413696,-0.892761
1470250757564359,0.127747,0.124756,-0.413696,-0.892761
1470250757587380,0.127747,0.124756,-0.413696,-0.892761
1470250757609900,0.127808,0.124756,-0.413696,-0.892761
1470250757623912,0.127747,0.124695,-0.413696,-0.892761
1470250757647433,0.127747,0.124695,-0.413696,-0.892761
1470250757677461,0.127747,0.124695,-0.413696,-0.892761
1470250757690973,0.127808,0.124695,-0.413696,-0.892761
1470250757707488,0.127808,0.124695,-0.413696,-0.892761
1470250757729507,0.127808,0.124695,-0.413696,-0.892761
1470250757751025,0.127808,0.124695,-0.413696,-0.892761
1470250757767041,0.127808,0.124695,-0.413696,-0.892761
1470250757789560,0.127869,0.124695,-0.413696,-0.892761
1470250757811080,0.127869,0.124695,-0.413696,-0.892761
1470250757827097,0.12793,0.124695,-0.413696,-0.892761
1470250757849615,0.12793,0.124695,-0.413696,-0.892761
1470250757871134,0.128113,0.124695,-0.413574,-0.892761
1470250757894655,0.128357,0.124756,-0.413391,-0.892822
1470250757909669,0.128418,0.124756,-0.413391,-0.892822
1470250757931188,0.128418,0.124756,-0.413391,-0.892822
1470250757947202,0.128418,0.124756,-0.413391,-0.892822
1470250757969726,0.128723,0.124817,-0.41333,-0.892822
1470250757975245,0.128723,0.124817,-0.41333,-0.892822
1470250757997773,0.128784,0.124817,-0.41333,-0.892822
1470250758012789,0.128784,0.124817,-0.41333,-0.892761
1470250758035284,0.129028,0.124817,-0.413208,-0.892761
1470250758057803,0.129089,0.124817,-0.413208,-0.892761
1470250758072815,0.129089,0.124817,-0.413208,-0.892761
1470250758095351,0.12915,0.124817,-0.413208,-0.892761
1470250758117856,0.129395,0.124817,-0.413086,-0.892822
1470250758140376,0.129761,0.124817,-0.412903,-0.892822
1470250758155394,0.129822,0.124817,-0.412903,-0.892822
1470250758177910,0.129822,0.124817,-0.412903,-0.892822
1470250758192923,0.129822,0.124817,-0.412903,-0.892822
1470250758215443,0.129822,0.124817,-0.412903,-0.892822
1470250758237463,0.129883,0.124817,-0.412903,-0.892822
1470250758253014,0.129883,0.124756,-0.412903,-0.892822
1470250758275510,0.129944,0.124817,-0.412903,-0.892822
1470250758297532,0.129944,0.124756,-0.412903,-0.892822
1470250758312564,0.130005,0.124756,-0.412903,-0.892822
1470250758335052,0.130005,0.124756,-0.412903,-0.892822
1470250758359074,0.130066,0.124756,-0.412903,-0.892822
1470250758372611,0.130066,0.124817,-0.412903,-0.892822
1470250758395105,0.130127,0.124756,-0.412903,-0.892761
1470250758417629,0.130188,0.124756,-0.412903,-0.892761
1470250758432720,0.130127,0.124512,-0.412842,-0.892822
1470250758455176,0.130127,0.124512,-0.412842,-0.892822
1470250758477680,0.130188,0.124512,-0.412842,-0.892822
1470250758492692,0.130188,0.124451,-0.412842,-0.892822
1470250758515215,0.130249,0.124451,-0.412903,-0.892822
1470250758537753,0.130371,0.124451,-0.41272,-0.892883
1470250758552761,0.130432,0.124451,-0.412537,-0.893005
1470250758582847,0.130676,0.124451,-0.412354,-0.893005
1470250758597801,0.130676,0.124451,-0.412354,-0.893005
1470250758612799,0.130676,0.124451,-0.412354,-0.893005
1470250758635323,0.130676,0.124451,-0.412354,-0.893005
1470250758657840,0.130737,0.124451,-0.412354,-0.893005
1470250758672854,0.130737,0.124451,-0.412354,-0.893005
1470250758695376,0.130798,0.12439,-0.412354,-0.893005
1470250758717894,0.130798,0.12439,-0.412354,-0.893005
1470250758733909,0.130859,0.12439,-0.412354,-0.893005
1470250758755428,0.130859,0.12439,-0.412354,-0.893005
1470250758777948,0.130859,0.12439,-0.412354,-0.893005
1470250758793963,0.13092,0.12439,-0.412354,-0.892944
1470250758815482,0.130981,0.12439,-0.412354,-0.892944
1470250758838002,0.130981,0.12439,-0.412354,-0.892944
1470250758854016,0.130981,0.12439,-0.412354,-0.892944
1470250758875536,0.130981,0.12439,-0.412354,-0.892944
1470250758897556,0.131042,0.12439,-0.412415,-0.892944
1470250758914572,0.131042,0.12439,-0.412415,-0.892944
1470250758935091,0.131104,0.12439,-0.412415,-0.892944
1470250758957609,0.131104,0.12439,-0.412415,-0.892944
1470250758974125,0.131104,0.12439,-0.412415,-0.892944
1470250758995143,0.131165,0.12439,-0.412415,-0.892944
1470250759017663,0.131165,0.12439,-0.412415,-0.892944
1470250759034179,0.131165,0.12439,-0.412415,-0.892944
1470250759055197,0.131226,0.124329,-0.412415,-0.892944
1470250759077720,0.131226,0.124329,-0.412415,-0.892944
1470250759095735,0.131287,0.124329,-0.412415,-0.892944
1470250759115251,0.131287,0.124329,-0.412415,-0.892883
1470250759137773,0.131287,0.124329,-0.412415,-0.892883
1470250759163294,0.131226,0.124207,-0.412415,-0.892944
1470250759175306,0.131226,0.124207,-0.412415,-0.892944
1470250759197827,0.131287,0.124207,-0.412415,-0.892944
1470250759215842,0.131287,0.124207,-0.412415,-0.892944
1470250759235358,0.131287,0.124207,-0.412415,-0.892944
1470250759257895,0.131287,0.124146,-0.412415,-0.892944
1470250759275395,0.131348,0.124146,-0.412415,-0.892944
1470250759295423,0.131348,0.124146,-0.412415,-0.892944
1470250759317933,0.131348,0.124146,-0.412415,-0.892944
1470250759335450,0.131409,0.123901,-0.412537,-0.892883
1470250759354966,0.131592,0.123657,-0.412598,-0.892883
1470250759378489,0.131897,0.123413,-0.412659,-0.892822
1470250759395503,0.132141,0.12323,-0.41272,-0.892822
1470250759415521,0.132324,0.122925,-0.412781,-0.892761
1470250759438042,0.132629,0.12262,-0.412842,-0.892761
1470250759455570,0.132813,0.122192,-0.412842,-0.892761
1470250759475574,0.133179,0.121887,-0.412903,-0.8927
1470250759500597,0.13385,0.12146,-0.413086,-0.892578
1470250759515611,0.134644,0.120789,-0.413208,-0.892517
1470250759535128,0.135681,0.119873,-0.41333,-0.892456
1470250759557649,0.136902,0.118652,-0.413574,-0.892334
1470250759575677,0.138184,0.11731,-0.41394,-0.892151
1470250759595182,0.138977,0.115906,-0.414063,-0.89209
1470250759617702,0.139893,0.114441,-0.414185,-0.89209
1470250759635719,0.141418,0.113281,-0.41449,-0.891907
1470250759656737,0.143188,0.112427,-0.414673,-0.891602
1470250759677757,0.144287,0.111389,-0.414795,-0.891541
1470250759695773,0.144958,0.110229,-0.414856,-0.891541
1470250759716792,0.145935,0.109375,-0.414978,-0.891418
1470250759745316,0.147095,0.108948,-0.4151,-0.891174
1470250759755827,0.147888,0.108582,-0.415283,-0.891052
1470250759778347,0.148743,0.108154,-0.415588,-0.890808
1470250759797864,0.149475,0.107544,-0.416016,-0.890564
1470250759815380,0.150269,0.106812,-0.416504,-0.890259
1470250759836399,0.151062,0.106018,-0.416992,-0.890015
1470250759857918,0.152161,0.105042,-0.417603,-0.889648
1470250759875434,0.153503,0.104126,-0.418335,-0.889221
1470250759896953,0.154663,0.102722,-0.418945,-0.888855
1470250759917971,0.156006,0.100891,-0.419861,-0.888428
1470250759936014,0.157837,0.0993042,-0.420959,-0.887756
1470250759956512,0.158691,0.0974731,-0.42157,-0.887512
1470250759978026,0.15918,0.0957031,-0.421997,-0.88739
1470250759995543,0.160889,0.0949097,-0.422485,-0.886963
1470250760018063,0.163147,0.0944824,-0.422913,-0.886353
1470250760038188,0.164795,0.0935669,-0.423401,-0.885925
1470250760055595,0.165527,0.0923462,-0.423706,-0.885803
1470250760078115,0.166138,0.0911255,-0.42395,-0.885681
1470250760098200,0.167419,0.090332,-0.424255,-0.885376
1470250760115652,0.169189,0.0899048,-0.424683,-0.884888
1470250760138256,0.170654,0.0891724,-0.425049,-0.88446
1470250760157731,0.171387,0.0880737,-0.425476,-0.884277
1470250760175717,0.171875,0.0869141,-0.425781,-0.884094
1470250760198275,0.172852,0.0860596,-0.426208,-0.883789
1470250760217774,0.174316,0.0855713,-0.426758,-0.883301
1470250760241763,0.175781,0.085083,-0.427124,-0.882874
1470250760258280,0.176453,0.0844116,-0.427246,-0.882751
1470250760277808,0.177185,0.0838623,-0.427307,-0.882629
1470250760295811,0.178345,0.0836792,-0.427307,-0.882446
1470250760318331,0.179749,0.0837402,-0.427246,-0.882141
1470250760337849,0.18103,0.0838013,-0.427124,-0.881958
1470250760355865,0.181946,0.0839233,-0.426941,-0.881836
1470250760377385,0.1828,0.0839233,-0.426697,-0.881775
1470250760397919,0.183777,0.0839844,-0.426514,-0.881653
1470250760416045,0.184937,0.0842896,-0.426392,-0.88147
1470250760437940,0.185974,0.0845947,-0.426208,-0.881287
1470250760457958,0.186829,0.0847778,-0.426086,-0.881165
1470250760474972,0.1875,0.0849609,-0.425964,-0.881042
1470250760497492,0.18811,0.0853271,-0.425903,-0.88092
1470250760518514,0.188843,0.0858154,-0.425842,-0.880737
1470250760535025,0.189514,0.0863647,-0.425842,-0.880554
1470250760557548,0.190002,0.0869751,-0.425781,-0.880432
1470250760578587,0.190247,0.0875244,-0.42572,-0.88031
1470250760595082,0.19043,0.0881348,-0.42572,-0.880249
1470250760617607,0.190735,0.0888672,-0.42572,-0.880066
1470250760638627,0.19104,0.0895996,-0.42572,-0.879944
1470250760654641,0.191162,0.090332,-0.425781,-0.879822
1470250760677662,0.191223,0.0909424,-0.425781,-0.879761
1470250760698201,0.191284,0.0913696,-0.425903,-0.879639
1470250760714697,0.191345,0.0918579,-0.425903,-0.879578
1470250760737217,0.191528,0.0923462,-0.425903,-0.879456
1470250760758793,0.19165,0.0927734,-0.425903,-0.879395
1470250760774749,0.191711,0.0930786,-0.425903,-0.879333
1470250760797269,0.191711,0.0933838,-0.425903,-0.879333
1470250760818300,0.191711,0.093689,-0.425781,-0.879333
1470250760834804,0.191711,0.0941162,-0.425659,-0.879333
1470250760857323,0.191711,0.0945435,-0.425537,-0.879395
1470250760885861,0.191895,0.0949707,-0.425354,-0.879395
1470250760895357,0.191895,0.0953369,-0.425232,-0.879395
1470250760917376,0.191772,0.0955811,-0.42511,-0.879456
1470250760938395,0.191711,0.0957642,-0.425049,-0.879456
1470250760954910,0.191711,0.0960693,-0.424927,-0.879456
1470250760977431,0.191711,0.0962524,-0.424866,-0.879517
1470250760999951,0.191406,0.0964355,-0.424744,-0.879578
1470250761014965,0.191223,0.0965576,-0.424744,-0.879639
1470250761037484,0.191101,0.0969238,-0.424683,-0.879639
1470250761060006,0.190979,0.0971069,-0.424744,-0.879639
1470250761075019,0.190796,0.097229,-0.424744,-0.879639
1470250761097539,0.19043,0.09729,-0.424744,-0.879761
1470250761120058,0.190125,0.0973511,-0.424683,-0.879822
1470250761134094,0.18988,0.0975342,-0.424683,-0.879822
1470250761157592,0.18988,0.0977783,-0.424622,-0.879822
1470250761180113,0.189819,0.0980835,-0.424561,-0.879883
1470250761194125,0.189819,0.0980835,-0.4245,-0.879883
1470250761217655,0.18988,0.0980835,-0.4245,-0.879883
1470250761239684,0.18988,0.0980835,-0.424561,-0.879883
1470250761254179,0.190002,0.0982666,-0.424438,-0.879883
1470250761277701,0.190002,0.0982666,-0.424438,-0.879883
1470250761299801,0.189819,0.0982056,-0.424316,-0.879944
1470250761314238,0.189819,0.0981445,-0.424316,-0.879944
1470250761337257,0.189819,0.0981445,-0.424316,-0.879944
1470250761359774,0.189819,0.0982056,-0.424316,-0.879944
1470250761374289,0.189819,0.0982056,-0.424316,-0.879944
1470250761397342,0.189819,0.0982056,-0.424316,-0.879944
1470250761419828,0.189819,0.0982056,-0.424316,-0.879944
1470250761434342,0.189819,0.0982056,-0.424316,-0.879944
1470250761457362,0.18988,0.0982666,-0.424133,-0.880005
1470250761479882,0.18988,0.0982666,-0.42395,-0.880127
1470250761500904,0.189941,0.0983887,-0.423767,-0.880188
1470250761517417,0.189941,0.0983887,-0.423767,-0.880188
1470250761539936,0.189941,0.0983887,-0.423767,-0.880188
1470250761560956,0.189941,0.0983887,-0.423767,-0.880188
1470250761577970,0.189941,0.0983887,-0.423767,-0.880188
1470250761599990,0.189941,0.0984497,-0.423767,-0.880188
1470250761621027,0.190002,0.0984497,-0.423767,-0.880188
1470250761637523,0.190002,0.0984497,-0.423767,-0.880188
1470250761660044,0.190002,0.0984497,-0.423767,-0.880188
1470250761681079,0.190002,0.0984497,-0.423767,-0.880188
1470250761697578,0.190002,0.0984497,-0.423767,-0.880188
1470250761720098,0.190002,0.0984497,-0.423767,-0.880188
1470250761741117,0.190002,0.0985107,-0.423767,-0.880188
1470250761757131,0.190002,0.0985107,-0.423767,-0.880188
1470250761779651,0.189819,0.0985107,-0.423706,-0.880188
1470250761801170,0.189819,0.0985718,-0.423706,-0.880188
1470250761817185,0.189819,0.0985718,-0.423706,-0.880188
1470250761839705,0.189819,0.0985718,-0.423706,-0.880188
1470250761861224,0.189636,0.0987549,-0.423706,-0.880249
1470250761877239,0.189636,0.0987549,-0.423706,-0.880249
1470250761899759,0.189453,0.098999,-0.423706,-0.880249
1470250761922279,0.18927,0.0991821,-0.423645,-0.88031
1470250761937292,0.189087,0.0994263,-0.423523,-0.880371
1470250761959813,0.189087,0.0994263,-0.423523,-0.880371
1470250761982333,0.188904,0.0996094,-0.423462,-0.880432
1470250761997347,0.188904,0.0996094,-0.423462,-0.880432
1470250762019867,0.188904,0.0996094,-0.423462,-0.880432
1470250762042391,0.188904,0.0996704,-0.423462,-0.880432
1470250762056900,0.188904,0.0996704,-0.423401,-0.880432
1470250762079920,0.188904,0.0999146,-0.42334,-0.880432
1470250762102441,0.189026,0.10022,-0.423279,-0.880432
1470250762116954,0.188965,0.10022,-0.423279,-0.880432
1470250762139974,0.188965,0.100281,-0.423218,-0.880432
1470250762162495,0.188904,0.100464,-0.423218,-0.880432
1470250762177008,0.188904,0.100464,-0.423218,-0.880432
1470250762200057,0.188904,0.100464,-0.423218,-0.880432
1470250762222548,0.188904,0.100525,-0.423218,-0.880432
1470250762236561,0.188904,0.100525,-0.423218,-0.880432
1470250762260082,0.188843,0.100525,-0.423218,-0.880432
1470250762282102,0.188843,0.100525,-0.423218,-0.880432
1470250762304622,0.18866,0.100647,-0.423157,-0.880493
1470250762319636,0.18866,0.100647,-0.423157,-0.880493
1470250762342156,0.18866,0.100647,-0.423157,-0.880493
1470250762356677,0.18866,0.100708,-0.423157,-0.880493
1470250762380190,0.188599,0.100708,-0.423157,-0.880493
1470250762402210,0.188416,0.100769,-0.423157,-0.880554
1470250762423285,0.18811,0.10083,-0.423096,-0.880615
1470250762439751,0.187866,0.10083,-0.423035,-0.880676
1470250762462266,0.187683,0.100891,-0.423035,-0.880737
1470250762483803,0.187683,0.100891,-0.422974,-0.880737
1470250762499800,0.187622,0.100952,-0.422974,-0.880737
1470250762522317,0.187622,0.100952,-0.422974,-0.880737
1470250762543337,0.187622,0.100952,-0.422974,-0.880737
1470250762559852,0.187622,0.100952,-0.422974,-0.880737
1470250762582372,0.187622,0.101013,-0.422974,-0.880737
1470250762603391,0.187622,0.101013,-0.422974,-0.880737
1470250762619909,0.187622,0.101013,-0.422974,-0.880798
1470250762642426,0.187622,0.101074,-0.422974,-0.880798
1470250762663463,0.187622,0.101074,-0.422974,-0.880798
1470250762679959,0.187561,0.101135,-0.422974,-0.880798
1470250762702480,0.187561,0.101135,-0.422974,-0.880798
1470250762723501,0.187561,0.101196,-0.422974,-0.880798
1470250762740014,0.187561,0.101196,-0.422913,-0.880798
1470250762762533,0.187561,0.101196,-0.422913,-0.880798
1470250762783554,0.187561,0.101196,-0.422913,-0.880798
1470250762800067,0.187256,0.101196,-0.422974,-0.880798
1470250762830095,0.187256,0.101196,-0.422974,-0.880798
1470250762843606,0.187256,0.101196,-0.422974,-0.880798
1470250762860122,0.187256,0.101257,-0.422974,-0.880859
1470250762882144,0.187256,0.101257,-0.422974,-0.880859
1470250762905161,0.187195,0.101318,-0.422974,-0.880859
1470250762920175,0.187195,0.101318,-0.422913,-0.880859
1470250762942195,0.187195,0.101318,-0.422913,-0.880859
1470250762964761,0.187195,0.101379,-0.422913,-0.880859
1470250762979730,0.187195,0.101379,-0.422913,-0.880859
1470250763002249,0.187195,0.101379,-0.422913,-0.880859
1470250763024774,0.187195,0.10144,-0.422913,-0.880859
1470250763039283,0.187134,0.10144,-0.422913,-0.880859
1470250763062303,0.187134,0.10144,-0.422913,-0.880859
1470250763084825,0.187134,0.10144,-0.422913,-0.880859
1470250763106431,0.187134,0.101501,-0.422913,-0.880859
1470250763122361,0.187134,0.101501,-0.422913,-0.880859
1470250763144877,0.187134,0.101563,-0.422913,-0.880859
1470250763167400,0.187134,0.101563,-0.422913,-0.880859
1470250763182426,0.187134,0.101563,-0.422913,-0.880859
1470250763204931,0.187073,0.101624,-0.422852,-0.880859
1470250763219443,0.187073,0.101624,-0.422852,-0.880859
1470250763242465,0.187073,0.101624,-0.422852,-0.880859
1470250763264985,0.187073,0.101624,-0.422852,-0.880859
1470250763279499,0.187073,0.101685,-0.422852,-0.880859
1470250763302519,0.187012,0.101685,-0.422852,-0.880859
1470250763325040,0.187012,0.101746,-0.422852,-0.880859
1470250763339051,0.187012,0.101746,-0.422852,-0.880859
1470250763362572,0.187012,0.101746,-0.422852,-0.880859
1470250763385093,0.187012,0.101807,-0.422852,-0.880859
1470250763406164,0.187012,0.101807,-0.422852,-0.880859
1470250763422157,0.187012,0.101807,-0.422852,-0.880859
1470250763445146,0.187012,0.101868,-0.422852,-0.880859
1470250763466166,0.187012,0.101868,-0.422852,-0.880859
1470250763482189,0.187012,0.101868,-0.422791,-0.880859
1470250763505200,0.186829,0.101868,-0.422791,-0.88092
1470250763526219,0.186829,0.101929,-0.422791,-0.88092
1470250763542235,0.186829,0.101929,-0.422791,-0.88092
1470250763564753,0.186829,0.10199,-0.422791,-0.88092
1470250763586273,0.186829,0.10199,-0.422791,-0.88092
1470250763602303,0.186829,0.10199,-0.422791,-0.88092
1470250763632315,0.186829,0.10199,-0.422791,-0.88092
1470250763645827,0.186768,0.10199,-0.422791,-0.88092
1470250763662342,0.186768,0.10199,-0.422791,-0.88092
1470250763684862,0.186768,0.102051,-0.422791,-0.88092
1470250763706415,0.186768,0.102051,-0.422791,-0.88092
1470250763722395,0.186768,0.102051,-0.422791,-0.88092
1470250763744916,0.186768,0.102051,-0.422791,-0.88092
1470250763765934,0.186768,0.102112,-0.422729,-0.88092
1470250763782450,0.186768,0.102112,-0.422729,-0.88092
1470250763804970,0.186707,0.102112,-0.422729,-0.88092
1470250763827490,0.186707,0.102112,-0.422729,-0.88092
1470250763842503,0.186707,0.102112,-0.422729,-0.88092
1470250763865025,0.186523,0.102112,-0.422791,-0.880981
1470250763887544,0.186523,0.102112,-0.422791,-0.880981
1470250763902557,0.186523,0.102173,-0.422791,-0.880981
1470250763925077,0.186462,0.102173,-0.422791,-0.880981
1470250763947097,0.186462,0.102173,-0.422791,-0.880981
1470250763968672,0.186462,0.102234,-0.422791,-0.880981
1470250763985133,0.186462,0.102234,-0.422791,-0.880981
1470250764007209,0.186462,0.102234,-0.422791,-0.880981
1470250764021683,0.186462,0.102295,-0.422791,-0.880981
1470250764044685,0.186462,0.102295,-0.422791,-0.880981
1470250764067705,0.186462,0.102295,-0.422791,-0.880981
1470250764081722,0.186462,0.102295,-0.422791,-0.880981
1470250764104739,0.186218,0.102295,-0.422729,-0.881042
1470250764127259,0.186218,0.102295,-0.422729,-0.881042
1470250764141774,0.186157,0.102295,-0.422729,-0.881042
1470250764164795,0.185852,0.102295,-0.422791,-0.881104
1470250764187312,0.185486,0.102295,-0.422852,-0.881104
1470250764201826,0.185181,0.102356,-0.422913,-0.881165
1470250764224881,0.184753,0.102295,-0.422974,-0.881226
1470250764247374,0.184326,0.102295,-0.423035,-0.881287
1470250764261879,0.184021,0.102417,-0.423096,-0.881287
1470250764284900,0.183655,0.102478,-0.423157,-0.881348
1470250764307421,0.183289,0.1026,-0.423157,-0.881409
1470250764328441,0.183044,0.102844,-0.423157,-0.881409
1470250764344955,0.182861,0.103088,-0.423157,-0.88147
1470250764367475,0.182617,0.103149,-0.423218,-0.88147
1470250764388553,0.182312,0.103149,-0.423218,-0.881531
1470250764405008,0.182312,0.103149,-0.423218,-0.881531
1470250764435036,0.182312,0.103149,-0.423218,-0.881531
1470250764448564,0.182312,0.10321,-0.423218,-0.881531
1470250764465087,0.182007,0.10321,-0.423218,-0.881531
1470250764487090,0.182007,0.10321,-0.423218,-0.881531
1470250764508615,0.181946,0.103394,-0.423279,-0.881531
1470250764525116,0.181885,0.103455,-0.423279,-0.881531
1470250764547637,0.181641,0.103516,-0.423279,-0.881592
1470250764568658,0.181274,0.103516,-0.423279,-0.881653
1470250764585169,0.181335,0.103516,-0.423279,-0.881653
1470250764607194,0.181335,0.103577,-0.423218,-0.881653
1470250764628710,0.181335,0.103577,-0.423218,-0.881653
1470250764644724,0.181335,0.103577,-0.423218,-0.881653
1470250764667246,0.181274,0.103638,-0.423218,-0.881653
1470250764688763,0.181274,0.103577,-0.423218,-0.881653
1470250764704779,0.181274,0.103638,-0.423218,-0.881653
1470250764727298,0.181274,0.103638,-0.423218,-0.881653
1470250764748817,0.18103,0.103638,-0.423157,-0.881714
1470250764764832,0.18103,0.103638,-0.423157,-0.881775
1470250764787351,0.18103,0.103699,-0.423157,-0.881775
1470250764809871,0.180969,0.103699,-0.423157,-0.881775
1470250764824385,0.180969,0.103699,-0.423157,-0.881775
1470250764847406,0.180969,0.103699,-0.423157,-0.881775
1470250764869926,0.180969,0.10376,-0.423157,-0.881775
1470250764884939,0.18103,0.10376,-0.423157,-0.881714
1470250764907459,0.180969,0.103821,-0.423157,-0.881775
1470250764929979,0.180969,0.103821,-0.423157,-0.881775
1470250764944493,0.18103,0.103821,-0.423157,-0.881714
1470250764967513,0.18103,0.103943,-0.422913,-0.881836
1470250764990034,0.18103,0.104004,-0.422913,-0.881836
1470250765004058,0.180969,0.104004,-0.422913,-0.881836
1470250765027567,0.180969,0.104004,-0.422913,-0.881836
1470250765050088,0.180969,0.104004,-0.422913,-0.881836
1470250765064100,0.180969,0.104004,-0.422913,-0.881836
1470250765087121,0.180969,0.104065,-0.422913,-0.881836
1470250765110141,0.180969,0.104065,-0.422913,-0.881836
1470250765124155,0.180969,0.104065,-0.422913,-0.881836
1470250765147174,0.180969,0.104126,-0.422913,-0.881836
1470250765170195,0.180969,0.104126,-0.422913,-0.881836
1470250765184208,0.180969,0.104187,-0.422913,-0.881836
1470250765207233,0.180969,0.104187,-0.422913,-0.881836
1470250765229750,0.180969,0.104187,-0.422913,-0.881836
1470250765244263,0.180969,0.104248,-0.422913,-0.881836
1470250765273805,0.180969,0.104248,-0.422852,-0.881836
1470250765289803,0.180908,0.104248,-0.422852,-0.881836
1470250765310821,0.180908,0.104309,-0.422852,-0.881836
1470250765327837,0.180908,0.104309,-0.422852,-0.881836
1470250765357363,0.180908,0.104309,-0.422852,-0.881836
1470250765370965,0.180908,0.104309,-0.422852,-0.881836
1470250765387391,0.180969,0.10437,-0.422852,-0.881836
1470250765409911,0.180969,0.10437,-0.422852,-0.881836
1470250765431449,0.180969,0.10437,-0.422852,-0.881836
1470250765447444,0.180969,0.104431,-0.422852,-0.881836
1470250765469964,0.180969,0.104431,-0.422852,-0.881836
1470250765490983,0.180969,0.104431,-0.422852,-0.881836
1470250765507498,0.180969,0.104492,-0.422852,-0.881836
1470250765530018,0.180969,0.104492,-0.422852,-0.881836
1470250765551055,0.181091,0.104797,-0.422729,-0.881775
1470250765567552,0.181335,0.105103,-0.422729,-0.881714
1470250765590072,0.181335,0.105103,-0.422729,-0.881714
1470250765611125,0.181335,0.105103,-0.422729,-0.881714
1470250765617631,0.181519,0.105225,-0.422729,-0.881653
1470250765633117,0.181519,0.105286,-0.422729,-0.881653
1470250765663163,0.18158,0.105286,-0.422729,-0.881653
1470250765678151,0.18158,0.105286,-0.422729,-0.881653
1470250765692706,0.18158,0.105286,-0.422729,-0.881653
1470250765715233,0.18158,0.105347,-0.422668,-0.881653
1470250765737706,0.181641,0.105347,-0.422668,-0.881653
1470250765752718,0.181641,0.105347,-0.422668,-0.881653
1470250765775239,0.181641,0.105408,-0.422668,-0.881653
1470250765797759,0.181702,0.105408,-0.422668,-0.881653
1470250765812789,0.181702,0.105408,-0.422668,-0.881653
1470250765835293,0.181702,0.105469,-0.422668,-0.881653
1470250765857814,0.181702,0.105469,-0.422668,-0.881653
1470250765872827,0.181702,0.105469,-0.422668,-0.881653
1470250765895348,0.181763,0.105469,-0.422668,-0.881653
1470250765917868,0.181763,0.10553,-0.422668,-0.881592
1470250765932879,0.181763,0.10553,-0.422668,-0.881592
1470250765955401,0.181824,0.10553,-0.422668,-0.881592
1470250765977921,0.181824,0.105591,-0.422668,-0.881592
1470250765992935,0.181824,0.105591,-0.422668,-0.881592
1470250766015454,0.181824,0.105591,-0.422668,-0.881592
1470250766037974,0.181824,0.105591,-0.422668,-0.881592
1470250766052989,0.181824,0.105591,-0.422668,-0.881592
1470250766075507,0.181885,0.105591,-0.422607,-0.881592
1470250766098028,0.181885,0.105652,-0.422607,-0.881592
1470250766113041,0.181885,0.105652,-0.422607,-0.881592
1470250766135563,0.181885,0.105713,-0.422607,-0.881592
1470250766158099,0.181946,0.105713,-0.422607,-0.881592
1470250766173096,0.181946,0.105713,-0.422607,-0.881592
1470250766195131,0.181946,0.105713,-0.422607,-0.881592
1470250766217638,0.181946,0.105713,-0.422607,-0.881592
1470250766233183,0.182007,0.105713,-0.422607,-0.881592
1470250766255170,0.182007,0.105774,-0.422607,-0.881592
1470250766277691,0.182007,0.105774,-0.422607,-0.881592
1470250766294205,0.182007,0.105774,-0.422607,-0.881531
1470250766315240,0.182007,0.105774,-0.422607,-0.881531
1470250766337759,0.182068,0.105774,-0.422607,-0.881531
1470250766354258,0.182068,0.105835,-0.422607,-0.881531
1470250766378280,0.182068,0.105835,-0.422607,-0.881531
1470250766405824,0.182068,0.105835,-0.422607,-0.881531
1470250766414312,0.182373,0.106079,-0.422546,-0.88147
1470250766435357,0.182373,0.106079,-0.422546,-0.88147
1470250766457852,0.182373,0.106079,-0.422546,-0.88147
1470250766474366,0.182434,0.106079,-0.422546,-0.88147
1470250766498388,0.182434,0.106079,-0.422546,-0.88147
1470250766526413,0.182434,0.106079,-0.422546,-0.88147
1470250766534420,0.182434,0.106079,-0.422546,-0.88147
1470250766555439,0.182495,0.10614,-0.422546,-0.88147
1470250766577959,0.182495,0.10614,-0.422546,-0.88147
1470250766594478,0.182495,0.10614,-0.422546,-0.88147
1470250766615493,0.182556,0.10614,-0.422546,-0.88147
1470250766638035,0.182556,0.10614,-0.422546,-0.88147
1470250766655529,0.182556,0.106201,-0.422485,-0.88147
1470250766675600,0.182556,0.106201,-0.422485,-0.88147
1470250766698066,0.182556,0.106201,-0.422485,-0.88147
1470250766716124,0.182556,0.106201,-0.422485,-0.88147
1470250766743124,0.182556,0.106201,-0.422485,-0.88147
1470250766758121,0.182556,0.106201,-0.422485,-0.881409
1470250766775637,0.182617,0.106201,-0.422485,-0.881409
1470250766795169,0.182617,0.106262,-0.422485,-0.881409
1470250766818234,0.182617,0.106262,-0.422485,-0.881409
1470250766835692,0.182617,0.106323,-0.422485,-0.881409
1470250766855251,0.182617,0.106323,-0.422485,-0.881409
1470250766877730,0.182678,0.106323,-0.422485,-0.881409
1470250766895745,0.182678,0.106323,-0.422485,-0.881409
1470250766915262,0.182678,0.106323,-0.422485,-0.881409
1470250766938282,0.182678,0.106323,-0.422485,-0.881409
1470250766955799,0.182739,0.106323,-0.422485,-0.881409
1470250766975819,0.182739,0.106323,-0.422485,-0.881409
1470250766997861,0.182739,0.106384,-0.422485,-0.881409
1470250767023384,0.182556,0.106262,-0.422485,-0.88147
1470250767035385,0.182495,0.106262,-0.422485,-0.88147
1470250767057893,0.182556,0.106262,-0.422485,-0.88147
1470250767076407,0.182373,0.106323,-0.422546,-0.88147
1470250767095426,0.182251,0.106262,-0.422546,-0.88147
1470250767117945,0.182251,0.106323,-0.422546,-0.88147
1470250767135960,0.182251,0.106323,-0.422546,-0.88147
1470250767155509,0.182312,0.106323,-0.422546,-0.88147
1470250767177998,0.182312,0.106323,-0.422546,-0.88147
1470250767195514,0.182312,0.106323,-0.422546,-0.88147
1470250767215539,0.182312,0.106384,-0.422546,-0.88147
1470250767238156,0.182312,0.106384,-0.422546,-0.88147
1470250767255568,0.182312,0.106384,-0.422546,-0.88147
1470250767277087,0.182373,0.106384,-0.422546,-0.88147
1470250767298105,0.182251,0.106384,-0.422546,-0.88147
1470250767315622,0.182312,0.106384,-0.422546,-0.88147
1470250767336641,0.182312,0.106384,-0.422546,-0.88147
1470250767357679,0.182312,0.106384,-0.422546,-0.88147
1470250767375676,0.182312,0.106445,-0.422546,-0.88147
1470250767396694,0.182312,0.106445,-0.422546,-0.88147
1470250767417748,0.182068,0.106384,-0.422668,-0.88147
1470250767435729,0.181763,0.106445,-0.422729,-0.88147
1470250767456748,0.180847,0.106384,-0.422913,-0.881592
1470250767478267,0.178162,0.105896,-0.423401,-0.881958
1470250767495784,0.174133,0.105835,-0.423889,-0.882507
1470250767516802,0.168884,0.106873,-0.424316,-0.88324
1470250767537822,0.162903,0.109253,-0.425415,-0.883545
1470250767555852,0.155823,0.113647,-0.427734,-0.883118
1470250767576856,0.148804,0.118896,-0.430664,-0.882202
1470250767598379,0.140198,0.123474,-0.434998,-0.880859
1470250767615910,0.130798,0.126831,-0.440308,-0.879211
1470250767638440,0.119751,0.127197,-0.445618,-0.878052
1470250767657929,0.104797,0.11969,-0.449829,-0.878845
1470250767675945,0.0859375,0.103394,-0.452148,-0.881775
1470250767698466,0.0664673,0.0822754,-0.452759,-0.885376
1470250767718073,0.052002,0.0587769,-0.450317,-0.889465
1470250767735499,0.043457,0.0333862,-0.445313,-0.893738
1470250767758019,0.0401611,0.00714111,-0.4375,-0.898315
1470250767778037,0.041748,-0.0184937,-0.42804,-0.902649
1470250767795553,0.045166,-0.0438843,-0.417542,-0.906494
1470250767818073,0.0473022,-0.0688477,-0.406555,-0.909851
1470250767838090,0.0484009,-0.0928955,-0.395935,-0.912354
1470250767856116,0.0493164,-0.11499,-0.386658,-0.913696
1470250767878127,0.0498657,-0.134705,-0.379211,-0.914124
1470250767897644,0.0511475,-0.15033,-0.37323,-0.914124
1470250767916172,0.0510864,-0.164001,-0.368347,-0.913757
1470250767938236,0.0490723,-0.175842,-0.363892,-0.913452
1470250767957698,0.0447388,-0.185608,-0.359558,-0.913452
1470250767975714,0.0391846,-0.192566,-0.356018,-0.913635
1470250767998235,0.0339355,-0.196106,-0.35376,-0.914001
1470250768017794,0.0302734,-0.195618,-0.352661,-0.914612
1470250768035829,0.0285034,-0.190674,-0.352661,-0.91571
1470250768058290,0.0279541,-0.182129,-0.35321,-0.917297
1470250768078806,0.027832,-0.170532,-0.354187,-0.919128
1470250768094821,0.0280151,-0.15448,-0.355469,-0.921448
1470250768117377,0.0272217,-0.133362,-0.358215,-0.923706
1470250768138414,0.0255737,-0.108093,-0.363037,-0.925171
1470250768154877,0.0219116,-0.0806885,-0.371216,-0.924805
1470250768177896,0.0158081,-0.0529175,-0.381165,-0.922913
1470250768198431,0.00823975,-0.0253906,-0.391357,-0.919922
1470250768214929,0.000488281,0.00201416,-0.401855,-0.915771
1470250768237449,-0.00671387,0.0264282,-0.412354,-0.910645
1470250768258496,-0.0130005,0.0462036,-0.421082,-0.905823
1470250768274983,-0.0178223,0.0620117,-0.428101,-0.901489
1470250768297504,-0.0182495,0.074707,-0.434387,-0.897461
1470250768318553,-0.0147705,0.0869141,-0.439148,-0.894104
1470250768335039,-0.0106201,0.098999,-0.442749,-0.891113
1470250768357559,-0.00683594,0.110352,-0.445923,-0.888245
1470250768378590,-0.00274658,0.120605,-0.447632,-0.886108
1470250768394590,0.0012207,0.128967,-0.447571,-0.884949
1470250768417611,0.00128174,0.134216,-0.446716,-0.884583
1470250768438683,-0.00244141,0.136292,-0.447083,-0.884094
1470250768454182,-0.0043335,0.140747,-0.44812,-0.882874
1470250768477665,-0.00238037,0.147339,-0.448425,-0.881592
1470250768498683,0.000793457,0.153137,-0.44751,-0.881104
1470250768514198,0.000305176,0.154541,-0.446106,-0.881592
1470250768537719,-0.00415039,0.151794,-0.44574,-0.882263
1470250768560239,-0.00750732,0.149963,-0.44635,-0.882202
1470250768574252,-0.0067749,0.151489,-0.446655,-0.881836
1470250768597773,-0.00372314,0.154602,-0.446045,-0.881592
1470250768620293,-0.0022583,0.156006,-0.445251,-0.881775
1470250768634306,-0.00402832,0.155518,-0.44458,-0.882141
1470250768657326,-0.00622559,0.155151,-0.444031,-0.882507
1470250768679846,-0.00640869,0.155579,-0.443176,-0.882813
1470250768694360,-0.00463867,0.155884,-0.4422,-0.883301
1470250768717380,-0.00140381,0.155823,-0.44104,-0.883911
1470250768739929,0.00366211,0.155762,-0.439575,-0.884644
1470250768760957,0.0137329,0.157043,-0.437927,-0.885132
1470250768777434,0.0287476,0.158813,-0.436584,-0.885071
1470250768799954,0.0478516,0.161865,-0.435974,-0.884033
1470250768820977,0.0686035,0.164734,-0.437073,-0.881592
1470250768837489,0.0859375,0.164734,-0.441467,-0.877869
1470250768860008,0.101379,0.162354,-0.452026,-0.871277
1470250768881070,0.111572,0.15979,-0.469788,-0.861023
1470250768897542,0.117676,0.158936,-0.495728,-0.845703
1470250768920062,0.123291,0.162415,-0.527161,-0.824951
1470250768941082,0.130249,0.172302,-0.562195,-0.79834
1470250768957597,0.134766,0.187561,-0.599609,-0.766296
1470250768980116,0.133362,0.204407,-0.638306,-0.730103
1470250769001134,0.128296,0.223267,-0.674438,-0.692017
1470250769017649,0.122742,0.242065,-0.704895,-0.655396
1470250769040170,0.116333,0.256165,-0.732361,-0.620117
1470250769061188,0.11145,0.269958,-0.755493,-0.586487
1470250769077704,0.110718,0.280212,-0.773621,-0.557434
1470250769100224,0.111145,0.287109,-0.787964,-0.533264
1470250769121336,0.110962,0.295837,-0.797729,-0.513611
1470250769137315,0.10614,0.306152,-0.803406,-0.499573
1470250769160278,0.10022,0.314575,-0.806274,-0.490845
1470250769181389,0.0950928,0.317688,-0.8078,-0.487427
1470250769198319,0.093811,0.320679,-0.806152,-0.488403
1470250769219831,0.0957031,0.323242,-0.803406,-0.490845
1470250769241351,0.0961914,0.323242,-0.801575,-0.493774
1470250769257365,0.0944214,0.32373,-0.7995,-0.49707
1470250769279886,0.09198,0.325012,-0.797913,-0.499268
1470250769300905,0.0894165,0.325806,-0.797302,-0.500183
1470250769317419,0.0863647,0.325684,-0.797424,-0.50061
1470250769339940,0.0831299,0.325378,-0.797546,-0.501221
1470250769363960,0.0804443,0.325195,-0.797302,-0.502075
1470250769376972,0.079834,0.324463,-0.79718,-0.50293
1470250769399993,0.0799561,0.321899,-0.797607,-0.503845
1470250769421041,0.0810547,0.320801,-0.797546,-0.504456
1470250769437527,0.0828857,0.321655,-0.796875,-0.504761
1470250769460047,0.0839844,0.321716,-0.796387,-0.505249
1470250769482568,0.0845337,0.320496,-0.796448,-0.505859
1470250769497580,0.0852051,0.319519,-0.796509,-0.506226
1470250769520101,0.0855713,0.31842,-0.796753,-0.50647
1470250769542621,0.0852661,0.316589,-0.797302,-0.506836
1470250769557634,0.0847168,0.314148,-0.798157,-0.50708
1470250769580155,0.0842285,0.311523,-0.799011,-0.507385
1470250769602676,0.0842285,0.309265,-0.799805,-0.507568
1470250769617206,0.0845337,0.307312,-0.800476,-0.507629
1470250769639708,0.0849609,0.305054,-0.801208,-0.507813
1470250769662228,0.085022,0.30249,-0.802063,-0.507935
1470250769676742,0.0848999,0.299866,-0.802917,-0.508118
1470250769700263,0.0847778,0.297791,-0.803589,-0.508362
1470250769722282,0.085022,0.296021,-0.804016,-0.508728
1470250769736796,0.0854492,0.294434,-0.804382,-0.508911
1470250769759816,0.0856323,0.292786,-0.804871,-0.509155
1470250769782336,0.0853271,0.290588,-0.805481,-0.509399
1470250769796849,0.0852051,0.288513,-0.80603,-0.509705
1470250769819889,0.0854492,0.286743,-0.806519,-0.51001
1470250769842399,0.0858765,0.285156,-0.806885,-0.510254
1470250769856903,0.0861816,0.283508,-0.80719,-0.510559
1470250769879973,0.0863647,0.28186,-0.807556,-0.510925
1470250769902446,0.0863647,0.280151,-0.8078,-0.511475
1470250769916958,0.0864258,0.278992,-0.807983,-0.51178
1470250769939978,0.0863037,0.278381,-0.807983,-0.512146
1470250769962498,0.0864258,0.278015,-0.807983,-0.512329
1470250769983521,0.0863037,0.277466,-0.808044,-0.512573
1470250770000033,0.0860596,0.276672,-0.808105,-0.512878
1470250770022552,0.0858765,0.276062,-0.808228,-0.513123
1470250770043573,0.0858154,0.275879,-0.808167,-0.513306
1470250770060087,0.0856323,0.275818,-0.808044,-0.513489
1470250770082608,0.0854492,0.275818,-0.807922,-0.513794
1470250770103630,0.0852661,0.275879,-0.807739,-0.514038
1470250770120139,0.085144,0.27594,-0.807617,-0.51416
1470250770142660,0.0848389,0.275757,-0.807678,-0.514221
1470250770163678,0.0844727,0.275513,-0.8078,-0.514282
1470250770180194,0.0841064,0.275452,-0.807861,-0.514282
1470250770202715,0.0838013,0.275513,-0.807922,-0.514221
1470250770223732,0.0834961,0.275513,-0.807983,-0.514099
1470250770239747,0.0831299,0.275391,-0.808105,-0.514038
1470250770262270,0.0826416,0.27533,-0.808228,-0.513977
1470250770283802,0.0822754,0.275818,-0.808167,-0.513855
1470250770299801,0.0819092,0.276367,-0.808167,-0.513672
1470250770322322,0.0817871,0.277039,-0.808105,-0.513367
1470250770350847,0.081665,0.277405,-0.808228,-0.513062
1470250770359855,0.0817261,0.277466,-0.808167,-0.513062
1470250770382382,0.0817261,0.277527,-0.808167,-0.513
1470250770404900,0.0817871,0.277588,-0.808167,-0.513
1470250770419922,0.0818481,0.277588,-0.808167,-0.513
1470250770442430,0.0819702,0.277588,-0.808105,-0.513123
1470250770464991,0.0821533,0.277771,-0.807922,-0.513245
1470250770479963,0.0822754,0.278198,-0.807556,-0.51355
1470250770502484,0.0826416,0.27832,-0.807434,-0.513672
1470250770525003,0.0827026,0.27832,-0.807434,-0.513611
1470250770540017,0.0825806,0.277832,-0.807373,-0.513977
1470250770562542,0.0823364,0.277527,-0.807373,-0.514221
1470250770585058,0.0821533,0.277283,-0.807312,-0.514404
1470250770599569,0.0820313,0.276978,-0.807373,-0.514587
1470250770622590,0.0821533,0.276611,-0.807434,-0.514587
1470250770645111,0.0821533,0.276611,-0.807495,-0.514587
1470250770659123,0.0822144,0.276611,-0.807495,-0.514587
1470250770682645,0.0822144,0.276611,-0.807434,-0.514587
1470250770705166,0.0822754,0.276672,-0.807434,-0.514587
1470250770719180,0.0822754,0.276489,-0.807434,-0.514709
1470250770742200,0.0822144,0.276245,-0.807434,-0.514771
1470250770764718,0.0822754,0.276245,-0.807434,-0.514771
1470250770779232,0.0825195,0.276489,-0.807373,-0.514709
1470250770802753,0.0828247,0.276794,-0.807312,-0.514648
1470250770824773,0.0830078,0.276855,-0.80719,-0.514709
1470250770839786,0.083313,0.276794,-0.807129,-0.514771
1470250770862808,0.083313,0.276794,-0.807129,-0.514771
1470250770884826,0.0835571,0.276978,-0.807007,-0.514832
1470250770905846,0.0839233,0.2771,-0.806946,-0.514832
1470250770922362,0.0842285,0.277222,-0.806885,-0.514893
1470250770944881,0.0842896,0.277222,-0.806885,-0.514893
1470250770965928,0.0845337,0.277466,-0.806763,-0.514832
1470250770982414,0.0847168,0.278198,-0.80658,-0.514771
1470250771004935,0.0844727,0.280457,-0.805847,-0.514587
1470250771025968,0.0840454,0.284607,-0.804688,-0.514221
1470250771042468,0.0838013,0.290344,-0.803101,-0.513611
1470250771064988,0.0836182,0.297119,-0.801025,-0.513
1470250771093514,0.0831299,0.304321,-0.798584,-0.512695
1470250771102523,0.0825195,0.312683,-0.79541,-0.512634
1470250771125045,0.0827026,0.320496,-0.791748,-0.513489
1470250771146590,0.0842896,0.325378,-0.78894,-0.514465
1470250771162577,0.0852051,0.328308,-0.78717,-0.515198
1470250771185096,0.0862427,0.331299,-0.784912,-0.516479
1470250771206114,0.0889893,0.331787,-0.783508,-0.517822
1470250771222630,0.0919189,0.328674,-0.783142,-0.519836
1470250771245149,0.0964966,0.321838,-0.783569,-0.522705
1470250771273692,0.102051,0.311279,-0.784485,-0.526611
1470250771281683,0.108521,0.296631,-0.785828,-0.531738
1470250771305203,0.117615,0.279297,-0.786987,-0.537415
1470250771326327,0.129395,0.261719,-0.787354,-0.543091
1470250771341737,0.143433,0.242676,-0.787231,-0.548523
1470250771364759,0.15918,0.221863,-0.786499,-0.554016
1470250771387280,0.175903,0.198547,-0.7854,-0.559326
1470250771401790,0.193909,0.174133,-0.783813,-0.563721
1470250771424812,0.213135,0.149963,-0.781433,-0.567017
1470250771447331,0.233215,0.12561,-0.778503,-0.569031
1470250771461845,0.254639,0.101868,-0.775269,-0.56897
1470250771484865,0.2771,0.0793457,-0.771667,-0.567078
1470250771507385,0.299744,0.0579224,-0.7677,-0.563538
1470250771521900,0.321655,0.0378418,-0.763672,-0.558594
1470250771544920,0.342102,0.0189819,-0.759583,-0.552856
1470250771567439,0.361816,0.00244141,-0.755493,-0.546204
1470250771581952,0.381165,-0.0119019,-0.751648,-0.538208
1470250771604973,0.399658,-0.0253906,-0.748413,-0.528748
1470250771627997,0.416992,-0.0374756,-0.746033,-0.517883
1470250771648512,0.432617,-0.0480347,-0.744263,-0.506592
1470250771665028,0.44751,-0.0549927,-0.741882,-0.496338
1470250771687547,0.461792,-0.0614014,-0.739624,-0.48584
1470250771710067,0.475098,-0.0668945,-0.737915,-0.47467
1470250771725080,0.486633,-0.0713501,-0.736145,-0.464966
1470250771748602,0.496887,-0.0752563,-0.734131,-0.456604
1470250771768619,0.505798,-0.0767822,-0.733276,-0.447876
1470250771785135,0.513245,-0.0762939,-0.733337,-0.439331
1470250771807654,0.520203,-0.0767822,-0.732605,-0.432251
1470250771828673,0.525085,-0.0761108,-0.73291,-0.425842
1470250771845189,0.529907,-0.0739746,-0.733032,-0.420044
1470250771867709,0.53363,-0.0726929,-0.733215,-0.415161
1470250771888729,0.539307,-0.0725708,-0.731445,-0.411072
1470250771904742,0.542969,-0.0713501,-0.730469,-0.408142
1470250771927763,0.545654,-0.0709229,-0.730042,-0.405273
1470250771948782,0.546265,-0.0743408,-0.730347,-0.403381
1470250771964796,0.546021,-0.0731812,-0.732056,-0.400757
1470250771987317,0.547607,-0.0720215,-0.731079,-0.400635
1470250772008859,0.548462,-0.0706787,-0.72998,-0.401672
1470250772024849,0.549194,-0.0701294,-0.729248,-0.402161
1470250772047870,0.549927,-0.069458,-0.729187,-0.401367
1470250772068389,0.550171,-0.0670166,-0.729797,-0.40033
1470250772084904,0.550354,-0.0647583,-0.729858,-0.40033
1470250772107425,0.549988,-0.0626831,-0.729431,-0.401855
1470250772128444,0.550354,-0.0611572,-0.728333,-0.403687
1470250772144959,0.551147,-0.0602417,-0.727051,-0.405029
1470250772167481,0.551392,-0.0593872,-0.726868,-0.405212
1470250772188498,0.551697,-0.0584106,-0.727173,-0.404358
1470250772205513,0.552002,-0.0574341,-0.727478,-0.403503
1470250772227532,0.552551,-0.0571899,-0.727295,-0.403076
1470250772248553,0.553162,-0.0569458,-0.727112,-0.40271
1470250772265066,0.553772,-0.0562134,-0.726746,-0.402527
1470250772287585,0.55426,-0.0551758,-0.726624,-0.402222
1470250772308617,0.554565,-0.0541992,-0.726624,-0.402039
1470250772325119,0.554688,-0.0534668,-0.726624,-0.401855
1470250772355146,0.554932,-0.0526123,-0.726685,-0.40155
1470250772370160,0.55542,-0.052124,-0.726379,-0.401428
1470250772384673,0.55603,-0.0519409,-0.725891,-0.401611
1470250772407193,0.556274,-0.052063,-0.725647,-0.401611
1470250772429713,0.556274,-0.052063,-0.725647,-0.401611
1470250772444727,0.556396,-0.0513916,-0.725647,-0.401489
1470250772467247,0.556885,-0.050293,-0.725281,-0.401733
1470250772497289,0.557556,-0.0496826,-0.724426,-0.402344
1470250772512788,0.558044,-0.0494995,-0.723633,-0.403137
1470250772527301,0.558533,-0.0487671,-0.723022,-0.403687
1470250772550322,0.558899,-0.0476685,-0.722717,-0.40387
1470250772572342,0.559204,-0.0466919,-0.722473,-0.403931
1470250772587357,0.559265,-0.0460205,-0.722351,-0.404053
1470250772610376,0.559204,-0.0454102,-0.722229,-0.404541
1470250772632395,0.559082,-0.0447998,-0.721924,-0.405273
1470250772647409,0.559204,-0.0438232,-0.721619,-0.405762
1470250772669955,0.559265,-0.0428467,-0.721436,-0.406128
1470250772684442,0.559204,-0.0418701,-0.721252,-0.406555
1470250772707465,0.559204,-0.0413208,-0.720947,-0.407227
1470250772730483,0.559143,-0.0411377,-0.72052,-0.408142
1470250772744497,0.558838,-0.0408325,-0.720215,-0.40918
1470250772767517,0.558167,-0.0405884,-0.720154,-0.410156
1470250772790036,0.557373,-0.0406494,-0.720398,-0.410828
1470250772804051,0.55658,-0.0405273,-0.720886,-0.411011
1470250772827571,0.556152,-0.0401611,-0.721313,-0.410889
1470250772850092,0.555786,-0.0397949,-0.721558,-0.411011
1470250772871136,0.555176,-0.0397339,-0.721741,-0.411438
1470250772887624,0.554443,-0.039917,-0.722229,-0.411621
1470250772910145,0.553894,-0.0395508,-0.722961,-0.411011
1470250772931163,0.553406,-0.0387573,-0.723999,-0.410095
1470250772947679,0.552673,-0.038147,-0.724976,-0.409302
1470250772970200,0.552002,-0.038147,-0.72583,-0.408752
1470250772991235,0.551331,-0.0379639,-0.726746,-0.40802
1470250773007243,0.550781,-0.0376587,-0.727722,-0.407043
1470250773037758,0.55011,-0.0374756,-0.728699,-0.40625
1470250773051271,0.549561,-0.0372314,-0.729492,-0.405518
1470250773067286,0.549072,-0.0368652,-0.730286,-0.404785
1470250773097314,0.548645,-0.0366211,-0.730957,-0.404236
1470250773111334,0.54834,-0.0361938,-0.731445,-0.403687
1470250773127344,0.548035,-0.0358276,-0.731934,-0.403381
1470250773149862,0.547729,-0.0358276,-0.732239,-0.403198
1470250773170879,0.547485,-0.0357666,-0.732544,-0.403015
1470250773187394,0.547302,-0.0355835,-0.732727,-0.402954
1470250773210415,0.546997,-0.0355225,-0.73291,-0.402954
1470250773231455,0.546753,-0.0353394,-0.733154,-0.402893
1470250773237940,0.546509,-0.0349731,-0.733398,-0.402771
1470250773252971,0.546204,-0.0345459,-0.733704,-0.40271
1470250773275515,0.545837,-0.0344238,-0.733887,-0.402832
1470250773297994,0.545532,-0.0344849,-0.734009,-0.403015
1470250773313021,0.545288,-0.0345459,-0.734192,-0.403076
1470250773343049,0.545044,-0.0342407,-0.734497,-0.402771
1470250773358066,0.544861,-0.0338135,-0.734863,-0.402466
1470250773373088,0.544373,-0.0334473,-0.735352,-0.402283
1470250773395580,0.543884,-0.0330811,-0.73584,-0.402161
1470250773418103,0.543274,-0.0328979,-0.736389,-0.401978
1470250773436117,0.542664,-0.0325928,-0.736938,-0.401733
1470250773455752,0.542053,-0.0323486,-0.737549,-0.401428
1470250773478154,0.541626,-0.0321045,-0.738098,-0.401123
1470250773493167,0.541382,-0.0319214,-0.738464,-0.400818
1470250773515191,0.541138,-0.0318604,-0.738647,-0.400696
1470250773538209,0.541077,-0.0319214,-0.73877,-0.400635
1470250773553226,0.540955,-0.0316162,-0.738892,-0.400513
1470250773575304,0.54071,-0.0310669,-0.739136,-0.400452
1470250773598764,0.540405,-0.0307617,-0.739319,-0.400574
1470250773612776,0.540039,-0.0307007,-0.739563,-0.400574
1470250773635296,0.539612,-0.0307007,-0.73999,-0.400391
1470250773657816,0.539246,-0.0303955,-0.740479,-0.399963
1470250773672861,0.539063,-0.0302734,-0.740784,-0.399719
1470250773695407,0.538818,-0.0302734,-0.740967,-0.399658
1470250773717886,0.538635,-0.0305176,-0.74115,-0.399597
1470250773732898,0.538513,-0.0305176,-0.741455,-0.399231
1470250773755419,0.538513,-0.0302734,-0.74176,-0.398682
1470250773777956,0.53833,-0.0300293,-0.742004,-0.398438
1470250773792937,0.537964,-0.0300903,-0.742249,-0.398438
1470250773815481,0.537781,-0.0302124,-0.742554,-0.398193
1470250773837978,0.537537,-0.0301514,-0.74292,-0.397827
1470250773852993,0.537415,-0.0299072,-0.743347,-0.397217
1470250773875512,0.537292,-0.029541,-0.743591,-0.396912
1470250773898048,0.537048,-0.0292969,-0.743774,-0.396851
1470250773914546,0.536865,-0.0291748,-0.743958,-0.396912
1470250773935588,0.536682,-0.0291748,-0.74408,-0.39679
1470250773958176,0.536621,-0.0290527,-0.744324,-0.396545
1470250773974101,0.536438,-0.0288696,-0.744568,-0.39624
1470250773995675,0.536316,-0.0286865,-0.744751,-0.396118
1470250774021271,0.536316,-0.0286865,-0.744751,-0.396118
1470250774034185,0.536316,-0.0286865,-0.744751,-0.396118
1470250774055688,0.536316,-0.0288086,-0.744873,-0.395935
1470250774078208,0.536194,-0.0285645,-0.745117,-0.39563
1470250774094223,0.536194,-0.0285645,-0.745117,-0.39563
1470250774115260,0.536194,-0.0285645,-0.745117,-0.39563
1470250774138376,0.536194,-0.0286255,-0.745117,-0.39563
1470250774154277,0.536133,-0.0286255,-0.7453,-0.395386
1470250774175871,0.535889,-0.0282593,-0.745544,-0.395203
1470250774198378,0.535706,-0.0281372,-0.745728,-0.395142
1470250774214353,0.5354,-0.0280762,-0.745972,-0.395142
1470250774235382,0.535217,-0.0281372,-0.746155,-0.395081
1470250774257914,0.534973,-0.0279541,-0.746338,-0.39502
1470250774275887,0.534729,-0.027832,-0.746521,-0.394958
1470250774295405,0.534485,-0.0275269,-0.746704,-0.394958
1470250774317924,0.53418,-0.0273438,-0.746948,-0.394958
1470250774335971,0.533875,-0.0274048,-0.747192,-0.394836
1470250774355483,0.53363,-0.0273438,-0.747498,-0.394653
1470250774377980,0.533264,-0.0272827,-0.747803,-0.394592
1470250774395994,0.532959,-0.0273438,-0.747986,-0.394592
1470250774415570,0.532654,-0.0275269,-0.74823,-0.394592
1470250774438075,0.53241,-0.02771,-0.748413,-0.394592
1470250774456052,0.53186,-0.0281982,-0.74884,-0.39447
1470250774475565,0.530823,-0.0286865,-0.749451,-0.394653
1470250774498087,0.529358,-0.0291748,-0.750305,-0.39502
1470250774516132,0.527771,-0.0297852,-0.751465,-0.394836
1470250774535619,0.526001,-0.0304565,-0.753052,-0.394165
1470250774558140,0.52356,-0.0297241,-0.754456,-0.394714
1470250774575689,0.520935,-0.0275269,-0.75531,-0.396729
1470250774595673,0.518188,-0.0249023,-0.755737,-0.399658
1470250774618194,0.514893,-0.0219727,-0.75592,-0.403748
1470250774635709,0.510864,-0.0184937,-0.756226,-0.408447
1470250774655229,0.506165,-0.0144653,-0.757019,-0.412964
1470250774678252,0.500793,-0.0102539,-0.757813,-0.418152
1470250774695763,0.493958,-0.00604248,-0.758911,-0.424377
1470250774715888,0.483276,0.000671387,-0.760681,-0.433411
1470250774737801,0.470154,0.00848389,-0.762939,-0.443604
1470250774755856,0.454651,0.017395,-0.76532,-0.455322
1470250774775892,0.436401,0.0270996,-0.767517,-0.468811
1470250774797855,0.417603,0.0333862,-0.769836,-0.481628
1470250774815871,0.397583,0.0411987,-0.770935,-0.495911
1470250774835388,0.377625,0.0509644,-0.770935,-0.510437
1470250774857951,0.358582,0.0600586,-0.769104,-0.525635
1470250774875928,0.339417,0.0675049,-0.766174,-0.541504
1470250774904450,0.320313,0.072998,-0.762207,-0.557861
1470250774917990,0.301758,0.0776367,-0.757263,-0.574036
1470250774935979,0.284668,0.0830078,-0.751404,-0.589539
1470250774957001,0.267883,0.0881348,-0.744019,-0.605774
1470250774979520,0.251404,0.0925293,-0.735168,-0.622742
1470250774996033,0.236938,0.0963745,-0.724609,-0.639954
1470250775017052,0.223938,0.10022,-0.712463,-0.657471
1470250775038198,0.210327,0.103577,-0.699524,-0.67511
1470250775056102,0.194763,0.105713,-0.686096,-0.692993
1470250775077106,0.179077,0.108032,-0.671875,-0.710571
1470250775098124,0.167236,0.111816,-0.656555,-0.72699
1470250775115640,0.158264,0.11615,-0.64032,-0.742676
1470250775137161,0.148438,0.119385,-0.624207,-0.75769
1470250775158179,0.13739,0.120972,-0.608887,-0.771912
1470250775176201,0.125183,0.121826,-0.594055,-0.785278
1470250775198215,0.113464,0.12439,-0.579102,-0.797729
1470250775217732,0.102905,0.128418,-0.563416,-0.809692
1470250775235748,0.0935059,0.132935,-0.548462,-0.820251
1470250775258301,0.0855713,0.136353,-0.534668,-0.829651
1470250775277787,0.0797119,0.137207,-0.522156,-0.838013
1470250775295802,0.0757446,0.137817,-0.509583,-0.845947
1470250775318322,0.076355,0.139465,-0.497192,-0.852966
1470250775337842,0.0778809,0.142334,-0.48645,-0.858521
1470250775355898,0.0769043,0.144165,-0.478333,-0.862915
1470250775378877,0.0740967,0.144714,-0.471375,-0.866882
1470250775397894,0.0747681,0.146362,-0.464783,-0.870056
1470250775415910,0.076416,0.148438,-0.459167,-0.872559
1470250775438458,0.0778198,0.150452,-0.455383,-0.874084
1470250775457973,0.0784302,0.151489,-0.453369,-0.874878
1470250775481969,0.0795898,0.151855,-0.452515,-0.875122
1470250775498484,0.0802002,0.149475,-0.453247,-0.875122
1470250775518001,0.0797119,0.146484,-0.455139,-0.874695
1470250775536018,0.081604,0.14679,-0.45752,-0.87323
1470250775558538,0.0845337,0.147522,-0.459717,-0.871643
1470250775578057,0.0842896,0.146301,-0.46228,-0.870544
1470250775596072,0.0844727,0.144165,-0.464233,-0.869873
1470250775618092,0.0858765,0.143555,-0.465759,-0.869019
1470250775638148,0.0872192,0.143982,-0.467102,-0.868042
1470250775656166,0.0869751,0.143677,-0.468323,-0.867493
1470250775678145,0.0864258,0.142883,-0.469238,-0.867188
1470250775698664,0.0874634,0.142578,-0.469604,-0.866943
1470250775715179,0.0895996,0.143799,-0.469238,-0.866699
1470250775737699,0.0901489,0.145752,-0.468445,-0.86676
1470250775758802,0.0891724,0.148193,-0.46698,-0.867249
1470250775775232,0.0883789,0.14978,-0.463806,-0.868713
1470250775797752,0.0872192,0.145264,-0.461304,-0.870972
1470250775818772,0.0842896,0.139404,-0.461304,-0.872192
1470250775834290,0.0856934,0.138,-0.460266,-0.872803
1470250775857326,0.0917969,0.13916,-0.458618,-0.872925
1470250775878826,0.0952148,0.138489,-0.456909,-0.873535
1470250775894340,0.0961304,0.135803,-0.455688,-0.874512
1470250775917364,0.09729,0.133484,-0.454773,-0.875183
1470250775938879,0.0998535,0.132141,-0.453857,-0.87561
1470250775954393,0.103394,0.131226,-0.452637,-0.875916
1470250775977417,0.106873,0.130676,-0.451233,-0.876343
1470250775998450,0.109558,0.129639,-0.449829,-0.876892
1470250776014448,0.112,0.128235,-0.448242,-0.877563
1470250776037468,0.114441,0.126892,-0.446533,-0.878296
1470250776058517,0.116638,0.125488,-0.44519,-0.878906
1470250776075001,0.118835,0.123901,-0.444092,-0.879395
1470250776097522,0.121033,0.12262,-0.443115,-0.879761
1470250776120042,0.122986,0.121582,-0.4422,-0.880127
1470250776135056,0.124695,0.120605,-0.441406,-0.880432
1470250776157576,0.126282,0.119751,-0.440674,-0.880676
1470250776180096,0.127808,0.118958,-0.439941,-0.88092
1470250776195110,0.129456,0.118408,-0.439087,-0.881165
1470250776217629,0.13092,0.118042,-0.438171,-0.88147
1470250776240150,0.132446,0.11792,-0.437317,-0.881714
1470250776255164,0.134094,0.117981,-0.436523,-0.881836
1470250776277684,0.135437,0.118042,-0.435913,-0.881897
1470250776300204,0.136536,0.118042,-0.435364,-0.882019
1470250776314217,0.137573,0.11792,-0.434875,-0.88208
1470250776337737,0.138489,0.117737,-0.434448,-0.882202
1470250776360257,0.139343,0.117554,-0.434021,-0.882324
1470250776374272,0.140442,0.117615,-0.433411,-0.882385
1470250776397307,0.141541,0.117737,-0.432861,-0.882507
1470250776427819,0.142395,0.117798,-0.432251,-0.882629
1470250776434324,0.143372,0.11792,-0.431763,-0.88269
1470250776457345,0.144226,0.118103,-0.431396,-0.882751
1470250776479865,0.14502,0.118408,-0.43103,-0.882751
1470250776494378,0.145691,0.118958,-0.430664,-0.882751
1470250776517399,0.145996,0.119446,-0.430359,-0.882751
1470250776539919,0.146118,0.119751,-0.430054,-0.882813
1470250776554432,0.146179,0.119995,-0.42981,-0.882935
1470250776577453,0.146179,0.119995,-0.42981,-0.882935
1470250776599973,0.146179,0.120056,-0.42981,-0.882935
1470250776614485,0.146362,0.120117,-0.429626,-0.882935
1470250776637507,0.146484,0.120117,-0.429382,-0.883057
1470250776660058,0.146667,0.120178,-0.429016,-0.883179
1470250776681048,0.14679,0.1203,-0.428589,-0.883362
1470250776697561,0.146973,0.1203,-0.428101,-0.883545
1470250776720082,0.147278,0.1203,-0.427734,-0.883728
1470250776741101,0.147705,0.120178,-0.427246,-0.883911
1470250776757616,0.148071,0.120178,-0.426758,-0.884094
1470250776780135,0.148254,0.120178,-0.426331,-0.884216
1470250776801172,0.148376,0.120239,-0.425903,-0.884399
1470250776817669,0.148438,0.120239,-0.425476,-0.884583
1470250776840188,0.148621,0.1203,-0.425293,-0.884644
1470250776861207,0.148621,0.1203,-0.425293,-0.884705
1470250776877724,0.148376,0.1203,-0.425232,-0.884705
1470250776900243,0.148071,0.120178,-0.425354,-0.884766
1470250776921262,0.147644,0.120056,-0.425476,-0.884766
1470250776937776,0.147461,0.120178,-0.425537,-0.884766
1470250776960296,0.1474,0.120361,-0.425537,-0.884705
1470250776981350,0.147217,0.120422,-0.425476,-0.884827
1470250776997330,0.147034,0.120361,-0.425354,-0.884888
1470250777019851,0.147034,0.120361,-0.425354,-0.884888
1470250777041369,0.147034,0.120422,-0.425354,-0.884888
1470250777057386,0.147095,0.120422,-0.425354,-0.884888
1470250777079904,0.147156,0.120422,-0.425171,-0.884949
1470250777108445,0.147156,0.120422,-0.424988,-0.885071
1470250777117437,0.147156,0.120422,-0.424988,-0.885071
1470250777139958,0.147156,0.120361,-0.424988,-0.885071
1470250777162478,0.147339,0.120422,-0.424805,-0.885071
1470250777177492,0.147339,0.120483,-0.424805,-0.885071
1470250777200012,0.147339,0.120422,-0.424805,-0.885071
1470250777222538,0.147461,0.120544,-0.424805,-0.885071
1470250777237047,0.147461,0.120544,-0.424805,-0.885071
1470250777260065,0.147461,0.120544,-0.424805,-0.885071
1470250777282586,0.147644,0.120728,-0.424744,-0.88501
1470250777297126,0.147644,0.120728,-0.424744,-0.88501
1470250777320120,0.147644,0.120728,-0.424744,-0.88501
1470250777342640,0.147644,0.120728,-0.424744,-0.88501
1470250777357153,0.147644,0.120728,-0.424744,-0.88501
1470250777380173,0.147705,0.120728,-0.424744,-0.88501
1470250777402693,0.147705,0.120728,-0.424744,-0.88501
1470250777416706,0.147705,0.120728,-0.424744,-0.88501
1470250777440227,0.147705,0.120728,-0.424744,-0.88501
1470250777462747,0.147705,0.120728,-0.424744,-0.88501
1470250777477261,0.147705,0.120789,-0.424744,-0.88501
1470250777499785,0.147705,0.120728,-0.424744,-0.88501
1470250777522311,0.147705,0.120728,-0.424744,-0.88501
1470250777536815,0.147888,0.120789,-0.424744,-0.88501
1470250777559835,0.147888,0.120789,-0.424744,-0.88501
1470250777582355,0.147888,0.120789,-0.424744,-0.88501
1470250777603874,0.147888,0.120789,-0.424744,-0.88501
1470250777619894,0.147888,0.120789,-0.424744,-0.88501
1470250777642413,0.147949,0.120789,-0.424744,-0.88501
1470250777663976,0.147888,0.120789,-0.424744,-0.88501
1470250777679943,0.147888,0.120789,-0.424744,-0.88501
1470250777702465,0.147827,0.120667,-0.424744,-0.88501
1470250777723993,0.147827,0.120667,-0.424744,-0.88501
1470250777739996,0.147827,0.120605,-0.424744,-0.88501
1470250777762516,0.147827,0.120667,-0.424744,-0.88501
1470250777783540,0.147827,0.120605,-0.424744,-0.88501
1470250777800075,0.147827,0.120605,-0.424744,-0.88501
1470250777822577,0.14801,0.12085,-0.424683,-0.88501
1470250777843590,0.14801,0.12085,-0.424683,-0.88501
1470250777860105,0.14801,0.12085,-0.424683,-0.88501
1470250777882625,0.14801,0.12085,-0.424683,-0.88501
1470250777903643,0.148193,0.121033,-0.424622,-0.884949
1470250777920159,0.148376,0.121338,-0.4245,-0.884949
1470250777942680,0.148682,0.121521,-0.4245,-0.884888
1470250777963698,0.148926,0.121582,-0.424561,-0.884827
1470250777980213,0.148926,0.121582,-0.424561,-0.884827
1470250778002732,0.148926,0.121582,-0.424561,-0.884827
1470250778023756,0.149109,0.121643,-0.424561,-0.884766
1470250778040266,0.149109,0.121704,-0.424561,-0.884766
1470250778062287,0.14917,0.121643,-0.424561,-0.884705
1470250778091313,0.14917,0.121704,-0.424561,-0.884705
1470250778100330,0.14917,0.121704,-0.424561,-0.884705
1470250778122346,0.14917,0.121704,-0.424561,-0.884705
1470250778144862,0.14917,0.121704,-0.424561,-0.884705
1470250778159875,0.14917,0.121704,-0.424561,-0.884705
1470250778182394,0.14917,0.121704,-0.424561,-0.884705
1470250778205415,0.14917,0.121704,-0.424561,-0.884705
1470250778219427,0.14917,0.121704,-0.424561,-0.884705
1470250778242448,0.149231,0.121704,-0.424561,-0.884705
1470250778264968,0.149414,0.121704,-0.4245,-0.884705
1470250778279483,0.149719,0.121826,-0.424438,-0.884644
1470250778302501,0.150208,0.122131,-0.424316,-0.884644
1470250778325022,0.150635,0.122375,-0.424194,-0.884521
1470250778346469,0.151184,0.122559,-0.424194,-0.88446
1470250778362483,0.151611,0.122681,-0.424255,-0.884338
1470250778385005,0.152039,0.122681,-0.424316,-0.884216
1470250778399516,0.152527,0.122803,-0.424377,-0.884094
1470250778422537,0.152954,0.123108,-0.424438,-0.883972
1470250778445558,0.153442,0.123352,-0.4245,-0.883789
1470250778459570,0.153992,0.123779,-0.424561,-0.883606
1470250778482591,0.15448,0.124207,-0.424561,-0.883484
1470250778505111,0.155029,0.124634,-0.424683,-0.883301
1470250778519624,0.155762,0.125061,-0.424805,-0.882996
1470250778542645,0.156372,0.125488,-0.424866,-0.882813
1470250778565165,0.156921,0.125854,-0.424927,-0.882629
1470250778586189,0.157471,0.126282,-0.42511,-0.882385
1470250778602739,0.158081,0.126953,-0.425232,-0.88208
1470250778625219,0.15863,0.127563,-0.425476,-0.881836
1470250778646238,0.158997,0.128235,-0.425659,-0.881531
1470250778662753,0.159424,0.129028,-0.425964,-0.881226
1470250778685274,0.159851,0.129822,-0.42627,-0.880859
1470250778706307,0.160095,0.13031,-0.426636,-0.880554
1470250778722807,0.1604,0.130859,-0.427002,-0.880249
1470250778744827,0.160828,0.131226,-0.427429,-0.879944
1470250778766345,0.161194,0.131653,-0.427856,-0.879578
1470250778782860,0.161743,0.131958,-0.428162,-0.879272
1470250778804880,0.162231,0.132324,-0.428467,-0.878967
1470250778825924,0.16272,0.132507,-0.428833,-0.878723
1470250778842413,0.163208,0.132629,-0.429199,-0.878418
1470250778864934,0.163757,0.132629,-0.429504,-0.878174
1470250778886494,0.164368,0.13269,-0.429749,-0.87793
1470250778902493,0.164917,0.132813,-0.429871,-0.877747
1470250778925003,0.165405,0.132874,-0.430054,-0.877563
1470250778946507,0.165955,0.132874,-0.430237,-0.87738
1470250778962521,0.166504,0.132935,-0.430359,-0.877197
1470250778985044,0.166992,0.133057,-0.430542,-0.876953
1470250779007579,0.167603,0.133301,-0.430664,-0.87677
1470250779022596,0.168091,0.133484,-0.430847,-0.876587
1470250779045116,0.168518,0.133484,-0.43103,-0.876404
1470250779067636,0.168823,0.133545,-0.431213,-0.876221
1470250779082651,0.16925,0.133606,-0.431396,-0.876038
1470250779105169,0.169434,0.133606,-0.431519,-0.875916
1470250779127691,0.169617,0.133606,-0.431702,-0.875854
1470250779141709,0.169983,0.133667,-0.431824,-0.875671
1470250779165224,0.17041,0.133789,-0.432007,-0.875488
1470250779187743,0.170837,0.133972,-0.432129,-0.875366
1470250779201758,0.171082,0.133911,-0.43219,-0.875244
1470250779232785,0.171387,0.133972,-0.432312,-0.875122
1470250779247301,0.171692,0.133972,-0.432434,-0.875
1470250779261811,0.171997,0.133972,-0.432556,-0.874878
1470250779284831,0.172302,0.133972,-0.432678,-0.874756
1470250779307351,0.172302,0.133972,-0.432678,-0.874756
1470250779321865,0.172302,0.133972,-0.432678,-0.874756
1470250779344886,0.172302,0.133972,-0.432678,-0.874756
1470250779367407,0.172485,0.134033,-0.432678,-0.874695
1470250779381918,0.172485,0.134033,-0.432678,-0.874695
1470250779404941,0.172485,0.134033,-0.432678,-0.874695
1470250779427459,0.172485,0.134033,-0.432678,-0.874695
1470250779448979,0.172485,0.134033,-0.432678,-0.874695
1470250779464995,0.172607,0.134094,-0.432739,-0.874634
1470250779487513,0.172607,0.134094,-0.432739,-0.874634
1470250779508532,0.172607,0.134094,-0.432739,-0.874634
1470250779525047,0.172668,0.134094,-0.432739,-0.874634
1470250779547567,0.172668,0.134094,-0.432739,-0.874634
1470250779568587,0.172668,0.134094,-0.432739,-0.874634
1470250779585100,0.172852,0.134277,-0.432678,-0.874573
1470250779607621,0.172852,0.134277,-0.432678,-0.874573
1470250779628640,0.172852,0.134277,-0.432678,-0.874573
1470250779645155,0.172852,0.134277,-0.432678,-0.874573
1470250779667675,0.173035,0.134399,-0.432739,-0.874512
1470250779688719,0.173035,0.134399,-0.432739,-0.874512
1470250779705209,0.173035,0.134399,-0.432739,-0.874512
1470250779727728,0.173035,0.134399,-0.432739,-0.874512
1470250779748747,0.173279,0.134705,-0.432739,-0.874451
1470250779765263,0.173523,0.134949,-0.432739,-0.874329
1470250779787317,0.173523,0.134949,-0.432739,-0.874329
1470250779808801,0.173523,0.134949,-0.432678,-0.874329
1470250779824833,0.173828,0.13501,-0.432739,-0.874268
1470250779847336,0.17395,0.13501,-0.432678,-0.874268
1470250779868904,0.174255,0.135071,-0.432678,-0.874207
1470250779884870,0.174438,0.135193,-0.432617,-0.874207
1470250779907890,0.174438,0.135193,-0.432617,-0.874207
1470250779929410,0.174622,0.135376,-0.432556,-0.874146
1470250779945424,0.174805,0.135498,-0.432556,-0.874084
1470250779967445,0.174805,0.135498,-0.432556,-0.874084
1470250779989966,0.174805,0.135498,-0.432556,-0.874084
1470250780004977,0.174805,0.135498,-0.432556,-0.874084
1470250780027998,0.174805,0.135498,-0.432556,-0.874084
1470250780050018,0.174805,0.135498,-0.432556,-0.874084
1470250780065033,0.174805,0.135498,-0.432556,-0.874084
1470250780087551,0.174866,0.135498,-0.432556,-0.874084
1470250780110072,0.174866,0.135498,-0.432556,-0.874084
1470250780124586,0.174866,0.135498,-0.432556,-0.874084
1470250780147605,0.174866,0.135498,-0.432556,-0.874084
1470250780170126,0.174927,0.135498,-0.432556,-0.874084
1470250780184140,0.174927,0.135498,-0.432556,-0.874084
1470250780207660,0.174927,0.135498,-0.432556,-0.874084
1470250780230182,0.174866,0.135315,-0.432617,-0.874084
1470250780244192,0.174683,0.135071,-0.432739,-0.874084
1470250780267713,0.174744,0.135071,-0.432739,-0.874084
1470250780290235,0.174744,0.135071,-0.432739,-0.874084
1470250780304291,0.174744,0.135071,-0.432739,-0.874084
1470250780327768,0.174744,0.135071,-0.432739,-0.874084
1470250780350288,0.174744,0.135071,-0.432739,-0.874084
1470250780364301,0.174744,0.135071,-0.432739,-0.874084
1470250780387321,0.174744,0.135071,-0.432739,-0.874084
1470250780410341,0.174744,0.135071,-0.432739,-0.874084
1470250780424354,0.174744,0.135071,-0.432739,-0.874084
1470250780447375,0.174744,0.13501,-0.432739,-0.874084
1470250780469895,0.174744,0.13501,-0.432739,-0.874084
1470250780491414,0.174744,0.13501,-0.432739,-0.874084
1470250780507929,0.174622,0.134888,-0.432739,-0.874146
1470250780529968,0.174377,0.134644,-0.432739,-0.874207
1470250780551468,0.174255,0.134521,-0.4328,-0.874207
1470250780567482,0.174011,0.134277,-0.4328,-0.874329
1470250780590003,0.173767,0.134033,-0.432861,-0.87439
1470250780611523,0.173645,0.133911,-0.4328,-0.874451
1470250780627536,0.173462,0.133728,-0.4328,-0.874512
1470250780650057,0.173462,0.133667,-0.4328,-0.874512
1470250780671078,0.173462,0.133667,-0.4328,-0.874512
1470250780687592,0.173523,0.133484,-0.4328,-0.874573
1470250780710113,0.173523,0.133484,-0.4328,-0.874573
1470250780731129,0.173523,0.133423,-0.4328,-0.874573
1470250780747645,0.173523,0.133423,-0.4328,-0.874573
1470250780770164,0.173523,0.133423,-0.4328,-0.874573
1470250780791190,0.173523,0.133423,-0.4328,-0.874573
1470250780807699,0.173523,0.133362,-0.4328,-0.874573
1470250780830220,0.173462,0.133362,-0.4328,-0.874573
1470250780851238,0.173523,0.133362,-0.4328,-0.874573
1470250780858244,0.173462,0.133362,-0.4328,-0.874573
1470250780873257,0.173462,0.133362,-0.4328,-0.874573
1470250780895778,0.173462,0.133362,-0.4328,-0.874573
1470250780917797,0.173645,0.133484,-0.4328,-0.874512
1470250780933312,0.173645,0.133484,-0.4328,-0.874512
1470250780955832,0.173645,0.133484,-0.4328,-0.874512
1470250780977852,0.173767,0.133667,-0.432739,-0.874512
1470250780992925,0.17395,0.13385,-0.432678,-0.874451
1470250781015385,0.174011,0.133911,-0.432678,-0.874451
1470250781037915,0.174072,0.133972,-0.432739,-0.87439
1470250781052919,0.174072,0.133972,-0.432739,-0.87439
1470250781075439,0.174133,0.133972,-0.432739,-0.87439
1470250781097960,0.174133,0.133972,-0.432739,-0.87439
1470250781112974,0.174133,0.133972,-0.432739,-0.87439
1470250781135521,0.174133,0.133972,-0.432739,-0.87439
1470250781158042,0.174072,0.134094,-0.432739,-0.87439
1470250781173027,0.174072,0.134094,-0.432739,-0.87439
1470250781195547,0.174072,0.134094,-0.432739,-0.87439
1470250781218080,0.174072,0.134094,-0.432739,-0.87439
1470250781233082,0.174255,0.134155,-0.432739,-0.874329
1470250781255601,0.174255,0.134155,-0.432739,-0.874329
1470250781278120,0.174255,0.134155,-0.432739,-0.874329
1470250781293134,0.174255,0.134155,-0.432739,-0.874329
1470250781315654,0.174255,0.134155,-0.432739,-0.874329
1470250781338174,0.174438,0.134277,-0.432678,-0.874329
1470250781354190,0.174622,0.134399,-0.432678,-0.874268
1470250781375209,0.174622,0.134399,-0.432678,-0.874268
1470250781398229,0.174622,0.134399,-0.432678,-0.874268
1470250781412742,0.174622,0.134399,-0.432678,-0.874268
1470250781435762,0.174622,0.134399,-0.432678,-0.874268
1470250781458282,0.174622,0.134338,-0.432678,-0.874268
1470250781473296,0.174622,0.134399,-0.432678,-0.874268
1470250781495816,0.174622,0.134399,-0.432678,-0.874268
1470250781517836,0.174622,0.134399,-0.432678,-0.874268
1470250781534852,0.174805,0.13446,-0.432617,-0.874207
1470250781555370,0.174805,0.13446,-0.432617,-0.874207
1470250781577890,0.174988,0.134521,-0.432556,-0.874207
1470250781594405,0.17511,0.134583,-0.432495,-0.874207
1470250781615448,0.17511,0.134583,-0.432495,-0.874207
1470250781638496,0.17511,0.134583,-0.432495,-0.874207
1470250781654459,0.17511,0.134583,-0.432495,-0.874207
1470250781675478,0.17511,0.134583,-0.432495,-0.874207
1470250781697997,0.17511,0.134583,-0.432556,-0.874207
1470250781714513,0.17511,0.134583,-0.432556,-0.874207
1470250781735532,0.17511,0.134583,-0.432556,-0.874207
1470250781761055,0.17511,0.134583,-0.432495,-0.874207
1470250781774567,0.17511,0.134583,-0.432495,-0.874207
1470250781795586,0.17511,0.134583,-0.432495,-0.874207
1470250781818105,0.17511,0.134583,-0.432495,-0.874207
1470250781836122,0.17511,0.134583,-0.432556,-0.874207
1470250781855670,0.17511,0.134583,-0.432495,-0.874207
1470250781878160,0.17511,0.134521,-0.432556,-0.874207
1470250781896176,0.17511,0.134521,-0.432556,-0.874207
1470250781915694,0.17511,0.134521,-0.432556,-0.874207
1470250781945734,0.17511,0.134521,-0.432556,-0.874207
1470250781955729,0.17511,0.134521,-0.432556,-0.874207
1470250781975791,0.174988,0.134338,-0.432617,-0.874207
1470250782005779,0.174988,0.134338,-0.432617,-0.874207
1470250782016360,0.174927,0.134277,-0.432617,-0.874207
1470250782038307,0.174927,0.134277,-0.432617,-0.874207
1470250782058358,0.174927,0.134277,-0.432617,-0.874207
1470250782075840,0.174927,0.134277,-0.432617,-0.874207
1470250782095357,0.174927,0.134277,-0.432617,-0.874207
1470250782117874,0.174866,0.134277,-0.432617,-0.874207
1470250782135891,0.174866,0.134277,-0.432617,-0.874207
1470250782155435,0.174866,0.134277,-0.432617,-0.874207
1470250782177931,0.174866,0.134277,-0.432617,-0.874207
1470250782195947,0.174805,0.134277,-0.432617,-0.874268
1470250782223049,0.174805,0.134277,-0.432617,-0.874268
1470250782238001,0.174805,0.134277,-0.432617,-0.874268
1470250782255998,0.174805,0.134216,-0.432617,-0.874268
1470250782275534,0.174805,0.134216,-0.432617,-0.874268
1470250782298037,0.174805,0.134216,-0.432617,-0.874268
1470250782316054,0.174744,0.134277,-0.432617,-0.874268
1470250782335570,0.174744,0.134216,-0.432617,-0.874268
1470250782358091,0.174744,0.134216,-0.432617,-0.874268
1470250782376112,0.174744,0.134216,-0.432617,-0.874268
1470250782395625,0.174744,0.134216,-0.432678,-0.874268
1470250782418163,0.174683,0.134216,-0.432678,-0.874268
1470250782436161,0.174683,0.134216,-0.432617,-0.874268
1470250782456679,0.174438,0.134033,-0.432739,-0.874329
1470250782478201,0.174438,0.134033,-0.432739,-0.874329
1470250782495718,0.174438,0.134033,-0.432739,-0.874329
1470250782517233,0.174438,0.134033,-0.432739,-0.874329
1470250782538266,0.174438,0.133972,-0.432739,-0.874329
1470250782555768,0.174377,0.133972,-0.432739,-0.874329
1470250782577287,0.174377,0.133972,-0.432739,-0.874329
1470250782598306,0.174377,0.133972,-0.432739,-0.874329
1470250782615822,0.174316,0.133972,-0.432739,-0.874329
1470250782636853,0.174316,0.133972,-0.432739,-0.874329
1470250782658506,0.174316,0.133911,-0.432739,-0.874329
1470250782675875,0.174255,0.133911,-0.432739,-0.874329
1470250782696896,0.174255,0.133972,-0.432739,-0.874329
1470250782717916,0.174255,0.133911,-0.432739,-0.874329
1470250782735930,0.174194,0.133911,-0.432739,-0.87439
1470250782756949,0.174194,0.133911,-0.432739,-0.87439
1470250782780971,0.174194,0.133911,-0.432739,-0.87439
1470250782795984,0.174133,0.133911,-0.432739,-0.87439
1470250782818539,0.173706,0.133972,-0.4328,-0.87439
1470250782838023,0.173218,0.134033,-0.432922,-0.874451
1470250782856039,0.172852,0.134155,-0.433105,-0.87439
1470250782878559,0.172424,0.134399,-0.433289,-0.87439
1470250782898076,0.171753,0.134521,-0.433472,-0.87439
1470250782916131,0.170898,0.134644,-0.433716,-0.87439
1470250782938634,0.169861,0.134888,-0.434021,-0.874451
1470250782958138,0.168762,0.135193,-0.434448,-0.87439
1470250782976145,0.167603,0.135498,-0.435059,-0.874268
1470250782998666,0.16571,0.135437,-0.436035,-0.874146
1470250783018199,0.162781,0.135071,-0.437378,-0.874084
1470250783036200,0.158813,0.134949,-0.439026,-0.874023
1470250783058782,0.154358,0.135193,-0.44104,-0.873718
1470250783078240,0.149109,0.135681,-0.443604,-0.873291
1470250783095755,0.143005,0.136169,-0.446594,-0.872742
1470250783118273,0.136353,0.136414,-0.450134,-0.871887
1470250783138291,0.128845,0.136414,-0.454224,-0.870911
1470250783155809,0.120056,0.136108,-0.458679,-0.869934
1470250783178327,0.110901,0.136353,-0.463196,-0.868713
1470250783198345,0.102051,0.137207,-0.467712,-0.867249
1470250783216459,0.0935669,0.138611,-0.47229,-0.865479
1470250783238381,0.0845337,0.139404,-0.476929,-0.863708
1470250783257936,0.0750732,0.139771,-0.481873,-0.861816
1470250783275917,0.0653687,0.140259,-0.486511,-0.859924
1470250783297434,0.0557861,0.140686,-0.490845,-0.858032
1470250783318953,0.0463867,0.140869,-0.495056,-0.85614
1470250783334468,0.0369873,0.140991,-0.499146,-0.854187
1470250783357988,0.027771,0.141113,-0.503357,-0.852051
1470250783378511,0.0187988,0.141357,-0.507263,-0.849976
1470250783394522,0.0100708,0.141479,-0.510681,-0.848022
1470250783417542,0.00201416,0.141541,-0.51416,-0.845947
1470250783438594,-0.00549316,0.141602,-0.517578,-0.843872
1470250783454576,-0.012207,0.141907,-0.520508,-0.841919
1470250783477596,-0.0181274,0.142273,-0.523132,-0.840149
1470250783498615,-0.0238647,0.142395,-0.52533,-0.838623
1470250783514629,-0.0289307,0.142273,-0.527283,-0.837219
1470250783537652,-0.0332642,0.142334,-0.529053,-0.835938
1470250783558693,-0.0370483,0.142395,-0.530579,-0.834839
1470250783574683,-0.0405273,0.14209,-0.531921,-0.833862
1470250783598790,-0.0436401,0.141602,-0.533203,-0.832947
1470250783618740,-0.0464478,0.141235,-0.534363,-0.832153
1470250783634737,-0.0488281,0.140869,-0.5354,-0.83136
1470250783657759,-0.0510864,0.14032,-0.536499,-0.830627
1470250783678777,-0.0534668,0.139709,-0.537537,-0.829956
1470250783695292,-0.0560303,0.138916,-0.538513,-0.829224
1470250783717811,-0.0585938,0.138245,-0.539612,-0.828491
1470250783740331,-0.0610352,0.137634,-0.540771,-0.827637
1470250783755345,-0.0639038,0.13678,-0.541992,-0.826721
1470250783777865,-0.0674438,0.135681,-0.543457,-0.825684
1470250783799887,-0.071106,0.134827,-0.545044,-0.824463
1470250783814398,-0.0748901,0.134094,-0.546753,-0.82312
1470250783837919,-0.0786743,0.133545,-0.548584,-0.821655
1470250783859942,-0.0822754,0.13324,-0.550415,-0.820129
1470250783880958,-0.0855103,0.133118,-0.552185,-0.818604
1470250783897472,-0.088501,0.133057,-0.553772,-0.817261
1470250783919993,-0.0911865,0.132813,-0.555237,-0.815979
1470250783941059,-0.0935669,0.132751,-0.556458,-0.81488
1470250783957529,-0.0952759,0.132874,-0.557495,-0.813965
1470250783980047,-0.0964966,0.133118,-0.558167,-0.813293
1470250783994560,-0.0974121,0.133362,-0.558777,-0.812744
1470250784017580,-0.0979004,0.133545,-0.559204,-0.812378
1470250784040101,-0.0983887,0.133423,-0.55957,-0.812073
1470250784054614,-0.0988159,0.133057,-0.559937,-0.811829
1470250784077635,-0.0993042,0.132629,-0.560242,-0.811646
1470250784100155,-0.0997925,0.13208,-0.560669,-0.81134
1470250784114668,-0.100403,0.131714,-0.561157,-0.811035
1470250784137689,-0.101379,0.131165,-0.561768,-0.810547
1470250784160209,-0.102539,0.130737,-0.562439,-0.809998
1470250784174721,-0.103638,0.130554,-0.563171,-0.809387
1470250784197742,-0.10498,0.130371,-0.563965,-0.808716
1470250784220264,-0.106201,0.130188,-0.564758,-0.808044
1470250784241284,-0.107239,0.130066,-0.56543,-0.807434
1470250784257798,-0.108093,0.130127,-0.56604,-0.806885
1470250784280319,-0.108826,0.130249,-0.56665,-0.806335
1470250784301335,-0.109619,0.130371,-0.5672,-0.805847
1470250784317850,-0.110107,0.130554,-0.567627,-0.80542
1470250784340370,-0.110168,0.130798,-0.56781,-0.805237
1470250784361389,-0.109985,0.131226,-0.567871,-0.805176
1470250784377428,-0.109619,0.131653,-0.56781,-0.805176
1470250784399924,-0.109314,0.131897,-0.567688,-0.805237
1470250784421443,-0.108582,0.132202,-0.567383,-0.805542
1470250784437457,-0.107605,0.132385,-0.566956,-0.805969
1470250784459978,-0.106506,0.132629,-0.566345,-0.806519
1470250784481599,-0.105042,0.13269,-0.565735,-0.807068
1470250784505019,-0.103455,0.132874,-0.565125,-0.807678
1470250784520032,-0.101807,0.133179,-0.564331,-0.808411
1470250784541051,-0.100159,0.133301,-0.563599,-0.809082
1470250784557568,-0.0985107,0.133484,-0.562805,-0.809814
1470250784580085,-0.0970459,0.133484,-0.562195,-0.810425
1470250784601120,-0.0957642,0.133362,-0.561646,-0.810974
1470250784617619,-0.0949097,0.132996,-0.561218,-0.811462
1470250784640140,-0.0941772,0.132446,-0.560669,-0.812012
1470250784661161,-0.0930786,0.132446,-0.560181,-0.812439
1470250784677674,-0.0918579,0.132813,-0.559814,-0.812805
1470250784700194,-0.0908813,0.132996,-0.559448,-0.81311
1470250784722715,-0.090271,0.133118,-0.559082,-0.813416
1470250784737729,-0.0897217,0.133301,-0.558777,-0.81366
1470250784760247,-0.0891724,0.133362,-0.558533,-0.813843
1470250784782768,-0.088623,0.133362,-0.55835,-0.814026
1470250784797781,-0.0881348,0.133362,-0.558105,-0.81427
1470250784820301,-0.0876465,0.133301,-0.557739,-0.814575
1470250784842821,-0.086853,0.133484,-0.557495,-0.814819
1470250784857341,-0.0862427,0.133484,-0.557251,-0.815002
1470250784880355,-0.0857544,0.133484,-0.557007,-0.815247
1470250784902875,-0.085083,0.133423,-0.556641,-0.815613
1470250784916890,-0.0847778,0.13324,-0.556396,-0.815796
1470250784940409,-0.0844116,0.133057,-0.556213,-0.81604
1470250784962929,-0.0840454,0.132996,-0.555969,-0.816223
1470250784976942,-0.0836792,0.133118,-0.555725,-0.816406
1470250784999963,-0.083374,0.133179,-0.555603,-0.816528
1470250785022482,-0.0830078,0.13324,-0.55542,-0.81665
1470250785036996,-0.0828857,0.13324,-0.555237,-0.816772
1470250785060017,-0.0827637,0.13324,-0.555054,-0.816956
1470250785089042,-0.0823975,0.133362,-0.554932,-0.817078
1470250785097065,-0.0820313,0.133423,-0.554749,-0.8172
1470250785120073,-0.081665,0.133362,-0.554626,-0.817322
1470250785142606,-0.0814819,0.13324,-0.554504,-0.817444
1470250785157106,-0.0811768,0.13324,-0.554321,-0.817627
1470250785180127,-0.0808105,0.13324,-0.554138,-0.817749
1470250785202645,-0.0805664,0.132996,-0.554138,-0.81781
1470250785223666,-0.0805664,0.132996,-0.554138,-0.81781
1470250785240219,-0.0805664,0.132935,-0.554138,-0.81781
1470250785262743,-0.0803833,0.133118,-0.554016,-0.817932
1470250785283762,-0.0802612,0.133301,-0.553894,-0.817993
1470250785300289,-0.0800171,0.133545,-0.553711,-0.818054
1470250785322793,-0.0797119,0.133545,-0.553589,-0.818176
1470250785343837,-0.0794678,0.133484,-0.553406,-0.818359
1470250785360327,-0.0790405,0.133484,-0.553284,-0.818481
1470250785382847,-0.0786133,0.133545,-0.553162,-0.818604
1470250785403866,-0.0782471,0.133362,-0.55304,-0.818726
1470250785420380,-0.078125,0.133118,-0.552917,-0.818848
1470250785442403,-0.0777588,0.133057,-0.552856,-0.81897
1470250785463920,-0.0774536,0.133057,-0.552795,-0.819031
1470250785479956,-0.0772705,0.132996,-0.552734,-0.819092
1470250785502956,-0.0770874,0.132874,-0.552795,-0.819092
1470250785523976,-0.0770874,0.132874,-0.552795,-0.819092
1470250785539990,-0.0769043,0.132874,-0.552734,-0.819153
1470250785562522,-0.0765991,0.133057,-0.552612,-0.819214
1470250785584071,-0.076355,0.133118,-0.55249,-0.819336
1470250785600042,-0.0760498,0.13324,-0.552368,-0.819397
1470250785622601,-0.0756836,0.13324,-0.552246,-0.819519
1470250785645082,-0.0751953,0.133179,-0.552124,-0.819702
1470250785660096,-0.0745239,0.133362,-0.55188,-0.819885
1470250785682617,-0.0739746,0.13324,-0.551758,-0.820007
1470250785705139,-0.0734863,0.133118,-0.551514,-0.82019
1470250785720150,-0.0726929,0.133057,-0.551331,-0.820435
1470250785742670,-0.0718994,0.13324,-0.551025,-0.820679
1470250785765191,-0.071228,0.133301,-0.550781,-0.820862
1470250785779704,-0.0706177,0.133301,-0.550537,-0.821106
1470250785802724,-0.0700684,0.13324,-0.550354,-0.821289
1470250785825245,-0.069397,0.133301,-0.550171,-0.821472
1470250785839757,-0.0687256,0.133423,-0.549866,-0.821716
1470250785862778,-0.0678711,0.133606,-0.549622,-0.821899
1470250785885299,-0.0671387,0.13385,-0.549255,-0.822205
1470250785899311,-0.0665283,0.133911,-0.54895,-0.822449
1470250785922832,-0.0656738,0.133972,-0.548523,-0.822754
1470250785945352,-0.0644531,0.134155,-0.548157,-0.82312
1470250785959365,-0.0632324,0.134338,-0.547668,-0.823425
1470250785982885,-0.0619507,0.13446,-0.54718,-0.823853
1470250786004927,-0.0606079,0.134521,-0.546631,-0.82428
1470250786019419,-0.059021,0.134705,-0.546021,-0.824829
1470250786042940,-0.0571289,0.13501,-0.545288,-0.825378
1470250786064960,-0.0550537,0.135559,-0.544373,-0.82605
1470250786079475,-0.0530396,0.136108,-0.543396,-0.826721
1470250786102495,-0.0509644,0.136597,-0.542419,-0.827393
1470250786125013,-0.0487671,0.137085,-0.541504,-0.828064
1470250786146533,-0.0470581,0.137573,-0.54071,-0.828613
1470250786163047,-0.0459595,0.137817,-0.5401,-0.828979
1470250786185069,-0.045166,0.137939,-0.539734,-0.829285
1470250786206103,-0.0444946,0.138245,-0.53949,-0.829407
1470250786230108,-0.0441284,0.138306,-0.539368,-0.829529
1470250786245122,-0.0439453,0.138062,-0.539246,-0.829651
1470250786266161,-0.0436401,0.137878,-0.539246,-0.829712
1470250786282655,-0.043457,0.137695,-0.539124,-0.829834
1470250786305175,-0.0430908,0.137573,-0.539001,-0.829895
1470250786326209,-0.0424194,0.137634,-0.538757,-0.830078
1470250786342709,-0.0415039,0.137695,-0.538452,-0.830322
1470250786365229,-0.0404053,0.137756,-0.538025,-0.830688
1470250786386319,-0.0397339,0.137512,-0.537598,-0.830994
1470250786402763,-0.0386963,0.137329,-0.536987,-0.831482
1470250786425283,-0.0371704,0.137268,-0.536194,-0.832092
1470250786446302,-0.0354614,0.137207,-0.5354,-0.832642
1470250786462817,-0.0337524,0.137146,-0.534668,-0.833252
1470250786485337,-0.0321045,0.137024,-0.533936,-0.833801
1470250786506404,-0.0302734,0.137024,-0.533081,-0.834412
1470250786522871,-0.0280762,0.137085,-0.532104,-0.835083
1470250786545391,-0.026123,0.137085,-0.531189,-0.835693
1470250786566435,-0.024231,0.137024,-0.530273,-0.836365
1470250786582426,-0.0222168,0.137146,-0.529358,-0.836975
1470250786604946,-0.0201416,0.137451,-0.528381,-0.837646
1470250786627966,-0.0179443,0.137756,-0.527344,-0.838257
1470250786642480,-0.015686,0.137756,-0.526428,-0.838928
1470250786665500,-0.0134277,0.137695,-0.525452,-0.839539
1470250786687521,-0.0112305,0.137573,-0.524475,-0.84021
1470250786702031,-0.00909424,0.137512,-0.523254,-0.841003
1470250786725084,-0.00634766,0.137573,-0.521973,-0.841797
1470250786747572,-0.00354004,0.137817,-0.520752,-0.84259
1470250786762086,-0.000976563,0.137878,-0.51947,-0.843323
1470250786785106,0.00152588,0.137939,-0.518188,-0.844116
1470250786807628,0.00384521,0.138,-0.516846,-0.84491
1470250786822141,0.00640869,0.137878,-0.51532,-0.845886
1470250786845161,0.00958252,0.138062,-0.513611,-0.846863
1470250786867712,0.0130005,0.138,-0.511902,-0.847839
1470250786888699,0.0163574,0.138184,-0.510254,-0.848755
1470250786905215,0.0193481,0.137939,-0.508606,-0.849731
1470250786927734,0.0219727,0.137329,-0.506958,-0.850708
1470250786948757,0.0250244,0.137024,-0.505188,-0.851746
1470250786965268,0.0286865,0.13678,-0.503418,-0.852722
1470250786987788,0.0319214,0.136414,-0.501831,-0.853577
1470250787008833,0.034729,0.135986,-0.500122,-0.854553
1470250787025321,0.0372314,0.135681,-0.498596,-0.855408
1470250787047856,0.0395508,0.135498,-0.497131,-0.85614
1470250787068879,0.0419922,0.135376,-0.495728,-0.856873
1470250787085377,0.0444946,0.135254,-0.494446,-0.857483
1470250787107896,0.046875,0.135254,-0.493286,-0.858032
1470250787128917,0.0490112,0.135132,-0.492065,-0.858643
1470250787144929,0.0510254,0.134949,-0.490845,-0.859253
1470250787167951,0.0532227,0.134827,-0.489563,-0.859863
1470250787189006,0.0559692,0.13501,-0.488281,-0.860413
1470250787204983,0.0588379,0.135254,-0.486877,-0.860962
1470250787227525,0.0615234,0.135376,-0.485535,-0.861511
1470250787249023,0.0639648,0.135315,-0.484131,-0.862183
1470250787265037,0.0661621,0.135071,-0.482666,-0.862854
1470250787287591,0.0685425,0.135071,-0.481079,-0.863525
1470250787308656,0.0712891,0.135193,-0.479614,-0.864136
1470250787325091,0.0738525,0.135132,-0.478271,-0.864685
1470250787347612,0.0762329,0.135071,-0.476929,-0.865173
1470250787368630,0.0787354,0.135193,-0.475525,-0.865723
1470250787385147,0.0814209,0.13562,-0.47406,-0.866211
1470250787407665,0.0842896,0.136108,-0.472534,-0.866699
1470250787428687,0.0872803,0.136475,-0.471069,-0.867126
1470250787445200,0.09021,0.136719,-0.469666,-0.867554
1470250787467762,0.0927124,0.136719,-0.468201,-0.868103
1470250787488738,0.0951538,0.136841,-0.466675,-0.868652
1470250787505253,0.0979614,0.137207,-0.465088,-0.86908
1470250787527774,0.100769,0.137695,-0.463501,-0.869568
1470250787550294,0.103882,0.138245,-0.461853,-0.869934
1470250787564306,0.106873,0.138794,-0.460327,-0.870361
1470250787587829,0.110107,0.139587,-0.458679,-0.870667
1470250787610347,0.113342,0.140503,-0.456848,-0.871094
1470250787624391,0.11676,0.141357,-0.454834,-0.871521
1470250787647881,0.1203,0.142212,-0.45282,-0.872009
1470250787670401,0.123657,0.142883,-0.450867,-0.872375
1470250787691420,0.126404,0.143066,-0.449158,-0.872864
1470250787707935,0.128845,0.142944,-0.44751,-0.873352
1470250787729956,0.130981,0.142761,-0.445984,-0.87384
1470250787751474,0.133118,0.142761,-0.444519,-0.874268
1470250787767988,0.134949,0.1427,-0.443298,-0.874634
1470250787790009,0.136414,0.142639,-0.442261,-0.874939
1470250787804521,0.13739,0.142456,-0.441528,-0.875183
1470250787827542,0.138,0.142212,-0.440918,-0.875427
1470250787850064,0.138367,0.142029,-0.44043,-0.875671
1470250787864575,0.13855,0.141907,-0.440002,-0.875854
1470250787887604,0.138672,0.142029,-0.439758,-0.875916
1470250787910116,0.138611,0.141968,-0.439758,-0.875977
1470250787924630,0.138672,0.141968,-0.439758,-0.875977
1470250787947651,0.138123,0.141785,-0.439819,-0.876038
1470250787970170,0.137634,0.141602,-0.43988,-0.876099
1470250787984683,0.137756,0.141968,-0.439941,-0.875977
1470250788007705,0.137817,0.141968,-0.439941,-0.875977
1470250788030224,0.137817,0.142029,-0.439941,-0.875977
1470250788051243,0.137817,0.142029,-0.439941,-0.875977
1470250788067758,0.138062,0.142151,-0.43988,-0.875977
1470250788090278,0.138062,0.142151,-0.43988,-0.875977
1470250788112799,0.138245,0.142151,-0.439697,-0.876038
1470250788127812,0.13855,0.142212,-0.439453,-0.876099
1470250788150333,0.138916,0.142334,-0.43927,-0.876099
1470250788171377,0.13916,0.142456,-0.439087,-0.876099
1470250788187865,0.13916,0.142456,-0.439087,-0.876099
1470250788210386,0.139282,0.142578,-0.438904,-0.87616
1470250788231407,0.139526,0.142822,-0.438721,-0.876221
1470250788247920,0.139832,0.143188,-0.438538,-0.87616
1470250788269940,0.140015,0.143372,-0.438477,-0.87616
1470250788291512,0.140015,0.143372,-0.438477,-0.87616
1470250788307973,0.140015,0.143372,-0.438477,-0.87616
1470250788329994,0.139954,0.143372,-0.438477,-0.87616
1470250788351513,0.139954,0.143372,-0.438477,-0.87616
1470250788368032,0.140015,0.143372,-0.438477,-0.87616
1470250788390100,0.139954,0.143372,-0.438477,-0.87616
1470250788411566,0.139954,0.143372,-0.438477,-0.87616
1470250788428082,0.139954,0.143433,-0.438416,-0.87616
1470250788450101,0.139954,0.143433,-0.438416,-0.87616
1470250788472621,0.139954,0.143433,-0.438416,-0.87616
1470250788478130,0.139954,0.143433,-0.438416,-0.87616
1470250788493142,0.140198,0.143616,-0.438354,-0.87616
1470250788523182,0.140198,0.143616,-0.438354,-0.87616
1470250788538193,0.139893,0.143494,-0.438416,-0.87616
1470250788553211,0.139893,0.143494,-0.438416,-0.87616
1470250788575737,0.139893,0.143433,-0.438416,-0.87616
1470250788606241,0.139893,0.143433,-0.438416,-0.87616
1470250788614253,0.139709,0.143311,-0.438538,-0.87616
1470250788635768,0.139587,0.143311,-0.438599,-0.87616
1470250788658293,0.139526,0.143311,-0.438599,-0.87616
1470250788673329,0.139526,0.143311,-0.438599,-0.87616
1470250788695822,0.139587,0.143372,-0.438599,-0.87616
1470250788718380,0.139587,0.143372,-0.438599,-0.87616
1470250788732869,0.139526,0.143311,-0.438599,-0.87616
1470250788755912,0.139526,0.143311,-0.438599,-0.87616
1470250788778412,0.139526,0.143372,-0.438599,-0.87616
1470250788792940,0.139526,0.143372,-0.438599,-0.87616
1470250788815981,0.139526,0.143311,-0.438599,-0.87616
1470250788838466,0.139526,0.143372,-0.438599,-0.87616
1470250788852979,0.139526,0.143311,-0.438599,-0.87616
1470250788875999,0.139526,0.143372,-0.438599,-0.87616
1470250788898519,0.139526,0.143372,-0.438599,-0.87616
1470250788913535,0.139526,0.143372,-0.438599,-0.87616
1470250788935574,0.139587,0.143494,-0.438599,-0.87616
1470250788958104,0.139587,0.143494,-0.438599,-0.87616
1470250788974589,0.139587,0.143494,-0.438599,-0.87616
1470250788995609,0.139587,0.143494,-0.438599,-0.87616
1470250789018182,0.139587,0.143494,-0.438599,-0.87616
1470250789033168,0.139587,0.143494,-0.438599,-0.87616
1470250789055660,0.139587,0.143555,-0.438599,-0.87616
1470250789078181,0.139587,0.143555,-0.438599,-0.87616
1470250789094696,0.139587,0.143555,-0.438599,-0.87616
1470250789115744,0.139343,0.143677,-0.438599,-0.87616
1470250789138263,0.13916,0.14386,-0.438599,-0.87616
1470250789154250,0.138916,0.144104,-0.43866,-0.876099
1470250789175793,0.138245,0.143982,-0.438965,-0.876099
1470250789198289,0.137085,0.14386,-0.43927,-0.87616
1470250789214304,0.136047,0.143799,-0.439575,-0.87616
1470250789235868,0.135132,0.14386,-0.440002,-0.876099
1470250789258345,0.134216,0.144043,-0.440369,-0.875977
1470250789274373,0.133484,0.144226,-0.440796,-0.875854
1470250789295377,0.132751,0.14447,-0.441162,-0.875793
1470250789318396,0.132263,0.144714,-0.441406,-0.875671
1470250789334410,0.131897,0.145081,-0.441528,-0.87561
1470250789355967,0.131592,0.145264,-0.44165,-0.875549
1470250789377951,0.131348,0.145325,-0.44165,-0.87561
1470250789395966,0.131348,0.145325,-0.44165,-0.87561
1470250789415502,0.131409,0.145508,-0.441467,-0.87561
1470250789438587,0.131409,0.145813,-0.441223,-0.875671
1470250789456065,0.131226,0.146057,-0.44104,-0.875793
1470250789475568,0.131042,0.146484,-0.440857,-0.875854
1470250789498071,0.131042,0.147278,-0.440735,-0.875732
1470250789516076,0.131042,0.148254,-0.440735,-0.87561
1470250789535593,0.130493,0.149231,-0.440857,-0.875427
1470250789558153,0.129456,0.15033,-0.440979,-0.875366
1470250789576165,0.128174,0.151978,-0.44104,-0.875244
1470250789595647,0.127197,0.153931,-0.441345,-0.874878
1470250789618198,0.12616,0.15564,-0.442139,-0.874329
1470250789636234,0.12439,0.157532,-0.442688,-0.873962
1470250789655743,0.122437,0.160583,-0.442871,-0.873596
1470250789678222,0.120422,0.164856,-0.443542,-0.872681
1470250789696236,0.118042,0.168701,-0.44458,-0.871765
1470250789715753,0.114319,0.169861,-0.447388,-0.870605
1470250789738273,0.108948,0.167908,-0.451294,-0.86969
1470250789756290,0.0983887,0.157898,-0.457764,-0.869446
1470250789775865,0.0852661,0.143005,-0.466797,-0.868591
1470250789798328,0.0726929,0.127502,-0.47644,-0.866882
1470250789816445,0.0598755,0.110779,-0.486206,-0.864746
1470250789835861,0.0429077,0.088623,-0.497253,-0.862061
1470250789858381,0.0218506,0.0617065,-0.508789,-0.858459
1470250789875899,-0.000305176,0.0322876,-0.518677,-0.854431
1470250789896941,-0.0213623,0.00177002,-0.525574,-0.850525
1470250789918435,-0.0415039,-0.0296631,-0.528931,-0.847168
1470250789935952,-0.0604858,-0.0613403,-0.528931,-0.844299
1470250789955471,-0.0762939,-0.0915527,-0.52655,-0.841797
1470250789977988,-0.0879517,-0.11969,-0.522461,-0.839722
1470250789996004,-0.0969849,-0.145935,-0.516541,-0.838196
1470250790016024,-0.104797,-0.170593,-0.50946,-0.836914
1470250790038572,-0.111267,-0.193787,-0.502319,-0.835327
1470250790056072,-0.114258,-0.213074,-0.496033,-0.833984
1470250790077080,-0.115784,-0.230591,-0.48999,-0.832703
1470250790098100,-0.117493,-0.246765,-0.484436,-0.831116
1470250790116202,-0.119629,-0.261597,-0.479736,-0.828979
1470250790137132,-0.122253,-0.274597,-0.475891,-0.826599
1470250790158176,-0.126221,-0.285278,-0.473022,-0.824036
1470250790176167,-0.13031,-0.293091,-0.471802,-0.82135
1470250790197185,-0.133118,-0.297485,-0.472595,-0.818909
1470250790218222,-0.134583,-0.297852,-0.475281,-0.816956
1470250790236221,-0.134949,-0.294678,-0.479309,-0.815674
1470250790257241,-0.13501,-0.28894,-0.484192,-0.814819
1470250790278260,-0.135376,-0.28064,-0.489746,-0.814331
1470250790303781,-0.135193,-0.268921,-0.496033,-0.814575
1470250790317294,-0.13446,-0.253601,-0.503052,-0.815247
1470250790338330,-0.13324,-0.235046,-0.510986,-0.816101
1470250790356328,-0.130005,-0.211609,-0.51947,-0.817627
1470250790378349,-0.12439,-0.184387,-0.527832,-0.819763
1470250790398866,-0.11731,-0.156616,-0.536255,-0.821106
1470250790416383,-0.109985,-0.129456,-0.543884,-0.821838
1470250790438405,-0.104553,-0.105652,-0.549377,-0.822327
1470250790458420,-0.10376,-0.0852051,-0.553711,-0.821899
1470250790476452,-0.102295,-0.0619507,-0.557678,-0.821472
1470250790498505,-0.0948486,-0.0338745,-0.561218,-0.821533
1470250790520977,-0.0855103,-0.0090332,-0.563354,-0.821777
1470250790535990,-0.0795288,0.0147095,-0.56427,-0.821716
1470250790558555,-0.076416,0.0372314,-0.564392,-0.821167
1470250790578027,-0.074646,0.0543213,-0.563843,-0.820801
1470250790596544,-0.0718384,0.0703735,-0.562988,-0.820374
1470250790618564,-0.0684814,0.0866699,-0.561401,-0.82019
1470250790638130,-0.0663452,0.100647,-0.559631,-0.819946
1470250790656108,-0.0678711,0.11084,-0.558044,-0.81958
1470250790678619,-0.0732422,0.117126,-0.556091,-0.81958
1470250790698163,-0.0801392,0.117859,-0.554443,-0.820007
1470250790716153,-0.088562,0.11322,-0.553589,-0.820313
1470250790738800,-0.0949097,0.107605,-0.553894,-0.82019
1470250790758233,-0.0997925,0.0999146,-0.555359,-0.81958
1470250790776205,-0.103088,0.0891113,-0.556396,-0.819702
1470250790798725,-0.106018,0.0734863,-0.556152,-0.821045
1470250790818250,-0.110229,0.0524902,-0.555481,-0.822571
1470250790836286,-0.115417,0.0251465,-0.554016,-0.824158
1470250790858779,-0.118835,-0.00396729,-0.551636,-0.825623
1470250790878297,-0.119324,-0.0328979,-0.548218,-0.827209
1470250790896314,-0.118896,-0.0617065,-0.543274,-0.828857
1470250790918333,-0.118896,-0.090332,-0.537109,-0.830261
1470250790938351,-0.119324,-0.11792,-0.530396,-0.831055
1470250790961372,-0.118774,-0.142273,-0.52417,-0.831299
1470250790977886,-0.115479,-0.161438,-0.519531,-0.831116
1470250790998930,-0.112366,-0.177551,-0.516113,-0.830383
1470250791021450,-0.111084,-0.191101,-0.513794,-0.829041
1470250791037940,-0.112122,-0.202698,-0.512451,-0.826965
1470250791058961,-0.114624,-0.211365,-0.511902,-0.824768
1470250791081502,-0.117676,-0.215759,-0.51239,-0.822876
1470250791104000,-0.119751,-0.215271,-0.514099,-0.821655
1470250791119017,-0.119263,-0.209167,-0.517029,-0.821472
1470250791134560,-0.117615,-0.197815,-0.521118,-0.821899
1470250791165063,-0.11554,-0.181458,-0.525574,-0.823181
1470250791180068,-0.112732,-0.160767,-0.529663,-0.825256
1470250791195082,-0.109863,-0.137451,-0.53363,-0.827271
1470250791217617,-0.108398,-0.112488,-0.537964,-0.82843
1470250791238647,-0.108582,-0.0865479,-0.541626,-0.829102
1470250791254634,-0.107788,-0.0598145,-0.544617,-0.829651
1470250791278156,-0.104858,-0.0328979,-0.546692,-0.830139
1470250791300176,-0.104065,-0.0088501,-0.547058,-0.830566
1470250791314696,-0.104187,0.0128174,-0.546448,-0.830933
1470250791337709,-0.101563,0.0342407,-0.54541,-0.83136
1470250791360236,-0.0981445,0.0511475,-0.54364,-0.832031
1470250791374746,-0.097168,0.0646362,-0.540894,-0.833008
1470250791397764,-0.0964966,0.0772095,-0.538513,-0.833557
1470250791420284,-0.0921021,0.0895386,-0.536621,-0.834045
1470250791434797,-0.0881348,0.0988159,-0.534119,-0.835022
1470250791457817,-0.0866699,0.105347,-0.531677,-0.835938
1470250791480338,-0.0864258,0.110596,-0.529907,-0.836365
1470250791501380,-0.0847168,0.116333,-0.528564,-0.83667
1470250791517873,-0.0831909,0.120972,-0.527039,-0.837097
1470250791540391,-0.0827026,0.124023,-0.526611,-0.836975
1470250791561414,-0.0831909,0.12616,-0.526123,-0.836914
1470250791577925,-0.0827637,0.129028,-0.525208,-0.837097
1470250791600446,-0.0811157,0.131348,-0.524048,-0.837646
1470250791614459,-0.0797729,0.132019,-0.523315,-0.838074
1470250791637979,-0.0780029,0.132935,-0.522583,-0.838562
1470250791660504,-0.0756226,0.134338,-0.521729,-0.839111
1470250791674512,-0.072998,0.135803,-0.520752,-0.839722
1470250791698033,-0.0708618,0.136658,-0.519958,-0.840271
1470250791720053,-0.0690308,0.137451,-0.519348,-0.840637
1470250791734566,-0.0669556,0.138428,-0.51886,-0.841003
1470250791757590,-0.0644531,0.139526,-0.51825,-0.84137
1470250791780107,-0.0613403,0.140076,-0.517944,-0.841675
1470250791801126,-0.0579834,0.140564,-0.5177,-0.84198
1470250791817642,-0.0546875,0.140747,-0.517517,-0.842285
1470250791840161,-0.050415,0.140747,-0.517212,-0.842773
1470250791861303,-0.045105,0.140625,-0.516968,-0.843201
1470250791877694,-0.0397339,0.140503,-0.516602,-0.84375
1470250791907722,-0.0343628,0.140198,-0.51593,-0.844421
1470250791921234,-0.0283203,0.139893,-0.514893,-0.845337
1470250791937248,-0.0214844,0.139587,-0.513611,-0.846375
1470250791960268,-0.013916,0.138672,-0.512146,-0.847595
1470250791981304,-0.0057373,0.137329,-0.510498,-0.848877
1470250791997802,0.003479,0.135986,-0.508728,-0.850159
1470250792020324,0.0131226,0.134216,-0.506775,-0.851501
1470250792041344,0.0223999,0.130676,-0.504822,-0.853027
1470250792056856,0.0309448,0.124573,-0.503235,-0.854614
1470250792080378,0.0386353,0.116943,-0.501892,-0.85614
1470250792101418,0.045105,0.108704,-0.500366,-0.857849
1470250792116912,0.0504761,0.0999146,-0.498169,-0.859863
1470250792140430,0.0546265,0.0901489,-0.495789,-0.862061
1470250792161449,0.0575562,0.0803223,-0.493103,-0.86438
1470250792185470,0.0594482,0.0709229,-0.489441,-0.867126
1470250792200485,0.0595703,0.0611572,-0.484497,-0.870667
1470250792221503,0.0578613,0.0504761,-0.478516,-0.874756
1470250792237017,0.0553589,0.0397949,-0.471252,-0.879395
1470250792260039,0.0532837,0.0306396,-0.46228,-0.884644
1470250792282574,0.0512085,0.022583,-0.451355,-0.890625
1470250792297090,0.0473633,0.0145264,-0.438965,-0.897156
1470250792320091,0.0415039,0.00714111,-0.42511,-0.904175
1470250792343112,0.0333862,0.00146484,-0.409485,-0.911743
1470250792357126,0.0241089,-0.00280762,-0.391724,-0.9198
1470250792380151,0.0140991,-0.0045166,-0.372192,-0.92804
1470250792409180,0.00384521,-0.00305176,-0.350952,-0.936401
1470250792423702,-0.0065918,0.00170898,-0.327759,-0.944763
1470250792440201,-0.0172729,0.00982666,-0.302673,-0.952942
1470250792462720,-0.0269775,0.0211182,-0.276001,-0.960571
1470250792483740,-0.03479,0.0354614,-0.247803,-0.96759
1470250792500284,-0.0409546,0.0531006,-0.218079,-0.973633
1470250792522797,-0.045105,0.0726929,-0.186951,-0.978699
1470250792543828,-0.046936,0.0927734,-0.154968,-0.982483
1470250792560307,-0.0475464,0.111572,-0.123474,-0.984924
1470250792582827,-0.0476685,0.128723,-0.0929565,-0.986206
1470250792603846,-0.0477905,0.145691,-0.0634155,-0.986145
1470250792620361,-0.048584,0.163818,-0.0344849,-0.984741
1470250792642881,-0.0494995,0.182373,-0.00646973,-0.981995
1470250792663919,-0.0498657,0.200623,0.0202637,-0.97821
1470250792679915,-0.0495605,0.218384,0.0452881,-0.973572
1470250792702935,-0.0489502,0.236267,0.0684814,-0.968079
1470250792723972,-0.0494995,0.253784,0.090332,-0.961792
1470250792740468,-0.0514526,0.269409,0.110962,-0.955261
1470250792762989,-0.053833,0.283081,0.130127,-0.94873
1470250792784008,-0.0542603,0.295471,0.146912,-0.942444
1470250792800023,-0.0542603,0.306946,0.161255,-0.936401
1470250792823043,-0.0525513,0.316101,0.173706,-0.931213
1470250792844115,-0.0491943,0.323181,0.184082,-0.926941
1470250792860077,-0.0462646,0.32959,0.191711,-0.92334
1470250792882597,-0.0444946,0.334534,0.196533,-0.920593
1470250792904119,-0.043396,0.338257,0.199158,-0.918762
1470250792920131,-0.0424805,0.34082,0.199768,-0.917664
1470250792942650,-0.041626,0.342285,0.198608,-0.917419
1470250792964170,-0.0414429,0.342957,0.195862,-0.917786
1470250792980185,-0.0407715,0.342346,0.1922,-0.918823
1470250793002704,-0.0394287,0.341125,0.187866,-0.920227
1470250793024224,-0.0388794,0.339417,0.182556,-0.921936
1470250793048760,-0.0387573,0.337524,0.176758,-0.923767
1470250793062761,-0.0386353,0.335449,0.170654,-0.925659
1470250793083779,-0.0376587,0.332825,0.164001,-0.927856
1470250793107799,-0.0356445,0.330139,0.156006,-0.930298
1470250793122813,-0.0336304,0.327515,0.146118,-0.932922
1470250793143831,-0.03125,0.324341,0.134216,-0.935852
1470250793159845,-0.0286255,0.32074,0.120056,-0.939087
1470250793182867,-0.0264282,0.316406,0.102783,-0.942688
1470250793205387,-0.0252686,0.308899,0.0828247,-0.947144
1470250793219399,-0.0257568,0.299561,0.0598145,-0.951843
1470250793243421,-0.0279541,0.28833,0.0338135,-0.956543
1470250793265440,-0.0300293,0.274963,0.00531006,-0.960999
1470250793279954,-0.029541,0.260315,-0.0246582,-0.964783
1470250793302474,-0.0276489,0.244812,-0.0560913,-0.96759
1470250793325494,-0.026062,0.228577,-0.0887451,-0.969177
1470250793339506,-0.0234985,0.211792,-0.122009,-0.969421
1470250793363028,-0.019043,0.195251,-0.156189,-0.968079
1470250793385047,-0.0129395,0.179749,-0.190125,-0.965088
1470250793414077,-0.00787354,0.165283,-0.224487,-0.960327
1470250793423081,-0.00341797,0.152649,-0.259766,-0.953552
1470250793445101,-0.000854492,0.140442,-0.296082,-0.944824
1470250793466622,-0.0010376,0.128967,-0.334045,-0.933716
1470250793482642,-0.00311279,0.1203,-0.371582,-0.920593
1470250793505157,-0.00469971,0.116516,-0.408386,-0.905396
1470250793526219,-0.00689697,0.116577,-0.443726,-0.88855
1470250793542689,-0.012085,0.11792,-0.4776,-0.870605
1470250793565211,-0.0181885,0.122131,-0.509399,-0.851624
1470250793586734,-0.0240479,0.131042,-0.539063,-0.831726
1470250793602743,-0.0288086,0.143005,-0.56604,-0.811401
1470250793625264,-0.0338745,0.154541,-0.591736,-0.790527
1470250793646284,-0.0412598,0.165405,-0.616638,-0.768616
1470250793662797,-0.0508423,0.177673,-0.640503,-0.745422
1470250793685320,-0.0592651,0.192505,-0.661072,-0.722839
1470250793706337,-0.0670776,0.206482,-0.679626,-0.700745
1470250793722851,-0.0755615,0.218628,-0.696716,-0.679077
1470250793745372,-0.0859985,0.22821,-0.711975,-0.658569
1470250793766391,-0.097229,0.238098,-0.725098,-0.638855
1470250793782907,-0.107239,0.250366,-0.736511,-0.619263
1470250793805426,-0.11554,0.264587,-0.746399,-0.59967
1470250793826444,-0.124268,0.276306,-0.755127,-0.581421
1470250793842959,-0.134949,0.284485,-0.762451,-0.565369
1470250793865480,-0.146301,0.2901,-0.768494,-0.551331
1470250793886523,-0.156494,0.297913,-0.771973,-0.539307
1470250793903014,-0.1651,0.306519,-0.773743,-0.529297
1470250793925533,-0.172302,0.312805,-0.775269,-0.520996
1470250793946552,-0.177979,0.316467,-0.776123,-0.515625
1470250793962067,-0.18042,0.317688,-0.776001,-0.514221
1470250793985088,-0.178711,0.316406,-0.775574,-0.516296
1470250794006605,-0.173218,0.312317,-0.775269,-0.521057
1470250794022121,-0.163452,0.306274,-0.774414,-0.528992
1470250794045141,-0.14917,0.296265,-0.773132,-0.540649
1470250794066659,-0.129822,0.281616,-0.771362,-0.555786
1470250794082174,-0.105835,0.264648,-0.7677,-0.573975
1470250794105196,-0.0774536,0.244446,-0.762451,-0.594177
1470250794126282,-0.0446777,0.221619,-0.754517,-0.61615
1470250794142227,-0.00708008,0.196472,-0.743713,-0.638977
1470250794165248,0.0352783,0.169861,-0.728943,-0.662292
1470250794187770,0.0807495,0.140442,-0.71051,-0.684875
1470250794202287,0.127686,0.108215,-0.688721,-0.705505
1470250794225302,0.174927,0.0740356,-0.663635,-0.723633
1470250794247823,0.221375,0.0402222,-0.635132,-0.738953
1470250794262335,0.266785,0.00848389,-0.60437,-0.750671
1470250794285356,0.309265,-0.0201416,-0.572693,-0.758972
1470250794307878,0.34491,-0.046875,-0.542847,-0.764343
1470250794336417,0.371765,-0.0700073,-0.517761,-0.767395
1470250794352917,0.389771,-0.0856323,-0.499023,-0.769287
1470250794367930,0.399353,-0.0908203,-0.487305,-0.771301
1470250794388993,0.398926,-0.0875854,-0.480957,-0.775818
1470250794405464,0.385986,-0.0751343,-0.483093,-0.782349
1470250794427984,0.364685,-0.0532227,-0.495544,-0.78656
1470250794449028,0.334595,-0.0245972,-0.516602,-0.787781
1470250794465525,0.29541,0.0102539,-0.54248,-0.786377
1470250794488038,0.251282,0.0494385,-0.568909,-0.781555
1470250794509057,0.204041,0.0898438,-0.594849,-0.772339
1470250794525572,0.154419,0.128052,-0.618591,-0.759766
1470250794548091,0.105713,0.160339,-0.637695,-0.746033
1470250794569111,0.0587158,0.183411,-0.65332,-0.732239
1470250794585126,0.0198364,0.202881,-0.664368,-0.719116
1470250794607645,-0.00775146,0.217529,-0.670837,-0.708984
1470250794629165,-0.0255127,0.225098,-0.675415,-0.701843
1470250794651689,-0.0339355,0.227722,-0.678406,-0.697754
1470250794667704,-0.0325317,0.22998,-0.677917,-0.69751
1470250794688718,-0.0251465,0.228882,-0.674011,-0.701965
1470250794705234,-0.0158691,0.219971,-0.668213,-0.710571
1470250794728255,-0.00701904,0.204834,-0.6604,-0.722412
1470250794748788,0.00396729,0.187256,-0.650452,-0.736145
1470250794764787,0.0194702,0.171692,-0.637878,-0.750549
1470250794787807,0.0374146,0.158142,-0.623718,-0.764648
1470250794808826,0.0564575,0.147217,-0.608521,-0.777771
1470250794825341,0.0775146,0.139526,-0.591919,-0.7901
1470250794847861,0.0964355,0.131775,-0.57605,-0.800964
1470250794868880,0.109619,0.124084,-0.562134,-0.810303
1470250794884396,0.117188,0.118958,-0.549805,-0.818481
1470250794907916,0.121948,0.1203,-0.53717,-0.825928
1470250794928934,0.124268,0.125793,-0.524536,-0.832886
1470250794944948,0.122253,0.130615,-0.51532,-0.838135
1470250794967969,0.115906,0.13324,-0.510254,-0.841736
1470250794989014,0.110901,0.138123,-0.506714,-0.84375
1470250795004504,0.108459,0.145813,-0.502808,-0.845154
1470250795028023,0.106262,0.151428,-0.499817,-0.846191
1470250795049041,0.101257,0.152161,-0.499268,-0.846985
1470250795064591,0.095459,0.151245,-0.499878,-0.847473
1470250795088077,0.0921021,0.152039,-0.500244,-0.847473
1470250795110598,0.0905151,0.154602,-0.500122,-0.847229
1470250795124610,0.0887451,0.156555,-0.499878,-0.847229
1470250795148131,0.086792,0.156982,-0.499695,-0.847473
1470250795170153,0.0856934,0.155945,-0.499512,-0.8479
1470250795185166,0.0857544,0.154419,-0.499695,-0.848022
1470250795207686,0.0875244,0.153564,-0.500122,-0.847778
1470250795230227,0.0895386,0.153137,-0.500427,-0.847412
1470250795245218,0.0903931,0.1521,-0.50061,-0.847412
1470250795267738,0.0906982,0.150269,-0.500854,-0.847595
1470250795290258,0.0910645,0.147766,-0.501099,-0.847839
1470250795311302,0.0913696,0.144531,-0.501099,-0.848389
1470250795327793,0.0913696,0.141052,-0.500977,-0.848999
1470250795350313,0.0914307,0.138062,-0.501038,-0.849487
1470250795371396,0.0917358,0.136292,-0.500977,-0.849792
1470250795387846,0.0922852,0.135254,-0.500549,-0.850098
1470250795410366,0.0928955,0.13446,-0.499878,-0.850586
1470250795424879,0.093689,0.133545,-0.499023,-0.851135
1470250795447902,0.0943604,0.133057,-0.498169,-0.851624
1470250795470422,0.0952759,0.133057,-0.498047,-0.851624
1470250795484432,0.0963745,0.132935,-0.49884,-0.851013
1470250795507954,0.0970459,0.132202,-0.500061,-0.850342
1470250795530475,0.0974121,0.131348,-0.501221,-0.849731
1470250795544487,0.0984497,0.13147,-0.502075,-0.849121
1470250795568008,0.100708,0.133179,-0.50238,-0.848389
1470250795590528,0.104248,0.135803,-0.502502,-0.847473
1470250795611547,0.108398,0.138123,-0.502441,-0.84668
1470250795628061,0.112732,0.140076,-0.501953,-0.846008
1470250795650581,0.117065,0.141479,-0.501404,-0.84552
1470250795671602,0.121277,0.142151,-0.500916,-0.845154
1470250795687615,0.125366,0.142395,-0.500488,-0.844727
1470250795710135,0.129578,0.1427,-0.499939,-0.84436
1470250795731156,0.133911,0.14386,-0.499146,-0.843994
1470250795747692,0.137268,0.144653,-0.498291,-0.843811
1470250795770191,0.139771,0.144836,-0.497253,-0.843994
1470250795791709,0.141968,0.14447,-0.496399,-0.844177
1470250795807723,0.144531,0.144348,-0.495728,-0.844116
1470250795830244,0.147705,0.144897,-0.494995,-0.843933
1470250795851793,0.150146,0.145386,-0.493958,-0.844055
1470250795867777,0.151123,0.14502,-0.493103,-0.844421
1470250795890297,0.150513,0.143433,-0.492981,-0.844849
1470250795911316,0.149475,0.141296,-0.493469,-0.845154
1470250795927834,0.149536,0.140259,-0.49408,-0.844971
1470250795950351,0.14978,0.139709,-0.494629,-0.844666
1470250795971425,0.149536,0.139099,-0.495117,-0.844543
1470250795987885,0.14856,0.138062,-0.495728,-0.844482
1470250796010405,0.1474,0.137024,-0.496521,-0.844421
1470250796031440,0.146301,0.136292,-0.497498,-0.844177
1470250796047439,0.144897,0.135437,-0.498596,-0.843872
1470250796070459,0.143188,0.13501,-0.49939,-0.843811
1470250796093479,0.141357,0.134583,-0.499878,-0.843872
1470250796108021,0.139404,0.134521,-0.500427,-0.843872
1470250796113497,0.138,0.135193,-0.500854,-0.84375
1470250796135576,0.136841,0.13623,-0.50116,-0.843567
1470250796158066,0.135498,0.137512,-0.501465,-0.843384
1470250796173556,0.134216,0.138733,-0.50177,-0.843201
1470250796195604,0.133484,0.139954,-0.501953,-0.843018
1470250796218092,0.133484,0.141296,-0.502014,-0.842773
1470250796233105,0.133972,0.142944,-0.502014,-0.842407
1470250796255640,0.134521,0.144348,-0.501892,-0.842163
1470250796278144,0.134705,0.145325,-0.501709,-0.842102
1470250796293159,0.135071,0.145996,-0.501465,-0.842041
1470250796315679,0.135986,0.146545,-0.50116,-0.84198
1470250796338199,0.137573,0.146851,-0.500916,-0.841797
1470250796353245,0.139404,0.14679,-0.500732,-0.841614
1470250796375733,0.14093,0.146423,-0.500793,-0.841431
1470250796398279,0.141846,0.14563,-0.500916,-0.841309
1470250796413266,0.143066,0.144897,-0.500977,-0.841187
1470250796435803,0.145203,0.144775,-0.500977,-0.84082
1470250796458322,0.147583,0.145142,-0.500732,-0.840515
1470250796473321,0.149414,0.145508,-0.500244,-0.840393
1470250796495843,0.151123,0.145935,-0.499695,-0.840393
1470250796518361,0.153015,0.146606,-0.498962,-0.840393
1470250796533418,0.155212,0.147583,-0.497864,-0.840454
1470250796555897,0.157532,0.148376,-0.496521,-0.840637
1470250796578414,0.160034,0.149048,-0.495117,-0.840881
1470250796593466,0.162415,0.149353,-0.49353,-0.841309
1470250796615973,0.16449,0.149353,-0.491699,-0.84198
1470250796638476,0.166443,0.14917,-0.489807,-0.842712
1470250796654984,0.168213,0.148804,-0.488098,-0.843445
1470250796676002,0.169739,0.148621,-0.486389,-0.844177
1470250796698523,0.170959,0.148682,-0.484741,-0.844849
1470250796714547,0.171265,0.148376,-0.483398,-0.845642
1470250796736056,0.171143,0.148132,-0.482239,-0.846313
1470250796758578,0.171143,0.148132,-0.481323,-0.846863
1470250796774591,0.171265,0.148438,-0.480408,-0.84729
1470250796795610,0.171082,0.148987,-0.479553,-0.847717
1470250796818132,0.170288,0.149109,-0.479004,-0.848145
1470250796834645,0.169373,0.149231,-0.478699,-0.848511
1470250796855666,0.168274,0.149353,-0.478455,-0.848816
1470250796878185,0.167725,0.149719,-0.478149,-0.84906
1470250796894699,0.167725,0.150452,-0.477783,-0.849121
1470250796916220,0.167725,0.151245,-0.477234,-0.849304
1470250796938253,0.167542,0.151855,-0.476746,-0.849487
1470250796954753,0.167236,0.152222,-0.476257,-0.849792
1470250796975772,0.166931,0.152466,-0.475708,-0.850098
1470250796998310,0.166931,0.15271,-0.474976,-0.850464
1470250797016335,0.167297,0.152588,-0.474487,-0.850647
1470250797035872,0.167664,0.152405,-0.47406,-0.850891
1470250797058346,0.168091,0.152039,-0.473511,-0.851196
1470250797076362,0.168518,0.15155,-0.4729,-0.851501
1470250797095880,0.168945,0.151062,-0.472351,-0.851807
1470250797118401,0.169678,0.150879,-0.471802,-0.85199
1470250797136420,0.170349,0.150818,-0.47113,-0.852234
1470250797155965,0.170898,0.150757,-0.47052,-0.852478
1470250797178485,0.171265,0.150513,-0.470093,-0.852722
1470250797195969,0.171448,0.15033,-0.469788,-0.852844
1470250797215990,0.171631,0.150269,-0.469543,-0.852966
1470250797238508,0.172058,0.150452,-0.469421,-0.852905
1470250797256054,0.172485,0.150635,-0.46936,-0.852844
1470250797276075,0.172852,0.150635,-0.469421,-0.852722
1470250797301064,0.173218,0.150696,-0.46936,-0.852661
1470250797316078,0.174072,0.150879,-0.469299,-0.852478
1470250797335594,0.174866,0.151184,-0.469116,-0.852356
1470250797358625,0.175537,0.15155,-0.468872,-0.852295
1470250797376191,0.175903,0.151917,-0.468689,-0.852234
1470250797395664,0.176025,0.152222,-0.468506,-0.852295
1470250797418673,0.17627,0.152527,-0.468323,-0.852295
1470250797436238,0.176575,0.152893,-0.468201,-0.852234
1470250797455756,0.177002,0.153076,-0.468201,-0.852112
1470250797478248,0.177307,0.153198,-0.468201,-0.85199
1470250797496240,0.177307,0.153259,-0.468201,-0.85199
1470250797515758,0.177246,0.153259,-0.468201,-0.85199
1470250797538278,0.177246,0.153259,-0.468201,-0.85199
1470250797556293,0.177612,0.153259,-0.468201,-0.851929
1470250797575830,0.177917,0.153137,-0.468262,-0.851868
1470250797598331,0.178223,0.152954,-0.46814,-0.851868
1470250797616347,0.178711,0.153015,-0.467896,-0.851929
1470250797637366,0.179138,0.153137,-0.46759,-0.85199
1470250797658476,0.179382,0.153076,-0.467285,-0.852112
1470250797680992,0.179382,0.152771,-0.46698,-0.852295
1470250797696922,0.179321,0.152527,-0.466858,-0.852478
1470250797718478,0.179382,0.152527,-0.466858,-0.852417
1470250797735954,0.179382,0.152527,-0.466858,-0.852417
1470250797757473,0.179321,0.152466,-0.466675,-0.852539
1470250797778492,0.179382,0.152527,-0.466553,-0.8526
1470250797796009,0.179443,0.152527,-0.46637,-0.852722
1470250797817027,0.179382,0.152588,-0.466187,-0.852783
1470250797838546,0.179382,0.152588,-0.466187,-0.852783
1470250797856064,0.179504,0.15271,-0.465942,-0.852905
1470250797877081,0.179504,0.152588,-0.465759,-0.852966
1470250797898629,0.179688,0.152527,-0.465576,-0.853088
1470250797916116,0.180115,0.152527,-0.465332,-0.853088
1470250797937636,0.180542,0.152588,-0.465088,-0.853149
1470250797958706,0.180969,0.152527,-0.464783,-0.85321
1470250797976169,0.181641,0.152466,-0.464478,-0.853271
1470250797998743,0.182312,0.152222,-0.46405,-0.853455
1470250798018208,0.183167,0.151917,-0.463562,-0.853577
1470250798036225,0.183838,0.151245,-0.462708,-0.854004
1470250798058780,0.185669,0.151184,-0.461792,-0.854126
1470250798078265,0.187927,0.152161,-0.46106,-0.853821
1470250798096279,0.188721,0.152588,-0.460571,-0.853821
1470250798118823,0.188416,0.152161,-0.460266,-0.854126
1470250798138320,0.188599,0.151733,-0.459778,-0.854431
1470250798156333,0.18988,0.151978,-0.459106,-0.854431
1470250798178852,0.19165,0.153076,-0.458618,-0.854126
1470250798198383,0.192383,0.153687,-0.458313,-0.854065
1470250798216390,0.191895,0.153503,-0.458008,-0.854309
1470250798238409,0.191284,0.153076,-0.457764,-0.854675
1470250798258443,0.19104,0.153076,-0.457581,-0.854858
1470250798276542,0.191162,0.153442,-0.457214,-0.854919
1470250798298985,0.190918,0.153564,-0.457092,-0.855042
1470250798318477,0.190491,0.153625,-0.45697,-0.855164
1470250798336493,0.190186,0.153687,-0.456848,-0.855286
1470250798359017,0.190002,0.153748,-0.456726,-0.855408
1470250798378077,0.189697,0.15387,-0.456543,-0.85553
1470250798396047,0.189575,0.154297,-0.456421,-0.855591
1470250798418569,0.189514,0.154541,-0.456421,-0.85553
1470250798438679,0.18866,0.154419,-0.456665,-0.855591
1470250798456101,0.187805,0.154236,-0.45697,-0.855652
1470250798478621,0.187561,0.154419,-0.457275,-0.85553
1470250798498179,0.187683,0.154968,-0.457581,-0.855225
1470250798516155,0.187622,0.155212,-0.457825,-0.855103
1470250798538676,0.187378,0.155212,-0.458008,-0.855042
1470250798558207,0.187378,0.155212,-0.458008,-0.855042
1470250798576296,0.187683,0.155518,-0.458252,-0.854797
1470250798598729,0.187683,0.15564,-0.458496,-0.854614
1470250798618746,0.187134,0.155151,-0.458679,-0.854736
1470250798635264,0.18689,0.154968,-0.458862,-0.854736
1470250798657785,0.187073,0.155029,-0.459045,-0.854614
1470250798678802,0.187012,0.154907,-0.459167,-0.854553
1470250798695316,0.186523,0.154724,-0.459167,-0.854675
1470250798717836,0.186523,0.154785,-0.459167,-0.854675
1470250798738855,0.186462,0.155212,-0.459229,-0.854614
1470250798755369,0.185913,0.155396,-0.459534,-0.854492
1470250798777894,0.184692,0.154907,-0.459961,-0.854614
1470250798798925,0.18396,0.154236,-0.460205,-0.854797
1470250798815423,0.183899,0.154236,-0.460205,-0.854797
1470250798837944,0.183838,0.154114,-0.460205,-0.854797
1470250798858974,0.183533,0.153687,-0.460083,-0.855042
1470250798874981,0.183105,0.153198,-0.4599,-0.855286
1470250798897998,0.182312,0.152466,-0.459717,-0.855713
