timestamp,roll,pitch,yaw
1470243544223051,-0.516394,0.0413845,-2.41001
1470243544245590,-0.516088,0.0414412,-2.41038
1470243544260605,-0.51571,0.041617,-2.41066
1470243544284125,-0.51571,0.041617,-2.41066
1470243544305646,-0.515664,0.0417271,-2.41069
1470243544320660,-0.515789,0.0417699,-2.41072
1470243544344179,-0.515743,0.04188,-2.41074
1470243544375207,-0.515743,0.04188,-2.41074
1470243544384232,-0.515743,0.04188,-2.41074
1470243544404734,-0.515697,0.0419901,-2.41076
1470243544427270,-0.515697,0.0419901,-2.41076
1470243544449287,-0.515651,0.0421002,-2.41079
1470243544464300,-0.516001,0.0422374,-2.41077
1470243544507826,-0.516001,0.0422374,-2.41077
1470243544518335,-0.516081,0.0423903,-2.41083
1470243544524342,-0.516081,0.0423903,-2.41083
1470243544546360,-0.516081,0.0423903,-2.41083
1470243544561877,-0.516035,0.0425004,-2.41085
1470243544591409,-0.516035,0.0425004,-2.41085
1470243544614922,-0.516035,0.0425004,-2.41085
1470243544629936,-0.516035,0.0425004,-2.41085
1470243544652456,-0.516114,0.0426533,-2.41091
1470243544666969,-0.516122,0.0426833,-2.41082
1470243544697497,-0.516076,0.0427934,-2.41085
1470243544712510,-0.516076,0.0427934,-2.41085
1470243544727524,-0.516201,0.0428362,-2.41088
1470243544750044,-0.516175,0.042845,-2.41076
1470243544772564,-0.516175,0.042845,-2.41076
1470243544787077,-0.516255,0.0429979,-2.41082
1470243544810098,-0.516255,0.0429979,-2.41082
1470243544832618,-0.516255,0.0429979,-2.41082
1470243544847131,-0.51638,0.0430407,-2.41085
1470243544870152,-0.516334,0.0431508,-2.41088
1470243544892672,-0.516334,0.0431508,-2.41088
1470243544907184,-0.516414,0.0433037,-2.41093
1470243544930206,-0.516288,0.0432609,-2.4109
1470243544952726,-0.516421,0.0433337,-2.41085
1470243544966738,-0.516375,0.0434438,-2.41087
1470243544990259,-0.516349,0.0434526,-2.41076
1470243545012780,-0.516474,0.0434954,-2.41079
1470243545026794,-0.516429,0.0436055,-2.41081
1470243545050314,-0.516429,0.0436055,-2.41081
1470243545072334,-0.516429,0.0436055,-2.41081
1470243545086847,-0.516554,0.0436483,-2.41085
1470243545109867,-0.516554,0.0436483,-2.41085
1470243545132387,-0.516554,0.0436483,-2.41085
1470243545153408,-0.516634,0.0438012,-2.4109
1470243545169921,-0.516634,0.0438012,-2.4109
1470243545192443,-0.516759,0.0438441,-2.41094
1470243545213459,-0.516733,0.0438528,-2.41082
1470243545229975,-0.516733,0.0438528,-2.41082
1470243545252495,-0.516687,0.0439628,-2.41084
1470243545274014,-0.516812,0.0440057,-2.41088
1470243545290029,-0.516812,0.0440057,-2.41088
1470243545312550,-0.516774,0.0441458,-2.41082
1470243545333568,-0.516899,0.0441887,-2.41085
1470243545350085,-0.516899,0.0441887,-2.41085
1470243545372603,-0.516854,0.0442987,-2.41087
1470243545393622,-0.516979,0.0443416,-2.41091
1470243545410136,-0.516979,0.0443416,-2.41091
1470243545432657,-0.516979,0.0443416,-2.41091
1470243545453676,-0.516907,0.0444603,-2.41082
1470243545470191,-0.516907,0.0444603,-2.41082
1470243545491710,-0.516907,0.0444603,-2.41082
1470243545515231,-0.516987,0.0446132,-2.41087
1470243545537751,-0.516987,0.0446132,-2.41087
1470243545551764,-0.516987,0.0446132,-2.41087
1470243545575284,-0.517066,0.0447662,-2.41093
1470243545597804,-0.517074,0.0447963,-2.41085
1470243545611817,-0.517199,0.0448391,-2.41088
1470243545634838,-0.517199,0.0448391,-2.41088
1470243545657359,-0.517153,0.0449492,-2.4109
1470243545678877,-0.517153,0.0449492,-2.4109
1470243545694892,-0.517253,0.0450007,-2.41082
1470243545717412,-0.517382,0.0449445,-2.41122
1470243545738932,-0.517507,0.0449873,-2.41125
1470243545754946,-0.517469,0.0451275,-2.41119
1470243545777467,-0.518014,0.0449969,-2.41141
1470243545798986,-0.518322,0.0449034,-2.41173
1470243545815000,-0.518432,0.0448858,-2.41193
1470243545837521,-0.518386,0.0449959,-2.41195
1470243545859040,-0.518512,0.0450387,-2.41199
1470243545875055,-0.518512,0.0450387,-2.41199
1470243545897575,-0.518466,0.0451487,-2.41201
1470243545918593,-0.518591,0.0451915,-2.41205
1470243545935108,-0.518591,0.0451915,-2.41205
1470243545957629,-0.518546,0.0453016,-2.41207
1470243545978647,-0.518546,0.0453016,-2.41207
1470243545995162,-0.518679,0.0453746,-2.41202
1470243546017683,-0.518645,0.045353,-2.41199
1470243546038702,-0.518652,0.0453833,-2.4119
1470243546055216,-0.518778,0.0454261,-2.41194
1470243546077736,-0.518732,0.0455361,-2.41196
1470243546083240,-0.518732,0.0455361,-2.41196
1470243546105761,-0.518732,0.0455361,-2.41196
1470243546120274,-0.518858,0.0455789,-2.41199
1470243546143294,-0.518812,0.045689,-2.41202
1470243546165815,-0.518812,0.045689,-2.41202
1470243546180828,-0.518938,0.0457318,-2.41205
1470243546203348,-0.518892,0.0458418,-2.41207
1470243546225371,-0.518866,0.0458505,-2.41196
1470243546240883,-0.518866,0.0458505,-2.41196
1470243546262903,-0.518991,0.0458933,-2.41199
1470243546285423,-0.518991,0.0458933,-2.41199
1470243546300436,-0.518991,0.0458933,-2.41199
1470243546322956,-0.519071,0.0460461,-2.41205
1470243546345477,-0.519071,0.0460461,-2.41205
1470243546360490,-0.519071,0.0460461,-2.41205
1470243546383010,-0.519197,0.0460889,-2.41208
1470243546405531,-0.519197,0.0460889,-2.41208
1470243546420544,-0.519204,0.0461192,-2.412
1470243546443067,-0.519158,0.0462292,-2.41202
1470243546465584,-0.519158,0.0462292,-2.41202
1470243546482099,-0.519284,0.046272,-2.41206
1470243546503118,-0.519258,0.0462807,-2.41194
1470243546525639,-0.519258,0.0462807,-2.41194
1470243546540651,-0.519383,0.0463235,-2.41198
1470243546563171,-0.519383,0.0463235,-2.41198
1470243546585692,-0.519383,0.0463235,-2.41198
1470243546600705,-0.519383,0.0463235,-2.41198
1470243546623226,-0.519383,0.0463235,-2.41198
1470243546645746,-0.519338,0.0464335,-2.412
1470243546660759,-0.519463,0.0464763,-2.41203
1470243546683279,-0.519463,0.0464763,-2.41203
1470243546705800,-0.519463,0.0464763,-2.41203
1470243546721815,-0.519463,0.0464763,-2.41203
1470243546743333,-0.519463,0.0464763,-2.41203
1470243546765354,-0.519589,0.0465191,-2.41207
1470243546781868,-0.519589,0.0465191,-2.41207
1470243546802887,-0.519562,0.0465278,-2.41195
1470243546833914,-0.519688,0.0465706,-2.41199
1470243546841923,-0.519688,0.0465706,-2.41199
1470243546863442,-0.519688,0.0465706,-2.41199
1470243546885461,-0.519642,0.0466806,-2.41201
1470243546901976,-0.519768,0.0467234,-2.41204
1470243546922999,-0.519768,0.0467234,-2.41204
1470243546945515,-0.519768,0.0467234,-2.41204
1470243546962030,-0.519848,0.0468763,-2.4121
1470243546983049,-0.519848,0.0468763,-2.4121
1470243547005569,-0.519848,0.0468763,-2.4121
1470243547038600,-0.519973,0.046919,-2.41213
1470243547043103,-0.519928,0.0470291,-2.41216
1470243547065624,-0.519909,0.047068,-2.41196
1470243547083639,-0.519909,0.047068,-2.41196
1470243547103157,-0.519989,0.0472209,-2.41202
1470243547125678,-0.519989,0.0472209,-2.41202
1470243547143692,-0.520114,0.0472637,-2.41205
1470243547163210,-0.520114,0.0472637,-2.41205
1470243547185730,-0.520114,0.0472637,-2.41205
1470243547203747,-0.520114,0.0472637,-2.41205
1470243547225769,-0.52024,0.0473065,-2.41208
1470243547245784,-0.520194,0.0474165,-2.41211
1470243547263301,-0.520294,0.047468,-2.41203
1470243547283320,-0.520248,0.047578,-2.41205
1470243547305838,-0.520248,0.047578,-2.41205
1470243547323355,-0.520248,0.047578,-2.41205
1470243547343373,-0.520374,0.0476208,-2.41208
1470243547365392,-0.520335,0.0477612,-2.41202
1470243547383409,-0.520335,0.0477612,-2.41202
1470243547402927,-0.520335,0.0477612,-2.41202
1470243547425464,-0.520335,0.0477612,-2.41202
1470243547443482,-0.520415,0.047914,-2.41208
1470243547462998,-0.520415,0.047914,-2.41208
1470243547485517,-0.520415,0.047914,-2.41208
1470243547503534,-0.52037,0.0480241,-2.4121
1470243547523051,-0.52037,0.0480241,-2.4121
1470243547545571,-0.520469,0.0480754,-2.41202
1470243547563588,-0.520469,0.0480754,-2.41202
1470243547583105,-0.520423,0.0481855,-2.41204
1470243547605626,-0.520549,0.0482283,-2.41208
1470243547623641,-0.520549,0.0482283,-2.41208
1470243547644660,-0.520549,0.0482283,-2.41208
1470243547668682,-0.520503,0.0483383,-2.4121
1470243547683695,-0.520511,0.0483687,-2.41202
1470243547704215,-0.520637,0.0484115,-2.41205
1470243547725733,-0.520637,0.0484115,-2.41205
1470243547743750,-0.520591,0.0485216,-2.41208
1470243547764268,-0.520591,0.0485216,-2.41208
1470243547785786,-0.520591,0.0485216,-2.41208
1470243547803303,-0.520591,0.0485216,-2.41208
1470243547824822,-0.520545,0.0486316,-2.4121
1470243547845840,-0.520671,0.0486744,-2.41213
1470243547863357,-0.520671,0.0486744,-2.41213
1470243547884375,-0.520625,0.0487845,-2.41216
1470243547905394,-0.520599,0.048793,-2.41204
1470243547923410,-0.520599,0.048793,-2.41204
1470243547944429,-0.520725,0.0488358,-2.41208
1470243547965447,-0.520725,0.0488358,-2.41208
1470243547983465,-0.520679,0.0489458,-2.4121
1470243548005985,-0.520679,0.0489458,-2.4121
1470243548028505,-0.520686,0.0489763,-2.41202
1470243548043518,-0.520766,0.0491291,-2.41207
1470243548066039,-0.520766,0.0491291,-2.41207
1470243548085556,-0.520766,0.0491291,-2.41207
1470243548111079,-0.520766,0.0491291,-2.41207
1470243548126092,-0.520892,0.0491719,-2.41211
1470243548145609,-0.520892,0.0491719,-2.41211
1470243548169632,-0.520892,0.0491719,-2.41211
1470243548186146,-0.520991,0.0492233,-2.41203
1470243548205663,-0.520458,0.0495264,-2.41213
1470243548223679,-0.520466,0.0495568,-2.41205
1470243548245700,-0.520614,0.0499318,-2.41188
1470243548265717,-0.520713,0.0499832,-2.4118
1470243548283233,-0.520374,0.0505512,-2.41172
1470243548305753,-0.520299,0.0511358,-2.41198
1470243548325771,-0.519789,0.051771,-2.41188
1470243548343287,-0.519789,0.051771,-2.41188
1470243548365808,-0.519789,0.051771,-2.41188
1470243548385325,-0.519743,0.0518811,-2.41191
1470243548403342,-0.519869,0.051924,-2.41194
1470243548425862,-0.519869,0.051924,-2.41194
1470243548445880,-0.519869,0.051924,-2.41194
1470243548463395,-0.519797,0.0520423,-2.41185
1470243548485916,-0.519797,0.0520423,-2.41185
1470243548505433,-0.519923,0.0520852,-2.41188
1470243548523449,-0.51993,0.0521157,-2.4118
1470243548545969,-0.519884,0.0522257,-2.41182
1470243548565487,-0.519884,0.0522257,-2.41182
1470243548583505,-0.519884,0.0522257,-2.41182
1470243548605023,-0.52001,0.0522686,-2.41186
1470243548626043,-0.52001,0.0522686,-2.41186
1470243548642557,-0.519964,0.0523786,-2.41188
1470243548665076,-0.519964,0.0523786,-2.41188
1470243548686096,-0.519964,0.0523786,-2.41188
1470243548702610,-0.519919,0.0524887,-2.4119
1470243548725132,-0.519919,0.0524887,-2.4119
1470243548746162,-0.520045,0.0525316,-2.41194
1470243548762685,-0.520144,0.0525828,-2.41186
1470243548785184,-0.520144,0.0525828,-2.41186
1470243548806204,-0.520144,0.0525828,-2.41186
1470243548822718,-0.52027,0.0526257,-2.41189
1470243548845259,-0.520224,0.0527357,-2.41191
1470243548866257,-0.520224,0.0527357,-2.41191
1470243548890279,-0.520231,0.0527662,-2.41183
1470243548905292,-0.520357,0.0528091,-2.41187
1470243548927824,-0.520312,0.0529191,-2.41189
1470243548942838,-0.520312,0.0529191,-2.41189
1470243548965374,-0.520411,0.0529703,-2.41181
1470243548987880,-0.520411,0.0529703,-2.41181
1470243549002891,-0.520537,0.0530132,-2.41184
1470243549025412,-0.520537,0.0530132,-2.41184
1470243549047933,-0.520491,0.0531233,-2.41187
1470243549062946,-0.520617,0.0531662,-2.4119
1470243549084996,-0.520617,0.0531662,-2.4119
1470243549107987,-0.520743,0.0532091,-2.41193
1470243549122000,-0.520743,0.0532091,-2.41193
1470243549145020,-0.520842,0.0532603,-2.41185
1470243549167547,-0.520842,0.0532603,-2.41185
1470243549182053,-0.520923,0.0534132,-2.41191
1470243549205074,-0.520923,0.0534132,-2.41191
1470243549227594,-0.520923,0.0534132,-2.41191
1470243549242106,-0.521048,0.0534561,-2.41195
1470243549265128,-0.521048,0.0534561,-2.41195
1470243549287648,-0.521174,0.0534991,-2.41198
1470243549302162,-0.521174,0.0534991,-2.41198
1470243549325182,-0.521148,0.0535073,-2.41187
1470243549347702,-0.521228,0.0536603,-2.41192
1470243549362215,-0.521228,0.0536603,-2.41192
1470243549385235,-0.521354,0.0537032,-2.41196
1470243549407756,-0.521354,0.0537032,-2.41196
1470243549428775,-0.521354,0.0537032,-2.41196
1470243549445290,-0.52148,0.0537461,-2.41199
1470243549467810,-0.52148,0.0537461,-2.41199
1470243549496335,-0.52148,0.0537461,-2.41199
1470243549505344,-0.52148,0.0537461,-2.41199
1470243549527864,-0.521606,0.053789,-2.41203
1470243549548882,-0.521579,0.0537973,-2.41191
1470243549565397,-0.521579,0.0537973,-2.41191
1470243549587417,-0.521705,0.0538402,-2.41195
1470243549608935,-0.521705,0.0538402,-2.41195
1470243549625451,-0.521705,0.0538402,-2.41195
1470243549647471,-0.521831,0.0538831,-2.41198
1470243549668490,-0.521831,0.0538831,-2.41198
1470243549685005,-0.521957,0.053926,-2.41202
1470243549707524,-0.521957,0.053926,-2.41202
1470243549728544,-0.521957,0.053926,-2.41202
1470243549745059,-0.522056,0.0539772,-2.41194
1470243549767579,-0.522056,0.0539772,-2.41194
1470243549788598,-0.522182,0.0540201,-2.41197
1470243549804615,-0.522182,0.0540201,-2.41197
1470243549827633,-0.522308,0.0540631,-2.41201
1470243549848652,-0.522353,0.0539531,-2.41198
1470243549865166,-0.522434,0.054106,-2.41204
1470243549887693,-0.522434,0.054106,-2.41204
1470243549917714,-0.522434,0.054106,-2.41204
1470243549925221,-0.522407,0.0541143,-2.41193
1470243549947740,-0.522533,0.0541572,-2.41196
1470243549970262,-0.522487,0.0542672,-2.41198
1470243549985274,-0.522659,0.0542001,-2.412
1470243550007795,-0.522659,0.0542001,-2.412
1470243550030323,-0.522785,0.054243,-2.41203
1470243550044328,-0.522954,0.05482,-2.41211
1470243550067849,-0.52308,0.0548629,-2.41215
1470243550090410,-0.52308,0.0548629,-2.41215
1470243550104387,-0.523206,0.0549058,-2.41218
1470243550127902,-0.523179,0.054914,-2.41207
1470243550150422,-0.523267,0.0550976,-2.41204
1470243550164435,-0.523267,0.0550976,-2.41204
1470243550187956,-0.523393,0.0551406,-2.41208
1470243550209976,-0.523519,0.0551835,-2.41211
1470243550224489,-0.523519,0.0551835,-2.41211
1470243550247510,-0.523618,0.0552346,-2.41203
1470243550270032,-0.523744,0.0552776,-2.41207
1470243550284543,-0.523699,0.0553875,-2.41209
1470243550307588,-0.523825,0.0554305,-2.41212
1470243550330086,-0.523951,0.0554734,-2.41216
1470243550344601,-0.523924,0.0554816,-2.41204
1470243550367618,-0.52405,0.0555246,-2.41208
1470243550390138,-0.524005,0.0556345,-2.4121
1470243550411190,-0.524131,0.0556774,-2.41214
1470243550427687,-0.524257,0.0557204,-2.41217
1470243550450194,-0.524257,0.0557204,-2.41217
1470243550471225,-0.524356,0.0557715,-2.41209
1470243550487727,-0.524436,0.0559244,-2.41215
1470243550510246,-0.524436,0.0559244,-2.41215
1470243550531307,-0.524562,0.0559673,-2.41218
1470243550547782,-0.524517,0.0560773,-2.41221
1470243550570305,-0.524643,0.0561202,-2.41224
1470243550591320,-0.524616,0.0561284,-2.41213
1470243550607834,-0.524697,0.0562813,-2.41219
1470243550630354,-0.524704,0.0563121,-2.4121
1470243550651372,-0.52483,0.0563551,-2.41214
1470243550667887,-0.52483,0.0563551,-2.41214
1470243550690407,-0.524911,0.056508,-2.4122
1470243550711427,-0.524911,0.056508,-2.4122
1470243550727941,-0.52501,0.0565591,-2.41212
1470243550749985,-0.525091,0.056712,-2.41217
1470243550771480,-0.525091,0.056712,-2.41217
1470243550787494,-0.525217,0.0567549,-2.41221
1470243550810052,-0.525343,0.0567979,-2.41224
1470243550833036,-0.52523,0.0574604,-2.41212
1470243550847549,-0.524936,0.0579189,-2.41201
1470243550870069,-0.524248,0.0585904,-2.41198
1470243550895093,-0.522621,0.0611527,-2.41218
1470243550907602,-0.522483,0.0651173,-2.41034
1470243550930124,-0.524001,0.066686,-2.40926
1470243550952644,-0.524413,0.067147,-2.40867
1470243550967658,-0.5244,0.0672167,-2.40839
1470243550997683,-0.524481,0.0673699,-2.40845
1470243551012698,-0.524487,0.0674009,-2.40837
1470243551027211,-0.525252,0.0670926,-2.40858
1470243551050230,-0.525379,0.0671359,-2.40862
1470243551072751,-0.525424,0.0670261,-2.4086
1470243551087263,-0.525505,0.0671792,-2.40866
1470243551110285,-0.525505,0.0671792,-2.40866
1470243551132805,-0.525631,0.0672226,-2.40869
1470243551147318,-0.525631,0.0672226,-2.40869
1470243551170339,-0.525604,0.0672302,-2.40858
1470243551192859,-0.52573,0.0672735,-2.40861
1470243551206871,-0.52573,0.0672735,-2.40861
1470243551230392,-0.525856,0.0673168,-2.40865
1470243551252913,-0.525433,0.0672968,-2.40856
1470243551266925,-0.525139,0.0671114,-2.40839
1470243551289973,-0.52542,0.066723,-2.40821
1470243551312968,-0.525501,0.0668762,-2.40827
1470243551334052,-0.525226,0.0665886,-2.40796
1470243551350000,-0.524838,0.0661878,-2.40788
1470243551372522,-0.525157,0.0656586,-2.40777
1470243551394039,-0.525278,0.0650273,-2.40781
1470243551410053,-0.525721,0.0641698,-2.40813
1470243551432606,-0.525708,0.0634641,-2.40822
1470243551454137,-0.525605,0.0629782,-2.40836
1470243551470142,-0.525605,0.0629782,-2.40836
1470243551492628,-0.525605,0.0629782,-2.40836
1470243551513661,-0.526041,0.0628651,-2.40839
1470243551530162,-0.526044,0.0624614,-2.40836
1470243551552732,-0.525492,0.0621584,-2.4082
1470243551573729,-0.525447,0.0622682,-2.40822
1470243551590215,-0.526232,0.062053,-2.40819
1470243551612736,-0.526359,0.0620962,-2.40823
1470243551633785,-0.526245,0.0627587,-2.4081
1470243551650269,-0.526245,0.0627587,-2.4081
1470243551672800,-0.52605,0.063268,-2.40791
1470243551693842,-0.526176,0.0633112,-2.40795
1470243551710324,-0.526176,0.0633112,-2.40795
1470243551732862,-0.526302,0.0633545,-2.40798
1470243551753884,-0.526302,0.0633545,-2.40798
1470243551770378,-0.526302,0.0633545,-2.40798
1470243551792897,-0.52607,0.063229,-2.40811
1470243551814917,-0.526196,0.0632723,-2.40814
1470243551830430,-0.526196,0.0632723,-2.40814
1470243551852455,-0.526196,0.0632723,-2.40814
1470243551874975,-0.526196,0.0632723,-2.40814
1470243551896561,-0.52607,0.063229,-2.40811
1470243551912505,-0.525718,0.0630913,-2.40812
1470243551935025,-0.525818,0.0631425,-2.40804
1470243551949538,-0.525818,0.0631425,-2.40804
1470243551972558,-0.525818,0.0631425,-2.40804
1470243551995081,-0.525818,0.0631425,-2.40804
1470243552009594,-0.525944,0.0631858,-2.40807
1470243552032632,-0.526412,0.0638716,-2.40776
1470243552055155,-0.526385,0.0638795,-2.40765
1470243552069646,-0.526759,0.0643502,-2.40745
1470243552092667,-0.527399,0.0648376,-2.40759
1470243552115186,-0.527867,0.0653915,-2.40773
1470243552129700,-0.527911,0.0659252,-2.40778
1470243552152724,-0.52785,0.066509,-2.40754
1470243552175240,-0.528192,0.0671522,-2.4072
1470243552196275,-0.528915,0.0681652,-2.40702
1470243552212776,-0.529993,0.0689123,-2.4068
1470243552235296,-0.530734,0.0694511,-2.40688
1470243552249814,-0.531144,0.0701854,-2.40676
1470243552272828,-0.531771,0.0707438,-2.40663
1470243552295349,-0.532864,0.0715546,-2.40626
1470243552316367,-0.534025,0.0724558,-2.40611
1470243552333382,-0.534989,0.0736282,-2.40573
1470243552355404,-0.536487,0.0751438,-2.40533
1470243552376429,-0.538635,0.0767136,-2.40465
1470243552392937,-0.541906,0.0787178,-2.40412
1470243552414976,-0.546314,0.0808245,-2.4038
1470243552436567,-0.55103,0.0828829,-2.40313
1470243552452991,-0.556103,0.0852522,-2.40246
1470243552475011,-0.562081,0.0873002,-2.40174
1470243552496621,-0.567948,0.0885604,-2.40127
1470243552513043,-0.572718,0.0894053,-2.40119
1470243552535064,-0.575705,0.0901599,-2.40125
1470243552556122,-0.577718,0.0903129,-2.40116
1470243552572602,-0.578797,0.0903609,-2.40107
1470243552595118,-0.579593,0.090153,-2.40106
1470243552616637,-0.579297,0.089423,-2.40126
1470243552632655,-0.57768,0.0884809,-2.40175
1470243552655173,-0.574492,0.0868957,-2.40276
1470243552676248,-0.568819,0.0846373,-2.40412
1470243552698767,-0.560435,0.0814992,-2.40525
1470243552715227,-0.550961,0.0774277,-2.40638
1470243552737766,-0.542185,0.0731159,-2.40702
1470243552752258,-0.536183,0.0693903,-2.40752
1470243552775280,-0.533723,0.0664359,-2.40785
1470243552797801,-0.533294,0.0636156,-2.40765
1470243552812312,-0.533433,0.0611611,-2.40747
1470243552835333,-0.533354,0.0595261,-2.40737
1470243552857854,-0.533608,0.0588356,-2.40781
1470243552871866,-0.533584,0.0583684,-2.40844
1470243552895387,-0.533792,0.0580271,-2.40896
1470243552917907,-0.533792,0.0580271,-2.40896
1470243552931920,-0.533792,0.0580271,-2.40896
1470243552954941,-0.533248,0.0577561,-2.40871
1470243552977461,-0.532538,0.0575828,-2.40836
1470243552991975,-0.532233,0.0574067,-2.40757
1470243553015494,-0.532062,0.0573049,-2.40674
1470243553037515,-0.53191,0.0571634,-2.4061
1470243553052028,-0.531492,0.0568728,-2.40555
1470243553075049,-0.531082,0.056675,-2.40525
1470243553097569,-0.531055,0.0566834,-2.40514
1470243553112083,-0.531069,0.0564439,-2.40459
1470243553135102,-0.53119,0.0562874,-2.40389
1470243553158125,-0.531531,0.0566297,-2.40316
1470243553172136,-0.532302,0.0568296,-2.40254
1470243553195157,-0.533038,0.0570685,-2.40223
1470243553217677,-0.533038,0.0570685,-2.40223
1470243553238696,-0.533735,0.0573763,-2.40263
1470243553255210,-0.534126,0.0576754,-2.40306
1470243553277731,-0.534313,0.0582127,-2.40334
1470243553299263,-0.534435,0.0588994,-2.40345
1470243553315264,-0.534704,0.0595898,-2.40379
1470243553337784,-0.534838,0.0599042,-2.40379
1470243553358805,-0.534799,0.0600452,-2.40374
1470243553375334,-0.534799,0.0600452,-2.40374
1470243553397838,-0.534925,0.0600886,-2.40377
1470243553418899,-0.535246,0.0603997,-2.40363
1470243553435384,-0.535338,0.06042,-2.40363
1470243553457894,-0.535384,0.0603104,-2.4036
1470243553478940,-0.535384,0.0603104,-2.4036
1470243553494927,-0.535384,0.0603104,-2.4036
1470243553517448,-0.535338,0.06042,-2.40363
1470243553538965,-0.535338,0.06042,-2.40363
1470243553555481,-0.535338,0.06042,-2.40363
1470243553577503,-0.535338,0.06042,-2.40363
1470243553599042,-0.535338,0.06042,-2.40363
1470243553615533,-0.53551,0.0603539,-2.40364
1470243553637556,-0.53551,0.0603539,-2.40364
1470243553659072,-0.53551,0.0603539,-2.40364
1470243553675087,-0.53551,0.0603539,-2.40364
1470243553697629,-0.53551,0.0603539,-2.40364
1470243553720128,-0.53551,0.0603539,-2.40364
1470243553735141,-0.535207,0.0607803,-2.40362
1470243553757661,-0.534833,0.0613861,-2.40384
1470243553780182,-0.534815,0.061727,-2.40402
1470243553795196,-0.534815,0.061727,-2.40402
1470243553817715,-0.534815,0.061727,-2.40402
1470243553840236,-0.534815,0.061727,-2.40402
1470243553845740,-0.53465,0.0618246,-2.40393
1470243553862255,-0.53465,0.0618246,-2.40393
1470243553883277,-0.53465,0.0618246,-2.40393
1470243553905794,-0.53465,0.0618246,-2.40393
1470243553923811,-0.53465,0.0618246,-2.40393
1470243553943328,-0.534776,0.061868,-2.40396
1470243553965869,-0.534815,0.061727,-2.40402
1470243553981863,-0.534815,0.061727,-2.40402
1470243554003423,-0.534776,0.061868,-2.40396
1470243554025902,-0.534776,0.061868,-2.40396
1470243554041919,-0.534798,0.0622018,-2.40377
1470243554063441,-0.534591,0.0628442,-2.40364
1470243554086019,-0.534507,0.0633343,-2.40366
1470243554101983,-0.534795,0.063684,-2.40381
1470243554130997,-0.535094,0.0639007,-2.40391
1470243554145523,-0.535474,0.0642704,-2.40407
1470243554162024,-0.535474,0.0642704,-2.40407
1470243554183076,-0.535474,0.0642704,-2.40407
1470243554205597,-0.535823,0.0648127,-2.40409
1470243554222079,-0.535886,0.0653065,-2.40434
1470243554243181,-0.536309,0.0659703,-2.4045
1470243554274162,-0.536652,0.066481,-2.4046
1470243554282132,-0.536652,0.066481,-2.4046
1470243554303661,-0.536652,0.066481,-2.4046
1470243554328745,-0.536652,0.066481,-2.4046
1470243554342187,-0.536652,0.066481,-2.4046
1470243554363207,-0.536652,0.066481,-2.4046
1470243554385757,-0.536972,0.0667924,-2.40445
1470243554402240,-0.537068,0.0672478,-2.4044
1470243554423289,-0.537457,0.067649,-2.40448
1470243554445807,-0.537629,0.0675829,-2.40449
1470243554462302,-0.537629,0.0675829,-2.40449
1470243554483357,-0.537629,0.0675829,-2.40449
1470243554505934,-0.537583,0.0676925,-2.40452
1470243554522378,-0.537556,0.0677004,-2.4044
1470243554543388,-0.537556,0.0677004,-2.4044
1470243554565887,-0.537556,0.0677004,-2.4044
1470243554581901,-0.537556,0.0677004,-2.4044
1470243554610937,-0.537556,0.0677004,-2.4044
1470243554625940,-0.537682,0.0677439,-2.40444
1470243554643470,-0.537682,0.0677439,-2.40444
1470243554663488,-0.537682,0.0677439,-2.40444
1470243554686130,-0.537809,0.0677875,-2.40448
1470243554704013,-0.537809,0.0677875,-2.40448
1470243554723632,-0.537905,0.0682429,-2.40442
1470243554746056,-0.537977,0.0687682,-2.40459
1470243554763564,-0.538087,0.0691521,-2.40482
1470243554783084,-0.538132,0.0690426,-2.40479
1470243554805602,-0.538087,0.0691521,-2.40482
1470243554823650,-0.538087,0.0691521,-2.40482
1470243554843150,-0.538139,0.0690744,-2.40471
1470243554866158,-0.537692,0.0688543,-2.40438
1470243554883706,-0.537033,0.0688414,-2.40397
1470243554903217,-0.536635,0.0689472,-2.40356
1470243554925755,-0.536316,0.0691438,-2.40288
1470243554943776,-0.536316,0.0692784,-2.40244
1470243554963271,-0.536316,0.0692784,-2.40244
1470243554985781,-0.536415,0.06933,-2.40236
1470243555003784,-0.536415,0.06933,-2.40236
1470243555023333,-0.536063,0.0691912,-2.40236
1470243555045853,-0.535616,0.0696755,-2.40244
1470243555063937,-0.535381,0.0703261,-2.4022
1470243555083352,-0.535312,0.0708792,-2.40205
1470243555105907,-0.535482,0.0714563,-2.40214
1470243555123388,-0.535757,0.071743,-2.40246
1470243555143406,-0.535757,0.071743,-2.40246
1470243555165925,-0.535757,0.071743,-2.40246
1470243555183490,-0.535757,0.071743,-2.40246
1470243555205963,-0.535884,0.0717867,-2.4025
1470243555225979,-0.535884,0.0717867,-2.4025
1470243555243998,-0.535884,0.0717867,-2.4025
1470243555264515,-0.535884,0.0717867,-2.4025
1470243555285568,-0.535752,0.0710684,-2.40247
1470243555303601,-0.535501,0.0703381,-2.40232
1470243555324568,-0.535395,0.0695497,-2.40207
1470243555345620,-0.534972,0.0690196,-2.40147
1470243555363633,-0.534623,0.0686109,-2.40101
1470243555384628,-0.534131,0.0684991,-2.4007
1470243555406153,-0.533872,0.0685141,-2.40027
1470243555423702,-0.533607,0.0685598,-2.40025
1470243555444686,-0.533653,0.0684502,-2.40023
1470243555465710,-0.533779,0.068494,-2.40026
1470243555483776,-0.533981,0.0678202,-2.40047
1470243555504751,-0.533981,0.0678202,-2.40047
1470243555525751,-0.533935,0.0679297,-2.4005
1470243555543765,-0.533935,0.0679297,-2.4005
1470243555564804,-0.533805,0.0682899,-2.40048
1470243555585858,-0.534153,0.0688329,-2.4005
1470243555603819,-0.534353,0.0689984,-2.40068
1470243555625839,-0.534353,0.0689984,-2.40068
1470243555645860,-0.534849,0.0687062,-2.40096
1470243555663372,-0.535067,0.0683965,-2.40139
1470243555685893,-0.535067,0.0683965,-2.40139
1470243555705910,-0.535021,0.0685061,-2.40142
1470243555723485,-0.535021,0.0685061,-2.40142
1470243555750951,-0.535021,0.0685061,-2.40142
1470243555765964,-0.535021,0.0685061,-2.40142
1470243555790987,-0.535067,0.0683965,-2.40139
1470243555806002,-0.535232,0.0682991,-2.40149
1470243555826018,-0.53552,0.0675706,-2.40163
1470243555843535,-0.535509,0.0668644,-2.40171
1470243555866074,-0.535491,0.0662609,-2.40144
1470243555885572,-0.53519,0.065982,-2.40101
1470243555903601,-0.534878,0.065836,-2.40063
1470243555926611,-0.534639,0.0658117,-2.4004
1470243555946134,-0.534639,0.0658117,-2.4004
1470243555963700,-0.534857,0.0656363,-2.40039
1470243555986208,-0.535118,0.0649161,-2.40041
1470243556005722,-0.53551,0.0638358,-2.40044
1470243556023768,-0.53544,0.0629367,-2.40067
1470243556046243,-0.535272,0.0623594,-2.40058
1470243556065761,-0.534713,0.0620234,-2.40049
1470243556083751,-0.534242,0.061872,-2.40038
1470243556106270,-0.534242,0.061872,-2.40038
1470243556125790,-0.534408,0.0617747,-2.40048
1470243556143872,-0.534381,0.061783,-2.40036
1470243556166324,-0.534553,0.0617171,-2.40037
1470243556186850,-0.534895,0.0611502,-2.40046
1470243556203871,-0.534859,0.0605139,-2.40076
1470243556226399,-0.534447,0.0601819,-2.40091
1470243556247396,-0.533797,0.0600652,-2.40087
1470243556263988,-0.533154,0.0599798,-2.40074
1470243556286432,-0.532817,0.060143,-2.40064
1470243556306951,-0.532989,0.060077,-2.40065
1470243556323466,-0.532989,0.060077,-2.40065
1470243556345987,-0.533028,0.0599362,-2.40071
1470243556366560,-0.533289,0.0592162,-2.40073
1470243556383018,-0.533142,0.0585991,-2.40084
1470243556405538,-0.53273,0.0582057,-2.40065
1470243556426558,-0.532221,0.058195,-2.40049
1470243556442573,-0.532221,0.058195,-2.40049
1470243556465100,-0.532063,0.0583233,-2.40031
1470243556486611,-0.532063,0.0583233,-2.40031
1470243556502625,-0.532082,0.0582222,-2.40017
1470243556525648,-0.532128,0.0581126,-2.40015
1470243556547667,-0.532385,0.0577963,-2.4002
1470243556562680,-0.532385,0.0577963,-2.4002
1470243556585200,-0.532393,0.0578275,-2.40012
1470243556607720,-0.532393,0.0578275,-2.40012
1470243556622736,-0.532519,0.0578711,-2.40015
1470243556645256,-0.532512,0.0578399,-2.40023
1470243556667774,-0.532558,0.0577303,-2.40021
1470243556682287,-0.533205,0.0574124,-2.40031
1470243556705353,-0.533746,0.0570111,-2.40057
1470243556727846,-0.533725,0.0566773,-2.40076
1470243556742341,-0.533725,0.0566773,-2.40076
1470243556765362,-0.533686,0.0568182,-2.4007
1470243556787884,-0.533443,0.057437,-2.40054
1470243556802405,-0.533399,0.0579814,-2.40051
1470243556825416,-0.533592,0.058489,-2.40037
1470243556847956,-0.534158,0.0588562,-2.40038
1470243556861948,-0.535012,0.0587348,-2.40057
1470243556885486,-0.535334,0.0585087,-2.40084
1470243556907989,-0.535213,0.0583625,-2.40116
1470243556922037,-0.53524,0.0583541,-2.40128
1470243556945524,-0.534447,0.0586687,-2.40095
1470243556968044,-0.534092,0.0593066,-2.40059
1470243556982109,-0.534188,0.059896,-2.4001
1470243557005077,-0.534481,0.0602159,-2.39983
1470243557027602,-0.534932,0.0601676,-2.3997
1470243557049116,-0.534932,0.0601676,-2.3997
1470243557065131,-0.535202,0.05978,-2.40002
1470243557087691,-0.535246,0.0595365,-2.40044
1470243557109171,-0.535254,0.0595679,-2.40036
1470243557125186,-0.535208,0.0596774,-2.40038
1470243557147731,-0.53513,0.0601989,-2.40031
1470243557168803,-0.535351,0.0606981,-2.4003
1470243557185254,-0.535909,0.0610341,-2.40039
1470243557207761,-0.536624,0.0609404,-2.40027
1470243557228811,-0.537652,0.060753,-2.40047
1470243557245292,-0.53814,0.060429,-2.40084
1470243557267812,-0.53816,0.060389,-2.40103
1470243557288885,-0.53816,0.060389,-2.40103
1470243557305347,-0.537565,0.0608689,-2.40088
1470243557327903,-0.537269,0.0613265,-2.40077
1470243557348938,-0.537237,0.0617385,-2.40068
1470243557365415,-0.53741,0.0616726,-2.4007
1470243557387921,-0.538065,0.0613858,-2.40071
1470243557408940,-0.538646,0.0608426,-2.40103
1470243557425456,-0.53867,0.060399,-2.4012
1470243557447974,-0.538384,0.0601103,-2.40138
1470243557469035,-0.537747,0.0602962,-2.40122
1470243557485508,-0.537095,0.0610184,-2.40115
1470243557508028,-0.536733,0.0616254,-2.40087
1470243557530555,-0.536708,0.0620689,-2.4007
1470243557545067,-0.536486,0.062648,-2.40074
1470243557567606,-0.536825,0.0628586,-2.40045
1470243557590112,-0.536951,0.0629022,-2.40049
1470243557605118,-0.536786,0.0629996,-2.4004
1470243557627639,-0.53674,0.0631091,-2.40042
1470243557650156,-0.535359,0.0639962,-2.40019
1470243557664684,-0.534571,0.0654202,-2.39979
1470243557687698,-0.53501,0.0671964,-2.39939
1470243557710211,-0.535627,0.0688769,-2.3986
1470243557724723,-0.535883,0.0697738,-2.39823
1470243557747743,-0.534021,0.0699065,-2.39845
1470243557770269,-0.533,0.0697509,-2.39855
1470243557784780,-0.532936,0.0693282,-2.39753
1470243557807798,-0.532204,0.0690224,-2.39616
1470243557830318,-0.530819,0.0693026,-2.39517
1470243557844832,-0.528966,0.0701032,-2.39405
1470243557867851,-0.527974,0.071055,-2.39309
1470243557890372,-0.527749,0.0713312,-2.39274
1470243557904885,-0.527795,0.0712217,-2.39272
1470243557927919,-0.528402,0.0703719,-2.39277
1470243557950426,-0.527918,0.0697836,-2.39321
1470243557971521,-0.528089,0.0692832,-2.39328
1470243557987959,-0.52887,0.0690429,-2.39334
1470243558010482,-0.52936,0.0692276,-2.39287
1470243558031999,-0.528812,0.0700304,-2.39264
1470243558048013,-0.528165,0.0710208,-2.39253
1470243558070534,-0.52859,0.0712837,-2.39266
1470243558099064,-0.528762,0.0712185,-2.39268
1470243558108068,-0.528953,0.070679,-2.39294
1470243558130588,-0.528899,0.0700824,-2.39305
1470243558151608,-0.529037,0.069754,-2.39298
1470243558167638,-0.528865,0.0698193,-2.39297
1470243558190141,-0.528375,0.0703797,-2.39265
1470243558211665,-0.528106,0.0708281,-2.39267
1470243558227676,-0.527881,0.0709715,-2.39275
1470243558250195,-0.528199,0.0707788,-2.39344
1470243558271714,-0.528588,0.0699707,-2.39394
1470243558287728,-0.529056,0.0690765,-2.39445
1470243558310249,-0.529332,0.0682866,-2.39475
1470243558331769,-0.529358,0.0678436,-2.39492
1470243558347783,-0.529358,0.0678436,-2.39492
1470243558370305,-0.529438,0.0679972,-2.39498
1470243558391823,-0.529332,0.0681537,-2.39519
1470243558407836,-0.529332,0.0681537,-2.39519
1470243558430358,-0.529913,0.0673735,-2.39546
1470243558452911,-0.530796,0.0661058,-2.39541
1470243558467923,-0.531779,0.0646505,-2.39525
1470243558490444,-0.532163,0.0640772,-2.39495
1470243558512965,-0.531971,0.0639424,-2.39469
1470243558526978,-0.531514,0.0640919,-2.39447
1470243558550497,-0.531012,0.0643507,-2.39427
1470243558573017,-0.530529,0.0645701,-2.39426
1470243558587066,-0.530568,0.0644294,-2.39432
1470243558610551,-0.530568,0.0644294,-2.39432
1470243558632572,-0.530726,0.0637598,-2.39407
1470243558647087,-0.530952,0.0635544,-2.39364
1470243558670637,-0.531145,0.0635209,-2.39308
1470243558693126,-0.530848,0.0636753,-2.39259
1470243558707139,-0.530518,0.0635666,-2.39202
1470243558730660,-0.531566,0.0631143,-2.39127
1470243558752679,-0.533735,0.0622618,-2.39068
1470243558767192,-0.53564,0.0612596,-2.39018
1470243558790213,-0.535805,0.061163,-2.39027
1470243558812733,-0.535852,0.0610538,-2.39025
1470243558827246,-0.535939,0.0605639,-2.39024
1470243558850267,-0.535893,0.0606732,-2.39026
1470243558872795,-0.535846,0.0607825,-2.39028
1470243558894312,-0.535328,0.0614127,-2.39019
1470243558910321,-0.535128,0.0622221,-2.39038
1470243558932842,-0.535087,0.0626637,-2.39071
1470243558953861,-0.534841,0.0629077,-2.39094
1470243558970374,-0.535264,0.0627356,-2.39113
1470243558992895,-0.536118,0.062244,-2.39171
1470243559013914,-0.536296,0.0620759,-2.39208
1470243559030434,-0.535978,0.0621979,-2.39217
1470243559052949,-0.535016,0.0624717,-2.39218
1470243559073977,-0.534247,0.0630755,-2.39235
1470243559090482,-0.533909,0.0635385,-2.39262
1470243559113003,-0.533458,0.0635854,-2.39276
1470243559134022,-0.533504,0.063476,-2.39273
1470243559158060,-0.53363,0.0635201,-2.39277
1470243559172575,-0.533782,0.0631208,-2.39298
1470243559194110,-0.533019,0.0628865,-2.39318
1470243559210590,-0.531859,0.0630563,-2.39335
1470243559232631,-0.530356,0.0633571,-2.39349
1470243559254174,-0.528854,0.0640929,-2.39358
1470243559270645,-0.527922,0.0647322,-2.39332
1470243559292664,-0.52789,0.0652764,-2.39279
1470243559314226,-0.52803,0.0657553,-2.39228
1470243559330198,-0.529486,0.0651298,-2.39221
1470243559352720,-0.530597,0.0646967,-2.39245
1470243559375238,-0.53057,0.0643319,-2.39273
1470243559390254,-0.530226,0.0642226,-2.39265
1470243559412802,-0.529756,0.0640691,-2.39254
1470243559435296,-0.529756,0.0640691,-2.39254
1470243559450305,-0.529756,0.0640691,-2.39254
1470243559472826,-0.529756,0.0640691,-2.39254
1470243559495347,-0.529802,0.0639597,-2.39252
1470243559510360,-0.530384,0.0631183,-2.39246
1470243559532880,-0.530675,0.0623911,-2.3926
1470243559555401,-0.531046,0.0617557,-2.39246
1470243559569913,-0.531013,0.0614928,-2.39238
1470243559592934,-0.530894,0.0614799,-2.39226
1470243559615454,-0.530974,0.0616334,-2.39232
1470243559629466,-0.53102,0.061524,-2.3923
1470243559652987,-0.531059,0.0613834,-2.39235
1470243559675509,-0.531232,0.0613181,-2.39237
1470243559689521,-0.531662,0.0605027,-2.39248
1470243559713041,-0.532059,0.0598591,-2.39246
1470243559735565,-0.532226,0.0594611,-2.39217
1470243559749575,-0.532043,0.0593572,-2.39184
1470243559772595,-0.531965,0.0595771,-2.39139
1470243559795615,-0.532137,0.0595119,-2.3914
1470243559809628,-0.532441,0.059762,-2.39142
1470243559832649,-0.533177,0.0596316,-2.39149
1470243559855169,-0.53409,0.0593335,-2.39194
1470243559876688,-0.534751,0.058947,-2.39231
1470243559892704,-0.535035,0.058863,-2.39252
1470243559915235,-0.535035,0.058863,-2.39252
1470243559936292,-0.534988,0.0589724,-2.39255
1470243559952775,-0.534636,0.0595065,-2.39254
1470243559975294,-0.534411,0.0600847,-2.39258
1470243559996851,-0.534516,0.0604695,-2.3928
1470243560012828,-0.534874,0.0606415,-2.39271
1470243560034851,-0.535571,0.0606514,-2.39273
1470243560056369,-0.535591,0.0605505,-2.39259
1470243560080443,-0.535544,0.0606599,-2.39262
1470243560095401,-0.535544,0.0606599,-2.39262
1470243560116476,-0.535544,0.0606599,-2.39262
1470243560132936,-0.535319,0.0612381,-2.39265
1470243560155459,-0.535266,0.061751,-2.3927
1470243560176479,-0.535465,0.061917,-2.39288
1470243560192990,-0.535511,0.0618076,-2.39285
1470243560215510,-0.535511,0.0618076,-2.39285
1470243560236528,-0.535863,0.0616475,-2.39246
1470243560253048,-0.536137,0.061769,-2.39196
1470243560275563,-0.536318,0.0621094,-2.3915
1470243560297632,-0.536318,0.0621094,-2.3915
1470243560313100,-0.536596,0.0624288,-2.39174
1470243560335617,-0.536933,0.0625066,-2.39189
1470243560358137,-0.537622,0.062111,-2.39239
1470243560373150,-0.53809,0.0614546,-2.39294
1470243560395676,-0.53858,0.0608928,-2.39326
1470243560418191,-0.538586,0.0604893,-2.39323
1470243560432709,-0.53854,0.0605986,-2.39325
1470243560455233,-0.538203,0.0611959,-2.39309
1470243560477747,-0.537865,0.0620328,-2.39298
1470243560492259,-0.537792,0.0628862,-2.39321
1470243560515278,-0.538151,0.0633587,-2.39351
1470243560537799,-0.538547,0.0632549,-2.39392
1470243560552339,-0.538619,0.0630022,-2.39445
1470243560575334,-0.538598,0.0626678,-2.39464
1470243560597853,-0.538598,0.0626678,-2.39464
1470243560612365,-0.537883,0.0631336,-2.39437
1470243560635386,-0.537128,0.0637401,-2.39404
1470243560657906,-0.536957,0.0642407,-2.39397
1470243560671919,-0.537017,0.064434,-2.39384
1470243560695442,-0.537056,0.064293,-2.39389
1470243560717961,-0.537229,0.0642277,-2.39391
1470243560732003,-0.537229,0.0642277,-2.39391
1470243560755495,-0.537361,0.0638681,-2.39392
1470243560778016,-0.537314,0.0639774,-2.39394
1470243560799033,-0.536738,0.0644154,-2.39398
1470243560815591,-0.53595,0.0650597,-2.39395
1470243560837568,-0.53568,0.0657475,-2.39401
1470243560859087,-0.535654,0.066191,-2.39384
1470243560875606,-0.536006,0.0663313,-2.39383
1470243560897622,-0.536178,0.066266,-2.39385
1470243560919143,-0.536701,0.0659058,-2.39391
1470243560935684,-0.536734,0.0654938,-2.394
1470243560958202,-0.536336,0.0654628,-2.39403
1470243560979196,-0.535501,0.0659156,-2.39364
1470243560995211,-0.534966,0.066347,-2.3933
1470243561017751,-0.534807,0.0667148,-2.39317
1470243561039348,-0.535265,0.0666996,-2.39296
1470243561062770,-0.535311,0.0665902,-2.39294
1470243561077784,-0.535934,0.0660431,-2.39287
1470243561098803,-0.53619,0.0652923,-2.39298
1470243561115318,-0.536381,0.064752,-2.39324
1470243561137842,-0.536004,0.0646811,-2.39347
1470243561158859,-0.535474,0.0650096,-2.39348
1470243561175371,-0.535528,0.0656065,-2.39337
1470243561197892,-0.535323,0.0660837,-2.39327
1470243561218910,-0.535589,0.0664744,-2.39323
1470243561235445,-0.535635,0.0663651,-2.39321
1470243561257947,-0.535801,0.0662683,-2.3933
1470243561280485,-0.536397,0.0657906,-2.39346
1470243561295479,-0.536429,0.0656181,-2.39359
1470243561318001,-0.536429,0.0656181,-2.39359
1470243561340521,-0.53584,0.0661274,-2.39336
1470243561354539,-0.535258,0.066668,-2.39304
1470243561378066,-0.535405,0.0670462,-2.39288
1470243561400574,-0.535518,0.0671616,-2.39264
1470243561415086,-0.535663,0.0671046,-2.39254
1470243561438106,-0.53571,0.0669952,-2.39252
1470243561460627,-0.53628,0.0665874,-2.39289
1470243561474659,-0.536397,0.0661646,-2.39307
1470243561497661,-0.536351,0.0662739,-2.39309
1470243561520181,-0.535702,0.0665898,-2.39299
1470243561534694,-0.535087,0.0671686,-2.39297
1470243561557717,-0.534763,0.0676331,-2.39275
1470243561580235,-0.534995,0.067761,-2.39263
1470243561586247,-0.535167,0.0676958,-2.39264
1470243561602254,-0.53534,0.0676306,-2.39266
1470243561623329,-0.535876,0.0671993,-2.393
1470243561646293,-0.535855,0.0668652,-2.39319
1470243561662330,-0.535305,0.0668597,-2.3934
1470243561683370,-0.53435,0.0671653,-2.39333
1470243561705863,-0.533536,0.067578,-2.39314
1470243561722362,-0.532821,0.0680427,-2.39287
1470243561743383,-0.532782,0.0681835,-2.39281
1470243561765902,-0.532954,0.0681183,-2.39282
1470243561782416,-0.533436,0.0672244,-2.39284
1470243561803524,-0.533329,0.0664042,-2.39267
1470243561825975,-0.532937,0.0657297,-2.39262
1470243561841970,-0.532096,0.0654752,-2.39232
1470243561863530,-0.531043,0.0654265,-2.39195
1470243561886009,-0.530057,0.0659035,-2.39175
1470243561902024,-0.529441,0.0660469,-2.39179
1470243561923542,-0.528997,0.0661251,-2.39184
1470243561946063,-0.52917,0.0660598,-2.39185
1470243561962080,-0.529216,0.0659504,-2.39183
1470243561983718,-0.529606,0.0652756,-2.39189
1470243562005669,-0.529612,0.064872,-2.39186
1470243562022131,-0.529142,0.0647183,-2.39175
1470243562043729,-0.528123,0.064932,-2.39147
1470243562066239,-0.528277,0.0653407,-2.39123
1470243562082209,-0.528277,0.0653407,-2.39123
1470243562103206,-0.528687,0.0653016,-2.39147
1470243562126226,-0.528726,0.0651611,-2.39153
1470243562142240,-0.528996,0.0643406,-2.39191
1470243562163284,-0.529406,0.0636266,-2.39217
1470243562185813,-0.529505,0.0630041,-2.3921
1470243562203824,-0.529399,0.0626187,-2.39188
1470243562223316,-0.528977,0.0627283,-2.39135
1470243562245858,-0.528793,0.0626238,-2.39102
1470243562263848,-0.528793,0.0626238,-2.39102
1470243562283418,-0.528939,0.0625669,-2.39092
1470243562305930,-0.52943,0.0617046,-2.39085
1470243562328461,-0.530133,0.0606367,-2.39086
1470243562343441,-0.530346,0.0596947,-2.3906
1470243562365978,-0.530095,0.0589316,-2.39054
1470243562383457,-0.529661,0.0587387,-2.39013
1470243562403483,-0.529326,0.0590328,-2.38959
1470243562425994,-0.529334,0.0594369,-2.38912
1470243562443510,-0.529527,0.0597053,-2.38893
1470243562463528,-0.529573,0.0595959,-2.38891
1470243562486048,-0.529746,0.0595308,-2.38893
1470243562503583,-0.529807,0.0586147,-2.38885
1470243562523114,-0.529997,0.0578756,-2.38838
1470243562546223,-0.53007,0.0571233,-2.38779
1470243562563617,-0.52975,0.0570448,-2.38715
1470243562583137,-0.529404,0.0574089,-2.38633
1470243562605658,-0.529003,0.0578512,-2.38561
1470243562623712,-0.529037,0.0582466,-2.38526
1470243562644696,-0.529226,0.0581826,-2.38477
1470243562665737,-0.5298,0.0578489,-2.38438
1470243562689731,-0.530221,0.0571062,-2.38422
1470243562703745,-0.530206,0.056471,-2.38403
1470243562725764,-0.530296,0.0559808,-2.38402
1470243562743779,-0.529981,0.0558001,-2.38373
1470243562763330,-0.529407,0.0559335,-2.3834
1470243562785865,-0.528892,0.0562601,-2.38292
1470243562803835,-0.528763,0.0563171,-2.38253
1470243562824852,-0.528803,0.0561769,-2.38258
1470243562845871,-0.52885,0.0560677,-2.38256
1470243562863887,-0.528961,0.055477,-2.38241
1470243562884453,-0.529002,0.0547633,-2.38213
1470243562905926,-0.52891,0.0539744,-2.38188
1470243562923973,-0.528856,0.0534792,-2.38164
1470243562944959,-0.528454,0.0532147,-2.38102
1470243562966009,-0.527965,0.0531992,-2.38036
1470243562983500,-0.52764,0.0530881,-2.3798
1470243563011020,-0.527651,0.0529182,-2.37898
1470243563026033,-0.527867,0.0525132,-2.37832
1470243563043550,-0.52797,0.0519932,-2.3779
1470243563064567,-0.527995,0.0513193,-2.37742
1470243563086171,-0.528106,0.0508301,-2.37691
1470243563103602,-0.528044,0.0504053,-2.3764
1470243563125122,-0.527943,0.0501202,-2.37583
1470243563145672,-0.527613,0.0499778,-2.37534
1470243563163683,-0.527096,0.05003,-2.37491
1470243563186206,-0.526832,0.0501117,-2.3742
1470243563205739,-0.526779,0.0504228,-2.37352
1470243563223742,-0.526758,0.0505635,-2.37296
1470243563246230,-0.526946,0.050934,-2.37243
1470243563265763,-0.526994,0.0511982,-2.37201
1470243563284284,-0.52729,0.0512803,-2.37171
1470243563306316,-0.52729,0.0512803,-2.37171
1470243563325836,-0.526701,0.0513488,-2.37153
1470243563343829,-0.526749,0.0512398,-2.37151
1470243563366338,-0.526749,0.0512398,-2.37151
1470243563385882,-0.526621,0.0512957,-2.37112
1470243563403872,-0.526368,0.0513064,-2.37069
1470243563426426,-0.526152,0.0516108,-2.37027
1470243563445938,-0.526042,0.052,-2.36968
1470243563463425,-0.52626,0.0523014,-2.36892
1470243563486446,-0.526265,0.0524329,-2.36849
1470243563505969,-0.526206,0.0526122,-2.36824
1470243563523980,-0.526216,0.0523103,-2.36786
1470243563546586,-0.526195,0.051473,-2.36744
1470243563566017,-0.526167,0.050605,-2.3671
1470243563584049,-0.526336,0.0495737,-2.36664
1470243563606055,-0.526223,0.0486218,-2.36597
1470243563626092,-0.526178,0.0477938,-2.36543
1470243563643626,-0.526037,0.046911,-2.36498
1470243563666727,-0.52607,0.0462372,-2.3645
1470243563685655,-0.525956,0.0456174,-2.36413
1470243563703642,-0.526164,0.045153,-2.36362
1470243563726162,-0.526021,0.044602,-2.36347
1470243563746183,-0.525834,0.044,-2.36336
1470243563763709,-0.525731,0.0433097,-2.36326
1470243563786265,-0.52562,0.0425891,-2.36325
1470243563807287,-0.52526,0.0417778,-2.36316
1470243563823804,-0.524909,0.0409966,-2.36299
1470243563846311,-0.524531,0.0399523,-2.36275
1470243563867288,-0.524213,0.0388292,-2.36241
1470243563883902,-0.523811,0.0375215,-2.36209
1470243563906349,-0.523682,0.0362057,-2.3617
1470243563927345,-0.523282,0.0348979,-2.36138
1470243563943857,-0.522883,0.0335901,-2.36107
1470243563966430,-0.523005,0.032365,-2.36075
1470243563987438,-0.522914,0.0313423,-2.36037
1470243564003956,-0.522997,0.0302561,-2.35999
1470243564026431,-0.522733,0.0292968,-2.35959
1470243564047449,-0.522603,0.0284127,-2.35915
1470243564063964,-0.52287,0.0275663,-2.35867
1470243564086501,-0.523144,0.0272974,-2.35803
1470243564108004,-0.523427,0.0274198,-2.35753
1470243564129023,-0.523725,0.0277757,-2.35718
1470243564145539,-0.524097,0.028286,-2.35688
1470243564168059,-0.524236,0.0289386,-2.35667
1470243564189076,-0.524451,0.0294719,-2.35657
1470243564205591,-0.524203,0.030116,-2.35632
1470243564228132,-0.523789,0.0308532,-2.35598
1470243564249131,-0.524079,0.0316412,-2.35558
1470243564265146,-0.524418,0.0325941,-2.35511
1470243564288176,-0.524756,0.0335473,-2.35464
1470243564302179,-0.524819,0.0346806,-2.35456
1470243564325199,-0.525257,0.0356776,-2.35462
1470243564347720,-0.525744,0.0368395,-2.35462
1470243564362233,-0.526115,0.0378851,-2.35486
1470243564385264,-0.526429,0.0390092,-2.3552
1470243564407777,-0.526719,0.0405049,-2.35564
1470243564422323,-0.527028,0.0419602,-2.35628
1470243564445312,-0.527405,0.0436404,-2.35671
1470243564467863,-0.527858,0.045475,-2.35719
1470243564482343,-0.527867,0.0473802,-2.35773
1470243564505395,-0.528124,0.0490146,-2.35813
1470243564527881,-0.528579,0.0504867,-2.35839
1470243564542395,-0.528596,0.0520601,-2.35864
1470243564565415,-0.528362,0.0536014,-2.35915
1470243564588002,-0.528354,0.0549117,-2.35932
1470243564602515,-0.528464,0.0559647,-2.35964
1470243564625537,-0.528354,0.0568573,-2.35967
1470243564648059,-0.52807,0.0575405,-2.35973
1470243564669116,-0.527842,0.0581457,-2.35968
1470243564685613,-0.527685,0.0585425,-2.35947
1470243564708113,-0.527884,0.0591165,-2.35917
1470243564729130,-0.528046,0.0597287,-2.35918
1470243564745143,-0.527818,0.060334,-2.35913
1470243564767663,-0.527534,0.0610172,-2.35918
1470243564789192,-0.527502,0.0614597,-2.35901
1470243564805198,-0.527336,0.062158,-2.35918
1470243564827719,-0.527498,0.0627703,-2.35918
1470243564849236,-0.527506,0.0634058,-2.35937
1470243564865254,-0.527632,0.0640563,-2.35967
1470243564887785,-0.527835,0.0648615,-2.36003
1470243564909291,-0.527633,0.0655981,-2.36049
1470243564925305,-0.527599,0.066241,-2.36105
1470243564947825,-0.52758,0.0669459,-2.36146
1470243564969346,-0.527526,0.0676284,-2.36182
1470243564985359,-0.527111,0.0682962,-2.36225
1470243565007880,-0.526669,0.0689727,-2.36257
1470243565029399,-0.526143,0.0694636,-2.3629
1470243565045417,-0.5257,0.0698686,-2.36325
1470243565067937,-0.525284,0.0702041,-2.36339
1470243565090455,-0.524862,0.0705088,-2.3636
1470243565105468,-0.524606,0.0707195,-2.3639
1470243565127987,-0.524133,0.0708615,-2.36417
1470243565150507,-0.523664,0.0712753,-2.3644
1470243565165551,-0.523605,0.0717876,-2.36445
1470243565188070,-0.52319,0.0721236,-2.36458
1470243565210564,-0.522485,0.0725078,-2.36459
1470243565224574,-0.521739,0.0730317,-2.36453
1470243565248095,-0.521588,0.0740337,-2.36459
1470243565270638,-0.521071,0.0752629,-2.36475
1470243565284629,-0.521433,0.076176,-2.3645
1470243565307648,-0.52169,0.0769423,-2.36407
1470243565330191,-0.522439,0.0774584,-2.36433
1470243565344720,-0.522835,0.0782012,-2.36422
1470243565367703,-0.522584,0.0788154,-2.36405
1470243565390222,-0.522723,0.0794978,-2.36428
1470243565411742,-0.523048,0.079985,-2.36445
1470243565427756,-0.523506,0.0805491,-2.36459
1470243565450277,-0.523714,0.0810212,-2.36465
1470243565464790,-0.523975,0.0814156,-2.36461
1470243565487812,-0.524002,0.0814081,-2.36473
1470243565510331,-0.524378,0.0814834,-2.36451
1470243565524843,-0.524378,0.0814834,-2.36451
1470243565547874,-0.524341,0.0818947,-2.36442
1470243565570406,-0.524467,0.0826471,-2.36437
1470243565591436,-0.524515,0.0832446,-2.36426
1470243565607955,-0.525,0.0837386,-2.36418
1470243565630438,-0.52569,0.0844336,-2.3642
1470243565651457,-0.526213,0.0852229,-2.36412
1470243565667972,-0.52673,0.0859809,-2.36413
1470243565690492,-0.5272,0.0868477,-2.36416
1470243565711512,-0.527551,0.0876999,-2.36407
1470243565728029,-0.5283,0.088589,-2.36396
1470243565758053,-0.529174,0.0895244,-2.36389
1470243565771566,-0.529923,0.0904137,-2.36378
1470243565788079,-0.530673,0.0913033,-2.36367
1470243565818108,-0.531145,0.0921703,-2.3637
1470243565831655,-0.531739,0.0928127,-2.36381
1470243565848133,-0.532346,0.0933217,-2.36385
1470243565870154,-0.533033,0.0939855,-2.36396
1470243565891685,-0.534004,0.0947041,-2.36385
1470243565907687,-0.535001,0.0953533,-2.36352
1470243565930224,-0.536072,0.0961257,-2.36333
1470243565951726,-0.537022,0.0968843,-2.36303
1470243565967743,-0.538099,0.0976896,-2.36277
1470243565990271,-0.538963,0.0986986,-2.36244
1470243566011295,-0.539994,0.0996132,-2.3622
1470243566027812,-0.54125,0.100628,-2.36193
1470243566050317,-0.542329,0.101435,-2.36168
1470243566072835,-0.543419,0.101271,-2.36054
1470243566087849,-0.546482,0.098959,-2.35756
1470243566110370,-0.551933,0.0961138,-2.35519
1470243566132890,-0.555047,0.0945098,-2.35357
1470243566147906,-0.554989,0.0941572,-2.35289
1470243566170425,-0.553609,0.094477,-2.35255
1470243566192945,-0.553615,0.09451,-2.35247
1470243566207496,-0.554295,0.094576,-2.35232
1470243566230483,-0.555913,0.0943645,-2.35213
1470243566252998,-0.555913,0.0943645,-2.35213
1470243566267014,-0.55432,0.094806,-2.35248
1470243566291031,-0.552013,0.0953566,-2.35286
1470243566313051,-0.550696,0.0954945,-2.35277
1470243566327064,-0.550401,0.0949733,-2.35228
1470243566350586,-0.550309,0.0940248,-2.35121
1470243566373105,-0.549412,0.0929631,-2.35026
1470243566387132,-0.547957,0.0919872,-2.34916
1470243566410168,-0.546825,0.0908952,-2.34797
1470243566433162,-0.546367,0.0899744,-2.34628
1470243566447192,-0.546059,0.089,-2.34449
1470243566470221,-0.545418,0.0882119,-2.34252
1470243566492714,-0.544436,0.087305,-2.34047
1470243566514232,-0.543884,0.0859624,-2.33864
1470243566530746,-0.543917,0.084905,-2.3367
1470243566552766,-0.545142,0.0839452,-2.33476
1470243566574302,-0.548828,0.0818329,-2.33248
1470243566590800,-0.554962,0.077634,-2.33026
1470243566612827,-0.561042,0.0718902,-2.328
1470243566634367,-0.567525,0.066164,-2.32628
1470243566650387,-0.573637,0.0612321,-2.325
1470243566672915,-0.579504,0.056923,-2.32356
1470243566694394,-0.582163,0.0522146,-2.32425
1470243566710408,-0.581337,0.0502614,-2.324
1470243566732928,-0.584348,0.0484691,-2.32242
1470243566753947,-0.590091,0.0470329,-2.32133
1470243566769961,-0.596298,0.0437681,-2.32102
1470243566792983,-0.604244,0.0421029,-2.31891
1470243566814067,-0.607388,0.0394711,-2.31841
1470243566830015,-0.599746,0.0347792,-2.3173
1470243566853036,-0.594682,0.0341624,-2.31526
1470243566874089,-0.595173,0.0329919,-2.31303
1470243566889584,-0.602752,0.0313793,-2.30939
1470243566913091,-0.61349,0.0297164,-2.30558
1470243566934150,-0.620808,0.0284125,-2.30249
1470243566949630,-0.623804,0.027635,-2.30041
1470243566973144,-0.625602,0.0268609,-2.29798
1470243566995706,-0.627406,0.0255997,-2.2949
1470243567016746,-0.629048,0.0244366,-2.29172
1470243567032701,-0.630583,0.0238754,-2.28877
1470243567055717,-0.631805,0.0235164,-2.28598
1470243567070732,-0.633034,0.0236855,-2.28379
1470243567092751,-0.634118,0.0242626,-2.2823
1470243567115773,-0.634928,0.0249732,-2.28129
1470243567129786,-0.635516,0.0260204,-2.28064
1470243567152807,-0.635842,0.0274587,-2.28057
1470243567175325,-0.63667,0.0289719,-2.28101
1470243567189839,-0.637437,0.0304691,-2.2818
1470243567212859,-0.63794,0.0320117,-2.28336
1470243567235383,-0.638413,0.0335235,-2.28539
1470243567257900,-0.63844,0.0349142,-2.28801
1470243567272914,-0.638452,0.0359246,-2.29086
1470243567295458,-0.638332,0.0365422,-2.29385
1470243567317954,-0.638224,0.0367661,-2.29722
1470243567332968,-0.637638,0.0367849,-2.30053
1470243567355487,-0.637392,0.0367038,-2.30377
1470243567370019,-0.636948,0.0364226,-2.3069
1470243567393021,-0.636173,0.0357501,-2.30998
1470243567415542,-0.634911,0.0352707,-2.31265
1470243567430054,-0.633386,0.0344769,-2.31507
1470243567453075,-0.631866,0.033807,-2.31716
1470243567483102,-0.629869,0.0330588,-2.31886
1470243567496641,-0.62777,0.0326459,-2.32028
1470243567513128,-0.625021,0.03213,-2.32156
1470243567535168,-0.622157,0.0316061,-2.32273
1470243567556696,-0.61926,0.0311441,-2.32412
1470243567573185,-0.617033,0.0307805,-2.32524
1470243567595703,-0.614991,0.0306672,-2.32628
1470243567616721,-0.612901,0.0302732,-2.32771
1470243567632743,-0.610795,0.0299297,-2.32895
1470243567655786,-0.608553,0.029978,-2.33012
1470243567676825,-0.60639,0.0298279,-2.33112
1470243567692791,-0.604803,0.0296304,-2.33219
1470243567715310,-0.603353,0.0295151,-2.33323
1470243567736950,-0.602204,0.02966,-2.33429
1470243567752844,-0.601185,0.0294974,-2.33516
1470243567775364,-0.600392,0.0294407,-2.33599
1470243567796956,-0.599904,0.02937,-2.33688
1470243567812898,-0.599343,0.0291464,-2.3377
1470243567835419,-0.598866,0.0291103,-2.33851
1470243567856953,-0.598436,0.0292405,-2.33926
1470243567872952,-0.597839,0.0294659,-2.33992
1470243567895475,-0.597293,0.0295845,-2.34056
1470243567917992,-0.596597,0.0297524,-2.34131
1470243567933048,-0.595791,0.0302153,-2.34183
1470243567955525,-0.594927,0.0304793,-2.34248
1470243567978087,-0.594003,0.0308177,-2.34324
1470243568006616,-0.593483,0.0311991,-2.34396
1470243568015583,-0.593062,0.031639,-2.34461
1470243568038099,-0.592659,0.0320334,-2.34545
1470243568053113,-0.592505,0.0322133,-2.34648
1470243568075634,-0.592103,0.0326083,-2.34732
1470243568098153,-0.591439,0.0328788,-2.34816
1470243568112198,-0.590426,0.0334698,-2.34889
1470243568135687,-0.589602,0.0340332,-2.34955
1470243568158209,-0.588422,0.0343645,-2.34996
1470243568172225,-0.587303,0.0346221,-2.35026
1470243568195287,-0.586127,0.0346817,-2.3507
1470243568218281,-0.585035,0.0345715,-2.3509
1470243568232309,-0.584155,0.0346937,-2.35112
1470243568255795,-0.583452,0.0343968,-2.35113
1470243568277816,-0.582573,0.0342731,-2.35077
1470243568299446,-0.581475,0.034352,-2.35035
1470243568315358,-0.580049,0.0348158,-2.34998
1470243568337879,-0.578584,0.035147,-2.34959
1470243568352382,-0.5769,0.0355703,-2.34949
1470243568375403,-0.575283,0.0361143,-2.34952
1470243568397923,-0.574019,0.0364248,-2.34994
1470243568418985,-0.57323,0.0372028,-2.35035
1470243568435497,-0.572818,0.0377602,-2.35064
1470243568457977,-0.572525,0.0380581,-2.35109
1470243568479526,-0.572292,0.0381717,-2.35179
1470243568495512,-0.572156,0.038615,-2.35237
1470243568518031,-0.572951,0.0389116,-2.35296
1470243568539095,-0.573997,0.0390504,-2.35306
1470243568555601,-0.574465,0.0392112,-2.35317
1470243568578085,-0.574164,0.039586,-2.35335
1470243568599160,-0.573596,0.039641,-2.35328
1470243568615620,-0.572389,0.0397934,-2.35333
1470243568644144,-0.572417,0.0397823,-2.35345
1470243568659160,-0.572249,0.0398774,-2.35336
1470243568675672,-0.572199,0.0399853,-2.35338
1470243568698192,-0.571255,0.0402618,-2.35343
1470243568719212,-0.570116,0.0406442,-2.35327
1470243568735726,-0.569481,0.0405781,-2.35307
1470243568757751,-0.568988,0.0401554,-2.35287
1470243568779265,-0.568086,0.0397685,-2.35244
1470243568794781,-0.567168,0.0391519,-2.35184
1470243568817820,-0.566065,0.0385647,-2.35131
1470243568839448,-0.5655,0.0383462,-2.35128
1470243568855381,-0.565005,0.0380875,-2.3514
1470243568877853,-0.564679,0.0380932,-2.35184
1470243568900376,-0.56428,0.0383041,-2.35245
1470243568915389,-0.563854,0.0386339,-2.35258
1470243568937908,-0.562978,0.0390319,-2.35277
1470243568960429,-0.56166,0.0394231,-2.35329
1470243568975443,-0.560626,0.0397341,-2.35401
1470243568997963,-0.559036,0.0400261,-2.35494
1470243569020487,-0.557204,0.0402605,-2.35572
1470243569034997,-0.555532,0.0402034,-2.35636
1470243569058057,-0.55375,0.0400783,-2.35655
1470243569080551,-0.552427,0.0396431,-2.35664
1470243569095050,-0.551619,0.0389008,-2.3566
1470243569118070,-0.551485,0.0380234,-2.35614
1470243569140590,-0.551426,0.0370453,-2.35517
1470243569154603,-0.550745,0.0359258,-2.35427
1470243569178123,-0.549108,0.0350202,-2.35359
1470243569200644,-0.547331,0.0344699,-2.3529
1470243569214657,-0.545881,0.0341641,-2.35234
1470243569238178,-0.544811,0.0338349,-2.3519
1470243569260698,-0.543533,0.0336345,-2.35167
1470243569274710,-0.541833,0.0333883,-2.35197
1470243569298233,-0.540356,0.0332447,-2.35222
1470243569320251,-0.539161,0.0330231,-2.35268
1470243569334776,-0.538082,0.032817,-2.35325
1470243569342271,-0.537543,0.0326551,-2.35402
1470243569363290,-0.537035,0.0323238,-2.35492
1470243569385811,-0.536238,0.032041,-2.35569
1470243569403826,-0.535184,0.0317246,-2.35674
1470243569423345,-0.534122,0.0313788,-2.35786
1470243569445865,-0.533573,0.0310873,-2.35906
1470243569463882,-0.53314,0.0308113,-2.36037
1470243569483432,-0.532467,0.0304759,-2.36154
1470243569505945,-0.531968,0.0300776,-2.36272
1470243569524025,-0.531511,0.0296424,-2.36361
1470243569543482,-0.530822,0.029178,-2.36427
1470243569565972,-0.530257,0.0283979,-2.36474
1470243569583988,-0.529609,0.0277952,-2.36546
1470243569603522,-0.52916,0.0273918,-2.36627
1470243569626050,-0.528744,0.0269206,-2.36686
1470243569643542,-0.528594,0.0268731,-2.36732
1470243569671066,-0.527548,0.028051,-2.3674
1470243569686079,-0.525848,0.030542,-2.36624
1470243569703596,-0.525711,0.0314739,-2.36512
1470243569723613,-0.525016,0.031456,-2.36511
1470243569753640,-0.524339,0.0313979,-2.3653
1470243569764150,-0.523835,0.031276,-2.3655
1470243569783759,-0.523403,0.0308464,-2.36589
1470243569806187,-0.52326,0.0300947,-2.36645
1470243569824207,-0.523885,0.0291525,-2.36686
1470243569843221,-0.524946,0.0281074,-2.36729
1470243569866310,-0.525396,0.0272288,-2.36768
1470243569883791,-0.524981,0.026759,-2.36827
1470243569903274,-0.524681,0.0264046,-2.36862
1470243569925797,-0.52411,0.0260593,-2.36905
1470243569943811,-0.523901,0.0259921,-2.36996
1470243569963844,-0.525023,0.0260359,-2.371
1470243569985852,-0.525336,0.0260484,-2.37191
1470243570003865,-0.525467,0.0259223,-2.37257
1470243570023384,-0.525687,0.0255477,-2.37328
1470243570045902,-0.526081,0.0253818,-2.37395
1470243570063918,-0.526002,0.0247537,-2.37464
1470243570083436,-0.525875,0.0245084,-2.37532
1470243570105956,-0.526536,0.0244907,-2.3759
1470243570124974,-0.526689,0.0239919,-2.37647
1470243570143496,-0.525931,0.0243889,-2.37686
1470243570166011,-0.525896,0.025163,-2.37698
1470243570183526,-0.525781,0.025422,-2.37683
1470243570203544,-0.525256,0.0257754,-2.37677
1470243570226064,-0.525207,0.0258846,-2.37679
1470243570243580,-0.524531,0.0259307,-2.37663
1470243570263598,-0.523855,0.0262499,-2.37642
1470243570286118,-0.523615,0.026191,-2.37627
1470243570303636,-0.523473,0.0259135,-2.37608
1470243570323151,-0.523597,0.0259579,-2.37612
1470243570345673,-0.523646,0.0258487,-2.3761
1470243570363689,-0.523646,0.0258487,-2.3761
1470243570383706,-0.523414,0.0257196,-2.37623
1470243570406227,-0.523588,0.0256547,-2.37624
1470243570423742,-0.523588,0.0256547,-2.37624
1470243570444762,-0.523463,0.0256103,-2.37621
1470243570465780,-0.523463,0.0256103,-2.37621
1470243570483797,-0.523463,0.0256103,-2.37621
1470243570504815,-0.523762,0.0258632,-2.37621
1470243570525833,-0.524109,0.0260069,-2.37619
1470243570543851,-0.524158,0.0258976,-2.37617
1470243570564869,-0.524158,0.0258976,-2.37617
1470243570585922,-0.524158,0.0258976,-2.37617
1470243570603991,-0.524158,0.0258976,-2.37617
1470243570624966,-0.524158,0.0258976,-2.37617
1470243570645943,-0.524158,0.0258976,-2.37617
1470243570663958,-0.524283,0.025942,-2.3762
1470243570684976,-0.524283,0.025942,-2.3762
1470243570706024,-0.524283,0.025942,-2.3762
1470243570724011,-0.524283,0.025942,-2.3762
1470243570745031,-0.524283,0.025942,-2.3762
1470243570766066,-0.524283,0.025942,-2.3762
1470243570784064,-0.524398,0.0259565,-2.37632
1470243570806606,-0.524407,0.0259865,-2.37624
1470243570826103,-0.524398,0.0259565,-2.37632
1470243570843619,-0.524447,0.0258473,-2.3763
1470243570866640,-0.524447,0.0258473,-2.3763
1470243570893664,-0.524572,0.0258917,-2.37633
1470243570904173,-0.524572,0.0258917,-2.37633
1470243570926193,-0.524572,0.0258917,-2.37633
1470243570946312,-0.524546,0.0259021,-2.37621
1470243570964331,-0.52467,0.0259465,-2.37624
1470243570986255,-0.52467,0.0259465,-2.37624
1470243571006278,-0.524995,0.026189,-2.37637
1470243571024324,-0.524995,0.026189,-2.37637
1470243571046303,-0.524946,0.0262982,-2.37639
1470243571065819,-0.525071,0.0263426,-2.37642
1470243571083835,-0.525045,0.026353,-2.3763
1470243571106390,-0.525045,0.026353,-2.3763
1470243571125873,-0.525045,0.026353,-2.3763
1470243571143889,-0.525045,0.026353,-2.3763
1470243571166409,-0.52517,0.0263974,-2.37634
1470243571185957,-0.525218,0.0262882,-2.37632
1470243571203970,-0.525218,0.0262882,-2.37632
1470243571226465,-0.525343,0.0263326,-2.37635
1470243571246010,-0.525343,0.0263326,-2.37635
1470243571264083,-0.525468,0.026377,-2.37638
1470243571286516,-0.525468,0.026377,-2.37638
1470243571306043,-0.525468,0.026377,-2.37638
1470243571324141,-0.525566,0.0264319,-2.3763
1470243571346594,-0.525566,0.0264319,-2.3763
1470243571367589,-0.525566,0.0264319,-2.3763
1470243571384186,-0.525691,0.0264763,-2.37633
1470243571406635,-0.525691,0.0264763,-2.37633
1470243571427643,-0.525815,0.0265207,-2.37637
1470243571443658,-0.525767,0.0266299,-2.37639
1470243571466824,-0.525767,0.0266299,-2.37639
1470243571487198,-0.525891,0.0266743,-2.37642
1470243571503712,-0.525891,0.0266743,-2.37642
1470243571526233,-0.525865,0.0266847,-2.3763
1470243571547252,-0.52599,0.0267291,-2.37634
1470243571564281,-0.52599,0.0267291,-2.37634
1470243571586310,-0.52599,0.0267291,-2.37634
1470243571614812,-0.526114,0.0267735,-2.37637
1470243571623819,-0.526114,0.0267735,-2.37637
1470243571646368,-0.526239,0.0268179,-2.37641
1470243571667358,-0.526239,0.0268179,-2.37641
1470243571683901,-0.526315,0.0269716,-2.37646
1470243571706409,-0.526289,0.026982,-2.37634
1470243571728916,-0.526289,0.026982,-2.37634
1470243571743927,-0.526414,0.0270264,-2.37638
1470243571766449,-0.526414,0.0270264,-2.37638
1470243571788967,-0.526365,0.0271356,-2.3764
1470243571803981,-0.526365,0.0271356,-2.3764
1470243571826502,-0.526365,0.0271356,-2.3764
1470243571849114,-0.526489,0.02718,-2.37643
1470243571868600,-0.526489,0.02718,-2.37643
1470243571885556,-0.526489,0.02718,-2.37643
1470243571908075,-0.526614,0.0272244,-2.37647
1470243571929616,-0.526614,0.0272244,-2.37647
1470243571945609,-0.526664,0.0273884,-2.3764
1470243571968130,-0.526713,0.0272792,-2.37638
1470243571989181,-0.526673,0.0274185,-2.37633
1470243572005663,-0.526837,0.0273236,-2.37642
1470243572028186,-0.526837,0.0273236,-2.37642
1470243572042195,-0.526837,0.0273236,-2.37642
1470243572065716,-0.526797,0.0274629,-2.37636
1470243572088242,-0.526797,0.0274629,-2.37636
1470243572109255,-0.526797,0.0274629,-2.37636
1470243572125283,-0.526797,0.0274629,-2.37636
1470243572147809,-0.526797,0.0274629,-2.37636
1470243572162303,-0.526922,0.0275073,-2.37639
1470243572185324,-0.526913,0.0274772,-2.37647
1470243572207845,-0.526913,0.0274772,-2.37647
1470243572229370,-0.526913,0.0274772,-2.37647
1470243572245396,-0.526913,0.0274772,-2.37647
1470243572267897,-0.526922,0.0275073,-2.37639
1470243572289487,-0.527038,0.0275217,-2.37651
1470243572305431,-0.527038,0.0275217,-2.37651
1470243572327954,-0.527087,0.0274124,-2.37648
1470243572348984,-0.527185,0.0274672,-2.3764
1470243572365485,-0.527185,0.0274672,-2.3764
1470243572388006,-0.527185,0.0274672,-2.3764
1470243572409026,-0.527185,0.0274672,-2.3764
1470243572425540,-0.52731,0.0275117,-2.37643
1470243572448109,-0.52731,0.0275117,-2.37643
1470243572469592,-0.527435,0.0275561,-2.37647
1470243572485593,-0.527435,0.0275561,-2.37647
1470243572508130,-0.527435,0.0275561,-2.37647
1470243572529176,-0.527636,0.0280273,-2.37652
1470243572545649,-0.527873,0.0285183,-2.37661
1470243572568168,-0.527901,0.0290542,-2.37664
1470243572589186,-0.527965,0.02961,-2.37672
1470243572605722,-0.527965,0.02961,-2.37672
1470243572628221,-0.527965,0.02961,-2.37672
1470243572649296,-0.527965,0.02961,-2.37672
1470243572665278,-0.527965,0.02961,-2.37672
1470243572688329,-0.52809,0.0296545,-2.37675
1470243572710797,-0.528158,0.0301519,-2.37649
1470243572725308,-0.528158,0.0301519,-2.37649
1470243572747829,-0.528158,0.0301519,-2.37649
1470243572770350,-0.528283,0.0301963,-2.37653
1470243572791406,-0.528283,0.0301963,-2.37653
1470243572807882,-0.528378,0.0306835,-2.37639
1470243572830405,-0.528572,0.0312254,-2.37616
1470243572844930,-0.528627,0.031852,-2.37596
1470243572867980,-0.528752,0.0318965,-2.376
1470243572890458,-0.528914,0.0325071,-2.37599
1470243572905022,-0.528914,0.0325071,-2.37599
1470243572927992,-0.528914,0.0325071,-2.37599
1470243572950510,-0.529039,0.0325517,-2.37602
1470243572965042,-0.529039,0.0325517,-2.37602
1470243572988071,-0.529138,0.0326063,-2.37594
1470243573010564,-0.529138,0.0326063,-2.37594
1470243573025077,-0.529138,0.0326063,-2.37594
1470243573048099,-0.529138,0.0326063,-2.37594
1470243573070623,-0.529326,0.0332068,-2.37605
1470243573091672,-0.529326,0.0332068,-2.37605
1470243573108152,-0.529376,0.0333705,-2.37599
1470243573130672,-0.529376,0.0333705,-2.37599
1470243573144686,-0.529376,0.0333705,-2.37599
1470243573168206,-0.529501,0.0334151,-2.37602
1470243573190726,-0.529501,0.0334151,-2.37602
1470243573211823,-0.530021,0.0341998,-2.37593
1470243573227761,-0.530482,0.0347903,-2.37597
1470243573250280,-0.530482,0.0347903,-2.37597
1470243573271799,-0.530532,0.034954,-2.37591
1470243573288313,-0.530532,0.034954,-2.37591
1470243573310334,-0.530532,0.034954,-2.37591
1470243573331866,-0.530532,0.034954,-2.37591
1470243573347874,-0.530609,0.0351077,-2.37596
1470243573370390,-0.530609,0.0351077,-2.37596
1470243573391930,-0.530685,0.0352614,-2.37602
1470243573407924,-0.530685,0.0352614,-2.37602
1470243573430443,-0.530784,0.0353159,-2.37594
1470243573452043,-0.530784,0.0353159,-2.37594
1470243573467975,-0.530909,0.0353605,-2.37597
1470243573490498,-0.531034,0.035405,-2.37601
1470243573512024,-0.530994,0.0355446,-2.37595
1470243573528061,-0.531119,0.0355892,-2.37598
1470243573550554,-0.531217,0.0356438,-2.3759
1470243573571591,-0.531217,0.0356438,-2.3759
1470243573588116,-0.531294,0.0357974,-2.37596
1470243573610631,-0.531419,0.035842,-2.37599
1470243573633123,-0.531419,0.035842,-2.37599
1470243573648166,-0.531495,0.0359956,-2.37605
1470243573670658,-0.531469,0.0360056,-2.37593
1470243573693178,-0.531594,0.0360502,-2.37597
1470243573708199,-0.531545,0.0361593,-2.37599
1470243573730220,-0.531671,0.0362039,-2.37602
1470243573753231,-0.531795,0.0362484,-2.37606
1470243573767244,-0.531747,0.0363575,-2.37608
1470243573790319,-0.531854,0.0364426,-2.37592
1470243573813303,-0.531854,0.0364426,-2.37592
1470243573827327,-0.531931,0.0365963,-2.37597
1470243573850818,-0.532056,0.0366409,-2.37601
1470243573872838,-0.532056,0.0366409,-2.37601
1470243573887355,-0.532181,0.0366854,-2.37605
1470243573910873,-0.53228,0.03674,-2.37596
1470243573932893,-0.532231,0.036849,-2.37598
1470243573947406,-0.532356,0.0368936,-2.37602
1470243573976934,-0.532481,0.0369382,-2.37605
1470243573992947,-0.532481,0.0369382,-2.37605
1470243574007461,-0.532531,0.0371018,-2.37599
1470243574030480,-0.532531,0.0371018,-2.37599
1470243574053012,-0.532656,0.0371463,-2.37603
1470243574067513,-0.532733,0.0373,-2.37608
1470243574090534,-0.532733,0.0373,-2.37608
1470243574113056,-0.532867,0.0373752,-2.37604
1470243574134073,-0.532867,0.0373752,-2.37604
1470243574150588,-0.532917,0.0375388,-2.37598
1470243574173127,-0.532917,0.0375388,-2.37598
1470243574195630,-0.533042,0.0375834,-2.37602
1470243574210641,-0.533042,0.0375834,-2.37602
1470243574233163,-0.533167,0.037628,-2.37605
1470243574255684,-0.533167,0.037628,-2.37605
1470243574270696,-0.533266,0.0376825,-2.37597
1470243574293216,-0.533391,0.0377271,-2.376
1470243574314271,-0.533342,0.0378361,-2.37602
1470243574330752,-0.533467,0.0378807,-2.37606
1470243574353302,-0.533467,0.0378807,-2.37606
1470243574374339,-0.533459,0.03785,-2.37614
1470243574390352,-0.533459,0.03785,-2.37614
1470243574413323,-0.533459,0.03785,-2.37614
1470243574434404,-0.533535,0.0380036,-2.3762
1470243574450858,-0.533535,0.0380036,-2.3762
1470243574472924,-0.533245,0.0380543,-2.37607
1470243574494397,-0.53312,0.0380097,-2.37603
1470243574510411,-0.53312,0.0380097,-2.37603
1470243574532932,-0.533245,0.0380543,-2.37607
1470243574553951,-0.533245,0.0380543,-2.37607
1470243574570465,-0.53337,0.0380988,-2.3761
1470243574592986,-0.533496,0.0381434,-2.37614
1470243574615507,-0.535415,0.0391722,-2.3757
1470243574630519,-0.539059,0.0397687,-2.37551
1470243574653040,-0.541915,0.0395135,-2.37379
1470243574675558,-0.542065,0.0388379,-2.37206
1470243574690072,-0.538941,0.0385211,-2.37153
1470243574713093,-0.535134,0.0388074,-2.37179
1470243574735647,-0.534068,0.0390185,-2.37189
1470243574749626,-0.535153,0.0391416,-2.3716
1470243574773147,-0.535278,0.0391865,-2.37163
1470243574795667,-0.534996,0.0395638,-2.37275
1470243574809680,-0.534509,0.0399037,-2.37376
1470243574833201,-0.53412,0.0404009,-2.37433
1470243574855723,-0.53412,0.0404009,-2.37433
1470243574869735,-0.53449,0.0401732,-2.37422
1470243574893255,-0.534248,0.0401145,-2.37407
1470243574915792,-0.533907,0.0400013,-2.374
1470243574929788,-0.533907,0.0400013,-2.374
1470243574953308,-0.533881,0.0400112,-2.37388
1470243574975829,-0.534006,0.0400559,-2.37392
1470243574989847,-0.53418,0.0399916,-2.37393
1470243575012862,-0.53418,0.0399916,-2.37393
1470243575035387,-0.534305,0.0400363,-2.37397
1470243575049895,-0.534305,0.0400363,-2.37397
1470243575072917,-0.534305,0.0400363,-2.37397
1470243575095438,-0.534305,0.0400363,-2.37397
1470243575116471,-0.534305,0.0400363,-2.37397
1470243575132970,-0.534381,0.04019,-2.37402
1470243575155530,-0.53443,0.040081,-2.374
1470243575177011,-0.534404,0.0400909,-2.37388
1470243575193025,-0.534529,0.0401356,-2.37392
1470243575215545,-0.534529,0.0401356,-2.37392
1470243575236587,-0.534654,0.0401804,-2.37395
1470243575253089,-0.534654,0.0401804,-2.37395
1470243575275600,-0.534779,0.0402251,-2.37399
1470243575296617,-0.534779,0.0402251,-2.37399
1470243575313231,-0.534779,0.0402251,-2.37399
1470243575335751,-0.534904,0.0402698,-2.37403
1470243575356833,-0.534878,0.0402797,-2.37391
1470243575372784,-0.534926,0.0401707,-2.37388
1470243575395805,-0.534878,0.0402797,-2.37391
1470243575416824,-0.534878,0.0402797,-2.37391
1470243575433338,-0.535051,0.0402154,-2.37392
1470243575455358,-0.535051,0.0402154,-2.37392
1470243575476884,-0.535043,0.0401846,-2.374
1470243575492894,-0.535168,0.0402293,-2.37403
1470243575515412,-0.535293,0.040274,-2.37407
1470243575537952,-0.535293,0.040274,-2.37407
1470243575552991,-0.535293,0.040274,-2.37407
1470243575575468,-0.535392,0.0403286,-2.37399
1470243575597986,-0.535392,0.0403286,-2.37399
1470243575613001,-0.535392,0.0403286,-2.37399
1470243575635521,-0.535517,0.0403733,-2.37402
1470243575658040,-0.535517,0.0403733,-2.37402
1470243575672553,-0.535517,0.0403733,-2.37402
1470243575695576,-0.535517,0.0403733,-2.37402
1470243575725601,-0.535517,0.0403733,-2.37402
1470243575732654,-0.535642,0.040418,-2.37406
1470243575755628,-0.535642,0.040418,-2.37406
1470243575778148,-0.535642,0.040418,-2.37406
1470243575792161,-0.535768,0.0404627,-2.37409
1470243575815682,-0.535768,0.0404627,-2.37409
1470243575838202,-0.535741,0.0404726,-2.37397
1470243575852215,-0.535741,0.0404726,-2.37397
1470243575875735,-0.535866,0.0405173,-2.37401
1470243575898272,-0.535866,0.0405173,-2.37401
1470243575912402,-0.535866,0.0405173,-2.37401
1470243575935407,-0.535915,0.0404084,-2.37399
1470243575958421,-0.53604,0.0404531,-2.37402
1470243575972433,-0.53604,0.0404531,-2.37402
1470243575995516,-0.53604,0.0404531,-2.37402
1470243576017974,-0.53604,0.0404531,-2.37402
1470243576039021,-0.53604,0.0404531,-2.37402
1470243576055508,-0.53604,0.0404531,-2.37402
1470243576078028,-0.536165,0.0404978,-2.37406
1470243576099047,-0.536165,0.0404978,-2.37406
1470243576115578,-0.536165,0.0404978,-2.37406
1470243576138081,-0.536339,0.0404335,-2.37407
1470243576159108,-0.536313,0.0404434,-2.37395
1470243576175616,-0.536313,0.0404434,-2.37395
1470243576198135,-0.536313,0.0404434,-2.37395
1470243576219181,-0.536313,0.0404434,-2.37395
1470243576235669,-0.536313,0.0404434,-2.37395
1470243576258238,-0.536438,0.0404882,-2.37399
1470243576279208,-0.536438,0.0404882,-2.37399
1470243576295725,-0.536438,0.0404882,-2.37399
1470243576324335,-0.536438,0.0404882,-2.37399
1470243576339263,-0.536555,0.040502,-2.3741
1470243576355777,-0.536603,0.040393,-2.37408
1470243576378297,-0.536728,0.0404377,-2.37412
1470243576399319,-0.536728,0.0404377,-2.37412
1470243576415336,-0.536728,0.0404377,-2.37412
1470243576437851,-0.536728,0.0404377,-2.37412
1470243576460871,-0.536854,0.0404824,-2.37415
1470243576475885,-0.536854,0.0404824,-2.37415
1470243576497910,-0.536854,0.0404824,-2.37415
1470243576520425,-0.536827,0.0404923,-2.37403
1470243576535438,-0.536827,0.0404923,-2.37403
1470243576557959,-0.536952,0.040537,-2.37407
1470243576580492,-0.536952,0.040537,-2.37407
1470243576594992,-0.537001,0.0404281,-2.37405
1470243576618012,-0.537001,0.0404281,-2.37405
1470243576640533,-0.537001,0.0404281,-2.37405
1470243576655046,-0.537126,0.0404728,-2.37408
1470243576678157,-0.537126,0.0404728,-2.37408
1470243576700613,-0.537126,0.0404728,-2.37408
1470243576715100,-0.537126,0.0404728,-2.37408
1470243576738121,-0.537252,0.0405174,-2.37412
1470243576760640,-0.537252,0.0405174,-2.37412
1470243576775154,-0.537252,0.0405174,-2.37412
1470243576798174,-0.537225,0.0405274,-2.374
1470243576820738,-0.53735,0.0405721,-2.37404
1470243576835210,-0.53735,0.0405721,-2.37404
1470243576858229,-0.53735,0.0405721,-2.37404
1470243576880760,-0.537476,0.0406168,-2.37407
1470243576894762,-0.537476,0.0406168,-2.37407
1470243576918282,-0.537601,0.0406615,-2.37411
1470243576940803,-0.537601,0.0406615,-2.37411
1470243576961821,-0.537601,0.0406615,-2.37411
1470243576978335,-0.537601,0.0406615,-2.37411
1470243577008386,-0.537726,0.0407062,-2.37414
1470243577029382,-0.537726,0.0407062,-2.37414
1470243577038390,-0.537699,0.0407161,-2.37402
1470243577060911,-0.537825,0.0407608,-2.37406
1470243577082029,-0.537825,0.0407608,-2.37406
1470243577097945,-0.537825,0.0407608,-2.37406
1470243577103481,-0.53795,0.0408055,-2.3741
1470243577125976,-0.53795,0.0408055,-2.3741
1470243577148544,-0.53795,0.0408055,-2.3741
1470243577163503,-0.538075,0.0408502,-2.37413
1470243577186050,-0.538075,0.0408502,-2.37413
1470243577208572,-0.538075,0.0408502,-2.37413
1470243577223584,-0.538075,0.0408502,-2.37413
1470243577249123,-0.538075,0.0408502,-2.37413
1470243577268625,-0.538075,0.0408502,-2.37413
1470243577283610,-0.538075,0.0408502,-2.37413
1470243577306222,-0.538201,0.0408949,-2.37417
1470243577328655,-0.538174,0.0409048,-2.37405
1470243577343666,-0.538174,0.0409048,-2.37405
1470243577366244,-0.538299,0.0409496,-2.37408
1470243577388704,-0.538299,0.0409496,-2.37408
1470243577403720,-0.538299,0.0409496,-2.37408
1470243577426238,-0.538299,0.0409496,-2.37408
1470243577448758,-0.538299,0.0409496,-2.37408
1470243577463852,-0.538425,0.0409943,-2.37412
1470243577486400,-0.538425,0.0409943,-2.37412
1470243577508354,-0.53855,0.041039,-2.37416
1470243577523826,-0.53855,0.041039,-2.37416
1470243577553408,-0.53855,0.041039,-2.37416
1470243577568917,-0.53855,0.041039,-2.37416
1470243577583422,-0.53855,0.041039,-2.37416
1470243577605900,-0.538524,0.0410489,-2.37404
1470243577628921,-0.538336,0.0412432,-2.37409
1470243577643433,-0.53831,0.0412531,-2.37397
1470243577668956,-0.538358,0.0411441,-2.37395
1470243577688489,-0.538435,0.0412978,-2.374
1470243577703520,-0.538484,0.0411889,-2.37398
1470243577726009,-0.538609,0.0412336,-2.37402
1470243577757576,-0.538609,0.0412336,-2.37402
1470243577763543,-0.538609,0.0412336,-2.37402
1470243577786107,-0.53856,0.0413425,-2.37404
1470243577808637,-0.53856,0.0413425,-2.37404
1470243577823609,-0.53856,0.0413425,-2.37404
1470243577846116,-0.53856,0.0413425,-2.37404
1470243577868655,-0.538686,0.0413872,-2.37408
1470243577883713,-0.538686,0.0413872,-2.37408
1470243577906211,-0.538686,0.0413872,-2.37408
1470243577928696,-0.538686,0.0413872,-2.37408
1470243577943703,-0.538784,0.0414418,-2.37399
1470243577966223,-0.538784,0.0414418,-2.37399
1470243577988744,-0.53891,0.0414865,-2.37403
1470243578004789,-0.53891,0.0414865,-2.37403
1470243578025793,-0.53891,0.0414865,-2.37403
1470243578048299,-0.53891,0.0414865,-2.37403
1470243578064812,-0.538987,0.0416402,-2.37409
1470243578086331,-0.538861,0.0415955,-2.37405
1470243578108351,-0.538987,0.0416402,-2.37409
1470243578124865,-0.538987,0.0416402,-2.37409
1470243578145900,-0.538987,0.0416402,-2.37409
1470243578168438,-0.539112,0.0416849,-2.37412
1470243578184919,-0.539112,0.0416849,-2.37412
1470243578205965,-0.539085,0.0416948,-2.374
1470243578228961,-0.539211,0.0417395,-2.37404
1470243578244974,-0.539211,0.0417395,-2.37404
1470243578266007,-0.539211,0.0417395,-2.37404
1470243578288539,-0.539211,0.0417395,-2.37404
1470243578305027,-0.539162,0.0418484,-2.37406
1470243578326046,-0.539162,0.0418484,-2.37406
1470243578348594,-0.539288,0.0418931,-2.3741
1470243578366649,-0.539288,0.0418931,-2.3741
1470243578386167,-0.539288,0.0418931,-2.3741
1470243578408633,-0.539288,0.0418931,-2.3741
1470243578426636,-0.539288,0.0418931,-2.3741
1470243578446215,-0.539413,0.0419379,-2.37413
1470243578468674,-0.539461,0.0418289,-2.37411
1470243578486732,-0.539413,0.0419379,-2.37413
1470243578506208,-0.539413,0.0419379,-2.37413
1470243578528729,-0.539538,0.0419826,-2.37417
1470243578546745,-0.539538,0.0419826,-2.37417
1470243578566262,-0.539538,0.0419826,-2.37417
1470243578588782,-0.539512,0.0419925,-2.37405
1470243578606298,-0.539512,0.0419925,-2.37405
1470243578626316,-0.539512,0.0419925,-2.37405
1470243578648385,-0.539512,0.0419925,-2.37405
1470243578666920,-0.539637,0.0420372,-2.37409
1470243578685883,-0.539637,0.0420372,-2.37409
1470243578708390,-0.539637,0.0420372,-2.37409
1470243578726407,-0.539762,0.0420819,-2.37412
1470243578745949,-0.539762,0.0420819,-2.37412
1470243578768459,-0.539762,0.0420819,-2.37412
1470243578786491,-0.539762,0.0420819,-2.37412
1470243578806010,-0.539762,0.0420819,-2.37412
1470243578828498,-0.539762,0.0420819,-2.37412
1470243578846559,-0.539762,0.0420819,-2.37412
1470243578866058,-0.539722,0.0422219,-2.37407
1470243578888608,-0.539848,0.0422667,-2.3741
1470243578906595,-0.539848,0.0422667,-2.3741
1470243578926085,-0.539848,0.0422667,-2.3741
1470243578948634,-0.539848,0.0422667,-2.3741
1470243578966463,-0.539821,0.0422765,-2.37398
1470243578987453,-0.539821,0.0422765,-2.37398
1470243579008506,-0.539947,0.0423213,-2.37402
1470243579026489,-0.539947,0.0423213,-2.37402
1470243579047527,-0.539771,0.0430916,-2.37392
1470243579068571,-0.539952,0.0437647,-2.37376
1470243579086547,-0.539952,0.0437647,-2.37376
1470243579107562,-0.539952,0.0437647,-2.37376
1470243579128582,-0.539952,0.0437647,-2.37376
1470243579146596,-0.539952,0.0437647,-2.37376
1470243579167616,-0.539904,0.0438736,-2.37378
1470243579188661,-0.539904,0.0438736,-2.37378
1470243579206675,-0.539904,0.0438736,-2.37378
1470243579227669,-0.539583,0.0443677,-2.37348
1470243579248689,-0.539708,0.0444125,-2.37352
1470243579266729,-0.539708,0.0444125,-2.37352
1470243579287744,-0.539708,0.0444125,-2.37352
1470243579308781,-0.539708,0.0444125,-2.37352
1470243579326759,-0.539834,0.0444573,-2.37355
1470243579348778,-0.539834,0.0444573,-2.37355
1470243579368296,-0.539834,0.0444573,-2.37355
1470243579386921,-0.539785,0.0445662,-2.37358
1470243579409386,-0.539785,0.0445662,-2.37358
1470243579428899,-0.539785,0.0445662,-2.37358
1470243579446391,-0.539785,0.0445662,-2.37358
1470243579469460,-0.539737,0.0446751,-2.3736
1470243579488914,-0.539737,0.0446751,-2.3736
1470243579506952,-0.539844,0.0447608,-2.37344
1470243579528967,-0.539844,0.0447608,-2.37344
1470243579548458,-0.539844,0.0447608,-2.37344
1470243579566474,-0.539844,0.0447608,-2.37344
1470243579587998,-0.539844,0.0447608,-2.37344
1470243579611514,-0.539969,0.0448056,-2.37347
1470243579626529,-0.539969,0.0448056,-2.37347
1470243579648050,-0.539969,0.0448056,-2.37347
1470243579669675,-0.539969,0.0448056,-2.37347
1470243579685584,-0.539921,0.0449145,-2.3735
1470243579708101,-0.539921,0.0449145,-2.3735
1470243579729175,-0.539921,0.0449145,-2.3735
1470243579745636,-0.539921,0.0449145,-2.3735
1470243579783670,-0.539921,0.0449145,-2.3735
1470243579789174,-0.539921,0.0449145,-2.3735
1470243579805688,-0.539921,0.0449145,-2.3735
1470243579828231,-0.540046,0.0449593,-2.37353
1470243579849227,-0.539998,0.0450682,-2.37356
1470243579865771,-0.539998,0.0450682,-2.37356
1470243579888262,-0.539998,0.0450682,-2.37356
1470243579909314,-0.539998,0.0450682,-2.37356
1470243579925796,-0.539998,0.0450682,-2.37356
1470243579948316,-0.539998,0.0450682,-2.37356
1470243579969335,-0.539949,0.0451771,-2.37358
1470243579985851,-0.539949,0.0451771,-2.37358
1470243580007873,-0.539949,0.0451771,-2.37358
1470243580029443,-0.539949,0.0451771,-2.37358
1470243580045904,-0.539949,0.0451771,-2.37358
1470243580067924,-0.540075,0.0452219,-2.37361
1470243580089464,-0.540035,0.045362,-2.37356
1470243580105458,-0.540075,0.0452219,-2.37361
1470243580128478,-0.54,0.0453405,-2.37352
1470243580149497,-0.540008,0.0453717,-2.37344
1470243580165531,-0.540134,0.0454165,-2.37348
1470243580188035,-0.540134,0.0454165,-2.37348
1470243580217058,-0.540134,0.0454165,-2.37348
1470243580225566,-0.540008,0.0453717,-2.37344
1470243580248085,-0.540008,0.0453717,-2.37344
1470243580270608,-0.540085,0.0455254,-2.3735
1470243580285671,-0.540085,0.0455254,-2.3735
1470243580308141,-0.540085,0.0455254,-2.3735
1470243580338199,-0.540085,0.0455254,-2.3735
1470243580345172,-0.540085,0.0455254,-2.3735
1470243580368194,-0.540085,0.0455254,-2.3735
1470243580390714,-0.540085,0.0455254,-2.3735
1470243580404726,-0.540085,0.0455254,-2.3735
1470243580428248,-0.540037,0.0456343,-2.37352
1470243580450778,-0.540162,0.0456791,-2.37356
1470243580464782,-0.540162,0.0456791,-2.37356
1470243580488301,-0.540114,0.045788,-2.37358
1470243580510821,-0.540114,0.045788,-2.37358
1470243580524835,-0.540114,0.045788,-2.37358
1470243580548356,-0.540114,0.045788,-2.37358
1470243580570875,-0.540122,0.0458192,-2.3735
1470243580584888,-0.540122,0.0458192,-2.3735
1470243580607912,-0.540074,0.0459281,-2.37352
1470243580630929,-0.540074,0.0459281,-2.37352
1470243580644942,-0.540199,0.0459729,-2.37356
1470243580668017,-0.540199,0.0459729,-2.37356
1470243580690983,-0.540074,0.0459281,-2.37352
1470243580704997,-0.540074,0.0459281,-2.37352
1470243580728517,-0.540151,0.0460818,-2.37358
1470243580750536,-0.540151,0.0460818,-2.37358
1470243580772155,-0.540151,0.0460818,-2.37358
1470243580788071,-0.540124,0.0460915,-2.37346
1470243580810591,-0.540124,0.0460915,-2.37346
1470243580831611,-0.540619,0.045909,-2.37339
1470243580848126,-0.540744,0.0459538,-2.37342
1470243580870646,-0.540744,0.0459538,-2.37342
1470243580891692,-0.540619,0.045909,-2.37339
1470243580908178,-0.540571,0.0460179,-2.37341
1470243580930698,-0.540696,0.0460627,-2.37345
1470243580951752,-0.540696,0.0460627,-2.37345
1470243580968251,-0.540696,0.0460627,-2.37345
1470243580996791,-0.540744,0.0459538,-2.37342
1470243581011830,-0.540696,0.0460627,-2.37345
1470243581028287,-0.540744,0.0459538,-2.37342
1470243581050811,-0.540744,0.0459538,-2.37342
1470243581079333,-0.540696,0.0460627,-2.37345
1470243581087840,-0.541074,0.0458667,-2.37325
1470243581110860,-0.541668,0.0457389,-2.37309
1470243581131887,-0.542075,0.0458056,-2.37298
1470243581148405,-0.542639,0.0457456,-2.37304
1470243581170914,-0.543666,0.0456751,-2.37289
1470243581193434,-0.544485,0.045647,-2.37269
1470243581208477,-0.545058,0.0456186,-2.37267
1470243581230988,-0.545058,0.0456186,-2.37267
1470243581253489,-0.545184,0.0456634,-2.37271
1470243581269031,-0.545184,0.0456634,-2.37271
1470243581291022,-0.545184,0.0456634,-2.37271
1470243581313042,-0.545184,0.0456634,-2.37271
1470243581328098,-0.545184,0.0456634,-2.37271
1470243581350621,-0.545184,0.0456634,-2.37271
1470243581373167,-0.545184,0.0456634,-2.37271
1470243581387668,-0.545157,0.0456733,-2.37259
1470243581410670,-0.545157,0.0456733,-2.37259
1470243581433190,-0.545165,0.0457047,-2.37251
1470243581447703,-0.545165,0.0457047,-2.37251
1470243581470723,-0.544795,0.0459316,-2.37262
1470243581493246,-0.544795,0.0459316,-2.37262
1470243581507262,-0.544795,0.0459316,-2.37262
1470243581530809,-0.544795,0.0459316,-2.37262
1470243581553298,-0.544795,0.0459316,-2.37262
1470243581567310,-0.544795,0.0459316,-2.37262
1470243581590832,-0.544795,0.0459316,-2.37262
1470243581612895,-0.544795,0.0459316,-2.37262
1470243581627366,-0.544795,0.0459316,-2.37262
1470243581650885,-0.545185,0.0459356,-2.37267
1470243581673407,-0.545688,0.0461149,-2.37282
1470243581694424,-0.545737,0.0460062,-2.37279
1470243581724452,-0.545737,0.0460062,-2.37279
1470243581733483,-0.545688,0.0461149,-2.37282
1470243581754479,-0.545688,0.0461149,-2.37282
1470243581770493,-0.545661,0.0461248,-2.3727
1470243581793013,-0.545661,0.0461248,-2.3727
1470243581814532,-0.54571,0.046016,-2.37268
1470243581830549,-0.545787,0.0461696,-2.37274
1470243581853067,-0.545787,0.0461696,-2.37274
1470243581874141,-0.545787,0.0461696,-2.37274
1470243581890653,-0.545787,0.0461696,-2.37274
1470243581913121,-0.545787,0.0461696,-2.37274
1470243581934183,-0.545787,0.0461696,-2.37274
1470243581950657,-0.545787,0.0461696,-2.37274
1470243581973175,-0.545787,0.0461696,-2.37274
1470243582001700,-0.545787,0.0461696,-2.37274
1470243582010712,-0.545913,0.0462144,-2.37277
1470243582033229,-0.545787,0.0461696,-2.37274
1470243582054297,-0.545913,0.0462144,-2.37277
1470243582070765,-0.545864,0.0463232,-2.37279
1470243582093283,-0.545864,0.0463232,-2.37279
1470243582114329,-0.545864,0.0463232,-2.37279
1470243582130817,-0.54599,0.046368,-2.37283
1470243582153338,-0.54599,0.046368,-2.37283
1470243582175870,-0.54599,0.046368,-2.37283
1470243582190869,-0.54599,0.046368,-2.37283
1470243582213391,-0.54599,0.046368,-2.37283
1470243582235910,-0.54599,0.046368,-2.37283
1470243582250924,-0.545914,0.0464866,-2.37274
1470243582273491,-0.54604,0.0465315,-2.37277
1470243582295982,-0.54604,0.0465315,-2.37277
1470243582309978,-0.54604,0.0465315,-2.37277
1470243582333011,-0.54604,0.0465315,-2.37277
1470243582356019,-0.54604,0.0465315,-2.37277
1470243582370052,-0.54604,0.0465315,-2.37277
1470243582393052,-0.54604,0.0465315,-2.37277
1470243582415572,-0.546048,0.046563,-2.37269
1470243582430085,-0.546048,0.046563,-2.37269
1470243582453105,-0.546048,0.046563,-2.37269
1470243582475628,-0.546048,0.046563,-2.37269
1470243582490155,-0.546048,0.046563,-2.37269
1470243582513165,-0.546,0.0466718,-2.37272
1470243582535699,-0.546,0.0466718,-2.37272
1470243582550193,-0.546,0.0466718,-2.37272
1470243582573214,-0.545502,0.0469582,-2.37244
1470243582595733,-0.545454,0.047067,-2.37246
1470243582610246,-0.546124,0.0471979,-2.37201
1470243582633268,-0.546124,0.0471979,-2.37201
1470243582655806,-0.545557,0.047362,-2.37159
1470243582677308,-0.544884,0.0474398,-2.37134
1470243582693324,-0.544689,0.0476491,-2.37078
1470243582715842,-0.544766,0.0475772,-2.37018
1470243582736962,-0.545241,0.0475415,-2.36955
1470243582753394,-0.545395,0.0476236,-2.36902
1470243582775895,-0.545167,0.0477324,-2.36836
1470243582796914,-0.544932,0.0480818,-2.36774
1470243582813428,-0.544931,0.0484584,-2.36735
1470243582835950,-0.544931,0.0484584,-2.36735
1470243582856969,-0.54498,0.0483498,-2.36732
1470243582873007,-0.54498,0.0483498,-2.36732
1470243582895503,-0.544931,0.0484584,-2.36735
1470243582917127,-0.54414,0.0491232,-2.36724
1470243582933058,-0.543564,0.0498565,-2.36717
1470243582955559,-0.543435,0.0502455,-2.36708
1470243582984082,-0.543005,0.0506527,-2.36694
1470243582993091,-0.543005,0.0506527,-2.36694
1470243583015611,-0.543005,0.0506527,-2.36694
1470243583036658,-0.543005,0.0506527,-2.36694
1470243583053145,-0.543005,0.0506527,-2.36694
1470243583075665,-0.542831,0.0507161,-2.36693
1470243583098185,-0.54288,0.0506075,-2.36691
1470243583113222,-0.542831,0.0507161,-2.36693
1470243583135719,-0.542831,0.0507161,-2.36693
1470243583158245,-0.542831,0.0507161,-2.36693
1470243583172751,-0.542831,0.0507161,-2.36693
1470243583195772,-0.542782,0.0508248,-2.36695
1470243583218330,-0.542782,0.0508248,-2.36695
1470243583233306,-0.542782,0.0508248,-2.36695
1470243583255827,-0.542782,0.0508248,-2.36695
1470243583278348,-0.542782,0.0508248,-2.36695
1470243583300878,-0.542734,0.0509335,-2.36697
1470243583315880,-0.542734,0.0509335,-2.36697
1470243583338400,-0.542742,0.050965,-2.3669
1470243583352423,-0.542264,0.0514808,-2.36678
1470243583375936,-0.541969,0.0519646,-2.3666
1470243583398454,-0.542017,0.0518559,-2.36658
1470243583412467,-0.542017,0.0518559,-2.36658
1470243583435988,-0.542181,0.0524675,-2.36658
1470243583458010,-0.542055,0.0524222,-2.36654
1470243583472521,-0.542132,0.0525761,-2.3666
1470243583495542,-0.541889,0.0531196,-2.36671
1470243583518062,-0.541878,0.0541249,-2.36701
1470243583532575,-0.542101,0.0545554,-2.36726
1470243583555597,-0.542325,0.0549858,-2.36752
1470243583578115,-0.542714,0.0553212,-2.36787
1470243583599176,-0.542714,0.0553212,-2.36787
1470243583615669,-0.542942,0.055317,-2.36818
1470243583638181,-0.542816,0.0552717,-2.36814
1470243583659689,-0.542795,0.0553711,-2.36828
1470243583675703,-0.542795,0.0553711,-2.36828
1470243583698224,-0.542746,0.0554798,-2.36831
1470243583719244,-0.542719,0.0554891,-2.36819
1470243583743265,-0.542845,0.0555344,-2.36822
1470243583758277,-0.542845,0.0555344,-2.36822
1470243583779324,-0.542875,0.0550905,-2.36839
1470243583795811,-0.542633,0.0546556,-2.36863
1470243583818332,-0.542585,0.0547643,-2.36865
1470243583839391,-0.542585,0.0547643,-2.36865
1470243583855896,-0.542274,0.0551855,-2.36863
1470243583878387,-0.542003,0.0554665,-2.36866
1470243583899404,-0.542177,0.055403,-2.36867
1470243583915919,-0.542617,0.054923,-2.36909
1470243583937939,-0.542872,0.0542028,-2.36961
1470243583959493,-0.542973,0.0531748,-2.37
1470243583975472,-0.54286,0.0523508,-2.37033
1470243583997995,-0.542385,0.0514546,-2.37039
1470243584019535,-0.5416,0.05098,-2.37042
1470243584035527,-0.541201,0.0503415,-2.37019
1470243584058052,-0.541192,0.0497074,-2.37
1470243584080567,-0.541301,0.0490871,-2.36993
1470243584095601,-0.541447,0.0487608,-2.36986
1470243584118102,-0.541554,0.0484709,-2.37009
1470243584140621,-0.541283,0.0483763,-2.37051
1470243584155645,-0.54118,0.0484589,-2.37099
1470243584178154,-0.541152,0.0484232,-2.37156
1470243584200680,-0.541173,0.0482786,-2.37212
1470243584215188,-0.541331,0.0477761,-2.37268
1470243584238209,-0.541518,0.0472057,-2.37302
1470243584260728,-0.541588,0.0466218,-2.37325
1470243584274743,-0.541384,0.046151,-2.37319
1470243584298310,-0.540938,0.0458942,-2.37294
1470243584320828,-0.540635,0.0457446,-2.37257
1470243584335295,-0.540635,0.0457446,-2.37257
1470243584358316,-0.540761,0.0457894,-2.37261
1470243584380837,-0.541211,0.0452821,-2.37261
1470243584395349,-0.541754,0.044615,-2.3729
1470243584418392,-0.542039,0.0438269,-2.3732
1470243584440892,-0.54204,0.0431207,-2.37329
1470243584454903,-0.541858,0.0425509,-2.37309
1470243584478424,-0.541517,0.0424379,-2.37302
1470243584501448,-0.540915,0.0423076,-2.37261
1470243584514957,-0.540915,0.0423076,-2.37261
1470243584537980,-0.541041,0.0423524,-2.37264
1470243584560498,-0.541334,0.0419717,-2.37247
1470243584581530,-0.541694,0.0414411,-2.37247
1470243584598044,-0.542262,0.0409475,-2.37258
1470243584620553,-0.542262,0.0409475,-2.37258
1470243584641588,-0.54227,0.0409788,-2.37251
1470243584658086,-0.54227,0.0409788,-2.37251
1470243584680610,-0.54227,0.0409788,-2.37251
1470243584701654,-0.54227,0.0409788,-2.37251
1470243584718178,-0.542262,0.0409475,-2.37258
1470243584740698,-0.542262,0.0409475,-2.37258
1470243584761734,-0.542475,0.0404709,-2.37269
1470243584778195,-0.5423,0.040535,-2.37268
1470243584800714,-0.5423,0.040535,-2.37268
1470243584821732,-0.541745,0.040626,-2.37254
1470243584838247,-0.541155,0.0406958,-2.37236
1470243584860768,-0.540747,0.0407326,-2.37212
1470243584866274,-0.540747,0.0407326,-2.37212
1470243584888801,-0.540872,0.0407774,-2.37216
1470243584903806,-0.540872,0.0407774,-2.37216
1470243584926346,-0.541077,0.0402696,-2.37234
1470243584948847,-0.541028,0.0403785,-2.37236
1470243584963860,-0.541028,0.0403785,-2.37236
1470243584985881,-0.540241,0.0406111,-2.37231
1470243585008901,-0.539581,0.0408885,-2.3723
1470243585023914,-0.539209,0.0412188,-2.37206
1470243585046457,-0.539209,0.0412188,-2.37206
1470243585068454,-0.539258,0.0411099,-2.37204
1470243585083980,-0.539258,0.0411099,-2.37204
1470243585105987,-0.539258,0.0411099,-2.37204
1470243585129008,-0.539258,0.0411099,-2.37204
1470243585143524,-0.538754,0.0412611,-2.37219
1470243585166042,-0.538754,0.0412611,-2.37219
1470243585188562,-0.538754,0.0412611,-2.37219
1470243585203577,-0.538754,0.0412611,-2.37219
1470243585226096,-0.538803,0.0411522,-2.37217
1470243585248646,-0.538754,0.0412611,-2.37219
1470243585263629,-0.538754,0.0412611,-2.37219
1470243585286176,-0.538754,0.0412611,-2.37219
1470243585308698,-0.538754,0.0412611,-2.37219
1470243585331215,-0.538637,0.0412473,-2.37208
1470243585346230,-0.538629,0.0412163,-2.37216
1470243585368839,-0.538629,0.0412163,-2.37216
1470243585383792,-0.538754,0.0412611,-2.37219
1470243585406264,-0.539405,0.0406801,-2.37233
1470243585428777,-0.539757,0.0401183,-2.37241
1470243585443791,-0.539708,0.0402272,-2.37243
1470243585466311,-0.539583,0.0401824,-2.37239
1470243585488946,-0.539659,0.0403361,-2.37245
1470243585503845,-0.539427,0.0405812,-2.37218
1470243585526372,-0.539476,0.0404723,-2.37216
1470243585548944,-0.539601,0.0405171,-2.3722
1470243585563900,-0.539601,0.0405171,-2.3722
1470243585586444,-0.540214,0.0402452,-2.37259
1470243585612008,-0.540099,0.0401283,-2.37283
1470243585624976,-0.54005,0.0402372,-2.37285
1470243585646489,-0.539389,0.0405148,-2.37284
1470243585668492,-0.538648,0.0410722,-2.37271
1470243585685045,-0.538046,0.0415444,-2.37256
1470243585706026,-0.538095,0.0414355,-2.37253
1470243585728581,-0.53822,0.0414803,-2.37257
1470243585745094,-0.53822,0.0414803,-2.37257
1470243585766115,-0.538608,0.0412122,-2.37265
1470243585788600,-0.538608,0.0412122,-2.37265
1470243585805121,-0.538483,0.0411674,-2.37262
1470243585826149,-0.537879,0.041367,-2.3725
1470243585851657,-0.537451,0.041775,-2.37236
1470243585865170,-0.537617,0.0420553,-2.37206
1470243585886188,-0.538157,0.0421977,-2.37191
1470243585908710,-0.538819,0.0421929,-2.37189
1470243585925251,-0.539731,0.0420053,-2.37197
1470243585946305,-0.540334,0.0418057,-2.37209
1470243585968800,-0.540209,0.0417609,-2.37205
1470243585986779,-0.539526,0.0421372,-2.37218
1470243586006297,-0.539117,0.0427767,-2.3722
1470243586036323,-0.538689,0.0431847,-2.37206
1470243586046832,-0.538386,0.0436375,-2.37195
1470243586066350,-0.538231,0.0440361,-2.37175
1470243586088870,-0.538356,0.044081,-2.37178
1470243586107021,-0.538405,0.0439721,-2.37176
1470243586126503,-0.538843,0.0438677,-2.37178
1470243586156447,-0.538843,0.0438677,-2.37178
1470243586166440,-0.538843,0.0438677,-2.37178
1470243586186478,-0.538231,0.0440361,-2.37175
1470243586208569,-0.538231,0.0440361,-2.37175
1470243586226494,-0.538231,0.0440361,-2.37175
1470243586246028,-0.538396,0.043941,-2.37184
1470243586268552,-0.538396,0.043941,-2.37184
1470243586286549,-0.538883,0.0437278,-2.37184
1470243586306100,-0.539263,0.0434286,-2.372
1470243586328685,-0.539263,0.0434286,-2.372
1470243586346644,-0.538804,0.0439046,-2.37208
1470243586366149,-0.538212,0.0443046,-2.3722
1470243586388683,-0.537879,0.0448255,-2.37232
1470243586406713,-0.537928,0.0447166,-2.3723
1470243586426215,-0.537928,0.0447166,-2.3723
1470243586448726,-0.537901,0.0447264,-2.37218
1470243586466735,-0.538267,0.0445575,-2.3724
1470243586486259,-0.538093,0.0446215,-2.37239
1470243586508747,-0.538093,0.0446215,-2.37239
1470243586526763,-0.538093,0.0446215,-2.37239
1470243586546313,-0.538093,0.0446215,-2.37239
1470243586568818,-0.538093,0.0446215,-2.37239
1470243586586818,-0.538093,0.0446215,-2.37239
1470243586607851,-0.538784,0.0442761,-2.37218
1470243586631951,-0.53897,0.0438094,-2.37217
1470243586646995,-0.538933,0.0435157,-2.37217
1470243586667398,-0.538933,0.0435157,-2.37217
1470243586689006,-0.538455,0.0437602,-2.37209
1470243586706424,-0.53799,0.0438745,-2.37195
1470243586727446,-0.53799,0.0438745,-2.37195
1470243586748462,-0.538039,0.0437656,-2.37193
1470243586766479,-0.538699,0.0434882,-2.37194
1470243586787497,-0.539544,0.0430748,-2.37225
1470243586808545,-0.539923,0.0427755,-2.37241
1470243586832541,-0.54007,0.0423456,-2.37269
1470243586847583,-0.53945,0.0424832,-2.37274
1470243586868626,-0.538351,0.0428653,-2.3727
1470243586886663,-0.537806,0.0432596,-2.37244
1470243586909110,-0.537691,0.0435183,-2.37229
1470243586929124,-0.537816,0.0435631,-2.37233
1470243586946641,-0.537816,0.0435631,-2.37233
1470243586969177,-0.538583,0.0429959,-2.37257
1470243586988717,-0.538904,0.042502,-2.37287
1470243587006738,-0.538985,0.042222,-2.37299
1470243587029250,-0.538439,0.042241,-2.37312
1470243587048786,-0.537383,0.0427559,-2.37311
1470243587066793,-0.537257,0.0427111,-2.37307
1470243587089307,-0.537623,0.0429173,-2.3729
1470243587108786,-0.537672,0.0428084,-2.37288
1470243587126803,-0.538332,0.0425308,-2.37289
1470243587149322,-0.539207,0.042049,-2.37298
1470243587168840,-0.539627,0.0416097,-2.3732
1470243587186856,-0.539587,0.0417497,-2.37314
1470243587209517,-0.538975,0.0419185,-2.3731
1470243587228914,-0.538225,0.0424451,-2.37306
1470243587246942,-0.537944,0.0427989,-2.37281
1470243587268929,-0.53807,0.0428437,-2.37285
1470243587289490,-0.538118,0.0427348,-2.37282
1470243587307025,-0.538713,0.042504,-2.37302
1470243587328986,-0.539285,0.0420995,-2.37339
1470243587348566,-0.539317,0.0419284,-2.37352
1470243587366545,-0.539268,0.0420373,-2.37355
1470243587389037,-0.538469,0.0424005,-2.37356
1470243587409558,-0.537352,0.042824,-2.37333
1470243587426096,-0.537098,0.043168,-2.3732
1470243587448142,-0.537245,0.0431136,-2.37309
1470243587469610,-0.537237,0.0430826,-2.37317
1470243587485628,-0.537964,0.0426551,-2.37336
1470243587508145,-0.538267,0.0422021,-2.37347
1470243587529196,-0.538218,0.042311,-2.37349
1470243587545689,-0.537695,0.042231,-2.37348
1470243587568198,-0.536918,0.0424951,-2.37336
1470243587589273,-0.536226,0.0429438,-2.37321
1470243587605733,-0.536392,0.0432238,-2.37291
1470243587628252,-0.536565,0.0431597,-2.37292
1470243587649783,-0.537226,0.042882,-2.37294
1470243587665786,-0.537801,0.0424196,-2.37297
1470243587688317,-0.53813,0.0419568,-2.37319
1470243587709358,-0.538081,0.0420657,-2.37321
1470243587725840,-0.537353,0.0422207,-2.37306
1470243587748361,-0.536848,0.0424751,-2.37287
1470243587769379,-0.536499,0.042706,-2.37248
1470243587785894,-0.536548,0.0425971,-2.37246
1470243587808416,-0.536673,0.0426419,-2.3725
1470243587829507,-0.537373,0.0422245,-2.37257
1470243587845947,-0.537967,0.0417213,-2.3728
1470243587868470,-0.538288,0.0412275,-2.3731
1470243587891004,-0.538239,0.0413364,-2.37312
1470243587906008,-0.537328,0.0415246,-2.37304
1470243587928522,-0.53685,0.0417691,-2.37296
1470243587951042,-0.536842,0.0417381,-2.37304
1470243587966055,-0.53689,0.0416292,-2.37301
1470243587988096,-0.537015,0.041674,-2.37305
1470243588010596,-0.537367,0.0411122,-2.37313
1470243588025110,-0.537803,0.040735,-2.37319
1470243588048129,-0.53769,0.0402877,-2.37313
1470243588070650,-0.53701,0.0403338,-2.37296
1470243588085165,-0.536332,0.0406522,-2.37275
1470243588108187,-0.536175,0.0407782,-2.37258
1470243588130703,-0.536175,0.0407782,-2.37258
1470243588145221,-0.536349,0.0407141,-2.37259
1470243588168271,-0.536865,0.0400573,-2.37277
1470243588190757,-0.537285,0.0396183,-2.37298
1470243588205270,-0.53749,0.0393833,-2.37313
1470243588228793,-0.537499,0.0394143,-2.37305
1470243588250811,-0.53674,0.0396372,-2.37312
1470243588264823,-0.536227,0.0398607,-2.373
1470243588288345,-0.536227,0.0398607,-2.373
1470243588310867,-0.536275,0.0397518,-2.37298
1470243588324893,-0.5364,0.0397965,-2.37302
1470243588348409,-0.5364,0.0397965,-2.37302
1470243588370919,-0.5364,0.0397965,-2.37302
1470243588391949,-0.536352,0.0399055,-2.37304
1470243588408468,-0.536352,0.0399055,-2.37304
1470243588430473,-0.535799,0.0402687,-2.37286
1470243588451992,-0.53567,0.0406573,-2.37277
1470243588468506,-0.535719,0.0405483,-2.37275
1470243588491027,-0.535719,0.0405483,-2.37275
1470243588512046,-0.536398,0.0405025,-2.37292
1470243588528560,-0.537127,0.0403476,-2.37307
1470243588551081,-0.537127,0.0403476,-2.37307
1470243588572100,-0.536953,0.0404118,-2.37306
1470243588588114,-0.536503,0.0409189,-2.37306
1470243588610634,-0.536075,0.0413269,-2.37292
1470243588632255,-0.535911,0.0416945,-2.37279
1470243588648168,-0.536085,0.0416304,-2.37281
1470243588670688,-0.536085,0.0416304,-2.37281
1470243588691708,-0.536688,0.0414307,-2.37292
1470243588708222,-0.537193,0.0411763,-2.37312
1470243588730742,-0.537524,0.040986,-2.3733
1470243588751805,-0.537524,0.040986,-2.3733
1470243588768276,-0.536988,0.0413086,-2.37332
1470243588790796,-0.536988,0.0413086,-2.37332
1470243588821372,-0.536988,0.0413086,-2.37332
1470243588827830,-0.53698,0.0412776,-2.3734
1470243588850862,-0.537114,0.0413533,-2.37336
1470243588873375,-0.537618,0.0410988,-2.37356
1470243588888384,-0.537618,0.0410988,-2.37356
1470243588910906,-0.53757,0.0412078,-2.37358
1470243588933424,-0.537057,0.0414313,-2.37346
1470243588948437,-0.537182,0.0414761,-2.3735
1470243588970957,-0.537182,0.0414761,-2.3735
1470243588993478,-0.537182,0.0414761,-2.3735
1470243589007513,-0.537182,0.0414761,-2.3735
1470243589031012,-0.537182,0.0414761,-2.3735
1470243589053531,-0.537182,0.0414761,-2.3735
1470243589067544,-0.537182,0.0414761,-2.3735
1470243589091066,-0.53719,0.041507,-2.37342
1470243589113586,-0.537142,0.041616,-2.37344
1470243589127599,-0.537142,0.041616,-2.37344
1470243589150619,-0.537307,0.0415208,-2.37353
1470243589173142,-0.537307,0.0415208,-2.37353
1470243589187652,-0.537307,0.0415208,-2.37353
1470243589210673,-0.537307,0.0415208,-2.37353
1470243589233198,-0.537307,0.0415208,-2.37353
1470243589247707,-0.537307,0.0415208,-2.37353
1470243589270728,-0.53692,0.0417891,-2.37345
1470243589293247,-0.53692,0.0417891,-2.37345
1470243589314768,-0.53692,0.0417891,-2.37345
1470243589330782,-0.53692,0.0417891,-2.37345
1470243589353301,-0.537045,0.0418339,-2.37349
1470243589374375,-0.537045,0.0418339,-2.37349
1470243589390837,-0.537075,0.0413905,-2.37366
1470243589413377,-0.537026,0.0414994,-2.37368
1470243589434418,-0.537026,0.0414994,-2.37368
1470243589450889,-0.536599,0.0419076,-2.37354
1470243589473458,-0.536599,0.0419076,-2.37354
1470243589494440,-0.536772,0.0418434,-2.37355
1470243589510943,-0.536772,0.0418434,-2.37355
1470243589533463,-0.537367,0.0416125,-2.37375
1470243589554528,-0.537938,0.0412081,-2.37412
1470243589570996,-0.53789,0.041317,-2.37414
1470243589601050,-0.53731,0.0413152,-2.37424
1470243589614537,-0.536609,0.0417332,-2.37417
1470243589631050,-0.536484,0.0416885,-2.37414
1470243589653072,-0.536609,0.0417332,-2.37417
1470243589674590,-0.536649,0.0415933,-2.37423
1470243589690622,-0.536649,0.0415933,-2.37423
1470243589713124,-0.537211,0.0412606,-2.37432
1470243589734187,-0.537211,0.0412606,-2.37432
1470243589750658,-0.537211,0.0412606,-2.37432
1470243589773180,-0.536658,0.0416242,-2.37415
1470243589795698,-0.536521,0.0419821,-2.37414
1470243589810714,-0.536569,0.0418731,-2.37412
1470243589833232,-0.536569,0.0418731,-2.37412
1470243589855752,-0.537132,0.041813,-2.37417
1470243589870765,-0.537677,0.0414183,-2.37443
1470243589893286,-0.538017,0.0411559,-2.37489
1470243589915808,-0.538026,0.0411869,-2.37481
1470243589930319,-0.537483,0.0414788,-2.37491
1470243589953340,-0.536677,0.0420841,-2.37496
1470243589975860,-0.536201,0.0426015,-2.37485
1470243589990374,-0.536201,0.0426015,-2.37485
1470243590013395,-0.53625,0.0424925,-2.37482
1470243590035913,-0.53625,0.0424925,-2.37482
1470243590049928,-0.53625,0.0424925,-2.37482
1470243590073485,-0.536201,0.0426015,-2.37485
1470243590095976,-0.536201,0.0426015,-2.37485
1470243590117036,-0.536201,0.0426015,-2.37485
1470243590133501,-0.536201,0.0426015,-2.37485
1470243590156021,-0.536201,0.0426015,-2.37485
1470243590170035,-0.536201,0.0426015,-2.37485
1470243590193062,-0.53625,0.0424925,-2.37482
1470243590216093,-0.536958,0.0421053,-2.37481
1470243590230088,-0.537251,0.0417239,-2.37464
1470243590253111,-0.537251,0.0417239,-2.37464
1470243590275660,-0.537202,0.0418329,-2.37466
1470243590297149,-0.536815,0.0421013,-2.37458
1470243590313218,-0.536462,0.042391,-2.37454
1470243590335683,-0.53651,0.042282,-2.37452
1470243590357241,-0.536627,0.0422957,-2.37463
1470243590373217,-0.537154,0.0419418,-2.37469
1470243590395737,-0.537949,0.0416364,-2.37501
1470243590417258,-0.5379,0.0417453,-2.37503
1470243590433273,-0.537909,0.0417764,-2.37496
1470243590455791,-0.537106,0.041948,-2.37506
1470243590476816,-0.536406,0.0423663,-2.37499
1470243590493325,-0.536326,0.0426462,-2.37488
1470243590515900,-0.537015,0.0430057,-2.37458
1470243590536866,-0.537181,0.0429105,-2.37468
1470243590553379,-0.537023,0.0426615,-2.3749
1470243590575899,-0.537493,0.0423855,-2.37505
1470243590604462,-0.537493,0.0423855,-2.37505
1470243590613433,-0.536793,0.0428038,-2.37498
1470243590636018,-0.53624,0.0431675,-2.37481
1470243590656975,-0.535665,0.0436305,-2.37477
1470243590673492,-0.535539,0.0442917,-2.37465
1470243590696006,-0.536099,0.044665,-2.37465
1470243590718530,-0.536769,0.0446902,-2.37455
1470243590733040,-0.5371,0.0444997,-2.37473
1470243590755564,-0.536926,0.0445639,-2.37472
1470243590778080,-0.536926,0.0445639,-2.37472
1470243590793102,-0.536235,0.0450131,-2.37457
1470243590815614,-0.535535,0.0454313,-2.3745
1470243590838135,-0.534964,0.0458354,-2.37413
1470243590852684,-0.534892,0.0461462,-2.37394
1470243590875669,-0.535632,0.0459632,-2.37367
1470243590898190,-0.53623,0.0459245,-2.37377
1470243590912711,-0.536494,0.0458838,-2.37378
1470243590935722,-0.536494,0.0458838,-2.37378
1470243590958242,-0.536329,0.0459789,-2.37369
1470243590972792,-0.535572,0.0464748,-2.37372
1470243590995776,-0.535028,0.0468691,-2.37346
1470243591018318,-0.535028,0.0468691,-2.37346
1470243591032851,-0.535647,0.0467311,-2.37342
1470243591055830,-0.536454,0.0463988,-2.37333
1470243591078350,-0.536882,0.0459906,-2.37347
1470243591092862,-0.537114,0.0457458,-2.37374
1470243591115883,-0.536989,0.045701,-2.3737
1470243591138406,-0.536414,0.0461638,-2.37367
1470243591152917,-0.535813,0.046636,-2.37351
1470243591175974,-0.535986,0.0465719,-2.37353
1470243591198458,-0.53596,0.0465815,-2.37341
1470243591219509,-0.53596,0.0465815,-2.37341
1470243591235991,-0.536686,0.0461541,-2.3736
1470243591258511,-0.537239,0.0457907,-2.37377
1470243591279530,-0.537319,0.0455106,-2.37389
1470243591296046,-0.537319,0.0455106,-2.37389
1470243591318566,-0.536582,0.0456349,-2.37381
1470243591339682,-0.536105,0.0458797,-2.37373
1470243591355624,-0.536105,0.0458797,-2.37373
1470243591378118,-0.536105,0.0458797,-2.37373
1470243591399717,-0.536252,0.0458252,-2.37363
1470243591415658,-0.536756,0.0455707,-2.37383
1470243591438173,-0.536756,0.0455707,-2.37383
1470243591459192,-0.536756,0.0455707,-2.37383
1470243591483214,-0.536387,0.0457983,-2.37394
1470243591498227,-0.535554,0.0461405,-2.37391
1470243591519247,-0.535193,0.0463992,-2.37395
1470243591535762,-0.535318,0.046444,-2.37398
1470243591558283,-0.53534,0.0463446,-2.37384
1470243591579383,-0.535884,0.0459502,-2.3741
1470243591595814,-0.536255,0.0456198,-2.37434
1470243591618334,-0.536322,0.0454702,-2.37451
1470243591639398,-0.536322,0.0454702,-2.37451
1470243591655869,-0.535585,0.0455947,-2.37444
1470243591678389,-0.534683,0.0458142,-2.37427
1470243591700909,-0.534683,0.0458142,-2.37427
1470243591715923,-0.534683,0.0458142,-2.37427
1470243591738443,-0.535322,0.0453043,-2.37413
1470243591760963,-0.535847,0.0446781,-2.37422
1470243591775995,-0.536032,0.0442113,-2.37421
1470243591798497,-0.53587,0.0438729,-2.37418
1470243591821016,-0.535905,0.0438941,-2.37422
1470243591835032,-0.535226,0.0442128,-2.374
1470243591858056,-0.534779,0.0443892,-2.37371
1470243591881077,-0.534779,0.0443892,-2.37371
1470243591895083,-0.534944,0.0442941,-2.3738
1470243591918104,-0.535535,0.0438933,-2.37368
1470243591940624,-0.535838,0.0434403,-2.37378
1470243591955137,-0.536015,0.0429426,-2.37385
1470243591978158,-0.535966,0.0430516,-2.37387
1470243592000680,-0.535161,0.043053,-2.37366
1470243592015216,-0.534567,0.0432837,-2.37347
1470243592038212,-0.533986,0.0433841,-2.37321
1470243592061233,-0.534111,0.0434289,-2.37325
1470243592075245,-0.534159,0.0433199,-2.37323
1470243592098266,-0.534587,0.0429119,-2.37336
1470243592120786,-0.535085,0.0422957,-2.37334
1470243592135299,-0.535347,0.0419827,-2.37339
1470243592158321,-0.535347,0.0419827,-2.37339
1470243592180845,-0.535299,0.0420917,-2.37341
1470243592202367,-0.534968,0.0422818,-2.37323
1470243592218377,-0.53489,0.0422304,-2.37281
1470243592240896,-0.53489,0.0422304,-2.37281
1470243592261978,-0.535433,0.0419389,-2.37271
1470243592278428,-0.536415,0.0415429,-2.37264
1470243592300965,-0.537289,0.0410613,-2.37272
1470243592322007,-0.537289,0.0410613,-2.37272
1470243592338482,-0.536588,0.0414787,-2.37265
1470243592361001,-0.53593,0.0420288,-2.3726
1470243592382020,-0.536043,0.0424762,-2.37266
1470243592398535,-0.536344,0.0427294,-2.37267
1470243592421055,-0.537266,0.0427421,-2.37299
1470243592442074,-0.538442,0.0424104,-2.37344
1470243592458096,-0.539288,0.0418931,-2.3741
1470243592480613,-0.539658,0.0411868,-2.37473
1470243592502129,-0.539301,0.0409086,-2.37517
1470243592518145,-0.539154,0.040963,-2.37528
1470243592540663,-0.539154,0.040963,-2.37528
1470243592562183,-0.539154,0.040963,-2.37528
1470243592578196,-0.539202,0.040854,-2.37526
1470243592600717,-0.539202,0.040854,-2.37526
1470243592623238,-0.539144,0.041638,-2.37527
1470243592628745,-0.539842,0.0420289,-2.37489
1470243592643756,-0.540043,0.0423305,-2.37463
1470243592666275,-0.539313,0.0431923,-2.37439
1470243592688796,-0.538372,0.0438245,-2.37413
1470243592703811,-0.537594,0.0440888,-2.374
1470243592726374,-0.537661,0.0443144,-2.37378
1470243592748863,-0.53771,0.0442055,-2.37376
1470243592763863,-0.53841,0.0437875,-2.37383
1470243592786384,-0.53841,0.0437875,-2.37383
1470243592808903,-0.538236,0.0438517,-2.37382
1470243592826920,-0.538245,0.0438828,-2.37374
1470243592846438,-0.537613,0.0444233,-2.37381
1470243592869047,-0.536905,0.0448102,-2.37381
1470243592883971,-0.536612,0.0451915,-2.37399
1470243592905999,-0.536612,0.0451915,-2.37399
1470243592929012,-0.537506,0.0449409,-2.37423
1470243592944025,-0.538467,0.0445403,-2.37465
1470243592966079,-0.538683,0.044233,-2.37507
1470243592988565,-0.538442,0.0440716,-2.37528
1470243593003611,-0.538442,0.0440716,-2.37528
1470243593026099,-0.537867,0.0445348,-2.37524
1470243593048620,-0.537371,0.0448207,-2.37496
1470243593063683,-0.537419,0.0447118,-2.37494
1470243593086154,-0.537537,0.0447254,-2.37506
1470243593108706,-0.537585,0.0446165,-2.37503
1470243593125188,-0.538197,0.0444471,-2.37507
1470243593146254,-0.538635,0.0443419,-2.37509
1470243593168753,-0.538586,0.0444509,-2.37512
1470243593185242,-0.537761,0.0448246,-2.37501
1470243593206767,-0.536964,0.0454609,-2.37498
1470243593228780,-0.536759,0.0456962,-2.37484
1470243593245296,-0.536759,0.0456962,-2.37484
1470243593266537,-0.537517,0.0454723,-2.37477
1470243593288965,-0.538236,0.0450131,-2.37504
1470243593304995,-0.538556,0.044519,-2.37534
1470243593326500,-0.53854,0.0444567,-2.37549
1470243593349019,-0.53788,0.0447352,-2.37548
1470243593365035,-0.536907,0.0451637,-2.37548
1470243593386106,-0.535887,0.0457011,-2.3755
1470243593408628,-0.535297,0.0464772,-2.37523
1470243593425100,-0.535286,0.0468799,-2.37525
1470243593446105,-0.535286,0.0468799,-2.37525
1470243593469126,-0.535411,0.0469247,-2.37529
1470243593486676,-0.535363,0.0470337,-2.37531
1470243593506736,-0.535315,0.0471427,-2.37533
1470243593531685,-0.53413,0.0474439,-2.37496
1470243593546697,-0.532335,0.0479141,-2.37455
1470243593566731,-0.53053,0.0484544,-2.37387
1470243593588761,-0.529219,0.0484369,-2.3735
1470243593606802,-0.528717,0.047985,-2.37339
1470243593626313,-0.529056,0.047494,-2.3732
1470243593659314,-0.529377,0.0470013,-2.3735
1470243593666900,-0.529124,0.0466391,-2.37347
1470243593686327,-0.528032,0.0465885,-2.37349
1470243593708880,-0.526569,0.0468669,-2.37327
1470243593732863,-0.525233,0.04719,-2.37308
1470243593746401,-0.524554,0.0472351,-2.37291
1470243593768896,-0.524671,0.0472497,-2.37302
1470243593786912,-0.524693,0.0471499,-2.37288
1470243593806518,-0.525059,0.0466493,-2.37281
1470243593829027,-0.524789,0.0463267,-2.37258
1470243593846465,-0.524088,0.0468443,-2.37215
1470243593866484,-0.523186,0.0475352,-2.37124
1470243593889004,-0.521922,0.0482111,-2.3704
1470243593906519,-0.520675,0.0486559,-2.36986
1470243593926071,-0.519832,0.0487936,-2.36959
1470243593949057,-0.51988,0.0486845,-2.36957
1470243593966577,-0.520375,0.0481689,-2.3692
1470243593987629,-0.521061,0.0475501,-2.36903
1470243594009125,-0.521361,0.0471985,-2.36878
1470243594026644,-0.520937,0.0472718,-2.36834
1470243594046651,-0.519823,0.0474184,-2.36815
1470243594069189,-0.518527,0.0479705,-2.36763
1470243594086681,-0.517547,0.0484643,-2.36735
1470243594106233,-0.517316,0.0487064,-2.36708
1470243594128720,-0.517364,0.0485973,-2.36706
1470243594146764,-0.518167,0.0479941,-2.36701
1470243594167764,-0.519087,0.0474062,-2.36707
1470243594188801,-0.51938,0.0470246,-2.3669
1470243594206788,-0.5187,0.0471665,-2.36638
1470243594227808,-0.517733,0.0476292,-2.36569
1470243594249012,-0.516946,0.0480576,-2.36493
1470243594266987,-0.516365,0.0482529,-2.36432
1470243594287500,-0.516238,0.0480337,-2.36397
1470243594309019,-0.516278,0.0478948,-2.36403
1470243594327035,-0.517559,0.0470514,-2.36406
1470243594348055,-0.519063,0.0460355,-2.36408
1470243594369179,-0.51981,0.0452397,-2.36417
1470243594386588,-0.519289,0.0451576,-2.36417
1470243594407607,-0.518555,0.0452782,-2.3641
1470243594428659,-0.517878,0.0453197,-2.36393
1470243594446668,-0.517348,0.0453068,-2.36365
1470243594467668,-0.517521,0.0452432,-2.36367
1470243594491696,-0.518407,0.0443635,-2.36373
1470243594506715,-0.51964,0.0433566,-2.36382
1470243594529218,-0.520865,0.0423195,-2.36398
1470243594548747,-0.521809,0.0413608,-2.36395
1470243594566752,-0.521668,0.0409823,-2.36411
1470243594589329,-0.520809,0.0410576,-2.364
1470243594608823,-0.5201,0.0411685,-2.36406
1470243594626823,-0.519811,0.0412168,-2.36393
1470243594649360,-0.51986,0.0411078,-2.36391
1470243594668841,-0.520461,0.0406389,-2.36406
1470243594686858,-0.521299,0.0398681,-2.36414
1470243594709378,-0.522187,0.0389882,-2.3642
1470243594728950,-0.522548,0.0384586,-2.36421
1470243594747036,-0.522183,0.0383528,-2.36403
1470243594769432,-0.521217,0.0384428,-2.36373
1470243594789014,-0.520161,0.0387804,-2.3634
1470243594807044,-0.519698,0.0389917,-2.36291
1470243594829580,-0.519863,0.0388982,-2.363
1470243594849010,-0.519912,0.0387892,-2.36298
1470243594867043,-0.520809,0.0379399,-2.36296
1470243594889543,-0.521838,0.0370661,-2.36326
1470243594908588,-0.522264,0.0362987,-2.36318
1470243594926619,-0.52214,0.0359803,-2.36319
1470243594949152,-0.521289,0.0360852,-2.36301
1470243594969111,-0.520315,0.0361447,-2.36279
1470243594986630,-0.519514,0.0361404,-2.36259
1470243595009148,-0.519688,0.0360767,-2.3626
1470243595028665,-0.520024,0.0352841,-2.36253
1470243595046684,-0.52045,0.034517,-2.36245
1470243595069202,-0.521249,0.0336125,-2.36252
1470243595090220,-0.521817,0.0329506,-2.36232
1470243595106766,-0.521388,0.0327201,-2.36201
1470243595129258,-0.520934,0.0328618,-2.36179
1470243595149813,-0.520257,0.0329024,-2.36162
1470243595165791,-0.520125,0.0329268,-2.36131
1470243595188309,-0.520175,0.0328178,-2.36129
1470243595209329,-0.520958,0.0325892,-2.36134
1470243595225842,-0.521783,0.0322218,-2.36144
1470243595248363,-0.522658,0.0317454,-2.36152
1470243595269502,-0.523011,0.0314597,-2.36156
1470243595285910,-0.523011,0.0314597,-2.36156
1470243595308416,-0.522608,0.0318543,-2.36154
1470243595329468,-0.52208,0.0324769,-2.36144
1470243595345968,-0.521652,0.0328817,-2.3613
1470243595368475,-0.521422,0.0334861,-2.36125
1470243595389503,-0.521719,0.0337412,-2.36126
1470243595406006,-0.522554,0.034039,-2.36146
1470243595428524,-0.52352,0.0342233,-2.36171
1470243595451044,-0.524538,0.034387,-2.3622
1470243595466058,-0.524603,0.034684,-2.36264
1470243595488606,-0.524689,0.0351298,-2.3632
1470243595511098,-0.524501,0.0354953,-2.36356
1470243595526111,-0.52413,0.0359947,-2.36363
1470243595548181,-0.523621,0.0365778,-2.36373
1470243595571152,-0.523432,0.0370436,-2.36374
1470243595585165,-0.523178,0.0376584,-2.36357
1470243595608188,-0.523149,0.0384628,-2.36361
1470243595630707,-0.523375,0.0391986,-2.36374
1470243595645221,-0.523668,0.0397855,-2.36405
1470243595668239,-0.524069,0.0403572,-2.36454
1470243595690759,-0.524239,0.0407983,-2.36517
1470243595705273,-0.523987,0.0409396,-2.36575
1470243595728293,-0.523498,0.0413833,-2.3664
1470243595750814,-0.523329,0.0420825,-2.36656
1470243595765327,-0.522831,0.0429696,-2.36655
1470243595788347,-0.522168,0.0439507,-2.36644
1470243595811869,-0.521893,0.0446651,-2.36641
1470243595825380,-0.521502,0.0456371,-2.36623
1470243595848401,-0.521514,0.0464028,-2.36597
1470243595870922,-0.521096,0.0466058,-2.3651
1470243595885436,-0.521125,0.0466363,-2.36453
1470243595908457,-0.521221,0.0465182,-2.36413
1470243595930975,-0.521184,0.0463246,-2.36378
1470243595952022,-0.521184,0.0463246,-2.36378
1470243595968509,-0.52137,0.0462313,-2.36338
1470243595991029,-0.52137,0.0462313,-2.36338
1470243596012050,-0.521494,0.0462768,-2.36341
1470243596028564,-0.521494,0.0462768,-2.36341
1470243596051082,-0.521668,0.0462133,-2.36343
1470243596072102,-0.521668,0.0462133,-2.36343
1470243596088616,-0.521482,0.0465793,-2.36379
1470243596111136,-0.521482,0.0465793,-2.36379
1470243596132155,-0.521482,0.0465793,-2.36379
1470243596148670,-0.521442,0.0467184,-2.36373
1470243596170695,-0.521442,0.0467184,-2.36373
1470243596192210,-0.521442,0.0467184,-2.36373
1470243596208224,-0.521317,0.046673,-2.3637
1470243596230744,-0.521317,0.046673,-2.3637
1470243596252265,-0.521442,0.0467184,-2.36373
1470243596268292,-0.521442,0.0467184,-2.36373
1470243596290798,-0.521442,0.0467184,-2.36373
1470243596311819,-0.521442,0.0467184,-2.36373
1470243596328333,-0.521434,0.0466882,-2.36381
1470243596350869,-0.521442,0.0467184,-2.36373
1470243596371905,-0.521434,0.0466882,-2.36381
1470243596388385,-0.521482,0.0465793,-2.36379
1470243596410906,-0.521482,0.0465793,-2.36379
1470243596433474,-0.521482,0.0465793,-2.36379
1470243596448440,-0.521482,0.0465793,-2.36379
1470243596470962,-0.521482,0.0465793,-2.36379
1470243596493480,-0.521482,0.0465793,-2.36379
1470243596508494,-0.521482,0.0465793,-2.36379
1470243596531035,-0.521482,0.0465793,-2.36379
1470243596553534,-0.521482,0.0465793,-2.36379
1470243596568047,-0.521482,0.0465793,-2.36379
1470243596591099,-0.521946,0.0467402,-2.36389
1470243596613587,-0.521995,0.0466313,-2.36387
1470243596627603,-0.522116,0.0470093,-2.3642
1470243596651122,-0.522108,0.0469791,-2.36428
1470243596673642,-0.521547,0.0470362,-2.36422
1470243596687654,-0.521311,0.0476112,-2.36425
1470243596711176,-0.52136,0.0475022,-2.36423
1470243596733197,-0.520759,0.0479711,-2.36407
1470243596747711,-0.520553,0.0482039,-2.36393
1470243596770729,-0.520651,0.0482587,-2.36384
1470243596793249,-0.520651,0.0482587,-2.36384
