timestamp,roll,pitch,yaw
1470345621686440,-0.401255,0.00778746,0.157154
1470345621709460,-0.401409,0.00736632,0.156867
1470345621732482,-0.400931,0.00699144,0.156436
1470345621746494,-0.400582,0.00665041,0.156128
1470345621769522,-0.400492,0.00632826,0.155822
1470345621792043,-0.40025,0.00599829,0.155506
1470345621806555,-0.400392,0.00567221,0.155073
1470345621829076,-0.400673,0.00523611,0.154667
1470345621851596,-0.400945,0.00491916,0.154236
1470345621866609,-0.400806,0.00502915,0.15421
1470345621889133,-0.400677,0.00501987,0.154209
1470345621911649,-0.400668,0.00513914,0.154184
1470345621926663,-0.40068,0.00525684,0.154169
1470345621949184,-0.401073,0.00492844,0.154238
1470345621972204,-0.401241,0.00446066,0.154337
1470345621986718,-0.401241,0.00446066,0.154337
1470345622009238,-0.401231,0.00457992,0.154313
1470345622031758,-0.401103,0.00457065,0.154311
1470345622048273,-0.40132,0.0048536,0.154377
1470345622069291,-0.401806,0.00506019,0.154591
1470345622091812,-0.401796,0.00517944,0.154566
1470345622108326,-0.40181,0.00513312,0.154953
1470345622129345,-0.401964,0.00500122,0.155486
1470345622151866,-0.401967,0.00486161,0.156009
1470345622168380,-0.402122,0.00472982,0.156542
1470345622189399,-0.402122,0.00472982,0.156542
1470345622211926,-0.402638,0.00457933,0.15683
1470345622227940,-0.403015,0.00453877,0.157092
1470345622248959,-0.403015,0.00453877,0.157092
1470345622271979,-0.402496,0.00493011,0.157383
1470345622287999,-0.402486,0.00504935,0.157358
1470345622309024,-0.402486,0.00504935,0.157358
1470345622332044,-0.403243,0.00472731,0.157302
1470345622348058,-0.40415,0.00441305,0.157258
1470345622369079,-0.40415,0.00441305,0.157258
1470345622391113,-0.404116,0.00469735,0.156822
1470345622409128,-0.404132,0.00459793,0.156348
1470345622429149,-0.404115,0.00459492,0.15572
1470345622451165,-0.404228,0.00462568,0.155214
1470345622469182,-0.404222,0.00452787,0.154732
1470345622489214,-0.404003,0.00422032,0.154546
1470345622511955,-0.403529,0.00391867,0.154477
1470345622528973,-0.403309,0.0033988,0.154451
1470345622548991,-0.402864,0.00273948,0.154456
1470345622572011,-0.402526,0.00230355,0.154293
1470345622589535,-0.402414,0.00200714,0.154099
1470345622609059,-0.402287,0.00202224,0.154218
1470345622632080,-0.402287,0.00202224,0.154218
1470345622649095,-0.402277,0.00214148,0.154193
1470345622669113,-0.402277,0.00214148,0.154193
1470345622691912,-0.402277,0.00214148,0.154193
1470345622709930,-0.402148,0.00213225,0.154191
1470345622728948,-0.402148,0.00213225,0.154191
1470345622751967,-0.402161,0.00224975,0.154176
1470345622769984,-0.402161,0.00224975,0.154176
1470345622789619,-0.402161,0.00224975,0.154176
1470345622811682,-0.402032,0.00224051,0.154174
1470345622829697,-0.402161,0.00224975,0.154176
1470345622849716,-0.401879,0.00239687,0.153761
1470345622871735,-0.401869,0.00251612,0.153737
1470345622889825,-0.402242,0.00261437,0.153476
1470345622909067,-0.402371,0.00262358,0.153478
1470345622931101,-0.402242,0.00261437,0.153476
1470345622949102,-0.402242,0.00261437,0.153476
1470345622969124,-0.402232,0.00273363,0.153452
1470345622991668,-0.402234,0.00275796,0.153572
1470345623009685,-0.402095,0.002868,0.153546
1470345623030704,-0.402095,0.002868,0.153546
1470345623051722,-0.402095,0.002868,0.153546
1470345623069765,-0.401967,0.00285879,0.153544
1470345623090398,-0.402955,0.00317266,0.153499
1470345623111478,-0.40455,0.00336771,0.153228
1470345623129495,-0.406948,0.00307233,0.153322
1470345623150513,-0.414267,0.00081636,0.154776
1470345623171603,-0.426999,-0.00419226,0.158325
1470345623189555,-0.439363,-0.0085977,0.163437
1470345623210806,-0.447111,-0.0115317,0.171575
1470345623231881,-0.447213,-0.012489,0.181724
1470345623249844,-0.440075,-0.0105743,0.194292
1470345623270861,-0.430846,-0.00507096,0.209159
1470345623291920,-0.436916,0.0042163,0.231163
1470345623309949,-0.45801,0.0136249,0.259802
1470345623329976,-0.482006,0.024716,0.293352
1470345623351972,-0.495602,0.0344569,0.332438
1470345623370065,-0.49926,0.0443754,0.377314
1470345623391799,-0.494075,0.053315,0.431086
1470345623411864,-0.484598,0.0591204,0.494539
1470345623429833,-0.475643,0.0591872,0.56704
1470345623451853,-0.46879,0.0540673,0.645984
1470345623471871,-0.461411,0.0452879,0.727419
1470345623489896,-0.453325,0.0330573,0.809368
1470345623512014,-0.448785,0.0170234,0.887281
1470345623532030,-0.44699,-0.000909075,0.956017
1470345623550109,-0.442484,-0.0187177,1.01432
1470345623572066,-0.437126,-0.035782,1.06295
1470345623591677,-0.432497,-0.0555113,1.10249
1470345623609692,-0.429172,-0.0744119,1.13404
1470345623631712,-0.429608,-0.0931642,1.15807
1470345623652732,-0.433912,-0.113432,1.17352
1470345623669746,-0.443153,-0.132695,1.18124
1470345623691772,-0.451218,-0.147759,1.18158
1470345623712796,-0.45113,-0.155562,1.17759
1470345623729857,-0.448751,-0.15986,1.17079
1470345623751832,-0.449927,-0.160956,1.16557
1470345623771877,-0.451232,-0.158294,1.16215
1470345623789914,-0.449136,-0.154505,1.15944
1470345623811721,-0.447024,-0.151488,1.15827
1470345623831785,-0.447111,-0.150648,1.15852
1470345623849797,-0.446433,-0.15276,1.1585
1470345623871776,-0.444838,-0.156829,1.15852
1470345623891322,-0.442371,-0.160703,1.15917
1470345623909684,-0.439114,-0.162314,1.16037
1470345623931703,-0.435723,-0.162185,1.1615
1470345623952721,-0.432903,-0.161354,1.16198
1470345623969743,-0.43127,-0.160419,1.16211
1470345623992486,-0.43099,-0.159846,1.16188
1470345624013505,-0.432325,-0.159984,1.16148
1470345624029519,-0.433363,-0.159187,1.16119
1470345624051540,-0.433328,-0.157076,1.16137
1470345624072557,-0.432019,-0.154766,1.16104
1470345624089151,-0.430908,-0.152895,1.16031
1470345624111364,-0.430231,-0.15152,1.15935
1470345624132396,-0.430399,-0.150982,1.15835
1470345624156404,-0.430996,-0.150599,1.15749
1470345624171416,-0.431621,-0.149711,1.15696
1470345624192697,-0.432181,-0.148572,1.15619
1470345624214773,-0.432826,-0.147426,1.15513
1470345624230771,-0.433337,-0.146441,1.15364
1470345624252828,-0.433735,-0.145599,1.15188
1470345624268767,-0.434017,-0.144731,1.14963
1470345624291370,-0.434341,-0.143798,1.14711
1470345624313444,-0.434534,-0.142476,1.14443
1470345624328458,-0.434633,-0.140767,1.14178
1470345624352481,-0.434872,-0.1389,1.13957
1470345624380128,-0.435247,-0.137257,1.1373
1470345624389080,-0.435509,-0.135785,1.13534
1470345624411119,-0.436,-0.134622,1.13353
1470345624434125,-0.436411,-0.133426,1.13213
1470345624448138,-0.436956,-0.132414,1.13079
1470345624471159,-0.437545,-0.13167,1.12954
1470345624494086,-0.438395,-0.13103,1.12852
1470345624508103,-0.438863,-0.130497,1.12745
1470345624531121,-0.439479,-0.130002,1.12626
1470345624554140,-0.44028,-0.129716,1.12534
1470345624568153,-0.441304,-0.129569,1.12434
1470345624591683,-0.442271,-0.129137,1.12323
1470345624613969,-0.443221,-0.12889,1.12218
1470345624627980,-0.444173,-0.128645,1.12114
1470345624650999,-0.445307,-0.128442,1.12015
1470345624674020,-0.446151,-0.128261,1.1191
1470345624688056,-0.446998,-0.128042,1.11818
1470345624710772,-0.447881,-0.127825,1.11744
1470345624733826,-0.448529,-0.127712,1.11666
1470345624747807,-0.44909,-0.127603,1.11615
1470345624770825,-0.449301,-0.127433,1.11556
1470345624794020,-0.449772,-0.127366,1.1152
1470345624815038,-0.450282,-0.127567,1.11493
1470345624831087,-0.450735,-0.12748,1.11454
1470345624854074,-0.45119,-0.127559,1.11438
1470345624875091,-0.451771,-0.127391,1.11416
1470345624891611,-0.451697,-0.127289,1.11411
1470345624913638,-0.451697,-0.127289,1.11411
1470345624934684,-0.452372,-0.127204,1.1141
1470345624951668,-0.452827,-0.127077,1.11384
1470345624973690,-0.452827,-0.127077,1.11384
1470345624994677,-0.452131,-0.126916,1.1138
1470345625011691,-0.451018,-0.126982,1.11388
1470345625033710,-0.449198,-0.127079,1.11473
1470345625054784,-0.447636,-0.128819,1.11603
1470345625070782,-0.449737,-0.1345,1.11799
1470345625093541,-0.457883,-0.145309,1.12118
1470345625114586,-0.470041,-0.15734,1.12668
1470345625131558,-0.484035,-0.169977,1.13274
1470345625153603,-0.497168,-0.181051,1.13768
1470345625174654,-0.510479,-0.184833,1.13955
1470345625190626,-0.519457,-0.182537,1.14054
1470345625214086,-0.5234,-0.175638,1.14112
1470345625235103,-0.529431,-0.164073,1.13971
1470345625250117,-0.532408,-0.147343,1.13396
1470345625274138,-0.528826,-0.125452,1.12584
1470345625296273,-0.52434,-0.0958522,1.11649
1470345625310290,-0.51862,-0.0581373,1.10267
1470345625333362,-0.513553,-0.0165109,1.08313
1470345625356328,-0.511022,0.0278371,1.06003
1470345625370384,-0.509431,0.0723677,1.03522
1470345625394224,-0.508211,0.11422,1.00935
1470345625416244,-0.507441,0.152492,0.983816
1470345625430257,-0.506315,0.186473,0.960449
1470345625453287,-0.505342,0.215994,0.939661
1470345625476297,-0.505646,0.239413,0.921772
1470345625490821,-0.506023,0.256682,0.907805
1470345625513266,-0.506673,0.267316,0.898659
1470345625536315,-0.507885,0.272002,0.893964
1470345625557327,-0.509468,0.271058,0.892832
1470345625573330,-0.511916,0.265028,0.894041
1470345625596119,-0.513397,0.254768,0.897406
1470345625617182,-0.514479,0.239912,0.903203
1470345625634153,-0.51644,0.221057,0.91093
1470345625656175,-0.520897,0.199301,0.920612
1470345625677699,-0.527039,0.176074,0.931672
1470345625693913,-0.53257,0.153634,0.942503
1470345625715928,-0.536244,0.132441,0.953171
1470345625736975,-0.539652,0.11238,0.96373
1470345625753977,-0.544059,0.0910485,0.974737
1470345625776024,-0.551061,0.0689197,0.986499
1470345625797555,-0.557082,0.0480577,0.997522
1470345625821545,-0.557645,0.029304,1.00669
1470345625843566,-0.555641,0.0129141,1.01551
1470345625857621,-0.556206,-0.00269698,1.02381
1470345625873601,-0.558805,-0.0179117,1.0298
1470345625896643,-0.55793,-0.0313099,1.03446
1470345625917661,-0.552652,-0.0431446,1.03861
1470345625933676,-0.548872,-0.0543742,1.04296
1470345625956698,-0.550617,-0.0659916,1.04647
1470345625977717,-0.553273,-0.0762434,1.04877
1470345625993289,-0.549724,-0.0837273,1.04989
1470345626016423,-0.542422,-0.0878292,1.05082
1470345626037486,-0.534649,-0.0909598,1.05076
1470345626053456,-0.53258,-0.0932855,1.0503
1470345626076478,-0.53656,-0.0936548,1.05093
1470345626097120,-0.536075,-0.0907395,1.05126
1470345626113132,-0.525484,-0.087071,1.05125
1470345626136193,-0.515842,-0.084145,1.05157
1470345626157211,-0.508444,-0.0818492,1.05181
1470345626173184,-0.497182,-0.0795585,1.05151
1470345626196326,-0.483148,-0.0767412,1.05108
1470345626225300,-0.471468,-0.0738482,1.051
1470345626233308,-0.462861,-0.0707444,1.05101
1470345626256372,-0.455623,-0.0677438,1.05104
1470345626278944,-0.449134,-0.0648046,1.05097
1470345626293458,-0.443049,-0.0620637,1.05089
1470345626323586,-0.437675,-0.059869,1.05052
1470345626338600,-0.433786,-0.0579796,1.05019
1470345626352689,-0.431383,-0.0570286,1.04944
1470345626376638,-0.429837,-0.0563986,1.04833
1470345626398833,-0.428439,-0.0557336,1.04639
1470345626412793,-0.427989,-0.054833,1.04408
1470345626435828,-0.429209,-0.0542682,1.04197
1470345626458831,-0.431429,-0.0541824,1.03987
1470345626472846,-0.434045,-0.0542063,1.03812
1470345626495907,-0.436089,-0.0537012,1.03646
1470345626518926,-0.436238,-0.0529372,1.0347
1470345626532959,-0.435831,-0.0522539,1.03363
1470345626555962,-0.43547,-0.0522582,1.03314
1470345626578978,-0.43551,-0.0527912,1.03327
1470345626593498,-0.435222,-0.0534407,1.03366
1470345626616040,-0.434622,-0.0543183,1.03393
1470345626639062,-0.433916,-0.0548096,1.03407
1470345626653073,-0.433685,-0.0553713,1.03418
1470345626676137,-0.433671,-0.0553925,1.03403
1470345626698264,-0.434224,-0.0554098,1.03383
1470345626720285,-0.435503,-0.0552026,1.03356
1470345626736301,-0.436697,-0.0548759,1.03323
1470345626758323,-0.437666,-0.0544156,1.03284
1470345626779897,-0.438277,-0.053864,1.03237
1470345626796429,-0.43875,-0.0535492,1.03194
1470345626818449,-0.439115,-0.0531964,1.0319
1470345626839524,-0.439499,-0.0531099,1.03193
1470345626856484,-0.439499,-0.0531099,1.03193
1470345626878506,-0.439499,-0.0531099,1.03193
1470345626899637,-0.439499,-0.0531099,1.03193
1470345626916598,-0.439611,-0.0530516,1.03194
1470345626938617,-0.439545,-0.0529476,1.0319
1470345626959639,-0.439545,-0.0529476,1.0319
1470345626976651,-0.44001,-0.0529435,1.03213
1470345626998439,-0.440558,-0.0525396,1.03254
1470345627019477,-0.440957,-0.0524313,1.03273
1470345627036474,-0.440957,-0.0524313,1.03273
1470345627058493,-0.440844,-0.0524895,1.03272
1470345627080073,-0.440844,-0.0524895,1.03272
1470345627096617,-0.440778,-0.0523855,1.03268
1470345627118655,-0.440469,-0.0525169,1.03296
1470345627141659,-0.439704,-0.0525937,1.0333
1470345627156671,-0.438094,-0.0526654,1.03378
1470345627178692,-0.436124,-0.0549271,1.03587
1470345627201373,-0.438374,-0.0636789,1.03917
1470345627215430,-0.442925,-0.0751151,1.04498
1470345627238429,-0.446261,-0.0844145,1.0513
1470345627261430,-0.445562,-0.0918206,1.0578
1470345627275442,-0.440678,-0.0982853,1.06391
1470345627299112,-0.436412,-0.104964,1.07015
1470345627321170,-0.435934,-0.112192,1.07608
1470345627335145,-0.439197,-0.118118,1.08198
1470345627359154,-0.441326,-0.122006,1.08745
1470345627381723,-0.43715,-0.12356,1.09169
1470345627395737,-0.428364,-0.124044,1.09431
1470345627418830,-0.420501,-0.124624,1.09616
1470345627440816,-0.41744,-0.125287,1.09777
1470345627461805,-0.418102,-0.125651,1.09929
1470345627478848,-0.41932,-0.126013,1.09992
1470345627501483,-0.419316,-0.125565,1.09908
1470345627515507,-0.418823,-0.124451,1.09783
1470345627538539,-0.418619,-0.123658,1.09628
1470345627561526,-0.417647,-0.123839,1.0944
1470345627575537,-0.417269,-0.1259,1.09412
1470345627599183,-0.417933,-0.129487,1.09587
1470345627621202,-0.417071,-0.133002,1.09818
1470345627642221,-0.413276,-0.137079,1.1015
1470345627658237,-0.406125,-0.142665,1.10659
1470345627681278,-0.395693,-0.149857,1.11343
1470345627702303,-0.380835,-0.157207,1.12161
1470345627718376,-0.36412,-0.164542,1.13069
1470345627741387,-0.345943,-0.172678,1.14009
1470345627762398,-0.324732,-0.178574,1.14898
1470345627778370,-0.299781,-0.182265,1.15926
1470345627801046,-0.270217,-0.184211,1.17284
1470345627822063,-0.237417,-0.186086,1.19057
1470345627839048,-0.200416,-0.186128,1.20873
1470345627861068,-0.155564,-0.180841,1.2264
1470345627882738,-0.101438,-0.169192,1.2428
1470345627898756,-0.040874,-0.149789,1.25602
1470345627920773,0.0183661,-0.125032,1.26714
1470345627942793,0.0704575,-0.0994648,1.27719
1470345627958808,0.105392,-0.0840025,1.28744
1470345627981408,0.127249,-0.0755869,1.29466
1470345628002020,0.152739,-0.0770797,1.30299
1470345628018987,0.180395,-0.0845179,1.31177
1470345628041099,0.206375,-0.0914853,1.32336
1470345628062025,0.227693,-0.0966678,1.33478
1470345628078042,0.240633,-0.0997931,1.34109
1470345628101165,0.239533,-0.103767,1.34103
1470345628124181,0.223476,-0.109589,1.3381
1470345628138223,0.192297,-0.115683,1.33423
1470345628161219,0.156392,-0.116665,1.33241
1470345628183792,0.121342,-0.116665,1.33331
1470345628198334,0.0944558,-0.114073,1.33436
1470345628221355,0.0678007,-0.113854,1.33394
1470345628243388,0.0328469,-0.117167,1.33255
1470345628258388,-0.00497144,-0.120642,1.33114
1470345628281409,-0.0382705,-0.125132,1.33032
1470345628303484,-0.069662,-0.131513,1.33007
1470345628324546,-0.104888,-0.140579,1.32864
1470345628341549,-0.133797,-0.147246,1.32572
1470345628371561,-0.150744,-0.153746,1.32503
1470345628385126,-0.162833,-0.162297,1.32808
1470345628401617,-0.164086,-0.171179,1.33035
1470345628423684,-0.146948,-0.17937,1.33366
1470345628444711,-0.126782,-0.185385,1.34125
1470345628461672,-0.0958129,-0.184812,1.34537
1470345628484255,-0.0502138,-0.165563,1.34038
1470345628504680,0.0110386,-0.125265,1.32512
1470345628521693,0.073614,-0.0656224,1.30722
1470345628543712,0.125008,0.00679635,1.28815
1470345628564779,0.168271,0.0852307,1.27267
1470345628580787,0.21107,0.158178,1.26368
1470345628603781,0.272116,0.215765,1.26767
1470345628632805,0.339229,0.252683,1.28449
1470345628640921,0.396213,0.270019,1.30766
1470345628669869,0.445803,0.272523,1.33216
1470345628684982,0.488022,0.265465,1.35497
1470345628701623,0.52042,0.255452,1.37892
1470345628723643,0.535737,0.239958,1.39785
1470345628744661,0.533887,0.220936,1.40821
1470345628760710,0.51649,0.199224,1.41253
1470345628784206,0.488815,0.174501,1.41513
1470345628804863,0.455844,0.148169,1.41737
1470345628820822,0.419377,0.123542,1.41965
1470345628843848,0.37773,0.0985085,1.42029
1470345628864923,0.332339,0.076354,1.41879
1470345628880883,0.285919,0.0589853,1.41757
1470345628903474,0.240854,0.0478706,1.41683
1470345628925498,0.202841,0.043439,1.41693
1470345628940509,0.16675,0.0424035,1.41802
1470345628963529,0.128676,0.0462846,1.42205
1470345628986557,0.0967236,0.0577754,1.42978
1470345629000575,0.0728884,0.0707784,1.4412
1470345629023596,0.0541952,0.0829236,1.45445
1470345629046619,0.0375692,0.0967194,1.46734
1470345629060632,0.025265,0.116565,1.48016
1470345629084189,0.0154945,0.138905,1.49478
1470345629106746,0.00510721,0.160762,1.5115
1470345629120759,-0.00425632,0.183542,1.53203
1470345629143786,-0.00548099,0.211564,1.55423
1470345629165800,0.000626493,0.243486,1.57584
1470345629180813,0.0104212,0.276105,1.59806
1470345629209917,0.0243816,0.308775,1.62117
1470345629226929,0.0404908,0.338066,1.64565
1470345629240942,0.0562191,0.365345,1.66846
1470345629263962,0.0679211,0.390209,1.68727
1470345629286517,0.0794106,0.414092,1.70407
1470345629300141,0.0912027,0.437704,1.71815
1470345629324109,0.0972567,0.457823,1.72833
1470345629346128,0.0942696,0.476038,1.73237
1470345629368154,0.0841526,0.493198,1.73047
1470345629369149,0.0737557,0.508756,1.72815
1470345629389674,0.0654286,0.518767,1.72826
1470345629411201,0.0547311,0.525538,1.72659
1470345629429217,0.0399575,0.530991,1.72039
1470345629449259,0.024575,0.536145,1.7132
1470345629475269,0.0124713,0.542582,1.70836
1470345629489856,0.00116595,0.548603,1.70654
1470345629508932,-0.00939841,0.552994,1.70537
1470345629531962,-0.0196522,0.557143,1.7023
1470345629549927,-0.0289502,0.560569,1.69756
1470345629568999,-0.0362153,0.561986,1.69274
1470345629592030,-0.0448634,0.560116,1.68774
1470345629609582,-0.0556329,0.556405,1.68152
1470345629630601,-0.0659392,0.554295,1.67274
1470345629651708,-0.0742268,0.553509,1.663
1470345629669691,-0.0810484,0.550876,1.65319
1470345629690714,-0.0856057,0.546347,1.64333
1470345629711860,-0.0888637,0.540708,1.63208
1470345629729819,-0.0937987,0.535079,1.61368
1470345629748838,-0.104858,0.528505,1.58222
1470345629771914,-0.125196,0.520208,1.53919
1470345629789945,-0.148716,0.509264,1.48869
1470345629809448,-0.170211,0.496219,1.43266
1470345629831470,-0.187103,0.480495,1.37181
1470345629849483,-0.207571,0.45749,1.30571
1470345629869551,-0.234283,0.429347,1.23551
1470345629892113,-0.259766,0.400857,1.16099
1470345629909143,-0.277615,0.371879,1.08664
1470345629929195,-0.292311,0.332792,1.01422
1470345629952182,-0.305942,0.287562,0.948946
1470345629969199,-0.314326,0.240738,0.885481
1470345629989791,-0.314003,0.191596,0.820691
1470345630011959,-0.310192,0.14325,0.7581
1470345630029970,-0.302248,0.100803,0.698324
1470345630048962,-0.289015,0.0680592,0.639023
1470345630071980,-0.275165,0.0403345,0.582778
1470345630090003,-0.27097,0.0167655,0.53158
1470345630109524,-0.274861,-0.00204574,0.484867
1470345630131548,-0.275917,-0.0146864,0.442734
1470345630149560,-0.274986,-0.0224775,0.40473
1470345630169578,-0.27667,-0.0274219,0.36883
1470345630192109,-0.284938,-0.0281699,0.336708
1470345630209632,-0.294317,-0.03023,0.308388
1470345630229669,-0.306978,-0.0344097,0.283813
1470345630251668,-0.32281,-0.0397858,0.26211
1470345630269794,-0.335228,-0.0441986,0.244052
1470345630289246,-0.339684,-0.0460699,0.22911
1470345630311298,-0.342998,-0.0461896,0.218924
1470345630329286,-0.351739,-0.0499547,0.212124
1470345630349359,-0.364736,-0.0578943,0.207198
1470345630371378,-0.374413,-0.0639755,0.202962
1470345630389868,-0.378224,-0.0651811,0.199271
1470345630409430,-0.381218,-0.0637771,0.197276
1470345630432453,-0.37682,-0.0625002,0.19693
1470345630449465,-0.368347,-0.0608108,0.198186
1470345630469500,-0.35865,-0.0581702,0.199227
1470345630492009,-0.349704,-0.0551078,0.198753
1470345630514226,-0.343169,-0.0531747,0.199116
1470345630529242,-0.338505,-0.0532528,0.200541
1470345630552249,-0.33527,-0.0539795,0.201766
1470345630569260,-0.331515,-0.0548055,0.201992
1470345630589386,-0.326765,-0.0558337,0.201586
1470345630611402,-0.322768,-0.0572613,0.200528
1470345630629375,-0.319339,-0.0586163,0.198726
1470345630650394,-0.316642,-0.0596387,0.197035
1470345630671462,-0.313376,-0.0600819,0.19534
1470345630690012,-0.311341,-0.0602037,0.194146
1470345630713072,-0.309974,-0.0604715,0.193264
1470345630732173,-0.308214,-0.0608263,0.191999
1470345630750113,-0.306632,-0.0605739,0.190522
1470345630770124,-0.305149,-0.0600677,0.189011
1470345630792149,-0.304332,-0.058906,0.187302
1470345630815721,-0.304879,-0.0576387,0.185517
1470345630830738,-0.305297,-0.0564013,0.183605
1470345630851779,-0.305063,-0.0550542,0.181151
1470345630869813,-0.305705,-0.0535934,0.178966
1470345630892318,-0.306565,-0.0517528,0.176731
1470345630911406,-0.307196,-0.0501337,0.17476
1470345630929419,-0.308212,-0.0484679,0.172924
1470345630952470,-0.309497,-0.0467288,0.171462
1470345630971492,-0.310411,-0.0451786,0.169761
1470345630990026,-0.311349,-0.0437131,0.168323
1470345631012067,-0.312547,-0.0424662,0.166922
1470345631032175,-0.313521,-0.0412067,0.165766
1470345631050222,-0.314386,-0.0400593,0.164746
1470345631072121,-0.314883,-0.0389035,0.163958
1470345631092145,-0.315878,-0.0378266,0.163195
1470345631110049,-0.316649,-0.0369909,0.162585
1470345631132068,-0.317189,-0.0361593,0.162099
1470345631152174,-0.31759,-0.0352361,0.161467
1470345631170109,-0.318251,-0.0344339,0.16074
1470345631192157,-0.319422,-0.0338317,0.160057
1470345631212204,-0.320968,-0.0332999,0.159518
1470345631229220,-0.322043,-0.0329103,0.159115
1470345631252241,-0.322613,-0.0325582,0.158698
1470345631272263,-0.322599,-0.0323795,0.158301
1470345631289821,-0.322542,-0.0319764,0.157734
1470345631312365,-0.323503,-0.0317175,0.157347
1470345631331382,-0.324466,-0.0314394,0.157081
1470345631349399,-0.32515,-0.0309787,0.156525
1470345631372418,-0.325479,-0.0305099,0.156211
1470345631393498,-0.325605,-0.0305008,0.156214
1470345631409597,-0.325827,-0.0303011,0.155815
1470345631431615,-0.325642,-0.0299276,0.155123
1470345631451681,-0.326106,-0.0295899,0.15471
1470345631469650,-0.326829,-0.0294516,0.154457
1470345631492222,-0.327079,-0.0294533,0.154343
1470345631511822,-0.327079,-0.0294533,0.154343
1470345631529803,-0.327068,-0.0293332,0.154322
1470345631551822,-0.327068,-0.0293332,0.154322
1470345631572838,-0.327068,-0.0293332,0.154322
1470345631589947,-0.327068,-0.0293332,0.154322
1470345631611912,-0.327068,-0.0293332,0.154322
1470345631632930,-0.326942,-0.0293422,0.154319
1470345631650027,-0.326942,-0.0293422,0.154319
1470345631671966,-0.326931,-0.029222,0.154298
1470345631693516,-0.326931,-0.029222,0.154298
1470345631711729,-0.32692,-0.0291019,0.154278
1470345631732749,-0.326502,-0.028372,0.154398
1470345631752709,-0.326502,-0.028372,0.154398
1470345631769726,-0.326227,-0.0279707,0.154694
1470345631792289,-0.325365,-0.027819,0.155268
1470345631813361,-0.324108,-0.0276141,0.15557
1470345631829375,-0.323483,-0.027364,0.155887
1470345631852442,-0.323245,-0.0272849,0.156488
1470345631873414,-0.322738,-0.0271431,0.15682
1470345631890057,-0.322113,-0.0268936,0.157138
1470345631911602,-0.321358,-0.0266729,0.157332
1470345631933622,-0.321361,-0.0266535,0.157453
1470345631954672,-0.321235,-0.0266627,0.15745
1470345631971658,-0.321224,-0.0265426,0.15743
1470345631994186,-0.321224,-0.0265426,0.15743
1470345632014721,-0.321213,-0.0264224,0.15741
1470345632031736,-0.321087,-0.0264316,0.157407
1470345632053769,-0.321076,-0.0263114,0.157387
1470345632067782,-0.321076,-0.0263114,0.157387
1470345632091353,-0.321066,-0.0261913,0.157367
1470345632113919,-0.320542,-0.0257119,0.157526
1470345632127979,-0.320497,-0.0250531,0.157791
1470345632150952,-0.321095,-0.0245272,0.158466
1470345632173973,-0.320629,-0.0246889,0.159224
1470345632188493,-0.319739,-0.0244177,0.159771
1470345632211017,-0.318853,-0.0238521,0.160653
1470345632234038,-0.318322,-0.0232941,0.161292
1470345632248050,-0.318295,-0.0226983,0.161942
1470345632271088,-0.317753,-0.0220207,0.162562
1470345632294119,-0.316345,-0.0213536,0.162796
1470345632308176,-0.315673,-0.0206452,0.162917
1470345632331198,-0.31597,-0.0198735,0.162919
1470345632354217,-0.31731,-0.0196419,0.16291
1470345632368231,-0.318051,-0.0195024,0.162663
1470345632391784,-0.31804,-0.0193822,0.162643
1470345632413947,-0.318386,-0.0191899,0.162125
1470345632434967,-0.318849,-0.0191248,0.161498
1470345632450979,-0.319835,-0.0190248,0.160891
1470345632474000,-0.321297,-0.0190216,0.160175
1470345632495130,-0.322515,-0.0189209,0.159443
1470345632511287,-0.323462,-0.0185801,0.158786
1470345632533397,-0.324271,-0.0181487,0.157986
1470345632555361,-0.324495,-0.0178898,0.15721
1470345632571341,-0.324841,-0.0177197,0.15657
1470345632593943,-0.325411,-0.0174087,0.155905
1470345632615474,-0.326017,-0.0171617,0.155635
1470345632631490,-0.326017,-0.0171617,0.155635
1470345632653508,-0.326007,-0.0170416,0.155614
1470345632674582,-0.326007,-0.0170416,0.155614
1470345632691594,-0.326007,-0.0170416,0.155614
1470345632715661,-0.32588,-0.0170508,0.155612
1470345632734734,-0.326205,-0.0164423,0.155397
1470345632751694,-0.326079,-0.0164515,0.155394
1470345632773756,-0.326525,-0.0161308,0.154849
1470345632795270,-0.327261,-0.0158554,0.154701
1470345632811822,-0.327609,-0.0157251,0.154558
1470345632833840,-0.327609,-0.0157251,0.154558
1470345632855881,-0.327599,-0.015605,0.154538
1470345632870872,-0.327599,-0.015605,0.154538
1470345632893939,-0.327599,-0.015605,0.154538
1470345632916014,-0.328082,-0.0153481,0.154385
1470345632931029,-0.328662,-0.0149595,0.154206
1470345632954048,-0.328662,-0.0149595,0.154206
1470345632976068,-0.328621,-0.0144792,0.154124
1470345632991642,-0.328824,-0.0138605,0.154027
1470345633014200,-0.329151,-0.0134904,0.153843
1470345633036266,-0.329488,-0.0130026,0.153647
1470345633051232,-0.329488,-0.0130026,0.153647
1470345633074288,-0.329594,-0.0127533,0.153608
1470345633096780,-0.330198,-0.0125854,0.15359
1470345633110323,-0.330557,-0.0123179,0.153556
1470345633133364,-0.330557,-0.0123179,0.153556
1470345633156407,-0.330557,-0.0123179,0.153556
1470345633170376,-0.330557,-0.0123179,0.153556
1470345633193948,-0.330547,-0.0121979,0.153536
1470345633216261,-0.330547,-0.0121979,0.153536
1470345633230319,-0.330537,-0.0120778,0.153515
1470345633253305,-0.330413,-0.012067,0.153635
1470345633276315,-0.330413,-0.012067,0.153635
1470345633290838,-0.330403,-0.0119469,0.153614
1470345633314385,-0.330403,-0.0119469,0.153614
1470345633336440,-0.330403,-0.0119469,0.153614
1470345633350425,-0.330393,-0.0118268,0.153594
1470345633373480,-0.33088,-0.0117881,0.153594
1470345633396511,-0.331006,-0.011779,0.153596
1470345633417365,-0.331006,-0.011779,0.153596
1470345633433332,-0.330996,-0.0116589,0.153575
1470345633456354,-0.330996,-0.0116589,0.153575
1470345633477426,-0.330996,-0.0116589,0.153575
1470345633494419,-0.330986,-0.0115389,0.153555
1470345633516490,-0.330986,-0.0115389,0.153555
1470345633537555,-0.330976,-0.0114188,0.153534
1470345633553541,-0.330976,-0.0114188,0.153534
1470345633576543,-0.331339,-0.0113692,0.153653
1470345633597596,-0.331339,-0.0113692,0.153653
1470345633614173,-0.332078,-0.0111119,0.154123
1470345633636253,-0.332317,-0.0107932,0.154451
1470345633665250,-0.332307,-0.0106732,0.15443
1470345633674257,-0.331858,-0.00984038,0.154402
1470345633696316,-0.332719,-0.00961367,0.15463
1470345633717855,-0.334191,-0.00915793,0.155203
1470345633733868,-0.336158,-0.00881875,0.156292
1470345633755891,-0.336158,-0.00881875,0.156292
1470345633778913,-0.336598,-0.00812264,0.155812
1470345633793943,-0.337835,-0.00816604,0.155714
1470345633816581,-0.339865,-0.00871595,0.155226
1470345633838604,-0.342156,-0.00945923,0.155639
1470345633853616,-0.342671,-0.0109699,0.156042
1470345633876635,-0.342655,-0.0123539,0.156648
1470345633899257,-0.343393,-0.0135413,0.15737
1470345633913889,-0.343972,-0.014433,0.158402
1470345633935954,-0.344048,-0.0150486,0.159137
1470345633958928,-0.343577,-0.0154045,0.159433
1470345633972943,-0.343077,-0.0151221,0.159875
1470345633996497,-0.342313,-0.014739,0.160291
1470345634019128,-0.341154,-0.014306,0.160436
1470345634033140,-0.340391,-0.0141256,0.160389
1470345634056165,-0.340391,-0.0141256,0.160389
1470345634079182,-0.340363,-0.0139473,0.159982
1470345634093701,-0.340514,-0.0143241,0.159186
1470345634116782,-0.342546,-0.015074,0.158242
1470345634138840,-0.344454,-0.0158486,0.157916
1470345634152814,-0.345651,-0.0168047,0.157616
1470345634175835,-0.346214,-0.0178076,0.157303
1470345634205443,-0.347258,-0.0183721,0.157181
1470345634213496,-0.348388,-0.018685,0.157009
1470345634236520,-0.349249,-0.0186807,0.156656
1470345634259537,-0.349219,-0.0182672,0.156214
1470345634273597,-0.349209,-0.0181473,0.156193
1470345634296583,-0.349822,-0.0181197,0.156076
1470345634319147,-0.350183,-0.0180894,0.156075
1470345634340170,-0.350056,-0.0180986,0.156072
1470345634364188,-0.350052,-0.0178827,0.155917
1470345634379202,-0.350897,-0.0174464,0.156601
1470345634400250,-0.350001,-0.0173161,0.156306
1470345634416244,-0.349449,-0.0166364,0.156174
1470345634439263,-0.349543,-0.0162887,0.155991
1470345634460283,-0.350166,-0.0163811,0.155895
1470345634476297,-0.350672,-0.0163655,0.155784
1470345634498881,-0.350672,-0.0163655,0.155784
1470345634520577,-0.350661,-0.0162456,0.155762
1470345634536501,-0.350661,-0.0162456,0.155762
1470345634558519,-0.350661,-0.0162456,0.155762
1470345634580523,-0.350661,-0.0162456,0.155762
1470345634596545,-0.350661,-0.0162456,0.155762
1470345634619278,-0.350155,-0.0162285,0.155376
1470345634640398,-0.350534,-0.0164266,0.154799
1470345634656340,-0.351525,-0.0166517,0.154481
1470345634679330,-0.351907,-0.0168292,0.154026
1470345634700398,-0.351769,-0.0167184,0.154002
1470345634716464,-0.351566,-0.0170988,0.154071
1470345634738510,-0.351472,-0.0174462,0.154255
1470345634761506,-0.351489,-0.0177607,0.154554
1470345634776518,-0.351478,-0.0176408,0.154532
1470345634799044,-0.351478,-0.0176408,0.154532
1470345634827575,-0.351478,-0.0176408,0.154532
1470345634836587,-0.350966,-0.0174614,0.154365
1470345634859604,-0.350566,-0.0169907,0.154401
1470345634881627,-0.349919,-0.0166792,0.154332
1470345634896689,-0.349507,-0.0163468,0.154259
1470345634918682,-0.348601,-0.0158915,0.154406
1470345634941703,-0.347926,-0.0151993,0.154394
1470345634955715,-0.347638,-0.0146416,0.154169
1470345634978737,-0.347597,-0.014162,0.154083
1470345635001761,-0.347558,-0.0136615,0.154119
1470345635015580,-0.347171,-0.0132896,0.154299
1470345635038525,-0.346126,-0.0127446,0.154303
1470345635061545,-0.345694,-0.0121725,0.154189
1470345635075556,-0.346049,-0.0117436,0.154374
1470345635099084,-0.346382,-0.0113332,0.154429
1470345635121164,-0.345994,-0.0109615,0.15461
1470345635136148,-0.345224,-0.0106382,0.154663
1470345635159169,-0.345224,-0.0106382,0.154663
1470345635181225,-0.345448,-0.0104977,0.154637
1470345635204228,-0.346167,-0.0102215,0.154477
1470345635219284,-0.346294,-0.0102123,0.154479
1470345635241304,-0.346294,-0.0102123,0.154479
1470345635262328,-0.345881,-0.00966348,0.154254
1470345635279339,-0.345848,-0.00932468,0.154069
1470345635301866,-0.34585,-0.00930378,0.15419
1470345635323041,-0.34584,-0.00918388,0.154169
1470345635338972,-0.34584,-0.00918388,0.154169
1470345635360985,-0.345713,-0.00919304,0.154167
1470345635383006,-0.345703,-0.00907314,0.154145
1470345635399062,-0.345703,-0.00907314,0.154145
1470345635421592,-0.345693,-0.00895324,0.154124
1470345635442644,-0.345693,-0.00895324,0.154124
1470345635458621,-0.345566,-0.00896241,0.154122
1470345635481641,-0.345556,-0.00884251,0.154101
1470345635502725,-0.345312,-0.00874308,0.154084
1470345635519225,-0.345185,-0.00875224,0.154082
1470345635541258,-0.345175,-0.00863233,0.154061
1470345635562264,-0.345175,-0.00863233,0.154061
1470345635579276,-0.345175,-0.00863233,0.154061
1470345635601338,-0.345324,-0.00884211,0.154227
1470345635622893,-0.345324,-0.00884211,0.154227
1470345635638923,-0.34468,-0.00850954,0.154283
1470345635660943,-0.343517,-0.0081146,0.154188
1470345635682921,-0.34339,-0.00812378,0.154186
1470345635699446,-0.344136,-0.00801119,0.153813
1470345635720991,-0.34536,-0.00797808,0.153452
1470345635744070,-0.345487,-0.00796894,0.153454
1470345635765032,-0.344503,-0.00814319,0.153589
1470345635781044,-0.342777,-0.00813681,0.153687
1470345635804601,-0.341754,-0.0078316,0.153738
1470345635819115,-0.341754,-0.0078316,0.153738
1470345635841131,-0.341745,-0.007691,0.153838
1470345635864123,-0.341745,-0.007691,0.153838
1470345635878136,-0.341609,-0.00758022,0.153815
1470345635901665,-0.341973,-0.00749481,0.153436
1470345635923813,-0.342223,-0.00751791,0.153198
1470345635937826,-0.342581,-0.00752991,0.152952
1470345635960845,-0.342965,-0.00768472,0.152615
1470345635983865,-0.343945,-0.0075524,0.152238
1470345635998924,-0.344801,-0.00740866,0.151979
1470345636021056,-0.345283,-0.00743305,0.151614
1470345636044080,-0.345273,-0.00731314,0.151593
1470345636058092,-0.344539,-0.0075101,0.15149
1470345636081134,-0.344412,-0.00751912,0.151488
1470345636104190,-0.344539,-0.0075101,0.15149
1470345636118404,-0.344928,-0.00762381,0.151396
1470345636141431,-0.345192,-0.0077257,0.151421
1470345636163528,-0.345192,-0.0077257,0.151421
1470345636178458,-0.345192,-0.0077257,0.151421
1470345636201526,-0.345182,-0.00760577,0.1514
1470345636223577,-0.345055,-0.00761479,0.151398
1470345636244639,-0.345055,-0.00761479,0.151398
1470345636261610,-0.345045,-0.00749487,0.151377
1470345636283630,-0.345045,-0.00749487,0.151377
1470345636305217,-0.345045,-0.00749487,0.151377
1470345636321529,-0.345287,-0.0076156,0.151272
1470345636343548,-0.345416,-0.0075857,0.151395
1470345636364592,-0.345289,-0.00759472,0.151393
1470345636381582,-0.345279,-0.0074748,0.151372
1470345636405157,-0.345289,-0.00735692,0.151359
1470345636424680,-0.345289,-0.00735692,0.151359
1470345636441646,-0.345523,-0.00733686,0.151355
1470345636463665,-0.345514,-0.00721695,0.151333
1470345636484684,-0.345514,-0.00721695,0.151333
1470345636501752,-0.345387,-0.00722596,0.151331
1470345636523610,-0.345387,-0.00722596,0.151331
1470345636544633,-0.345746,-0.00698,0.151173
1470345636561625,-0.34599,-0.00684207,0.151156
1470345636583643,-0.34599,-0.00684207,0.151156
1470345636605209,-0.34598,-0.00672216,0.151135
1470345636621434,-0.346342,-0.00669314,0.151132
1470345636643489,-0.346215,-0.00670215,0.15113
1470345636666518,-0.346205,-0.00658225,0.151109
1470345636681533,-0.346205,-0.00658225,0.151109
1470345636704106,-0.346205,-0.00658225,0.151109
1470345636726632,-0.346195,-0.00646234,0.151087
1470345636741644,-0.346195,-0.00646234,0.151087
1470345636763664,-0.346283,-0.00597372,0.151004
1470345636786684,-0.346605,-0.00522727,0.150882
1470345636809211,-0.34664,-0.00419427,0.151068
1470345636823735,-0.347355,-0.00375757,0.151128
1470345636846753,-0.347482,-0.00374853,0.151129
1470345636867789,-0.345963,-0.0033182,0.151404
1470345636884786,-0.344741,-0.0035461,0.152044
1470345636906378,-0.344147,-0.0038124,0.152208
1470345636920926,-0.344178,-0.00415133,0.152393
1470345636943948,-0.344208,-0.00451108,0.152456
1470345636965967,-0.344489,-0.00487345,0.152402
1470345636980981,-0.344479,-0.00475353,0.152381
1470345637004038,-0.34447,-0.00463361,0.15236
1470345637026061,-0.34447,-0.00463361,0.15236
1470345637041074,-0.34447,-0.00463361,0.15236
1470345637064096,-0.343962,-0.00467003,0.152352
1470345637086136,-0.343972,-0.00455198,0.15234
1470345637107717,-0.343845,-0.00456108,0.152338
1470345637123990,-0.343604,-0.00465764,0.152598
1470345637146010,-0.343594,-0.00453772,0.152577
1470345637168081,-0.343596,-0.00451693,0.152699
1470345637184044,-0.344351,-0.00453856,0.152964
1470345637189049,-0.345619,-0.00495738,0.153547
1470345637211612,-0.346511,-0.00508913,0.153836
1470345637229596,-0.347023,-0.00524825,0.15412
1470345637249631,-0.347257,-0.00499008,0.154081
1470345637271690,-0.347724,-0.00473264,0.153916
1470345637289650,-0.347851,-0.00472345,0.153918
1470345637309716,-0.347742,-0.00499342,0.153837
1470345637331735,-0.349184,-0.00580517,0.154254
1470345637349732,-0.350287,-0.00710221,0.154874
1470345637369752,-0.349867,-0.00801329,0.155523
1470345637391772,-0.350347,-0.00923813,0.156122
1470345637409848,-0.351831,-0.0103222,0.157094
1470345637428870,-0.352711,-0.0116063,0.158584
1470345637451890,-0.352318,-0.0125309,0.159862
1470345637469914,-0.35137,-0.0130572,0.160801
1470345637488950,-0.351035,-0.0132855,0.161089
1470345637512075,-0.351035,-0.0132855,0.161089
1470345637530081,-0.351162,-0.013276,0.161091
1470345637549093,-0.351151,-0.0131562,0.16107
1470345637572072,-0.350383,-0.0130185,0.160778
1470345637590088,-0.349498,-0.0130099,0.160506
1470345637609619,-0.34874,-0.0129585,0.159739
1470345637632147,-0.349479,-0.0131457,0.159038
1470345637650163,-0.351392,-0.013867,0.158337
1470345637669179,-0.353791,-0.0143661,0.157981
1470345637692199,-0.355695,-0.0150016,0.15776
1470345637709718,-0.356107,-0.0155602,0.15725
1470345637729287,-0.356932,-0.0148292,0.157512
1470345637752264,-0.356306,-0.0147585,0.157486
1470345637769277,-0.353881,-0.0142348,0.156594
1470345637789349,-0.352872,-0.0127547,0.155561
1470345637812016,-0.353498,-0.011627,0.154621
1470345637830137,-0.355071,-0.011251,0.153962
1470345637849048,-0.355402,-0.0106246,0.153859
1470345637872089,-0.354394,-0.0105801,0.153828
1470345637890110,-0.353287,-0.0106881,0.153704
1470345637909684,-0.353059,-0.010882,0.154107
1470345637931791,-0.353829,-0.0110004,0.154519
1470345637954809,-0.35447,-0.0111491,0.154807
1470345637968823,-0.35447,-0.0111491,0.154807
1470345637991900,-0.35447,-0.0111491,0.154807
1470345638009907,-0.353932,-0.010805,0.154854
1470345638032068,-0.353649,-0.0102052,0.154871
1470345638052091,-0.353639,-0.0100854,0.154849
1470345638070053,-0.353639,-0.0100854,0.154849
1470345638089070,-0.353639,-0.0100854,0.154849
1470345638112119,-0.353972,-0.00967473,0.154902
1470345638130137,-0.353972,-0.00967473,0.154902
1470345638149167,-0.353465,-0.00945276,0.15498
1470345638172265,-0.353455,-0.00933294,0.154958
1470345638189190,-0.353328,-0.00934214,0.154956
1470345638210819,-0.353677,-0.00897645,0.154776
1470345638232284,-0.353998,-0.00846743,0.154686
1470345638249301,-0.353998,-0.00846743,0.154686
1470345638270395,-0.353861,-0.00835682,0.154662
1470345638292349,-0.35385,-0.00823701,0.154641
1470345638314143,-0.354349,-0.00808042,0.154627
1470345638331124,-0.354349,-0.00808042,0.154627
1470345638352178,-0.354339,-0.00796061,0.154605
1470345638370159,-0.354212,-0.00796981,0.154603
1470345638390233,-0.354202,-0.00785,0.154581
1470345638411732,-0.354074,-0.00785919,0.154579
1470345638429200,-0.354202,-0.00785,0.154581
1470345638450295,-0.354064,-0.00773938,0.154558
1470345638472240,-0.354066,-0.00771798,0.154679
1470345638489251,-0.354066,-0.00771798,0.154679
1470345638511275,-0.354056,-0.00759818,0.154657
1470345638531879,-0.354056,-0.00759818,0.154657
1470345638549847,-0.354183,-0.00758897,0.154659
1470345638572880,-0.354046,-0.00747837,0.154635
1470345638591938,-0.354046,-0.00747837,0.154635
1470345638610005,-0.354036,-0.00735856,0.154613
1470345638632583,-0.354036,-0.00735856,0.154613
1470345638651598,-0.353899,-0.00724795,0.15459
1470345638669558,-0.353899,-0.00724795,0.15459
1470345638692579,-0.353899,-0.00724795,0.15459
1470345638712248,-0.353889,-0.00712814,0.154568
1470345638734504,-0.354004,-0.00702053,0.154427
1470345638752596,-0.354248,-0.00688233,0.154409
1470345638771578,-0.354365,-0.00675333,0.154389
1470345638794607,-0.354365,-0.00675333,0.154389
1470345638812627,-0.354228,-0.00664272,0.154366
1470345638831705,-0.354469,-0.00654738,0.154105
1470345638854763,-0.354701,-0.00654841,0.153979
1470345638872686,-0.354701,-0.00654841,0.153979
1470345638891749,-0.354701,-0.00654841,0.153979
1470345638914344,-0.354691,-0.00642861,0.153957
1470345638933338,-0.354584,-0.00643983,0.153964
1470345638952322,-0.354574,-0.00632002,0.153943
1470345638974345,-0.354574,-0.00632002,0.153943
1470345638992359,-0.354447,-0.00632919,0.153941
1470345639012425,-0.354679,-0.00633026,0.153814
1470345639034137,-0.354679,-0.00633026,0.153814
1470345639052095,-0.354699,-0.00633229,0.153823
1470345639072162,-0.354699,-0.00633229,0.153823
1470345639094189,-0.354689,-0.00621248,0.153802
1470345639112211,-0.354562,-0.00622165,0.1538
1470345639132134,-0.354793,-0.00624419,0.153552
1470345639154163,-0.354793,-0.00624419,0.153552
1470345639172128,-0.35492,-0.00623504,0.153554
1470345639194151,-0.354924,-0.00618164,0.153178
1470345639214227,-0.354926,-0.00616018,0.153299
1470345639232224,-0.354916,-0.00604037,0.153277
1470345639253246,-0.354789,-0.00604951,0.153275
1470345639274317,-0.354909,-0.0061262,0.152792
1470345639292278,-0.355265,-0.00616132,0.152426
1470345639313358,-0.355647,-0.00636139,0.151848
1470345639334438,-0.3559,-0.00636481,0.151731
1470345639352443,-0.35589,-0.00624501,0.151709
1470345639373418,-0.355272,-0.00631369,0.151587
1470345639394439,-0.355272,-0.00631369,0.151587
1470345639412463,-0.355262,-0.00619389,0.151565
1470345639433486,-0.355262,-0.00619389,0.151565
1470345639454560,-0.355262,-0.00619389,0.151565
1470345639472567,-0.355262,-0.00619389,0.151565
1470345639493540,-0.355135,-0.00620292,0.151563
1470345639514629,-0.355135,-0.00620292,0.151563
1470345639532669,-0.355136,-0.00618144,0.151684
1470345639554665,-0.354999,-0.00607067,0.15166
1470345639574730,-0.355389,-0.00618486,0.151567
1470345639592700,-0.355763,-0.00625405,0.151707
1470345639614330,-0.355635,-0.00626309,0.151705
1470345639634349,-0.355635,-0.00626309,0.151705
1470345639652364,-0.355625,-0.00614329,0.151683
1470345639675404,-0.355625,-0.00614329,0.151683
1470345639694402,-0.355625,-0.00614329,0.151683
1470345639713425,-0.355636,-0.00602548,0.15167
1470345639734952,-0.355508,-0.00603452,0.151668
1470345639754968,-0.355508,-0.00603452,0.151668
1470345639770983,-0.355499,-0.00591472,0.151646
1470345639794031,-0.355499,-0.00591472,0.151646
1470345639815037,-0.355499,-0.00591472,0.151646
1470345639831138,-0.355489,-0.00579491,0.151624
1470345639854069,-0.355361,-0.00580395,0.151622
1470345639875131,-0.355361,-0.00580395,0.151622
1470345639891102,-0.355352,-0.00568414,0.151601
1470345639913673,-0.355224,-0.00569318,0.151599
1470345639934821,-0.355352,-0.00568414,0.151601
1470345639951809,-0.355226,-0.0056717,0.15172
1470345639973831,-0.355226,-0.0056717,0.15172
1470345639994864,-0.355216,-0.00555189,0.151698
1470345640011874,-0.35458,-0.00535945,0.151654
1470345640034400,-0.354453,-0.0053685,0.151652
1470345640055417,-0.354443,-0.00524868,0.15163
1470345640071432,-0.354047,-0.00497195,0.151944
1470345640093452,-0.353282,-0.00458334,0.152361
1470345640114612,-0.352518,-0.00417373,0.1529
1470345640131608,-0.352244,-0.00370466,0.153559
1470345640153627,-0.352217,-0.00331399,0.154355
1470345640174679,-0.351699,-0.00274578,0.154998
1470345640191662,-0.351172,-0.00227466,0.155775
1470345640214201,-0.351028,-0.00175457,0.156679
1470345640234728,-0.350764,-0.00140633,0.15736
1470345640251740,-0.350873,-0.00112668,0.15818
1470345640273759,-0.35134,-0.000599966,0.158841
1470345640294834,-0.351846,-0.00059475,0.159345
1470345640311843,-0.351953,-0.000583455,0.159337
1470345640333986,-0.352687,-0.000383228,0.159438
1470345640354940,-0.353535,-9.63658e-05,0.159276
1470345640370967,-0.354108,0.000389375,0.158945
1470345640393975,-0.354816,0.000981078,0.158483
1470345640414534,-0.35528,0.00119582,0.158073
1470345640430621,-0.355639,0.00142079,0.157791
1470345640453642,-0.355751,0.00148542,0.157407
1470345640476663,-0.355641,0.00119336,0.157207
1470345640491676,-0.355551,0.000899688,0.157016
1470345640514215,-0.355313,0.000598252,0.156813
1470345640536194,-0.355204,0.000327781,0.156734
1470345640551207,-0.354997,-9.50322e-05,0.156563
1470345640574230,-0.354643,-0.000504032,0.156502
1470345640596249,-0.354181,-0.000945538,0.156327
1470345640610808,-0.354054,-0.000954911,0.156325
1470345640634330,-0.354056,-0.000933483,0.156446
1470345640656351,-0.354056,-0.000933483,0.156446
1470345640670363,-0.354056,-0.000933483,0.156446
1470345640694387,-0.354046,-0.000813693,0.156425
1470345640716181,-0.353919,-0.000823073,0.156423
1470345640737199,-0.353919,-0.000823073,0.156423
1470345640754214,-0.353919,-0.000823073,0.156423
1470345640776234,-0.353939,-0.000824802,0.156432
1470345640791248,-0.353939,-0.000824802,0.156432
1470345640814272,-0.353811,-0.000834182,0.156431
1470345640835881,-0.353917,-0.000844494,0.156302
1470345640850896,-0.353937,-0.000846222,0.156311
1470345640873916,-0.3538,-0.000735797,0.156288
1470345640895936,-0.3538,-0.000735797,0.156288
1470345640910954,-0.354046,-0.000813693,0.156425
1470345640933476,-0.354046,-0.000813693,0.156425
1470345640956498,-0.354046,-0.000813693,0.156425
1470345640977518,-0.354046,-0.000813693,0.156425
1470345640993531,-0.353919,-0.000823073,0.156423
1470345641016309,-0.353919,-0.000823073,0.156423
1470345641037327,-0.354046,-0.000813693,0.156425
1470345641054342,-0.354046,-0.000813693,0.156425
1470345641076362,-0.353909,-0.000703283,0.156401
1470345641097382,-0.353909,-0.000703283,0.156401
1470345641114405,-0.353909,-0.000703283,0.156401
1470345641136429,-0.353909,-0.000703283,0.156401
1470345641157450,-0.353909,-0.000703283,0.156401
1470345641173462,-0.353909,-0.000703283,0.156401
1470345641196483,-0.353899,-0.000583492,0.15638
1470345641217509,-0.353899,-0.000583492,0.15638
1470345641233523,-0.35389,-0.000442281,0.156479
1470345641256546,-0.35391,-0.000443988,0.156489
1470345641277562,-0.353783,-0.000453375,0.156487
1470345641293577,-0.353783,-0.000453375,0.156487
1470345641316272,-0.353646,-0.000342965,0.156463
1470345641339295,-0.353646,-0.000342965,0.156463
1470345641354307,-0.353646,-0.000342965,0.156463
1470345641376327,-0.353646,-0.000342965,0.156463
1470345641399347,-0.353646,-0.000342965,0.156463
1470345641414365,-0.353509,-0.000232555,0.15644
1470345641436644,-0.353509,-0.000232555,0.15644
1470345641458664,-0.353509,-0.000232555,0.15644
1470345641473677,-0.353499,-0.000112757,0.156418
1470345641496699,-0.353499,-0.000112757,0.156418
1470345641518728,-0.353362,-2.34693e-06,0.156395
1470345641533741,-0.353489,7.0408e-06,0.156397
1470345641556762,-0.353489,7.0408e-06,0.156397
1470345641578782,-0.353489,7.0408e-06,0.156397
1470345641592794,-0.353352,0.000117451,0.156374
1470345641616822,-0.353353,0.000138842,0.156495
1470345641638866,-0.353343,0.000258639,0.156473
1470345641652855,-0.353343,0.000258639,0.156473
1470345641676878,-0.353343,0.000258639,0.156473
1470345641698941,-0.353333,0.000378437,0.156451
1470345641713423,-0.353333,0.000378437,0.156451
1470345641736007,-0.353206,0.000369042,0.15645
1470345641759023,-0.353206,0.000369042,0.15645
1470345641773034,-0.353196,0.00048884,0.156428
1470345641796090,-0.353196,0.00048884,0.156428
1470345641825177,-0.353196,0.00048884,0.156428
1470345641833167,-0.353186,0.000608638,0.156407
1470345641856161,-0.353186,0.000608638,0.156407
1470345641879181,-0.353176,0.000728436,0.156385
1470345641893194,-0.353176,0.000728436,0.156385
1470345641915829,-0.353176,0.000728436,0.156385
1470345641939137,-0.353176,0.000728436,0.156385
1470345641960156,-0.353049,0.000719041,0.156383
1470345641976169,-0.353061,0.00085859,0.156492
1470345641999190,-0.353061,0.00085859,0.156492
1470345642020259,-0.353061,0.00085859,0.156492
1470345642036280,-0.353051,0.000978395,0.156471
1470345642059270,-0.353051,0.000978395,0.156471
1470345642080363,-0.353051,0.000978395,0.156471
1470345642096345,-0.352913,0.0010888,0.156447
1470345642119404,-0.352913,0.0010888,0.156447
1470345642140506,-0.352913,0.0010888,0.156447
1470345642156438,-0.352776,0.0011992,0.156424
1470345642178462,-0.352904,0.0012086,0.156426
1470345642200476,-0.352904,0.0012086,0.156426
1470345642216044,-0.352776,0.0011992,0.156424
1470345642239366,-0.352766,0.00131901,0.156403
1470345642260444,-0.352766,0.00131901,0.156403
1470345642276417,-0.352766,0.00131901,0.156403
1470345642298469,-0.352766,0.00131901,0.156403
1470345642320491,-0.352757,0.00143881,0.156381
1470345642336544,-0.352757,0.00143881,0.156381
1470345642358618,-0.352758,0.00146017,0.156502
1470345642381546,-0.352748,0.00157998,0.156481
1470345642396558,-0.352621,0.00157057,0.156479
1470345642418646,-0.352621,0.00157057,0.156479
1470345642441668,-0.352748,0.00157998,0.156481
1470345642456679,-0.352738,0.00169978,0.156459
1470345642478699,-0.352738,0.00169978,0.156459
1470345642501814,-0.352611,0.00169037,0.156458
1470345642516328,-0.352611,0.00169037,0.156458
1470345642538855,-0.352601,0.00181018,0.156436
1470345642560917,-0.352601,0.00181018,0.156436
1470345642575930,-0.352601,0.00181018,0.156436
1470345642598908,-0.35273,0.00184095,0.156559
1470345642621010,-0.352857,0.00185037,0.15656
1470345642635968,-0.352857,0.00185037,0.15656
1470345642659042,-0.35273,0.00184095,0.156559
1470345642681075,-0.35272,0.00196076,0.156537
1470345642696022,-0.35272,0.00196076,0.156537
1470345642719617,-0.35272,0.00196076,0.156537
1470345642741635,-0.35272,0.00196076,0.156537
1470345642755649,-0.35272,0.00196076,0.156537
1470345642778673,-0.35271,0.00208056,0.156516
1470345642801689,-0.35271,0.00208056,0.156516
1470345642816207,-0.352711,0.00210192,0.156637
1470345642839233,-0.352701,0.00222173,0.156615
1470345642861252,-0.352701,0.00222173,0.156615
1470345642882306,-0.352574,0.0022123,0.156614
1470345642899286,-0.352574,0.0022123,0.156614
1470345642921975,-0.352574,0.0022123,0.156614
1470345642942992,-0.352564,0.00233211,0.156592
1470345642959007,-0.352564,0.00233211,0.156592
1470345642982028,-0.352554,0.00245191,0.156571
1470345643003099,-0.352554,0.00245191,0.156571
1470345643018651,-0.352056,0.0025325,0.156552
1470345643041669,-0.352056,0.0025325,0.156552
1470345643062721,-0.352056,0.0025325,0.156552
1470345643078771,-0.352046,0.00265231,0.156531
1470345643101749,-0.351919,0.00264289,0.156529
1470345643122880,-0.351919,0.00264289,0.156529
1470345643138843,-0.351919,0.00264289,0.156529
1470345643161866,-0.351909,0.0027627,0.156508
1470345643182929,-0.351909,0.0027627,0.156508
1470345643198897,-0.351909,0.0027627,0.156508
1470345643221132,-0.351909,0.0027627,0.156508
1470345643243127,-0.351909,0.0027627,0.156508
1470345643259157,-0.351899,0.00288251,0.156486
1470345643281161,-0.351899,0.00288251,0.156486
1470345643304240,-0.351899,0.00288251,0.156486
1470345643319305,-0.351899,0.00288251,0.156486
1470345643341352,-0.351891,0.00302364,0.156586
1470345643364344,-0.351891,0.00302364,0.156586
1470345643378397,-0.351891,0.00302364,0.156586
1470345643401380,-0.351891,0.00302364,0.156586
1470345643424436,-0.351881,0.00314346,0.156565
1470345643438453,-0.351881,0.00314346,0.156565
1470345643461468,-0.351881,0.00314346,0.156565
1470345643483533,-0.351881,0.00314346,0.156565
1470345643498503,-0.351881,0.00314346,0.156565
1470345643521615,-0.351871,0.00326327,0.156543
1470345643543630,-0.351871,0.00326327,0.156543
1470345643558645,-0.351871,0.00326327,0.156543
1470345643581669,-0.351998,0.0032727,0.156545
1470345643604235,-0.351871,0.00326327,0.156543
1470345643618245,-0.351871,0.00326327,0.156543
1470345643641598,-0.351861,0.00338308,0.156522
1470345643663627,-0.351871,0.00326327,0.156543
1470345643678588,-0.351871,0.00326327,0.156543
1470345643701608,-0.351871,0.00326327,0.156543
1470345643723639,-0.351871,0.00326327,0.156543
1470345643738655,-0.351871,0.00326327,0.156543
1470345643761674,-0.351988,0.00339252,0.156523
1470345643783694,-0.351617,0.00324441,0.15654
1470345643805217,-0.351617,0.00324441,0.15654
1470345643821282,-0.351617,0.00324441,0.15654
1470345643846330,-0.351617,0.00324441,0.15654
1470345643865392,-0.351617,0.00324441,0.15654
1470345643881335,-0.351617,0.00324441,0.15654
1470345643904448,-0.351617,0.00324441,0.15654
1470345643925004,-0.351607,0.00336422,0.156519
1470345643940996,-0.351734,0.00337365,0.15652
1470345643964017,-0.351734,0.00337365,0.15652
1470345643985053,-0.351734,0.00337365,0.15652
1470345644001171,-0.351734,0.00337365,0.15652
1470345644024097,-0.351734,0.00337365,0.15652
1470345644046115,-0.351724,0.00349347,0.156499
1470345644061129,-0.351724,0.00349347,0.156499
1470345644084189,-0.351851,0.0035029,0.1565
1470345644105272,-0.351851,0.0035029,0.1565
1470345644121132,-0.351851,0.0035029,0.1565
1470345644144154,-0.351841,0.00362271,0.156479
1470345644165206,-0.351714,0.00361328,0.156477
1470345644181186,-0.351841,0.00362271,0.156479
1470345644204225,-0.351841,0.00362271,0.156479
1470345644225319,-0.351841,0.00362271,0.156479
1470345644241277,-0.351831,0.00374252,0.156457
1470345644264299,-0.351831,0.00374252,0.156457
1470345644286319,-0.351831,0.00374252,0.156457
1470345644301337,-0.351833,0.00376384,0.156578
1470345644323424,-0.351833,0.00376384,0.156578
1470345644346412,-0.351823,0.00388365,0.156557
1470345644361427,-0.351823,0.00388365,0.156557
1470345644384447,-0.351823,0.00388365,0.156557
1470345644406984,-0.351813,0.00400347,0.156535
1470345644420636,-0.351813,0.00400347,0.156535
1470345644443593,-0.351813,0.00400347,0.156535
1470345644466614,-0.351813,0.00400347,0.156535
1470345644480633,-0.351803,0.00412328,0.156514
1470345644504173,-0.351803,0.00412328,0.156514
1470345644526719,-0.351803,0.00412328,0.156514
1470345644540736,-0.351803,0.00412328,0.156514
1470345644563758,-0.351921,0.00425254,0.156494
1470345644586774,-0.351921,0.00425254,0.156494
1470345644600803,-0.351921,0.00425254,0.156494
1470345644623916,-0.351921,0.00425254,0.156494
1470345644646973,-0.351911,0.00437235,0.156472
1470345644660950,-0.351911,0.00437235,0.156472
1470345644683977,-0.351911,0.00437235,0.156472
1470345644706560,-0.351901,0.00449216,0.156451
1470345644721074,-0.351902,0.00451349,0.156572
1470345644744093,-0.351902,0.00451349,0.156572
1470345644766113,-0.351902,0.00451349,0.156572
1470345644787190,-0.351379,0.00474859,0.156026
1470345644804147,-0.351577,0.00523868,0.155194
1470345644826725,-0.352676,0.00545712,0.154547
1470345644854786,-0.353396,0.00568982,0.154139
1470345644863828,-0.353523,0.00569913,0.15414
1470345644886779,-0.353514,0.00581894,0.154119
1470345644907802,-0.353642,0.00584969,0.154241
1470345644924104,-0.353612,0.00597079,0.15421
1470345644946123,-0.353339,0.00643008,0.154131
1470345644967144,-0.352939,0.00688011,0.15405
1470345644984158,-0.352812,0.00687079,0.154049
1470345645006689,-0.352802,0.00699061,0.154027
1470345645012208,-0.352802,0.00699061,0.154027
1470345645034873,-0.352802,0.00699061,0.154027
1470345645049870,-0.352802,0.00699061,0.154027
1470345645071871,-0.352919,0.00688135,0.154041
1470345645094887,-0.35291,0.00700116,0.154019
1470345645109470,-0.35291,0.00700116,0.154019
1470345645134493,-0.35291,0.00700116,0.154019
1470345645154512,-0.3529,0.00712097,0.153998
1470345645169580,-0.352793,0.00711042,0.154006
1470345645191591,-0.3529,0.00712097,0.153998
1470345645214617,-0.352793,0.00711042,0.154006
1470345645229633,-0.352901,0.00714237,0.154119
1470345645251656,-0.352784,0.00725163,0.154106
1470345645274750,-0.352784,0.00725163,0.154106
1470345645289689,-0.352784,0.00725163,0.154106
1470345645312355,-0.352784,0.00725163,0.154106
1470345645334458,-0.352784,0.00725163,0.154106
1470345645349465,-0.352784,0.00725163,0.154106
1470345645372442,-0.352775,0.00737145,0.154084
1470345645394513,-0.352775,0.00737145,0.154084
1470345645412488,-0.352765,0.00749126,0.154063
1470345645432073,-0.352765,0.00749126,0.154063
1470345645454033,-0.352765,0.00749126,0.154063
1470345645472048,-0.352765,0.00749126,0.154063
1470345645492095,-0.352765,0.00749126,0.154063
1470345645514634,-0.352756,0.00761108,0.154041
1470345645531195,-0.352756,0.00761108,0.154041
1470345645552254,-0.352756,0.00761108,0.154041
1470345645574265,-0.352863,0.0076216,0.154033
1470345645589301,-0.352853,0.00774141,0.154011
1470345645612364,-0.352853,0.00774141,0.154011
1470345645634500,-0.352853,0.00774141,0.154011
1470345645649516,-0.35298,0.00775074,0.154013
1470345645671478,-0.35298,0.00775074,0.154013
1470345645694496,-0.35298,0.00775074,0.154013
1470345645710518,-0.35298,0.00775074,0.154013
1470345645732346,-0.352971,0.00787055,0.153991
1470345645754431,-0.353099,0.00790129,0.154114
1470345645770380,-0.353099,0.00790129,0.154114
1470345645792420,-0.35309,0.0080211,0.154092
1470345645815062,-0.35309,0.0080211,0.154092
1470345645830613,-0.35309,0.0080211,0.154092
1470345645851543,-0.35309,0.0080211,0.154092
1470345645874578,-0.35309,0.0080211,0.154092
1470345645890578,-0.35309,0.0080211,0.154092
1470345645912183,-0.35308,0.00814091,0.154071
1470345645934398,-0.35308,0.00814091,0.154071
1470345645950418,-0.353207,0.00815024,0.154072
1470345645972431,-0.353207,0.00815024,0.154072
1470345645994494,-0.35308,0.00814091,0.154071
1470345646010987,-0.35308,0.00814091,0.154071
1470345646032559,-0.353198,0.00827005,0.15405
1470345646054661,-0.353198,0.00827005,0.15405
1470345646070585,-0.353198,0.00827005,0.15405
1470345646099701,-0.353198,0.00827005,0.15405
1470345646114728,-0.353198,0.00827005,0.15405
1470345646130753,-0.353325,0.00827939,0.154051
1470345646151822,-0.353325,0.00827939,0.154051
1470345646174830,-0.353325,0.00827939,0.154051
1470345646192803,-0.353325,0.00827939,0.154051
1470345646212374,-0.353325,0.00827939,0.154051
1470345646234953,-0.353315,0.0083992,0.15403
1470345646251967,-0.353325,0.00827939,0.154051
1470345646272043,-0.353315,0.0083992,0.15403
1470345646295006,-0.353325,0.00827939,0.154051
1470345646312560,-0.353452,0.00828872,0.154052
1470345646331675,-0.353452,0.00828872,0.154052
1470345646354724,-0.353452,0.00828872,0.154052
1470345646372711,-0.353452,0.00828872,0.154052
1470345646391784,-0.353452,0.00828872,0.154052
1470345646414766,-0.35296,0.00796895,0.153848
1470345646432360,-0.35296,0.00796895,0.153848
1470345646452380,-0.353379,0.00749625,0.153817
1470345646474397,-0.353379,0.00749625,0.153817
1470345646492416,-0.353379,0.00749625,0.153817
1470345646512437,-0.353379,0.00749625,0.153817
1470345646534399,-0.353389,0.00737644,0.153838
1470345646552441,-0.353389,0.00737644,0.153838
1470345646572498,-0.353516,0.00738575,0.153839
1470345646594544,-0.353389,0.00737644,0.153838
1470345646612512,-0.353516,0.00738575,0.153839
1470345646631588,-0.353516,0.00738575,0.153839
1470345646654602,-0.353525,0.00726594,0.153861
1470345646672618,-0.353525,0.00726594,0.153861
1470345646691642,-0.353525,0.00726594,0.153861
1470345646714624,-0.353525,0.00726594,0.153861
1470345646732648,-0.353535,0.00714614,0.153883
1470345646753663,-0.353535,0.00714614,0.153883
1470345646774684,-0.353535,0.00714614,0.153883
1470345646792697,-0.353661,0.00713401,0.153763
1470345646813756,-0.353661,0.00713401,0.153763
1470345646834822,-0.353641,0.00713523,0.153753
1470345646852876,-0.353279,0.00710609,0.153759
1470345646873846,-0.353407,0.00711539,0.15376
1470345646894865,-0.353416,0.00699559,0.153782
1470345646912478,-0.353416,0.00699559,0.153782
1470345646933050,-0.353416,0.00699559,0.153782
1470345646954070,-0.353151,0.00707537,0.153636
1470345646972088,-0.352517,0.00728866,0.153718
1470345646993105,-0.352517,0.00728866,0.153718
1470345647014646,-0.352517,0.00728866,0.153718
1470345647032742,-0.352517,0.00728866,0.153718
1470345647053841,-0.352517,0.00728866,0.153718
1470345647074836,-0.352517,0.00728866,0.153718
1470345647092841,-0.352644,0.00729797,0.153719
1470345647115399,-0.352301,0.00700783,0.153646
1470345647134072,-0.352309,0.00686665,0.153547
1470345647152033,-0.3523,0.00698647,0.153525
1470345647175055,-0.352309,0.00686665,0.153547
1470345647194074,-0.351953,0.00641529,0.153244
1470345647212601,-0.351617,0.00598411,0.153071
1470345647235236,-0.35149,0.00597486,0.15307
1470345647254252,-0.35149,0.00597486,0.15307
1470345647272211,-0.3515,0.00585503,0.153091
1470345647302238,-0.3515,0.00585503,0.153091
1470345647314826,-0.3515,0.00585503,0.153091
1470345647332839,-0.3515,0.00585503,0.153091
1470345647354849,-0.3515,0.00585503,0.153091
1470345647374866,-0.351163,0.00540261,0.152797
1470345647392883,-0.351071,0.0048502,0.152518
1470345647414910,-0.350745,0.00429935,0.152366
1470345647433973,-0.350779,0.0037562,0.152088
1470345647451989,-0.350454,0.00320542,0.151936
1470345647475041,-0.349981,0.00264699,0.151774
1470345647502035,-0.349645,0.00221617,0.1516
1470345647518556,-0.349435,0.00177334,0.151306
1470345647535120,-0.349435,0.00177334,0.151306
1470345647555189,-0.349435,0.00177334,0.151306
1470345647571148,-0.349445,0.00165348,0.151328
1470345647594221,-0.349445,0.00165348,0.151328
1470345647615697,-0.349445,0.00165348,0.151328
1470345647631245,-0.349445,0.00165348,0.151328
1470345647654238,-0.349455,0.00153361,0.151349
1470345647675309,-0.349455,0.00153361,0.151349
1470345647691268,-0.349455,0.00153361,0.151349
1470345647714798,-0.349455,0.00153361,0.151349
1470345647735263,-0.349453,0.00151245,0.151228
1470345647751220,-0.349453,0.00151245,0.151228
1470345647774239,-0.349326,0.00150335,0.151227
1470345647795312,-0.349326,0.00150335,0.151227
1470345647811781,-0.349326,0.00150335,0.151227
1470345647834404,-0.349336,0.00138348,0.151248
1470345647855422,-0.349336,0.00138348,0.151248
1470345647871438,-0.349336,0.00138348,0.151248
1470345647894456,-0.349336,0.00138348,0.151248
1470345647915526,-0.349345,0.00126362,0.151269
1470345647931588,-0.349345,0.00126362,0.151269
1470345647953652,-0.349345,0.00126362,0.151269
1470345647975628,-0.348854,0.00118344,0.15103
1470345647991643,-0.348727,0.00117436,0.151028
1470345648014195,-0.348854,0.00118344,0.15103
1470345648036749,-0.348863,0.00106357,0.151051
1470345648051762,-0.348345,0.00114711,0.151024
1470345648073784,-0.348345,0.00114711,0.151024
1470345648096803,-0.348355,0.00102724,0.151045
1470345648111881,-0.348355,0.00102724,0.151045
1470345648133625,-0.348375,0.00102571,0.151054
1470345648156607,-0.348375,0.00102571,0.151054
1470345648171620,-0.348248,0.00101662,0.151052
1470345648193729,-0.348257,0.000896745,0.151074
1470345648216756,-0.348257,0.000896745,0.151074
1470345648230462,-0.347886,0.000749618,0.151091
1470345648254476,-0.347886,0.000749618,0.151091
1470345648283594,-0.347264,0.00086461,0.151313
1470345648290509,-0.346661,0.000739679,0.151578
1470345648314060,-0.34617,0.000688165,0.1522
1470345648336087,-0.345325,0.000466414,0.152725
1470345648351098,-0.344981,0.000183627,0.153391
1470345648374126,-0.344129,0.000101805,0.154016
1470345648396186,-0.342757,6.0685e-05,0.154372
1470345648411162,-0.341399,0.000178754,0.154959
1470345648434186,-0.340408,0.000164501,0.15532
1470345648456205,-0.339155,0.000271663,0.155778
1470345648471226,-0.338032,0.000666931,0.156449
1470345648494241,-0.336527,0.000753954,0.156905
1470345648516810,-0.335185,0.000567623,0.15717
1470345648537441,-0.335058,0.000558168,0.157168
1470345648554402,-0.335089,0.000218511,0.157351
1470345648576436,-0.335614,-0.000262611,0.157188
1470345648597522,-0.336665,-0.000946,0.157072
1470345648614015,-0.337568,-0.00141947,0.156793
1470345648636571,-0.338609,-0.00198326,0.156658
1470345648657646,-0.338609,-0.00198326,0.156658
1470345648673624,-0.338609,-0.00198326,0.156658
1470345648696626,-0.338609,-0.00198326,0.156658
1470345648717671,-0.338736,-0.00197387,0.15666
1470345648733690,-0.338887,-0.00240151,0.156978
1470345648756713,-0.338439,-0.00292073,0.157064
1470345648777754,-0.338236,-0.00353932,0.157164
1470345648793748,-0.33854,-0.00412028,0.157272
1470345648816799,-0.338952,-0.00468993,0.157372
1470345648837861,-0.338962,-0.00480988,0.157393
1470345648853852,-0.338962,-0.00480988,0.157393
1470345648876901,-0.338962,-0.00480988,0.157393
1470345648914920,-0.338962,-0.00480988,0.157393
1470345648917418,-0.338972,-0.00492982,0.157414
1470345648936941,-0.338972,-0.00492982,0.157414
1470345648957975,-0.338972,-0.00492982,0.157414
1470345648973975,-0.339627,-0.00536062,0.157498
1470345648996101,-0.339627,-0.00536062,0.157498
1470345649019182,-0.339627,-0.00536062,0.157498
1470345649034248,-0.339627,-0.00536062,0.157498
1470345649056268,-0.339764,-0.00547115,0.15752
1470345649079289,-0.339764,-0.00547115,0.15752
1470345649094302,-0.339637,-0.00548056,0.157518
1470345649116828,-0.340163,-0.00570338,0.157447
1470345649138879,-0.340947,-0.00610411,0.157654
1470345649152953,-0.341748,-0.00678588,0.157662
1470345649176912,-0.342558,-0.007846,0.157602
1470345649198976,-0.344033,-0.00898127,0.157585
1470345649213453,-0.345385,-0.0103427,0.157723
1470345649236501,-0.34632,-0.0112108,0.158012
1470345649258619,-0.346514,-0.0118788,0.158386
1470345649273534,-0.346524,-0.0119987,0.158407
1470345649296608,-0.34663,-0.0117833,0.158864
1470345649319188,-0.346586,-0.0111003,0.159242
1470345649333432,-0.346414,-0.0104476,0.159497
1470345649356454,-0.346513,-0.0100366,0.159678
1470345649379472,-0.346987,-0.0096938,0.159999
1470345649393484,-0.34748,-0.00961153,0.160241
1470345649416518,-0.34798,-0.00967001,0.160384
1470345649439252,-0.348356,-0.0097169,0.160645
1470345649453265,-0.348997,-0.00986441,0.160933
1470345649476286,-0.348997,-0.00986441,0.160933
1470345649499306,-0.348839,-0.00928928,0.161451
1470345649520444,-0.348316,-0.00876641,0.161851
1470345649536579,-0.348141,-0.00813477,0.161984
1470345649558631,-0.348228,-0.00762473,0.162022
1470345649580619,-0.348547,-0.00711429,0.161933
1470345649596673,-0.348776,-0.00689749,0.161651
1470345649619192,-0.348776,-0.00689749,0.161651
1470345649640419,-0.348649,-0.00690712,0.161649
1470345649656375,-0.348638,-0.00678729,0.161628
1470345649679396,-0.348638,-0.00678729,0.161628
1470345649700417,-0.348285,-0.00673412,0.162117
1470345649716991,-0.347897,-0.00660122,0.162332
1470345649738977,-0.348024,-0.00659154,0.162334
1470345649759993,-0.348024,-0.00659154,0.162334
1470345649777009,-0.348504,-0.00640982,0.162432
1470345649799049,-0.348599,-0.00604065,0.16237
1470345649820591,-0.348804,-0.00563864,0.162422
1470345649836671,-0.348804,-0.00563864,0.162422
1470345649858691,-0.348523,-0.00499773,0.162684
1470345649880771,-0.348226,-0.00431274,0.16318
1470345649896726,-0.347514,-0.0033188,0.163485
1470345649919252,-0.347049,-0.00214372,0.164016
1470345649941290,-0.346953,-0.000840463,0.16441
1470345649956305,-0.346837,0.000723444,0.164883
1470345649979326,-0.34671,0.00240718,0.165336
1470345650001343,-0.346526,0.0046347,0.166058
1470345650016869,-0.34562,0.00681972,0.166916
1470345650039396,-0.344384,0.00982936,0.168366
1470345650061415,-0.343869,0.0131816,0.170019
1470345650076430,-0.343436,0.0170229,0.171592
1470345650099451,-0.343039,0.0203009,0.172764
1470345650121526,-0.342191,0.022952,0.173422
1470345650136308,-0.341383,0.0250191,0.173557
1470345650159329,-0.341739,0.0267242,0.173888
1470345650181349,-0.342389,0.0279507,0.17418
1470345650196364,-0.342182,0.0287843,0.174777
1470345650219392,-0.340999,0.0295724,0.175638
1470345650241421,-0.339709,0.0301297,0.176663
1470345650255501,-0.338714,0.0302488,0.177892
1470345650279450,-0.33806,0.0306604,0.179192
1470345650301473,-0.337787,0.0309062,0.180766
1470345650316032,-0.336879,0.0313349,0.18231
1470345650339201,-0.335833,0.0318707,0.183836
1470345650361192,-0.335252,0.0327111,0.185432
1470345650376220,-0.33468,0.0336296,0.186777
1470345650399225,-0.33434,0.0345501,0.187989
1470345650428767,-0.334496,0.0356166,0.189058
1470345650442781,-0.334862,0.0369873,0.19032
1470345650458795,-0.334974,0.0383552,0.191704
1470345650481815,-0.334978,0.0396707,0.192856
1470345650502879,-0.33458,0.0411488,0.193726
1470345650519354,-0.334794,0.0427276,0.194826
1470345650541881,-0.335524,0.0442358,0.195944
1470345650562947,-0.335767,0.0456758,0.196954
1470345650578916,-0.335991,0.0470742,0.197707
1470345650601935,-0.336246,0.0483125,0.198248
1470345650623012,-0.336768,0.0492363,0.198956
1470345650639045,-0.338273,0.0503795,0.199624
1470345650662066,-0.339522,0.0517392,0.200266
1470345650683090,-0.340116,0.0532345,0.200626
1470345650699098,-0.341067,0.0550285,0.201065
1470345650721669,-0.341764,0.0567977,0.201505
1470345650742750,-0.341838,0.0583838,0.201972
1470345650758729,-0.342335,0.0597491,0.202364
1470345650781750,-0.342941,0.0611049,0.202619
1470345650802826,-0.343567,0.0624625,0.202886
1470345650819334,-0.344554,0.0636587,0.203408
1470345650841433,-0.345687,0.0648701,0.20394
1470345650862428,-0.346662,0.0661871,0.204439
1470345650879443,-0.347517,0.0676347,0.205055
1470345650901510,-0.34851,0.0689764,0.205688
1470345650924589,-0.348994,0.0702663,0.206328
1470345650939148,-0.349442,0.0719372,0.207029
1470345650961166,-0.34989,0.0736087,0.207731
1470345650984187,-0.350079,0.0752972,0.208681
1470345650999260,-0.350015,0.0771577,0.209364
1470345651021786,-0.34982,0.0788063,0.210323
1470345651044348,-0.349923,0.0802233,0.211208
1470345651058360,-0.349748,0.0816324,0.212208
1470345651081392,-0.349604,0.0829243,0.213242
1470345651104402,-0.350052,0.0843013,0.214359
1470345651118507,-0.350912,0.0856036,0.215501
1470345651141491,-0.351503,0.0868326,0.216389
1470345651164512,-0.351838,0.0882548,0.217133
1470345651178569,-0.351945,0.0896084,0.21765
1470345651201593,-0.352155,0.090995,0.218274
1470345651224104,-0.352621,0.0926309,0.218742
1470345651238245,-0.353043,0.0942828,0.219306
1470345651261278,-0.353202,0.0961932,0.220095
1470345651284275,-0.353259,0.0980491,0.220656
1470345651298313,-0.353685,0.0999007,0.220947
1470345651321816,-0.355508,0.101544,0.221229
1470345651343843,-0.357491,0.102897,0.221177
1470345651357905,-0.359586,0.104481,0.220955
1470345651381876,-0.36155,0.106316,0.22083
1470345651411904,-0.363097,0.108298,0.220413
1470345651425427,-0.364309,0.110222,0.219912
1470345651441969,-0.364939,0.111696,0.219381
1470345651463989,-0.364589,0.112745,0.219206
1470345651485062,-0.363621,0.113408,0.219359
1470345651502023,-0.363216,0.113723,0.219962
1470345651524558,-0.36278,0.113908,0.220556
1470345651545084,-0.362379,0.113955,0.221062
1470345651562098,-0.362389,0.113836,0.221082
1470345651584118,-0.361909,0.113662,0.221134
1470345651605186,-0.360792,0.113637,0.221058
1470345651621698,-0.360406,0.113912,0.220778
1470345651651841,-0.360049,0.113902,0.220292
1470345651664851,-0.360063,0.113886,0.219532
1470345651681867,-0.360254,0.113553,0.218966
1470345651703887,-0.360539,0.113423,0.218095
1470345651725911,-0.360428,0.113563,0.21758
1470345651741431,-0.359566,0.113643,0.217229
1470345651764452,-0.358683,0.113719,0.216863
1470345651785499,-0.357752,0.114246,0.216931
1470345651801492,-0.357285,0.115034,0.217441
1470345651824537,-0.356658,0.116243,0.217629
1470345651846605,-0.356172,0.117398,0.217444
1470345651861630,-0.35568,0.118652,0.217117
1470345651883662,-0.355574,0.119949,0.216776
1470345651906651,-0.355635,0.120856,0.216244
1470345651921244,-0.355574,0.121726,0.215593
1470345651943772,-0.355666,0.122348,0.214853
1470345651966792,-0.355759,0.122971,0.214113
1470345651981806,-0.355646,0.123209,0.213456
1470345652003825,-0.355534,0.123448,0.212799
1470345652026914,-0.35545,0.123403,0.211936
1470345652040951,-0.355515,0.123282,0.210574
1470345652063951,-0.355987,0.122865,0.20938
1470345652086971,-0.35659,0.122194,0.208084
1470345652100984,-0.356834,0.121389,0.20696
1470345652124569,-0.356572,0.120751,0.205708
1470345652146772,-0.35629,0.120354,0.204415
1470345652161783,-0.355995,0.120175,0.20296
1470345652183802,-0.356018,0.120556,0.201644
1470345652206823,-0.355758,0.121272,0.200278
1470345652221390,-0.355216,0.122245,0.199129
1470345652244360,-0.353657,0.123605,0.197969
1470345652266380,-0.352197,0.125269,0.196366
1470345652281392,-0.350899,0.126833,0.194792
1470345652304413,-0.349544,0.128898,0.193254
1470345652326984,-0.348805,0.131145,0.191658
1470345652347614,-0.348577,0.133297,0.189923
1470345652364575,-0.347873,0.13536,0.187981
1470345652386595,-0.347084,0.13708,0.186239
1470345652407614,-0.346823,0.138266,0.18468
1470345652424137,-0.347706,0.13907,0.183117
1470345652446229,-0.349266,0.139628,0.18119
1470345652467246,-0.351257,0.139869,0.178668
1470345652484261,-0.353015,0.13972,0.176218
1470345652506280,-0.354513,0.139639,0.174285
1470345652527830,-0.355344,0.139684,0.172734
1470345652543917,-0.355015,0.139913,0.171458
1470345652566900,-0.354092,0.139976,0.170258
1470345652587969,-0.353238,0.140007,0.16954
1470345652603944,-0.352488,0.14014,0.169306
1470345652626965,-0.351848,0.140351,0.169434
1470345652647800,-0.350681,0.140756,0.169549
1470345652663752,-0.349554,0.140905,0.169593
1470345652686788,-0.349074,0.140919,0.169243
1470345652707813,-0.349133,0.140892,0.168376
1470345652724329,-0.349785,0.140932,0.167575
1470345652746395,-0.350734,0.140738,0.166689
1470345652767414,-0.35117,0.140596,0.165687
1470345652784429,-0.351241,0.140328,0.164859
1470345652806449,-0.351297,0.139833,0.164182
1470345652812454,-0.352013,0.138936,0.163674
1470345652834989,-0.353145,0.137666,0.162961
1470345652850001,-0.354635,0.136348,0.162484
1470345652872067,-0.355503,0.134881,0.162195
1470345652895074,-0.356096,0.133752,0.16186
1470345652910055,-0.356927,0.132812,0.161739
1470345652931713,-0.357116,0.131913,0.161506
1470345652954743,-0.357293,0.131255,0.161233
1470345652969775,-0.35735,0.130734,0.16108
1470345652991796,-0.357129,0.130284,0.160785
1470345653014828,-0.357129,0.130284,0.160785
1470345653029901,-0.357544,0.129911,0.160583
1470345653052104,-0.357472,0.129478,0.160293
1470345653075093,-0.357624,0.129301,0.15994
1470345653090108,-0.358168,0.128842,0.159875
1470345653112195,-0.358709,0.128113,0.159717
1470345653134290,-0.358772,0.127374,0.159727
1470345653149338,-0.358584,0.126591,0.159627
1470345653172368,-0.358584,0.126591,0.159627
1470345653194361,-0.358497,0.126031,0.159347
1470345653211359,-0.358911,0.125756,0.159003
1470345653232451,-0.359081,0.125219,0.158712
1470345653254471,-0.359265,0.124807,0.158411
1470345653269486,-0.359556,0.1244,0.158094
1470345653292505,-0.360079,0.123935,0.15802
1470345653314560,-0.360079,0.123935,0.15802
1470345653330061,-0.360079,0.123935,0.15802
1470345653351671,-0.360091,0.123792,0.157918
1470345653374632,-0.360091,0.123792,0.157918
1470345653390682,-0.360091,0.123792,0.157918
1470345653411668,-0.360091,0.123792,0.157918
1470345653434795,-0.360091,0.123792,0.157918
1470345653458763,-0.360091,0.123792,0.157918
1470345653471774,-0.360219,0.123803,0.157913
1470345653494793,-0.360219,0.123803,0.157913
1470345653510808,-0.360219,0.123803,0.157913
1470345653531878,-0.360091,0.123792,0.157918
1470345653554944,-0.360336,0.123956,0.158009
1470345653570912,-0.360811,0.124257,0.158057
1470345653591983,-0.360817,0.124137,0.158077
1470345653614978,-0.361329,0.123814,0.158105
1470345653630975,-0.362419,0.124284,0.158093
1470345653652051,-0.363003,0.12525,0.157645
1470345653675019,-0.36298,0.125536,0.157848
1470345653691079,-0.362962,0.125897,0.157786
1470345653712053,-0.362973,0.125754,0.157685
1470345653734616,-0.362968,0.125776,0.157807
1470345653752649,-0.362962,0.125897,0.157786
1470345653771659,-0.362973,0.125754,0.157685
1470345653794684,-0.363102,0.125765,0.157679
1470345653812714,-0.363102,0.125765,0.157679
1470345653832339,-0.363102,0.125765,0.157679
1470345653854413,-0.36323,0.125776,0.157673
1470345653872377,-0.36323,0.125776,0.157673
1470345653892438,-0.36323,0.125776,0.157673
1470345653914439,-0.36323,0.125776,0.157673
1470345653932515,-0.36323,0.125776,0.157673
1470345653952538,-0.362704,0.125973,0.157655
1470345653974592,-0.362704,0.125973,0.157655
1470345653992576,-0.362575,0.125962,0.157661
1470345654011624,-0.362698,0.126093,0.157635
1470345654034744,-0.362704,0.125973,0.157655
1470345654052767,-0.362704,0.125973,0.157655
1470345654074753,-0.362698,0.126093,0.157635
1470345654094832,-0.362698,0.126093,0.157635
1470345654112789,-0.362692,0.126116,0.157757
1470345654132355,-0.362692,0.126116,0.157757
1470345654154698,-0.362692,0.126116,0.157757
1470345654172745,-0.362692,0.126116,0.157757
1470345654191726,-0.362692,0.126116,0.157757
1470345654214777,-0.362692,0.126116,0.157757
1470345654232832,-0.362686,0.126236,0.157736
1470345654251905,-0.362686,0.126236,0.157736
1470345654274871,-0.362821,0.126126,0.157751
1470345654291885,-0.362815,0.126247,0.157731
1470345654311941,-0.362815,0.126247,0.157731
1470345654334984,-0.362815,0.126247,0.157731
1470345654353001,-0.362815,0.126247,0.157731
1470345654373041,-0.362943,0.126258,0.157725
1470345654402044,-0.362943,0.126258,0.157725
1470345654412053,-0.362943,0.126258,0.157725
1470345654433675,-0.362937,0.126378,0.157704
1470345654454717,-0.362809,0.126367,0.15771
1470345654476764,-0.362937,0.126378,0.157704
1470345654493728,-0.362937,0.126378,0.157704
1470345654514746,-0.362937,0.126378,0.157704
1470345654532779,-0.363066,0.126389,0.157698
1470345654553003,-0.363045,0.126383,0.157688
1470345654574967,-0.363173,0.126394,0.157682
1470345654591984,-0.363173,0.126394,0.157682
1470345654613029,-0.363173,0.126394,0.157682
1470345654635146,-0.363045,0.126383,0.157688
1470345654653125,-0.363039,0.126503,0.157667
1470345654673215,-0.363693,0.126415,0.157536
1470345654694198,-0.364552,0.126284,0.15776
1470345654712170,-0.364901,0.126282,0.158241
1470345654735260,-0.364878,0.126471,0.158587
1470345654754301,-0.364355,0.127034,0.158518
1470345654772289,-0.364072,0.127689,0.158162
1470345654795311,-0.3642,0.127992,0.157727
1470345654814328,-0.3642,0.127992,0.157727
1470345654832850,-0.3642,0.127992,0.157727
1470345654855424,-0.364705,0.127789,0.157734
1470345654874499,-0.36534,0.127403,0.158021
1470345654892453,-0.365733,0.12712,0.15831
1470345654914473,-0.365711,0.127115,0.158299
1470345654934683,-0.36534,0.127403,0.158021
1470345654952610,-0.36534,0.127403,0.158021
1470345654974631,-0.365237,0.12757,0.15763
1470345654994653,-0.365237,0.12757,0.15763
1470345655012665,-0.365237,0.12757,0.15763
1470345655035462,-0.365481,0.127173,0.158057
1470345655054479,-0.36509,0.127066,0.158339
1470345655072508,-0.36486,0.126929,0.158382
1470345655095512,-0.36486,0.126929,0.158382
1470345655114584,-0.364725,0.127039,0.158368
1470345655132640,-0.364725,0.127039,0.158368
1470345655155243,-0.364725,0.127039,0.158368
1470345655174303,-0.364725,0.127039,0.158368
1470345655192276,-0.364951,0.126905,0.158875
1470345655215298,-0.36508,0.126916,0.15887
1470345655235876,-0.364452,0.12689,0.159032
1470345655252890,-0.363818,0.127082,0.15903
1470345655273937,-0.363818,0.127082,0.15903
1470345655295970,-0.364081,0.127081,0.158897
1470345655312981,-0.364677,0.127049,0.159111
1470345655334818,-0.364805,0.12706,0.159105
1470345655355871,-0.364805,0.12706,0.159105
1470345655371851,-0.364799,0.127181,0.159084
1470345655393871,-0.364799,0.127181,0.159084
1470345655414893,-0.364562,0.127359,0.158821
1470345655431991,-0.364433,0.127348,0.158827
1470345655454046,-0.364562,0.127359,0.158821
1470345655475103,-0.365325,0.127179,0.158817
1470345655492080,-0.365325,0.127179,0.158817
1470345655514127,-0.365453,0.12719,0.158811
1470345655535308,-0.365073,0.127134,0.158706
1470345655551309,-0.365073,0.127134,0.158706
1470345655574278,-0.365073,0.127134,0.158706
1470345655595339,-0.365561,0.127195,0.158794
1470345655611310,-0.365689,0.127206,0.158788
1470345655633848,-0.364804,0.127255,0.158819
1470345655656136,-0.36431,0.127315,0.15871
1470345655671112,-0.36431,0.127315,0.15871
1470345655694132,-0.36431,0.127315,0.15871
1470345655716153,-0.36431,0.127315,0.15871
1470345655731670,-0.36431,0.127315,0.15871
1470345655753756,-0.364439,0.127326,0.158705
1470345655776742,-0.364439,0.127326,0.158705
1470345655790765,-0.364158,0.127687,0.158777
1470345655813836,-0.364029,0.127676,0.158783
1470345655836881,-0.363406,0.12792,0.158394
1470345655850945,-0.363029,0.128231,0.158239
1470345655873914,-0.363029,0.128231,0.158239
1470345655896934,-0.363029,0.128231,0.158239
1470345655910948,-0.363512,0.128217,0.158592
1470345655934476,-0.363489,0.128406,0.158938
1470345655956791,-0.362945,0.12867,0.159287
1470345655970803,-0.362776,0.129209,0.159578
1470345655993824,-0.362494,0.129668,0.159508
1470345656016861,-0.362358,0.13007,0.159065
1470345656031403,-0.362352,0.130483,0.158616
1470345656053973,-0.362737,0.130614,0.158455
1470345656076989,-0.363987,0.130592,0.158394
1470345656091003,-0.364116,0.130603,0.158388
1470345656114047,-0.363584,0.130627,0.158779
1470345656137139,-0.362816,0.130733,0.15905
1470345656158158,-0.362311,0.130838,0.159187
1470345656174176,-0.362311,0.130838,0.159187
1470345656196238,-0.362311,0.130838,0.159187
1470345656218214,-0.36244,0.130849,0.159181
1470345656234276,-0.36244,0.130849,0.159181
1470345656257279,-0.362547,0.130854,0.159164
1470345656278280,-0.362547,0.130854,0.159164
1470345656294302,-0.362182,0.130924,0.15905
1470345656316315,-0.36206,0.130793,0.159077
1470345656338115,-0.36206,0.130793,0.159077
1470345656354098,-0.362681,0.130842,0.159036
1470345656377118,-0.362681,0.130842,0.159036
1470345656398136,-0.362681,0.130842,0.159036
1470345656414151,-0.36281,0.130853,0.15903
1470345656436344,-0.36281,0.130853,0.15903
1470345656458342,-0.36281,0.130853,0.15903
1470345656474334,-0.362939,0.130864,0.159023
1470345656496312,-0.36281,0.130853,0.15903
1470345656517387,-0.36281,0.130853,0.15903
1470345656534399,-0.362939,0.130864,0.159023
1470345656556423,-0.362939,0.130864,0.159023
1470345656577442,-0.362939,0.130864,0.159023
1470345656594458,-0.363067,0.130875,0.159017
1470345656616485,-0.363067,0.130875,0.159017
1470345656638667,-0.363067,0.130875,0.159017
1470345656653705,-0.363067,0.130875,0.159017
1470345656676736,-0.363067,0.130875,0.159017
1470345656698706,-0.363067,0.130875,0.159017
1470345656713717,-0.363196,0.130886,0.159011
1470345656736751,-0.363701,0.130683,0.159017
1470345656758771,-0.364341,0.130469,0.158895
1470345656773786,-0.36484,0.130387,0.158881
1470345656796804,-0.365367,0.130288,0.158755
1470345656818825,-0.365367,0.130288,0.158755
1470345656833842,-0.365367,0.130288,0.158755
1470345656856891,-0.365367,0.130288,0.158755
1470345656878979,-0.365367,0.130288,0.158755
1470345656893924,-0.365367,0.130288,0.158755
1470345656916945,-0.365984,0.13036,0.158836
1470345656939098,-0.365989,0.130239,0.158857
1470345656953073,-0.3666,0.130529,0.158775
1470345656977096,-0.366947,0.13082,0.158827
1470345656999114,-0.36707,0.130951,0.1588
1470345657013127,-0.367283,0.131254,0.15898
1470345657036216,-0.367131,0.131529,0.159189
1470345657059240,-0.366709,0.131926,0.159512
1470345657073251,-0.366551,0.132419,0.159557
1470345657096349,-0.365995,0.133022,0.159723
1470345657119288,-0.36546,0.133826,0.159615
1470345657140416,-0.36505,0.134469,0.159265
1470345657156375,-0.364641,0.135112,0.158916
1470345657179396,-0.364393,0.135532,0.158612
1470345657200475,-0.363648,0.135644,0.158253
1470345657216434,-0.363077,0.13539,0.157838
1470345657239508,-0.362496,0.134792,0.157595
1470345657260556,-0.362671,0.134133,0.157324
1470345657276546,-0.362756,0.133205,0.156989
1470345657299561,-0.36269,0.132553,0.156863
1470345657320624,-0.362231,0.132087,0.156593
1470345657336211,-0.361991,0.131801,0.156524
1470345657365503,-0.36212,0.131812,0.156518
1470345657380517,-0.361767,0.131741,0.156303
1470345657396549,-0.361414,0.131669,0.156087
1470345657419554,-0.361414,0.131669,0.156087
1470345657440085,-0.361285,0.131658,0.156093
1470345657456098,-0.361414,0.131669,0.156087
1470345657479181,-0.361414,0.131669,0.156087
1470345657500198,-0.361414,0.131669,0.156087
1470345657517153,-0.361414,0.131669,0.156087
1470345657539304,-0.361542,0.13168,0.156081
1470345657567364,-0.361542,0.13168,0.156081
1470345657576338,-0.361521,0.131673,0.15607
1470345657599361,-0.36165,0.131684,0.156064
1470345657621885,-0.36165,0.131684,0.156064
1470345657636899,-0.361778,0.131695,0.156058
1470345657659426,-0.361778,0.131695,0.156058
1470345657681445,-0.361778,0.131695,0.156058
1470345657696459,-0.361907,0.131706,0.156052
1470345657719480,-0.361907,0.131706,0.156052
1470345657741403,-0.362036,0.131717,0.156046
1470345657756413,-0.362036,0.131717,0.156046
1470345657779436,-0.362159,0.131848,0.156019
1470345657801455,-0.362159,0.131848,0.156019
1470345657815522,-0.362159,0.131848,0.156019
1470345657838577,-0.362164,0.131728,0.15604
1470345657861579,-0.362164,0.131728,0.15604
1470345657875656,-0.362159,0.131848,0.156019
1470345657899613,-0.362164,0.131728,0.15604
1470345657921676,-0.362272,0.131732,0.156023
1470345657936227,-0.362272,0.131732,0.156023
1470345657959482,-0.3624,0.131743,0.156017
1470345657981501,-0.3624,0.131743,0.156017
1470345657996523,-0.3624,0.131743,0.156017
1470345658019534,-0.3624,0.131743,0.156017
1470345658041257,-0.362406,0.131623,0.156037
1470345658063233,-0.362535,0.131634,0.156031
1470345658079247,-0.362535,0.131634,0.156031
1470345658101268,-0.362535,0.131634,0.156031
1470345658122863,-0.362535,0.131634,0.156031
1470345658138926,-0.362669,0.131622,0.155903
1470345658161943,-0.362669,0.131622,0.155903
1470345658182995,-0.362669,0.131622,0.155903
1470345658199020,-0.362669,0.131622,0.155903
1470345658221997,-0.362798,0.131633,0.155896
1470345658243108,-0.362798,0.131633,0.155896
1470345658259082,-0.362798,0.131633,0.155896
1470345658288108,-0.362927,0.131644,0.15589
1470345658303186,-0.362932,0.131523,0.155911
1470345658319136,-0.362927,0.131644,0.15589
1470345658341837,-0.362927,0.131644,0.15589
1470345658362944,-0.363055,0.131655,0.155884
1470345658378868,-0.363034,0.131648,0.155873
1470345658401889,-0.363034,0.131648,0.155873
1470345658422913,-0.363034,0.131648,0.155873
1470345658439439,-0.363034,0.131648,0.155873
1470345658461482,-0.363034,0.131648,0.155873
1470345658484482,-0.363163,0.131659,0.155867
1470345658499493,-0.363163,0.131659,0.155867
1470345658521515,-0.363163,0.131659,0.155867
1470345658544623,-0.363163,0.131659,0.155867
1470345658566644,-0.363163,0.131659,0.155867
1470345658581656,-0.363163,0.131659,0.155867
1470345658604677,-0.363291,0.13167,0.155861
1470345658618733,-0.363291,0.13167,0.155861
1470345658641755,-0.363291,0.13167,0.155861
1470345658663786,-0.363291,0.13167,0.155861
1470345658678789,-0.363291,0.13167,0.155861
1470345658701811,-0.363291,0.13167,0.155861
1470345658725400,-0.363291,0.13167,0.155861
1470345658738912,-0.36342,0.131681,0.155855
1470345658761939,-0.36342,0.131681,0.155855
1470345658783958,-0.36342,0.131681,0.155855
1470345658797986,-0.363414,0.131801,0.155834
1470345658821992,-0.36342,0.131681,0.155855
1470345658844582,-0.36342,0.131681,0.155855
1470345658858594,-0.36342,0.131681,0.155855
1470345658881614,-0.363549,0.131692,0.155849
1470345658904634,-0.363549,0.131692,0.155849
1470345658918673,-0.363543,0.131812,0.155828
1470345658942093,-0.363543,0.131812,0.155828
1470345658964112,-0.363543,0.131812,0.155828
1470345658978127,-0.363672,0.131823,0.155822
1470345659002145,-0.363672,0.131823,0.155822
1470345659031742,-0.363672,0.131823,0.155822
1470345659045878,-0.363543,0.131812,0.155828
1470345659061880,-0.363543,0.131812,0.155828
1470345659083968,-0.363537,0.131933,0.155808
1470345659104947,-0.363163,0.131562,0.15601
1470345659121933,-0.362888,0.131608,0.156389
1470345659144010,-0.362888,0.131608,0.156389
1470345659165072,-0.362888,0.131608,0.156389
1470345659182044,-0.363017,0.131619,0.156383
1470345659204062,-0.363017,0.131619,0.156383
1470345659225629,-0.363005,0.131957,0.156199
1470345659241683,-0.363117,0.132329,0.156132
1470345659264689,-0.363117,0.132329,0.156132
1470345659285702,-0.363117,0.132329,0.156132
1470345659301762,-0.363117,0.132329,0.156132
1470345659324327,-0.363111,0.13245,0.156111
1470345659344922,-0.363111,0.13245,0.156111
1470345659361898,-0.36324,0.132461,0.156105
1470345659383916,-0.363111,0.13245,0.156111
1470345659404934,-0.362959,0.13292,0.156035
1470345659421949,-0.363088,0.132931,0.156029
1470345659444016,-0.362685,0.133162,0.156129
1470345659467037,-0.362045,0.133377,0.156252
1470345659482050,-0.362045,0.133377,0.156252
1470345659504070,-0.362045,0.133377,0.156252
1470345659527150,-0.362045,0.133377,0.156252
1470345659541310,-0.362045,0.133377,0.156252
1470345659564239,-0.362039,0.133498,0.156232
1470345659586262,-0.362039,0.133498,0.156232
1470345659601274,-0.362018,0.133491,0.156221
1470345659624293,-0.361636,0.133826,0.156189
1470345659646361,-0.361508,0.133815,0.156196
1470345659661376,-0.361508,0.133815,0.156196
1470345659684395,-0.361636,0.133826,0.156189
1470345659706414,-0.361636,0.133826,0.156189
1470345659721429,-0.361631,0.133947,0.156169
1470345659744557,-0.361631,0.133947,0.156169
1470345659766636,-0.361631,0.133947,0.156169
1470345659781591,-0.361759,0.133958,0.156163
1470345659804611,-0.361362,0.134166,0.156141
1470345659826695,-0.361362,0.134166,0.156141
1470345659840248,-0.361356,0.134286,0.15612
1470345659863748,-0.361356,0.134286,0.15612
1470345659886715,-0.361356,0.134286,0.15612
1470345659900728,-0.361485,0.134297,0.156114
1470345659923748,-0.361356,0.134286,0.15612
1470345659946817,-0.361356,0.134286,0.15612
1470345659967838,-0.361485,0.134297,0.156114
1470345659983850,-0.361485,0.134297,0.156114
1470345660006873,-0.361485,0.134297,0.156114
1470345660028396,-0.361485,0.134297,0.156114
1470345660043915,-0.361485,0.134297,0.156114
1470345660066935,-0.361485,0.134297,0.156114
1470345660087954,-0.361485,0.134297,0.156114
1470345660103969,-0.361479,0.134417,0.156094
1470345660126994,-0.361479,0.134417,0.156094
1470345660147702,-0.361608,0.134428,0.156087
1470345660164716,-0.361608,0.134428,0.156087
1470345660186736,-0.361608,0.134428,0.156087
1470345660207814,-0.361608,0.134428,0.156087
1470345660223773,-0.361602,0.134549,0.156067
1470345660246302,-0.36171,0.134553,0.15605
1470345660268323,-0.36171,0.134553,0.15605
1470345660284336,-0.36171,0.134553,0.15605
1470345660306442,-0.36171,0.134553,0.15605
1470345660327992,-0.361838,0.134564,0.156043
1470345660344510,-0.361838,0.134564,0.156043
1470345660366542,-0.361838,0.134564,0.156043
1470345660389553,-0.361838,0.134564,0.156043
1470345660403570,-0.361838,0.134564,0.156043
1470345660427148,-0.361833,0.134685,0.156023
1470345660449679,-0.361833,0.134685,0.156023
1470345660464692,-0.361838,0.134564,0.156043
1470345660486732,-0.361967,0.134575,0.156037
1470345660508758,-0.361967,0.134575,0.156037
1470345660523775,-0.361961,0.134695,0.156017
1470345660546818,-0.361961,0.134695,0.156017
1470345660568930,-0.36209,0.134706,0.15601
1470345660583851,-0.36209,0.134706,0.15601
1470345660606872,-0.36209,0.134706,0.15601
1470345660629433,-0.36209,0.134706,0.15601
1470345660634980,-0.362096,0.134586,0.156031
1470345660651078,-0.362219,0.134717,0.156004
1470345660674029,-0.362219,0.134717,0.156004
1470345660695048,-0.362219,0.134717,0.156004
1470345660711063,-0.362219,0.134717,0.156004
1470345660733592,-0.362347,0.134728,0.155998
1470345660755241,-0.362326,0.134722,0.155987
1470345660771153,-0.362347,0.134728,0.155998
1470345660792197,-0.362326,0.134722,0.155987
1470345660815199,-0.362326,0.134722,0.155987
1470345660831299,-0.362455,0.134733,0.155981
1470345660852403,-0.362455,0.134733,0.155981
1470345660874383,-0.362455,0.134733,0.155981
1470345660891396,-0.362455,0.134733,0.155981
1470345660912412,-0.362455,0.134733,0.155981
1470345660935016,-0.362583,0.134744,0.155974
1470345660951485,-0.362583,0.134744,0.155974
1470345660972503,-0.362583,0.134744,0.155974
1470345660994556,-0.362583,0.134744,0.155974
1470345661011538,-0.362583,0.134744,0.155974
1470345661032564,-0.362712,0.134754,0.155968
1470345661055218,-0.362712,0.134754,0.155968
1470345661071185,-0.362712,0.134754,0.155968
1470345661092206,-0.362712,0.134754,0.155968
1470345661114222,-0.362712,0.134754,0.155968
1470345661131241,-0.362707,0.134875,0.155947
1470345661151826,-0.362835,0.134886,0.155941
1470345661174876,-0.362835,0.134886,0.155941
1470345661190863,-0.362835,0.134886,0.155941
1470345661211870,-0.362835,0.134886,0.155941
1470345661234969,-0.362835,0.134886,0.155941
1470345661250768,-0.362835,0.134886,0.155941
1470345661271817,-0.362835,0.134886,0.155941
1470345661294793,-0.362835,0.134886,0.155941
1470345661310808,-0.36283,0.135006,0.155921
1470345661332373,-0.362808,0.135,0.15591
1470345661354861,-0.362808,0.135,0.15591
1470345661372880,-0.362937,0.135011,0.155904
1470345661391938,-0.362931,0.135131,0.155883
1470345661414965,-0.362931,0.135131,0.155883
1470345661432942,-0.362931,0.135131,0.155883
1470345661452095,-0.362931,0.135131,0.155883
1470345661475036,-0.362931,0.135131,0.155883
1470345661493051,-0.362931,0.135131,0.155883
1470345661512125,-0.362931,0.135131,0.155883
1470345661535149,-0.362925,0.135154,0.156005
1470345661553236,-0.36292,0.135274,0.155985
1470345661572212,-0.363048,0.135285,0.155979
1470345661594232,-0.363048,0.135285,0.155979
1470345661612248,-0.363048,0.135285,0.155979
1470345661632326,-0.363048,0.135285,0.155979
1470345661654398,-0.363043,0.135406,0.155958
1470345661672359,-0.363043,0.135406,0.155958
1470345661695395,-0.363043,0.135406,0.155958
1470345661714397,-0.363037,0.135526,0.155938
1470345661732919,-0.363166,0.135537,0.155931
1470345661752039,-0.363172,0.135416,0.155952
1470345661775059,-0.363172,0.135416,0.155952
1470345661793076,-0.363166,0.135537,0.155931
1470345661812096,-0.363166,0.135537,0.155931
1470345661835138,-0.363166,0.135537,0.155931
1470345661852708,-0.363166,0.135537,0.155931
1470345661871748,-0.363295,0.135548,0.155925
1470345661894730,-0.363289,0.135668,0.155904
1470345661912729,-0.363289,0.135668,0.155904
1470345661932329,-0.363268,0.135662,0.155894
1470345661954879,-0.363268,0.135662,0.155894
1470345661972881,-0.363268,0.135662,0.155894
1470345661993898,-0.363396,0.135673,0.155887
1470345662014919,-0.363262,0.135782,0.155873
1470345662032973,-0.363391,0.135793,0.155867
1470345662060920,-0.363391,0.135793,0.155867
1470345662074967,-0.363257,0.135903,0.155853
1470345662092984,-0.363257,0.135903,0.155853
1470345662113984,-0.363257,0.135903,0.155853
1470345662135043,-0.363385,0.135914,0.155846
1470345662152974,-0.36338,0.136034,0.155826
1470345662173931,-0.363385,0.135914,0.155846
1470345662194953,-0.363094,0.136517,0.155879
1470345662212973,-0.3632,0.137009,0.155791
1470345662235538,-0.363329,0.13702,0.155784
1470345662254941,-0.363329,0.13702,0.155784
1470345662273008,-0.363323,0.13714,0.155764
1470345662294977,-0.363302,0.137134,0.155753
1470345662315024,-0.363431,0.137145,0.155746
1470345662333050,-0.363431,0.137145,0.155746
1470345662354929,-0.363425,0.137265,0.155726
1470345662374975,-0.363425,0.137265,0.155726
1470345662392965,-0.363425,0.137265,0.155726
1470345662414983,-0.363549,0.137397,0.155699
1470345662435013,-0.363549,0.137397,0.155699
1470345662452980,-0.363549,0.137397,0.155699
1470345662474980,-0.363543,0.137517,0.155678
1470345662495015,-0.363812,0.137298,0.155706
1470345662513014,-0.363683,0.137287,0.155713
1470345662535558,-0.363482,0.13694,0.155288
1470345662554659,-0.363477,0.13706,0.155268
1470345662572619,-0.363718,0.136955,0.155265
1470345662594640,-0.364391,0.136603,0.155049
1470345662614659,-0.364391,0.136603,0.155049
1470345662637275,-0.364391,0.136603,0.155049
1470345662654951,-0.364386,0.136723,0.155029
1470345662675022,-0.364391,0.136603,0.155049
1470345662693035,-0.364514,0.136734,0.155022
1470345662715008,-0.364514,0.136734,0.155022
1470345662735046,-0.36502,0.136725,0.154741
1470345662752315,-0.365643,0.136675,0.154841
1470345662775386,-0.366001,0.136627,0.155076
1470345662794393,-0.366001,0.136627,0.155076
1470345662812369,-0.366001,0.136627,0.155076
1470345662835403,-0.36613,0.136638,0.15507
1470345662854514,-0.36613,0.136638,0.15507
1470345662872439,-0.36613,0.136638,0.15507
1470345662895462,-0.36613,0.136638,0.15507
1470345662916480,-0.366888,0.136674,0.154898
1470345662933001,-0.367016,0.136685,0.154892
1470345662954576,-0.367011,0.136805,0.154871
1470345662976586,-0.367011,0.136805,0.154871
1470345662992597,-0.367018,0.136879,0.154606
1470345663014616,-0.367395,0.136859,0.154331
1470345663036143,-0.367529,0.13675,0.154345
1470345663052214,-0.367524,0.13687,0.154324
1470345663075247,-0.36717,0.136701,0.154253
1470345663096284,-0.36694,0.136663,0.154154
1470345663112263,-0.36694,0.136663,0.154154
1470345663135324,-0.366913,0.136777,0.154123
1470345663155810,-0.366913,0.136777,0.154123
1470345663172743,-0.366678,0.136956,0.15386
1470345663193843,-0.366678,0.136956,0.15386
1470345663215797,-0.366678,0.136956,0.15386
1470345663231357,-0.366678,0.136956,0.15386
1470345663254776,-0.366678,0.136956,0.15386
1470345663276795,-0.366275,0.137285,0.153818
1470345663290810,-0.366269,0.137308,0.15394
1470345663313931,-0.366275,0.137285,0.153818
1470345663336909,-0.366264,0.137428,0.153919
1470345663350746,-0.366264,0.137428,0.153919
1470345663373809,-0.366404,0.137296,0.153811
1470345663396822,-0.365876,0.137787,0.15401
1470345663410799,-0.365742,0.137896,0.153996
1470345663434379,-0.365855,0.13778,0.153999
1470345663456438,-0.36585,0.1379,0.153979
1470345663471453,-0.36585,0.1379,0.153979
1470345663494473,-0.36585,0.1379,0.153979
1470345663516585,-0.36585,0.1379,0.153979
1470345663531085,-0.365843,0.137923,0.154101
1470345663554158,-0.365838,0.138044,0.15408
1470345663577129,-0.36585,0.1379,0.153979
1470345663591186,-0.365978,0.137911,0.153972
1470345663614161,-0.365604,0.138321,0.153675
1470345663637277,-0.365594,0.13866,0.153491
1470345663651125,-0.366302,0.138998,0.153633
1470345663674087,-0.366436,0.138888,0.153648
1470345663697108,-0.365522,0.139444,0.153724
1470345663711119,-0.365007,0.139889,0.153679
1470345663734646,-0.365372,0.139915,0.153648
1470345663757171,-0.365501,0.139926,0.153641
1470345663785196,-0.365501,0.139926,0.153641
1470345663794204,-0.365506,0.139806,0.153662
1470345663817224,-0.365501,0.139926,0.153641
1470345663838293,-0.366235,0.140151,0.153815
1470345663853938,-0.366213,0.140144,0.153804
1470345663876956,-0.365826,0.140502,0.153895
1470345663898975,-0.36582,0.140525,0.154017
1470345663913993,-0.365943,0.140657,0.15399
1470345663937059,-0.36594,0.140972,0.153684
1470345663957629,-0.366452,0.140842,0.153422
1470345663974598,-0.36722,0.140539,0.153433
1470345663996617,-0.36722,0.140539,0.153433
1470345664017636,-0.367091,0.140528,0.15344
1470345664034717,-0.367091,0.140528,0.15344
1470345664056842,-0.367086,0.140649,0.153419
1470345664077875,-0.367086,0.140649,0.153419
1470345664094831,-0.367086,0.140649,0.153419
1470345664116851,-0.367086,0.140649,0.153419
1470345664138376,-0.367086,0.140649,0.153419
1470345664153895,-0.367081,0.140769,0.153398
1470345664176916,-0.36721,0.14078,0.153392
1470345664198935,-0.367348,0.140453,0.153569
1470345664213950,-0.367343,0.140573,0.153549
1470345664237029,-0.367348,0.140453,0.153569
1470345664259144,-0.367343,0.140573,0.153549
1470345664274131,-0.367343,0.140573,0.153549
1470345664297136,-0.367343,0.140573,0.153549
1470345664319156,-0.367343,0.140573,0.153549
1470345664333722,-0.367343,0.140573,0.153549
1470345664357263,-0.367348,0.140453,0.153569
1470345664379300,-0.367343,0.140573,0.153549
1470345664393294,-0.367343,0.140573,0.153549
1470345664417322,-0.367343,0.140573,0.153549
1470345664439385,-0.367343,0.140573,0.153549
1470345664453306,-0.367343,0.140573,0.153549
1470345664476406,-0.367472,0.140584,0.153542
1470345664499384,-0.367466,0.140705,0.153521
1470345664513444,-0.367466,0.140705,0.153521
1470345664536917,-0.367466,0.140705,0.153521
1470345664560087,-0.367445,0.140698,0.153511
1470345664573099,-0.367445,0.140698,0.153511
1470345664597122,-0.367574,0.140709,0.153504
1470345664619165,-0.367569,0.140829,0.153483
1470345664633767,-0.367574,0.140709,0.153504
1470345664656936,-0.367574,0.140709,0.153504
1470345664678989,-0.367569,0.140829,0.153483
1470345664699974,-0.367569,0.140829,0.153483
1470345664723997,-0.367698,0.14084,0.153477
1470345664739554,-0.367698,0.14084,0.153477
1470345664760205,-0.367692,0.14096,0.153456
1470345664784228,-0.367579,0.140588,0.153525
1470345664799240,-0.367596,0.140324,0.153444
1470345664820302,-0.367725,0.140335,0.153437
1470345664837313,-0.367725,0.140335,0.153437
1470345664858840,-0.367725,0.140335,0.153437
1470345664887907,-0.367725,0.140335,0.153437
1470345664896917,-0.367725,0.140335,0.153437
1470345664918903,-0.367987,0.140139,0.153588
1470345664940513,-0.368608,0.139992,0.15383
1470345664957069,-0.368608,0.139992,0.15383
1470345664979090,-0.368608,0.139992,0.15383
1470345665000143,-0.368608,0.139992,0.15383
1470345665017125,-0.368603,0.140112,0.153809
1470345665039652,-0.368603,0.140112,0.153809
1470345665060226,-0.368474,0.140102,0.153816
1470345665077214,-0.368474,0.140102,0.153816
1470345665099289,-0.368742,0.139785,0.153987
1470345665120254,-0.368741,0.139688,0.15413
1470345665136880,-0.368741,0.139688,0.15413
1470345665159156,-0.368741,0.139688,0.15413
1470345665182143,-0.36887,0.139699,0.154124
1470345665197158,-0.368355,0.139753,0.154007
1470345665219176,-0.368355,0.139753,0.154007
1470345665242203,-0.368355,0.139753,0.154007
1470345665257220,-0.368869,0.139601,0.154267
1470345665279239,-0.368991,0.139147,0.154455
1470345665302261,-0.369035,0.13877,0.154406
1470345665316274,-0.369175,0.13854,0.154441
1470345665339353,-0.369175,0.13854,0.154441
1470345665361892,-0.369175,0.13854,0.154441
1470345665375904,-0.369175,0.13854,0.154441
1470345665398925,-0.369175,0.13854,0.154441
1470345665421945,-0.369175,0.13854,0.154441
1470345665436468,-0.369293,0.138303,0.154465
1470345665459511,-0.369422,0.138314,0.154459
1470345665481510,-0.369422,0.138314,0.154459
1470345665504530,-0.369422,0.138314,0.154459
1470345665519544,-0.369422,0.138314,0.154459
1470345665542130,-0.369422,0.138314,0.154459
1470345665564691,-0.369422,0.138314,0.154459
1470345665579738,-0.369422,0.138314,0.154459
1470345665601723,-0.369551,0.138325,0.154452
1470345665615738,-0.369546,0.138445,0.154431
1470345665639826,-0.369546,0.138445,0.154431
1470345665661739,-0.369546,0.138445,0.154431
1470345665682758,-0.369283,0.138641,0.15428
1470345665699773,-0.36892,0.13881,0.154025
1470345665721795,-0.36892,0.13881,0.154025
1470345665743352,-0.368836,0.138616,0.153696
1470345665759669,-0.368809,0.138729,0.153664
1470345665781727,-0.368809,0.138729,0.153664
1470345665802706,-0.368449,0.138583,0.153716
1470345665819720,-0.367473,0.138464,0.153545
1470345665842293,-0.36638,0.13819,0.153279
1470345665862871,-0.365561,0.137577,0.153062
1470345665878864,-0.364971,0.137003,0.152943
1470345665901928,-0.364364,0.136496,0.153191
1470345665922927,-0.363375,0.136228,0.153549
1470345665939481,-0.362482,0.136009,0.154135
1470345665969024,-0.361724,0.135876,0.154449
1470345665983038,-0.361724,0.135876,0.154449
1470345665999050,-0.361724,0.135876,0.154449
1470345666022070,-0.362156,0.136456,0.154688
1470345666043189,-0.362464,0.137393,0.154881
1470345666059221,-0.362162,0.138237,0.154874
1470345666082238,-0.361988,0.138995,0.155003
1470345666104257,-0.362587,0.139329,0.155163
1470345666119289,-0.363171,0.139536,0.155333
1470345666141872,-0.363171,0.139536,0.155333
1470345666164434,-0.363299,0.139547,0.155326
1470345666179447,-0.363299,0.139547,0.155326
1470345666201494,-0.363929,0.13967,0.155017
1470345666224488,-0.364205,0.139525,0.154779
1470345666239050,-0.363853,0.139551,0.154422
1470345666261626,-0.363848,0.139672,0.154402
1470345666284648,-0.363595,0.139432,0.154579
1470345666298664,-0.362882,0.139116,0.154558
1470345666321681,-0.362764,0.138865,0.154606
1470345666344709,-0.362786,0.13848,0.154545
1470345666358750,-0.362915,0.138491,0.154538
1470345666381771,-0.36269,0.138333,0.15446
1470345666404793,-0.361945,0.138252,0.154388
1470345666418806,-0.361335,0.138061,0.154329
1470345666441863,-0.360735,0.137629,0.154312
1470345666464504,-0.36014,0.136979,0.154456
1470345666478480,-0.359713,0.136181,0.154381
1470345666501518,-0.359545,0.135014,0.15422
1470345666524522,-0.359467,0.134017,0.154266
1470345666539091,-0.359551,0.132895,0.154215
1470345666562118,-0.359999,0.131603,0.15442
1470345666584140,-0.36132,0.1305,0.154552
1470345666605223,-0.363013,0.129401,0.154535
1470345666622173,-0.363961,0.128319,0.154301
1470345666644286,-0.364807,0.12721,0.153963
1470345666665022,-0.366269,0.12617,0.153708
1470345666682009,-0.368103,0.124842,0.153735
1470345666704028,-0.369943,0.123491,0.153642
1470345666725046,-0.371313,0.121719,0.153526
1470345666742068,-0.372925,0.119746,0.153557
1470345666764605,-0.374926,0.117709,0.153719
1470345666785642,-0.376946,0.115313,0.15395
1470345666801683,-0.379248,0.112652,0.153977
1470345666824660,-0.381983,0.109352,0.153741
1470345666845721,-0.385086,0.105983,0.153636
1470345666861731,-0.388534,0.103026,0.153573
1470345666884751,-0.391696,0.100551,0.153562
1470345666905771,-0.394107,0.0984073,0.153658
1470345666921786,-0.398587,0.0946935,0.154367
1470345666944327,-0.407384,0.0895495,0.156002
1470345666965869,-0.419764,0.0840402,0.157943
1470345666980883,-0.430288,0.0800574,0.159538
1470345667003902,-0.434794,0.078159,0.160476
1470345667026921,-0.431886,0.0784435,0.160097
1470345667041465,-0.424935,0.0796185,0.159127
1470345667064022,-0.419385,0.0804066,0.158085
1470345667087026,-0.415759,0.0807019,0.156856
1470345667101038,-0.413548,0.080178,0.155882
1470345667124060,-0.411665,0.078895,0.155323
1470345667147155,-0.408943,0.0768723,0.154548
1470345667161840,-0.406999,0.0745271,0.153693
1470345667183874,-0.406194,0.0715311,0.153435
1470345667206880,-0.406687,0.0682062,0.153482
1470345667220892,-0.408544,0.0644679,0.154583
1470345667244446,-0.408022,0.0612099,0.154757
1470345667267151,-0.407351,0.0599196,0.156034
1470345667281163,-0.407696,0.059938,0.157775
1470345667304203,-0.406994,0.0610673,0.15869
1470345667327204,-0.404449,0.0628886,0.159473
1470345667341270,-0.401961,0.0645432,0.160063
1470345667363872,-0.40058,0.066095,0.160898
1470345667386881,-0.400249,0.0667951,0.16201
1470345667400853,-0.399879,0.0664823,0.163079
1470345667423891,-0.399423,0.0655618,0.164269
1470345667446951,-0.398475,0.064911,0.165173
1470345667460969,-0.396198,0.0650606,0.165677
1470345667484025,-0.392747,0.0659756,0.165549
1470345667507015,-0.388992,0.0678757,0.165499
1470345667521023,-0.385299,0.0701654,0.165489
1470345667544601,-0.381994,0.0727764,0.16569
1470345667566226,-0.378906,0.0753545,0.166261
1470345667588186,-0.375975,0.07756,0.166784
1470345667604219,-0.373333,0.0793074,0.167396
1470345667627222,-0.370852,0.0805855,0.168096
1470345667648252,-0.368254,0.0817087,0.168703
1470345667663867,-0.366031,0.0826664,0.16958
1470345667686887,-0.363699,0.083349,0.170383
1470345667707938,-0.361255,0.0841194,0.171059
1470345667724020,-0.358583,0.0848248,0.171512
1470345667747506,-0.356509,0.0855793,0.171928
1470345667767567,-0.354946,0.0863782,0.172334
1470345667784581,-0.353506,0.0870209,0.172502
1470345667806618,-0.352106,0.0874049,0.172602
1470345667827620,-0.351196,0.0878308,0.172678
1470345667844641,-0.350564,0.0879411,0.17293
1470345667866716,-0.350428,0.0880498,0.172913
1470345667887749,-0.350322,0.0877001,0.173099
1470345667904723,-0.350219,0.0873287,0.173163
1470345667926741,-0.350349,0.0872635,0.173424
1470345667948299,-0.350965,0.0872621,0.173783
1470345667963905,-0.351093,0.0872735,0.17378
1470345667986891,-0.351093,0.0872735,0.17378
1470345668008910,-0.351221,0.0872849,0.173776
1470345668023925,-0.351212,0.0874049,0.173756
1470345668046970,-0.351212,0.0874049,0.173756
1470345668068917,-0.351448,0.087479,0.173352
1470345668083930,-0.351333,0.087591,0.173346
1470345668106957,-0.351333,0.087591,0.173346
1470345668128970,-0.351333,0.087591,0.173346
1470345668144035,-0.351304,0.0877076,0.173314
1470345668167087,-0.351432,0.087719,0.173311
1470345668189144,-0.351304,0.0877076,0.173314
1470345668204118,-0.351304,0.0877076,0.173314
1470345668227184,-0.350915,0.0881134,0.17301
1470345668249708,-0.350906,0.0882335,0.17299
1470345668263241,-0.350895,0.0883752,0.173092
1470345668287252,-0.350895,0.0883752,0.173092
1470345668309272,-0.350895,0.0883752,0.173092
1470345668323285,-0.350887,0.0884952,0.173072
1470345668346918,-0.350887,0.0884952,0.173072
1470345668369432,-0.351468,0.0890504,0.173085
1470345668383445,-0.351468,0.0890504,0.173085
1470345668406466,-0.35146,0.0891704,0.173064
1470345668429535,-0.35146,0.0891704,0.173064
1470345668444061,-0.351452,0.0892904,0.173044
1470345668451568,-0.351443,0.0894104,0.173024
1470345668472688,-0.351443,0.0894104,0.173024
1470345668495668,-0.351563,0.0895418,0.173
1470345668510713,-0.351435,0.0895305,0.173004
1470345668532702,-0.351424,0.0896723,0.173105
1470345668554851,-0.351424,0.0896723,0.173105
1470345668570830,-0.351543,0.0898037,0.173082
1470345668591898,-0.351523,0.0898001,0.173071
1470345668614923,-0.351514,0.0899201,0.17305
1470345668632888,-0.351634,0.0900515,0.173027
1470345668652504,-0.351231,0.0902792,0.173119
1470345668674694,-0.350457,0.0905963,0.173213
1470345668692656,-0.350449,0.0907163,0.173193
1470345668712673,-0.350449,0.0907163,0.173193
1470345668734694,-0.350449,0.0907163,0.173193
1470345668752725,-0.350441,0.0908364,0.173172
1470345668772170,-0.350054,0.0911659,0.173134
1470345668795158,-0.349503,0.0916439,0.173312
1470345668813172,-0.348972,0.0922022,0.173237
1470345668832244,-0.348201,0.0925745,0.172946
1470345668855423,-0.348193,0.0926946,0.172926
1470345668872345,-0.348181,0.0928363,0.173028
1470345668892407,-0.348181,0.0928363,0.173028
1470345668914409,-0.348404,0.092997,0.173112
1470345668932400,-0.348404,0.092997,0.173112
1470345668952454,-0.348863,0.0934424,0.17327
1470345668975239,-0.349441,0.0940195,0.173404
1470345668992254,-0.350123,0.0949683,0.173474
1470345669012274,-0.351043,0.0959145,0.173403
1470345669035355,-0.351809,0.0971549,0.17366
1470345669052918,-0.35234,0.0981105,0.173843
1470345669072155,-0.352639,0.0989491,0.174188
1470345669095131,-0.352935,0.0998099,0.174655
1470345669113101,-0.352994,0.100385,0.175048
1470345669132122,-0.352827,0.100822,0.17548
1470345669154652,-0.352415,0.101093,0.175819
1470345669172667,-0.352403,0.101235,0.175921
1470345669192727,-0.352407,0.101213,0.175799
1470345669214755,-0.352172,0.101194,0.175819
1470345669232775,-0.351784,0.101257,0.175689
1470345669252358,-0.351549,0.101314,0.175444
1470345669274932,-0.351166,0.101356,0.175192
1470345669292894,-0.35095,0.101151,0.174865
1470345669311958,-0.350623,0.100694,0.174582
1470345669334986,-0.350029,0.100433,0.174144
1470345669353010,-0.349933,0.100284,0.174058
1470345669371784,-0.350197,0.0998445,0.17424
1470345669394800,-0.350197,0.0998445,0.17424
1470345669412825,-0.349574,0.0998126,0.174395
1470345669431879,-0.349056,0.100076,0.174749
1470345669454963,-0.34892,0.100184,0.174734
1470345669472988,-0.348912,0.100304,0.174714
1470345669492004,-0.349271,0.100357,0.174812
1470345669515025,-0.349746,0.100563,0.175009
1470345669532998,-0.350208,0.100911,0.175308
1470345669553578,-0.350208,0.100911,0.175308
1470345669574834,-0.350196,0.101052,0.17541
1470345669592850,-0.350196,0.101052,0.17541
1470345669613869,-0.350807,0.101227,0.175358
1470345669634922,-0.351409,0.101521,0.175286
1470345669652986,-0.351401,0.101641,0.175266
1470345669673598,-0.351393,0.101761,0.175246
1470345669694620,-0.351393,0.101761,0.175246
1470345669712619,-0.351385,0.101881,0.175225
1470345669733636,-0.352024,0.101673,0.175111
1470345669755265,-0.352024,0.101673,0.175111
1470345669773266,-0.352024,0.101673,0.175111
1470345669794283,-0.351653,0.101839,0.17485
1470345669815302,-0.351253,0.102044,0.174823
1470345669832317,-0.351253,0.102044,0.174823
1470345669853845,-0.351385,0.102034,0.174696
1470345669875401,-0.351401,0.101794,0.174736
1470345669892386,-0.351401,0.101794,0.174736
1470345669915440,-0.350787,0.101641,0.174911
1470345669934481,-0.35042,0.101633,0.175057
1470345669953045,-0.35042,0.101633,0.175057
1470345669975573,-0.350412,0.101753,0.175037
1470345669994588,-0.350412,0.101753,0.175037
1470345670012606,-0.350412,0.101753,0.175037
1470345670035625,-0.350391,0.101749,0.175026
1470345670057352,-0.350383,0.101869,0.175006
1470345670072368,-0.350383,0.101869,0.175006
1470345670095438,-0.350375,0.101989,0.174986
1470345670114470,-0.350375,0.101989,0.174986
1470345670132420,-0.350367,0.102109,0.174966
1470345670161608,-0.350978,0.102206,0.175178
1470345670174642,-0.35097,0.102327,0.175158
1470345670192642,-0.350962,0.102447,0.175138
1470345670215658,-0.35109,0.102458,0.175134
1470345670234687,-0.35109,0.102458,0.175134
1470345670252699,-0.351082,0.102578,0.175114
1470345670275225,-0.351082,0.102578,0.175114
1470345670295242,-0.351074,0.102699,0.175094
1470345670312257,-0.349988,0.103756,0.175326
1470345670335279,-0.350872,0.10471,0.175994
1470345670355357,-0.351734,0.104854,0.176319
1470345670372378,-0.3524,0.105702,0.176517
1470345670395400,-0.351877,0.10614,0.176466
1470345670417418,-0.35121,0.106806,0.17638
1470345670432432,-0.350551,0.107009,0.176484
1470345670455524,-0.350262,0.107314,0.176943
1470345670476548,-0.349783,0.106976,0.1774
1470345670492561,-0.349283,0.10671,0.17758
1470345670515617,-0.34932,0.106474,0.177631
1470345670536602,-0.349971,0.106125,0.177412
1470345670559737,-0.349971,0.106125,0.177412
1470345670574748,-0.35073,0.106126,0.177007
1470345670595820,-0.350722,0.106246,0.176987
1470345670612782,-0.350211,0.106542,0.176834
1470345670634803,-0.350211,0.106542,0.176834
1470345670655334,-0.350203,0.106662,0.176814
1470345670672751,-0.350191,0.106804,0.176917
1470345670694771,-0.350063,0.106792,0.176921
1470345670715788,-0.350055,0.106912,0.176901
1470345670737827,-0.350526,0.107217,0.176954
1470345670755399,-0.351016,0.107183,0.177189
1470345670777479,-0.351016,0.107183,0.177189
1470345670792493,-0.351136,0.107315,0.177165
1470345670815562,-0.351136,0.107315,0.177165
1470345670837533,-0.351327,0.107957,0.177167
1470345670853153,-0.351902,0.108634,0.177155
1470345670874944,-0.352497,0.108973,0.177325
1470345670897967,-0.352489,0.109093,0.177305
1470345670916987,-0.352489,0.109093,0.177305
1470345670934999,-0.352588,0.10922,0.177269
1470345670958104,-0.35246,0.109209,0.177274
1470345670973087,-0.352064,0.109582,0.177484
1470345670995104,-0.352192,0.109594,0.17748
1470345671017125,-0.351911,0.109778,0.177959
1470345671038142,-0.35201,0.109906,0.177922
1470345671054665,-0.35201,0.109906,0.177922
1470345671077190,-0.351882,0.109894,0.177927
1470345671098289,-0.351875,0.110014,0.177907
1470345671114223,-0.352027,0.109742,0.177697
1470345671137245,-0.352448,0.109351,0.177376
1470345671159317,-0.352869,0.10896,0.177055
1470345671180295,-0.353533,0.108735,0.176828
1470345671197310,-0.353916,0.108503,0.17672
1470345671219334,-0.353817,0.108376,0.176756
1470345671234400,-0.353689,0.108364,0.176761
1470345671256520,-0.353681,0.108484,0.176741
1470345671277593,-0.354208,0.108024,0.176669
1470345671294554,-0.35474,0.107809,0.176569
1470345671316574,-0.35474,0.107809,0.176569
1470345671337643,-0.354732,0.107929,0.176549
1470345671354637,-0.354732,0.107929,0.176549
1470345671376669,-0.354732,0.107929,0.176549
1470345671397688,-0.354724,0.108049,0.176529
1470345671414702,-0.354724,0.108049,0.176529
1470345671436772,-0.354724,0.108049,0.176529
1470345671458841,-0.35472,0.108072,0.176651
1470345671474855,-0.354584,0.10818,0.176635
1470345671496876,-0.354815,0.108221,0.176737
1470345671517944,-0.354815,0.108221,0.176737
1470345671534911,-0.354807,0.108341,0.176717
1470345671556491,-0.354807,0.108341,0.176717
1470345671577706,-0.354807,0.108341,0.176717
1470345671594721,-0.354807,0.108341,0.176717
1470345671616763,-0.354807,0.108341,0.176717
1470345671637794,-0.354799,0.108461,0.176697
1470345671654384,-0.354799,0.108461,0.176697
1470345671676482,-0.355286,0.108526,0.176789
1470345671698467,-0.355414,0.108538,0.176785
1470345671715487,-0.355406,0.108658,0.176765
1470345671736501,-0.355278,0.108646,0.176769
1470345671757570,-0.355278,0.108646,0.176769
1470345671774585,-0.355278,0.108646,0.176769
1470345671797606,-0.355278,0.108646,0.176769
1470345671819625,-0.355278,0.108646,0.176769
1470345671834638,-0.355271,0.108766,0.176749
1470345671857189,-0.354887,0.108998,0.176856
1470345671879541,-0.354887,0.108998,0.176856
1470345671894554,-0.354866,0.108993,0.176845
1470345671916610,-0.354866,0.108993,0.176845
1470345671939594,-0.354858,0.109113,0.176825
1470345671954171,-0.354751,0.109106,0.176841
1470345671977293,-0.354725,0.109048,0.177216
1470345671999312,-0.354717,0.109168,0.177196
1470345672014325,-0.354717,0.109168,0.177196
1470345672037346,-0.354845,0.10918,0.177192
1470345672059876,-0.354838,0.1093,0.177172
1470345672073888,-0.354195,0.109606,0.177146
1470345672096967,-0.354187,0.109726,0.177126
1470345672118992,-0.354182,0.109748,0.177248
1470345672133948,-0.353666,0.109722,0.177389
1470345672156981,-0.353666,0.109722,0.177389
1470345672179007,-0.353658,0.109842,0.177369
1470345672194021,-0.353761,0.110139,0.177569
1470345672217042,-0.353746,0.110379,0.177529
1470345672239062,-0.354193,0.111045,0.177521
1470345672254083,-0.354193,0.111045,0.177521
1470345672277166,-0.354505,0.111819,0.177497
1470345672299201,-0.354812,0.112615,0.177595
1470345672320245,-0.355273,0.113138,0.177484
1470345672337219,-0.355273,0.113138,0.177484
1470345672358986,-0.355273,0.113138,0.177484
1470345672380980,-0.355265,0.113258,0.177464
1470345672396996,-0.355152,0.113006,0.177509
1470345672419015,-0.354594,0.112431,0.177391
1470345672440037,-0.353915,0.111457,0.177205
1470345672457055,-0.353676,0.110021,0.176973
1470345672479582,-0.353669,0.108626,0.176843
1470345672500601,-0.353666,0.10721,0.176591
1470345672516614,-0.353259,0.10602,0.176434
1470345672539636,-0.35307,0.104937,0.176746
1470345672560180,-0.35349,0.104242,0.177486
1470345672577196,-0.353262,0.10376,0.177697
1470345672605237,-0.352165,0.103521,0.177657
1470345672620259,-0.351171,0.10331,0.177722
1470345672637248,-0.351162,0.10343,0.177702
1470345672659681,-0.351039,0.10374,0.177413
1470345672680696,-0.350958,0.104598,0.177384
1470345672696712,-0.350654,0.105295,0.177273
1470345672719733,-0.350733,0.105951,0.177414
1470345672741752,-0.351043,0.106648,0.177656
1470345672757274,-0.351622,0.107227,0.177787
1470345672779353,-0.351622,0.107227,0.177787
1470345672801416,-0.352051,0.10779,0.177911
1470345672816408,-0.353257,0.108304,0.178027
1470345672839405,-0.354471,0.108698,0.178163
1470345672861988,-0.355305,0.109302,0.178284
1470345672876001,-0.355753,0.109968,0.178275
1470345672899023,-0.35568,0.110706,0.178265
1470345672922070,-0.355979,0.111622,0.178343
1470345672936055,-0.356426,0.112212,0.178598
1470345672958598,-0.35738,0.112606,0.178864
1470345672982015,-0.358851,0.11251,0.179567
1470345672996028,-0.360626,0.112158,0.180069
1470345673019048,-0.361876,0.111977,0.180427
1470345673042070,-0.362004,0.111722,0.180329
1470345673056592,-0.361521,0.111633,0.180115
1470345673078980,-0.360894,0.111773,0.179864
1470345673101936,-0.361272,0.112004,0.179565
1470345673115949,-0.361793,0.112007,0.179301
1470345673138972,-0.361786,0.112127,0.17928
1470345673161833,-0.361127,0.112232,0.179528
1470345673182854,-0.360991,0.11234,0.179513
1470345673199867,-0.360991,0.11234,0.179513
1470345673221887,-0.360991,0.11234,0.179513
1470345673243571,-0.360991,0.11234,0.179513
1470345673258502,-0.360983,0.11246,0.179492
1470345673281993,-0.360983,0.11246,0.179492
1470345673303011,-0.361104,0.112592,0.179467
1470345673318980,-0.360976,0.11258,0.179472
1470345673342002,-0.360976,0.11258,0.179472
1470345673363188,-0.36136,0.112616,0.179457
1470345673379103,-0.36136,0.112616,0.179457
1470345673402120,-0.361224,0.112724,0.179442
1470345673423194,-0.361224,0.112724,0.179442
1470345673439202,-0.361216,0.112844,0.179421
1470345673462293,-0.361212,0.112867,0.179544
1470345673483368,-0.361212,0.112867,0.179544
1470345673499372,-0.361212,0.112867,0.179544
1470345673522343,-0.361204,0.112987,0.179523
1470345673543362,-0.361204,0.112987,0.179523
1470345673559381,-0.361204,0.112987,0.179523
1470345673581452,-0.361577,0.112973,0.179252
1470345673603427,-0.361858,0.112712,0.179039
1470345673619488,-0.361858,0.112712,0.179039
1470345673641480,-0.36185,0.112832,0.179018
1470345673663598,-0.361483,0.112898,0.178901
1470345673679577,-0.360867,0.11282,0.178815
1470345673701597,-0.360859,0.11294,0.178794
1470345673724617,-0.360759,0.112546,0.178738
1470345673738671,-0.360759,0.112546,0.178738
1470345673761718,-0.360759,0.112546,0.178738
1470345673784739,-0.360751,0.112666,0.178717
1470345673799752,-0.360747,0.112688,0.17884
1470345673821784,-0.360747,0.112688,0.17884
1470345673844831,-0.360764,0.112523,0.178615
1470345673858875,-0.360928,0.112032,0.17857
1470345673881628,-0.361353,0.111543,0.178393
1470345673904632,-0.362113,0.111392,0.178517
1470345673918647,-0.362951,0.111632,0.178685
1470345673941706,-0.362944,0.111752,0.178664
1470345673964699,-0.362427,0.111994,0.178899
1470345673978713,-0.36219,0.111633,0.179092
1470345674001731,-0.362641,0.110611,0.179386
1470345674024752,-0.362853,0.1094,0.179465
1470345674038764,-0.362706,0.108061,0.179712
1470345674061791,-0.362775,0.107078,0.179755
1470345674084812,-0.363216,0.106349,0.179622
1470345674098826,-0.364018,0.106016,0.179413
