timestamp,x,y,z,w
1470261436221018,-0.240417,0.394104,0.813354,-0.354004
1470261436241036,-0.240295,0.39447,0.813232,-0.353943
1470261436263559,-0.240234,0.394714,0.81311,-0.353943
1470261436281076,-0.23999,0.394836,0.81311,-0.354065
1470261436301090,-0.239929,0.39502,0.812988,-0.354126
1470261436326112,-0.239868,0.395203,0.812866,-0.354248
1470261436341126,-0.239807,0.395203,0.812866,-0.354248
1470261436361144,-0.239807,0.395203,0.812866,-0.354248
1470261436383664,-0.239807,0.395203,0.812866,-0.354248
1470261436405684,-0.239807,0.395203,0.812866,-0.354248
1470261436422699,-0.239746,0.395203,0.812866,-0.354309
1470261436443717,-0.239746,0.395203,0.812866,-0.354248
1470261436461234,-0.239746,0.395203,0.812866,-0.354309
1470261436482253,-0.239746,0.395142,0.812927,-0.354309
1470261436503271,-0.239746,0.395142,0.812927,-0.354309
1470261436521290,-0.239746,0.395142,0.812927,-0.354309
1470261436542306,-0.239746,0.395142,0.812927,-0.354309
1470261436566328,-0.239746,0.395142,0.812927,-0.354309
1470261436581345,-0.239746,0.395142,0.812927,-0.354309
1470261436602362,-0.239746,0.395142,0.812927,-0.354309
1470261436623380,-0.239746,0.395142,0.812927,-0.354309
1470261436641396,-0.239746,0.395142,0.812927,-0.354309
1470261436662418,-0.239746,0.395142,0.812927,-0.354309
1470261436684935,-0.239746,0.395142,0.812927,-0.354309
1470261436701449,-0.239746,0.395142,0.812927,-0.354309
1470261436722469,-0.239746,0.395142,0.812927,-0.354309
1470261436743488,-0.239746,0.395142,0.812927,-0.354309
1470261436761503,-0.239746,0.395142,0.812927,-0.354309
1470261436784024,-0.239685,0.395081,0.812927,-0.354309
1470261436811047,-0.239685,0.395081,0.812927,-0.354309
1470261436821557,-0.239685,0.395081,0.812927,-0.354309
1470261436844077,-0.239685,0.395081,0.812927,-0.354309
1470261436863597,-0.239685,0.395081,0.812927,-0.354309
1470261436881113,-0.239685,0.395081,0.812927,-0.354309
1470261436903631,-0.239685,0.395081,0.812927,-0.354309
1470261436923649,-0.239685,0.395081,0.812988,-0.354309
1470261436943167,-0.239746,0.39502,0.812988,-0.354309
1470261436963687,-0.239746,0.39502,0.812988,-0.354309
1470261436983702,-0.239746,0.39502,0.812988,-0.354309
1470261437008225,-0.239746,0.39502,0.812988,-0.354309
1470261437023739,-0.239746,0.39502,0.812988,-0.354309
1470261437044257,-0.239746,0.39502,0.812988,-0.354309
1470261437060273,-0.239746,0.394958,0.812988,-0.354309
1470261437082792,-0.239746,0.394958,0.812988,-0.354309
1470261437104311,-0.239746,0.394958,0.812988,-0.354309
1470261437120325,-0.239746,0.394958,0.812988,-0.354248
1470261437142846,-0.239746,0.394958,0.812988,-0.354248
1470261437163871,-0.239746,0.394958,0.812988,-0.354248
1470261437180882,-0.239746,0.394958,0.812988,-0.354248
1470261437202900,-0.239746,0.394958,0.812988,-0.354309
1470261437223918,-0.239746,0.394958,0.812988,-0.354309
1470261437240434,-0.239746,0.394958,0.812988,-0.354309
1470261437262956,-0.239746,0.394958,0.812988,-0.354309
1470261437285474,-0.239746,0.394958,0.812988,-0.354309
1470261437300488,-0.239746,0.394958,0.812988,-0.354309
1470261437323007,-0.239685,0.394958,0.813049,-0.354309
1470261437344026,-0.239685,0.394897,0.813049,-0.354309
1470261437360541,-0.239685,0.394897,0.813049,-0.354309
1470261437383062,-0.239685,0.394897,0.813049,-0.354309
1470261437404080,-0.239685,0.394897,0.813049,-0.354309
1470261437420595,-0.239685,0.394897,0.813049,-0.354309
1470261437443116,-0.239685,0.394897,0.813049,-0.354309
1470261437464138,-0.239685,0.394897,0.813049,-0.354309
1470261437480653,-0.239685,0.394897,0.813049,-0.354309
1470261437503169,-0.239624,0.394897,0.813049,-0.354309
1470261437524188,-0.239624,0.394897,0.813049,-0.354309
1470261437540703,-0.239624,0.394897,0.813049,-0.354309
1470261437563225,-0.239624,0.394897,0.813049,-0.354309
1470261437584242,-0.239624,0.394897,0.813049,-0.354309
1470261437600757,-0.239624,0.394897,0.813049,-0.354309
1470261437622776,-0.239624,0.394897,0.813049,-0.35437
1470261437643796,-0.239563,0.394897,0.813049,-0.35437
1470261437660311,-0.239563,0.394897,0.813049,-0.35437
1470261437682830,-0.239563,0.394897,0.813049,-0.35437
1470261437705851,-0.239563,0.394897,0.813049,-0.35437
1470261437727871,-0.239563,0.394897,0.813049,-0.35437
1470261437742885,-0.239563,0.394897,0.813049,-0.35437
1470261437765905,-0.239563,0.394897,0.813049,-0.35437
1470261437780421,-0.239563,0.394958,0.813049,-0.35437
1470261437802938,-0.239563,0.394897,0.813049,-0.35437
1470261437825458,-0.239624,0.395081,0.812988,-0.354248
1470261437839971,-0.239624,0.395081,0.812988,-0.354248
1470261437863493,-0.239624,0.395081,0.812988,-0.354248
1470261437885513,-0.239624,0.395081,0.812988,-0.354248
1470261437900025,-0.239624,0.395325,0.812927,-0.354187
1470261437923046,-0.239624,0.395325,0.812927,-0.354187
1470261437945568,-0.239624,0.395508,0.812805,-0.354126
1470261437960079,-0.239624,0.395508,0.812805,-0.354126
1470261437983101,-0.239624,0.395508,0.812805,-0.354126
1470261438005621,-0.239624,0.395508,0.812805,-0.354126
1470261438019633,-0.239624,0.395508,0.812866,-0.354126
1470261438043156,-0.239624,0.395508,0.812805,-0.354126
1470261438065677,-0.239624,0.395508,0.812866,-0.354126
1470261438080188,-0.239563,0.395508,0.812866,-0.354126
1470261438103208,-0.239563,0.395508,0.812866,-0.354126
1470261438125228,-0.239563,0.395508,0.812866,-0.354126
1470261438139742,-0.239563,0.395508,0.812866,-0.354126
1470261438163263,-0.239563,0.395508,0.812866,-0.354126
1470261438185281,-0.239563,0.395508,0.812866,-0.354126
1470261438206801,-0.239563,0.395508,0.812866,-0.354126
1470261438222820,-0.239563,0.395508,0.812866,-0.354187
1470261438245838,-0.239563,0.395508,0.812866,-0.354187
1470261438266382,-0.239563,0.395447,0.812866,-0.354187
1470261438282869,-0.239563,0.395447,0.812866,-0.354187
1470261438305389,-0.239563,0.395447,0.812866,-0.354187
1470261438326408,-0.239563,0.395447,0.812866,-0.354126
1470261438348928,-0.239563,0.395447,0.812866,-0.354126
1470261438365445,-0.239563,0.395447,0.812866,-0.354126
1470261438386464,-0.239563,0.395447,0.812866,-0.354126
1470261438402977,-0.239563,0.395386,0.812927,-0.354126
1470261438425497,-0.239563,0.395447,0.812866,-0.354126
1470261438446537,-0.239441,0.395264,0.812988,-0.354187
1470261438463034,-0.239441,0.395264,0.812988,-0.354187
1470261438485552,-0.239563,0.395325,0.812927,-0.354126
1470261438506602,-0.239563,0.395325,0.812927,-0.354126
1470261438523086,-0.239563,0.395325,0.812927,-0.354126
1470261438545608,-0.239563,0.395325,0.812927,-0.354126
1470261438566625,-0.239563,0.395325,0.812927,-0.354126
1470261438583139,-0.239563,0.395325,0.812927,-0.354126
1470261438605664,-0.239563,0.395325,0.812927,-0.354126
1470261438626698,-0.239563,0.395325,0.812927,-0.354126
1470261438643192,-0.239563,0.395325,0.812927,-0.354126
1470261438665713,-0.239563,0.395325,0.812927,-0.354126
1470261438688234,-0.239563,0.395325,0.812927,-0.354126
1470261438702747,-0.239563,0.395325,0.812927,-0.354126
1470261438725284,-0.239563,0.395264,0.812927,-0.354126
1470261438755293,-0.239563,0.395264,0.812988,-0.354126
1470261438763303,-0.239563,0.395264,0.812988,-0.354126
1470261438785820,-0.239563,0.395264,0.812988,-0.354126
1470261438807840,-0.239563,0.395264,0.812988,-0.354126
1470261438822353,-0.239563,0.395264,0.812988,-0.354126
1470261438845877,-0.239563,0.395264,0.812988,-0.354126
1470261438867894,-0.239563,0.395264,0.812988,-0.354126
1470261438882426,-0.239563,0.395264,0.812988,-0.354126
1470261438905430,-0.239563,0.395264,0.812988,-0.354126
1470261438927950,-0.239563,0.395264,0.812988,-0.354126
1470261438942462,-0.239563,0.395264,0.812988,-0.354126
1470261438965482,-0.239502,0.395264,0.812988,-0.354126
1470261438988003,-0.239502,0.395264,0.812988,-0.354187
1470261439002516,-0.239502,0.395264,0.812988,-0.354187
1470261439025536,-0.239502,0.395203,0.812988,-0.354187
1470261439048059,-0.239502,0.395203,0.812988,-0.354187
1470261439062570,-0.239502,0.395264,0.812988,-0.354187
1470261439085589,-0.239502,0.395203,0.812988,-0.354187
1470261439115617,-0.239502,0.395203,0.812988,-0.354187
1470261439122624,-0.239441,0.395203,0.812988,-0.354187
1470261439145646,-0.239441,0.395203,0.812988,-0.354187
1470261439167663,-0.239441,0.395203,0.812988,-0.354187
1470261439189201,-0.239441,0.395203,0.812988,-0.354187
1470261439205698,-0.239441,0.395203,0.812988,-0.354187
1470261439227762,-0.239441,0.395203,0.812988,-0.354187
1470261439249236,-0.239441,0.395203,0.813049,-0.354187
1470261439265753,-0.239441,0.395203,0.813049,-0.354187
1470261439287772,-0.23938,0.395142,0.813049,-0.354187
1470261439309338,-0.23938,0.395142,0.813049,-0.354248
1470261439325312,-0.23938,0.395142,0.813049,-0.354248
1470261439347827,-0.23938,0.395142,0.813049,-0.354248
1470261439369345,-0.23938,0.395142,0.813049,-0.354248
1470261439385359,-0.239319,0.395142,0.813049,-0.354248
1470261439407881,-0.239319,0.395142,0.813049,-0.354248
1470261439429400,-0.239319,0.395142,0.813049,-0.354248
1470261439445414,-0.239319,0.395081,0.813049,-0.354248
1470261439467933,-0.239319,0.395081,0.81311,-0.354248
1470261439489503,-0.239319,0.395081,0.81311,-0.354248
1470261439505467,-0.239258,0.395081,0.81311,-0.354248
1470261439542500,-0.239258,0.395081,0.81311,-0.354309
1470261439549061,-0.239258,0.395081,0.81311,-0.354309
1470261439565525,-0.239258,0.395081,0.81311,-0.354309
1470261439588041,-0.239258,0.395081,0.81311,-0.354309
1470261439610562,-0.239258,0.395081,0.81311,-0.354309
1470261439625575,-0.239258,0.395081,0.81311,-0.354309
1470261439648095,-0.239197,0.39502,0.81311,-0.354309
1470261439670616,-0.239197,0.39502,0.81311,-0.354309
1470261439685631,-0.239197,0.39502,0.81311,-0.354309
1470261439708148,-0.239197,0.39502,0.81311,-0.354309
1470261439736677,-0.239197,0.39502,0.81311,-0.354309
1470261439744683,-0.239197,0.39502,0.81311,-0.354309
1470261439768203,-0.239197,0.39502,0.81311,-0.354309
1470261439790723,-0.239197,0.39502,0.81311,-0.354309
1470261439813245,-0.239197,0.39502,0.81311,-0.354309
1470261439828257,-0.239136,0.394958,0.813171,-0.354309
1470261439850276,-0.239136,0.394958,0.813171,-0.354309
1470261439864797,-0.239136,0.394958,0.813171,-0.35437
1470261439888310,-0.239136,0.394958,0.813171,-0.35437
1470261439910332,-0.239136,0.394958,0.813171,-0.35437
1470261439924843,-0.239075,0.394958,0.813171,-0.35437
1470261439948365,-0.239075,0.394958,0.813171,-0.35437
1470261439970389,-0.239075,0.394958,0.813171,-0.35437
1470261439984898,-0.239075,0.394958,0.813171,-0.35437
1470261440014425,-0.239075,0.394958,0.813171,-0.35437
1470261440030944,-0.239075,0.394958,0.813171,-0.35437
1470261440044951,-0.239075,0.394958,0.813171,-0.35437
1470261440067975,-0.239197,0.394775,0.813171,-0.354431
1470261440090517,-0.239136,0.394775,0.813171,-0.354431
1470261440111512,-0.239136,0.394775,0.813171,-0.354431
1470261440128026,-0.239197,0.394775,0.813171,-0.354431
1470261440150547,-0.239136,0.394775,0.813171,-0.354431
1470261440171566,-0.239136,0.394775,0.813171,-0.354431
1470261440188080,-0.239136,0.394775,0.813171,-0.354492
1470261440210600,-0.239136,0.394775,0.813232,-0.354492
1470261440231693,-0.239136,0.394714,0.813232,-0.354492
1470261440248139,-0.239136,0.394714,0.813232,-0.354492
1470261440270656,-0.239136,0.394714,0.813232,-0.354492
1470261440291673,-0.239136,0.394714,0.813232,-0.354492
1470261440308188,-0.239136,0.394714,0.813232,-0.354492
1470261440330710,-0.239136,0.394714,0.813232,-0.354492
1470261440351727,-0.239136,0.394653,0.813232,-0.354492
1470261440368242,-0.239197,0.394775,0.813171,-0.354431
1470261440390762,-0.239258,0.394958,0.81311,-0.35437
1470261440411841,-0.239258,0.394958,0.81311,-0.35437
1470261440428297,-0.239258,0.394958,0.81311,-0.354431
1470261440450327,-0.239258,0.394958,0.81311,-0.35437
1470261440471835,-0.239258,0.394958,0.81311,-0.35437
1470261440487849,-0.239258,0.394958,0.81311,-0.35437
1470261440517378,-0.239258,0.394958,0.81311,-0.35437
1470261440532892,-0.239258,0.394958,0.81311,-0.35437
1470261440547906,-0.239258,0.394958,0.81311,-0.35437
1470261440570423,-0.239258,0.394958,0.81311,-0.35437
1470261440592945,-0.239197,0.394897,0.81311,-0.354431
1470261440607956,-0.239197,0.394958,0.81311,-0.354431
1470261440630477,-0.239197,0.394897,0.81311,-0.354431
1470261440652999,-0.239197,0.394897,0.81311,-0.354431
1470261440668012,-0.239197,0.394897,0.81311,-0.354431
1470261440690531,-0.239197,0.394897,0.81311,-0.354431
1470261440713054,-0.239197,0.394897,0.81311,-0.354431
1470261440727564,-0.239136,0.394897,0.81311,-0.354431
1470261440750585,-0.239136,0.394897,0.81311,-0.354431
1470261440773105,-0.239136,0.394897,0.81311,-0.354431
1470261440787618,-0.239136,0.394897,0.81311,-0.354431
1470261440810639,-0.239136,0.394897,0.813171,-0.354431
1470261440849174,-0.239075,0.394897,0.813171,-0.354492
1470261440854180,-0.239075,0.394836,0.813171,-0.354492
1470261440870694,-0.239075,0.394836,0.813171,-0.354492
1470261440893214,-0.239075,0.394836,0.813171,-0.354492
1470261440907725,-0.239075,0.394836,0.813171,-0.354492
1470261440930747,-0.239014,0.394836,0.813171,-0.354492
1470261440953267,-0.239014,0.394836,0.813171,-0.354492
1470261440967279,-0.239014,0.394836,0.813171,-0.354492
1470261440990301,-0.239014,0.394836,0.813171,-0.354492
1470261441013322,-0.238953,0.394836,0.813171,-0.354492
1470261441027333,-0.238953,0.394836,0.813171,-0.354553
1470261441058361,-0.238953,0.394836,0.813171,-0.354553
1470261441072875,-0.238953,0.394836,0.813171,-0.354553
1470261441094394,-0.238892,0.394775,0.813232,-0.354553
1470261441110408,-0.238892,0.394775,0.813232,-0.354553
1470261441132929,-0.238892,0.394775,0.813232,-0.354553
1470261441153947,-0.238831,0.394836,0.813232,-0.354614
1470261441170462,-0.238831,0.394836,0.813232,-0.354614
1470261441193482,-0.238831,0.394775,0.813232,-0.354614
1470261441214003,-0.23877,0.394775,0.813232,-0.354614
1470261441230519,-0.23877,0.394958,0.813171,-0.354553
1470261441253036,-0.238708,0.394958,0.813171,-0.354553
1470261441281562,-0.238708,0.394897,0.813232,-0.354553
1470261441290570,-0.238647,0.394897,0.813232,-0.354614
1470261441313106,-0.238647,0.394897,0.813232,-0.354614
1470261441334137,-0.238586,0.394897,0.813232,-0.354614
1470261441350624,-0.238586,0.394897,0.813232,-0.354614
1470261441373144,-0.238586,0.394897,0.813232,-0.354614
1470261441394165,-0.238525,0.394897,0.813232,-0.354675
1470261441410678,-0.238464,0.395081,0.813171,-0.354614
1470261441433198,-0.238464,0.395081,0.813171,-0.354614
1470261441454216,-0.238464,0.39502,0.813171,-0.354675
1470261441470731,-0.238403,0.39502,0.813171,-0.354675
1470261441493252,-0.238403,0.39502,0.813171,-0.354675
1470261441515771,-0.238342,0.39502,0.813232,-0.354675
1470261441530786,-0.238342,0.39502,0.813232,-0.354675
1470261441553305,-0.238342,0.39502,0.813232,-0.354675
1470261441575828,-0.238281,0.39502,0.813232,-0.354736
1470261441598346,-0.238281,0.39502,0.813232,-0.354736
1470261441613361,-0.238281,0.39502,0.813232,-0.354736
1470261441635379,-0.23822,0.39502,0.813232,-0.354736
1470261441649893,-0.23822,0.39502,0.813232,-0.354736
1470261441679419,-0.238159,0.39502,0.813232,-0.354797
1470261441695934,-0.238159,0.39502,0.813232,-0.354797
1470261441709947,-0.238159,0.39502,0.813232,-0.354797
1470261441732969,-0.238098,0.39502,0.813232,-0.354797
1470261441755488,-0.238098,0.39502,0.813232,-0.354858
1470261441770001,-0.238037,0.39502,0.813232,-0.354858
1470261441793021,-0.238037,0.39502,0.813232,-0.354858
1470261441815543,-0.238037,0.39502,0.813232,-0.354858
1470261441830056,-0.238037,0.39502,0.813232,-0.354858
1470261441853074,-0.237976,0.39502,0.813232,-0.354858
1470261441875596,-0.237915,0.395203,0.813171,-0.354919
1470261441889608,-0.237915,0.395386,0.813049,-0.354919
1470261441913131,-0.237915,0.395386,0.813049,-0.35498
1470261441935649,-0.237915,0.395386,0.813049,-0.35498
1470261441956669,-0.237854,0.395386,0.813049,-0.35498
1470261441973183,-0.237854,0.395386,0.813049,-0.35498
1470261441995704,-0.237793,0.395386,0.813049,-0.355042
1470261442016724,-0.237793,0.395386,0.813049,-0.355042
1470261442039242,-0.237732,0.395386,0.813049,-0.355042
1470261442056758,-0.237732,0.395386,0.813049,-0.355042
1470261442076775,-0.237793,0.39563,0.812866,-0.355225
1470261442093290,-0.237976,0.395813,0.812622,-0.355408
1470261442115812,-0.237915,0.395813,0.812622,-0.355408
1470261442136829,-0.237915,0.395813,0.812622,-0.355408
1470261442153345,-0.237915,0.395874,0.812622,-0.355408
1470261442175365,-0.237854,0.395874,0.812622,-0.355469
1470261442198385,-0.237854,0.395874,0.812622,-0.355469
1470261442213400,-0.237854,0.395874,0.812622,-0.355469
1470261442235418,-0.237793,0.395874,0.812622,-0.355469
1470261442256453,-0.237793,0.396118,0.812439,-0.35553
1470261442272952,-0.237732,0.396362,0.812317,-0.355591
1470261442278488,-0.237732,0.396362,0.812317,-0.355591
1470261442301047,-0.237671,0.396423,0.812317,-0.355591
1470261442323553,-0.237732,0.396606,0.812195,-0.355591
1470261442338512,-0.237732,0.396606,0.812195,-0.355591
1470261442361031,-0.237671,0.396851,0.812134,-0.35553
1470261442383553,-0.237671,0.397095,0.812073,-0.35553
1470261442398564,-0.237671,0.397095,0.812073,-0.35553
1470261442421086,-0.23761,0.397095,0.812073,-0.35553
1470261442443607,-0.23761,0.397095,0.812073,-0.35553
1470261442458621,-0.237549,0.397095,0.812012,-0.355591
1470261442481140,-0.237549,0.397156,0.812012,-0.355591
1470261442514171,-0.237549,0.397156,0.812012,-0.355591
1470261442518672,-0.237488,0.3974,0.81189,-0.355591
1470261442541192,-0.237488,0.397644,0.811768,-0.355652
1470261442563715,-0.237305,0.397888,0.811646,-0.355774
1470261442578726,-0.237305,0.397888,0.811646,-0.355774
1470261442601246,-0.237244,0.397888,0.811646,-0.355774
1470261442623766,-0.237183,0.397888,0.811646,-0.355835
1470261442641282,-0.237244,0.398193,0.811462,-0.355957
1470261442660801,-0.237183,0.398438,0.811279,-0.356079
1470261442683320,-0.237122,0.398682,0.811157,-0.35614
1470261442705840,-0.237122,0.398682,0.811157,-0.356201
1470261442720854,-0.237122,0.398926,0.810974,-0.356262
1470261442743378,-0.237122,0.399231,0.810791,-0.356262
1470261442758388,-0.237122,0.399597,0.810608,-0.356323
1470261442783911,-0.237061,0.399902,0.810425,-0.356384
1470261442803428,-0.237183,0.400513,0.810059,-0.356445
1470261442818442,-0.237366,0.401367,0.80957,-0.356445
1470261442840962,-0.237549,0.402222,0.809143,-0.356445
1470261442863489,-0.237793,0.402954,0.808716,-0.356445
1470261442878496,-0.237854,0.40332,0.808411,-0.356628
1470261442901016,-0.237976,0.403564,0.808167,-0.356812
1470261442923536,-0.23822,0.40387,0.807922,-0.356934
1470261442946058,-0.238342,0.404236,0.807617,-0.357117
1470261442961070,-0.238464,0.404541,0.807373,-0.357239
1470261442983591,-0.238464,0.404724,0.80719,-0.357361
1470261443001607,-0.238525,0.40509,0.806946,-0.357483
1470261443021127,-0.238647,0.405334,0.806763,-0.357544
1470261443043645,-0.23877,0.40564,0.806519,-0.357605
1470261443060160,-0.238892,0.405884,0.806335,-0.357727
1470261443082678,-0.238892,0.405945,0.806213,-0.357971
1470261443103697,-0.238953,0.406067,0.80603,-0.358093
1470261443120213,-0.239136,0.406189,0.805908,-0.358215
1470261443143734,-0.239258,0.406372,0.805786,-0.358215
1470261443163753,-0.239319,0.406677,0.805603,-0.358154
1470261443180266,-0.239258,0.407104,0.80542,-0.358154
1470261443200784,-0.239258,0.407471,0.805237,-0.358154
1470261443223305,-0.239258,0.407715,0.805115,-0.358215
1470261443239820,-0.239258,0.407715,0.805115,-0.358215
1470261443260838,-0.239197,0.407715,0.805054,-0.358276
1470261443284861,-0.239197,0.407715,0.805054,-0.358276
1470261443299874,-0.239136,0.408081,0.804932,-0.358276
1470261443320892,-0.239075,0.408447,0.80481,-0.358154
1470261443344914,-0.238892,0.408691,0.804749,-0.358154
1470261443359931,-0.238892,0.408691,0.804749,-0.358154
1470261443380953,-0.238831,0.408752,0.804688,-0.358154
1470261443403466,-0.238831,0.408752,0.804688,-0.358215
1470261443421488,-0.238831,0.408752,0.804688,-0.358215
1470261443441001,-0.23877,0.408752,0.804688,-0.358215
1470261443463524,-0.23877,0.408752,0.804688,-0.358215
1470261443481542,-0.23877,0.408813,0.804688,-0.358215
1470261443501054,-0.238708,0.408813,0.804688,-0.358276
1470261443523575,-0.238708,0.408813,0.804688,-0.358276
1470261443541091,-0.238647,0.408875,0.804626,-0.358276
1470261443561108,-0.238525,0.40863,0.804749,-0.358398
1470261443586633,-0.238525,0.40863,0.804749,-0.358398
1470261443601645,-0.238464,0.408691,0.804749,-0.358398
1470261443624164,-0.238464,0.408691,0.804749,-0.358398
1470261443643684,-0.238464,0.408691,0.804749,-0.358459
1470261443661698,-0.238403,0.408752,0.804749,-0.358459
1470261443681217,-0.238403,0.408752,0.804688,-0.358459
1470261443706239,-0.238342,0.408752,0.804688,-0.358459
1470261443721252,-0.238342,0.408813,0.804688,-0.358459
1470261443742271,-0.238342,0.408813,0.804688,-0.358521
1470261443763792,-0.238281,0.408813,0.804688,-0.358521
1470261443781808,-0.23822,0.408813,0.804688,-0.358521
1470261443801324,-0.23822,0.408875,0.804688,-0.358582
1470261443823343,-0.237793,0.408813,0.804688,-0.358826
1470261443841360,-0.237366,0.408691,0.804749,-0.35907
1470261443862882,-0.237122,0.408691,0.804749,-0.359253
1470261443883398,-0.237122,0.408691,0.804749,-0.359253
1470261443901415,-0.237061,0.408752,0.804749,-0.359253
1470261443920932,-0.237061,0.408752,0.804749,-0.359253
1470261443946457,-0.236755,0.408875,0.804688,-0.359497
1470261443961469,-0.236694,0.408875,0.804626,-0.359497
1470261443980992,-0.236694,0.408936,0.804626,-0.359558
1470261444003505,-0.236633,0.408936,0.804626,-0.359558
1470261444021524,-0.236633,0.408936,0.804626,-0.359558
1470261444044041,-0.236572,0.408936,0.804626,-0.359619
1470261444063562,-0.236511,0.408997,0.804626,-0.359619
1470261444081579,-0.23645,0.408997,0.804626,-0.35968
1470261444102595,-0.23645,0.408997,0.804626,-0.35968
1470261444123614,-0.236389,0.409058,0.804626,-0.35968
1470261444147637,-0.236389,0.409058,0.804565,-0.359741
1470261444170157,-0.236328,0.409058,0.804565,-0.359741
1470261444183667,-0.236328,0.409119,0.804565,-0.359741
1470261444201683,-0.236267,0.409119,0.804565,-0.359802
1470261444222703,-0.236267,0.409424,0.804321,-0.359924
1470261444243720,-0.236572,0.40979,0.803955,-0.360229
1470261444269245,-0.237244,0.410278,0.803101,-0.361084
1470261444282257,-0.23761,0.410278,0.802734,-0.361633
1470261444306278,-0.237427,0.409912,0.802795,-0.362
1470261444321291,-0.237183,0.409729,0.802917,-0.362183
1470261444343811,-0.237183,0.410034,0.802795,-0.362122
1470261444366331,-0.237122,0.410217,0.802734,-0.362061
1470261444388852,-0.237061,0.410217,0.802734,-0.362122
1470261444404366,-0.237061,0.410217,0.802734,-0.362122
1470261444423385,-0.237,0.410278,0.802673,-0.362122
1470261444448906,-0.236938,0.410278,0.802673,-0.362183
1470261444463922,-0.236938,0.410278,0.802673,-0.362183
1470261444483438,-0.236877,0.410339,0.802673,-0.362183
1470261444501454,-0.236816,0.410339,0.802673,-0.362244
1470261444523988,-0.236816,0.410339,0.802673,-0.362244
1470261444543503,-0.236755,0.410339,0.802673,-0.362244
1470261444561521,-0.236755,0.410339,0.802673,-0.362305
1470261444584027,-0.236694,0.410339,0.802673,-0.362305
1470261444611083,-0.236633,0.410339,0.802673,-0.362366
1470261444621593,-0.236633,0.4104,0.802673,-0.362366
1470261444643583,-0.236572,0.4104,0.802673,-0.362366
1470261444665100,-0.236511,0.4104,0.802673,-0.362427
1470261444681617,-0.236511,0.4104,0.802673,-0.362427
1470261444704134,-0.23645,0.4104,0.802673,-0.362427
1470261444731160,-0.23645,0.4104,0.802673,-0.362427
1470261444741667,-0.23645,0.410522,0.802612,-0.362427
1470261444764190,-0.236389,0.410522,0.802612,-0.362427
1470261444783706,-0.236328,0.410522,0.802612,-0.362488
1470261444800724,-0.236328,0.410522,0.802612,-0.362488
1470261444823242,-0.236267,0.410583,0.802612,-0.362488
1470261444844268,-0.236145,0.410339,0.802673,-0.36261
1470261444860775,-0.236145,0.410339,0.802673,-0.362671
1470261444883295,-0.236084,0.410339,0.802673,-0.362671
1470261444904314,-0.236084,0.4104,0.802673,-0.362671
1470261444928335,-0.236084,0.4104,0.802673,-0.362671
1470261444942848,-0.236023,0.4104,0.802673,-0.362671
1470261444971875,-0.236023,0.4104,0.802673,-0.362732
1470261444980887,-0.235962,0.4104,0.802673,-0.362732
1470261445008910,-0.235901,0.4104,0.802673,-0.362732
1470261445023923,-0.23584,0.410156,0.802795,-0.362854
1470261445040437,-0.235779,0.410156,0.802795,-0.362915
1470261445062959,-0.235718,0.410156,0.802795,-0.362915
1470261445083976,-0.235779,0.410217,0.802795,-0.362793
1470261445100490,-0.235718,0.410217,0.802795,-0.362854
1470261445123011,-0.235718,0.410278,0.802795,-0.362854
1470261445144030,-0.235718,0.410278,0.802734,-0.362854
1470261445168053,-0.235596,0.410217,0.802917,-0.362671
1470261445183065,-0.235596,0.410278,0.802917,-0.362488
1470261445204585,-0.235535,0.410278,0.802917,-0.362549
1470261445220598,-0.235352,0.410156,0.803101,-0.362488
1470261445243119,-0.235291,0.410095,0.803101,-0.362488
1470261445264141,-0.235229,0.410156,0.803101,-0.362549
1470261445281156,-0.235229,0.410156,0.803101,-0.362549
1470261445303172,-0.235046,0.409973,0.803284,-0.362427
1470261445327694,-0.234863,0.409851,0.803467,-0.362305
1470261445340707,-0.234924,0.409973,0.803467,-0.362122
1470261445363228,-0.234924,0.409973,0.803467,-0.362122
1470261445393254,-0.234741,0.409912,0.803589,-0.362061
1470261445399760,-0.234558,0.40979,0.803772,-0.361938
1470261445423281,-0.234558,0.40979,0.803833,-0.361755
1470261445445802,-0.23468,0.409912,0.803772,-0.361694
1470261445459814,-0.23468,0.409912,0.803772,-0.361694
1470261445483334,-0.234436,0.409729,0.803894,-0.361755
1470261445505856,-0.234436,0.409729,0.803894,-0.361755
1470261445519867,-0.234375,0.409729,0.803894,-0.361816
1470261445542887,-0.234375,0.409729,0.803894,-0.361816
1470261445565908,-0.234314,0.40979,0.803894,-0.361816
1470261445579923,-0.234314,0.40979,0.803894,-0.361816
1470261445602942,-0.234314,0.40979,0.803894,-0.361816
1470261445625461,-0.234253,0.40979,0.803894,-0.361877
1470261445647982,-0.234253,0.40979,0.803894,-0.361877
1470261445662997,-0.234192,0.40979,0.803894,-0.361877
1470261445685516,-0.234192,0.40979,0.803894,-0.361877
1470261445700029,-0.234131,0.40979,0.803894,-0.361938
1470261445723049,-0.234131,0.40979,0.803894,-0.361938
1470261445745570,-0.23407,0.40979,0.803894,-0.361938
1470261445760083,-0.23407,0.40979,0.803894,-0.361938
1470261445789109,-0.234009,0.40979,0.803894,-0.362
1470261445805624,-0.234009,0.40979,0.803894,-0.362
1470261445826642,-0.234009,0.40979,0.803894,-0.362
1470261445843158,-0.233948,0.40979,0.803894,-0.362
1470261445865678,-0.233948,0.40979,0.803894,-0.362
1470261445886697,-0.233948,0.409851,0.803894,-0.362061
1470261445903212,-0.233887,0.409851,0.803894,-0.362061
1470261445925731,-0.233887,0.409851,0.803894,-0.362061
1470261445946753,-0.233887,0.40979,0.803894,-0.362061
1470261445963265,-0.233826,0.40979,0.803894,-0.362061
1470261445986786,-0.233826,0.40979,0.803894,-0.362122
1470261446006808,-0.233765,0.40979,0.803894,-0.362122
1470261446023320,-0.233765,0.40979,0.803894,-0.362122
1470261446046841,-0.233704,0.40979,0.803894,-0.362122
1470261446066860,-0.233704,0.409851,0.803894,-0.362183
1470261446083374,-0.233704,0.409851,0.803894,-0.362183
1470261446105892,-0.233643,0.409851,0.803894,-0.362183
1470261446126912,-0.233643,0.409851,0.803894,-0.362183
1470261446142926,-0.233582,0.409851,0.803894,-0.362183
1470261446165947,-0.233582,0.409851,0.803894,-0.362244
1470261446186465,-0.233582,0.409851,0.803894,-0.362244
1470261446202981,-0.233582,0.409851,0.803894,-0.362244
1470261446225501,-0.233521,0.409851,0.803894,-0.362244
1470261446248522,-0.233459,0.409851,0.803894,-0.362305
1470261446263036,-0.233398,0.409607,0.803955,-0.362366
1470261446285557,-0.233398,0.409668,0.803955,-0.362366
1470261446308076,-0.233337,0.409668,0.803955,-0.362427
1470261446323088,-0.233215,0.409424,0.804077,-0.362549
1470261446345608,-0.233215,0.409485,0.804016,-0.362549
1470261446368130,-0.233154,0.409485,0.804016,-0.362549
1470261446382643,-0.233154,0.409485,0.804016,-0.362549
1470261446405662,-0.233154,0.409485,0.804016,-0.36261
1470261446428183,-0.233093,0.409485,0.804016,-0.36261
1470261446442696,-0.233093,0.409241,0.804138,-0.36261
1470261446465717,-0.233032,0.408997,0.80426,-0.36261
1470261446488237,-0.233032,0.408813,0.804382,-0.36261
1470261446502249,-0.232971,0.40863,0.804504,-0.36261
1470261446525772,-0.232971,0.408447,0.804626,-0.362488
1470261446548291,-0.232971,0.408386,0.804749,-0.362366
1470261446562806,-0.23291,0.408325,0.80481,-0.362244
1470261446585825,-0.23291,0.408264,0.804871,-0.362244
1470261446608344,-0.232727,0.408081,0.804993,-0.362244
1470261446622357,-0.232666,0.408081,0.804993,-0.362244
1470261446645880,-0.232666,0.408081,0.805054,-0.362244
1470261446668399,-0.232605,0.408081,0.805054,-0.362244
1470261446689418,-0.232422,0.407837,0.805176,-0.362305
1470261446705932,-0.232239,0.407532,0.805359,-0.362366
1470261446727964,-0.231995,0.407349,0.805542,-0.362427
1470261446749470,-0.23175,0.407104,0.805725,-0.362427
1470261446765986,-0.231506,0.406982,0.805847,-0.362427
1470261446788006,-0.23114,0.406799,0.80603,-0.362427
1470261446809025,-0.230774,0.406677,0.806213,-0.362366
1470261446825541,-0.230469,0.406555,0.806396,-0.362305
1470261446848062,-0.230164,0.406494,0.80658,-0.362244
1470261446869628,-0.229919,0.406311,0.806702,-0.362183
1470261446885618,-0.229858,0.406311,0.806763,-0.362183
1470261446915621,-0.229614,0.406189,0.806885,-0.362183
1470261446929634,-0.229309,0.405945,0.807129,-0.362183
1470261446947652,-0.229248,0.405945,0.807129,-0.362244
1470261446968169,-0.229248,0.405884,0.807129,-0.362244
1470261446989211,-0.229065,0.405701,0.807251,-0.362244
1470261447006202,-0.229004,0.405701,0.807312,-0.362244
1470261447028221,-0.229004,0.405701,0.807251,-0.362244
1470261447058248,-0.228943,0.405701,0.807312,-0.362305
1470261447065758,-0.228821,0.405457,0.807434,-0.362305
1470261447088276,-0.228577,0.405151,0.807617,-0.362366
1470261447109309,-0.228577,0.405151,0.807617,-0.362366
1470261447125809,-0.228577,0.405151,0.807617,-0.362427
1470261447148330,-0.228577,0.405151,0.807617,-0.362427
1470261447169379,-0.228516,0.405151,0.807617,-0.362427
1470261447184865,-0.228516,0.405151,0.807617,-0.362427
1470261447208383,-0.228516,0.405151,0.807617,-0.362427
1470261447230904,-0.228333,0.405273,0.807556,-0.362549
1470261447245917,-0.22821,0.405518,0.807434,-0.362671
1470261447268437,-0.22821,0.405579,0.807312,-0.362793
1470261447290457,-0.22821,0.405579,0.807312,-0.362854
1470261447305470,-0.228149,0.405579,0.807312,-0.362854
1470261447328020,-0.228149,0.405579,0.807312,-0.362854
1470261447358017,-0.228149,0.405579,0.807312,-0.362854
1470261447365025,-0.227966,0.405396,0.807373,-0.363037
1470261447388045,-0.227905,0.405396,0.807373,-0.363098
1470261447411065,-0.227905,0.405396,0.807373,-0.363098
1470261447425079,-0.227844,0.405396,0.807373,-0.363098
1470261447448601,-0.227661,0.405273,0.807373,-0.363342
1470261447470620,-0.227356,0.40509,0.807495,-0.363525
1470261447485131,-0.227356,0.40509,0.807495,-0.363525
1470261447508654,-0.227356,0.405151,0.807434,-0.363525
1470261447530673,-0.227356,0.405151,0.807434,-0.363525
1470261447545186,-0.227295,0.405151,0.807434,-0.363586
1470261447568231,-0.227051,0.405151,0.807495,-0.363586
1470261447590751,-0.226685,0.405212,0.807556,-0.363647
1470261447604764,-0.226318,0.405273,0.807617,-0.363708
1470261447635792,-0.226013,0.405334,0.807617,-0.363708
1470261447650810,-0.225708,0.405457,0.807678,-0.363647
1470261447665319,-0.225403,0.405518,0.807739,-0.363586
1470261447688339,-0.225098,0.405518,0.807861,-0.363647
1470261447710859,-0.225037,0.405518,0.807861,-0.363647
1470261447731901,-0.225037,0.405518,0.807861,-0.363708
1470261447748394,-0.224976,0.405518,0.807861,-0.363708
1470261447770912,-0.224915,0.405518,0.807861,-0.363708
1470261447791931,-0.224915,0.405518,0.807861,-0.36377
1470261447807948,-0.224854,0.405518,0.807861,-0.36377
1470261447838023,-0.224792,0.405518,0.807861,-0.36377
1470261447851986,-0.224792,0.405518,0.807861,-0.363831
1470261447868000,-0.224731,0.405518,0.807861,-0.363831
1470261447890522,-0.224731,0.405518,0.807861,-0.363831
1470261447912070,-0.22467,0.405518,0.807861,-0.363892
1470261447928054,-0.22467,0.405518,0.807861,-0.363892
1470261447952589,-0.224609,0.405518,0.807861,-0.363892
1470261447979101,-0.224609,0.405701,0.8078,-0.363892
1470261447988108,-0.224609,0.405701,0.807739,-0.363953
1470261448010629,-0.224548,0.405701,0.8078,-0.363953
1470261448031649,-0.224548,0.405701,0.8078,-0.363953
1470261448054168,-0.224487,0.405701,0.8078,-0.363953
1470261448070682,-0.224487,0.405701,0.807739,-0.364014
1470261448091701,-0.224487,0.405701,0.8078,-0.364014
1470261448108216,-0.224426,0.405701,0.8078,-0.364014
1470261448138243,-0.224365,0.405701,0.8078,-0.364014
1470261448153257,-0.224365,0.405701,0.807739,-0.364075
1470261448168270,-0.224304,0.405762,0.807739,-0.364075
1470261448190791,-0.224304,0.405762,0.807739,-0.364075
1470261448213312,-0.224243,0.405762,0.807739,-0.364136
1470261448228324,-0.224243,0.405762,0.807739,-0.364136
1470261448250844,-0.224182,0.405762,0.807739,-0.364136
1470261448273364,-0.224121,0.405762,0.807739,-0.364136
1470261448287379,-0.224121,0.405762,0.807739,-0.364197
1470261448310897,-0.224121,0.405762,0.807739,-0.364197
1470261448340925,-0.22406,0.405823,0.807739,-0.364197
1470261448347934,-0.22406,0.405823,0.807739,-0.364197
1470261448370451,-0.22406,0.405823,0.807739,-0.364197
1470261448392973,-0.223999,0.405823,0.807739,-0.364258
1470261448407485,-0.223999,0.405823,0.807739,-0.364258
1470261448431007,-0.223938,0.405823,0.807739,-0.364258
1470261448453025,-0.223938,0.405884,0.807739,-0.364258
1470261448467539,-0.223877,0.405884,0.807739,-0.364319
1470261448490559,-0.223877,0.405884,0.807678,-0.364319
1470261448513083,-0.223816,0.405884,0.807678,-0.364319
1470261448527592,-0.223816,0.405884,0.807678,-0.364319
1470261448550613,-0.223816,0.405884,0.807678,-0.364319
1470261448573135,-0.223816,0.405945,0.807678,-0.36438
1470261448587646,-0.223755,0.405884,0.807678,-0.36438
1470261448610666,-0.223755,0.405945,0.807678,-0.36438
1470261448633188,-0.223694,0.405945,0.807678,-0.36438
1470261448654330,-0.223694,0.405945,0.807678,-0.364441
1470261448670721,-0.223877,0.405884,0.807617,-0.364441
1470261448693243,-0.22406,0.405884,0.807556,-0.364563
1470261448714262,-0.224121,0.405884,0.807495,-0.364685
1470261448730777,-0.224304,0.405945,0.807373,-0.364746
1470261448753295,-0.224365,0.405823,0.807312,-0.36499
1470261448775816,-0.224487,0.405701,0.807251,-0.365173
1470261448790830,-0.224609,0.405762,0.807068,-0.365356
1470261448813351,-0.224854,0.405884,0.806824,-0.365662
1470261448834369,-0.224915,0.405762,0.806702,-0.365967
1470261448850882,-0.224915,0.405762,0.806702,-0.365967
1470261448873404,-0.224915,0.405762,0.806702,-0.365967
1470261448895924,-0.224854,0.405762,0.806702,-0.365967
1470261448917943,-0.224854,0.405762,0.806702,-0.366028
1470261448940463,-0.224792,0.405762,0.806702,-0.366028
1470261448954476,-0.224792,0.405762,0.806702,-0.366028
1470261448970992,-0.224792,0.405762,0.806702,-0.366028
1470261448993011,-0.224731,0.405762,0.806702,-0.366028
1470261449014532,-0.224731,0.405762,0.806702,-0.366028
1470261449031549,-0.224731,0.405823,0.806702,-0.366089
1470261449053065,-0.224731,0.405823,0.806702,-0.366089
1470261449074083,-0.22467,0.405823,0.806702,-0.366089
1470261449090598,-0.22467,0.405823,0.806702,-0.366089
1470261449113120,-0.224609,0.405823,0.806702,-0.366089
1470261449135639,-0.224609,0.405823,0.806702,-0.36615
1470261449150652,-0.224548,0.405823,0.806702,-0.36615
1470261449173172,-0.224548,0.405823,0.806702,-0.36615
1470261449195692,-0.224548,0.405823,0.806702,-0.36615
1470261449210723,-0.224548,0.405823,0.806702,-0.36615
1470261449233726,-0.224487,0.405823,0.806702,-0.36615
1470261449255746,-0.224487,0.405823,0.806702,-0.366211
1470261449270259,-0.224426,0.405823,0.806702,-0.366211
1470261449293279,-0.224426,0.405823,0.806702,-0.366211
1470261449315803,-0.224182,0.405762,0.806763,-0.366272
1470261449330314,-0.224182,0.405762,0.806763,-0.366333
1470261449353334,-0.224182,0.405762,0.806763,-0.366333
1470261449375854,-0.224121,0.405762,0.806763,-0.366333
1470261449389867,-0.224121,0.405762,0.806763,-0.366333
1470261449413390,-0.224121,0.405823,0.806763,-0.366333
1470261449435907,-0.223816,0.405579,0.806885,-0.366394
1470261449449925,-0.223755,0.405579,0.806885,-0.366455
1470261449473445,-0.223694,0.40564,0.806885,-0.366455
1470261449495962,-0.223694,0.40564,0.806885,-0.366455
1470261449509974,-0.223633,0.40564,0.806885,-0.366516
1470261449533496,-0.22345,0.405396,0.807068,-0.366577
1470261449555516,-0.223267,0.405151,0.80719,-0.366577
1470261449570029,-0.223267,0.405212,0.80719,-0.366577
1470261449593049,-0.223206,0.405212,0.80719,-0.366577
1470261449616070,-0.223206,0.405212,0.80719,-0.366638
1470261449637093,-0.223145,0.405212,0.80719,-0.366638
1470261449653604,-0.223145,0.405273,0.80719,-0.366638
1470261449675623,-0.222961,0.405151,0.807312,-0.366577
1470261449696644,-0.2229,0.405151,0.807312,-0.366577
1470261449713159,-0.2229,0.405151,0.807312,-0.366638
1470261449735677,-0.222839,0.405151,0.807312,-0.366638
1470261449756729,-0.222839,0.405151,0.807312,-0.366638
1470261449773211,-0.222717,0.405273,0.807312,-0.366577
1470261449795736,-0.222717,0.405273,0.807312,-0.366577
1470261449816768,-0.222656,0.405273,0.807312,-0.366638
1470261449833265,-0.222656,0.405273,0.807312,-0.366638
1470261449855786,-0.222595,0.405273,0.807312,-0.366638
1470261449876805,-0.222595,0.405396,0.807251,-0.366638
1470261449893321,-0.222534,0.405396,0.807251,-0.366638
1470261449915840,-0.222534,0.405396,0.807251,-0.366638
1470261449936858,-0.222473,0.405396,0.807251,-0.366638
1470261449953373,-0.222473,0.405396,0.807251,-0.366699
1470261449975893,-0.222412,0.405396,0.807251,-0.366699
1470261449996412,-0.222412,0.405396,0.807251,-0.366699
1470261450012927,-0.222351,0.405396,0.807251,-0.366699
1470261450035951,-0.222351,0.405396,0.807251,-0.36676
1470261450048960,-0.22229,0.405457,0.807251,-0.36676
1470261450063474,-0.22229,0.405457,0.807251,-0.36676
1470261450078485,-0.222229,0.405457,0.807251,-0.366821
1470261450101005,-0.222229,0.405457,0.807251,-0.366821
1470261450123527,-0.222168,0.405457,0.807251,-0.366821
1470261450138540,-0.222168,0.405457,0.807251,-0.366821
1470261450164066,-0.222229,0.405396,0.80719,-0.367065
1470261450184079,-0.222168,0.405396,0.80719,-0.367065
1470261450198595,-0.222168,0.405457,0.807129,-0.367065
1470261450221112,-0.222229,0.405396,0.807068,-0.367249
1470261450246640,-0.222351,0.405457,0.806946,-0.367371
1470261450258647,-0.222412,0.405518,0.806824,-0.367493
1470261450281171,-0.222534,0.405457,0.806763,-0.367676
1470261450303687,-0.222534,0.405518,0.806763,-0.367676
1470261450318701,-0.222473,0.405518,0.806763,-0.367676
1470261450341221,-0.222595,0.40564,0.806641,-0.367737
1470261450363743,-0.222595,0.40564,0.806641,-0.367737
1470261450378754,-0.222656,0.405518,0.806641,-0.367798
1470261450401275,-0.222656,0.405334,0.806641,-0.367981
1470261450423795,-0.222595,0.405029,0.806702,-0.368225
1470261450438808,-0.222656,0.404785,0.806763,-0.368347
1470261450461329,-0.222595,0.404785,0.806763,-0.368408
1470261450492357,-0.222412,0.404602,0.806885,-0.368408
1470261450498866,-0.222168,0.404297,0.807068,-0.368469
1470261450521382,-0.221863,0.404053,0.807312,-0.368469
1470261450543903,-0.221497,0.403748,0.807495,-0.36853
1470261450558917,-0.22113,0.403687,0.807617,-0.368591
1470261450583939,-0.22113,0.403809,0.807434,-0.368774
1470261450603456,-0.221558,0.404114,0.807007,-0.369141
1470261450618684,-0.22229,0.404114,0.806519,-0.369873
1470261450640990,-0.222534,0.403931,0.806274,-0.370361
1470261450664012,-0.222473,0.403625,0.806274,-0.370667
1470261450687533,-0.222412,0.40332,0.806396,-0.37085
1470261450701043,-0.222412,0.403259,0.806519,-0.370728
1470261450723564,-0.222351,0.403259,0.80658,-0.370605
1470261450740078,-0.222473,0.403625,0.806458,-0.370422
1470261450761097,-0.222595,0.403992,0.806335,-0.370117
1470261450783618,-0.222595,0.404419,0.806274,-0.369873
1470261450800135,-0.222412,0.404663,0.806274,-0.369629
1470261450821152,-0.22229,0.404907,0.806335,-0.369385
1470261450843672,-0.222229,0.40509,0.806274,-0.369324
1470261450860188,-0.222168,0.40509,0.806274,-0.369324
1470261450882707,-0.222168,0.405273,0.806274,-0.369263
1470261450903725,-0.222229,0.405396,0.806213,-0.369141
1470261450920240,-0.222351,0.405579,0.80603,-0.369202
1470261450941259,-0.222473,0.405701,0.805969,-0.369202
1470261450965283,-0.222473,0.405701,0.805969,-0.369202
1470261450981299,-0.222656,0.405762,0.805847,-0.369263
1470261451001315,-0.222839,0.405945,0.805725,-0.369263
1470261451024835,-0.222778,0.405945,0.805725,-0.369263
1470261451041349,-0.222778,0.406006,0.805664,-0.369324
1470261451060866,-0.222778,0.406006,0.805664,-0.369324
1470261451083388,-0.222717,0.406006,0.805664,-0.369324
1470261451108910,-0.222839,0.406189,0.805542,-0.369263
1470261451120921,-0.222839,0.406189,0.805542,-0.369263
1470261451143941,-0.222778,0.406189,0.805542,-0.369324
1470261451168964,-0.222778,0.406189,0.805542,-0.369324
1470261451180979,-0.222778,0.40625,0.805542,-0.369324
1470261451203495,-0.222717,0.406006,0.805664,-0.369385
1470261451221512,-0.222717,0.405884,0.805664,-0.369507
1470261451241029,-0.222717,0.405884,0.805603,-0.369568
1470261451264052,-0.222656,0.40564,0.805725,-0.36969
1470261451281568,-0.222595,0.405273,0.805847,-0.369812
1470261451301083,-0.222473,0.40509,0.805908,-0.369873
1470261451326605,-0.22229,0.404968,0.80603,-0.369995
1470261451341619,-0.222351,0.405151,0.805908,-0.369873
1470261451361137,-0.222595,0.405457,0.805786,-0.369812
1470261451391163,-0.222595,0.405457,0.805786,-0.369812
1470261451401675,-0.222534,0.405457,0.805786,-0.369812
1470261451421192,-0.222717,0.405518,0.805603,-0.369934
1470261451443712,-0.2229,0.40564,0.805481,-0.370056
1470261451461727,-0.223083,0.405823,0.805359,-0.369995
1470261451481246,-0.223267,0.406006,0.805298,-0.369934
1470261451503765,-0.223267,0.406006,0.805237,-0.369934
1470261451521280,-0.223206,0.406006,0.805237,-0.369934
1470261451541298,-0.223206,0.406067,0.805237,-0.369934
1470261451563819,-0.223206,0.406067,0.805237,-0.369934
1470261451581836,-0.223206,0.406189,0.805237,-0.369812
1470261451602353,-0.223389,0.406311,0.805176,-0.36969
1470261451623371,-0.223389,0.406372,0.805176,-0.36969
1470261451641389,-0.22345,0.406372,0.805176,-0.369507
1470261451668912,-0.223572,0.406433,0.805237,-0.369385
1470261451683926,-0.223633,0.406494,0.805176,-0.369263
1470261451701442,-0.223755,0.406616,0.805176,-0.36908
1470261451722461,-0.223938,0.406738,0.805176,-0.368835
1470261451743980,-0.22406,0.406738,0.805237,-0.368591
1470261451761496,-0.224121,0.406677,0.805359,-0.368408
1470261451782517,-0.224243,0.406677,0.805481,-0.368164
1470261451803534,-0.224365,0.406616,0.805542,-0.367859
1470261451821550,-0.224304,0.406433,0.805786,-0.367615
1470261451842569,-0.224304,0.40625,0.80603,-0.367371
1470261451864089,-0.224243,0.405945,0.806274,-0.367126
1470261451881607,-0.224304,0.405762,0.806458,-0.366943
1470261451902623,-0.224304,0.405457,0.806702,-0.36676
1470261451923641,-0.224243,0.40509,0.807007,-0.366516
1470261451941659,-0.224365,0.404846,0.80719,-0.366272
1470261451964181,-0.224426,0.404602,0.807434,-0.365967
1470261451991203,-0.224365,0.404236,0.807739,-0.365784
1470261452001712,-0.224365,0.40387,0.807983,-0.365601
1470261452024231,-0.224365,0.403564,0.808228,-0.365417
1470261452043749,-0.224243,0.403198,0.808533,-0.365234
1470261452061765,-0.224182,0.403015,0.808716,-0.36499
1470261452084288,-0.224304,0.403076,0.808777,-0.364746
1470261452103803,-0.224365,0.403259,0.808777,-0.364502
1470261452121319,-0.224426,0.403564,0.808777,-0.364136
1470261452143840,-0.224548,0.403992,0.808655,-0.363831
1470261452163859,-0.224548,0.403992,0.808655,-0.363831
1470261452188881,-0.224548,0.403992,0.808655,-0.363831
1470261452203893,-0.224548,0.403992,0.808655,-0.363892
1470261452223410,-0.224487,0.403992,0.808655,-0.363892
1470261452241427,-0.224487,0.403992,0.808655,-0.363892
1470261452263950,-0.224426,0.403992,0.808655,-0.363892
1470261452283965,-0.224426,0.403931,0.808716,-0.363953
1470261452301481,-0.224365,0.403809,0.808777,-0.363953
1470261452324001,-0.224243,0.403259,0.80896,-0.364258
1470261452343519,-0.223938,0.402039,0.809387,-0.364746
1470261452361534,-0.223572,0.401062,0.809753,-0.365234
1470261452384056,-0.223511,0.400391,0.809937,-0.365662
1470261452406575,-0.223511,0.400146,0.809998,-0.365845
1470261452421589,-0.223389,0.400269,0.809998,-0.365784
1470261452444110,-0.223267,0.401062,0.809814,-0.365356
1470261452464128,-0.223511,0.401794,0.809631,-0.364746
1470261452481645,-0.223938,0.402161,0.809509,-0.36438
1470261452504163,-0.223511,0.401794,0.809631,-0.364746
1470261452523681,-0.222778,0.401001,0.809875,-0.365479
1470261452540696,-0.223083,0.400879,0.809692,-0.365906
1470261452563216,-0.223633,0.400879,0.809448,-0.36615
1470261452584736,-0.223694,0.400757,0.809387,-0.366455
1470261452600750,-0.223022,0.400208,0.80957,-0.367004
1470261452623271,-0.22229,0.39978,0.809692,-0.367554
1470261452661304,-0.221924,0.399292,0.809875,-0.367981
1470261452663808,-0.222046,0.398743,0.809937,-0.368225
1470261452683324,-0.222107,0.398193,0.81012,-0.36853
1470261452704342,-0.222107,0.397705,0.810303,-0.368652
1470261452720857,-0.222473,0.397705,0.810181,-0.368713
1470261452743378,-0.222351,0.39801,0.81012,-0.368591
1470261452765901,-0.221985,0.398743,0.809875,-0.368591
1470261452784419,-0.222168,0.399597,0.809631,-0.368042
1470261452803432,-0.22229,0.399658,0.809753,-0.367615
1470261452824450,-0.222168,0.398865,0.810059,-0.367798
1470261452839964,-0.221924,0.398254,0.810303,-0.368103
1470261452863486,-0.221741,0.397949,0.810364,-0.368469
1470261452885507,-0.221985,0.39801,0.810181,-0.368652
1470261452900519,-0.222107,0.397949,0.810181,-0.368713
1470261452930548,-0.221924,0.397705,0.810242,-0.368835
1470261452945559,-0.22168,0.397461,0.810425,-0.368835
1470261452968080,-0.22168,0.397461,0.810425,-0.368896
1470261452983094,-0.221619,0.397522,0.810425,-0.368896
1470261453005613,-0.22168,0.397278,0.810547,-0.368896
1470261453020626,-0.22168,0.397278,0.810547,-0.368896
1470261453049653,-0.221619,0.397278,0.810547,-0.368896
1470261453065667,-0.221619,0.397217,0.810547,-0.368896
1470261453080182,-0.221436,0.397034,0.810669,-0.368958
1470261453103201,-0.221313,0.396851,0.81073,-0.369019
1470261453125721,-0.221252,0.396545,0.810852,-0.369202
1470261453140233,-0.221313,0.396362,0.810852,-0.369385
1470261453163256,-0.221252,0.396057,0.810913,-0.369629
1470261453185776,-0.221252,0.396057,0.810913,-0.369629
1470261453200289,-0.221313,0.395935,0.810791,-0.369873
1470261453223308,-0.221252,0.395996,0.810669,-0.370178
1470261453246330,-0.221313,0.396301,0.810486,-0.370239
1470261453260342,-0.221436,0.39679,0.810242,-0.370117
1470261453283363,-0.221436,0.39679,0.810242,-0.370117
1470261453305883,-0.22168,0.396729,0.81012,-0.3703
1470261453319896,-0.221802,0.396606,0.809998,-0.370544
1470261453343416,-0.221863,0.396667,0.809814,-0.370911
1470261453365940,-0.22229,0.396729,0.80957,-0.371094
1470261453386955,-0.222534,0.39679,0.809326,-0.37146
1470261453402970,-0.222778,0.396606,0.809265,-0.371582
1470261453425990,-0.222717,0.396484,0.809204,-0.371887
1470261453447010,-0.222778,0.396484,0.809143,-0.372009
1470261453463526,-0.222778,0.396484,0.809143,-0.37207
1470261453485543,-0.222778,0.396667,0.80896,-0.372253
1470261453507063,-0.222961,0.396973,0.808838,-0.372192
1470261453530586,-0.222961,0.396973,0.808777,-0.372192
1470261453545598,-0.223022,0.396667,0.808899,-0.372192
1470261453566617,-0.222961,0.396667,0.808899,-0.372192
1470261453583134,-0.223206,0.397034,0.808655,-0.372192
1470261453605652,-0.223389,0.397461,0.808411,-0.372192
1470261453626671,-0.223389,0.397522,0.808411,-0.372253
1470261453643186,-0.223328,0.397522,0.808411,-0.372253
1470261453665708,-0.223267,0.397522,0.808411,-0.372253
1470261453686724,-0.223267,0.397522,0.808411,-0.372314
1470261453703240,-0.223267,0.397522,0.808411,-0.372314
1470261453725760,-0.223267,0.397827,0.808228,-0.372314
1470261453747280,-0.223511,0.398071,0.808044,-0.372253
1470261453770800,-0.223816,0.398132,0.807983,-0.372253
1470261453785816,-0.223877,0.398193,0.807861,-0.372375
1470261453806832,-0.223938,0.398438,0.807495,-0.372742
1470261453823348,-0.224365,0.398621,0.807251,-0.372925
1470261453845868,-0.224426,0.398682,0.807007,-0.373352
1470261453868389,-0.224548,0.398621,0.806824,-0.373657
1470261453883402,-0.224854,0.39856,0.80658,-0.374146
1470261453905921,-0.225281,0.398743,0.806152,-0.374695
1470261453928442,-0.226013,0.398987,0.805664,-0.375061
1470261453943456,-0.22699,0.399353,0.805054,-0.375366
1470261453965478,-0.227966,0.39917,0.804688,-0.375671
1470261453988495,-0.229248,0.398376,0.804749,-0.375549
1470261454002509,-0.230774,0.397522,0.804871,-0.375366
1470261454025529,-0.2323,0.39679,0.804871,-0.375122
1470261454048551,-0.233643,0.396362,0.80481,-0.374939
1470261454062562,-0.234558,0.396179,0.804626,-0.374878
1470261454086083,-0.235535,0.396179,0.804443,-0.374756
1470261454108102,-0.236206,0.396301,0.80426,-0.374573
1470261454129623,-0.236755,0.396423,0.804077,-0.374512
1470261454145637,-0.237183,0.396606,0.803894,-0.374329
1470261454168657,-0.237488,0.396729,0.803894,-0.374084
1470261454182670,-0.237671,0.396912,0.803894,-0.373718
1470261454205690,-0.237732,0.397278,0.803894,-0.373352
1470261454228712,-0.237732,0.397766,0.803833,-0.372925
1470261454242725,-0.237732,0.39856,0.803772,-0.372253
1470261454265746,-0.237671,0.399658,0.803589,-0.371521
1470261454296274,-0.23761,0.401489,0.803101,-0.370605
1470261454302778,-0.238037,0.40387,0.802185,-0.369751
1470261454325799,-0.238831,0.405579,0.801453,-0.368896
1470261454348821,-0.239136,0.405151,0.80188,-0.368225
1470261454369339,-0.238647,0.403992,0.802795,-0.367981
1470261454385853,-0.238892,0.404541,0.802612,-0.367615
1470261454408372,-0.239502,0.40509,0.802185,-0.367432
1470261454436898,-0.239929,0.40509,0.802063,-0.367493
1470261454445907,-0.239868,0.404785,0.802246,-0.367371
1470261454468427,-0.239807,0.40448,0.80249,-0.367249
1470261454489444,-0.240173,0.40448,0.802551,-0.366943
1470261454505459,-0.240234,0.404236,0.802734,-0.366638
1470261454528480,-0.240112,0.403992,0.802979,-0.366455
1470261454549499,-0.240173,0.403809,0.803101,-0.366455
1470261454566015,-0.240051,0.403381,0.803284,-0.366516
1470261454588534,-0.239868,0.402954,0.803528,-0.366638
1470261454609552,-0.23999,0.402771,0.803589,-0.366577
1470261454626068,-0.239929,0.402466,0.803772,-0.366577
1470261454655594,-0.239807,0.402344,0.803894,-0.366516
1470261454669607,-0.239807,0.402344,0.803894,-0.366516
1470261454685621,-0.239563,0.4021,0.804138,-0.366455
1470261454708142,-0.239136,0.401489,0.804504,-0.366577
1470261454729662,-0.238831,0.401062,0.80481,-0.366577
1470261454745675,-0.238586,0.400696,0.805054,-0.366577
1470261454771199,-0.238342,0.400208,0.805359,-0.366638
1470261454790717,-0.237854,0.399963,0.805481,-0.366882
1470261454805730,-0.237793,0.400024,0.805481,-0.366943
1470261454828750,-0.237915,0.400146,0.805237,-0.367188
1470261454850775,-0.237915,0.399536,0.805359,-0.367615
1470261454865785,-0.237671,0.398315,0.805786,-0.368103
1470261454888304,-0.237671,0.398315,0.805786,-0.368103
1470261454910825,-0.237915,0.398621,0.805481,-0.368225
1470261454924837,-0.237854,0.398132,0.805481,-0.368835
1470261454948359,-0.237732,0.397522,0.805603,-0.369324
1470261454970878,-0.23761,0.397827,0.805542,-0.369324
1470261454985391,-0.237244,0.398132,0.805481,-0.369263
1470261455008411,-0.237244,0.398682,0.805237,-0.369263
1470261455030934,-0.237427,0.399048,0.805054,-0.36908
1470261455044944,-0.236877,0.398621,0.80542,-0.369141
1470261455075974,-0.236267,0.398132,0.805786,-0.369202
1470261455090985,-0.236267,0.398193,0.805786,-0.369202
1470261455104998,-0.235962,0.39801,0.805908,-0.369324
1470261455128019,-0.235413,0.398071,0.80603,-0.369385
1470261455151039,-0.234619,0.397949,0.806335,-0.369263
1470261455165554,-0.23407,0.398132,0.80658,-0.368774
1470261455201587,-0.233398,0.398315,0.806702,-0.368774
1470261455210594,-0.233032,0.398438,0.806824,-0.368713
1470261455225107,-0.232544,0.397888,0.807312,-0.368469
1470261455248629,-0.232056,0.397583,0.807678,-0.368347
1470261455270648,-0.232239,0.398315,0.807373,-0.368164
1470261455291666,-0.232788,0.399109,0.806885,-0.367981
1470261455308181,-0.232971,0.399475,0.806519,-0.368225
1470261455330704,-0.232788,0.399414,0.806458,-0.368591
1470261455351719,-0.232483,0.399109,0.80658,-0.368958
1470261455368236,-0.232422,0.399048,0.80658,-0.368958
1470261455390756,-0.232422,0.399048,0.806458,-0.369263
1470261455412274,-0.232361,0.399048,0.806458,-0.369263
1470261455428289,-0.232117,0.399048,0.806519,-0.369263
1470261455450809,-0.232056,0.399048,0.806519,-0.369263
1470261455471827,-0.231873,0.398926,0.806641,-0.369324
1470261455488343,-0.231567,0.39856,0.806885,-0.369385
1470261455510863,-0.231445,0.398499,0.806885,-0.369507
1470261455531882,-0.231445,0.398499,0.806885,-0.369507
1470261455548399,-0.231384,0.398499,0.806885,-0.369507
1470261455570918,-0.231384,0.39856,0.806885,-0.369507
1470261455591936,-0.23114,0.398315,0.807068,-0.369446
1470261455608452,-0.230713,0.39801,0.807312,-0.369507
1470261455630972,-0.230347,0.397888,0.807495,-0.369507
1470261455651988,-0.230042,0.397888,0.807678,-0.369324
1470261455669006,-0.229675,0.397766,0.807861,-0.369202
1470261455691024,-0.229431,0.397827,0.807983,-0.369019
1470261455712043,-0.229431,0.397827,0.807983,-0.36908
1470261455728057,-0.229431,0.397827,0.807983,-0.36908
1470261455750578,-0.22937,0.397827,0.807983,-0.36908
1470261455773098,-0.22937,0.397827,0.807983,-0.36908
1470261455788112,-0.229126,0.397644,0.808228,-0.369019
1470261455810632,-0.228821,0.397644,0.80835,-0.368835
1470261455833152,-0.228699,0.397644,0.808472,-0.368652
1470261455848169,-0.228638,0.397644,0.808472,-0.368713
1470261455870685,-0.228638,0.397644,0.808472,-0.368713
1470261455893208,-0.228577,0.397644,0.808472,-0.368713
1470261455907722,-0.228577,0.397644,0.808472,-0.368713
1470261455930741,-0.228577,0.397705,0.808472,-0.368713
1470261455953260,-0.228455,0.397827,0.808533,-0.368469
1470261455967773,-0.228394,0.398071,0.808533,-0.368225
1470261455990795,-0.228333,0.398254,0.808533,-0.368103
1470261456013317,-0.228516,0.39856,0.80835,-0.368042
1470261456027827,-0.228577,0.398743,0.808289,-0.367981
1470261456050847,-0.228516,0.398804,0.808228,-0.367981
1470261456073369,-0.228516,0.398804,0.808228,-0.368042
1470261456087880,-0.228455,0.398743,0.808289,-0.368042
1470261456110901,-0.228455,0.398926,0.808228,-0.367859
1470261456133423,-0.228333,0.399109,0.808289,-0.367676
1470261456154497,-0.22821,0.399353,0.80835,-0.367493
1470261456170955,-0.228088,0.399658,0.808289,-0.36731
1470261456193476,-0.228027,0.399658,0.808228,-0.367371
1470261456207487,-0.228027,0.399658,0.808228,-0.367371
1470261456231010,-0.228516,0.399841,0.807922,-0.367554
1470261456253544,-0.229248,0.400696,0.807251,-0.367676
1470261456274548,-0.22998,0.401367,0.806641,-0.367798
1470261456291062,-0.230408,0.401855,0.806213,-0.367981
1470261456313583,-0.230591,0.402039,0.805969,-0.368225
1470261456334602,-0.230469,0.401611,0.806091,-0.36853
1470261456350617,-0.230408,0.401123,0.806213,-0.368774
1470261456373137,-0.230408,0.401001,0.806152,-0.368958
1470261456394689,-0.230408,0.401062,0.806152,-0.368958
1470261456410670,-0.230408,0.401062,0.806152,-0.368958
1470261456433242,-0.230408,0.401062,0.806152,-0.368958
1470261456454760,-0.23053,0.401245,0.805969,-0.369141
1470261456470724,-0.230652,0.401489,0.805786,-0.369202
1470261456500752,-0.230652,0.401489,0.805786,-0.369202
1470261456514768,-0.230652,0.401489,0.805725,-0.369202
1470261456530781,-0.23053,0.401489,0.805725,-0.369324
1470261456553300,-0.230225,0.401245,0.805908,-0.369507
1470261456574317,-0.230164,0.401245,0.805908,-0.369507
1470261456590832,-0.230103,0.40155,0.805786,-0.369385
1470261456613355,-0.230225,0.402283,0.805481,-0.369263
1470261456634392,-0.230286,0.402771,0.805237,-0.369202
1470261456650885,-0.230103,0.402527,0.80542,-0.369263
1470261456673407,-0.229614,0.401917,0.805725,-0.369507
1470261456695927,-0.229614,0.401917,0.805725,-0.369507
1470261456710940,-0.229553,0.401917,0.805725,-0.369507
1470261456733461,-0.229553,0.401917,0.805725,-0.369507
1470261456755980,-0.229553,0.401794,0.805725,-0.369568
1470261456770995,-0.22937,0.40155,0.805847,-0.36969
1470261456793516,-0.229126,0.401428,0.805969,-0.369751
1470261456816035,-0.229126,0.401428,0.805969,-0.369751
1470261456830550,-0.229126,0.401428,0.805969,-0.369751
1470261456853068,-0.229065,0.401428,0.805969,-0.369812
1470261456875588,-0.229187,0.401855,0.805725,-0.369812
1470261456890101,-0.229187,0.401855,0.805725,-0.369812
1470261456913624,-0.229004,0.401672,0.805725,-0.370056
1470261456941647,-0.229004,0.401672,0.805725,-0.370056
1470261456950156,-0.229004,0.401733,0.805725,-0.370056
1470261456973175,-0.229004,0.401733,0.805725,-0.370056
1470261456995696,-0.22876,0.401489,0.805847,-0.370178
1470261457010209,-0.228455,0.401123,0.80603,-0.370361
1470261457033229,-0.228271,0.40094,0.806152,-0.370422
1470261457056250,-0.22821,0.40094,0.806152,-0.370483
1470261457070263,-0.22821,0.40094,0.806152,-0.370483
1470261457093283,-0.22821,0.400696,0.806152,-0.370728
1470261457115804,-0.228149,0.400269,0.806274,-0.370911
1470261457130319,-0.22821,0.400146,0.806274,-0.370972
1470261457153337,-0.22821,0.400146,0.806274,-0.371033
1470261457175857,-0.228394,0.40033,0.806213,-0.370911
1470261457196879,-0.228394,0.400391,0.806213,-0.370911
1470261457219398,-0.228394,0.400391,0.806152,-0.370911
1470261457235911,-0.228394,0.400391,0.806152,-0.370911
1470261457256957,-0.228333,0.400391,0.806152,-0.370911
1470261457273444,-0.228333,0.400391,0.806152,-0.370911
1470261457295965,-0.228271,0.400391,0.806152,-0.370972
1470261457316990,-0.228271,0.400391,0.806152,-0.370972
1470261457333499,-0.228271,0.400391,0.806152,-0.370972
1470261457356020,-0.228271,0.400391,0.806152,-0.370972
1470261457377049,-0.22821,0.400391,0.806152,-0.370972
1470261457393052,-0.22821,0.400452,0.806152,-0.370972
1470261457416074,-0.22821,0.400452,0.806152,-0.370972
1470261457437092,-0.22821,0.400452,0.806152,-0.371033
1470261457453106,-0.228149,0.400452,0.806152,-0.371033
1470261457475626,-0.228149,0.400452,0.806152,-0.371033
1470261457497145,-0.228149,0.400452,0.806152,-0.371033
1470261457513662,-0.228027,0.40033,0.806213,-0.371094
1470261457535682,-0.227844,0.400146,0.806335,-0.371094
1470261457557201,-0.227844,0.400146,0.806335,-0.371155
1470261457573214,-0.227783,0.400146,0.806335,-0.371155
1470261457595734,-0.227783,0.400208,0.806335,-0.371155
1470261457617254,-0.227783,0.400146,0.806335,-0.371155
1470261457632771,-0.227783,0.400208,0.806335,-0.371155
1470261457655789,-0.227844,0.400208,0.806274,-0.371216
1470261457684316,-0.228088,0.40033,0.806152,-0.371277
1470261457693321,-0.22821,0.400208,0.806091,-0.371338
1470261457715843,-0.228149,0.400208,0.806091,-0.371399
1470261457738362,-0.228149,0.400208,0.806091,-0.371399
1470261457753376,-0.228088,0.400208,0.806091,-0.371399
1470261457775896,-0.228088,0.400208,0.806152,-0.371399
1470261457798419,-0.228088,0.400208,0.806152,-0.371399
1470261457803921,-0.228027,0.400208,0.806152,-0.371399
1470261457819936,-0.22821,0.40033,0.805969,-0.371521
1470261457841454,-0.228271,0.40033,0.805908,-0.371643
1470261457863975,-0.228271,0.400208,0.805847,-0.371887
1470261457880491,-0.228271,0.400146,0.805786,-0.37207
1470261457901508,-0.228455,0.400146,0.805664,-0.372192
1470261457923586,-0.228699,0.400085,0.805542,-0.372498
1470261457940043,-0.228821,0.399902,0.805481,-0.372742
1470261457961078,-0.228943,0.399719,0.805481,-0.372864
1470261457983584,-0.228943,0.399597,0.805481,-0.372925
1470261458000098,-0.228821,0.399414,0.805603,-0.372986
1470261458021116,-0.228699,0.399292,0.805664,-0.372986
1470261458043637,-0.228638,0.399292,0.805725,-0.372986
1470261458061654,-0.228638,0.399292,0.805725,-0.372986
1470261458081172,-0.228638,0.399292,0.805664,-0.372986
1470261458103690,-0.228516,0.39917,0.805786,-0.372986
1470261458120206,-0.228516,0.39917,0.805786,-0.372986
1470261458141224,-0.228455,0.39917,0.805786,-0.373047
1470261458163746,-0.228455,0.39917,0.805786,-0.373047
1470261458180262,-0.228455,0.39917,0.805786,-0.373047
1470261458208786,-0.228394,0.39917,0.805786,-0.373047
1470261458223799,-0.228394,0.39917,0.805786,-0.373047
1470261458241815,-0.228333,0.39917,0.805786,-0.373108
1470261458261331,-0.228333,0.39917,0.805786,-0.373108
1470261458291860,-0.228394,0.399292,0.805725,-0.373047
1470261458300366,-0.228394,0.399353,0.805725,-0.373047
1470261458328892,-0.228394,0.399353,0.805725,-0.373047
1470261458343906,-0.22821,0.399109,0.805847,-0.373047
1470261458359945,-0.228271,0.399231,0.805786,-0.372986
1470261458381440,-0.228394,0.399475,0.805664,-0.372925
1470261458406983,-0.228394,0.399536,0.805664,-0.372925
1470261458420008,-0.228149,0.399292,0.805847,-0.372986
1470261458441512,-0.227966,0.39917,0.805969,-0.372986
1470261458464015,-0.227905,0.39917,0.805969,-0.372986
1470261458480029,-0.227905,0.39917,0.805969,-0.372986
1470261458504050,-0.227661,0.39917,0.806091,-0.372925
1470261458526570,-0.227417,0.398926,0.806274,-0.372925
1470261458541584,-0.227234,0.398682,0.806458,-0.372864
1470261458562102,-0.227234,0.398682,0.806458,-0.372864
1470261458583621,-0.227417,0.398743,0.806335,-0.372986
1470261458607645,-0.227478,0.398682,0.806213,-0.373169
1470261458624158,-0.227478,0.398621,0.806152,-0.373352
1470261458643675,-0.227539,0.39856,0.806091,-0.373596
1470261458661691,-0.227661,0.398621,0.805969,-0.373718
1470261458682713,-0.227844,0.398804,0.805786,-0.373718
1470261458703729,-0.227844,0.398804,0.805786,-0.373718
1470261458721746,-0.227783,0.398804,0.805786,-0.373718
1470261458755276,-0.227905,0.399109,0.805725,-0.373657
1470261458764786,-0.227905,0.399231,0.805603,-0.373596
1470261458781801,-0.227905,0.399231,0.805603,-0.373657
1470261458801318,-0.227905,0.39917,0.805603,-0.37384
1470261458823836,-0.227966,0.39917,0.805481,-0.373962
1470261458841853,-0.228088,0.399292,0.80542,-0.373901
1470261458861371,-0.22821,0.399414,0.805359,-0.37384
1470261458883892,-0.228333,0.399658,0.805237,-0.373779
1470261458901909,-0.228333,0.399658,0.805237,-0.373779
1470261458921424,-0.228333,0.399658,0.805237,-0.373779
1470261458943944,-0.228271,0.399658,0.805237,-0.373779
1470261458961460,-0.228271,0.399719,0.805237,-0.37384
1470261458981480,-0.22821,0.399658,0.805237,-0.37384
1470261459003999,-0.22821,0.399597,0.805176,-0.374023
1470261459021514,-0.22821,0.399475,0.805115,-0.374268
1470261459044536,-0.228333,0.399353,0.805054,-0.374451
1470261459063559,-0.228455,0.399536,0.804932,-0.374451
1470261459082070,-0.228577,0.400024,0.804749,-0.374329
1470261459101095,-0.228699,0.400513,0.804565,-0.374146
1470261459123607,-0.228699,0.400513,0.804565,-0.374146
1470261459141624,-0.228699,0.400513,0.804565,-0.374146
1470261459161641,-0.228638,0.400452,0.804565,-0.374146
1470261459183660,-0.228577,0.400818,0.804382,-0.374146
1470261459201679,-0.228577,0.400818,0.804382,-0.374207
1470261459222695,-0.228577,0.400818,0.804382,-0.374207
1470261459243715,-0.228516,0.400818,0.804382,-0.374207
1470261459261747,-0.228516,0.400818,0.804382,-0.374207
1470261459282752,-0.228516,0.400818,0.804382,-0.374207
1470261459311277,-0.228577,0.400879,0.804321,-0.374268
1470261459321800,-0.228516,0.40094,0.804321,-0.374268
1470261459342806,-0.228516,0.40094,0.804321,-0.374268
1470261459371328,-0.228516,0.40094,0.804321,-0.374268
1470261459381841,-0.228516,0.40094,0.804321,-0.374268
1470261459404360,-0.228516,0.401123,0.80426,-0.374268
1470261459423877,-0.228455,0.401123,0.80426,-0.374268
1470261459441894,-0.228455,0.401123,0.80426,-0.374268
1470261459469948,-0.228455,0.401123,0.80426,-0.374268
1470261459486933,-0.228455,0.401123,0.80426,-0.374268
1470261459501959,-0.228394,0.401306,0.804138,-0.374329
1470261459524466,-0.228516,0.401489,0.804016,-0.374329
1470261459543983,-0.228516,0.401489,0.804016,-0.374329
1470261459561500,-0.228455,0.401489,0.804016,-0.374329
1470261459584019,-0.228455,0.401489,0.804016,-0.374329
1470261459603537,-0.228394,0.401489,0.804016,-0.374329
1470261459621554,-0.228394,0.401489,0.804016,-0.37439
1470261459644074,-0.228394,0.401489,0.804016,-0.37439
1470261459664093,-0.228394,0.401489,0.804016,-0.37439
1470261459681610,-0.228333,0.401489,0.804016,-0.37439
1470261459704127,-0.228333,0.401489,0.804016,-0.37439
1470261459723645,-0.228333,0.401489,0.804016,-0.37439
1470261459741661,-0.228271,0.401489,0.804016,-0.37439
1470261459764185,-0.228271,0.401489,0.804016,-0.37439
1470261459783698,-0.228271,0.401489,0.804077,-0.374451
1470261459801715,-0.22821,0.401489,0.804016,-0.374451
1470261459824237,-0.22821,0.401489,0.804016,-0.374451
1470261459843753,-0.22821,0.401489,0.804016,-0.374451
1470261459861771,-0.22821,0.401489,0.804016,-0.374451
1470261459884335,-0.228149,0.401489,0.804016,-0.374451
1470261459903866,-0.22821,0.401611,0.803955,-0.374451
1470261459921828,-0.228271,0.401794,0.803894,-0.374451
1470261459944356,-0.228271,0.401917,0.803833,-0.374451
1470261459963862,-0.228333,0.402039,0.803711,-0.374451
1470261459981878,-0.228333,0.402039,0.803711,-0.374451
1470261460004396,-0.228271,0.402039,0.803711,-0.374451
1470261460025416,-0.228271,0.402039,0.803711,-0.374451
1470261460041931,-0.228271,0.4021,0.803711,-0.374512
1470261460064453,-0.228271,0.402161,0.803711,-0.37439
1470261460083969,-0.228394,0.402283,0.80365,-0.374329
1470261460101484,-0.228394,0.402344,0.803589,-0.37439
1470261460124006,-0.228333,0.402344,0.803589,-0.37439
1470261460147026,-0.228333,0.402344,0.803589,-0.37439
1470261460161547,-0.228333,0.402344,0.803589,-0.37439
1470261460190107,-0.228271,0.402344,0.803589,-0.37439
1470261460205080,-0.228271,0.402344,0.803589,-0.374451
1470261460221592,-0.228271,0.402344,0.803589,-0.374451
1470261460244114,-0.228271,0.402344,0.803589,-0.374451
1470261460265634,-0.22821,0.402405,0.803589,-0.374451
1470261460281650,-0.228271,0.402283,0.803711,-0.374329
1470261460304166,-0.22821,0.402283,0.803711,-0.374329
1470261460324685,-0.22821,0.402283,0.803711,-0.374329
1470261460341199,-0.22821,0.402283,0.803711,-0.37439
1470261460363221,-0.228149,0.402283,0.803711,-0.37439
1470261460384240,-0.228149,0.402283,0.803711,-0.37439
1470261460400754,-0.228149,0.402283,0.803711,-0.37439
1470261460430782,-0.228149,0.402283,0.803711,-0.37439
1470261460444795,-0.228149,0.402283,0.803711,-0.37439
1470261460466815,-0.228088,0.402283,0.803711,-0.37439
1470261460483830,-0.22821,0.402466,0.803589,-0.374451
1470261460513357,-0.22821,0.402466,0.803528,-0.374451
1470261460520861,-0.228088,0.402161,0.80365,-0.374573
1470261460550888,-0.228027,0.401978,0.803711,-0.374695
1470261460565901,-0.228027,0.401978,0.803711,-0.374695
1470261460580916,-0.228149,0.4021,0.80365,-0.374634
1470261460603436,-0.228149,0.402161,0.80365,-0.374634
1470261460625955,-0.228149,0.402161,0.80365,-0.374634
1470261460640468,-0.228088,0.402161,0.80365,-0.374695
1470261460663491,-0.228088,0.402161,0.80365,-0.374695
1470261460686009,-0.228149,0.402344,0.803528,-0.374634
1470261460700022,-0.228149,0.402344,0.803528,-0.374634
1470261460723043,-0.228149,0.402344,0.803528,-0.374634
1470261460745563,-0.228088,0.402344,0.803528,-0.374634
1470261460760076,-0.228088,0.402344,0.803528,-0.374634
1470261460783597,-0.228088,0.402344,0.803528,-0.374634
1470261460806116,-0.228088,0.402344,0.803528,-0.374695
1470261460820130,-0.228027,0.402344,0.803528,-0.374695
1470261460843153,-0.228027,0.402405,0.803528,-0.374695
1470261460866172,-0.228027,0.402405,0.803528,-0.374695
1470261460880185,-0.228027,0.402405,0.803528,-0.374695
1470261460903204,-0.227966,0.402405,0.803528,-0.374695
1470261460925727,-0.227966,0.402405,0.803528,-0.374695
1470261460940238,-0.227966,0.402405,0.803528,-0.374756
1470261460963259,-0.227905,0.402405,0.803528,-0.374756
1470261460985778,-0.227905,0.402405,0.803528,-0.374756
1470261461014330,-0.227905,0.402405,0.803528,-0.374756
1470261461024845,-0.227844,0.402405,0.803528,-0.374756
1470261461045832,-0.228088,0.40271,0.803345,-0.374695
1470261461068354,-0.228394,0.403015,0.803223,-0.374451
1470261461083370,-0.228516,0.403137,0.803162,-0.374329
1470261461106387,-0.228516,0.403137,0.803162,-0.374329
1470261461126921,-0.228394,0.402832,0.803345,-0.374329
1470261461143420,-0.228149,0.402649,0.803528,-0.374329
1470261461168443,-0.228088,0.402405,0.80365,-0.374329
1470261461186959,-0.228027,0.402161,0.803833,-0.374329
1470261461203974,-0.227844,0.401978,0.803955,-0.374329
1470261461225994,-0.227783,0.401978,0.803955,-0.374329
1470261461247022,-0.227783,0.401978,0.803955,-0.374329
1470261461263529,-0.227783,0.401978,0.803955,-0.374329
1470261461286049,-0.2276,0.401733,0.804138,-0.374329
1470261461307067,-0.227539,0.401733,0.804138,-0.374329
1470261461323581,-0.227539,0.401733,0.804138,-0.374329
1470261461346102,-0.227478,0.401733,0.804138,-0.37439
1470261461367120,-0.227478,0.401733,0.804138,-0.37439
1470261461383636,-0.227478,0.401733,0.804138,-0.37439
1470261461406156,-0.227478,0.401733,0.804138,-0.37439
1470261461428175,-0.227417,0.401733,0.804138,-0.37439
1470261461443189,-0.227417,0.401733,0.804138,-0.37439
1470261461465709,-0.227417,0.401733,0.804138,-0.37439
1470261461488232,-0.227356,0.401733,0.804199,-0.37439
1470261461503244,-0.227356,0.401733,0.804199,-0.374451
1470261461525798,-0.227356,0.401733,0.804199,-0.374451
1470261461550287,-0.227295,0.401733,0.804138,-0.374451
1470261461562796,-0.227295,0.401733,0.804199,-0.374451
1470261461585817,-0.227295,0.401733,0.804199,-0.374451
1470261461608337,-0.227234,0.401733,0.804199,-0.374512
1470261461622850,-0.227234,0.401733,0.804199,-0.374512
1470261461653407,-0.227234,0.401733,0.804199,-0.374512
1470261461674400,-0.227173,0.401733,0.804199,-0.374512
1470261461682907,-0.227234,0.401855,0.804138,-0.374451
1470261461705925,-0.227234,0.401855,0.804138,-0.374451
1470261461735952,-0.227173,0.401855,0.804138,-0.374451
1470261461742957,-0.227173,0.401855,0.804138,-0.374451
1470261461768483,-0.227173,0.401855,0.804138,-0.374451
1470261461788500,-0.227173,0.401855,0.804138,-0.374451
1470261461802513,-0.227112,0.401855,0.804138,-0.374451
1470261461826032,-0.227112,0.401855,0.804138,-0.374512
1470261461848055,-0.227051,0.401855,0.804138,-0.374512
1470261461862566,-0.227051,0.401794,0.804199,-0.374512
1470261461886087,-0.22699,0.401794,0.804199,-0.374512
1470261461908606,-0.22699,0.401855,0.804199,-0.374512
1470261461929125,-0.22699,0.401855,0.804199,-0.374573
1470261461945640,-0.226929,0.401855,0.804199,-0.374573
1470261461968660,-0.226929,0.401794,0.804199,-0.374573
1470261461989679,-0.226929,0.401794,0.804199,-0.374573
1470261462006194,-0.22699,0.401855,0.804138,-0.374573
1470261462028215,-0.227112,0.401917,0.804016,-0.374756
1470261462049238,-0.227112,0.401917,0.804016,-0.374756
1470261462066249,-0.227295,0.402039,0.803894,-0.374756
1470261462088268,-0.227539,0.402283,0.80365,-0.374817
1470261462109288,-0.227844,0.40271,0.803406,-0.374695
1470261462131816,-0.228088,0.403015,0.803223,-0.374634
1470261462148324,-0.228271,0.403137,0.80304,-0.374756
1470261462176906,-0.228394,0.403198,0.802917,-0.374878
1470261462185856,-0.228638,0.403259,0.802795,-0.375
1470261462214885,-0.22876,0.403259,0.802612,-0.375244
1470261462229409,-0.228943,0.403137,0.80249,-0.375549
1470261462245910,-0.229187,0.402954,0.802368,-0.375854
1470261462268931,-0.229431,0.403015,0.802185,-0.375977
1470261462289449,-0.229614,0.403076,0.802124,-0.376038
1470261462305984,-0.229553,0.403076,0.802124,-0.376038
1470261462328483,-0.229736,0.403015,0.802063,-0.376038
1470261462351003,-0.229858,0.402771,0.802063,-0.376282
1470261462372024,-0.229797,0.402283,0.802185,-0.376587
1470261462388538,-0.229797,0.402039,0.802246,-0.37677
1470261462411058,-0.229797,0.401733,0.802307,-0.376953
1470261462426101,-0.229736,0.401428,0.802307,-0.377319
1470261462448593,-0.229797,0.401062,0.802368,-0.377502
1470261462471112,-0.229858,0.400757,0.802429,-0.377625
1470261462485625,-0.229858,0.400391,0.802551,-0.377869
1470261462508645,-0.229736,0.400024,0.802673,-0.377991
1470261462531167,-0.229553,0.399597,0.802856,-0.378174
1470261462545178,-0.229309,0.398987,0.803162,-0.378296
1470261462568200,-0.229065,0.398376,0.803406,-0.37854
1470261462590719,-0.228943,0.397705,0.803711,-0.378723
1470261462605232,-0.228821,0.397217,0.803955,-0.378784
1470261462628253,-0.228699,0.39679,0.804199,-0.378845
1470261462650773,-0.228577,0.396179,0.804504,-0.378906
1470261462665286,-0.228394,0.395752,0.804749,-0.378906
1470261462688307,-0.228149,0.395386,0.804932,-0.379089
1470261462710829,-0.228271,0.395081,0.804993,-0.379089
1470261462725340,-0.228333,0.394958,0.805054,-0.379089
1470261462748365,-0.228271,0.394653,0.805176,-0.37915
1470261462770881,-0.228333,0.394531,0.805237,-0.379211
1470261462785394,-0.228271,0.394531,0.805237,-0.379211
1470261462808415,-0.228271,0.394531,0.805237,-0.379211
1470261462830936,-0.228271,0.394287,0.805359,-0.379211
1470261462845448,-0.22821,0.394287,0.805359,-0.379211
1470261462868471,-0.228333,0.394104,0.805359,-0.379333
1470261462890988,-0.228516,0.393982,0.805359,-0.379395
1470261462912008,-0.228455,0.393982,0.805298,-0.379456
1470261462928523,-0.228455,0.393982,0.805298,-0.379456
1470261462951044,-0.228455,0.394043,0.805298,-0.379456
1470261462972091,-0.228394,0.393982,0.805359,-0.379456
1470261462988576,-0.228394,0.393982,0.805359,-0.379456
1470261463011096,-0.228394,0.393982,0.805359,-0.379456
1470261463032115,-0.228333,0.393982,0.805359,-0.379517
1470261463048631,-0.228455,0.39386,0.805359,-0.379578
1470261463070650,-0.228394,0.39386,0.805359,-0.379578
1470261463093176,-0.228394,0.393921,0.805359,-0.379578
1470261463108184,-0.228333,0.393677,0.80542,-0.379639
1470261463131206,-0.228333,0.393677,0.80542,-0.379639
1470261463159733,-0.228333,0.393677,0.80542,-0.379639
1470261463168238,-0.228638,0.394226,0.805115,-0.379517
1470261463190757,-0.229492,0.395874,0.80426,-0.379089
1470261463211776,-0.230103,0.397278,0.803589,-0.378662
1470261463228294,-0.230469,0.398376,0.80304,-0.37854
1470261463250813,-0.230713,0.398804,0.802734,-0.37854
1470261463272340,-0.230835,0.398926,0.802673,-0.378479
1470261463288345,-0.23114,0.399353,0.80249,-0.378235
1470261463310903,-0.232117,0.400879,0.801758,-0.377563
1470261463333391,-0.233887,0.403687,0.800293,-0.376587
1470261463347901,-0.235413,0.405701,0.799133,-0.375916
1470261463370920,-0.237305,0.407288,0.798096,-0.375244
1470261463393440,-0.239258,0.408081,0.797485,-0.374451
1470261463407952,-0.240723,0.408203,0.796997,-0.374512
1470261463430976,-0.24115,0.406921,0.797302,-0.374878
1470261463453069,-0.24115,0.406067,0.797485,-0.375366
1470261463468507,-0.241028,0.405823,0.797729,-0.375244
1470261463491029,-0.241272,0.407654,0.796997,-0.374634
1470261463513549,-0.241699,0.410034,0.796143,-0.373535
1470261463536068,-0.241333,0.411255,0.796021,-0.372742
1470261463551081,-0.240112,0.411194,0.796631,-0.372375
1470261463573602,-0.238831,0.410461,0.797424,-0.372253
1470261463587614,-0.237976,0.410034,0.798096,-0.371826
1470261463610637,-0.23761,0.410095,0.798401,-0.371399
1470261463633157,-0.237427,0.409851,0.798645,-0.371216
1470261463647670,-0.237183,0.409302,0.799072,-0.371094
1470261463678196,-0.236938,0.408752,0.799622,-0.370605
1470261463693209,-0.236755,0.40863,0.799927,-0.370239
1470261463707722,-0.236694,0.408203,0.800232,-0.369995
1470261463731246,-0.236511,0.407471,0.800598,-0.370117
1470261463753263,-0.236206,0.406128,0.801025,-0.370911
1470261463767777,-0.235718,0.404236,0.801697,-0.371826
1470261463790799,-0.235291,0.403015,0.802246,-0.372253
1470261463813316,-0.235046,0.401978,0.802856,-0.372192
1470261463827830,-0.235168,0.401611,0.803223,-0.371826
1470261463850851,-0.235352,0.40155,0.803345,-0.371399
1470261463880880,-0.234924,0.401001,0.803833,-0.371216
1470261463894424,-0.234436,0.400146,0.804443,-0.371094
1470261463910909,-0.234131,0.399475,0.804932,-0.371033
1470261463933425,-0.234009,0.398865,0.805298,-0.370972
1470261463954445,-0.233948,0.398193,0.805664,-0.370911
1470261463970959,-0.23407,0.397827,0.805847,-0.370789
1470261463993479,-0.234131,0.397461,0.806091,-0.370728
1470261464014499,-0.234192,0.397217,0.806152,-0.370728
1470261464031014,-0.234314,0.396912,0.806396,-0.370483
1470261464053533,-0.234436,0.396973,0.806396,-0.3703
1470261464074566,-0.234619,0.397278,0.806335,-0.370056
1470261464091076,-0.234924,0.397583,0.806152,-0.369873
1470261464113588,-0.234924,0.397644,0.806152,-0.369873
1470261464134606,-0.234924,0.397644,0.806152,-0.369873
1470261464151120,-0.234802,0.397888,0.806091,-0.36969
1470261464173640,-0.234436,0.39801,0.806213,-0.369629
1470261464194659,-0.234436,0.39801,0.806213,-0.369629
1470261464210674,-0.234375,0.397949,0.806213,-0.369629
1470261464233196,-0.234314,0.397949,0.806213,-0.36969
1470261464254769,-0.234314,0.397949,0.806274,-0.36969
1470261464270727,-0.234253,0.397644,0.806274,-0.369934
1470261464293250,-0.234192,0.397278,0.806335,-0.370239
1470261464315769,-0.23407,0.397095,0.806335,-0.370544
1470261464331286,-0.234131,0.39679,0.806396,-0.370728
1470261464353302,-0.234131,0.396362,0.806458,-0.371033
1470261464375822,-0.234253,0.395935,0.806396,-0.371582
1470261464398344,-0.234497,0.395569,0.806274,-0.372131
1470261464413857,-0.23468,0.395386,0.806091,-0.372559
1470261464435880,-0.234802,0.395264,0.805969,-0.372864
1470261464450392,-0.234741,0.395264,0.805908,-0.373047
1470261464480919,-0.234619,0.395203,0.805908,-0.373169
1470261464495929,-0.234314,0.395142,0.805908,-0.373352
1470261464510442,-0.233948,0.394958,0.80603,-0.373535
1470261464533464,-0.233582,0.394897,0.806091,-0.373779
1470261464555484,-0.233154,0.394836,0.806152,-0.373962
1470261464570497,-0.232666,0.394836,0.806152,-0.374207
1470261464593518,-0.232117,0.394714,0.806274,-0.37439
1470261464624046,-0.231628,0.39447,0.806458,-0.374573
1470261464637057,-0.231079,0.39447,0.806641,-0.374634
1470261464653572,-0.230713,0.394409,0.806702,-0.374695
1470261464676091,-0.230225,0.394165,0.806885,-0.374878
1470261464690104,-0.22998,0.393799,0.807007,-0.375183
1470261464713627,-0.229858,0.393616,0.806946,-0.375488
1470261464735644,-0.229797,0.393616,0.807007,-0.375488
1470261464750158,-0.229736,0.393494,0.806885,-0.375854
1470261464773179,-0.229614,0.393188,0.806885,-0.376221
1470261464795698,-0.229492,0.392944,0.806946,-0.376526
1470261464817217,-0.229431,0.3927,0.806885,-0.376831
1470261464833734,-0.22937,0.392578,0.806763,-0.377258
1470261464855756,-0.229309,0.392456,0.806702,-0.377625
1470261464877272,-0.229187,0.392212,0.806641,-0.378113
1470261464893309,-0.229065,0.392029,0.80658,-0.37854
1470261464915808,-0.229004,0.39209,0.806396,-0.378845
1470261464938344,-0.228821,0.39209,0.806335,-0.379089
1470261464953352,-0.228516,0.391968,0.806335,-0.379395
1470261464975861,-0.228333,0.391968,0.806274,-0.379578
1470261464997382,-0.228088,0.392029,0.806213,-0.379822
1470261465013395,-0.227783,0.392029,0.806152,-0.380127
1470261465035942,-0.227478,0.39209,0.806091,-0.38031
1470261465056936,-0.227112,0.392029,0.806152,-0.380615
1470261465073448,-0.226685,0.391907,0.806152,-0.38092
1470261465095969,-0.226257,0.392029,0.806152,-0.381042
1470261465116989,-0.225952,0.392151,0.806213,-0.38092
1470261465134007,-0.225769,0.392578,0.806152,-0.380798
1470261465156023,-0.22583,0.392822,0.80603,-0.380676
1470261465177041,-0.22583,0.392822,0.806091,-0.380676
1470261465193556,-0.22583,0.392761,0.806091,-0.380676
1470261465216081,-0.225769,0.392822,0.806091,-0.380737
1470261465238597,-0.225708,0.392822,0.806091,-0.380737
1470261465253642,-0.225708,0.392822,0.80603,-0.380737
1470261465276131,-0.225769,0.392883,0.805908,-0.38092
1470261465298653,-0.225769,0.392883,0.805908,-0.38092
1470261465313665,-0.225891,0.392883,0.805786,-0.381226
1470261465335684,-0.226074,0.392822,0.805603,-0.381531
1470261465358204,-0.226318,0.392944,0.805359,-0.381775
1470261465373217,-0.226257,0.393066,0.805176,-0.382019
1470261465395738,-0.226257,0.393066,0.805176,-0.382019
1470261465418260,-0.226196,0.393127,0.805176,-0.38208
1470261465432771,-0.226135,0.393127,0.805176,-0.38208
1470261465455793,-0.226135,0.393127,0.805176,-0.38208
1470261465478313,-0.226135,0.393127,0.805176,-0.38208
1470261465508339,-0.225952,0.393005,0.805298,-0.382019
1470261465515849,-0.225586,0.392761,0.805542,-0.382019
1470261465546373,-0.225098,0.392456,0.805725,-0.382202
1470261465554381,-0.224976,0.392761,0.805664,-0.382141
1470261465576401,-0.22522,0.393433,0.80542,-0.381775
1470261465581406,-0.225525,0.393616,0.80542,-0.381409
1470261465603925,-0.225647,0.393494,0.805542,-0.381287
1470261465620439,-0.225586,0.393494,0.805542,-0.381287
1470261465648966,-0.225891,0.393616,0.805298,-0.38147
1470261465663981,-0.22644,0.394043,0.804932,-0.38147
1470261465682498,-0.22699,0.394348,0.804504,-0.381653
1470261465703014,-0.227661,0.394226,0.804382,-0.381653
1470261465724032,-0.227905,0.394043,0.804321,-0.381836
1470261465741549,-0.227844,0.394104,0.804321,-0.381836
1470261465761567,-0.227844,0.394165,0.804321,-0.381836
1470261465783588,-0.227783,0.394165,0.80426,-0.381897
1470261465800605,-0.227905,0.39447,0.804199,-0.381714
1470261465821119,-0.228027,0.394897,0.804077,-0.381409
1470261465843640,-0.227966,0.39502,0.804199,-0.380981
1470261465860155,-0.227905,0.39502,0.804443,-0.380554
1470261465881195,-0.2276,0.394958,0.804749,-0.380127
1470261465904266,-0.227356,0.394958,0.804932,-0.379883
1470261465920209,-0.227173,0.395325,0.804932,-0.3797
1470261465941243,-0.226929,0.39563,0.804932,-0.379517
1470261465964751,-0.227051,0.395691,0.805054,-0.379089
1470261465981265,-0.227295,0.395508,0.805237,-0.378723
1470261466001784,-0.227539,0.395264,0.805359,-0.378723
1470261466023801,-0.227722,0.39502,0.805359,-0.378784
1470261466040317,-0.228149,0.395142,0.805298,-0.37854
1470261466061336,-0.228577,0.395325,0.805237,-0.378235
1470261466083855,-0.228943,0.395264,0.805237,-0.378052
1470261466101872,-0.229004,0.394836,0.805481,-0.377991
1470261466121391,-0.229065,0.394531,0.805603,-0.37793
1470261466146912,-0.229126,0.394531,0.805664,-0.377869
1470261466160424,-0.22937,0.394775,0.805481,-0.377747
1470261466181444,-0.22937,0.394836,0.805481,-0.377747
1470261466203964,-0.229126,0.39502,0.805481,-0.377686
1470261466229487,-0.22876,0.395264,0.805542,-0.377502
1470261466241497,-0.228638,0.39563,0.805542,-0.377197
1470261466264018,-0.228394,0.395813,0.805664,-0.37677
1470261466282035,-0.228027,0.395813,0.805969,-0.376404
1470261466301578,-0.227661,0.395874,0.806213,-0.376038
1470261466324101,-0.227356,0.395874,0.806396,-0.375793
1470261466342100,-0.22699,0.395996,0.806519,-0.375671
1470261466361127,-0.226746,0.396179,0.80658,-0.375549
1470261466383624,-0.226685,0.396484,0.806519,-0.375427
1470261466401642,-0.226685,0.396729,0.806274,-0.37561
1470261466424665,-0.227112,0.397644,0.805725,-0.37561
1470261466443782,-0.227722,0.39917,0.804871,-0.375366
1470261466462225,-0.228577,0.400452,0.804138,-0.375122
1470261466481217,-0.228882,0.400757,0.803894,-0.375122
1470261466505234,-0.22876,0.400574,0.803894,-0.375427
1470261466521749,-0.228638,0.40033,0.803955,-0.37561
1470261466541268,-0.228638,0.400818,0.80365,-0.375793
1470261466563788,-0.228699,0.401428,0.803284,-0.375854
1470261466582307,-0.228516,0.401794,0.803101,-0.376038
1470261466601322,-0.228271,0.402039,0.802917,-0.376221
1470261466623840,-0.228088,0.402283,0.802795,-0.376343
1470261466641857,-0.228088,0.40271,0.802551,-0.376343
1470261466661380,-0.228271,0.403259,0.802246,-0.376404
1470261466683894,-0.228516,0.403625,0.80188,-0.376587
1470261466701910,-0.228577,0.404114,0.801514,-0.376831
1470261466721429,-0.228516,0.404419,0.801208,-0.377197
1470261466743951,-0.228516,0.40448,0.800964,-0.377563
1470261466761971,-0.228455,0.404297,0.800964,-0.37793
1470261466781492,-0.228333,0.404114,0.800842,-0.378357
1470261466804004,-0.228577,0.403931,0.800659,-0.378723
1470261466822019,-0.228699,0.403809,0.800537,-0.37915
1470261466850045,-0.228821,0.403687,0.800354,-0.379578
1470261466867560,-0.228821,0.403442,0.800354,-0.379883
1470261466882079,-0.228699,0.403259,0.800354,-0.380127
1470261466902592,-0.228577,0.403015,0.800293,-0.380493
1470261466931118,-0.228577,0.402954,0.800171,-0.380859
1470261466942146,-0.228394,0.402771,0.80011,-0.381287
1470261466964148,-0.228333,0.402893,0.799927,-0.381592
1470261466984163,-0.228271,0.403137,0.799744,-0.381775
1470261467001680,-0.228333,0.403625,0.799438,-0.381775
1470261467022703,-0.228271,0.404053,0.799255,-0.381836
1470261467043719,-0.228271,0.404053,0.799255,-0.381836
1470261467061734,-0.228271,0.404053,0.799255,-0.381836
1470261467082756,-0.22821,0.404053,0.799255,-0.381897
1470261467103773,-0.22821,0.404053,0.799255,-0.381897
1470261467129296,-0.22821,0.404053,0.799255,-0.381897
1470261467144309,-0.228027,0.403931,0.799255,-0.382019
1470261467163827,-0.227844,0.403687,0.799377,-0.382263
1470261467181844,-0.227844,0.403687,0.799377,-0.382263
1470261467204364,-0.227783,0.403687,0.799377,-0.382263
1470261467223879,-0.227905,0.403625,0.799255,-0.382568
1470261467241896,-0.228394,0.403381,0.798828,-0.383301
1470261467264420,-0.229126,0.403076,0.798523,-0.383911
1470261467286935,-0.22937,0.40271,0.798462,-0.384216
1470261467301949,-0.229553,0.402588,0.798401,-0.384338
1470261467324469,-0.229858,0.402954,0.798279,-0.384094
1470261467343987,-0.230042,0.403442,0.798096,-0.38385
1470261467362056,-0.230469,0.403931,0.797852,-0.383606
1470261467391530,-0.230896,0.404419,0.797485,-0.383484
1470261467404041,-0.231201,0.404846,0.797241,-0.383484
1470261467422057,-0.231384,0.405151,0.797058,-0.383484
1470261467444077,-0.231567,0.405579,0.796753,-0.383362
1470261467464097,-0.23175,0.406128,0.79657,-0.383179
1470261467486615,-0.23175,0.406921,0.796143,-0.383179
1470261467504131,-0.23175,0.407471,0.795837,-0.383179
1470261467523649,-0.23175,0.407471,0.795837,-0.383179
1470261467541664,-0.231506,0.407532,0.795837,-0.383423
1470261467564188,-0.23114,0.407532,0.795776,-0.383667
1470261467584703,-0.230957,0.407776,0.795532,-0.384033
1470261467601719,-0.230774,0.408264,0.795105,-0.384521
1470261467624241,-0.231262,0.408325,0.794373,-0.38562
1470261467645759,-0.233337,0.408142,0.793091,-0.387329
1470261467661773,-0.234924,0.408752,0.791931,-0.388
1470261467684293,-0.235474,0.408997,0.791382,-0.38855
1470261467703810,-0.235779,0.409546,0.790833,-0.388855
1470261467721826,-0.235962,0.410583,0.790161,-0.389038
1470261467744346,-0.236145,0.411621,0.789612,-0.389038
1470261467767369,-0.236267,0.412781,0.78894,-0.388977
1470261467782383,-0.236145,0.413818,0.788452,-0.388977
1470261467804401,-0.235596,0.414246,0.78833,-0.38916
1470261467825420,-0.234985,0.414612,0.788208,-0.389282
1470261467841969,-0.234436,0.415161,0.788086,-0.389343
1470261467864455,-0.233948,0.415405,0.788086,-0.389343
1470261467885473,-0.233337,0.415894,0.787964,-0.389343
1470261467901987,-0.232544,0.416199,0.787964,-0.389587
1470261467924538,-0.231934,0.416199,0.788086,-0.389648
1470261467945027,-0.231812,0.416565,0.787964,-0.389648
1470261467962042,-0.231628,0.416565,0.787842,-0.390015
1470261467984563,-0.23175,0.416565,0.787598,-0.390381
1470261468006582,-0.232422,0.41687,0.787109,-0.390564
1470261468021595,-0.233032,0.416748,0.786865,-0.390991
1470261468044116,-0.233582,0.416748,0.786499,-0.391357
1470261468065136,-0.234131,0.416809,0.786011,-0.391907
1470261468081652,-0.234802,0.416565,0.785645,-0.392578
1470261468103169,-0.235901,0.416443,0.784973,-0.393372
1470261468126190,-0.236816,0.416504,0.784363,-0.393921
1470261468147208,-0.23761,0.41687,0.783813,-0.394226
1470261468163722,-0.238159,0.417419,0.783264,-0.394287
1470261468186243,-0.238403,0.417786,0.782959,-0.394348
1470261468207271,-0.238708,0.418213,0.782715,-0.394348
1470261468223276,-0.238953,0.419006,0.782349,-0.393982
1470261468245797,-0.239624,0.420593,0.781555,-0.393433
1470261468267316,-0.240906,0.422668,0.780457,-0.392578
1470261468283332,-0.242004,0.424255,0.779541,-0.392029
1470261468306851,-0.243103,0.425354,0.77887,-0.391602
1470261468320364,-0.243896,0.426025,0.778442,-0.391113
1470261468343385,-0.24469,0.426575,0.778076,-0.390808
1470261468365906,-0.246155,0.427734,0.777161,-0.390442
1470261468386924,-0.24823,0.429504,0.776001,-0.389404
1470261468403439,-0.251526,0.433472,0.773438,-0.388
1470261468425959,-0.254028,0.434692,0.772034,-0.387817
1470261468446977,-0.25708,0.434143,0.771301,-0.387878
1470261468463492,-0.258911,0.432068,0.771851,-0.388
1470261468486012,-0.260864,0.432556,0.769287,-0.391174
1470261468507032,-0.263184,0.43396,0.764343,-0.397705
1470261468523546,-0.267517,0.437256,0.756348,-0.406433
1470261468548069,-0.273315,0.441833,0.745667,-0.417236
1470261468567090,-0.278748,0.443726,0.735596,-0.42926
1470261468583605,-0.284241,0.444641,0.725647,-0.441528
1470261468606120,-0.289978,0.44635,0.715942,-0.451721
1470261468644154,-0.295959,0.448181,0.707397,-0.459412
1470261468646156,-0.300781,0.44812,0.701477,-0.465332
1470261468666175,-0.304016,0.446228,0.698608,-0.469421
1470261468688695,-0.304871,0.443542,0.69873,-0.471252
1470261468717222,-0.305176,0.442261,0.699707,-0.470825
1470261468726227,-0.305603,0.441406,0.701538,-0.468689
1470261468747247,-0.305115,0.440247,0.705017,-0.464783
1470261468764765,-0.302856,0.438721,0.710327,-0.459595
1470261468786282,-0.299194,0.4375,0.716736,-0.453125
1470261468807301,-0.294922,0.437012,0.72345,-0.445679
1470261468823316,-0.290039,0.435791,0.73053,-0.438477
1470261468845836,-0.285461,0.433105,0.737976,-0.431641
1470261468867357,-0.281982,0.429626,0.745178,-0.424927
1470261468882870,-0.279907,0.426941,0.751465,-0.417908
1470261468905889,-0.278992,0.425842,0.756531,-0.4104
1470261468926908,-0.278381,0.425415,0.760681,-0.403503
1470261468942922,-0.277893,0.424744,0.763855,-0.398621
1470261468965945,-0.276794,0.424072,0.765381,-0.397095
1470261468994470,-0.272766,0.420288,0.767883,-0.399109
1470261469002976,-0.27179,0.41864,0.769104,-0.39917
1470261469033505,-0.272766,0.418762,0.769226,-0.398071
1470261469049021,-0.272766,0.417358,0.770264,-0.397522
1470261469063031,-0.270935,0.415649,0.771484,-0.398254
1470261469086051,-0.270081,0.415894,0.771423,-0.398682
1470261469116081,-0.270447,0.415955,0.771179,-0.398865
1470261469123083,-0.269714,0.415405,0.771545,-0.399231
1470261469153612,-0.267822,0.414185,0.772644,-0.399658
1470261469168626,-0.265747,0.412842,0.773926,-0.399963
1470261469183638,-0.263489,0.411499,0.775146,-0.400391
1470261469206159,-0.261902,0.411255,0.775879,-0.400391
1470261469228679,-0.261475,0.412048,0.775879,-0.39978
1470261469242692,-0.261475,0.412964,0.775757,-0.399109
1470261469266214,-0.261292,0.413452,0.775635,-0.398865
1470261469288733,-0.260925,0.413818,0.775696,-0.398621
1470261469302746,-0.260498,0.414185,0.775818,-0.398438
1470261469333273,-0.26001,0.414673,0.775879,-0.398071
1470261469349290,-0.259644,0.415344,0.775818,-0.397644
1470261469362799,-0.259277,0.415894,0.775696,-0.397522
1470261469393327,-0.258789,0.416016,0.775879,-0.3974
1470261469408341,-0.258545,0.416321,0.77594,-0.397217
1470261469422853,-0.25824,0.416443,0.776062,-0.396973
1470261469445874,-0.257935,0.416443,0.776123,-0.396973
1470261469475901,-0.25769,0.416626,0.776062,-0.397095
1470261469482912,-0.257263,0.416626,0.776123,-0.397217
1470261469505928,-0.256836,0.416504,0.776306,-0.3974
1470261469528449,-0.256775,0.416443,0.776306,-0.3974
1470261469552973,-0.256836,0.416687,0.776123,-0.397522
1470261469565986,-0.256775,0.416931,0.775818,-0.397827
1470261469588502,-0.256653,0.416687,0.775757,-0.398376
1470261469609521,-0.256104,0.415955,0.776001,-0.398987
1470261469626536,-0.255981,0.415649,0.776062,-0.399231
1470261469648559,-0.256226,0.415527,0.776001,-0.399414
1470261469671577,-0.256287,0.415283,0.776001,-0.399536
1470261469686090,-0.256226,0.4151,0.776001,-0.39978
1470261469708610,-0.256165,0.414551,0.776062,-0.400208
1470261469729629,-0.256104,0.414063,0.776184,-0.400574
1470261469746144,-0.256165,0.414001,0.776001,-0.40094
1470261469768663,-0.256226,0.413513,0.776062,-0.401367
1470261469790184,-0.256348,0.413086,0.776062,-0.401672
1470261469806197,-0.256531,0.413208,0.77594,-0.401672
1470261469828218,-0.256592,0.413696,0.775696,-0.40155
1470261469849740,-0.256714,0.414185,0.775391,-0.401611
1470261469873258,-0.256531,0.414124,0.77533,-0.401917
1470261469902786,-0.256531,0.414124,0.77533,-0.401978
1470261469909790,-0.256531,0.414124,0.775269,-0.401978
1470261469926305,-0.256287,0.414001,0.77533,-0.402222
1470261469948328,-0.256042,0.413879,0.775269,-0.402588
1470261469969344,-0.256042,0.414124,0.775085,-0.40271
1470261469985859,-0.255737,0.414185,0.775024,-0.402893
1470261470008380,-0.255188,0.414063,0.775146,-0.403198
1470261470031402,-0.254639,0.413879,0.775269,-0.403442
1470261470045913,-0.254333,0.413757,0.77533,-0.403625
1470261470068434,-0.253967,0.413452,0.775574,-0.403748
1470261470090954,-0.253357,0.412842,0.77594,-0.404053
1470261470113978,-0.253113,0.412537,0.776062,-0.404297
1470261470128489,-0.253296,0.412476,0.77594,-0.40448
1470261470151007,-0.253906,0.412354,0.775635,-0.404785
1470261470165521,-0.254883,0.412659,0.775146,-0.404785
1470261470194546,-0.255737,0.412964,0.77478,-0.404663
1470261470211061,-0.256409,0.413269,0.774536,-0.404419
1470261470225573,-0.256775,0.413757,0.774292,-0.404175
1470261470256102,-0.256897,0.414246,0.774109,-0.40387
1470261470271115,-0.257019,0.414612,0.774048,-0.403503
1470261470285628,-0.256897,0.414795,0.774231,-0.403137
1470261470309149,-0.256653,0.414978,0.774414,-0.402771
1470261470331170,-0.256226,0.4151,0.774658,-0.402405
1470261470345182,-0.255676,0.4151,0.775024,-0.402039
1470261470368702,-0.255066,0.415161,0.77533,-0.401733
1470261470398731,-0.254517,0.415161,0.775574,-0.401611
1470261470419749,-0.253967,0.415039,0.77594,-0.401428
1470261470428256,-0.25354,0.415039,0.776184,-0.401184
1470261470450777,-0.253052,0.414978,0.776489,-0.401001
1470261470472296,-0.253235,0.414978,0.776428,-0.40094
1470261470488310,-0.254395,0.415039,0.776062,-0.400879
1470261470510830,-0.255432,0.415344,0.775696,-0.400635
1470261470533852,-0.256592,0.416199,0.775146,-0.400085
1470261470561876,-0.257813,0.417053,0.774719,-0.39917
1470261470570884,-0.25946,0.418701,0.773987,-0.397888
1470261470591903,-0.261353,0.421021,0.772888,-0.39624
1470261470616428,-0.263245,0.423584,0.771729,-0.394531
1470261470630939,-0.265137,0.42627,0.770447,-0.392944
1470261470653459,-0.26825,0.430664,0.768005,-0.390808
1470261470668471,-0.272522,0.43512,0.764954,-0.388794
1470261470699003,-0.277161,0.439331,0.761536,-0.387573
1470261470712011,-0.280518,0.441162,0.758484,-0.389038
1470261470736034,-0.281799,0.440308,0.755615,-0.394653
1470261470751548,-0.283752,0.442017,0.749084,-0.403564
1470261470779572,-0.287842,0.447021,0.737427,-0.416565
1470261470788079,-0.29303,0.451782,0.723572,-0.431824
1470261470818607,-0.297607,0.453186,0.71051,-0.448547
1470261470841127,-0.302307,0.453857,0.697815,-0.464417
1470261470863647,-0.307556,0.452942,0.687134,-0.477539
1470261470871154,-0.311829,0.449951,0.680176,-0.487427
1470261470892174,-0.313416,0.446411,0.676636,-0.494568
1470261470909188,-0.31366,0.444092,0.67511,-0.498596
1470261470932713,-0.314209,0.44165,0.675598,-0.499756
1470261470953729,-0.315552,0.439697,0.67749,-0.498108
1470261470976249,-0.316467,0.437256,0.680847,-0.494995
1470261470990761,-0.315918,0.434204,0.685242,-0.492065
1470261471013782,-0.314453,0.431152,0.689697,-0.489441
1470261471027794,-0.313171,0.429565,0.693726,-0.485901
1470261471058322,-0.311584,0.429138,0.697876,-0.481384
1470261471080845,-0.308044,0.428955,0.703613,-0.475403
1470261471098361,-0.30188,0.428711,0.711243,-0.468201
1470261471110869,-0.293823,0.429016,0.720032,-0.459534
1470261471133396,-0.285095,0.430054,0.729065,-0.449646
1470261471154409,-0.276062,0.430664,0.738403,-0.439392
1470261471178429,-0.267883,0.430115,0.747498,-0.429504
1470261471200951,-0.262695,0.429138,0.755493,-0.419556
1470261471221969,-0.259949,0.428772,0.762085,-0.409668
1470261471230979,-0.258545,0.428894,0.766968,-0.401123
1470261471253498,-0.259766,0.429626,0.769714,-0.394348
1470261471274536,-0.263672,0.42865,0.771545,-0.38916
1470261471291051,-0.267456,0.424866,0.77417,-0.385437
1470261471313572,-0.269714,0.42157,0.77594,-0.383911
1470261471336092,-0.270813,0.421204,0.775391,-0.384644
1470261471351107,-0.269592,0.421265,0.774414,-0.387451
1470261471373626,-0.268066,0.420471,0.774109,-0.389893
1470261471394645,-0.267761,0.420105,0.774048,-0.390625
1470261471426173,-0.266724,0.419312,0.77478,-0.390808
1470261471433681,-0.264465,0.418213,0.775879,-0.391357
1470261471454698,-0.262634,0.418396,0.776184,-0.391724
1470261471471213,-0.261902,0.420349,0.775635,-0.391296
1470261471500243,-0.261292,0.422363,0.775024,-0.390686
1470261471514755,-0.260193,0.422913,0.775085,-0.390686
1470261471538774,-0.258728,0.422058,0.77594,-0.390991
1470261471569302,-0.257141,0.421204,0.776917,-0.39093
1470261471582315,-0.255859,0.420654,0.777405,-0.391418
1470261471590821,-0.256165,0.420898,0.776794,-0.39209
1470261471613841,-0.257568,0.421814,0.775635,-0.392456
1470261471634861,-0.259399,0.422363,0.774597,-0.392822
1470261471650875,-0.260498,0.42218,0.77417,-0.393127
1470261471673895,-0.260864,0.421692,0.774109,-0.393555
1470261471695915,-0.260986,0.421509,0.773987,-0.393921
1470261471710929,-0.261292,0.422058,0.773621,-0.393738
1470261471733449,-0.261719,0.423096,0.773193,-0.39325
1470261471755969,-0.261963,0.42395,0.772949,-0.392639
1470261471785997,-0.261536,0.424683,0.772949,-0.392029
1470261471793503,-0.260803,0.425659,0.77301,-0.391479
1470261471814525,-0.260559,0.426514,0.772888,-0.390991
1470261471844551,-0.260864,0.427551,0.772461,-0.390381
1470261471859562,-0.261169,0.428955,0.772034,-0.389526
1470261471874577,-0.261292,0.430115,0.771667,-0.388855
1470261471891090,-0.262085,0.431885,0.770691,-0.388306
1470261471952146,-0.263672,0.434387,0.768982,-0.387817
1470261471958652,-0.266907,0.436646,0.766663,-0.387695
1470261471974165,-0.274841,0.439758,0.759888,-0.392029
1470261472003692,-0.275879,0.436523,0.757019,-0.40033
1470261472011198,-0.277832,0.433289,0.751831,-0.412109
1470261472033721,-0.284363,0.433533,0.741516,-0.425842
1470261472056240,-0.295715,0.436157,0.726807,-0.440552
1470261472084765,-0.3078,0.438293,0.710632,-0.456177
1470261472107286,-0.318054,0.437439,0.695862,-0.472473
1470261472116295,-0.326965,0.435242,0.682312,-0.487976
1470261472138813,-0.335144,0.431335,0.669983,-0.502747
1470261472153827,-0.34198,0.428589,0.658325,-0.515686
1470261472175846,-0.346863,0.426514,0.648376,-0.526611
1470261472198869,-0.349915,0.425415,0.641724,-0.53363
1470261472219885,-0.354004,0.422913,0.638245,-0.537109
1470261472235901,-0.357056,0.421509,0.636536,-0.538147
1470261472257419,-0.35437,0.419434,0.636963,-0.541077
1470261472280942,-0.350769,0.418945,0.636902,-0.543884
1470261472295954,-0.351746,0.422363,0.633789,-0.544189
1470261472316973,-0.355164,0.424561,0.630859,-0.543701
1470261472333489,-0.356506,0.422424,0.630554,-0.5448
1470261472371522,-0.356812,0.417847,0.631958,-0.54657
1470261472377027,-0.356812,0.414673,0.632751,-0.548035
1470261472393543,-0.35614,0.41272,0.632813,-0.549866
1470261472416064,-0.355469,0.41156,0.632324,-0.551758
1470261472444587,-0.355347,0.41095,0.631714,-0.552979
1470261472453595,-0.354736,0.409668,0.631897,-0.554077
1470261472477117,-0.354004,0.408386,0.63208,-0.555298
1470261472497135,-0.353821,0.40741,0.632019,-0.556274
1470261472513650,-0.354248,0.406982,0.631653,-0.556702
1470261472536170,-0.354614,0.406616,0.631287,-0.557068
1470261472557190,-0.354736,0.406067,0.631165,-0.557495
1470261472573703,-0.355286,0.405884,0.631165,-0.557312
1470261472595722,-0.356445,0.406067,0.631042,-0.55658
1470261472617242,-0.35791,0.406311,0.630676,-0.555908
1470261472641264,-0.358459,0.405212,0.630798,-0.556213
1470261472655777,-0.358398,0.403748,0.630981,-0.55719
1470261472677297,-0.357788,0.402832,0.630737,-0.558411
1470261472694312,-0.357666,0.402893,0.630249,-0.559021
1470261472723838,-0.356812,0.402832,0.630005,-0.559875
1470261472737351,-0.355408,0.402466,0.630066,-0.560974
1470261472760871,-0.354248,0.4021,0.630127,-0.56189
1470261472776385,-0.353271,0.401245,0.630615,-0.562622
1470261472804912,-0.352539,0.400208,0.630737,-0.563599
1470261472813419,-0.351624,0.399109,0.630981,-0.564758
1470261472835938,-0.35083,0.398071,0.631287,-0.565613
1470261472865967,-0.350281,0.397583,0.63147,-0.566162
1470261472873473,-0.349854,0.397278,0.631531,-0.566528
1470261472895994,-0.349609,0.397339,0.631409,-0.566772
1470261472918515,-0.34906,0.397705,0.631104,-0.567139
1470261472933530,-0.348083,0.397583,0.631165,-0.567749
1470261472956047,-0.347046,0.397583,0.631226,-0.56842
1470261472978566,-0.346008,0.397583,0.631287,-0.568909
1470261473001087,-0.345154,0.397644,0.63147,-0.569275
1470261473016103,-0.344238,0.397583,0.631653,-0.569519
1470261473039121,-0.343262,0.397644,0.631958,-0.569824
1470261473052633,-0.342346,0.397705,0.632263,-0.569946
1470261473083664,-0.341431,0.397766,0.63269,-0.570007
1470261473098678,-0.340332,0.397522,0.633423,-0.570068
1470261473112687,-0.339294,0.397095,0.634155,-0.570129
1470261473142714,-0.33844,0.396729,0.634888,-0.570068
1470261473166237,-0.337646,0.396179,0.635742,-0.569946
1470261473172741,-0.336792,0.39563,0.636658,-0.569824
1470261473196262,-0.335938,0.394836,0.637573,-0.569824
1470261473226289,-0.335266,0.394043,0.638489,-0.569763
1470261473233296,-0.334839,0.393188,0.639465,-0.569519
1470261473256317,-0.334412,0.392151,0.640564,-0.569275
1470261473278836,-0.334106,0.391174,0.641602,-0.56897
1470261473292849,-0.333801,0.390259,0.642639,-0.568604
1470261473316371,-0.333435,0.389282,0.643738,-0.568176
1470261473338390,-0.333313,0.388367,0.644836,-0.567627
1470261473343896,-0.33313,0.387329,0.646118,-0.567017
1470261473362412,-0.332825,0.386475,0.6474,-0.566345
1470261473397944,-0.332886,0.386169,0.648315,-0.56543
1470261473403948,-0.332458,0.385559,0.649658,-0.564575
1470261473421965,-0.331787,0.38501,0.651123,-0.56366
1470261473450491,-0.330933,0.384521,0.652649,-0.562744
1470261473464005,-0.330139,0.384216,0.653931,-0.561951
1470261473482023,-0.329529,0.384277,0.654846,-0.561157
1470261473501538,-0.329285,0.38446,0.655823,-0.560059
1470261473527060,-0.329285,0.384644,0.656799,-0.558777
1470261473542072,-0.329529,0.384583,0.65802,-0.557251
1470261473561590,-0.330322,0.384888,0.658813,-0.555603
1470261473591616,-0.331543,0.385437,0.659363,-0.553833
1470261473601626,-0.332886,0.386108,0.659729,-0.552185
1470261473621644,-0.333801,0.386108,0.6604,-0.550781
1470261473643664,-0.33429,0.385315,0.661499,-0.549683
1470261473670188,-0.334534,0.384094,0.662781,-0.548889
1470261473681702,-0.335266,0.383667,0.663574,-0.547729
1470261473706720,-0.335999,0.382996,0.66449,-0.546631
1470261473721735,-0.336487,0.382263,0.665405,-0.545715
1470261473757767,-0.336609,0.381287,0.666565,-0.544922
1470261473766275,-0.336365,0.380066,0.667908,-0.544373
1470261473784292,-0.33606,0.379089,0.668945,-0.543945
1470261473802809,-0.335754,0.378174,0.669861,-0.54364
1470261473831834,-0.335632,0.377319,0.670898,-0.54303
1470261473841842,-0.335938,0.376404,0.671936,-0.542175
1470261473870368,-0.336731,0.376038,0.672546,-0.541199
1470261473886883,-0.337402,0.375671,0.673096,-0.540344
1470261473901899,-0.337891,0.375,0.67395,-0.539429
1470261473921413,-0.338745,0.374207,0.675049,-0.538025
1470261473946937,-0.341736,0.374268,0.67572,-0.535278
1470261473975462,-0.346252,0.375,0.676208,-0.53125
1470261473981468,-0.350952,0.376648,0.676331,-0.526855
1470261474003988,-0.354309,0.379639,0.676453,-0.522217
1470261474026508,-0.357056,0.381775,0.678589,-0.516052
1470261474041521,-0.356506,0.381226,0.683533,-0.510254
1470261474065544,-0.352295,0.379456,0.690491,-0.505066
1470261474086561,-0.346375,0.379822,0.698486,-0.497864
1470261474117590,-0.339966,0.382324,0.706848,-0.488464
1470261474124095,-0.333252,0.385498,0.715759,-0.477478
1470261474146615,-0.325378,0.387756,0.726135,-0.465271
1470261474162630,-0.316895,0.390442,0.736877,-0.451782
1470261474191656,-0.307312,0.391785,0.747803,-0.439148
1470261474206671,-0.298157,0.391846,0.75824,-0.427368
1470261474224186,-0.290039,0.39093,0.767822,-0.416504
1470261474251710,-0.282959,0.389038,0.776062,-0.407837
1470261474275232,-0.277344,0.387024,0.782654,-0.40094
1470261474281740,-0.273254,0.385681,0.787598,-0.395264
1470261474306759,-0.271118,0.385437,0.791199,-0.389771
1470261474326779,-0.27002,0.385864,0.793884,-0.384583
1470261474342792,-0.268982,0.385864,0.796021,-0.380859
1470261474364313,-0.268188,0.384338,0.797791,-0.379272
1470261474386331,-0.2677,0.381897,0.799072,-0.379517
1470261474402846,-0.265991,0.378052,0.801086,-0.380249
1470261474426867,-0.264343,0.375366,0.802612,-0.380737
1470261474446385,-0.264038,0.376099,0.802673,-0.380188
1470261474470406,-0.264038,0.376282,0.802551,-0.380249
1470261474483922,-0.263428,0.374878,0.803101,-0.38092
1470261474506438,-0.262878,0.373596,0.803589,-0.38147
1470261474522954,-0.26239,0.373047,0.804138,-0.381165
1470261474551482,-0.261963,0.372986,0.804565,-0.380676
1470261474561989,-0.261475,0.372864,0.805115,-0.380005
1470261474584514,-0.260437,0.371765,0.806213,-0.379456
1470261474604028,-0.25885,0.370544,0.807312,-0.379333
1470261474622042,-0.257202,0.369446,0.808228,-0.379639
1470261474643061,-0.255737,0.368774,0.808838,-0.379883
1470261474664081,-0.254272,0.367798,0.809631,-0.380127
1470261474682098,-0.252686,0.366943,0.810425,-0.380371
1470261474703115,-0.251404,0.366455,0.811035,-0.380432
1470261474724134,-0.250305,0.365967,0.811584,-0.380371
1470261474749659,-0.249512,0.365112,0.812195,-0.380432
1470261474766173,-0.248779,0.364075,0.812805,-0.380615
1470261474784188,-0.247986,0.363403,0.813416,-0.380432
1470261474801704,-0.247498,0.362976,0.813965,-0.380005
1470261474831735,-0.247131,0.362976,0.81427,-0.379639
1470261474844243,-0.246643,0.363037,0.814514,-0.379456
1470261474861758,-0.24585,0.362854,0.81488,-0.379333
1470261474888883,-0.245117,0.362671,0.815247,-0.37915
1470261474911404,-0.244385,0.362366,0.815674,-0.379028
1470261474921913,-0.243713,0.362,0.816101,-0.378784
1470261474944432,-0.243286,0.362,0.816223,-0.378784
1470261474981466,-0.242981,0.361816,0.816345,-0.378906
1470261474983969,-0.242615,0.361084,0.816711,-0.37915
1470261475004488,-0.242188,0.360229,0.817078,-0.379333
1470261475024005,-0.24176,0.359558,0.817444,-0.379517
1470261475042020,-0.241638,0.359192,0.817566,-0.3797
1470261475064544,-0.241455,0.358521,0.81781,-0.379944
1470261475084562,-0.241394,0.358032,0.817932,-0.380127
1470261475109581,-0.241394,0.358276,0.817749,-0.380249
1470261475124595,-0.241516,0.358765,0.817505,-0.380249
1470261475144112,-0.241577,0.358765,0.817505,-0.380249
1470261475166632,-0.241211,0.358337,0.817749,-0.38031
1470261475184148,-0.240906,0.357971,0.817993,-0.380371
1470261475204165,-0.240662,0.357849,0.818115,-0.380371
1470261475222236,-0.240234,0.357666,0.818298,-0.380432
1470261475244759,-0.239868,0.357483,0.81842,-0.380493
1470261475264220,-0.239563,0.357117,0.818604,-0.380615
1470261475281738,-0.239197,0.35675,0.818848,-0.380737
1470261475304256,-0.238647,0.356567,0.819031,-0.380859
1470261475324278,-0.238037,0.356445,0.819214,-0.380981
1470261475342790,-0.237671,0.356262,0.819458,-0.380859
1470261475364310,-0.237183,0.356018,0.819702,-0.380798
1470261475385331,-0.236694,0.355896,0.819885,-0.380859
1470261475401861,-0.236328,0.356018,0.819946,-0.380859
1470261475424364,-0.235962,0.355835,0.819946,-0.381226
1470261475445384,-0.236877,0.355347,0.819275,-0.382507
1470261475461899,-0.238892,0.355225,0.818115,-0.383911
1470261475484418,-0.239807,0.355408,0.817505,-0.384521
1470261475505437,-0.239746,0.355286,0.817322,-0.38501
1470261475521953,-0.239563,0.355164,0.817322,-0.385315
1470261475548979,-0.239197,0.355042,0.817383,-0.385437
