timestamp,roll,pitch,yaw
1470244333289561,-0.407631,-0.0678076,-2.25419
1470244333310581,-0.407631,-0.0678076,-2.25419
1470244333327095,-0.407645,-0.067787,-2.25412
1470244333349616,-0.407935,-0.0675266,-2.25421
1470244333370635,-0.407916,-0.0675123,-2.25407
1470244333387150,-0.408032,-0.0674616,-2.25409
1470244333409669,-0.407916,-0.0675123,-2.25407
1470244333430689,-0.407935,-0.0675266,-2.25421
1470244333447203,-0.407935,-0.0675266,-2.25421
1470244333469724,-0.407935,-0.0675266,-2.25421
1470244333492243,-0.407935,-0.0675266,-2.25421
1470244333507257,-0.407935,-0.0675266,-2.25421
1470244333529777,-0.407858,-0.0674038,-2.25408
1470244333552297,-0.408032,-0.0674616,-2.25409
1470244333567311,-0.408032,-0.0674616,-2.25409
1470244333595838,-0.408032,-0.0674616,-2.25409
1470244333612351,-0.408032,-0.0674616,-2.25409
1470244333626864,-0.408032,-0.0674616,-2.25409
1470244333649885,-0.407916,-0.0675123,-2.25407
1470244333672405,-0.407935,-0.0675266,-2.25421
1470244333687419,-0.407935,-0.0675266,-2.25421
1470244333709439,-0.407877,-0.067418,-2.25422
1470244333732460,-0.407877,-0.067418,-2.25422
1470244333746973,-0.407877,-0.067418,-2.25422
1470244333769993,-0.407877,-0.067418,-2.25422
1470244333792514,-0.407877,-0.067418,-2.25422
1470244333806525,-0.407877,-0.067418,-2.25422
1470244333829546,-0.407877,-0.067418,-2.25422
1470244333852567,-0.407877,-0.067418,-2.25422
1470244333866580,-0.407877,-0.067418,-2.25422
1470244333889601,-0.407877,-0.067418,-2.25422
1470244333912120,-0.407877,-0.067418,-2.25422
1470244333926633,-0.407974,-0.0673531,-2.25411
1470244333949654,-0.407858,-0.0674038,-2.25408
1470244333972175,-0.407974,-0.0673531,-2.25411
1470244333993193,-0.407974,-0.0673531,-2.25411
1470244334009708,-0.407832,-0.0672889,-2.25416
1470244334032229,-0.407929,-0.067224,-2.25405
1470244334053748,-0.407929,-0.067224,-2.25405
1470244334069763,-0.407929,-0.067224,-2.25405
1470244334092282,-0.407929,-0.067224,-2.25405
1470244334113302,-0.407929,-0.067224,-2.25405
1470244334129817,-0.407929,-0.067224,-2.25405
1470244334152337,-0.407929,-0.067224,-2.25405
1470244334173354,-0.407929,-0.067224,-2.25405
1470244334189870,-0.407948,-0.0672382,-2.25419
1470244334212390,-0.407929,-0.067224,-2.25405
1470244334233409,-0.407929,-0.067224,-2.25405
1470244334249924,-0.407929,-0.067224,-2.25405
1470244334272444,-0.407929,-0.067224,-2.25405
1470244334293462,-0.407929,-0.067224,-2.25405
1470244334309977,-0.407929,-0.067224,-2.25405
1470244334332497,-0.407929,-0.067224,-2.25405
1470244334353516,-0.408045,-0.0671733,-2.25407
1470244334369532,-0.407987,-0.0670648,-2.25409
1470244334392552,-0.407987,-0.0670648,-2.25409
1470244334422078,-0.407987,-0.0670648,-2.25409
1470244334429585,-0.407987,-0.0670648,-2.25409
1470244334452105,-0.407987,-0.0670648,-2.25409
1470244334474626,-0.407987,-0.0670648,-2.25409
1470244334489639,-0.407987,-0.0670648,-2.25409
1470244334512159,-0.407987,-0.0670648,-2.25409
1470244334534680,-0.407987,-0.0670648,-2.25409
1470244334549694,-0.407987,-0.0670648,-2.25409
1470244334572214,-0.407987,-0.0670648,-2.25409
1470244334594733,-0.407987,-0.0670648,-2.25409
1470244334609247,-0.407987,-0.0670648,-2.25409
1470244334632267,-0.407987,-0.0670648,-2.25409
1470244334654787,-0.407987,-0.0670648,-2.25409
1470244334677308,-0.407929,-0.0669563,-2.2541
1470244334692321,-0.407987,-0.0670648,-2.25409
1470244334714842,-0.407987,-0.0670648,-2.25409
1470244334728854,-0.408103,-0.0670142,-2.25411
1470244334752375,-0.408103,-0.0670142,-2.25411
1470244334774896,-0.408103,-0.0670142,-2.25411
1470244334789408,-0.408103,-0.0670142,-2.25411
1470244334812428,-0.408103,-0.0670142,-2.25411
1470244334834952,-0.408103,-0.0670142,-2.25411
1470244334848962,-0.408045,-0.0669056,-2.25412
1470244334872484,-0.408045,-0.0669056,-2.25412
1470244334895003,-0.408045,-0.0669056,-2.25412
1470244334916021,-0.408103,-0.0670142,-2.25411
1470244334932537,-0.408219,-0.0669635,-2.25413
1470244334954556,-0.408219,-0.0669635,-2.25413
1470244334975575,-0.408496,-0.0669913,-2.25423
1470244334992090,-0.408612,-0.0669407,-2.25426
1470244335014610,-0.408593,-0.0669264,-2.25412
1470244335035629,-0.408496,-0.0669913,-2.25423
1470244335052144,-0.408496,-0.0669913,-2.25423
1470244335074667,-0.408593,-0.0669264,-2.25412
1470244335095684,-0.408593,-0.0669264,-2.25412
1470244335112198,-0.408001,-0.0667765,-2.25407
1470244335134720,-0.408001,-0.0667765,-2.25407
1470244335155737,-0.407454,-0.0669331,-2.25354
1470244335172251,-0.406792,-0.0674084,-2.25295
1470244335194772,-0.405809,-0.0679955,-2.25214
1470244335215791,-0.404871,-0.0684445,-2.25145
1470244335232806,-0.403831,-0.0689247,-2.25066
1470244335254826,-0.403231,-0.0694212,-2.24958
1470244335260330,-0.40294,-0.069939,-2.24866
1470244335282850,-0.40241,-0.0703463,-2.24803
1470244335297864,-0.401893,-0.0706205,-2.24742
1470244335320384,-0.401858,-0.0709729,-2.247
1470244335342905,-0.401551,-0.0710657,-2.24673
1470244335357919,-0.401551,-0.0710657,-2.24673
1470244335380439,-0.401551,-0.0710657,-2.24673
1470244335402459,-0.401596,-0.0711942,-2.24678
1470244335417472,-0.401596,-0.0711942,-2.24678
1470244335439992,-0.401532,-0.0710513,-2.24659
1470244335462514,-0.402486,-0.0715606,-2.24655
1470244335477527,-0.404112,-0.0722499,-2.2462
1470244335507552,-0.406188,-0.0735234,-2.24566
1470244335522566,-0.408757,-0.0752412,-2.24503
1470244335537581,-0.41065,-0.0767437,-2.2445
1470244335560102,-0.411664,-0.0775928,-2.24419
1470244335582623,-0.412288,-0.0782338,-2.24401
1470244335597633,-0.413247,-0.0787422,-2.24396
1470244335623658,-0.414234,-0.0791323,-2.24409
1470244335642704,-0.414962,-0.0797428,-2.24399
1470244335657715,-0.415249,-0.0799808,-2.24377
1470244335680225,-0.414699,-0.0801949,-2.24352
1470244335702755,-0.414103,-0.0807799,-2.24292
1470244335717743,-0.413752,-0.081974,-2.24174
1470244335740280,-0.412748,-0.0847386,-2.23985
1470244335762874,-0.409045,-0.087913,-2.23694
1470244335785301,-0.402929,-0.0907269,-2.2325
1470244335800315,-0.393651,-0.09521,-2.22707
1470244335822836,-0.384969,-0.1034,-2.22179
1470244335839350,-0.379481,-0.113198,-2.21584
1470244335860369,-0.376675,-0.122675,-2.21139
1470244335882890,-0.373862,-0.131724,-2.21021
1470244335898905,-0.357781,-0.141827,-2.2212
1470244335920423,-0.323684,-0.144887,-2.24072
1470244335943945,-0.278511,-0.143466,-2.26965
1470244335958960,-0.23721,-0.142399,-2.30511
1470244335980478,-0.214393,-0.140326,-2.34639
1470244336003023,-0.194517,-0.140965,-2.3951
1470244336019514,-0.16454,-0.142198,-2.45346
1470244336040031,-0.122699,-0.144529,-2.52174
1470244336062553,-0.076807,-0.149881,-2.59922
1470244336079067,-0.0368632,-0.159471,-2.68368
1470244336100597,-0.0114494,-0.172829,-2.77054
1470244336122623,0.00131225,-0.18929,-2.85593
1470244336139120,0.0115193,-0.207022,-2.94207
1470244336160194,0.0274546,-0.224212,-3.02817
1470244336182714,0.0490166,-0.240431,-3.1116
1470244336199174,0.0622246,-0.25711,3.09747
1470244336220195,0.0620727,-0.273598,3.03415
1470244336250721,0.054878,-0.288298,2.97875
1470244336259228,0.0506915,-0.300108,2.93106
1470244336287774,0.0521904,-0.307855,2.8947
1470244336302834,0.044687,-0.31371,2.87249
1470244336320783,0.0295235,-0.31505,2.86013
1470244336340349,0.0114429,-0.313037,2.85585
1470244336370328,-0.00204819,-0.309302,2.85806
1470244336380839,-0.0126772,-0.305227,2.86665
1470244336400371,-0.0220691,-0.301112,2.88058
1470244336422874,-0.0319214,-0.296573,2.89864
1470244336453936,-0.0427263,-0.291364,2.92007
1470244336460408,-0.0526345,-0.285622,2.94539
1470244336482960,-0.060957,-0.278628,2.97494
1470244336501025,-0.0707312,-0.270765,3.00912
1470244336520462,-0.0819202,-0.261684,3.04736
1470244336542515,-0.0966036,-0.251535,3.09049
1470244336566506,-0.113461,-0.239341,3.13986
1470244336580574,-0.128946,-0.225175,-3.08662
1470244336603060,-0.137602,-0.209793,-3.02444
1470244336622053,-0.139548,-0.194902,-2.95536
1470244336640113,-0.138802,-0.178959,-2.87701
1470244336662634,-0.141341,-0.164211,-2.79292
1470244336680606,-0.149239,-0.154282,-2.70481
1470244336700179,-0.160545,-0.148849,-2.61381
1470244336731652,-0.169605,-0.144353,-2.5203
1470244336745207,-0.176728,-0.142876,-2.41994
1470244336760226,-0.192234,-0.148047,-2.31776
1470244336782699,-0.222576,-0.154999,-2.21965
1470244336800731,-0.262083,-0.162035,-2.12479
1470244336821733,-0.304544,-0.178033,-2.02996
1470244336842777,-0.339075,-0.190776,-1.93761
1470244336860768,-0.363146,-0.192361,-1.84895
1470244336880369,-0.39124,-0.19474,-1.76229
1470244336902842,-0.430294,-0.207082,-1.68939
1470244336928378,-0.455803,-0.213547,-1.64075
1470244336941840,-0.459238,-0.211188,-1.59707
1470244336962859,-0.473495,-0.208832,-1.55657
1470244336980876,-0.48898,-0.20775,-1.53011
1470244337001396,-0.494023,-0.205494,-1.51093
1470244337022914,-0.501908,-0.203471,-1.50026
1470244337041079,-0.512085,-0.200709,-1.4965
1470244337061450,-0.515638,-0.197069,-1.4989
1470244337086028,-0.516709,-0.194578,-1.50484
1470244337101086,-0.51781,-0.193535,-1.51019
1470244337123003,-0.519343,-0.192473,-1.51366
1470244337143021,-0.52131,-0.191391,-1.51506
1470244337160537,-0.521258,-0.190059,-1.51476
1470244337181556,-0.519928,-0.189742,-1.51353
1470244337202592,-0.517822,-0.189764,-1.51158
1470244337220591,-0.516457,-0.190046,-1.50917
1470244337241612,-0.515397,-0.190555,-1.5066
1470244337262645,-0.513658,-0.190527,-1.50438
1470244337280646,-0.512021,-0.190156,-1.50295
1470244337303219,-0.511384,-0.190313,-1.50212
1470244337322700,-0.51155,-0.190222,-1.50145
1470244337340699,-0.512915,-0.190477,-1.50037
1470244337363219,-0.515012,-0.190524,-1.49926
1470244337382752,-0.517165,-0.190572,-1.49852
1470244337400754,-0.518895,-0.190359,-1.49811
1470244337423273,-0.519694,-0.189607,-1.49767
1470244337442801,-0.520867,-0.189034,-1.49724
1470244337460806,-0.522724,-0.188173,-1.49716
1470244337483355,-0.524445,-0.187028,-1.49694
1470244337502844,-0.52673,-0.186349,-1.49619
1470244337520860,-0.530703,-0.186486,-1.4952
1470244337543380,-0.534757,-0.186108,-1.49399
1470244337565401,-0.54087,-0.186076,-1.49217
1470244337580915,-0.549577,-0.1852,-1.48849
1470244337603506,-0.561032,-0.182179,-1.4794
1470244337622952,-0.577879,-0.179946,-1.46171
1470244337641056,-0.596788,-0.17699,-1.43205
1470244337663616,-0.61748,-0.174418,-1.38794
1470244337682507,-0.639273,-0.174266,-1.33101
1470244337700522,-0.660661,-0.175025,-1.26262
1470244337723042,-0.679807,-0.176952,-1.18683
1470244337742576,-0.697541,-0.179811,-1.10763
1470244337760576,-0.716093,-0.182557,-1.02892
1470244337782596,-0.734204,-0.186714,-0.955142
1470244337803614,-0.748943,-0.192074,-0.889654
1470244337820131,-0.763128,-0.19842,-0.835348
1470244337842150,-0.771485,-0.20776,-0.791764
1470244337863245,-0.77718,-0.218958,-0.75676
1470244337879682,-0.785682,-0.230719,-0.729801
1470244337902203,-0.795309,-0.242754,-0.710548
1470244337923224,-0.801755,-0.252718,-0.699093
1470244337939737,-0.804758,-0.260851,-0.695024
1470244337962257,-0.804635,-0.267953,-0.697527
1470244337983777,-0.802935,-0.274273,-0.704828
1470244338007298,-0.799601,-0.27943,-0.716523
1470244338022313,-0.79673,-0.284182,-0.731821
1470244338043348,-0.79521,-0.289268,-0.750157
1470244338059344,-0.794293,-0.293648,-0.770977
1470244338082865,-0.794276,-0.298264,-0.795293
1470244338104885,-0.79353,-0.299957,-0.822763
1470244338118916,-0.791681,-0.299118,-0.852883
1470244338142420,-0.787811,-0.297135,-0.887138
1470244338163479,-0.78303,-0.293315,-0.926487
1470244338178951,-0.776319,-0.28848,-0.970726
1470244338202473,-0.770361,-0.280172,-1.0161
1470244338224992,-0.765002,-0.269856,-1.06128
1470244338239005,-0.756753,-0.2585,-1.10745
1470244338262027,-0.746076,-0.246758,-1.15472
1470244338285048,-0.737223,-0.236547,-1.20391
1470244338299061,-0.729226,-0.228468,-1.25591
1470244338322081,-0.720375,-0.221296,-1.30802
1470244338344619,-0.710176,-0.215267,-1.35854
1470244338366119,-0.699097,-0.208028,-1.40502
1470244338382133,-0.68783,-0.201843,-1.4471
1470244338404654,-0.678943,-0.199371,-1.48596
1470244338426182,-0.670122,-0.199708,-1.5217
1470244338442188,-0.659609,-0.200747,-1.55196
1470244338472215,-0.648037,-0.202922,-1.57697
1470244338486260,-0.636953,-0.206274,-1.59639
1470244338509749,-0.627928,-0.209399,-1.61062
1470244338524762,-0.617683,-0.211764,-1.62023
1470244338546315,-0.60689,-0.213321,-1.62666
1470244338562295,-0.595878,-0.212884,-1.63084
1470244338584818,-0.584065,-0.210951,-1.6338
1470244338606341,-0.570554,-0.208224,-1.6366
1470244338622350,-0.557089,-0.205482,-1.63849
1470244338644870,-0.5464,-0.202592,-1.63891
1470244338667390,-0.53613,-0.198794,-1.63922
1470244338682404,-0.525285,-0.19442,-1.64012
1470244338704925,-0.514284,-0.189695,-1.64203
1470244338725942,-0.504249,-0.185774,-1.64439
1470244338755972,-0.496263,-0.18339,-1.64709
1470244338771984,-0.490419,-0.181898,-1.65005
1470244338795005,-0.485916,-0.181074,-1.65394
1470244338802012,-0.481248,-0.180711,-1.65869
1470244338840546,-0.47788,-0.180953,-1.6638
1470244338846056,-0.474372,-0.182416,-1.66929
1470244338868610,-0.47266,-0.185381,-1.67494
1470244338885089,-0.472215,-0.187935,-1.67971
1470244338913611,-0.471474,-0.190679,-1.68309
1470244338922119,-0.469374,-0.193654,-1.68465
1470244338944645,-0.465936,-0.196454,-1.68523
1470244338966158,-0.462362,-0.198906,-1.68509
1470244338982172,-0.459144,-0.199997,-1.6848
1470244339004701,-0.45509,-0.199228,-1.68442
1470244339025755,-0.450135,-0.198068,-1.68416
1470244339042253,-0.446188,-0.19753,-1.68475
1470244339064746,-0.444691,-0.197241,-1.68552
1470244339085769,-0.443116,-0.196847,-1.68745
1470244339102282,-0.439831,-0.195647,-1.68997
1470244339124801,-0.436329,-0.194477,-1.69268
1470244339146320,-0.434528,-0.193425,-1.69581
1470244339162334,-0.433009,-0.192512,-1.69938
1470244339184854,-0.431787,-0.192005,-1.70275
1470244339207375,-0.4305,-0.192134,-1.70662
1470244339222388,-0.429409,-0.19187,-1.71021
1470244339244912,-0.42854,-0.191844,-1.71322
1470244339274935,-0.428054,-0.192087,-1.71567
1470244339282442,-0.427999,-0.192511,-1.71719
1470244339304963,-0.428601,-0.193421,-1.71779
1470244339326987,-0.429383,-0.194758,-1.71755
1470244339341498,-0.429098,-0.195632,-1.71721
1470244339365016,-0.42829,-0.196408,-1.71662
1470244339387537,-0.428372,-0.197118,-1.71617
1470244339402052,-0.429405,-0.198274,-1.71619
1470244339424570,-0.429978,-0.198964,-1.71622
1470244339447134,-0.429989,-0.199096,-1.71601
1470244339469613,-0.430178,-0.199755,-1.71575
1470244339484673,-0.430243,-0.200137,-1.71536
1470244339507144,-0.429627,-0.200653,-1.7152
1470244339521657,-0.428708,-0.201072,-1.71503
1470244339544716,-0.428446,-0.201463,-1.71493
1470244339567200,-0.427991,-0.202178,-1.71478
1470244339581719,-0.427083,-0.20273,-1.7144
1470244339612253,-0.426021,-0.203452,-1.71415
1470244339634759,-0.42502,-0.204082,-1.71376
1470244339641767,-0.424027,-0.20491,-1.71352
1470244339664786,-0.42384,-0.20588,-1.71319
1470244339694813,-0.423537,-0.206769,-1.71288
1470244339708326,-0.423185,-0.206897,-1.71281
1470244339724839,-0.42242,-0.206534,-1.71272
1470244339747896,-0.421375,-0.206063,-1.71262
1470244339768381,-0.42041,-0.205722,-1.7127
1470244339784893,-0.419239,-0.205746,-1.71292
1470244339807414,-0.417549,-0.205502,-1.7129
1470244339828527,-0.415551,-0.204995,-1.71266
1470244339844952,-0.413673,-0.204509,-1.71204
1470244339867468,-0.410953,-0.204102,-1.7117
1470244339888565,-0.40699,-0.203311,-1.7118
1470244339905002,-0.400869,-0.202364,-1.71203
1470244339927021,-0.393324,-0.201641,-1.71227
1470244339950041,-0.384947,-0.200951,-1.7122
1470244339964055,-0.376549,-0.20004,-1.71143
1470244339987075,-0.366637,-0.199982,-1.70929
1470244340008594,-0.353821,-0.202815,-1.70537
1470244340024116,-0.338698,-0.2071,-1.69956
1470244340047629,-0.324144,-0.211538,-1.69175
1470244340068648,-0.310847,-0.216002,-1.68334
1470244340091168,-0.297795,-0.220922,-1.67479
1470244340107192,-0.283947,-0.226053,-1.66605
1470244340130203,-0.271809,-0.231843,-1.65726
1470244340144216,-0.263149,-0.237861,-1.64859
1470244340167242,-0.256381,-0.243825,-1.64085
1470244340189757,-0.249568,-0.24993,-1.63378
1470244340204271,-0.24245,-0.25624,-1.62666
1470244340227295,-0.235062,-0.262235,-1.6202
1470244340249813,-0.229089,-0.267793,-1.61438
1470244340270844,-0.225622,-0.272795,-1.60948
1470244340287845,-0.222727,-0.277215,-1.60533
1470244340309864,-0.219575,-0.280896,-1.60155
1470244340330939,-0.216979,-0.284053,-1.5983
1470244340347398,-0.214788,-0.286427,-1.59576
1470244340369918,-0.213058,-0.288167,-1.59445
1470244340384431,-0.211535,-0.289151,-1.59419
1470244340407452,-0.211,-0.289291,-1.59404
1470244340429973,-0.211313,-0.289339,-1.59439
1470244340443986,-0.211826,-0.288813,-1.59507
1470244340467006,-0.212113,-0.287792,-1.59609
1470244340490027,-0.212094,-0.286539,-1.59749
1470244340505041,-0.212178,-0.284829,-1.59868
1470244340527559,-0.212333,-0.283229,-1.60005
1470244340550080,-0.212315,-0.281802,-1.60144
1470244340564094,-0.212283,-0.280549,-1.60284
1470244340587615,-0.212299,-0.27928,-1.60406
1470244340609635,-0.212145,-0.27836,-1.60529
1470244340631153,-0.212031,-0.27773,-1.606
1470244340647168,-0.212143,-0.277089,-1.60651
1470244340669687,-0.212175,-0.276689,-1.60686
1470244340691298,-0.2122,-0.276134,-1.60738
1470244340707223,-0.212494,-0.275499,-1.60789
1470244340729741,-0.2132,-0.274963,-1.6084
1470244340750794,-0.214169,-0.274194,-1.60907
1470244340767275,-0.2153,-0.273627,-1.60992
1470244340789820,-0.216365,-0.272929,-1.61042
1470244340810862,-0.217499,-0.272343,-1.6111
1470244340827329,-0.218262,-0.271415,-1.61196
1470244340849850,-0.218928,-0.270242,-1.61299
1470244340870871,-0.219578,-0.269244,-1.61404
1470244340887384,-0.220186,-0.268292,-1.61473
1470244340909904,-0.221252,-0.267622,-1.61541
1470244340930938,-0.222074,-0.266989,-1.61575
1470244340947439,-0.222622,-0.26628,-1.61626
1470244340969957,-0.223099,-0.265481,-1.61678
1470244340990996,-0.223493,-0.264922,-1.61712
1470244341007491,-0.223886,-0.264385,-1.61764
1470244341030018,-0.224514,-0.26412,-1.61818
1470244341058555,-0.225072,-0.263743,-1.61853
1470244341067545,-0.22554,-0.263473,-1.61906
1470244341090065,-0.226278,-0.263126,-1.61958
1470244341112585,-0.226833,-0.262575,-1.61993
1470244341127599,-0.227298,-0.26213,-1.62046
1470244341149620,-0.227672,-0.261594,-1.62099
1470244341172640,-0.227777,-0.261135,-1.62153
1470244341187155,-0.228083,-0.260685,-1.62206
1470244341209673,-0.228483,-0.260304,-1.62241
1470244341232193,-0.229132,-0.259846,-1.62276
1470244341246705,-0.229532,-0.259467,-1.62312
1470244341269727,-0.230003,-0.259178,-1.62347
1470244341292748,-0.230587,-0.258982,-1.62383
1470244341306761,-0.231328,-0.258617,-1.62418
1470244341329781,-0.232066,-0.258098,-1.62471
1470244341352300,-0.232261,-0.257557,-1.62525
1470244341366814,-0.232571,-0.257087,-1.62561
1470244341389835,-0.23288,-0.256618,-1.62596
1470244341412355,-0.232941,-0.256225,-1.62632
1470244341426368,-0.232752,-0.255712,-1.62649
1470244341449888,-0.232571,-0.255705,-1.62649
1470244341472409,-0.232571,-0.255705,-1.62649
1470244341486922,-0.23186,-0.256377,-1.62651
1470244341509942,-0.233584,-0.260293,-1.6264
1470244341532462,-0.240773,-0.268419,-1.62505
1470244341553481,-0.254271,-0.278455,-1.62205
1470244341569997,-0.269346,-0.287391,-1.617
1470244341592516,-0.282956,-0.295321,-1.61176
1470244341613535,-0.291852,-0.301086,-1.60888
1470244341630049,-0.295297,-0.304151,-1.60837
1470244341652578,-0.294269,-0.302325,-1.61
1470244341673589,-0.28877,-0.293819,-1.61544
1470244341689104,-0.273194,-0.275709,-1.62534
1470244341712125,-0.250558,-0.249715,-1.63582
1470244341733644,-0.229805,-0.221758,-1.64592
1470244341749657,-0.218028,-0.185884,-1.66124
1470244341772179,-0.200567,-0.137033,-1.68141
1470244341793697,-0.177837,-0.0776171,-1.70647
1470244341809711,-0.154993,-0.00870956,-1.73628
1470244341832232,-0.134633,0.0679978,-1.76749
1470244341853251,-0.117836,0.15175,-1.80109
1470244341869265,-0.102509,0.241328,-1.83655
1470244341892286,-0.087424,0.334919,-1.87459
1470244341913306,-0.0734136,0.43097,-1.91445
1470244341929318,-0.0640396,0.525262,-1.95312
1470244341952339,-0.060642,0.613958,-1.98882
1470244341973358,-0.0600476,0.694588,-2.02095
1470244342004888,-0.0563669,0.76627,-2.04686
1470244342012394,-0.0469829,0.827803,-2.06419
1470244342034914,-0.0302255,0.879194,-2.07337
1470244342049426,-0.00801435,0.91892,-2.07541
1470244342073448,0.0128117,0.946042,-2.07593
1470244342094967,0.0369347,0.958927,-2.0721
1470244342109481,0.0593568,0.956857,-2.06585
1470244342132502,0.0783574,0.939022,-2.05267
1470244342155021,0.09193,0.902664,-2.03341
1470244342176039,0.100006,0.854199,-2.01147
1470244342192555,0.101311,0.798084,-1.99436
1470244342215076,0.0916642,0.730282,-1.98245
1470244342236094,0.0783919,0.659505,-1.97409
1470244342252109,0.068791,0.581813,-1.9599
1470244342275630,0.0595914,0.499001,-1.94097
1470244342296147,0.0426913,0.417037,-1.92233
1470244342312163,0.021598,0.339551,-1.90535
1470244342334690,0.0109065,0.264403,-1.88471
1470244342356201,0.0072255,0.190821,-1.86137
1470244342372217,-0.00155551,0.122582,-1.83773
1470244342394741,-0.0143729,0.0605156,-1.81449
1470244342415756,-0.0237954,0.00307239,-1.79353
1470244342432270,-0.0337861,-0.0505911,-1.77514
1470244342455291,-0.042393,-0.0950613,-1.76131
1470244342475810,-0.0429106,-0.132104,-1.75154
1470244342492324,-0.0414212,-0.161079,-1.74208
1470244342514845,-0.0447989,-0.186844,-1.73294
1470244342535864,-0.0560333,-0.210451,-1.72673
1470244342552379,-0.0686002,-0.228079,-1.72184
1470244342574898,-0.0771544,-0.24001,-1.71823
1470244342595918,-0.0799266,-0.249051,-1.71837
1470244342611931,-0.0819022,-0.259138,-1.71798
1470244342634953,-0.0882766,-0.270248,-1.71698
1470244342655971,-0.0977729,-0.279944,-1.71443
1470244342672487,-0.103287,-0.285939,-1.71369
1470244342695007,-0.10154,-0.286885,-1.71434
1470244342716025,-0.0979747,-0.28731,-1.71452
1470244342732539,-0.0978417,-0.288318,-1.71388
1470244342755060,-0.101047,-0.290932,-1.71238
1470244342776080,-0.102434,-0.29406,-1.71168
1470244342792594,-0.101755,-0.297136,-1.71136
1470244342815114,-0.101026,-0.300453,-1.7107
1470244342836133,-0.101179,-0.304356,-1.70985
1470244342852148,-0.10298,-0.308533,-1.70849
1470244342874667,-0.105307,-0.312614,-1.70651
1470244342896187,-0.107203,-0.316543,-1.70531
1470244342911702,-0.1083,-0.319357,-1.70557
1470244342934722,-0.107882,-0.320271,-1.70669
1470244342955740,-0.107582,-0.320482,-1.7075
1470244342972256,-0.108537,-0.321287,-1.70789
1470244342995777,-0.110253,-0.322407,-1.70825
1470244343017296,-0.111086,-0.322313,-1.70854
1470244343022800,-0.107569,-0.321185,-1.70894
1470244343037815,-0.102339,-0.319803,-1.70871
1470244343060334,-0.100654,-0.318784,-1.70703
1470244343082855,-0.101818,-0.318107,-1.70474
1470244343097868,-0.103251,-0.314868,-1.70303
1470244343120388,-0.0952822,-0.305441,-1.70316
1470244343142908,-0.0768784,-0.290407,-1.70403
1470244343160924,-0.0554565,-0.269583,-1.70451
1470244343180441,-0.0361078,-0.24429,-1.70673
1470244343202962,-0.0165347,-0.21297,-1.71151
1470244343220978,0.00519686,-0.173196,-1.71746
1470244343240496,0.0293234,-0.126469,-1.72668
1470244343262516,0.0546844,-0.0742001,-1.73815
1470244343279032,0.0784889,-0.0188148,-1.74937
1470244343300050,0.101007,0.0382435,-1.76009
1470244343323072,0.122943,0.0966551,-1.77041
1470244343339587,0.147272,0.155563,-1.78029
1470244343360104,0.174443,0.214224,-1.78943
1470244343391131,0.203374,0.27115,-1.79672
1470244343399640,0.231203,0.325031,-1.80194
1470244343421660,0.25655,0.375262,-1.80497
1470244343442676,0.28209,0.421147,-1.80609
1470244343459192,0.30934,0.462208,-1.806
1470244343480711,0.337309,0.498562,-1.80467
1470244343502733,0.362492,0.528181,-1.80302
1470244343521249,0.384764,0.550858,-1.80046
1470244343556780,0.404878,0.566435,-1.7979
1470244343562785,0.420218,0.573502,-1.79635
1470244343586807,0.429389,0.571465,-1.79648
1470244343600320,0.433385,0.562085,-1.79807
1470244343624343,0.433948,0.546584,-1.80031
1470244343639354,0.432106,0.525604,-1.80308
1470244343660887,0.425411,0.498955,-1.8064
1470244343682893,0.410804,0.468083,-1.81094
1470244343699408,0.391361,0.43337,-1.81627
1470244343736441,0.372934,0.396789,-1.81977
1470244343750954,0.356729,0.357509,-1.82012
1470244343759462,0.338318,0.317894,-1.81921
1470244343781983,0.319565,0.278473,-1.81625
1470244343803001,0.30176,0.237325,-1.81102
1470244343825521,0.284507,0.193746,-1.80458
1470244343840534,0.264974,0.151157,-1.79802
1470244343863055,0.242498,0.109863,-1.79079
1470244343880571,0.217524,0.0669205,-1.78223
1470244343900089,0.193496,0.0243651,-1.77354
1470244343922608,0.167208,-0.0148463,-1.76581
1470244343940624,0.136956,-0.0525441,-1.75844
1470244343960142,0.107603,-0.08764,-1.75201
1470244343982663,0.0840419,-0.115948,-1.7455
1470244344000678,0.0605352,-0.141026,-1.74011
1470244344020196,0.0386345,-0.161329,-1.73558
1470244344042717,0.0213496,-0.174652,-1.73289
1470244344060733,-0.000103208,-0.185756,-1.72998
1470244344080266,-0.0221128,-0.193607,-1.72981
1470244344102788,-0.0352217,-0.196301,-1.73243
1470244344120787,-0.0415788,-0.197519,-1.73509
1470244344140336,-0.0502943,-0.19969,-1.73659
1470244344162884,-0.0616409,-0.20178,-1.73829
1470244344180841,-0.0696654,-0.202935,-1.74076
1470244344200358,-0.0728945,-0.204678,-1.74203
1470244344222878,-0.0743603,-0.207902,-1.743
1470244344240895,-0.075298,-0.211081,-1.74399
1470244344260414,-0.0751286,-0.213573,-1.74537
1470244344282945,-0.0741729,-0.215616,-1.7462
1470244344300949,-0.07559,-0.217937,-1.74653
1470244344320466,-0.0787429,-0.219757,-1.74746
1470244344343022,-0.0807701,-0.219933,-1.74887
1470244344361003,-0.0806578,-0.218841,-1.74994
1470244344380521,-0.0811045,-0.218087,-1.75137
1470244344403105,-0.0830334,-0.218003,-1.75299
1470244344420556,-0.0845423,-0.217913,-1.75522
1470244344440576,-0.0851296,-0.217313,-1.75764
1470244344462681,-0.0856459,-0.216951,-1.75971
1470244344480610,-0.0865649,-0.217186,-1.7624
1470244344500146,-0.0876712,-0.217564,-1.76568
1470244344523179,-0.0876969,-0.217234,-1.76914
1470244344540663,-0.0871989,-0.216672,-1.77265
1470244344561682,-0.0856437,-0.215845,-1.77658
1470244344582702,-0.083991,-0.215222,-1.78132
1470244344600718,-0.0817827,-0.213927,-1.78624
1470244344622238,-0.0787535,-0.212015,-1.79136
1470244344642783,-0.0746082,-0.209706,-1.79673
1470244344660789,-0.0703662,-0.207299,-1.80249
1470244344681790,-0.0661361,-0.204689,-1.8083
1470244344702811,-0.0618181,-0.201534,-1.81423
1470244344720827,-0.0563016,-0.198601,-1.82152
1470244344743351,-0.0488093,-0.194474,-1.83042
1470244344762879,-0.0405353,-0.18853,-1.8401
1470244344780886,-0.0321737,-0.181214,-1.8507
1470244344801897,-0.0240764,-0.172674,-1.86327
1470244344822917,-0.0152866,-0.160995,-1.87859
1470244344840933,-0.00443094,-0.145442,-1.89594
1470244344861952,0.00974071,-0.125603,-1.91488
1470244344882970,0.0251476,-0.102675,-1.93633
1470244344900987,0.0404445,-0.0756485,-1.95991
1470244344923510,0.0551426,-0.0439916,-1.98567
1470244344943025,0.0679588,-0.00744405,-2.01375
1470244344960540,0.0796579,0.031366,-2.04549
1470244344983061,0.0880646,0.0715884,-2.07997
1470244345003088,0.0903914,0.11131,-2.11544
1470244345020595,0.0856319,0.149098,-2.15128
1470244345043114,0.076583,0.183455,-2.18715
1470244345062633,0.0664865,0.212794,-2.22475
1470244345080650,0.0569188,0.237062,-2.26475
1470244345103170,0.0447489,0.255322,-2.3078
1470244345122686,0.026729,0.265672,-2.35413
1470244345140703,-6.41486e-05,0.265149,-2.40422
1470244345169228,-0.0359538,0.252029,-2.45839
1470244345182770,-0.0798758,0.226308,-2.51634
1470244345200787,-0.126258,0.187586,-2.57687
1470244345223276,-0.164554,0.133844,-2.63573
1470244345242798,-0.203812,0.0611304,-2.69292
1470244345260810,-0.245845,-0.0277168,-2.75189
1470244345283331,-0.278737,-0.128835,-2.80611
1470244345302873,-0.301386,-0.238401,-2.84966
1470244345335967,-0.308985,-0.351604,-2.88466
1470244345343385,-0.302685,-0.467127,-2.91011
1470244345362914,-0.281667,-0.581992,-2.9295
1470244345380970,-0.250981,-0.692121,-2.94799
1470244345403439,-0.208657,-0.795124,-2.97072
1470244345423011,-0.149208,-0.889448,-2.99707
1470244345440985,-0.0579597,-0.973628,-3.03689
1470244345463492,0.0101534,-1.05332,-3.07209
1470244345483525,0.0844848,-1.1099,-3.12211
1470244345500525,0.182625,-1.14268,3.12198
1470244345523546,0.281514,-1.1597,-3.13698
1470244345543590,0.363312,-1.1628,-3.10474
1470244345566098,0.381294,-1.16464,-3.07612
1470244345582599,0.362081,-1.16368,-3.05144
1470244345603626,0.324695,-1.16232,-3.02194
1470244345626138,0.291647,-1.15897,-2.99237
1470244345642187,0.282677,-1.15465,-2.97725
1470244345663700,0.286061,-1.15217,-2.9728
1470244345686192,0.287399,-1.15025,-2.97215
1470244345702206,0.280746,-1.14773,-2.96782
1470244345723726,0.274002,-1.14471,-2.96075
1470244345739741,0.273365,-1.14027,-2.95481
1470244345768765,0.271311,-1.13491,-2.94939
1470244345783779,0.267385,-1.12961,-2.9421
1470244345806303,0.262792,-1.12376,-2.93456
1470244345822314,0.254906,-1.11641,-2.92581
1470244345844837,0.243888,-1.10822,-2.91434
1470244345859349,0.233228,-1.09959,-2.90172
1470244345882371,0.221482,-1.09057,-2.88937
1470244345905388,0.207484,-1.07981,-2.87592
1470244345919401,0.192229,-1.06818,-2.86098
1470244345942422,0.174937,-1.05538,-2.84381
1470244345964942,0.156314,-1.04138,-2.82519
1470244345985962,0.136827,-1.02656,-2.80613
1470244346002478,0.118761,-1.01095,-2.78809
1470244346024996,0.102779,-0.995249,-2.77336
1470244346046047,0.085665,-0.977966,-2.75981
1470244346062571,0.06646,-0.960101,-2.74479
1470244346085050,0.0448514,-0.942167,-2.72825
1470244346106069,0.0239112,-0.923459,-2.71344
1470244346122584,0.00330712,-0.902718,-2.69971
1470244346144604,-0.0140348,-0.881697,-2.68822
1470244346166134,-0.0327778,-0.861999,-2.67559
1470244346182137,-0.0517084,-0.843769,-2.66126
1470244346205158,-0.0671397,-0.824246,-2.64675
1470244346226201,-0.0769784,-0.801807,-2.63223
1470244346242216,-0.0801893,-0.779988,-2.62033
1470244346264763,-0.089149,-0.761913,-2.60894
1470244346286230,-0.106183,-0.743801,-2.59659
1470244346302264,-0.123049,-0.723551,-2.58231
1470244346324766,-0.1298,-0.700221,-2.56804
1470244346345786,-0.129458,-0.676618,-2.55639
1470244346362299,-0.134143,-0.655271,-2.54627
1470244346384820,-0.145057,-0.634816,-2.53494
1470244346407339,-0.153266,-0.613575,-2.52332
1470244346422353,-0.153983,-0.590774,-2.51328
1470244346444874,-0.1525,-0.567723,-2.50416
1470244346465892,-0.151817,-0.545365,-2.49598
1470244346482406,-0.149252,-0.522175,-2.4881
1470244346504931,-0.143412,-0.498479,-2.48066
1470244346525946,-0.137189,-0.47477,-2.47311
1470244346541483,-0.132395,-0.448791,-2.46374
1470244346564984,-0.126198,-0.420457,-2.45341
1470244346586002,-0.116185,-0.390615,-2.44519
1470244346602015,-0.10662,-0.360463,-2.43758
1470244346625035,-0.102073,-0.330892,-2.42929
1470244346646554,-0.0977814,-0.299669,-2.42048
1470244346661568,-0.0889735,-0.265962,-2.41253
1470244346685089,-0.0757862,-0.231628,-2.40598
1470244346713633,-0.0643396,-0.199388,-2.39989
1470244346722122,-0.0549276,-0.16814,-2.39374
1470244346752649,-0.0455427,-0.137613,-2.38685
1470244346773668,-0.0332669,-0.108273,-2.37968
1470244346781676,-0.0194305,-0.0809262,-2.37311
1470244346805197,-0.0062602,-0.0554602,-2.3675
1470244346827216,0.00588373,-0.0322484,-2.36166
1470244346841729,0.0177425,-0.0117136,-2.3559
1470244346864750,0.0297632,0.00569405,-2.35033
1470244346887771,0.0421234,0.0210779,-2.34449
1470244346908799,0.0550433,0.0343327,-2.33824
1470244346924805,0.0671821,0.0445676,-2.33215
1470244346947325,0.0788946,0.0515142,-2.32695
1470244346968925,0.0907449,0.0548022,-2.32299
1470244346984858,0.0990798,0.0539622,-2.32212
1470244347007379,0.102257,0.0498947,-2.32158
1470244347028413,0.100153,0.0422567,-2.3212
1470244347044913,0.0889769,0.0300288,-2.32085
1470244347067449,0.0690211,0.0120528,-2.32089
1470244347088482,0.037498,-0.0160217,-2.32214
1470244347104967,-0.00379335,-0.0510561,-2.32266
1470244347127486,-0.036154,-0.0852309,-2.32375
1470244347148510,-0.0553401,-0.1208,-2.32184
1470244347165033,-0.0715681,-0.164164,-2.31803
1470244347187554,-0.0888414,-0.218522,-2.31555
1470244347208599,-0.106426,-0.284491,-2.32111
1470244347224586,-0.12972,-0.359176,-2.33381
1470244347247606,-0.166585,-0.438484,-2.34499
1470244347268626,-0.20383,-0.511673,-2.34564
1470244347285140,-0.223367,-0.572982,-2.34384
1470244347307660,-0.216217,-0.624308,-2.35017
1470244347328697,-0.194809,-0.666364,-2.36233
1470244347345194,-0.176677,-0.699469,-2.37499
1470244347367214,-0.182584,-0.72725,-2.37992
1470244347388733,-0.192599,-0.745788,-2.38074
1470244347405250,-0.18945,-0.752518,-2.38219
1470244347427268,-0.177915,-0.752196,-2.38528
1470244347448789,-0.166998,-0.75032,-2.38938
1470244347465303,-0.166917,-0.747471,-2.38936
1470244347487323,-0.175319,-0.74412,-2.38655
1470244347508346,-0.182607,-0.740641,-2.38434
1470244347524355,-0.181555,-0.737708,-2.38415
1470244347547375,-0.17589,-0.73621,-2.3858
1470244347568436,-0.172628,-0.736093,-2.38687
1470244347584910,-0.174061,-0.736757,-2.38611
1470244347607430,-0.177387,-0.737174,-2.38453
1470244347628503,-0.178834,-0.737356,-2.38369
1470244347644969,-0.177858,-0.736507,-2.38339
1470244347667484,-0.176407,-0.734368,-2.38303
1470244347688503,-0.177138,-0.732354,-2.38194
1470244347705018,-0.179266,-0.730573,-2.38059
1470244347727538,-0.183009,-0.728156,-2.37881
1470244347750057,-0.185021,-0.724522,-2.37726
1470244347765071,-0.183759,-0.719689,-2.37693
1470244347787592,-0.183483,-0.71579,-2.37654
1470244347810111,-0.185322,-0.713346,-2.37601
1470244347825125,-0.188121,-0.711157,-2.3753
1470244347847645,-0.189869,-0.709256,-2.37481
1470244347877673,-0.190885,-0.707212,-2.37425
1470244347884179,-0.192043,-0.705931,-2.37378
1470244347907718,-0.194386,-0.704792,-2.37291
1470244347929735,-0.195376,-0.70276,-2.37207
1470244347944232,-0.197627,-0.700954,-2.37069
1470244347967252,-0.200288,-0.699153,-2.37047
1470244347989774,-0.204166,-0.696813,-2.37069
1470244348011316,-0.210516,-0.693157,-2.37059
1470244348027329,-0.220853,-0.686893,-2.37124
1470244348049827,-0.234651,-0.674878,-2.372
1470244348071348,-0.259231,-0.658559,-2.36731
1470244348087362,-0.288799,-0.638888,-2.36222
1470244348109881,-0.316094,-0.616609,-2.35653
1470244348130901,-0.334658,-0.591379,-2.3495
1470244348147415,-0.345111,-0.56446,-2.3424
1470244348169935,-0.349673,-0.537358,-2.33408
1470244348190954,-0.354286,-0.511203,-2.3235
1470244348207469,-0.362319,-0.486362,-2.31198
1470244348229991,-0.373542,-0.461196,-2.29901
1470244348251028,-0.382381,-0.434841,-2.28488
1470244348267522,-0.385557,-0.407368,-2.27171
1470244348290043,-0.38497,-0.379965,-2.25958
1470244348311061,-0.383922,-0.354402,-2.24814
1470244348327577,-0.384853,-0.330713,-2.2365
1470244348350097,-0.387854,-0.308205,-2.22543
1470244348378655,-0.390821,-0.286917,-2.21572
1470244348387630,-0.392727,-0.265689,-2.20647
1470244348410150,-0.392082,-0.246955,-2.1984
1470244348431175,-0.388516,-0.23005,-2.19021
1470244348447227,-0.386011,-0.214512,-2.18125
1470244348470209,-0.385756,-0.199869,-2.17268
1470244348491223,-0.383644,-0.187836,-2.16589
1470244348506740,-0.378445,-0.179697,-2.16108
1470244348529758,-0.372806,-0.174368,-2.15709
1470244348551277,-0.367752,-0.17018,-2.15214
1470244348566791,-0.367987,-0.168691,-2.1465
1470244348589841,-0.367572,-0.172439,-2.14409
1470244348611332,-0.361122,-0.176506,-2.14241
1470244348626847,-0.350151,-0.17643,-2.14072
1470244348649865,-0.343855,-0.175679,-2.13977
1470244348670886,-0.342923,-0.174559,-2.13829
1470244348686899,-0.342483,-0.173724,-2.13659
1470244348709919,-0.339775,-0.174306,-2.13639
1470244348732440,-0.336416,-0.176331,-2.137
1470244348746958,-0.333944,-0.177655,-2.13693
1470244348769974,-0.33255,-0.178479,-2.13633
1470244348792494,-0.330995,-0.178531,-2.13574
1470244348807508,-0.327202,-0.177415,-2.13684
1470244348830028,-0.322233,-0.176192,-2.13889
1470244348852549,-0.319264,-0.17471,-2.14067
1470244348867060,-0.317739,-0.172737,-2.14241
1470244348890081,-0.315497,-0.170681,-2.14385
1470244348912602,-0.311634,-0.168912,-2.14516
1470244348926619,-0.306801,-0.167953,-2.14657
1470244348950135,-0.303023,-0.167818,-2.14771
1470244348972656,-0.301654,-0.167692,-2.14894
1470244348987171,-0.301013,-0.166859,-2.14995
1470244349010215,-0.2991,-0.16602,-2.15114
1470244349033209,-0.295138,-0.164953,-2.15203
1470244349046725,-0.291184,-0.164896,-2.15305
1470244349069742,-0.288897,-0.164783,-2.15391
1470244349099798,-0.288897,-0.164783,-2.15391
1470244349106776,-0.288505,-0.165128,-2.15393
1470244349129797,-0.287342,-0.165942,-2.15446
1470244349152350,-0.286384,-0.167025,-2.15455
1470244349166830,-0.28616,-0.167537,-2.15423
1470244349189850,-0.28687,-0.167972,-2.15386
1470244349212371,-0.288348,-0.168889,-2.15388
1470244349233890,-0.291794,-0.170617,-2.154
1470244349249906,-0.299671,-0.171943,-2.15375
1470244349272425,-0.314687,-0.173025,-2.152
1470244349293977,-0.335479,-0.174591,-2.15017
1470244349309960,-0.368683,-0.177723,-2.14621
1470244349332479,-0.392882,-0.169366,-2.13164
1470244349353514,-0.405312,-0.153265,-2.09799
1470244349370013,-0.427099,-0.13454,-2.05274
1470244349392553,-0.454647,-0.115403,-2.00103
1470244349413553,-0.48375,-0.0995127,-1.94093
1470244349429566,-0.511577,-0.0884472,-1.87409
1470244349458631,-0.539618,-0.08274,-1.79994
1470244349473623,-0.566975,-0.0800753,-1.71979
1470244349489119,-0.592551,-0.0793384,-1.63687
1470244349512640,-0.612913,-0.081698,-1.55507
1470244349533701,-0.629528,-0.0870319,-1.4774
1470244349549173,-0.641433,-0.0924793,-1.40588
1470244349572694,-0.652575,-0.096425,-1.33773
1470244349593738,-0.664138,-0.0972717,-1.2767
1470244349609227,-0.672851,-0.0957909,-1.225
1470244349632748,-0.675259,-0.099447,-1.18389
1470244349655268,-0.679367,-0.103795,-1.15151
1470244349669281,-0.683755,-0.108587,-1.12718
1470244349692802,-0.685037,-0.113283,-1.10973
1470244349714822,-0.682847,-0.117546,-1.09875
1470244349737343,-0.680432,-0.121129,-1.09319
1470244349752356,-0.678357,-0.125139,-1.09326
1470244349775378,-0.675701,-0.130335,-1.09908
1470244349796395,-0.671463,-0.134993,-1.10996
1470244349812409,-0.665487,-0.138469,-1.12456
1470244349834930,-0.659736,-0.142106,-1.14269
1470244349857450,-0.654788,-0.145512,-1.16459
1470244349872463,-0.648614,-0.148425,-1.19011
1470244349894983,-0.640323,-0.152951,-1.22068
1470244349916002,-0.630063,-0.158631,-1.25714
1470244349932517,-0.618708,-0.161702,-1.29974
1470244349955038,-0.6051,-0.164843,-1.35086
1470244349976058,-0.585896,-0.167892,-1.41199
1470244349992571,-0.558672,-0.1705,-1.48392
1470244350015091,-0.526137,-0.173816,-1.56713
1470244350036125,-0.490921,-0.174625,-1.6624
1470244350052625,-0.450571,-0.170643,-1.76859
1470244350075146,-0.405426,-0.162373,-1.88433
1470244350096164,-0.355984,-0.148055,-2.00625
1470244350112679,-0.306665,-0.130357,-2.13048
1470244350135199,-0.265147,-0.116237,-2.25563
1470244350156219,-0.234562,-0.107639,-2.38149
1470244350172734,-0.215046,-0.103922,-2.5022
1470244350195253,-0.195478,-0.102743,-2.60892
1470244350216273,-0.176177,-0.10586,-2.6995
1470244350232787,-0.161974,-0.116998,-2.78193
1470244350254807,-0.145959,-0.132689,-2.85971
1470244350276327,-0.129601,-0.148204,-2.92651
1470244350292343,-0.121345,-0.162624,-2.98188
1470244350314862,-0.120159,-0.177676,-3.03078
1470244350335880,-0.114875,-0.190379,-3.07252
1470244350359901,-0.109154,-0.20314,-3.10429
1470244350374915,-0.105998,-0.210649,-3.12755
1470244350395935,-0.113187,-0.216344,3.13963
1470244350411947,-0.124462,-0.218735,3.13018
1470244350434969,-0.132371,-0.218431,3.12708
1470244350456014,-0.137783,-0.216008,3.12935
1470244350472002,-0.143775,-0.21303,3.13594
1470244350495022,-0.152208,-0.211053,-3.13615
1470244350516043,-0.162369,-0.210704,-3.12045
1470244350532055,-0.173223,-0.209557,-3.10153
1470244350555076,-0.186663,-0.205677,-3.07939
1470244350577596,-0.202103,-0.199955,-3.05318
1470244350591646,-0.219275,-0.193759,-3.02208
1470244350615130,-0.235482,-0.18718,-2.98695
1470244350637651,-0.252192,-0.177253,-2.94718
1470244350651663,-0.267399,-0.164637,-2.90271
1470244350675184,-0.280577,-0.151253,-2.85249
1470244350697705,-0.293538,-0.137309,-2.79533
1470244350718723,-0.30574,-0.121324,-2.72987
1470244350734738,-0.314279,-0.104677,-2.65627
1470244350764766,-0.317147,-0.0893001,-2.57395
1470244350779778,-0.318736,-0.0760622,-2.48229
1470244350794292,-0.319496,-0.0643715,-2.38302
1470244350800298,-0.322417,-0.0567905,-2.2763
1470244350822817,-0.329041,-0.0533793,-2.16805
1470244350848340,-0.334961,-0.0502863,-2.057
1470244350860385,-0.340451,-0.0494367,-1.93973
1470244350882896,-0.350289,-0.0516487,-1.8165
1470244350900931,-0.36803,-0.0576103,-1.69205
1470244350920439,-0.386474,-0.0628071,-1.57259
1470244350942925,-0.397543,-0.0629413,-1.46077
1470244350965459,-0.403009,-0.0625275,-1.35044
1470244350980476,-0.409177,-0.063575,-1.24392
1470244351002998,-0.417365,-0.0631785,-1.14917
1470244351025512,-0.424945,-0.0626888,-1.07254
1470244351048048,-0.431595,-0.0612489,-1.00839
1470244351063051,-0.441299,-0.061955,-0.953017
1470244351081049,-0.458901,-0.0678287,-0.908469
1470244351100565,-0.480339,-0.0866822,-0.880742
1470244351123086,-0.491122,-0.101394,-0.865417
1470244351145613,-0.498404,-0.114432,-0.856336
1470244351160620,-0.51018,-0.127583,-0.856471
1470244351183139,-0.522272,-0.142538,-0.86542
1470244351200656,-0.528046,-0.15665,-0.881874
1470244351220175,-0.52773,-0.168434,-0.905818
1470244351243194,-0.524114,-0.177205,-0.936167
1470244351265217,-0.518927,-0.184074,-0.974615
1470244351280229,-0.514731,-0.18393,-1.02127
1470244351302770,-0.509241,-0.180371,-1.07617
1470244351325270,-0.500316,-0.173165,-1.14146
1470244351343309,-0.486409,-0.162768,-1.21791
1470244351362802,-0.472131,-0.150637,-1.30473
1470244351385327,-0.457045,-0.13587,-1.40275
1470244351400348,-0.441271,-0.117592,-1.51068
1470244351422857,-0.424463,-0.0953757,-1.62593
1470244351445375,-0.405961,-0.0688747,-1.74903
1470244351460404,-0.384119,-0.0403196,-1.87738
1470244351482926,-0.360388,-0.0106772,-2.01064
1470244351514437,-0.337868,0.0165976,-2.14722
1470244351520459,-0.323647,0.0375598,-2.28495
1470244351546057,-0.314516,0.0529407,-2.41592
1470244351565543,-0.307408,0.0611162,-2.53872
1470244351580497,-0.300068,0.0574898,-2.6565
1470244351606020,-0.294301,0.0385477,-2.76979
1470244351625538,-0.295573,0.00623931,-2.87627
1470244351640567,-0.298334,-0.0290393,-2.97249
1470244351663070,-0.297444,-0.0694458,-3.05916
1470244351685592,-0.290187,-0.115698,3.14134
1470244351708111,-0.272165,-0.159094,3.06229
1470244351723124,-0.246166,-0.19561,2.99042
1470244351745645,-0.216913,-0.229233,2.92358
1470244351760665,-0.193053,-0.263419,2.86142
1470244351782679,-0.173829,-0.295227,2.80399
1470244351805700,-0.161344,-0.323165,2.75284
1470244351820713,-0.157355,-0.349556,2.70825
1470244351842733,-0.155837,-0.375668,2.66907
1470244351865254,-0.151756,-0.399696,2.6344
1470244351880266,-0.154484,-0.419649,2.60718
1470244351902801,-0.156998,-0.438131,2.58563
1470244351925309,-0.161191,-0.45581,2.57126
1470244351940351,-0.168774,-0.470049,2.56281
1470244351962870,-0.176841,-0.480474,2.56155
1470244351994432,-0.183183,-0.487335,2.56642
1470244352000454,-0.190803,-0.490085,2.57775
1470244352022894,-0.200723,-0.489155,2.59676
1470244352045415,-0.212533,-0.484206,2.62188
1470244352060428,-0.228167,-0.474276,2.65237
1470244352082979,-0.244284,-0.460592,2.68821
1470244352105472,-0.252966,-0.445084,2.72822
1470244352121984,-0.256937,-0.428004,2.77418
1470244352143002,-0.254123,-0.409799,2.82601
1470244352165533,-0.248872,-0.386754,2.87995
1470244352182037,-0.242301,-0.357564,2.93521
1470244352203056,-0.229372,-0.321427,2.99297
1470244352233592,-0.215044,-0.279678,3.05289
1470244352242092,-0.205745,-0.23499,3.11505
1470244352263110,-0.200204,-0.18909,-3.10308
1470244352285631,-0.191934,-0.143483,-3.03601
1470244352301660,-0.177086,-0.0982554,-2.96778
1470244352323183,-0.156978,-0.0551706,-2.89831
1470244352345684,-0.133042,-0.0176425,-2.82704
1470244352361699,-0.109526,0.0102122,-2.75344
1470244352383218,-0.0881645,0.0331779,-2.67696
1470244352405761,-0.0667579,0.0529859,-2.59771
1470244352429259,-0.0419185,0.0703133,-2.51908
1470244352442786,-0.0129528,0.086132,-2.44623
1470244352465291,0.0196431,0.0976671,-2.37755
1470244352483309,0.053064,0.0990557,-2.31303
1470244352502844,0.0766049,0.0912442,-2.25739
1470244352525933,0.0782649,0.0756098,-2.20677
1470244352543421,0.0610422,0.05367,-2.16095
1470244352563395,0.0373774,0.0264016,-2.12378
1470244352585445,0.0129119,-0.00546443,-2.09649
1470244352603475,-0.0136091,-0.0350628,-2.07515
1470244352622994,-0.0376359,-0.0587327,-2.05805
1470244352645453,-0.0513017,-0.0770252,-2.04857
1470244352663484,-0.0548222,-0.0903529,-2.04437
1470244352682987,-0.0587091,-0.100891,-2.04208
1470244352705507,-0.0679879,-0.111143,-2.04039
1470244352723523,-0.080135,-0.119663,-2.04016
1470244352743041,-0.0875992,-0.125457,-2.04149
1470244352765562,-0.0866966,-0.128754,-2.04378
1470244352783577,-0.0816712,-0.130813,-2.04675
1470244352803135,-0.0796037,-0.132354,-2.04994
1470244352821111,-0.0834518,-0.133612,-2.05218
1470244352843645,-0.089453,-0.135016,-2.0537
1470244352863185,-0.0944187,-0.135474,-2.05545
1470244352881243,-0.0974596,-0.135095,-2.0571
1470244352903184,-0.0997819,-0.134137,-2.05805
1470244352923202,-0.101961,-0.133986,-2.05826
1470244352940721,-0.104963,-0.135041,-2.05743
1470244352963761,-0.109372,-0.137819,-2.05581
1470244352991764,-0.114546,-0.14171,-2.05351
1470244353000772,-0.119033,-0.146136,-2.0501
1470244353023293,-0.122454,-0.150774,-2.04616
1470244353042840,-0.124339,-0.155903,-2.0421
1470244353066831,-0.125539,-0.161043,-2.03818
1470244353083346,-0.126283,-0.16617,-2.03336
1470244353104866,-0.123358,-0.169657,-2.02795
1470244353125386,-0.115988,-0.172019,-2.02248
1470244353143405,-0.106161,-0.173802,-2.01631
1470244353164419,-0.0937845,-0.176105,-2.0097
1470244353185470,-0.0741362,-0.176568,-2.00397
1470244353203489,-0.0475039,-0.174773,-1.99891
1470244353224474,-0.0192225,-0.170397,-1.99402
1470244353245494,0.010898,-0.161855,-1.99152
1470244353271015,0.0438139,-0.146972,-1.99255
1470244353284527,0.081322,-0.119082,-1.99902
1470244353305581,0.12253,-0.0761704,-2.01128
1470244353322563,0.163184,-0.0165716,-2.02764
1470244353343585,0.199588,0.0616705,-2.04914
1470244353373607,0.229969,0.157364,-2.07563
1470244353382617,0.251267,0.264912,-2.10766
1470244353403652,0.261081,0.376583,-2.14064
1470244353426173,0.259554,0.486031,-2.17244
1470244353442669,0.257479,0.587898,-2.20124
1470244353465189,0.263379,0.681887,-2.22693
1470244353486241,0.276338,0.767361,-2.24946
1470244353502723,0.292545,0.840685,-2.26681
1470244353525242,0.309066,0.897323,-2.27534
1470244353548765,0.320496,0.93644,-2.27766
1470244353562777,0.324357,0.961497,-2.27902
1470244353584798,0.325456,0.970809,-2.27862
1470244353606316,0.326107,0.970895,-2.27889
1470244353622830,0.334309,0.955522,-2.27321
1470244353645852,0.338524,0.922536,-2.2671
1470244353665869,0.340988,0.872798,-2.25654
1470244353682885,0.326471,0.805927,-2.24726
1470244353704905,0.304831,0.726169,-2.23677
1470244353726424,0.284594,0.637119,-2.22046
1470244353742438,0.270566,0.539866,-2.19825
1470244353764958,0.248938,0.431041,-2.17408
1470244353785977,0.219499,0.316401,-2.14801
1470244353802492,0.189005,0.203577,-2.11508
1470244353825012,0.152851,0.101287,-2.08183
1470244353846032,0.121669,0.0177096,-2.04955
1470244353862546,0.0988136,-0.0521995,-2.01688
1470244353885066,0.0716924,-0.110364,-1.98755
1470244353906085,0.0333126,-0.153659,-1.96299
1470244353922600,-0.0132193,-0.185847,-1.94523
1470244353945120,-0.0504044,-0.20869,-1.93595
1470244353966140,-0.0722694,-0.224197,-1.93154
1470244353982653,-0.0887277,-0.238958,-1.92789
1470244354005174,-0.111541,-0.254918,-1.92049
1470244354026193,-0.139792,-0.267717,-1.91266
1470244354042708,-0.155678,-0.275974,-1.91053
1470244354065228,-0.147994,-0.282247,-1.912
1470244354086247,-0.133952,-0.286805,-1.91041
1470244354102761,-0.13244,-0.290988,-1.90397
1470244354125091,-0.142767,-0.294924,-1.89812
1470244354146111,-0.150169,-0.296667,-1.89458
1470244354161624,-0.14634,-0.29832,-1.89476
1470244354185149,-0.137951,-0.301399,-1.89496
1470244354207667,-0.13556,-0.305795,-1.89337
1470244354221679,-0.136605,-0.308829,-1.89079
1470244354245199,-0.131527,-0.309675,-1.88822
1470244354266217,-0.11766,-0.309777,-1.88581
1470244354281732,-0.102068,-0.309646,-1.88343
1470244354304910,-0.0899681,-0.307286,-1.87948
1470244354325930,-0.0770876,-0.301094,-1.87586
1470244354341944,-0.0566008,-0.291047,-1.87753
1470244354372471,-0.0300131,-0.272471,-1.88468
1470244354387484,-0.00475873,-0.235352,-1.89421
1470244354401998,0.0187093,-0.18412,-1.90742
1470244354425018,0.0416475,-0.119815,-1.92467
1470244354448039,0.0606784,-0.0410758,-1.94494
1470244354462052,0.0743552,0.0508739,-1.9669
1470244354485072,0.0858504,0.153294,-1.99075
1470244354507592,0.0969518,0.262684,-2.01763
1470244354528635,0.106463,0.37237,-2.04467
1470244354545126,0.112148,0.473518,-2.07016
1470244354567649,0.11507,0.560025,-2.09077
1470244354588697,0.121467,0.630751,-2.10527
1470244354611241,0.139817,0.684164,-2.11083
1470244354627701,0.168594,0.71861,-2.10574
1470244354648719,0.200956,0.732303,-2.08903
1470244354665234,0.22381,0.724753,-2.06813
1470244354687754,0.229047,0.695846,-2.05193
1470244354708773,0.220785,0.644266,-2.03969
1470244354725287,0.20178,0.579206,-2.03025
1470244354747808,0.175351,0.502019,-2.02206
1470244354768826,0.143243,0.415705,-2.01547
1470244354784841,0.10571,0.323788,-2.00678
1470244354807862,0.0660982,0.23049,-1.99667
1470244354828883,0.0305512,0.1396,-1.984
1470244354844902,0.000383869,0.0567854,-1.96759
1470244354867415,-0.025475,-0.0189911,-1.94661
1470244354888934,-0.0474929,-0.0901869,-1.92507
1470244354904949,-0.0672713,-0.149554,-1.9025
1470244354927471,-0.0830617,-0.197782,-1.87837
1470244354948488,-0.0873435,-0.239501,-1.85679
1470244354965003,-0.0770417,-0.274373,-1.84012
1470244354987523,-0.0698309,-0.2994,-1.82381
1470244355008572,-0.0637793,-0.316645,-1.81179
1470244355025057,-0.0436677,-0.319048,-1.80953
1470244355047577,-0.0148646,-0.30299,-1.81455
1470244355068596,0.0103908,-0.268427,-1.82849
1470244355092618,0.0256641,-0.220558,-1.85302
1470244355107631,0.0322899,-0.157114,-1.88491
1470244355128666,0.0393405,-0.0752838,-1.92222
1470244355144664,0.0501243,0.0233146,-1.9621
1470244355167687,0.0589771,0.132623,-2.00464
1470244355188706,0.0596686,0.247765,-2.04892
1470244355212726,0.0517518,0.36244,-2.09285
1470244355227738,0.0388725,0.469604,-2.13664
1470244355248774,0.0272687,0.565407,-2.17774
1470244355264271,0.0172147,0.645807,-2.2136
1470244355287793,0.0120589,0.710632,-2.24034
1470244355308811,0.0186215,0.75778,-2.25113
1470244355324326,0.0319558,0.784766,-2.24752
1470244355347346,0.0444287,0.787931,-2.23377
1470244355369867,0.0458246,0.763944,-2.21784
1470244355384382,0.0425942,0.71167,-2.19654
1470244355407428,0.0374642,0.641229,-2.16997
1470244355429920,0.0281754,0.555905,-2.13828
1470244355444433,0.00968373,0.45495,-2.10394
1470244355467454,-0.0172426,0.343559,-2.06862
1470244355489974,-0.0447057,0.22978,-2.02967
1470244355510993,-0.0710829,0.119223,-1.99242
1470244355527510,-0.0869444,0.0191556,-1.95527
1470244355550028,-0.0933816,-0.0720316,-1.91337
1470244355571047,-0.106911,-0.150957,-1.87301
1470244355587565,-0.123422,-0.213119,-1.83739
1470244355610083,-0.132952,-0.255466,-1.80774
1470244355631150,-0.127471,-0.282119,-1.7874
1470244355647616,-0.112715,-0.291832,-1.78044
1470244355670136,-0.0976224,-0.28452,-1.78471
1470244355691184,-0.0886456,-0.262552,-1.79817
1470244355707670,-0.0817785,-0.22267,-1.82199
1470244355730192,-0.0726892,-0.166124,-1.85661
1470244355751210,-0.0658618,-0.0883989,-1.90113
1470244355767724,-0.0609622,0.0146892,-1.95272
1470244355790244,-0.0597418,0.133462,-2.01176
1470244355811262,-0.07125,0.256212,-2.07611
1470244355827778,-0.099724,0.37328,-2.14153
1470244355849802,-0.135314,0.479449,-2.20433
1470244355871316,-0.16808,0.569267,-2.26045
1470244355887832,-0.190618,0.639804,-2.30248
1470244355909858,-0.193254,0.690177,-2.32524
1470244355931483,-0.179697,0.721352,-2.32876
1470244355947387,-0.158755,0.730704,-2.30999
1470244355969905,-0.149965,0.717349,-2.27925
1470244355991425,-0.149193,0.678408,-2.24136
1470244356007439,-0.151236,0.624181,-2.20162
1470244356029963,-0.154374,0.558159,-2.16297
1470244356050992,-0.165065,0.48276,-2.12089
1470244356066992,-0.187086,0.401517,-2.07311
1470244356090014,-0.219134,0.316057,-2.019
1470244356111050,-0.259423,0.230437,-1.95886
1470244356127047,-0.302046,0.149999,-1.89377
1470244356150069,-0.341476,0.0788831,-1.82202
1470244356171098,-0.380606,0.0149484,-1.74202
1470244356187100,-0.424713,-0.0412396,-1.65625
1470244356210121,-0.474485,-0.0831451,-1.57562
1470244356231157,-0.520571,-0.108326,-1.49632
1470244356247154,-0.563495,-0.123799,-1.41598
1470244356270175,-0.603538,-0.133862,-1.33817
1470244356292695,-0.642308,-0.135262,-1.27212
1470244356306713,-0.673476,-0.125425,-1.21528
1470244356330228,-0.693606,-0.110486,-1.16448
1470244356352749,-0.705248,-0.0932977,-1.11812
1470244356366762,-0.715356,-0.0746047,-1.07409
1470244356390282,-0.728058,-0.0570332,-1.03141
1470244356412803,-0.738513,-0.0419155,-0.991226
1470244356433822,-0.743251,-0.0297314,-0.950828
1470244356450337,-0.738995,-0.0188602,-0.908525
1470244356472857,-0.730326,-0.0106074,-0.866654
1470244356493945,-0.726361,-0.0087876,-0.825102
1470244356509896,-0.730225,-0.0119424,-0.785985
1470244356532418,-0.739363,-0.0159531,-0.752899
1470244356553992,-0.746225,-0.0193621,-0.723297
1470244356569944,-0.747396,-0.0192092,-0.694265
1470244356592464,-0.751158,-0.0198952,-0.669387
1470244356613483,-0.758752,-0.0238177,-0.646014
1470244356629998,-0.765783,-0.0272918,-0.626183
1470244356652519,-0.768405,-0.0279103,-0.614481
1470244356673549,-0.768161,-0.0242155,-0.60833
1470244356690052,-0.766351,-0.0170029,-0.604516
1470244356712572,-0.764686,-0.00773748,-0.601274
1470244356733593,-0.766135,0.000396296,-0.598373
1470244356750105,-0.768613,0.00599813,-0.595578
1470244356772627,-0.764051,0.00883945,-0.592721
1470244356793660,-0.748864,0.0110575,-0.588934
1470244356810160,-0.732871,0.0139866,-0.583871
1470244356832682,-0.724813,0.0173644,-0.578731
1470244356853700,-0.721129,0.0180422,-0.575824
1470244356870216,-0.721327,0.016744,-0.572648
1470244356892733,-0.729219,0.0157963,-0.569417
1470244356913769,-0.73305,0.0154604,-0.568117
1470244356930267,-0.734045,0.0175892,-0.56892
1470244356952787,-0.73177,0.0211707,-0.568391
1470244356973807,-0.728901,0.0253596,-0.565979
1470244356990321,-0.725065,0.0299377,-0.562507
1470244357012341,-0.718976,0.0347386,-0.558965
1470244357033884,-0.710141,0.0402184,-0.556429
1470244357049376,-0.698895,0.0466144,-0.555228
1470244357072896,-0.686323,0.0525483,-0.552843
1470244357093914,-0.674556,0.0582164,-0.55083
1470244357109429,-0.66498,0.0643698,-0.54991
1470244357132950,-0.656416,0.0715857,-0.549877
1470244357153982,-0.648877,0.0786491,-0.550927
1470244357176013,-0.643828,0.0845861,-0.552953
1470244357192507,-0.641081,0.0900627,-0.554998
1470244357214030,-0.639294,0.0934324,-0.556032
1470244357229536,-0.63671,0.09507,-0.556895
1470244357252557,-0.634071,0.0960478,-0.557792
1470244357275077,-0.635654,0.0947359,-0.558511
1470244357289592,-0.639832,0.0917922,-0.558612
1470244357312613,-0.64521,0.0863059,-0.559333
1470244357335131,-0.652274,0.0790673,-0.558343
1470244357356174,-0.664543,0.0736524,-0.561177
1470244357372665,-0.67722,0.0743256,-0.565983
1470244357395185,-0.687624,0.0740982,-0.570715
1470244357416206,-0.692443,0.0758227,-0.574331
1470244357433219,-0.696265,0.0788557,-0.576553
1470244357455239,-0.698869,0.0835242,-0.575182
1470244357476257,-0.702166,0.0871381,-0.570824
1470244357492773,-0.708333,0.0887171,-0.565474
1470244357514793,-0.717511,0.0891127,-0.558494
1470244357536312,-0.736345,0.0886676,-0.55334
1470244357552326,-0.743469,0.0871321,-0.553155
1470244357574846,-0.739237,0.0867176,-0.560884
1470244357596408,-0.727908,0.0904878,-0.573092
1470244357613881,-0.714368,0.095346,-0.58071
1470244357635401,-0.712778,0.0996731,-0.581716
1470244357656483,-0.708586,0.103571,-0.581718
1470244357672934,-0.688601,0.111889,-0.583778
1470244357694954,-0.671333,0.119018,-0.585211
1470244357715988,-0.665507,0.123281,-0.584734
1470244357740495,-0.661272,0.125565,-0.584727
1470244357755008,-0.660394,0.125854,-0.583744
1470244357776544,-0.663504,0.124692,-0.581286
1470244357792556,-0.665576,0.120741,-0.579521
1470244357815062,-0.668543,0.116872,-0.578871
1470244357836633,-0.677781,0.115866,-0.582284
1470244357852095,-0.693336,0.111649,-0.597308
1470244357881188,-0.704767,0.106528,-0.60701
1470244357896180,-0.710766,0.104704,-0.609904
1470244357912149,-0.71429,0.101137,-0.60884
1470244357935174,-0.717316,0.0971728,-0.605491
1470244357963697,-0.722775,0.0941949,-0.604015
1470244357972704,-0.728706,0.0952006,-0.606613
1470244357995231,-0.737911,0.098829,-0.60727
1470244358016284,-0.744397,0.0981688,-0.604021
1470244358031787,-0.747356,0.0952076,-0.602231
1470244358062784,-0.730829,0.0926085,-0.608943
1470244358076297,-0.70946,0.0954559,-0.617282
1470244358091810,-0.697329,0.102599,-0.619067
1470244358114831,-0.681387,0.112007,-0.618164
1470244358138353,-0.657864,0.125429,-0.62
1470244358151864,-0.636595,0.139398,-0.624242
1470244358175385,-0.625756,0.147848,-0.625528
1470244358197407,-0.62583,0.149231,-0.623211
1470244358211918,-0.627759,0.14925,-0.617509
1470244358234957,-0.623553,0.151905,-0.610584
1470244358257459,-0.617633,0.15533,-0.607636
1470244358278978,-0.620812,0.153576,-0.607738
1470244358295041,-0.633361,0.146846,-0.606681
1470244358317558,-0.643319,0.137164,-0.614809
1470244358339032,-0.661261,0.126307,-0.624678
1470244358356048,-0.673567,0.120662,-0.635853
1470244358372062,-0.687693,0.114077,-0.640614
1470244358386075,-0.694304,0.113575,-0.640501
1470244358407093,-0.696354,0.114599,-0.637717
1470244358430115,-0.694479,0.102903,-0.633789
1470244358444627,-0.705155,0.116626,-0.631197
1470244358467147,-0.712778,0.107615,-0.625519
1470244358490168,-0.720948,0.100952,-0.616421
1470244358504180,-0.744254,0.109695,-0.608789
1470244358526703,-0.730229,0.0887058,-0.607304
1470244358550225,-0.708766,0.0916012,-0.615142
1470244358571241,-0.671633,0.0880999,-0.62271
1470244358586271,-0.654626,0.105278,-0.623737
1470244358600767,-0.64422,0.126919,-0.618343
1470244358622787,-0.63091,0.146304,-0.614374
1470244358646338,-0.621936,0.160096,-0.61298
1470244358660822,-0.621401,0.166652,-0.608853
1470244358683341,-0.625227,0.157376,-0.606613
1470244358706361,-0.62858,0.12171,-0.606447
1470244358720374,-0.633615,0.0920496,-0.614924
1470244358742897,-0.643804,0.0696583,-0.629758
1470244358766417,-0.654095,0.0574479,-0.639968
1470244358780431,-0.663813,0.0512532,-0.642145
1470244358811957,-0.670845,0.049815,-0.642489
1470244358826470,-0.66924,0.0506671,-0.643515
1470244358840483,-0.666153,0.0512539,-0.642341
1470244358863003,-0.668472,0.0501497,-0.638214
1470244358878017,-0.673842,0.0480802,-0.634013
1470244358900537,-0.679243,0.0454129,-0.630407
1470244358924064,-0.682255,0.0434532,-0.627396
1470244358938071,-0.685488,0.0434704,-0.623217
1470244358960605,-0.69226,0.0442231,-0.617343
1470244358983126,-0.701091,0.0436945,-0.611565
1470244359006131,-0.708173,0.0408866,-0.606187
1470244359020661,-0.712395,0.0379839,-0.603069
1470244359043165,-0.712095,0.0357272,-0.603131
1470244359066187,-0.708081,0.0340528,-0.6066
1470244359080758,-0.706849,0.0350936,-0.612268
1470244359103283,-0.708816,0.0384454,-0.618704
1470244359126240,-0.709858,0.0436894,-0.624759
1470244359140752,-0.706228,0.0486092,-0.628009
1470244359163283,-0.69931,0.0519335,-0.629907
1470244359186324,-0.692305,0.0543189,-0.630593
1470244359200806,-0.685415,0.0562962,-0.631129
1470244359223326,-0.680276,0.0578589,-0.631372
1470244359245847,-0.677631,0.0587669,-0.631595
1470244359260860,-0.672471,0.0601176,-0.63038
1470244359284383,-0.665682,0.061642,-0.628597
1470244359305901,-0.660341,0.0639795,-0.62744
1470244359320439,-0.656322,0.0666019,-0.627125
1470244359343500,-0.652528,0.0689396,-0.626434
1470244359365502,-0.649767,0.0712634,-0.626177
1470244359380467,-0.647261,0.0737458,-0.626409
1470244359403018,-0.645837,0.0762222,-0.626775
1470244359421004,-0.644369,0.0781432,-0.626969
1470244359440524,-0.644238,0.0781776,-0.626956
1470244359463076,-0.644215,0.0778461,-0.626696
1470244359481063,-0.644753,0.077034,-0.626638
1470244359500576,-0.645056,0.0767523,-0.626704
1470244359523158,-0.645762,0.0767342,-0.626939
1470244359541149,-0.646715,0.0775751,-0.62684
1470244359560629,-0.647973,0.0781605,-0.625871
1470244359583152,-0.650517,0.0780924,-0.624063
1470244359601166,-0.651966,0.0780418,-0.622925
1470244359620702,-0.652989,0.0780498,-0.622655
1470244359643205,-0.655969,0.077851,-0.623044
1470244359660720,-0.66024,0.0769546,-0.622949
1470244359680738,-0.663658,0.0755256,-0.622811
1470244359703257,-0.6672,0.0741004,-0.622555
1470244359721274,-0.671224,0.0738585,-0.621979
1470244359741794,-0.675755,0.0734677,-0.621433
1470244359763311,-0.680352,0.0713987,-0.621375
1470244359781371,-0.684566,0.0693025,-0.621635
1470244359801847,-0.688991,0.0672059,-0.622213
1470244359823365,-0.690639,0.0657657,-0.622871
1470244359840881,-0.691425,0.0659023,-0.62248
1470244359861900,-0.692574,0.0655187,-0.62184
1470244359882919,-0.694028,0.0630521,-0.620605
1470244359900944,-0.694052,0.0601773,-0.619817
1470244359923455,-0.693511,0.0575207,-0.619302
1470244359943002,-0.692669,0.0558194,-0.619354
1470244359961003,-0.692254,0.0555632,-0.61976
1470244359982008,-0.69137,0.0565052,-0.620099
1470244360003029,-0.691514,0.0574692,-0.62075
1470244360021043,-0.691247,0.0588048,-0.621476
1470244360042089,-0.690501,0.0600297,-0.621008
1470244360063134,-0.688626,0.0605162,-0.620098
1470244360085603,-0.686276,0.0611684,-0.619191
1470244360103660,-0.684009,0.0623491,-0.61862
1470244360123135,-0.681523,0.0644729,-0.618212
1470244360141150,-0.678971,0.0670669,-0.618102
1470244360163699,-0.675382,0.0699578,-0.618491
1470244360183211,-0.670824,0.0725869,-0.619309
1470244360201204,-0.666743,0.0755995,-0.620598
1470244360223724,-0.662681,0.0788947,-0.622249
1470244360243251,-0.658651,0.0822919,-0.623916
1470244360261371,-0.655251,0.0860368,-0.625262
1470244360283280,-0.65164,0.0892858,-0.626258
1470244360303296,-0.648289,0.0921042,-0.627145
1470244360320812,-0.645505,0.0945126,-0.627418
1470244360343332,-0.643704,0.0961599,-0.627846
1470244360363350,-0.642325,0.0972109,-0.62799
1470244360380866,-0.641361,0.0983409,-0.627965
1470244360403887,-0.639853,0.0994265,-0.628094
1470244360423404,-0.638223,0.100383,-0.628448
1470244360440921,-0.637096,0.100913,-0.628719
1470244360463441,-0.636643,0.101365,-0.629082
1470244360482986,-0.636513,0.101313,-0.629301
1470244360501003,-0.637111,0.100388,-0.62908
1470244360523494,-0.63914,0.0975312,-0.628419
1470244360543039,-0.642018,0.0934813,-0.627192
1470244360561029,-0.644187,0.089867,-0.62653
1470244360583605,-0.64619,0.0859257,-0.626275
1470244360603094,-0.649939,0.0792803,-0.625615
1470244360625612,-0.664872,0.0677149,-0.626711
1470244360643605,-0.691264,0.0520516,-0.630558
1470244360663180,-0.717296,0.0378354,-0.638791
1470244360685656,-0.727977,0.0286449,-0.64888
1470244360703685,-0.72518,0.0172375,-0.664776
1470244360724676,-0.727723,0.00363257,-0.680807
1470244360745699,-0.729653,-0.00823899,-0.699866
1470244360763709,-0.726252,-0.0147127,-0.724161
1470244360784733,-0.718247,-0.0170008,-0.751614
1470244360805747,-0.707128,-0.0182201,-0.782912
1470244360823763,-0.694156,-0.021622,-0.818265
1470244360844784,-0.683086,-0.0292363,-0.855883
1470244360865802,-0.668956,-0.0354229,-0.896651
1470244360883817,-0.651113,-0.0397511,-0.942644
1470244360904836,-0.633732,-0.0492523,-0.99003
1470244360925855,-0.615826,-0.0610273,-1.03884
1470244360943370,-0.59733,-0.0734969,-1.08794
1470244360964404,-0.575962,-0.0848356,-1.13759
1470244360985408,-0.552781,-0.0950857,-1.18817
1470244361003532,-0.533562,-0.105888,-1.23825
1470244361033539,-0.515623,-0.115578,-1.28737
1470244361045465,-0.495304,-0.123339,-1.33298
1470244361063484,-0.473105,-0.129385,-1.37574
1470244361086071,-0.452372,-0.134659,-1.41539
1470244361105518,-0.43583,-0.138747,-1.45287
1470244361123032,-0.423531,-0.142217,-1.48807
1470244361145053,-0.411017,-0.142132,-1.52123
1470244361166071,-0.397866,-0.144207,-1.55115
1470244361182586,-0.386898,-0.144105,-1.58336
1470244361205607,-0.378747,-0.144451,-1.61439
1470244361227648,-0.371824,-0.144022,-1.64394
1470244361242641,-0.363509,-0.142192,-1.67314
1470244361265160,-0.356268,-0.140232,-1.70139
1470244361286207,-0.355372,-0.140224,-1.72943
1470244361302693,-0.355984,-0.139537,-1.75625
1470244361325214,-0.354739,-0.137152,-1.78118
1470244361346251,-0.353931,-0.134785,-1.80453
1470244361362749,-0.354828,-0.134339,-1.82649
1470244361392774,-0.357253,-0.134455,-1.84642
1470244361406289,-0.360494,-0.134911,-1.86338
1470244361422801,-0.361773,-0.135625,-1.87803
1470244361445321,-0.363972,-0.139119,-1.89041
1470244361466344,-0.367531,-0.144592,-1.89927
1470244361482855,-0.373297,-0.151835,-1.90528
1470244361505375,-0.377557,-0.160183,-1.90917
1470244361526396,-0.383468,-0.167955,-1.91036
1470244361542412,-0.388824,-0.174074,-1.91006
1470244361565430,-0.392331,-0.178277,-1.90995
1470244361587449,-0.392961,-0.175186,-1.91543
1470244361602468,-0.384045,-0.165935,-1.91992
1470244361624983,-0.376098,-0.160794,-1.92319
1470244361646006,-0.380308,-0.157917,-1.92562
1470244361662537,-0.386844,-0.155515,-1.92735
1470244361685037,-0.38615,-0.153585,-1.92986
1470244361706585,-0.383393,-0.15159,-1.93058
1470244361722571,-0.381585,-0.14967,-1.92993
1470244361745091,-0.378636,-0.147615,-1.92926
1470244361766251,-0.374073,-0.145496,-1.92893
1470244361782625,-0.368611,-0.143304,-1.92911
1470244361805145,-0.363326,-0.140523,-1.92921
1470244361826165,-0.358838,-0.137834,-1.92945
1470244361842678,-0.355353,-0.135188,-1.92942
1470244361865199,-0.352437,-0.132873,-1.92907
1470244361886234,-0.350546,-0.130915,-1.92865
1470244361902732,-0.34923,-0.129215,-1.92853
1470244361925252,-0.347919,-0.127391,-1.92868
1470244361946287,-0.346838,-0.125776,-1.92926
1470244361962285,-0.346474,-0.124116,-1.92979
1470244361985306,-0.346833,-0.122463,-1.93063
1470244362007827,-0.347843,-0.120513,-1.93149
1470244362022840,-0.34925,-0.118511,-1.93277
1470244362045360,-0.350717,-0.116452,-1.93398
1470244362067880,-0.352301,-0.114378,-1.93558
1470244362082397,-0.354163,-0.112165,-1.93752
1470244362105414,-0.35676,-0.109934,-1.93958
1470244362127935,-0.35957,-0.107404,-1.9416
1470244362141949,-0.362458,-0.105047,-1.94403
1470244362165468,-0.365443,-0.102645,-1.94653
1470244362187487,-0.368387,-0.10005,-1.94948
1470244362202004,-0.371028,-0.0976652,-1.95239
1470244362225023,-0.373337,-0.0956214,-1.95501
1470244362247543,-0.375311,-0.093669,-1.95767
1470244362262055,-0.376964,-0.0918696,-1.95991
1470244362285076,-0.378266,-0.0901066,-1.96182
1470244362307609,-0.378704,-0.0887249,-1.96344
1470244362322110,-0.378339,-0.0873222,-1.96443
1470244362345129,-0.377435,-0.0863323,-1.96484
1470244362367650,-0.377271,-0.0863147,-1.96498
1470244362382162,-0.375301,-0.086303,-1.96427
1470244362405185,-0.372401,-0.0869401,-1.96282
1470244362427704,-0.369181,-0.0893019,-1.96042
1470244362448766,-0.366744,-0.0943533,-1.95631
1470244362465237,-0.364848,-0.103168,-1.95035
1470244362487758,-0.365027,-0.115461,-1.94216
1470244362508791,-0.365443,-0.130309,-1.93098
1470244362525291,-0.359334,-0.149106,-1.91774
1470244362547812,-0.349407,-0.16806,-1.90548
1470244362568850,-0.348004,-0.180089,-1.89103
1470244362585344,-0.346081,-0.179113,-1.88386
1470244362607866,-0.318003,-0.161005,-1.88089
1470244362628887,-0.264278,-0.126467,-1.88427
1470244362646036,-0.22339,-0.0772149,-1.89401
1470244362667421,-0.198878,-0.0129432,-1.90464
1470244362689440,-0.178065,0.0597232,-1.91861
1470244362704452,-0.151282,0.136425,-1.9348
1470244362727473,-0.122101,0.213225,-1.95275
1470244362748992,-0.0920842,0.286506,-1.96963
1470244362764506,-0.0623254,0.353119,-1.98316
1470244362787527,-0.0351894,0.411329,-1.99244
1470244362808547,-0.00943032,0.460626,-1.99748
1470244362824560,0.0181959,0.500369,-1.99773
1470244362847603,0.0452131,0.528192,-1.99703
1470244362869116,0.0712923,0.542046,-1.99496
1470244362884615,0.0891144,0.539132,-1.99319
1470244362907635,0.096458,0.518476,-1.99194
1470244362930155,0.0946765,0.48,-1.98866
1470244362944668,0.0795236,0.426295,-1.9868
1470244362967726,0.056401,0.361372,-1.9851
1470244362990211,0.0280091,0.289207,-1.98331
1470244363004721,-0.0013763,0.213115,-1.98066
1470244363027742,-0.0285139,0.137124,-1.9766
1470244363050275,-0.0565437,0.0670436,-1.9716
1470244363071312,-0.0830426,0.00482048,-1.967
1470244363087796,-0.104061,-0.0468168,-1.96222
1470244363110817,-0.121506,-0.0876406,-1.95777
1470244363131837,-0.136278,-0.117395,-1.95332
1470244363147850,-0.150388,-0.138963,-1.94908
1470244363170371,-0.161099,-0.155139,-1.94475
1470244363191405,-0.16264,-0.165946,-1.94106
1470244363207904,-0.149824,-0.171183,-1.93759
1470244363230424,-0.125588,-0.17158,-1.93313
1470244363258958,-0.101794,-0.168236,-1.92883
1470244363267459,-0.0788051,-0.159178,-1.92767
1470244363290026,-0.0520161,-0.139152,-1.92994
1470244363311586,-0.0233663,-0.104055,-1.93494
1470244363327511,0.00546137,-0.0558997,-1.94411
1470244363350032,0.0297852,0.00510493,-1.95593
1470244363371051,0.0493321,0.0770627,-1.97097
1470244363387568,0.0671352,0.157075,-1.98963
1470244363410086,0.0827264,0.238863,-2.00979
1470244363431605,0.0960591,0.317507,-2.02864
1470244363447620,0.108755,0.388297,-2.04281
1470244363470142,0.121611,0.448694,-2.0511
1470244363491696,0.136399,0.498364,-2.05336
1470244363514234,0.153945,0.537213,-2.05197
1470244363530194,0.17236,0.566655,-2.04975
1470244363551231,0.193256,0.583636,-2.04687
1470244363567727,0.21045,0.588601,-2.04497
1470244363590247,0.218268,0.580116,-2.04359
1470244363611268,0.212388,0.558252,-2.04278
1470244363627781,0.194231,0.526202,-2.04344
1470244363650303,0.168522,0.484738,-2.04598
1470244363671351,0.13836,0.435885,-2.0508
1470244363695341,0.110562,0.38321,-2.05489
1470244363710355,0.0837228,0.325477,-2.05723
1470244363731374,0.0535628,0.263941,-2.0558
1470244363746888,0.0207298,0.203042,-2.05071
1470244363769909,-0.00593119,0.145526,-2.04136
1470244363791428,-0.0228445,0.0896426,-2.02662
1470244363813956,-0.0355527,0.0366843,-2.0074
1470244363830463,-0.0454411,-0.00959228,-1.98678
1470244363851482,-0.0474354,-0.0476363,-1.96628
1470244363866996,-0.0360559,-0.0784457,-1.9448
1470244363890017,-0.0182924,-0.105082,-1.92726
1470244363920044,0.00213132,-0.126865,-1.91743
1470244363927050,0.0275226,-0.14176,-1.91667
1470244363950072,0.0614028,-0.152332,-1.92674
1470244363972592,0.102219,-0.15862,-1.95031
1470244363987104,0.142586,-0.160542,-1.98682
1470244364010125,0.169296,-0.157479,-2.03305
1470244364032644,0.188801,-0.154039,-2.08825
1470244364053697,0.206985,-0.148944,-2.15342
1470244364070178,0.229576,-0.14196,-2.22859
1470244364092701,0.255055,-0.134528,-2.3105
1470244364113734,0.278512,-0.127828,-2.39721
1470244364130232,0.29845,-0.122536,-2.48797
1470244364152754,0.315004,-0.118903,-2.58161
1470244364173796,0.329298,-0.116806,-2.67642
1470244364197795,0.34186,-0.116714,-2.77104
1470244364212808,0.350383,-0.119505,-2.86551
1470244364233825,0.355006,-0.126237,-2.95852
1470244364250340,0.353557,-0.135069,-3.04888
1470244364272860,0.346234,-0.146143,-3.13576
1470244364293894,0.333864,-0.158453,3.06543
1470244364309919,0.318214,-0.172216,2.9884
1470244364332414,0.301326,-0.185673,2.91837
1470244364353933,0.284568,-0.198468,2.85639
1470244364370447,0.269324,-0.210721,2.80358
1470244364392468,0.256047,-0.222745,2.7605
1470244364413987,0.240373,-0.236132,2.72746
1470244364430502,0.225458,-0.247346,2.7045
1470244364452522,0.216704,-0.257493,2.69068
1470244364474041,0.214235,-0.266145,2.68353
1470244364490055,0.209579,-0.273193,2.68225
1470244364512591,0.204899,-0.279924,2.68695
1470244364533623,0.208124,-0.285965,2.69549
1470244364550111,0.21174,-0.289698,2.70638
1470244364572629,0.210428,-0.292441,2.72089
1470244364594158,0.209655,-0.294708,2.73893
1470244364609663,0.211359,-0.294976,2.7598
1470244364632702,0.21167,-0.292843,2.78321
1470244364653707,0.210717,-0.28867,2.80941
1470244364669716,0.211028,-0.283054,2.83798
1470244364692737,0.212872,-0.276656,2.86851
1470244364713758,0.214087,-0.268626,2.90072
1470244364729270,0.214468,-0.258991,2.93446
1470244364753292,0.215784,-0.248185,2.96958
1470244364773823,0.218255,-0.236983,3.00466
1470244364796331,0.220679,-0.225367,3.03964
1470244364812845,0.223695,-0.213545,3.07343
1470244364835365,0.22538,-0.201588,3.10538
1470244364849380,0.225312,-0.191063,3.13596
1470244364872901,0.226637,-0.182662,-3.11827
1470244364894918,0.231823,-0.175399,-3.09088
1470244364909432,0.237577,-0.167636,-3.06416
1470244364932453,0.240391,-0.158604,-3.03862
1470244364955974,0.241443,-0.149459,-3.01563
1470244364976492,0.242432,-0.142281,-2.99581
1470244364992506,0.244604,-0.137619,-2.97955
1470244365015037,0.248048,-0.134982,-2.96707
1470244365036546,0.25195,-0.133871,-2.95773
1470244365052598,0.256059,-0.133796,-2.95125
1470244365075084,0.259891,-0.134594,-2.94749
1470244365096099,0.262336,-0.136786,-2.94602
1470244365112617,0.265663,-0.139619,-2.94781
1470244365135136,0.269851,-0.143329,-2.95275
1470244365156154,0.273984,-0.148485,-2.96038
1470244365173169,0.276347,-0.154836,-2.97029
1470244365195191,0.277001,-0.161584,-2.98317
1470244365216719,0.27822,-0.168481,-2.99943
1470244365232724,0.281044,-0.177177,-3.01945
1470244365255243,0.286494,-0.188225,-3.04276
1470244365276294,0.292578,-0.200505,-3.06828
1470244365292798,0.299383,-0.212044,-3.09721
1470244365315297,0.308737,-0.225386,-3.13168
1470244365336332,0.318812,-0.241211,3.11135
1470244365352830,0.323151,-0.254924,3.06818
1470244365375350,0.326198,-0.268797,3.02023
1470244365396369,0.329607,-0.283187,2.96704
1470244365412885,0.333594,-0.297722,2.91072
1470244365435404,0.338376,-0.311399,2.85236
1470244365456466,0.345127,-0.323905,2.79174
1470244365480444,0.35317,-0.336005,2.7298
1470244365495457,0.360915,-0.346444,2.66694
1470244365516479,0.36682,-0.355565,2.60358
1470244365532491,0.37266,-0.363782,2.53997
1470244365555513,0.37843,-0.370371,2.47782
1470244365584037,0.381439,-0.375527,2.41719
1470244365592045,0.380988,-0.37971,2.35803
1470244365615066,0.378945,-0.382968,2.30201
1470244365637586,0.375938,-0.385792,2.24923
1470244365652101,0.373064,-0.388159,2.19894
1470244365675119,0.369621,-0.390033,2.15191
1470244365696639,0.36448,-0.391533,2.10973
1470244365712152,0.351891,-0.394981,2.07486
1470244365735178,0.341654,-0.398288,2.04452
1470244365756193,0.3314,-0.401195,2.02006
1470244365772207,0.321344,-0.403761,2.00025
1470244365795227,0.309553,-0.406471,1.98579
1470244365817750,0.297931,-0.408945,1.97693
1470244365831761,0.286382,-0.41093,1.97302
1470244365855782,0.273506,-0.413061,1.97385
1470244365877802,0.261265,-0.415393,1.97912
1470244365891846,0.247258,-0.41764,1.98987
1470244365915334,0.230894,-0.419259,2.00713
1470244365937855,0.216147,-0.420751,2.02933
1470244365958878,0.200822,-0.421405,2.05763
1470244365975389,0.185907,-0.420465,2.09134
1470244365997911,0.174601,-0.417825,2.12986
1470244366019016,0.162959,-0.414052,2.17296
1470244366035443,0.156485,-0.406595,2.21839
1470244366057478,0.151462,-0.397821,2.26844
1470244366078996,0.148639,-0.38779,2.32293
1470244366095496,0.146975,-0.375831,2.38208
1470244366118018,0.144405,-0.362721,2.44585
1470244366139036,0.142248,-0.348125,2.51396
1470244366155050,0.143922,-0.332364,2.58613
1470244366177570,0.148057,-0.314201,2.66317
1470244366199090,0.150695,-0.293174,2.74425
1470244366215104,0.151396,-0.27033,2.83063
1470244366237624,0.152109,-0.244701,2.92234
1470244366258644,0.150051,-0.21622,3.01948
1470244366275159,0.14779,-0.184313,3.12251
1470244366297678,0.153947,-0.149587,-3.0533
1470244366318698,0.169952,-0.112029,-2.9433
1470244366325716,0.192653,-0.0731198,-2.8306
1470244366340718,0.218763,-0.0361207,-2.71622
1470244366363267,0.243077,-0.00197478,-2.60302
1470244366385772,0.259043,0.0296001,-2.49315
1470244366400770,0.271111,0.057115,-2.38732
1470244366423291,0.282705,0.0784749,-2.28797
1470244366445811,0.295933,0.096062,-2.1964
1470244366460826,0.308641,0.112253,-2.11365
1470244366483345,0.321685,0.126101,-2.03983
1470244366505865,0.336534,0.136713,-1.97811
1470244366520879,0.348092,0.143128,-1.92984
1470244366543398,0.358144,0.141154,-1.89653
1470244366566033,0.361196,0.135729,-1.88268
1470244366580932,0.362473,0.127529,-1.88839
1470244366603453,0.366882,0.1186,-1.91168
1470244366625975,0.369812,0.106829,-1.95065
1470244366640986,0.362657,0.0938403,-2.00449
1470244366666009,0.353712,0.0773644,-2.07076
1470244366685528,0.345724,0.0585216,-2.14771
1470244366700539,0.338686,0.0378646,-2.23236
1470244366723060,0.332581,0.0162864,-2.32376
1470244366745610,0.327118,-0.00505647,-2.42365
1470244366760623,0.323896,-0.0247608,-2.52954
1470244366783617,0.323644,-0.0431313,-2.63938
1470244366805635,0.324123,-0.0618319,-2.75212
1470244366820688,0.321388,-0.0828475,-2.86782
1470244366843182,0.313998,-0.106338,-2.98634
1470244366865690,0.306836,-0.131316,-3.10548
1470244366880718,0.297599,-0.159866,3.05951
1470244366903240,0.287716,-0.190769,2.94247
1470244366925746,0.278529,-0.221853,2.82798
1470244366940786,0.272488,-0.251804,2.71655
1470244366970874,0.269482,-0.279327,2.60767
1470244366985888,0.2674,-0.306246,2.50121
1470244367000872,0.26732,-0.330888,2.3994
1470244367023342,0.270296,-0.352719,2.30345
1470244367045850,0.271137,-0.371361,2.21648
1470244367060875,0.265341,-0.386121,2.14129
1470244367083383,0.253865,-0.39742,2.07984
1470244367105904,0.241906,-0.406294,2.03352
1470244367120917,0.224408,-0.416378,2.00525
1470244367143455,0.20603,-0.424328,1.98903
1470244367166971,0.185327,-0.430332,1.98165
1470244367181088,0.166821,-0.435816,1.98039
1470244367203495,0.151745,-0.441067,1.98381
1470244367226037,0.138481,-0.445574,1.99234
1470244367241094,0.127559,-0.447679,2.0074
1470244367263062,0.11931,-0.447906,2.02857
1470244367287068,0.111378,-0.446486,2.05564
1470244367300598,0.102418,-0.444541,2.08768
1470244367323117,0.0953945,-0.442557,2.12408
1470244367345674,0.0924098,-0.436783,2.16507
1470244367368213,0.0869146,-0.429106,2.21232
1470244367383152,0.0791311,-0.420205,2.26633
1470244367405673,0.0716621,-0.407751,2.32854
1470244367422188,0.0669761,-0.391493,2.39911
1470244367450755,0.0637691,-0.371974,2.47811
1470244367465758,0.0584175,-0.348491,2.56533
1470244367482242,0.0549029,-0.320148,2.66031
1470244367503274,0.057798,-0.287836,2.76204
1470244367525872,0.0664246,-0.251004,2.86877
1470244367542296,0.0786258,-0.209869,2.97902
1470244367563365,0.0939589,-0.166471,3.09525
1470244367585878,0.113919,-0.123044,-3.06445
1470244367608354,0.136301,-0.0815828,-2.93323
1470244367623368,0.155717,-0.0427193,-2.79661
1470244367645891,0.170721,-0.00852227,-2.65937
1470244367663907,0.186128,0.0173296,-2.51884
1470244367690929,0.207527,0.0328181,-2.37574
1470244367705942,0.220134,0.0341915,-2.2354
1470244367723459,0.213453,0.0277156,-2.09735
1470244367742977,0.200171,0.0217497,-1.9585
1470244367765498,0.199251,0.0104348,-1.81559
1470244367783540,0.199564,-0.0145225,-1.6772
1470244367803058,0.187014,-0.044037,-1.54602
1470244367825579,0.158206,-0.0758027,-1.42106
1470244367843573,0.123762,-0.10844,-1.30167
1470244367863114,0.0918523,-0.143616,-1.18877
1470244367887105,0.0533323,-0.181561,-1.08627
1470244367903662,0.0124027,-0.209489,-0.999239
1470244367923139,-0.0208426,-0.223418,-0.926587
1470244367945658,-0.0488833,-0.227775,-0.861875
1470244367963674,-0.0855116,-0.229457,-0.810255
1470244367983195,-0.130237,-0.233085,-0.77381
1470244368005714,-0.162426,-0.228543,-0.748908
1470244368023728,-0.183562,-0.222087,-0.72916
1470244368050808,-0.201391,-0.215339,-0.716827
1470244368065767,-0.216513,-0.210448,-0.709241
1470244368083873,-0.229953,-0.207182,-0.703327
1470244368103394,-0.244067,-0.205019,-0.699094
1470244368125820,-0.254451,-0.201282,-0.695692
1470244368143335,-0.260287,-0.197231,-0.694412
1470244368163353,-0.265875,-0.195137,-0.695265
1470244368185874,-0.275309,-0.195274,-0.69611
1470244368203389,-0.283305,-0.194766,-0.696341
1470244368223407,-0.288032,-0.193358,-0.696123
1470244368245958,-0.29224,-0.191552,-0.696278
1470244368263444,-0.29734,-0.18978,-0.696928
1470244368284462,-0.304494,-0.188658,-0.696898
1470244368305981,-0.311873,-0.186952,-0.696841
1470244368323497,-0.317746,-0.18461,-0.696381
1470244368344516,-0.322764,-0.18142,-0.695319
1470244368365540,-0.327157,-0.178084,-0.694033
1470244368383551,-0.332422,-0.175651,-0.692331
1470244368404570,-0.337038,-0.173231,-0.690703
1470244368425590,-0.339442,-0.170201,-0.689469
1470244368443648,-0.339803,-0.166881,-0.688586
1470244368464624,-0.33843,-0.163578,-0.689109
1470244368485674,-0.337747,-0.161624,-0.690451
1470244368503773,-0.33747,-0.160375,-0.693297
1470244368524680,-0.335113,-0.158196,-0.696696
1470244368545782,-0.332644,-0.15599,-0.700239
1470244368563713,-0.332179,-0.153735,-0.704413
1470244368584732,-0.33282,-0.151778,-0.708671
1470244368605753,-0.332865,-0.149991,-0.712897
1470244368623768,-0.33256,-0.148144,-0.716896
1470244368647308,-0.331567,-0.145655,-0.72032
1470244368665807,-0.331323,-0.143324,-0.72236
1470244368683320,-0.332618,-0.141999,-0.723901
1470244368706341,-0.333426,-0.140834,-0.72578
1470244368725858,-0.331633,-0.139169,-0.727632
1470244368743903,-0.327607,-0.138453,-0.730009
1470244368765895,-0.321795,-0.13823,-0.734616
1470244368785912,-0.311047,-0.137523,-0.74453
1470244368803929,-0.294454,-0.137544,-0.761376
1470244368825949,-0.275594,-0.139459,-0.78657
1470244368846466,-0.254633,-0.140752,-0.822411
1470244368862984,-0.232826,-0.133104,-0.870247
1470244368885039,-0.209864,-0.123827,-0.930074
1470244368906520,-0.185738,-0.111956,-1.00302
1470244368923035,-0.157633,-0.0973926,-1.08984
1470244368945056,-0.126128,-0.0793558,-1.19134
1470244368966697,-0.0915927,-0.057836,-1.30675
1470244368982588,-0.0598059,-0.034741,-1.43606
1470244369005109,-0.0383771,-0.0109237,-1.57769
1470244369026630,-0.024127,0.0140494,-1.72649
1470244369042643,-0.0110409,0.0386481,-1.87746
1470244369065180,0.00445595,0.0594649,-2.02995
1470244369086693,0.0173356,0.0724383,-2.18527
1470244369102704,0.0133112,0.0691117,-2.34534
1470244369125217,-0.00474373,0.0554268,-2.50489
1470244369146295,-0.0219385,0.0375782,-2.65141
1470244369162797,-0.0401092,0.0100883,-2.78471
1470244369185315,-0.0576193,-0.0300707,-2.91495
1470244369206289,-0.0640782,-0.0789222,-3.04322
1470244369222809,-0.0578476,-0.131803,3.11886
1470244369245326,-0.0497162,-0.187694,3.00266
1470244369266346,-0.0412327,-0.246434,2.88912
1470244369282858,-0.0239601,-0.299278,2.7784
1470244369305378,0.00246024,-0.340978,2.67526
1470244369326402,0.0261531,-0.373447,2.58507
1470244369342912,0.0350916,-0.397112,2.51048
1470244369365432,0.0257981,-0.41592,2.45183
1470244369393957,0.0138325,-0.430928,2.40552
1470244369401965,0.0128427,-0.44516,2.36819
1470244369425992,0.0117565,-0.461206,2.34387
1470244369446506,0.0209987,-0.476826,2.32324
1470244369462020,0.0255795,-0.493441,2.30588
1470244369485049,0.0215487,-0.508059,2.29524
1470244369506561,0.0178047,-0.518342,2.29151
1470244369522074,0.0133857,-0.525639,2.295
1470244369545094,0.00896441,-0.530316,2.30619
1470244369566693,0.00315669,-0.531425,2.32471
1470244369596640,-0.00225098,-0.528841,2.35018
1470244369605148,-0.00638437,-0.523864,2.38037
1470244369635218,-0.0167371,-0.518364,2.41553
1470244369642181,-0.0339435,-0.511858,2.45718
1470244369665203,-0.0432554,-0.501611,2.50194
1470244369687722,-0.0505777,-0.488134,2.55289
1470244369708740,-0.0657013,-0.473235,2.61229
1470244369725256,-0.0908476,-0.455403,2.68158
1470244369747775,-0.1174,-0.429623,2.76013
1470244369768813,-0.148201,-0.394943,2.84562
1470244369785310,-0.184546,-0.350737,2.93872
1470244369807830,-0.220707,-0.29899,3.0374
1470244369830350,-0.241918,-0.241669,-3.14106
1470244369845366,-0.241297,-0.179926,-3.02835
1470244369867886,-0.219255,-0.114855,-2.90547
1470244369888904,-0.184664,-0.0523596,-2.76951
1470244369905418,-0.144619,0.00220248,-2.61796
1470244369927938,-0.109698,0.0448425,-2.45481
1470244369948972,-0.0813911,0.0741943,-2.28579
1470244369971476,-0.0567464,0.0863475,-2.11307
1470244369987991,-0.0475287,0.0812028,-1.9443
1470244370009011,-0.0495055,0.0712673,-1.78185
1470244370025046,-0.0506734,0.0567726,-1.62124
1470244370047588,-0.0520469,0.0317329,-1.4615
1470244370069064,-0.0639293,-2.45273e-05,-1.30609
1470244370085083,-0.0820149,-0.0217024,-1.16147
1470244370107599,-0.0980716,-0.0367486,-1.02812
1470244370129118,-0.119411,-0.0568261,-0.906146
1470244370145167,-0.152752,-0.079705,-0.800069
1470244370167655,-0.19394,-0.0997884,-0.707582
1470244370189173,-0.224537,-0.105932,-0.631641
1470244370205187,-0.242936,-0.105309,-0.568123
1470244370227706,-0.267558,-0.106175,-0.517114
1470244370248725,-0.304793,-0.122987,-0.480437
1470244370265247,-0.342789,-0.139955,-0.453647
1470244370287762,-0.365167,-0.151926,-0.437399
1470244370308821,-0.378538,-0.16005,-0.431932
1470244370324795,-0.391573,-0.167575,-0.436108
1470244370347815,-0.409932,-0.176066,-0.444746
1470244370369344,-0.425861,-0.180956,-0.456057
1470244370384848,-0.434309,-0.181409,-0.468829
1470244370407869,-0.436804,-0.180283,-0.482219
1470244370428932,-0.440094,-0.181456,-0.494981
1470244370444424,-0.444339,-0.182895,-0.506024
1470244370467922,-0.447867,-0.184291,-0.515415
1470244370488941,-0.449121,-0.18447,-0.524517
1470244370504503,-0.448519,-0.183205,-0.532502
1470244370527976,-0.449614,-0.182707,-0.540598
1470244370550000,-0.451424,-0.18126,-0.550698
1470244370564510,-0.453299,-0.178097,-0.561545
1470244370587534,-0.455814,-0.175209,-0.574237
1470244370610054,-0.460247,-0.173022,-0.589133
1470244370624612,-0.466567,-0.168837,-0.603852
1470244370647585,-0.470721,-0.163845,-0.619507
1470244370670106,-0.473584,-0.159582,-0.635482
1470244370691623,-0.478448,-0.156498,-0.649651
1470244370707639,-0.48231,-0.153882,-0.662306
1470244370730158,-0.482439,-0.151002,-0.673574
1470244370751180,-0.48101,-0.147077,-0.68206
1470244370767692,-0.480366,-0.142914,-0.688219
1470244370790215,-0.479184,-0.139519,-0.692581
1470244370811768,-0.47783,-0.137787,-0.695511
1470244370827777,-0.47693,-0.138196,-0.697838
1470244370850275,-0.475071,-0.138544,-0.699723
1470244370864779,-0.473459,-0.139359,-0.700601
1470244370887808,-0.473187,-0.140938,-0.700935
1470244370910321,-0.473945,-0.143849,-0.701816
1470244370924832,-0.474486,-0.147729,-0.702605
1470244370947856,-0.474699,-0.152066,-0.702989
1470244370970374,-0.472749,-0.156924,-0.703568
1470244370991394,-0.468782,-0.162495,-0.703719
1470244371007912,-0.465737,-0.169259,-0.703505
1470244371030427,-0.468468,-0.179266,-0.702647
1470244371051464,-0.489996,-0.19533,-0.705529
1470244371067962,-0.498341,-0.208371,-0.71161
1470244371090481,-0.496196,-0.211439,-0.70987
1470244371111500,-0.482632,-0.208023,-0.704405
1470244371128015,-0.444716,-0.202336,-0.705326
1470244371150040,-0.405666,-0.202672,-0.708818
1470244371171609,-0.365558,-0.205069,-0.714499
1470244371187569,-0.32015,-0.202713,-0.722944
1470244371210589,-0.265587,-0.195811,-0.731704
1470244371231608,-0.203254,-0.186351,-0.741342
1470244371247122,-0.132463,-0.172243,-0.753631
1470244371270145,-0.0550211,-0.155488,-0.765816
1470244371299169,0.0215651,-0.13706,-0.777232
1470244371307197,0.0967836,-0.117216,-0.788993
1470244371330248,0.173663,-0.0977788,-0.799242
1470244371351719,0.246156,-0.0792131,-0.807926
1470244371367234,0.309605,-0.0618922,-0.817318
1470244371390251,0.362975,-0.0444736,-0.826121
1470244371412771,0.405071,-0.0273462,-0.832968
1470244371427284,0.435125,-0.011164,-0.838324
1470244371450304,0.455487,0.00300059,-0.843258
1470244371472825,0.464948,0.0151935,-0.848242
1470244371487339,0.463502,0.0240429,-0.854595
1470244371510361,0.448424,0.0291706,-0.863068
1470244371532880,0.41756,0.0296515,-0.874064
1470244371547392,0.376673,0.0222017,-0.885692
1470244371570412,0.329538,0.00835947,-0.89671
1470244371592932,0.272545,-0.0130418,-0.909672
1470244371613951,0.20774,-0.0388033,-0.921019
1470244371630467,0.139548,-0.0655266,-0.928656
1470244371652486,0.0748938,-0.0928304,-0.932114
1470244371674008,0.0114472,-0.123824,-0.930196
1470244371690521,-0.0581379,-0.157507,-0.923479
1470244371713040,-0.130518,-0.187205,-0.916282
1470244371734116,-0.190005,-0.210033,-0.905765
1470244371750074,-0.239753,-0.22707,-0.888692
1470244371773094,-0.29151,-0.241745,-0.870055
1470244371794114,-0.341843,-0.254777,-0.855305
1470244371810129,-0.383802,-0.264255,-0.841975
1470244371832648,-0.409174,-0.258832,-0.836114
1470244371854167,-0.413339,-0.241787,-0.834683
1470244371870187,-0.421424,-0.225311,-0.835362
1470244371892702,-0.442446,-0.212444,-0.836341
1470244371914259,-0.46306,-0.202309,-0.836668
1470244371930235,-0.475077,-0.196639,-0.835058
1470244371952756,-0.482105,-0.197665,-0.840654
1470244371974340,-0.48107,-0.197683,-0.848623
1470244371990290,-0.47728,-0.195874,-0.852865
1470244372012825,-0.484933,-0.195327,-0.852641
1470244372033874,-0.498354,-0.195703,-0.850525
1470244372050344,-0.505126,-0.194952,-0.849268
1470244372073364,-0.503031,-0.192985,-0.84924
1470244372093906,-0.502267,-0.191862,-0.849479
1470244372110397,-0.506946,-0.191423,-0.850205
1470244372132918,-0.512681,-0.19099,-0.851726
1470244372153981,-0.517766,-0.191732,-0.853937
1470244372170451,-0.521429,-0.192221,-0.857009
1470244372192972,-0.525188,-0.191901,-0.860016
1470244372214036,-0.530665,-0.19085,-0.862799
1470244372230505,-0.537306,-0.189478,-0.865045
1470244372252542,-0.545317,-0.188772,-0.866325
1470244372274056,-0.553195,-0.188104,-0.867902
1470244372298066,-0.559395,-0.18816,-0.870004
1470244372313079,-0.564912,-0.188017,-0.871109
1470244372334111,-0.573502,-0.189208,-0.870876
1470244372349620,-0.582529,-0.190806,-0.870873
1470244372373134,-0.591528,-0.192749,-0.870613
1470244372394152,-0.601612,-0.193942,-0.87034
1470244372417674,-0.610961,-0.193894,-0.869952
1470244372432714,-0.621466,-0.193112,-0.868698
1470244372455708,-0.634205,-0.192497,-0.867261
1470244372469720,-0.645368,-0.192003,-0.866745
1470244372492758,-0.654655,-0.191324,-0.86707
1470244372515261,-0.66314,-0.191049,-0.866519
1470244372529774,-0.668949,-0.190648,-0.866146
1470244372552795,-0.669543,-0.190347,-0.866161
1470244372575315,-0.666486,-0.190565,-0.865446
1470244372604342,-0.661498,-0.192091,-0.863643
1470244372612848,-0.652879,-0.194574,-0.861204
1470244372635369,-0.640242,-0.198491,-0.859207
1470244372656401,-0.626093,-0.203662,-0.857582
1470244372672903,-0.611919,-0.209398,-0.856111
1470244372695424,-0.59819,-0.21551,-0.854691
1470244372716458,-0.581894,-0.222182,-0.854954
1470244372732956,-0.561753,-0.228244,-0.856889
1470244372754986,-0.542416,-0.233137,-0.859318
1470244372776525,-0.524275,-0.236321,-0.863031
1470244372793010,-0.506028,-0.238083,-0.867855
1470244372815530,-0.489934,-0.237898,-0.873601
1470244372836614,-0.47441,-0.23577,-0.880018
1470244372852564,-0.458351,-0.232362,-0.887107
1470244372875584,-0.442687,-0.227545,-0.894286
1470244372896604,-0.426854,-0.222517,-0.901864
1470244372912655,-0.411355,-0.217809,-0.908949
1470244372935638,-0.396858,-0.213173,-0.915862
1470244372956657,-0.382716,-0.208686,-0.922399
1470244372973172,-0.367913,-0.203966,-0.928155
1470244372995234,-0.354133,-0.200017,-0.934007
1470244373016714,-0.340637,-0.196908,-0.942137
1470244373032725,-0.325797,-0.194809,-0.952467
1470244373055746,-0.310075,-0.192348,-0.963936
1470244373076764,-0.295002,-0.190231,-0.977123
1470244373092780,-0.280116,-0.188607,-0.994106
1470244373115302,-0.263153,-0.186858,-1.01592
1470244373136378,-0.24461,-0.185312,-1.04145
1470244373152833,-0.224652,-0.183539,-1.07006
1470244373175354,-0.205294,-0.181766,-1.10286
1470244373196403,-0.185957,-0.175599,-1.14153
1470244373211888,-0.164893,-0.167024,-1.18501
1470244373235407,-0.142451,-0.156324,-1.23189
1470244373256428,-0.119863,-0.144232,-1.28088
1470244373272441,-0.0964769,-0.130478,-1.33169
1470244373295461,-0.0723464,-0.115015,-1.38426
1470244373323987,-0.0463983,-0.0966552,-1.43891
1470244373332006,-0.0191575,-0.0758206,-1.4942
1470244373355588,0.00821069,-0.0539642,-1.54871
1470244373378109,0.0338884,-0.0313484,-1.60105
1470244373392122,0.0564098,-0.00813959,-1.65294
1470244373415142,0.0764376,0.0163681,-1.70428
1470244373437664,0.0970625,0.0425687,-1.7535
1470244373452199,0.118912,0.068885,-1.79988
1470244373475211,0.141373,0.0953221,-1.84321
1470244373497718,0.162921,0.120862,-1.88511
1470244373518737,0.181832,0.143863,-1.92565
1470244373535288,0.193277,0.163541,-1.96649
1470244373557772,0.201117,0.181671,-2.00437
1470244373579291,0.210189,0.198787,-2.03909
1470244373595304,0.221186,0.214905,-2.07142
1470244373617823,0.233512,0.229697,-2.10254
1470244373638843,0.244294,0.241541,-2.13503
1470244373655357,0.250131,0.248996,-2.16732
1470244373677878,0.247984,0.251984,-2.19653
1470244373698929,0.237732,0.251418,-2.22259
1470244373715414,0.228638,0.2507,-2.24651
1470244373737934,0.226393,0.250732,-2.26831
1470244373759004,0.229998,0.250131,-2.28843
1470244373775467,0.231043,0.247007,-2.30567
1470244373797986,0.225198,0.242017,-2.32112
1470244373819004,0.215662,0.235899,-2.33556
1470244373835520,0.205565,0.228548,-2.3488
1470244373858040,0.190327,0.219298,-2.36184
1470244373879058,0.167431,0.208554,-2.37687
1470244373895574,0.134279,0.196762,-2.39501
1470244373917611,0.0921945,0.185531,-2.41751
1470244373939112,0.0456729,0.174267,-2.44526
1470244373955628,-0.00283491,0.156577,-2.47849
1470244373978147,-0.0605681,0.129696,-2.51505
1470244373999167,-0.127316,0.0953708,-2.5548
1470244374015181,-0.187279,0.0542752,-2.59643
1470244374038202,-0.237377,0.0018974,-2.63525
1470244374059220,-0.294815,-0.062835,-2.6708
1470244374075235,-0.346097,-0.133132,-2.70314
1470244374097756,-0.376631,-0.198771,-2.72161
1470244374110768,-0.384967,-0.254977,-2.72447
1470244374125779,-0.383365,-0.307088,-2.71903
1470244374142295,-0.378402,-0.353919,-2.71041
1470244374163316,-0.375045,-0.389876,-2.69957
1470244374185853,-0.372911,-0.408998,-2.68932
1470244374202349,-0.3685,-0.42017,-2.68032
1470244374223367,-0.359074,-0.423542,-2.67279
1470244374245888,-0.350266,-0.419066,-2.66598
1470244374278417,-0.34389,-0.411518,-2.66134
1470244374283455,-0.33751,-0.403272,-2.65909
1470244374305941,-0.330896,-0.394096,-2.65828
1470244374322457,-0.324131,-0.384168,-2.65836
1470244374343475,-0.316895,-0.374019,-2.65867
1470244374366018,-0.30932,-0.36344,-2.65891
1470244374382012,-0.302728,-0.351854,-2.65876
1470244374403529,-0.295536,-0.339868,-2.65928
1470244374426050,-0.285873,-0.32649,-2.65951
1470244374442064,-0.276944,-0.311875,-2.65897
1470244374463084,-0.26744,-0.296574,-2.65867
1470244374485604,-0.260314,-0.279573,-2.65772
1470244374502118,-0.256508,-0.259267,-2.6553
1470244374523637,-0.253762,-0.236037,-2.654
1470244374545676,-0.25174,-0.208775,-2.65191
1470244374562172,-0.250799,-0.176795,-2.64828
1470244374583304,-0.249241,-0.139623,-2.64437
1470244374605712,-0.245787,-0.0994072,-2.64048
1470244374622228,-0.239956,-0.0588607,-2.63791
1470244374643278,-0.232993,-0.0201177,-2.63686
1470244374668784,-0.227601,0.0154809,-2.63746
1470244374682280,-0.224167,0.0462015,-2.63933
1470244374710808,-0.223049,0.0701858,-2.64193
1470244374725819,-0.223693,0.087026,-2.64447
1470244374743864,-0.225609,0.0953154,-2.64695
1470244374763372,-0.228085,0.0937303,-2.64953
1470244374793881,-0.231128,0.0795311,-2.65383
1470244374802387,-0.234908,0.0516061,-2.66004
1470244374823410,-0.237474,0.00969706,-2.66761
1470244374853471,-0.241463,-0.0456823,-2.67662
1470244374863945,-0.24455,-0.112875,-2.68845
1470244374883467,-0.242208,-0.194486,-2.70274
1470244374905982,-0.2329,-0.29343,-2.71883
1470244374922496,-0.213669,-0.403511,-2.74224
1470244374943514,-0.181896,-0.515398,-2.77462
1470244374966065,-0.12978,-0.628685,-2.81345
1470244374984602,-0.0671076,-0.755913,-2.85315
1470244375003693,0.0238125,-0.884553,-2.91555
1470244375028590,0.159169,-0.998837,-3.01522
1470244375042105,0.342263,-1.09723,3.13293
1470244375071129,0.585609,-1.17761,2.95629
1470244375085697,0.869025,-1.22969,2.76189
1470244375102159,1.12909,-1.25704,2.59747
1470244375123175,1.32032,-1.27135,2.44009
1470244375145696,1.35228,-1.25178,2.28876
1470244375162211,1.3651,-1.26563,2.18802
1470244375183285,1.35143,-1.29106,2.23248
1470244375206750,1.37066,-1.29386,2.28306
1470244375220763,1.3656,-1.29593,2.32769
1470244375243306,1.31211,-1.30105,2.40175
1470244375266860,1.24715,-1.30856,2.49103
1470244375280850,1.16607,-1.31714,2.60362
1470244375303393,1.07805,-1.33526,2.75593
1470244375325896,1.03531,-1.33724,2.85675
1470244375343874,0.961378,-1.32155,2.94478
1470244375363391,0.88203,-1.30941,3.00968
1470244375385912,0.781587,-1.30616,3.08782
1470244375403428,0.674807,-1.3005,-3.1031
1470244375423445,0.602016,-1.29235,-3.02682
1470244375445965,0.571611,-1.27837,-2.97903
1470244375463988,0.554858,-1.262,-2.94717
1470244375482999,0.535411,-1.24608,-2.92141
1470244375506020,0.508828,-1.23176,-2.89649
1470244375523536,0.468802,-1.21427,-2.86492
1470244375543553,0.415201,-1.1927,-2.82719
1470244375565575,0.355299,-1.16824,-2.78936
1470244375583589,0.283888,-1.13745,-2.74853
1470244375603161,0.207492,-1.10468,-2.7077
1470244375626190,0.13873,-1.06781,-2.66737
1470244375643643,0.0851095,-1.02789,-2.63272
1470244375663221,0.0358948,-0.987165,-2.6018
1470244375685701,-0.0210091,-0.945255,-2.57186
1470244375704211,-0.0749444,-0.900703,-2.54139
1470244375726219,-0.116044,-0.857012,-2.51196
1470244375745765,-0.143186,-0.814034,-2.48636
1470244375763751,-0.169062,-0.771263,-2.46274
1470244375783321,-0.198244,-0.729724,-2.43458
1470244375805790,-0.220541,-0.68795,-2.40764
1470244375823804,-0.232123,-0.645681,-2.38244
1470244375843323,-0.23733,-0.601697,-2.35829
1470244375865842,-0.244458,-0.558896,-2.33062
1470244375883922,-0.257114,-0.518012,-2.29987
1470244375904877,-0.2711,-0.476699,-2.268
1470244375925896,-0.288411,-0.435134,-2.23504
1470244375943944,-0.303029,-0.393253,-2.20293
1470244375964937,-0.311887,-0.353092,-2.17322
1470244375985958,-0.324282,-0.315199,-2.14408
1470244376003966,-0.338786,-0.277876,-2.11586
1470244376024985,-0.350829,-0.241888,-2.09002
1470244376046004,-0.360996,-0.205418,-2.06591
1470244376063522,-0.367883,-0.171112,-2.04383
1470244376084539,-0.375406,-0.141872,-2.02411
1470244376105701,-0.380595,-0.118196,-2.00676
1470244376123574,-0.385327,-0.0979837,-1.9915
1470244376144592,-0.38586,-0.0803855,-1.97774
1470244376166136,-0.384946,-0.0660428,-1.96496
1470244376183636,-0.389915,-0.0545161,-1.95342
1470244376204646,-0.39487,-0.0453746,-1.94729
1470244376225665,-0.399916,-0.0358386,-1.94453
1470244376243682,-0.409681,-0.0252414,-1.94062
1470244376266223,-0.418314,-0.0187293,-1.93693
1470244376285796,-0.42006,-0.0179516,-1.93675
1470244376303781,-0.421566,-0.0206518,-1.94015
1470244376326342,-0.430718,-0.0281701,-1.94435
1470244376345826,-0.437465,-0.0382688,-1.94711
1470244376363846,-0.435198,-0.0491628,-1.94908
1470244376386312,-0.427343,-0.0600524,-1.952
1470244376405860,-0.421255,-0.068755,-1.95548
1470244376423844,-0.417657,-0.0769016,-1.95701
1470244376446364,-0.415615,-0.0854478,-1.95738
1470244376465898,-0.414403,-0.095251,-1.9577
1470244376491412,-0.410321,-0.104557,-1.95897
1470244376506417,-0.402465,-0.110833,-1.95981
1470244376525962,-0.395016,-0.118415,-1.96109
1470244376543451,-0.392464,-0.127646,-1.96093
1470244376573978,-0.392776,-0.13717,-1.96115
1470244376585990,-0.391417,-0.145455,-1.96186
1470244376609050,-0.387299,-0.150836,-1.96345
1470244376625525,-0.383555,-0.152855,-1.9645
1470244376646044,-0.380487,-0.151664,-1.96534
1470244376663058,-0.376498,-0.148993,-1.96742
1470244376685578,-0.370996,-0.144643,-1.96985
1470244376706597,-0.366697,-0.139794,-1.97316
1470244376722612,-0.365022,-0.135328,-1.9764
1470244376745159,-0.365728,-0.133392,-1.97979
1470244376766651,-0.36573,-0.132903,-1.98371
1470244376782667,-0.364557,-0.132394,-1.98744
1470244376805686,-0.362816,-0.131605,-1.99085
1470244376826725,-0.359664,-0.130664,-1.99423
1470244376842720,-0.354797,-0.128924,-1.99793
1470244376865740,-0.348609,-0.126563,-2.00191
1470244376886759,-0.341929,-0.123525,-2.00635
1470244376902773,-0.337146,-0.120522,-2.01119
1470244376925296,-0.334632,-0.11735,-2.01663
1470244376946813,-0.332548,-0.113989,-2.0226
1470244376962327,-0.329918,-0.111159,-2.02888
1470244376985347,-0.325389,-0.108799,-2.03547
1470244377006399,-0.320758,-0.10725,-2.04232
1470244377022381,-0.316377,-0.10586,-2.04945
1470244377045401,-0.313673,-0.105058,-2.05667
1470244377066464,-0.312828,-0.105188,-2.064
1470244377082434,-0.314073,-0.105995,-2.07157
1470244377105956,-0.315687,-0.105744,-2.07811
1470244377126474,-0.316481,-0.106542,-2.08453
1470244377141989,-0.316412,-0.107984,-2.09203
1470244377165509,-0.316411,-0.109353,-2.09932
1470244377188029,-0.315222,-0.110807,-2.10652
1470244377202042,-0.315864,-0.1128,-2.11374
1470244377225563,-0.316203,-0.114949,-2.12084
1470244377247587,-0.317203,-0.116953,-2.12746
1470244377262096,-0.318434,-0.118127,-2.13517
1470244377285617,-0.319824,-0.119283,-2.14337
1470244377308137,-0.321199,-0.120499,-2.15187
1470244377329158,-0.321929,-0.121139,-2.15975
1470244377345671,-0.321999,-0.121838,-2.16754
1470244377367691,-0.321837,-0.122126,-2.17554
1470244377389210,-0.320982,-0.122833,-2.18402
1470244377405725,-0.319202,-0.124149,-2.19254
1470244377427744,-0.317363,-0.126158,-2.20093
1470244377449264,-0.315675,-0.128844,-2.20881
1470244377465286,-0.314542,-0.131786,-2.21553
1470244377487798,-0.313448,-0.134596,-2.22146
1470244377508817,-0.311743,-0.137847,-2.22642
1470244377525332,-0.308473,-0.141061,-2.2307
1470244377547908,-0.304338,-0.143783,-2.23452
1470244377562368,-0.299574,-0.146181,-2.23787
1470244377585386,-0.295349,-0.148615,-2.24036
1470244377607923,-0.291277,-0.150352,-2.24229
1470244377628925,-0.287217,-0.15147,-2.24381
1470244377646441,-0.282648,-0.15225,-2.24506
1470244377667961,-0.277675,-0.152599,-2.24571
1470244377688979,-0.273067,-0.152728,-2.24591
1470244377705494,-0.268825,-0.152108,-2.24583
1470244377728015,-0.266137,-0.150513,-2.24475
1470244377749089,-0.264533,-0.148257,-2.24347
1470244377765548,-0.263658,-0.145802,-2.24223
1470244377788068,-0.263647,-0.143185,-2.24081
1470244377809115,-0.265515,-0.140483,-2.23926
1470244377825604,-0.268901,-0.138285,-2.23759
1470244377848122,-0.272866,-0.136536,-2.23634
1470244377869232,-0.277083,-0.135341,-2.23506
1470244377885655,-0.281664,-0.134492,-2.2335
1470244377907678,-0.286116,-0.133243,-2.23156
1470244377929194,-0.290032,-0.131599,-2.22888
1470244377945214,-0.293709,-0.129348,-2.22598
1470244377967730,-0.297276,-0.126501,-2.22246
1470244377989251,-0.301231,-0.123404,-2.21852
1470244378005764,-0.305257,-0.11994,-2.21437
1470244378027787,-0.309272,-0.116183,-2.21133
1470244378049304,-0.313816,-0.111921,-2.20869
1470244378064816,-0.319748,-0.107596,-2.2057
1470244378087853,-0.326906,-0.10306,-2.2028
1470244378108857,-0.333995,-0.0982495,-2.20083
1470244378124870,-0.340684,-0.0934142,-2.19937
1470244378147892,-0.347877,-0.0881955,-2.19807
1470244378170412,-0.3563,-0.0828868,-2.19669
1470244378184925,-0.36521,-0.0771141,-2.19495
1470244378207945,-0.373614,-0.070917,-2.19347
1470244378230465,-0.380326,-0.0641585,-2.19199
1470244378244979,-0.385233,-0.0573355,-2.19135
1470244378267999,-0.389925,-0.0506533,-2.19094
1470244378290520,-0.395737,-0.0444582,-2.19022
1470244378311601,-0.403127,-0.0388516,-2.18952
1470244378328055,-0.411433,-0.0336159,-2.18887
1470244378350574,-0.419502,-0.0288521,-2.18858
1470244378371592,-0.426525,-0.0242311,-2.18846
1470244378388109,-0.433558,-0.0198408,-2.18815
1470244378410627,-0.440764,-0.0157539,-2.18771
1470244378431686,-0.447496,-0.0120324,-2.18724
1470244378447660,-0.453561,-0.00832081,-2.18656
1470244378470681,-0.459222,-0.00521933,-2.18578
1470244378491705,-0.4648,-0.0024474,-2.18509
1470244378507719,-0.470885,0.00029166,-2.18387
1470244378530234,-0.477174,0.00359388,-2.18197
1470244378551758,-0.482515,0.00756408,-2.17947
1470244378567770,-0.485113,0.0129406,-2.17699
1470244378590290,-0.485515,0.0192604,-2.17472
1470244378611310,-0.485663,0.0255754,-2.17194
1470244378627822,-0.494668,0.0303848,-2.1685
1470244378650357,-0.499367,0.0320697,-2.16835
1470244378671876,-0.506043,0.0308484,-2.1681
1470244378687876,-0.518049,0.0286251,-2.16625
1470244378710396,-0.522211,0.026157,-2.16614
1470244378731441,-0.520478,0.0248453,-2.16598
1470244378747931,-0.520908,0.0254225,-2.16366
1470244378770451,-0.523238,0.0260059,-2.16084
1470244378791469,-0.525715,0.0264964,-2.15871
1470244378807984,-0.527888,0.0273187,-2.15635
1470244378830504,-0.530576,0.028138,-2.1545
1470244378851523,-0.532202,0.0288288,-2.15365
1470244378868038,-0.532568,0.0295491,-2.15331
1470244378890559,-0.53371,0.0299232,-2.1542
1470244378911579,-0.535574,0.029637,-2.1552
1470244378927595,-0.537932,0.0287115,-2.15639
1470244378950612,-0.53952,0.0291,-2.15704
1470244378971631,-0.541535,0.0302949,-2.15767
1470244378988146,-0.54355,0.0309637,-2.15711
1470244379010667,-0.543607,0.0311232,-2.15717
1470244379031685,-0.542982,0.0311518,-2.15739
1470244379048199,-0.542669,0.0306634,-2.15753
1470244379070220,-0.541948,0.0295113,-2.15767
1470244379093240,-0.541078,0.028057,-2.15811
1470244379107754,-0.539244,0.0267867,-2.15861
1470244379130274,-0.536842,0.025224,-2.15905
1470244379152793,-0.534397,0.0235321,-2.15938
1470244379167307,-0.533352,0.021937,-2.15948
1470244379190328,-0.532772,0.0199812,-2.15971
1470244379212847,-0.531523,0.0184812,-2.16015
1470244379227362,-0.530087,0.0172931,-2.16064
1470244379250381,-0.528121,0.0167627,-2.16135
1470244379272903,-0.526369,0.0167725,-2.16259
1470244379287414,-0.525223,0.0170576,-2.16348
1470244379310435,-0.524209,0.0173569,-2.16461
1470244379332955,-0.522853,0.0174486,-2.16582
1470244379346968,-0.520755,0.0170356,-2.16688
1470244379377996,-0.518357,0.0161675,-2.16804
1470244379393048,-0.51619,0.0151906,-2.16901
1470244379407023,-0.514295,0.0136803,-2.16983
1470244379430544,-0.512513,0.0119351,-2.17069
1470244379453063,-0.510368,0.00983874,-2.17166
1470244379467076,-0.50843,0.00764559,-2.17231
1470244379490597,-0.506269,0.0054392,-2.17257
1470244379513118,-0.503871,0.00352367,-2.17232
1470244379527132,-0.500316,0.00203344,-2.17197
1470244379550651,-0.496345,0.000745267,-2.17161
1470244379572671,-0.492083,-0.000550032,-2.1712
1470244379594189,-0.487833,-0.00149007,-2.17055
1470244379610706,-0.484373,-0.00254804,-2.16975
1470244379632725,-0.481493,-0.00446896,-2.16905
1470244379654244,-0.479482,-0.00675493,-2.16884
1470244379670260,-0.47761,-0.00929604,-2.16936
1470244379693280,-0.476056,-0.0124644,-2.17028
1470244379713798,-0.474796,-0.0162461,-2.17145
1470244379731315,-0.474012,-0.020011,-2.173
1470244379752833,-0.473275,-0.0239047,-2.1746
1470244379773857,-0.472673,-0.0277572,-2.17638
1470244379790873,-0.471593,-0.0314592,-2.17765
1470244379813393,-0.46952,-0.0351011,-2.17892
1470244379833911,-0.46637,-0.0382325,-2.17988
1470244379850426,-0.462256,-0.0410883,-2.18057
1470244379872946,-0.457807,-0.043526,-2.18118
1470244379893982,-0.454145,-0.0457554,-2.18141
1470244379910981,-0.450326,-0.0476207,-2.18157
1470244379933000,-0.446445,-0.0490532,-2.18156
1470244379954019,-0.442143,-0.0500106,-2.18159
1470244379970534,-0.438015,-0.051079,-2.18191
1470244379993070,-0.434493,-0.0524085,-2.18297
1470244380015574,-0.43203,-0.0544915,-2.18416
1470244380030588,-0.430311,-0.056641,-2.18552
1470244380053108,-0.429587,-0.0585011,-2.18658
1470244380075628,-0.428602,-0.0594371,-2.18801
1470244380090641,-0.426653,-0.0590822,-2.1897
1470244380113161,-0.424552,-0.0576734,-2.19137
1470244380135681,-0.424124,-0.0554444,-2.19321
1470244380150695,-0.424798,-0.0523441,-2.19489
1470244380179221,-0.425492,-0.0486681,-2.19654
1470244380195735,-0.424769,-0.0441673,-2.19818
1470244380209750,-0.423379,-0.0392365,-2.20016
1470244380233271,-0.423186,-0.0343808,-2.20202
1470244380255789,-0.424349,-0.0299099,-2.20358
1470244380269803,-0.425801,-0.0259613,-2.20496
1470244380293324,-0.426699,-0.0228516,-2.2063
1470244380315343,-0.427284,-0.020717,-2.20753
1470244380329857,-0.427282,-0.0189779,-2.20859
1470244380352876,-0.427095,-0.0179154,-2.20906
1470244380375399,-0.428153,-0.0178988,-2.20951
1470244380389910,-0.430054,-0.0181593,-2.20996
1470244380412931,-0.432079,-0.0191673,-2.21026
1470244380435451,-0.433465,-0.0203357,-2.21044
1470244380463977,-0.434375,-0.0218445,-2.21047
1470244380472985,-0.43522,-0.0234773,-2.21025
1470244380495505,-0.435798,-0.0250639,-2.20986
1470244380516543,-0.43647,-0.0263173,-2.20942
1470244380533038,-0.437277,-0.0272639,-2.2092
1470244380555558,-0.437497,-0.0279436,-2.20895
1470244380576578,-0.4375,-0.0285359,-2.2091
1470244380593093,-0.437495,-0.0290919,-2.20906
1470244380615613,-0.437944,-0.0297243,-2.20913
1470244380636636,-0.438745,-0.0304637,-2.20923
1470244380653146,-0.439354,-0.0312321,-2.20965
1470244380675666,-0.439393,-0.0318067,-2.21045
1470244380696684,-0.43932,-0.0325305,-2.21168
1470244380713200,-0.439348,-0.0329577,-2.21307
1470244380742741,-0.439488,-0.0330655,-2.21454
1470244380756739,-0.439709,-0.0332941,-2.21614
1470244380773254,-0.4395,-0.0338867,-2.21774
1470244380795274,-0.43898,-0.0343977,-2.21959
1470244380816793,-0.438603,-0.0349716,-2.22138
1470244380832807,-0.437955,-0.0355562,-2.22327
1470244380855352,-0.437761,-0.0362198,-2.22528
1470244380876911,-0.437852,-0.037116,-2.22708
1470244380900368,-0.437687,-0.0378364,-2.22874
1470244380915382,-0.437383,-0.0384329,-2.23019
1470244380936415,-0.437022,-0.0391882,-2.2316
1470244380952415,-0.436426,-0.0400468,-2.23296
1470244380975435,-0.436013,-0.0407301,-2.23459
1470244380997956,-0.435483,-0.0414645,-2.2362
1470244381020476,-0.43562,-0.0422762,-2.23704
1470244381035490,-0.435311,-0.0430414,-2.23797
1470244381058010,-0.434064,-0.0433159,-2.23908
1470244381073023,-0.432474,-0.0437796,-2.2403
1470244381095548,-0.431344,-0.0442666,-2.24138
1470244381118063,-0.430534,-0.0448154,-2.24215
1470244381132577,-0.429849,-0.0453484,-2.24314
1470244381155600,-0.428867,-0.0459336,-2.24437
1470244381178117,-0.427815,-0.046432,-2.24568
1470244381192130,-0.426905,-0.0468337,-2.24688
1470244381215651,-0.426019,-0.0473508,-2.24801
1470244381238171,-0.42505,-0.0479095,-2.24917
1470244381252184,-0.424067,-0.0484891,-2.25041
1470244381275705,-0.423252,-0.0490892,-2.25145
1470244381297725,-0.422389,-0.0498256,-2.25239
1470244381312238,-0.421578,-0.0503668,-2.25317
1470244381335259,-0.420773,-0.05121,-2.2541
1470244381357779,-0.419857,-0.0517789,-2.25478
1470244381372793,-0.418884,-0.0522391,-2.25548
1470244381395841,-0.418472,-0.052699,-2.25612
1470244381417837,-0.417825,-0.053527,-2.25666
1470244381432345,-0.416864,-0.0539641,-2.25729
1470244381455367,-0.415909,-0.0543442,-2.25765
1470244381477887,-0.414929,-0.0547666,-2.25815
1470244381498923,-0.414006,-0.055297,-2.25864
1470244381515420,-0.413314,-0.0559934,-2.25913
1470244381537940,-0.412564,-0.0565809,-2.25963
1470244381558960,-0.412214,-0.0570906,-2.25998
1470244381575474,-0.412154,-0.0576079,-2.26037
1470244381597995,-0.411791,-0.0581385,-2.2608
1470244381619013,-0.411383,-0.0585393,-2.26117
1470244381635528,-0.411312,-0.0588102,-2.26168
1470244381658049,-0.411067,-0.0590227,-2.26218
1470244381679070,-0.410952,-0.0591638,-2.26263
1470244381695582,-0.41072,-0.0593551,-2.26306
1470244381718103,-0.410547,-0.0593874,-2.26353
1470244381740623,-0.41049,-0.0592788,-2.26354
1470244381755636,-0.410547,-0.0593874,-2.26353
1470244381778160,-0.41043,-0.0594376,-2.26351
1470244381799175,-0.41043,-0.0594376,-2.26351
1470244381815691,-0.410314,-0.0594878,-2.26348
1470244381837714,-0.410314,-0.0594878,-2.26348
1470244381859230,-0.410314,-0.0594878,-2.26348
1470244381875245,-0.410197,-0.059538,-2.26346
1470244381880749,-0.410197,-0.059538,-2.26346
1470244381903792,-0.410255,-0.0596466,-2.26345
1470244381926305,-0.410255,-0.0596466,-2.26345
1470244381941304,-0.410138,-0.0596968,-2.26342
1470244381966389,-0.410138,-0.0596968,-2.26342
1470244381985874,-0.410028,-0.0597819,-2.2636
1470244382000882,-0.410028,-0.0597819,-2.2636
1470244382023429,-0.410028,-0.0597819,-2.2636
1470244382045897,-0.409912,-0.0598321,-2.26358
1470244382061037,-0.409914,-0.0595646,-2.26363
1470244382083431,-0.410092,-0.0590881,-2.26374
1470244382105952,-0.410262,-0.0588442,-2.2636
1470244382120982,-0.410277,-0.0585557,-2.26358
1470244382143575,-0.409957,-0.0581293,-2.26347
1470244382166032,-0.409841,-0.0581795,-2.26345
1470244382181069,-0.409841,-0.0581795,-2.26345
1470244382203574,-0.409898,-0.0582882,-2.26343
1470244382226061,-0.409898,-0.0582882,-2.26343
1470244382242074,-0.409837,-0.0578773,-2.26329
1470244382263606,-0.409839,-0.0576099,-2.26334
1470244382286112,-0.410228,-0.0572867,-2.26332
1470244382300627,-0.410687,-0.057051,-2.26321
1470244382323646,-0.411051,-0.0566117,-2.26326
1470244382345669,-0.411101,-0.0562066,-2.26342
1470244382360679,-0.411235,-0.0556004,-2.26347
1470244382383704,-0.410841,-0.0551424,-2.26372
1470244382408723,-0.41017,-0.0546551,-2.26386
1470244382420734,-0.409615,-0.0541175,-2.26403
1470244382443270,-0.409807,-0.0536199,-2.26408
1470244382465792,-0.409592,-0.0531643,-2.26406
1470244382480796,-0.408971,-0.0527509,-2.26399
1470244382503307,-0.408971,-0.0527509,-2.26399
1470244382525830,-0.408753,-0.0525629,-2.26392
1470244382542342,-0.408656,-0.0526265,-2.26403
1470244382563363,-0.408656,-0.0526265,-2.26403
1470244382585899,-0.408656,-0.0526265,-2.26403
1470244382602397,-0.40854,-0.0526767,-2.26401
1470244382623417,-0.407921,-0.0524754,-2.26361
1470244382646436,-0.407557,-0.052399,-2.26307
1470244382662450,-0.407557,-0.052399,-2.26307
1470244382683471,-0.407441,-0.0524493,-2.26305
1470244382706490,-0.406953,-0.0522668,-2.26308
1470244382722504,-0.406176,-0.0520763,-2.26308
1470244382743524,-0.405612,-0.0517719,-2.26299
1470244382766043,-0.405612,-0.0517719,-2.26299
1470244382782558,-0.405496,-0.0518223,-2.26297
1470244382803577,-0.405672,-0.051613,-2.26303
1470244382826098,-0.405672,-0.051613,-2.26303
1470244382842613,-0.405004,-0.0513381,-2.26285
1470244382863630,-0.404237,-0.0509143,-2.26311
1470244382886653,-0.403949,-0.0504262,-2.26345
1470244382903667,-0.403735,-0.0499709,-2.26343
1470244382924686,-0.402698,-0.0496759,-2.26298
1470244382945704,-0.401207,-0.0493493,-2.2627
1470244382963723,-0.400528,-0.0490957,-2.26259
1470244382983239,-0.400528,-0.0490957,-2.26259
1470244383005759,-0.40055,-0.048841,-2.26277
1470244383023776,-0.40055,-0.048841,-2.26277
1470244383043294,-0.400392,-0.0484944,-2.26274
1470244383065813,-0.400443,-0.0480885,-2.2629
1470244383083829,-0.400627,-0.047557,-2.26274
1470244383103347,-0.401031,-0.0469454,-2.26269
1470244383125866,-0.401436,-0.0463338,-2.26264
1470244383148386,-0.401832,-0.0454755,-2.26272
1470244383163402,-0.402409,-0.044922,-2.26269
1470244383185921,-0.402693,-0.0444156,-2.26289
1470244383203937,-0.402411,-0.0438728,-2.26296
1470244383223454,-0.402209,-0.0433967,-2.26287
1470244383245974,-0.402112,-0.0431039,-2.26256
1470244383269996,-0.401887,-0.0428826,-2.26229
1470244383283508,-0.401771,-0.0429331,-2.26226
1470244383306028,-0.401771,-0.0429331,-2.26226
1470244383324044,-0.401827,-0.0430416,-2.26225
1470244383344563,-0.40179,-0.0429458,-2.2624
1470244383366081,-0.401847,-0.0430543,-2.26239
1470244383383598,-0.401827,-0.0430416,-2.26225
1470244383403615,-0.40095,-0.0426136,-2.26221
1470244383426137,-0.399976,-0.0418933,-2.26185
1470244383443651,-0.400107,-0.0406301,-2.26132
1470244383463169,-0.398945,-0.0384358,-2.26001
1470244383485690,-0.397153,-0.0372037,-2.25856
1470244383503706,-0.394223,-0.0365816,-2.25749
1470244383524724,-0.39158,-0.035808,-2.25705
1470244383545758,-0.391753,-0.0358656,-2.25707
1470244383563759,-0.393576,-0.0365363,-2.25712
1470244383584778,-0.394951,-0.0374766,-2.25749
1470244383605798,-0.395581,-0.0380784,-2.25783
1470244383623814,-0.395465,-0.0381292,-2.25781
1470244383644832,-0.396101,-0.0379836,-2.25791
1470244383665854,-0.397037,-0.0381092,-2.25724
1470244383683869,-0.39759,-0.0388593,-2.25676
1470244383704888,-0.397559,-0.0393502,-2.25566
1470244383725905,-0.397448,-0.0394194,-2.25429
1470244383743924,-0.39793,-0.0394265,-2.25265
1470244383764942,-0.399183,-0.0394592,-2.25161
1470244383785966,-0.400402,-0.0400341,-2.2504
1470244383803975,-0.400204,-0.0406801,-2.24898
1470244383826495,-0.398905,-0.0408993,-2.24691
1470244383846013,-0.397376,-0.0412243,-2.24481
1470244383864030,-0.394735,-0.0410227,-2.24294
1470244383886549,-0.391993,-0.0405897,-2.24103
1470244383909070,-0.389789,-0.0406818,-2.23882
1470244383924083,-0.387994,-0.0410843,-2.2371
1470244383946103,-0.386621,-0.0413945,-2.23595
1470244383966121,-0.384962,-0.0417025,-2.23476
1470244383983640,-0.383257,-0.0413484,-2.23363
1470244384006157,-0.38262,-0.041126,-2.23225
1470244384026178,-0.382696,-0.0407578,-2.2312
1470244384043690,-0.382831,-0.0403136,-2.23067
1470244384073717,-0.382942,-0.0403609,-2.22969
1470244384086231,-0.38321,-0.0403285,-2.22875
1470244384103746,-0.383098,-0.0397927,-2.22855
1470244384126265,-0.384878,-0.0395047,-2.22869
1470244384145782,-0.386818,-0.0394755,-2.22838
1470244384163799,-0.387437,-0.039256,-2.22808
1470244384186319,-0.386871,-0.0389622,-2.22799
1470244384205837,-0.385925,-0.0388153,-2.22846
1470244384223853,-0.385412,-0.0384136,-2.22868
1470244384246373,-0.385756,-0.0379883,-2.2288
1470244384265892,-0.385756,-0.0379883,-2.2288
1470244384283906,-0.385641,-0.0380407,-2.22877
1470244384305426,-0.385545,-0.0381055,-2.22889
1470244384325945,-0.385545,-0.0381055,-2.22889
1470244384351468,-0.385545,-0.0381055,-2.22889
1470244384366483,-0.385827,-0.0386122,-2.22862
1470244384385999,-0.386219,-0.0393019,-2.22813
1470244384404016,-0.386656,-0.0398512,-2.22774
1470244384425535,-0.387504,-0.0403832,-2.22761
1470244384446569,-0.388385,-0.040795,-2.22765
1470244384463067,-0.38883,-0.0409261,-2.22803
1470244384485588,-0.388317,-0.0407928,-2.2282
1470244384506606,-0.387644,-0.0405839,-2.22829
1470244384523123,-0.387253,-0.0401625,-2.22874
1470244384545642,-0.387685,-0.0400456,-2.22924
1470244384566662,-0.388245,-0.0401246,-2.22964
1470244384583175,-0.388675,-0.0399228,-2.22967
1470244384605695,-0.388578,-0.0399876,-2.22978
1470244384626745,-0.388578,-0.0399876,-2.22978
1470244384643229,-0.388802,-0.0401182,-2.22958
1470244384665782,-0.389302,-0.040272,-2.22947
1470244384687281,-0.390183,-0.0404169,-2.22956
1470244384702782,-0.390897,-0.0405393,-2.22985
1470244384725803,-0.392073,-0.0407206,-2.23018
1470244384746825,-0.393229,-0.0406217,-2.23042
1470244384762836,-0.393346,-0.0403881,-2.23097
1470244384785356,-0.392932,-0.040008,-2.23155
1470244384807877,-0.393044,-0.0395598,-2.23241
1470244384822892,-0.392573,-0.0388038,-2.23306
1470244384845410,-0.392356,-0.0379025,-2.23361
1470244384867933,-0.391194,-0.0364455,-2.23394
1470244384882949,-0.388339,-0.0341527,-2.23208
1470244384905466,-0.386759,-0.0327329,-2.23003
1470244384927985,-0.385997,-0.0320781,-2.229
1470244384942497,-0.385955,-0.0321657,-2.22862
1470244384965518,-0.385891,-0.0328297,-2.22828
1470244384988039,-0.387344,-0.0350907,-2.22785
1470244385002551,-0.393296,-0.0377111,-2.22697
1470244385025572,-0.399339,-0.0401257,-2.22599
1470244385048093,-0.402477,-0.0420034,-2.22493
1470244385062605,-0.404559,-0.0433231,-2.22335
1470244385086126,-0.406988,-0.0448046,-2.22206
1470244385108147,-0.40981,-0.0464866,-2.22065
1470244385122159,-0.413141,-0.0483152,-2.21913
1470244385145681,-0.416877,-0.050053,-2.21747
1470244385168200,-0.420517,-0.0517239,-2.21525
1470244385182213,-0.423424,-0.0530774,-2.21314
1470244385205734,-0.425716,-0.0540055,-2.21088
1470244385228256,-0.428431,-0.0550855,-2.20838
1470244385242767,-0.431958,-0.0569381,-2.20478
1470244385265788,-0.439808,-0.0618239,-2.20052
1470244385287807,-0.451777,-0.0693401,-2.19522
1470244385309326,-0.469872,-0.0776678,-2.18712
1470244385325341,-0.488186,-0.0845194,-2.17759
1470244385347861,-0.507246,-0.0914119,-2.1659
1470244385369381,-0.525752,-0.0990073,-2.15094
1470244385385395,-0.540868,-0.102238,-2.12862
1470244385409918,-0.554374,-0.0979003,-2.09945
1470244385428936,-0.565433,-0.0874813,-2.06594
1470244385445449,-0.57576,-0.0743552,-2.03147
1470244385467969,-0.582652,-0.0627376,-1.99541
1470244385488988,-0.586278,-0.0506865,-1.95858
1470244385505002,-0.58782,-0.0393155,-1.92222
1470244385528024,-0.587892,-0.0280352,-1.88643
1470244385549043,-0.586758,-0.0169305,-1.85079
1470244385565057,-0.583932,-0.00365526,-1.81623
