timestamp,x,y,z,w
1470261223719575,-0.0933228,0.487,0.835876,-0.235352
1470261223734591,-0.0936279,0.490967,0.834045,-0.233276
1470261223757109,-0.0933838,0.494202,0.832703,-0.231567
1470261223778128,-0.0930176,0.497314,0.831177,-0.230347
1470261223794643,-0.0929565,0.500305,0.829773,-0.229126
1470261223817667,-0.0930176,0.502319,0.828735,-0.228271
1470261223839683,-0.0930786,0.503601,0.828064,-0.228027
1470261223854698,-0.0930176,0.504089,0.827759,-0.228149
1470261223877216,-0.0930176,0.503723,0.827881,-0.228516
1470261223898234,-0.0932007,0.502869,0.828186,-0.229065
1470261223914751,-0.0935059,0.50177,0.828674,-0.229614
1470261223937271,-0.0938721,0.500793,0.829041,-0.230164
1470261223958289,-0.0940552,0.499512,0.829712,-0.230591
1470261223974805,-0.0941772,0.498657,0.830139,-0.230957
1470261223997325,-0.0941772,0.497803,0.830566,-0.231079
1470261224018349,-0.0941772,0.497803,0.830566,-0.231079
1470261224034861,-0.0942993,0.497925,0.830505,-0.230957
1470261224057379,-0.0944214,0.498047,0.830505,-0.230774
1470261224079899,-0.0944824,0.498291,0.830383,-0.230652
1470261224094912,-0.0945435,0.498596,0.8302,-0.230652
1470261224117935,-0.0946655,0.498779,0.830078,-0.230652
1470261224139952,-0.0947876,0.498901,0.829956,-0.230713
1470261224154966,-0.0949707,0.498718,0.830017,-0.230835
1470261224177486,-0.0950928,0.498657,0.830017,-0.231018
1470261224200007,-0.0949707,0.49823,0.8302,-0.231262
1470261224214019,-0.0950928,0.497864,0.830322,-0.231384
1470261224244547,-0.0950928,0.497864,0.830322,-0.231384
1470261224260060,-0.0950928,0.497559,0.830505,-0.231445
1470261224274073,-0.0950928,0.497498,0.830566,-0.231445
1470261224304601,-0.0951538,0.497437,0.830505,-0.231628
1470261224326119,-0.0951538,0.497437,0.830505,-0.231628
1470261224334131,-0.0951538,0.497437,0.830505,-0.231628
1470261224357162,-0.0951538,0.497437,0.830505,-0.231628
1470261224379681,-0.0949097,0.497192,0.83075,-0.231506
1470261224401201,-0.0946045,0.496826,0.830994,-0.231506
1470261224417217,-0.0946045,0.496826,0.830994,-0.231506
1470261224439736,-0.0944824,0.497131,0.830933,-0.231201
1470261224454249,-0.0940552,0.496948,0.831177,-0.230896
1470261224477269,-0.0939331,0.496765,0.83136,-0.230591
1470261224499792,-0.0936279,0.496216,0.831787,-0.230408
1470261224514302,-0.0928345,0.496155,0.832031,-0.22998
1470261224537323,-0.0913696,0.495239,0.832886,-0.22937
1470261224559844,-0.0895996,0.492981,0.834473,-0.229248
1470261224588369,-0.0890503,0.492004,0.835083,-0.229309
1470261224597378,-0.0887451,0.49115,0.835693,-0.229004
1470261224619897,-0.086731,0.488159,0.83783,-0.228394
1470261224640915,-0.0826416,0.483093,0.84137,-0.227661
1470261224657431,-0.0800171,0.477661,0.844604,-0.227966
1470261224679950,-0.0797119,0.475403,0.845886,-0.228088
1470261224700971,-0.079834,0.473816,0.846741,-0.228088
1470261224717485,-0.0791626,0.470642,0.848694,-0.227844
1470261224740005,-0.0765991,0.463318,0.852905,-0.227844
1470261224761051,-0.074646,0.456909,0.856445,-0.228333
1470261224777039,-0.074646,0.453003,0.858276,-0.229187
1470261224799559,-0.0753784,0.452576,0.858215,-0.229858
1470261224821078,-0.0756836,0.452454,0.858276,-0.229797
1470261224838095,-0.0748901,0.447144,0.860962,-0.230591
1470261224844100,-0.0740967,0.439392,0.864624,-0.231995
1470261224865117,-0.0738525,0.435303,0.866394,-0.233032
1470261224887653,-0.0740356,0.433838,0.867004,-0.233582
1470261224904152,-0.0743408,0.432922,0.867249,-0.234131
1470261224925197,-0.0739136,0.429504,0.868835,-0.234741
1470261224947717,-0.0725098,0.423523,0.871643,-0.235535
1470261224964206,-0.071106,0.419128,0.873718,-0.236267
1470261224985226,-0.0713501,0.420044,0.873169,-0.236572
1470261225007811,-0.0726929,0.423828,0.871338,-0.236328
1470261225024260,-0.0737915,0.426331,0.870056,-0.236084
1470261225045364,-0.0731812,0.424561,0.871033,-0.235779
1470261225075851,-0.0715942,0.420593,0.873047,-0.235901
1470261225084314,-0.0701294,0.418274,0.874268,-0.235962
1470261225106834,-0.0695801,0.418884,0.874084,-0.235901
1470261225127870,-0.0699463,0.420959,0.873047,-0.235779
1470261225143873,-0.0703735,0.422058,0.872498,-0.235657
1470261225165444,-0.0703125,0.421448,0.872803,-0.235779
1470261225187986,-0.0698242,0.4198,0.873596,-0.235962
1470261225202977,-0.0692749,0.418823,0.874023,-0.236145
1470261225225447,-0.0692139,0.418762,0.874084,-0.236145
1470261225247960,-0.069458,0.419189,0.87384,-0.236267
1470261225269996,-0.069519,0.419067,0.873901,-0.236267
1470261225285027,-0.0693359,0.418396,0.874207,-0.236328
1470261225307515,-0.0690308,0.417664,0.874512,-0.236511
1470261225322527,-0.0689697,0.417664,0.874512,-0.236511
1470261225353055,-0.0690918,0.417969,0.874329,-0.236572
1470261225367571,-0.0690918,0.417969,0.874329,-0.236572
1470261225385586,-0.0690918,0.417664,0.874512,-0.236633
1470261225405102,-0.0689087,0.417175,0.874695,-0.236694
1470261225427622,-0.0687866,0.416748,0.874878,-0.236816
1470261225442636,-0.0687866,0.416748,0.874878,-0.236816
1470261225465155,-0.0687866,0.416748,0.874878,-0.236816
1470261225487676,-0.0688477,0.416687,0.874878,-0.236877
1470261225502690,-0.0688477,0.41626,0.875061,-0.237061
1470261225525209,-0.0686646,0.415527,0.875366,-0.237244
1470261225547730,-0.0684814,0.414856,0.87561,-0.237549
1470261225562743,-0.0684814,0.414429,0.875793,-0.237732
1470261225585267,-0.0684814,0.414063,0.875916,-0.237915
1470261225607785,-0.0684204,0.413574,0.876038,-0.238159
1470261225624299,-0.0682983,0.413086,0.876282,-0.238342
1470261225645317,-0.0681763,0.412537,0.876465,-0.238586
1470261225667840,-0.0681152,0.411926,0.876648,-0.238892
1470261225691860,-0.0681152,0.411255,0.876892,-0.239197
1470261225705371,-0.0681152,0.410706,0.877075,-0.239502
1470261225727892,-0.0679932,0.410034,0.877319,-0.239746
1470261225743907,-0.0679321,0.409302,0.877625,-0.23999
1470261225772931,-0.0680542,0.408875,0.877747,-0.240173
1470261225787945,-0.0680542,0.408569,0.877869,-0.240234
1470261225803960,-0.0680542,0.408325,0.877991,-0.240356
1470261225825480,-0.0680542,0.408081,0.878052,-0.240417
1470261225848000,-0.0681152,0.407776,0.878174,-0.24054
1470261225864514,-0.0681152,0.407776,0.878174,-0.24054
1470261225885535,-0.0681152,0.407776,0.878174,-0.24054
1470261225907553,-0.0681152,0.407776,0.878174,-0.24054
1470261225924068,-0.0681152,0.407776,0.878174,-0.24054
1470261225945089,-0.0681152,0.407776,0.878174,-0.24054
1470261225968110,-0.0679932,0.407532,0.878235,-0.240601
1470261225986124,-0.0679321,0.407288,0.878357,-0.240723
1470261226005142,-0.0679321,0.407288,0.878357,-0.240723
1470261226027662,-0.0680542,0.407349,0.878296,-0.240723
1470261226045678,-0.0680542,0.407349,0.878296,-0.240723
1470261226065196,-0.0681152,0.407349,0.878296,-0.240723
1470261226087715,-0.0679321,0.406982,0.878479,-0.240784
1470261226105731,-0.0679321,0.406982,0.878479,-0.240784
1470261226125249,-0.0679321,0.406982,0.878479,-0.240784
1470261226147769,-0.0679321,0.406982,0.878479,-0.240784
1470261226165785,-0.0679321,0.406921,0.878479,-0.240784
1470261226185304,-0.0679321,0.406921,0.878479,-0.240784
1470261226207823,-0.0679321,0.406921,0.878479,-0.240784
1470261226225839,-0.0679321,0.406921,0.87854,-0.240784
1470261226245356,-0.0679321,0.406921,0.87854,-0.240784
1470261226267882,-0.0679321,0.40686,0.87854,-0.240784
1470261226285893,-0.0679321,0.40686,0.87854,-0.240784
1470261226305411,-0.0679321,0.40686,0.87854,-0.240784
1470261226330433,-0.0679321,0.40686,0.87854,-0.240784
1470261226345947,-0.0679321,0.406799,0.87854,-0.240784
1470261226365464,-0.0679321,0.406799,0.87854,-0.240784
1470261226390487,-0.0679321,0.406799,0.87854,-0.240784
1470261226405500,-0.0679321,0.406799,0.87854,-0.240784
1470261226425518,-0.0679321,0.406738,0.878601,-0.240784
1470261226448038,-0.0679321,0.406738,0.878601,-0.240784
1470261226465555,-0.0679321,0.406738,0.878601,-0.240784
1470261226485573,-0.0679321,0.406677,0.878601,-0.240784
1470261226507592,-0.0679321,0.406677,0.878601,-0.240784
1470261226525608,-0.0679321,0.406677,0.878601,-0.240784
1470261226546627,-0.0679321,0.406677,0.878601,-0.240784
1470261226569648,-0.0679321,0.406616,0.878601,-0.240784
1470261226585663,-0.0679321,0.406677,0.878601,-0.240784
1470261226606681,-0.0679321,0.406616,0.878662,-0.240784
1470261226627701,-0.0679321,0.406616,0.878662,-0.240784
1470261226645716,-0.0680542,0.406677,0.878601,-0.240845
1470261226666737,-0.0681152,0.406616,0.878601,-0.240845
1470261226687753,-0.0681152,0.406616,0.878601,-0.240845
1470261226705771,-0.0681152,0.406616,0.878601,-0.240845
1470261226726789,-0.0680542,0.406616,0.878601,-0.240845
1470261226747808,-0.0681152,0.406616,0.878662,-0.240845
1470261226765824,-0.0681152,0.406555,0.878662,-0.240845
1470261226786843,-0.0681152,0.406555,0.878662,-0.240845
1470261226807861,-0.0680542,0.406555,0.878662,-0.240845
1470261226825378,-0.0680542,0.406555,0.878662,-0.240845
1470261226846396,-0.0680542,0.406494,0.878662,-0.240845
1470261226867918,-0.0680542,0.406494,0.878662,-0.240845
1470261226885433,-0.0680542,0.406494,0.878662,-0.240845
1470261226907951,-0.0680542,0.406494,0.878662,-0.240845
1470261226927969,-0.0681152,0.406494,0.878662,-0.240845
1470261226945485,-0.0680542,0.40625,0.878784,-0.240845
1470261226974511,-0.0680542,0.406189,0.878784,-0.240845
1470261226988023,-0.0680542,0.406189,0.878784,-0.240845
1470261227005539,-0.0680542,0.406189,0.878845,-0.240845
1470261227028059,-0.0680542,0.406189,0.878845,-0.240845
1470261227051083,-0.0680542,0.406128,0.878845,-0.240845
1470261227065594,-0.0680542,0.406128,0.878845,-0.240845
1470261227088114,-0.0680542,0.406128,0.878845,-0.240845
1470261227107631,-0.0680542,0.406128,0.878845,-0.240845
1470261227125647,-0.0680542,0.406067,0.878845,-0.240845
1470261227148167,-0.0680542,0.406067,0.878845,-0.240845
1470261227168188,-0.0680542,0.406067,0.878906,-0.240845
1470261227185702,-0.0680542,0.406006,0.878906,-0.240845
1470261227208221,-0.0680542,0.406006,0.878906,-0.240845
1470261227228239,-0.0680542,0.406006,0.878906,-0.240845
1470261227245755,-0.0680542,0.406006,0.878906,-0.240845
1470261227268277,-0.0680542,0.405945,0.878906,-0.240845
1470261227287793,-0.0680542,0.405945,0.878906,-0.240845
1470261227305809,-0.0680542,0.405945,0.878906,-0.240845
1470261227328329,-0.0680542,0.405945,0.878906,-0.240845
1470261227347847,-0.0680542,0.405945,0.878906,-0.240845
1470261227364862,-0.0680542,0.405884,0.878967,-0.240845
1470261227387382,-0.0680542,0.405884,0.878967,-0.240845
1470261227408401,-0.0680542,0.405884,0.878967,-0.240845
1470261227424917,-0.0680542,0.405884,0.878967,-0.240845
1470261227447436,-0.0680542,0.405884,0.878967,-0.240845
1470261227468459,-0.0680542,0.405884,0.878967,-0.240845
1470261227484971,-0.0681152,0.406067,0.878845,-0.240784
1470261227507490,-0.0681152,0.406067,0.878845,-0.240784
1470261227528510,-0.0679932,0.405884,0.878967,-0.240845
1470261227545024,-0.0679932,0.405884,0.878967,-0.240845
1470261227575050,-0.0679932,0.405823,0.878967,-0.240845
1470261227588562,-0.0679932,0.405823,0.878967,-0.240845
1470261227605077,-0.0679932,0.405823,0.878967,-0.240845
1470261227627597,-0.0679932,0.405823,0.878967,-0.240845
1470261227648116,-0.0679932,0.405823,0.878967,-0.240845
1470261227664631,-0.0679932,0.405823,0.878967,-0.240845
1470261227695158,-0.0679932,0.405762,0.879028,-0.240845
1470261227708671,-0.0679932,0.405762,0.879028,-0.240845
1470261227724685,-0.0679932,0.405762,0.879028,-0.240845
1470261227747205,-0.0679932,0.405762,0.879028,-0.240845
1470261227769729,-0.0679932,0.405762,0.879028,-0.240845
1470261227786242,-0.0679932,0.405762,0.879028,-0.240845
1470261227807259,-0.0679932,0.405762,0.879028,-0.240845
1470261227828277,-0.0679932,0.405762,0.879028,-0.240845
1470261227844793,-0.0679932,0.405701,0.879028,-0.240845
1470261227867815,-0.0679932,0.405701,0.879028,-0.240845
1470261227889833,-0.0679932,0.405701,0.879028,-0.240845
1470261227904847,-0.0679932,0.405701,0.879028,-0.240845
1470261227927367,-0.0679932,0.40564,0.879028,-0.240845
1470261227949888,-0.0679932,0.40564,0.879028,-0.240845
1470261227964901,-0.0679932,0.40564,0.879028,-0.240845
1470261227987421,-0.0679932,0.40564,0.879028,-0.240845
1470261228009942,-0.0679932,0.40564,0.879028,-0.240845
1470261228024453,-0.0679932,0.40564,0.879089,-0.240845
1470261228047474,-0.0679932,0.40564,0.879089,-0.240845
1470261228069996,-0.0679932,0.405579,0.879089,-0.240845
1470261228084007,-0.0679932,0.405579,0.879089,-0.240845
1470261228107562,-0.0680542,0.405579,0.879089,-0.240845
1470261228130048,-0.0679932,0.405579,0.879089,-0.240845
1470261228144063,-0.0679932,0.405579,0.879089,-0.240845
1470261228167586,-0.0679932,0.405518,0.879089,-0.240845
1470261228190103,-0.0679932,0.405518,0.879089,-0.240845
1470261228212124,-0.0680542,0.405518,0.879089,-0.240845
1470261228227638,-0.0680542,0.405518,0.87915,-0.240845
1470261228250159,-0.0680542,0.405518,0.879089,-0.240845
1470261228264169,-0.0680542,0.405518,0.87915,-0.240845
1470261228287190,-0.0680542,0.405518,0.87915,-0.240845
1470261228309710,-0.0680542,0.405518,0.87915,-0.240845
1470261228324224,-0.0680542,0.405518,0.87915,-0.240845
1470261228347244,-0.0680542,0.405518,0.87915,-0.240845
1470261228369765,-0.0680542,0.405518,0.87915,-0.240845
1470261228390783,-0.0680542,0.405518,0.87915,-0.240845
1470261228407298,-0.0680542,0.405518,0.87915,-0.240845
1470261228443832,-0.0680542,0.405457,0.87915,-0.240845
1470261228450840,-0.0680542,0.405457,0.87915,-0.240845
1470261228467354,-0.0680542,0.405457,0.87915,-0.240845
1470261228489872,-0.0680542,0.405457,0.87915,-0.240845
1470261228510907,-0.0680542,0.405457,0.87915,-0.240845
1470261228527406,-0.0680542,0.405457,0.87915,-0.240845
1470261228550928,-0.0680542,0.405457,0.87915,-0.240845
1470261228570962,-0.0680542,0.405457,0.87915,-0.240845
1470261228587460,-0.0680542,0.405457,0.87915,-0.240845
1470261228615984,-0.0680542,0.405457,0.87915,-0.240845
1470261228638506,-0.0680542,0.405457,0.87915,-0.240845
1470261228647514,-0.0680542,0.405457,0.87915,-0.240845
1470261228670033,-0.0679321,0.405273,0.879211,-0.240845
1470261228691088,-0.0679321,0.405273,0.879272,-0.240845
1470261228707566,-0.0679321,0.405273,0.879272,-0.240845
1470261228730087,-0.0679321,0.405273,0.879272,-0.240845
1470261228751108,-0.0679321,0.405273,0.879211,-0.240845
1470261228769123,-0.0679321,0.405273,0.879211,-0.240845
1470261228790141,-0.0679321,0.405273,0.879211,-0.240845
1470261228812662,-0.0679321,0.405273,0.879211,-0.240845
1470261228827175,-0.0679321,0.405273,0.879272,-0.240845
1470261228850196,-0.0679321,0.405273,0.879272,-0.240845
1470261228872216,-0.0679321,0.405273,0.879272,-0.240845
1470261228887229,-0.0679321,0.405273,0.879272,-0.240845
1470261228915755,-0.0679932,0.405212,0.879272,-0.240845
1470261228932269,-0.0679321,0.405212,0.879272,-0.240845
1470261228946782,-0.0679321,0.405212,0.879272,-0.240845
1470261228969803,-0.0679321,0.405212,0.879272,-0.240845
1470261228992322,-0.0679321,0.405212,0.879272,-0.240845
1470261229006836,-0.0679932,0.405151,0.879272,-0.240845
1470261229029857,-0.0679932,0.405151,0.879272,-0.240845
1470261229052381,-0.0679932,0.405151,0.879272,-0.240845
1470261229074897,-0.0679932,0.405151,0.879272,-0.240845
1470261229089911,-0.0679321,0.405151,0.879272,-0.240845
1470261229112431,-0.0679321,0.405151,0.879272,-0.240845
1470261229126959,-0.0679932,0.405151,0.879272,-0.240845
1470261229149966,-0.0679932,0.405151,0.879272,-0.240845
1470261229172485,-0.0679932,0.405151,0.879333,-0.240845
1470261229186499,-0.0679932,0.405151,0.879333,-0.240845
1470261229210018,-0.0679321,0.40509,0.879333,-0.240845
1470261229233542,-0.0679932,0.40509,0.879333,-0.240845
1470261229247052,-0.0679932,0.40509,0.879333,-0.240845
1470261229276108,-0.0679932,0.40509,0.879333,-0.240845
1470261229292592,-0.0679932,0.40509,0.879333,-0.240845
1470261229313612,-0.0679932,0.40509,0.879333,-0.240845
1470261229330126,-0.0679932,0.405029,0.879333,-0.240845
1470261229353148,-0.0679321,0.405029,0.879333,-0.240845
1470261229373666,-0.0679321,0.405029,0.879333,-0.240845
1470261229389680,-0.0679321,0.405029,0.879333,-0.240845
1470261229412700,-0.0679321,0.405029,0.879333,-0.240845
1470261229433720,-0.0679321,0.405029,0.879333,-0.240845
1470261229449734,-0.0679321,0.404968,0.879395,-0.240845
1470261229472255,-0.0679321,0.404968,0.879395,-0.240845
1470261229493773,-0.0679321,0.405029,0.879333,-0.240845
1470261229509787,-0.0678711,0.404785,0.879456,-0.240906
1470261229532308,-0.0678711,0.404785,0.879456,-0.240906
1470261229553328,-0.0678711,0.404785,0.879456,-0.240906
1470261229569842,-0.0678711,0.404724,0.879456,-0.240906
1470261229592362,-0.0678711,0.404724,0.879456,-0.240906
1470261229613396,-0.0678711,0.404724,0.879456,-0.240845
1470261229629897,-0.0678711,0.404785,0.879456,-0.240906
1470261229659935,-0.0678711,0.404785,0.879456,-0.240845
1470261229673940,-0.0678711,0.404785,0.879456,-0.240845
1470261229689950,-0.0678711,0.404724,0.879517,-0.240845
1470261229712469,-0.0678711,0.404724,0.879517,-0.240845
1470261229733489,-0.0678711,0.404724,0.879517,-0.240845
1470261229750005,-0.0678711,0.404724,0.879517,-0.240845
1470261229772525,-0.0678711,0.404724,0.879517,-0.240845
1470261229795044,-0.0678711,0.404724,0.879517,-0.240845
1470261229810057,-0.0678711,0.404724,0.879517,-0.240845
1470261229832577,-0.0678711,0.404724,0.879517,-0.240845
1470261229854618,-0.0678711,0.404724,0.879517,-0.240845
1470261229869613,-0.0678711,0.404663,0.879517,-0.240845
1470261229892631,-0.0678711,0.404663,0.879517,-0.240845
1470261229914653,-0.0678711,0.404663,0.879517,-0.240845
1470261229929164,-0.0678711,0.404663,0.879517,-0.240845
1470261229952185,-0.0678711,0.404663,0.879517,-0.240845
1470261229974705,-0.0678711,0.404663,0.879517,-0.240845
1470261229989218,-0.0678711,0.404663,0.879517,-0.240845
1470261230019745,-0.0678711,0.404663,0.879517,-0.240845
1470261230034761,-0.0678711,0.404663,0.879517,-0.240845
1470261230049272,-0.0678711,0.404663,0.879517,-0.240845
1470261230072357,-0.0678711,0.404663,0.879517,-0.240845
1470261230094813,-0.0678711,0.404663,0.879517,-0.240845
1470261230109353,-0.0678711,0.404663,0.879517,-0.240845
1470261230132347,-0.0679321,0.404663,0.879517,-0.240845
1470261230154867,-0.0679321,0.404663,0.879517,-0.240845
1470261230169380,-0.0679321,0.404663,0.879517,-0.240845
1470261230192402,-0.0679321,0.404663,0.879517,-0.240845
1470261230214921,-0.0679321,0.404663,0.879517,-0.240845
1470261230236943,-0.0679321,0.404663,0.879517,-0.240845
1470261230252955,-0.0679321,0.404663,0.879517,-0.240845
1470261230274974,-0.0679321,0.404663,0.879517,-0.240845
1470261230296994,-0.0679321,0.404663,0.879517,-0.240845
1470261230312509,-0.0679321,0.404663,0.879517,-0.240845
1470261230335030,-0.0679321,0.404663,0.879517,-0.240845
1470261230356046,-0.0679321,0.404663,0.879517,-0.240845
1470261230380068,-0.0679321,0.404663,0.879517,-0.240845
1470261230395082,-0.0679321,0.404663,0.879517,-0.240845
1470261230416101,-0.0679321,0.404663,0.879517,-0.240845
1470261230432616,-0.0679321,0.404663,0.879517,-0.240845
1470261230454638,-0.0679321,0.404663,0.879517,-0.240845
1470261230476155,-0.0679321,0.404663,0.879517,-0.240845
1470261230492670,-0.0679321,0.404663,0.879517,-0.240845
1470261230514690,-0.0679321,0.404663,0.879517,-0.240845
1470261230536211,-0.0679321,0.404724,0.879517,-0.240845
1470261230552724,-0.0679321,0.404724,0.879517,-0.240845
1470261230582251,-0.0679321,0.404724,0.879517,-0.240845
1470261230595777,-0.0679321,0.404724,0.879517,-0.240845
1470261230612277,-0.0679321,0.404724,0.879517,-0.240845
1470261230634801,-0.0679321,0.404724,0.879517,-0.240845
1470261230655860,-0.0679321,0.404724,0.879517,-0.240845
1470261230672332,-0.0679321,0.404724,0.879517,-0.240845
1470261230694852,-0.0679321,0.404724,0.879517,-0.240845
1470261230717375,-0.0679932,0.404724,0.879517,-0.240845
1470261230739892,-0.0679932,0.404724,0.879517,-0.240845
1470261230754905,-0.0679932,0.404724,0.879517,-0.240845
1470261230777426,-0.0679932,0.404724,0.879517,-0.240845
1470261230792439,-0.0679932,0.404724,0.879517,-0.240845
1470261230822468,-0.0679932,0.404724,0.879517,-0.240845
1470261230852493,-0.0679932,0.404724,0.879517,-0.240845
1470261230854495,-0.0679932,0.404724,0.879517,-0.240845
1470261230875014,-0.0679932,0.404724,0.879517,-0.240845
1470261230905041,-0.0679932,0.404785,0.879456,-0.240906
1470261230911571,-0.0678711,0.404541,0.879456,-0.241333
1470261230935069,-0.067688,0.40387,0.879517,-0.242188
1470261230957588,-0.0679321,0.403442,0.879395,-0.243225
1470261230978662,-0.0683594,0.401306,0.880005,-0.24469
1470261230995124,-0.0682373,0.396667,0.88147,-0.246826
1470261231017644,-0.0682373,0.391968,0.882874,-0.24939
1470261231038713,-0.0682983,0.387329,0.884155,-0.251892
1470261231054734,-0.0671997,0.381592,0.886047,-0.254456
1470261231077695,-0.0670166,0.376953,0.887329,-0.256897
1470261231098733,-0.0675049,0.375183,0.887451,-0.258911
1470261231114728,-0.0690918,0.374207,0.88739,-0.260132
1470261231137249,-0.0705566,0.373657,0.887085,-0.261658
1470261231158768,-0.0738525,0.375977,0.885498,-0.262695
1470261231174782,-0.0775757,0.379578,0.88324,-0.26416
1470261231197353,-0.0812988,0.381653,0.881592,-0.265503
1470261231218404,-0.0836792,0.38324,0.879517,-0.269348
1470261231235915,-0.0869751,0.384277,0.877441,-0.273499
1470261231257435,-0.0895386,0.385437,0.874207,-0.281372
1470261231278459,-0.0939331,0.386597,0.870483,-0.289673
1470261231294969,-0.0973511,0.387146,0.866028,-0.301025
1470261231324995,-0.100525,0.386841,0.860657,-0.315369
1470261231346513,-0.104187,0.384705,0.855042,-0.331665
1470261231355022,-0.108276,0.380798,0.848999,-0.349854
1470261231377542,-0.11322,0.37616,0.841675,-0.370483
1470261231398561,-0.119873,0.371277,0.832886,-0.392517
1470261231415076,-0.127563,0.365479,0.823242,-0.415222
1470261231437597,-0.136047,0.35907,0.812439,-0.43866
1470261231458669,-0.144653,0.351257,0.801025,-0.462646
1470261231474663,-0.153381,0.342102,0.78949,-0.485962
1470261231497650,-0.16272,0.332458,0.777771,-0.507996
1470261231526176,-0.173218,0.322754,0.766296,-0.527832
1470261231541189,-0.184937,0.313599,0.755737,-0.544373
1470261231557704,-0.196777,0.305054,0.74707,-0.556885
1470261231578722,-0.20813,0.296143,0.740601,-0.566162
1470261231594236,-0.218201,0.28772,0.735474,-0.573303
1470261231617759,-0.228516,0.280945,0.731079,-0.578247
1470261231639781,-0.237976,0.275818,0.727722,-0.581116
1470261231654290,-0.244934,0.271484,0.726074,-0.582336
1470261231677311,-0.249695,0.267517,0.726379,-0.581787
1470261231699833,-0.25354,0.264221,0.727722,-0.579956
1470261231720852,-0.256592,0.261658,0.72937,-0.577698
1470261231737367,-0.257385,0.257935,0.731262,-0.576599
1470261231759885,-0.259155,0.257446,0.730774,-0.57666
1470261231774398,-0.257202,0.257385,0.730408,-0.578003
1470261231797421,-0.253906,0.256042,0.730713,-0.579712
1470261231819940,-0.25293,0.256042,0.730225,-0.58075
1470261231834453,-0.253479,0.256287,0.729736,-0.580994
1470261231857473,-0.25238,0.254089,0.730103,-0.58197
1470261231879994,-0.250549,0.25116,0.730774,-0.583191
1470261231894014,-0.249268,0.249329,0.731079,-0.584167
1470261231917527,-0.248596,0.248718,0.730957,-0.584839
1470261231940046,-0.248169,0.24884,0.730652,-0.585388
1470261231954059,-0.247559,0.24884,0.730469,-0.585815
1470261231977581,-0.246521,0.24823,0.730652,-0.586304
1470261232000104,-0.245667,0.24762,0.730774,-0.586792
1470261232014114,-0.244934,0.247131,0.730835,-0.587219
1470261232037635,-0.244385,0.246765,0.730835,-0.587585
1470261232060154,-0.243774,0.246338,0.730896,-0.587891
1470261232074167,-0.243225,0.245789,0.731079,-0.588196
1470261232097688,-0.242615,0.2453,0.731262,-0.588379
1470261232120210,-0.242004,0.244934,0.731445,-0.588623
1470261232141228,-0.241516,0.244568,0.731567,-0.588806
1470261232157291,-0.240845,0.244202,0.73175,-0.588928
1470261232179777,-0.240112,0.243652,0.732056,-0.589111
1470261232201282,-0.239319,0.243103,0.732361,-0.589294
1470261232218300,-0.238464,0.242493,0.732605,-0.589539
1470261232239816,-0.23761,0.241882,0.732971,-0.589722
1470261232261337,-0.236938,0.241333,0.733276,-0.589844
1470261232277352,-0.236267,0.240906,0.733521,-0.589966
1470261232299871,-0.235779,0.240601,0.733704,-0.590088
1470261232321435,-0.235352,0.240356,0.733887,-0.590088
1470261232337404,-0.235046,0.240112,0.73407,-0.590149
1470261232359924,-0.234497,0.239807,0.734192,-0.590271
1470261232380973,-0.233948,0.239441,0.734375,-0.590393
1470261232404965,-0.233398,0.239136,0.734497,-0.590637
1470261232419978,-0.232849,0.238831,0.734619,-0.59082
1470261232440996,-0.2323,0.238586,0.734741,-0.591003
1470261232457511,-0.231812,0.238403,0.734802,-0.591187
1470261232480032,-0.231445,0.238281,0.734863,-0.591248
1470261232501097,-0.231445,0.238281,0.734863,-0.591248
1470261232517567,-0.231445,0.238342,0.734863,-0.591248
1470261232540086,-0.231201,0.238098,0.734985,-0.591309
1470261232561105,-0.230774,0.237793,0.735107,-0.591492
1470261232577619,-0.230469,0.23761,0.735168,-0.591553
1470261232600140,-0.230347,0.237488,0.735168,-0.591675
1470261232622659,-0.230286,0.237488,0.735168,-0.591675
1470261232628164,-0.230286,0.237488,0.735168,-0.591675
1470261232643202,-0.230286,0.237488,0.735168,-0.591675
1470261232665198,-0.230225,0.237305,0.735168,-0.591736
1470261232688219,-0.230225,0.237305,0.735168,-0.591736
1470261232702734,-0.230164,0.237305,0.735168,-0.591736
1470261232725307,-0.230164,0.237305,0.735168,-0.591736
1470261232747789,-0.230164,0.237305,0.735168,-0.591736
1470261232762813,-0.230042,0.237183,0.735291,-0.591736
1470261232785312,-0.230042,0.237183,0.735291,-0.591736
1470261232807853,-0.230042,0.237183,0.735291,-0.591736
1470261232822885,-0.22998,0.237183,0.735291,-0.591797
1470261232845448,-0.22998,0.237183,0.735291,-0.591797
1470261232869382,-0.22998,0.237122,0.735291,-0.591797
1470261232882950,-0.22998,0.237122,0.735291,-0.591797
1470261232905439,-0.22998,0.237122,0.735291,-0.591797
1470261232927978,-0.229919,0.237122,0.735291,-0.591797
1470261232942948,-0.229919,0.237122,0.735291,-0.591797
1470261232965512,-0.229919,0.237122,0.735291,-0.591797
1470261232990991,-0.229858,0.237122,0.735291,-0.591797
1470261233003030,-0.229858,0.237122,0.735291,-0.591797
1470261233025602,-0.229858,0.237122,0.735291,-0.591797
1470261233048090,-0.229858,0.237122,0.735291,-0.591797
1470261233063066,-0.229858,0.237122,0.735291,-0.591797
1470261233085576,-0.229858,0.237122,0.735291,-0.591797
1470261233107595,-0.229858,0.237061,0.735291,-0.591797
1470261233124110,-0.229858,0.237061,0.735291,-0.591797
1470261233145129,-0.229858,0.237061,0.735352,-0.591797
1470261233167656,-0.229858,0.237061,0.735352,-0.591797
1470261233184179,-0.22998,0.237122,0.735291,-0.591797
1470261233205196,-0.230164,0.237244,0.735229,-0.591736
1470261233228203,-0.230164,0.237244,0.735229,-0.591736
1470261233245222,-0.230164,0.237244,0.735291,-0.591736
1470261233265802,-0.230164,0.237244,0.735291,-0.591736
1470261233287760,-0.230164,0.237244,0.735291,-0.591736
1470261233304273,-0.230164,0.237244,0.735291,-0.591736
1470261233325291,-0.230164,0.237244,0.735291,-0.591736
1470261233347815,-0.230164,0.237244,0.735291,-0.591736
1470261233364326,-0.22998,0.237183,0.735352,-0.591736
1470261233385354,-0.229736,0.237061,0.735413,-0.591797
1470261233407881,-0.229675,0.237,0.735413,-0.591797
1470261233431887,-0.229675,0.237,0.735413,-0.591797
1470261233445399,-0.229858,0.237122,0.735352,-0.591736
1470261233467920,-0.229858,0.237122,0.735352,-0.591736
1470261233484435,-0.229858,0.237122,0.735352,-0.591736
1470261233505452,-0.229858,0.237122,0.735352,-0.591736
1470261233527991,-0.229797,0.237122,0.735352,-0.591736
1470261233545989,-0.229797,0.237122,0.735352,-0.591736
1470261233565523,-0.230042,0.237244,0.735413,-0.591553
1470261233588072,-0.230774,0.237488,0.735352,-0.591248
1470261233606043,-0.231995,0.237854,0.735291,-0.590698
1470261233628064,-0.234009,0.238586,0.735046,-0.589966
1470261233648082,-0.236206,0.239441,0.734741,-0.589111
1470261233665600,-0.238525,0.240479,0.734497,-0.588013
1470261233685615,-0.241577,0.241882,0.734253,-0.586487
1470261233708150,-0.24585,0.244629,0.733643,-0.584351
1470261233725650,-0.250488,0.249146,0.733398,-0.580811
1470261233745762,-0.255188,0.255859,0.733765,-0.575317
1470261233768189,-0.258362,0.265198,0.734863,-0.568237
1470261233785707,-0.258667,0.276489,0.736328,-0.56073
1470261233805765,-0.254822,0.286377,0.738647,-0.554504
1470261233827743,-0.24646,0.295105,0.741272,-0.550171
1470261233845771,-0.231689,0.304993,0.744324,-0.547119
1470261233865276,-0.210999,0.315918,0.74823,-0.543884
1470261233887796,-0.18689,0.329773,0.751831,-0.53949
1470261233905859,-0.161194,0.347473,0.754211,-0.533264
1470261233925330,-0.13446,0.364807,0.757324,-0.524658
1470261233949351,-0.106323,0.381042,0.760681,-0.514648
1470261233965866,-0.0766602,0.396729,0.763733,-0.503357
1470261233985386,-0.0460815,0.412476,0.765137,-0.492249
1470261234015442,-0.0148315,0.427185,0.765137,-0.481506
1470261234025919,0.0163574,0.439026,0.764709,-0.471313
1470261234045471,0.0473022,0.448364,0.764282,-0.46106
1470261234067996,0.0779419,0.4552,0.76416,-0.450256
1470261234085976,0.106201,0.460876,0.764038,-0.438782
1470261234105508,0.130798,0.466248,0.763306,-0.42749
1470261234135526,0.151489,0.472107,0.761414,-0.41748
1470261234153536,0.168701,0.4776,0.759094,-0.408813
1470261234167048,0.184814,0.483154,0.755615,-0.401672
1470261234191094,0.198059,0.487427,0.752319,-0.396423
1470261234205581,0.208252,0.491028,0.749084,-0.392944
1470261234227100,0.215637,0.493896,0.746521,-0.390137
1470261234248119,0.220398,0.496033,0.744934,-0.387817
1470261234265635,0.223083,0.496948,0.744568,-0.385742
1470261234287155,0.224121,0.496948,0.745178,-0.384033
1470261234315738,0.223511,0.496704,0.746216,-0.38269
1470261234325689,0.221375,0.496643,0.747314,-0.381897
1470261234348227,0.218323,0.496643,0.748413,-0.38147
1470261234368229,0.214844,0.496277,0.749573,-0.381653
1470261234385746,0.211792,0.495361,0.750793,-0.382141
1470261234406762,0.209534,0.494263,0.751953,-0.382507
1470261234427782,0.208008,0.492859,0.753052,-0.382996
1470261234445797,0.206787,0.491089,0.754211,-0.383606
1470261234466817,0.20575,0.489136,0.75531,-0.384583
1470261234487836,0.204773,0.488098,0.755859,-0.385254
1470261234505866,0.203857,0.487305,0.756531,-0.385498
1470261234528371,0.203064,0.486206,0.757446,-0.385437
1470261234547890,0.202332,0.484924,0.758484,-0.385437
1470261234579417,0.201782,0.483337,0.759583,-0.385559
1470261234588425,0.201355,0.481812,0.76062,-0.38562
1470261234607984,0.200928,0.479797,0.761902,-0.385742
1470261234625959,0.200256,0.477112,0.763733,-0.385925
1470261234648506,0.198608,0.474121,0.766174,-0.38562
1470261234667999,0.195618,0.471069,0.769348,-0.38446
1470261234686014,0.191101,0.468079,0.773438,-0.382202
1470261234708032,0.185059,0.46521,0.778442,-0.378601
1470261234728059,0.177185,0.462036,0.784485,-0.373718
1470261234745565,0.166748,0.459106,0.791199,-0.367859
1470261234768089,0.153198,0.457092,0.79834,-0.360779
1470261234790606,0.136353,0.456787,0.805115,-0.352783
1470261234805620,0.116638,0.458862,0.810852,-0.343872
1470261234828140,0.0973511,0.462952,0.815002,-0.334595
1470261234848158,0.0800171,0.46759,0.817749,-0.325806
1470261234865675,0.0678101,0.469238,0.820496,-0.319214
1470261234888194,0.059021,0.46759,0.824219,-0.313782
1470261234915742,0.0499878,0.464172,0.828735,-0.308411
1470261234924276,0.0380859,0.462769,0.832397,-0.302368
1470261234948248,0.0252075,0.461243,0.836304,-0.295166
1470261234967769,0.0136719,0.45636,0.842041,-0.287109
1470261234985783,0.00280762,0.450073,0.848145,-0.279419
1470261235008304,-0.00897217,0.446228,0.852478,-0.272034
1470261235027845,-0.0212402,0.446106,0.854492,-0.265076
1470261235045884,-0.0318604,0.445618,0.856567,-0.258179
1470261235068359,-0.0389404,0.4422,0.859802,-0.252319
1470261235090933,-0.0427246,0.437378,0.863159,-0.248413
1470261235105897,-0.0454102,0.434326,0.865356,-0.245667
1470261235134919,-0.0485229,0.433594,0.866333,-0.242981
1470261235148470,-0.0515747,0.433533,0.866943,-0.240234
1470261235171021,-0.0529175,0.432739,0.86792,-0.237915
1470261235187463,-0.0545044,0.432007,0.868896,-0.235229
1470261235208515,-0.0571289,0.432068,0.869446,-0.232361
1470261235224496,-0.0596313,0.432983,0.869507,-0.229858
1470261235249519,-0.0625,0.433777,0.869629,-0.227173
1470261235268538,-0.0645142,0.434509,0.869629,-0.22522
1470261235292581,-0.0653687,0.43457,0.869873,-0.223938
1470261235307572,-0.0656128,0.43457,0.869934,-0.223572
1470261235328591,-0.0655518,0.434631,0.869873,-0.223633
1470261235345105,-0.0653687,0.434082,0.870178,-0.223633
1470261235367626,-0.0649414,0.432922,0.870789,-0.223755
1470261235390147,-0.0648804,0.431702,0.871338,-0.22406
1470261235406159,-0.0650635,0.430603,0.871765,-0.224243
1470261235427678,-0.0653687,0.429504,0.872314,-0.224304
1470261235450199,-0.0653687,0.42804,0.872986,-0.224243
1470261235465212,-0.0652466,0.426514,0.873779,-0.224121
1470261235487733,-0.0650635,0.425171,0.874451,-0.224182
1470261235509753,-0.0650635,0.423584,0.875183,-0.224365
1470261235524766,-0.0648804,0.421692,0.876038,-0.22467
1470261235547286,-0.0643921,0.419312,0.877136,-0.224915
1470261235569806,-0.0639038,0.417358,0.878113,-0.224915
1470261235584321,-0.0634766,0.416199,0.878723,-0.224792
1470261235607351,-0.0631104,0.415649,0.879089,-0.224548
1470261235629859,-0.0628662,0.414978,0.879456,-0.224304
1470261235659887,-0.0626221,0.414673,0.8797,-0.223999
1470261235667396,-0.062439,0.414307,0.879944,-0.223755
1470261235689914,-0.0622559,0.413696,0.88031,-0.223694
1470261235704427,-0.0621338,0.412903,0.880615,-0.223816
1470261235742463,-0.0620728,0.412231,0.880859,-0.223999
1470261235750469,-0.0620728,0.411682,0.881104,-0.224182
1470261235764483,-0.0620117,0.41095,0.881409,-0.224365
1470261235787502,-0.0618896,0.410156,0.881714,-0.224487
1470261235810026,-0.0617676,0.409546,0.882019,-0.22467
1470261235824535,-0.0617676,0.409302,0.882141,-0.22467
1470261235847556,-0.0617676,0.409302,0.882141,-0.224609
1470261235870077,-0.0617676,0.409119,0.882202,-0.22467
1470261235884591,-0.0616455,0.408691,0.882385,-0.224792
1470261235907610,-0.0615845,0.408325,0.882507,-0.224915
1470261235937637,-0.0615234,0.407959,0.882629,-0.225037
1470261235958659,-0.0615234,0.407959,0.882629,-0.225037
1470261235967665,-0.0615234,0.407959,0.88269,-0.225037
1470261235990183,-0.0615234,0.40802,0.882629,-0.225098
1470261236011202,-0.0614014,0.408325,0.882446,-0.22522
1470261236027217,-0.0613403,0.408875,0.882202,-0.225281
1470261236050238,-0.0613403,0.409729,0.881836,-0.22522
1470261236071289,-0.0615234,0.410278,0.881531,-0.22522
1470261236087272,-0.0617065,0.410645,0.881348,-0.225159
1470261236109791,-0.0617065,0.411011,0.881226,-0.225098
1470261236131310,-0.0617676,0.412109,0.880737,-0.224915
1470261236147325,-0.0617676,0.413391,0.880127,-0.224854
1470261236170348,-0.0618896,0.414978,0.879395,-0.224792
1470261236191364,-0.0621338,0.416443,0.878784,-0.224609
1470261236207381,-0.0623779,0.417603,0.878235,-0.224487
1470261236229899,-0.0623779,0.418152,0.87793,-0.224487
1470261236252420,-0.0623779,0.418457,0.877747,-0.224609
1470261236267434,-0.0623169,0.418823,0.877563,-0.224609
1470261236289953,-0.0622559,0.419189,0.877441,-0.224609
1470261236311009,-0.0623779,0.419434,0.877319,-0.224609
1470261236327488,-0.0625,0.419678,0.877136,-0.224792
1470261236350509,-0.0626221,0.419434,0.877197,-0.225098
1470261236371025,-0.062439,0.418335,0.877625,-0.225464
1470261236387540,-0.0620117,0.41687,0.878235,-0.22583
1470261236410061,-0.0614624,0.415588,0.878845,-0.226074
1470261236432581,-0.0612793,0.415039,0.879089,-0.226196
1470261236455101,-0.0612183,0.415039,0.879089,-0.226196
1470261236470115,-0.0614624,0.414978,0.879089,-0.226196
1470261236492719,-0.0617676,0.414368,0.879333,-0.226196
1470261236507649,-0.0618286,0.413208,0.879883,-0.226318
1470261236530168,-0.0617065,0.412048,0.880249,-0.22699
1470261236552690,-0.0626221,0.412964,0.879639,-0.227478
1470261236567203,-0.0646973,0.415894,0.878174,-0.227173
1470261236589721,-0.0664063,0.417297,0.877502,-0.226624
1470261236612242,-0.0654297,0.414673,0.878479,-0.227966
1470261236633761,-0.0631714,0.409485,0.880676,-0.229553
1470261236649776,-0.0640869,0.40564,0.882446,-0.22937
1470261236672317,-0.0653687,0.404175,0.882751,-0.230469
1470261236693343,-0.0664063,0.402344,0.883179,-0.231689
1470261236709829,-0.0669556,0.401245,0.883118,-0.233643
1470261236732354,-0.0689087,0.394531,0.885498,-0.235535
1470261236760877,-0.071106,0.384399,0.889099,-0.237976
1470261236771388,-0.072876,0.369629,0.894043,-0.242188
1470261236792404,-0.0750732,0.351685,0.899841,-0.246704
1470261236813923,-0.0788574,0.334961,0.904053,-0.253418
1470261236829941,-0.0858765,0.322632,0.906128,-0.259644
1470261236852458,-0.0939331,0.310059,0.908142,-0.264954
1470261236874037,-0.101868,0.296265,0.910339,-0.270264
1470261236889995,-0.109314,0.281006,0.91272,-0.275635
1470261236928027,-0.116272,0.263306,0.915466,-0.281067
1470261236933531,-0.122681,0.243896,0.918396,-0.286255
1470261236949593,-0.128845,0.225525,0.920532,-0.291687
1470261236972566,-0.135803,0.207703,0.921875,-0.297424
1470261236993585,-0.142883,0.190002,0.922974,-0.302551
1470261237010099,-0.148987,0.171997,0.924133,-0.306885
1470261237032619,-0.15448,0.154602,0.924988,-0.310791
1470261237053641,-0.160095,0.139038,0.925293,-0.31427
1470261237076221,-0.165771,0.126282,0.925232,-0.317017
1470261237092673,-0.170776,0.115906,0.925049,-0.318909
1470261237113692,-0.174866,0.107422,0.924744,-0.320374
1470261237129709,-0.178284,0.101013,0.924438,-0.321533
1470261237152728,-0.180664,0.0961914,0.924194,-0.322388
1470261237173773,-0.181946,0.092041,0.924133,-0.32312
1470261237189260,-0.182373,0.0893555,0.924133,-0.323669
1470261237212281,-0.182068,0.0884399,0.924133,-0.323914
1470261237233803,-0.181641,0.0887451,0.924133,-0.324158
1470261237249314,-0.181274,0.0893555,0.924011,-0.324524
1470261237272337,-0.180481,0.0895386,0.924072,-0.324768
1470261237293859,-0.179199,0.0897217,0.924316,-0.324646
1470261237323881,-0.178101,0.0906372,0.924438,-0.324707
1470261237332406,-0.177246,0.0918579,0.924377,-0.324951
1470261237355410,-0.176453,0.0922241,0.924438,-0.325073
1470261237370423,-0.175903,0.0917969,0.924683,-0.324951
1470261237398464,-0.17572,0.0910034,0.924927,-0.324585
1470261237414963,-0.175842,0.090271,0.924988,-0.324463
1470261237429976,-0.176147,0.0894775,0.924988,-0.324585
1470261237452499,-0.176453,0.088501,0.924988,-0.324585
1470261237482523,-0.176514,0.0876465,0.92511,-0.324524
1470261237489531,-0.176636,0.0872803,0.925049,-0.324646
1470261237512550,-0.176636,0.0872803,0.925049,-0.324646
1470261237535073,-0.176697,0.0872192,0.925049,-0.324646
1470261237549583,-0.176575,0.0876465,0.92511,-0.324463
1470261237572605,-0.176453,0.088501,0.92511,-0.324341
1470261237595125,-0.176025,0.0894775,0.925049,-0.324402
1470261237609639,-0.175537,0.0900879,0.925049,-0.324585
1470261237632658,-0.17511,0.0905151,0.924988,-0.324768
1470261237655179,-0.174744,0.0906372,0.92511,-0.324707
1470261237669693,-0.174683,0.0910645,0.925049,-0.324646
1470261237692712,-0.174683,0.0916138,0.925049,-0.324585
1470261237715275,-0.174744,0.0922241,0.924988,-0.324524
1470261237729245,-0.1745,0.0921631,0.925049,-0.324463
1470261237752770,-0.174561,0.0924683,0.925049,-0.324402
1470261237774786,-0.174683,0.0930786,0.924988,-0.324341
1470261237789300,-0.174744,0.09375,0.924927,-0.32428
1470261237812320,-0.174805,0.0942383,0.924927,-0.324158
1470261237834842,-0.174805,0.0942383,0.924927,-0.324158
1470261237855859,-0.174622,0.0942383,0.925049,-0.323914
1470261237872374,-0.1745,0.0947266,0.92511,-0.323608
1470261237894917,-0.174438,0.0957031,0.92511,-0.323303
1470261237924035,-0.174072,0.0968018,0.925171,-0.32312
1470261237932427,-0.173523,0.0975952,0.925232,-0.322937
1470261237954947,-0.173157,0.0986328,0.925232,-0.322754
1470261237976466,-0.172729,0.0999146,0.925232,-0.322571
1470261237992483,-0.172302,0.101135,0.925232,-0.322388
1470261238015003,-0.171997,0.102478,0.925232,-0.322144
1470261238036022,-0.171631,0.103943,0.925293,-0.321777
1470261238052538,-0.171143,0.105591,0.925293,-0.321411
1470261238075056,-0.170654,0.107178,0.925293,-0.321228
1470261238096184,-0.170044,0.108398,0.925354,-0.321045
1470261238120097,-0.169617,0.109497,0.925354,-0.320801
1470261238135112,-0.16925,0.11084,0.925354,-0.320496
1470261238156174,-0.168945,0.112244,0.925293,-0.320313
1470261238172643,-0.168518,0.113403,0.925293,-0.320251
1470261238195163,-0.167969,0.114136,0.925354,-0.32019
1470261238216224,-0.16748,0.11499,0.925354,-0.319946
1470261238232197,-0.167175,0.116028,0.925354,-0.319702
1470261238261233,-0.166931,0.11731,0.925354,-0.319458
1470261238276238,-0.166687,0.118896,0.925293,-0.319214
1470261238292250,-0.166382,0.120361,0.925171,-0.319031
1470261238314775,-0.165955,0.121521,0.925232,-0.318726
1470261238345798,-0.165466,0.122253,0.925354,-0.318481
1470261238352805,-0.164978,0.123291,0.925354,-0.318237
1470261238374825,-0.16449,0.124512,0.925354,-0.318054
1470261238397345,-0.164063,0.125244,0.925354,-0.317993
1470261238412358,-0.163696,0.125549,0.925354,-0.317993
1470261238434882,-0.163635,0.125549,0.925354,-0.317993
1470261238457398,-0.163635,0.125549,0.925354,-0.317993
1470261238471912,-0.163635,0.125488,0.925354,-0.317993
1470261238494933,-0.163635,0.125305,0.925415,-0.317932
1470261238518456,-0.163513,0.124817,0.925537,-0.317932
1470261238531990,-0.163513,0.124817,0.925537,-0.317932
1470261238554987,-0.163513,0.124878,0.925476,-0.317932
1470261238577507,-0.163513,0.124878,0.925476,-0.317932
1470261238592021,-0.163513,0.124573,0.925537,-0.317871
1470261238622548,-0.163513,0.124573,0.925537,-0.317871
1470261238637560,-0.163513,0.124573,0.925537,-0.317871
1470261238652074,-0.163513,0.124573,0.925537,-0.317871
1470261238675094,-0.163391,0.124573,0.925598,-0.317871
1470261238697615,-0.16333,0.124573,0.925598,-0.317871
1470261238711627,-0.16333,0.124573,0.925598,-0.317871
1470261238735150,-0.16333,0.124573,0.925598,-0.317871
1470261238757668,-0.16333,0.124573,0.925598,-0.317871
1470261238778731,-0.16333,0.124573,0.925598,-0.317871
1470261238795202,-0.163391,0.124573,0.925598,-0.317871
1470261238817724,-0.163269,0.124634,0.925659,-0.317749
1470261238838845,-0.163086,0.124817,0.925659,-0.317627
1470261238855255,-0.162903,0.124939,0.92572,-0.317505
1470261238877277,-0.162781,0.125122,0.925781,-0.317444
1470261238898814,-0.162781,0.125122,0.925781,-0.317444
1470261238915310,-0.162781,0.125122,0.925781,-0.317444
1470261238937332,-0.16272,0.125122,0.925781,-0.317444
1470261238958857,-0.16272,0.125122,0.925781,-0.317444
1470261238974866,-0.162781,0.125122,0.925781,-0.317444
1470261238997383,-0.162598,0.125305,0.925781,-0.317444
1470261239018904,-0.162415,0.125549,0.925781,-0.317383
1470261239034919,-0.162292,0.125854,0.925781,-0.317322
1470261239057437,-0.162231,0.126221,0.925781,-0.317322
1470261239078498,-0.162048,0.126465,0.925781,-0.317322
1470261239094973,-0.161926,0.12677,0.925781,-0.317261
1470261239117493,-0.161804,0.127136,0.925781,-0.317139
1470261239138533,-0.161682,0.127563,0.92572,-0.317078
1470261239155031,-0.16156,0.128113,0.92572,-0.316956
1470261239177545,-0.161438,0.128662,0.92572,-0.316833
1470261239198599,-0.161255,0.129089,0.92572,-0.316772
1470261239215081,-0.161072,0.129395,0.92572,-0.316711
1470261239238660,-0.160889,0.1297,0.92572,-0.31665
1470261239260121,-0.160767,0.130005,0.92572,-0.316589
1470261239274137,-0.160706,0.130371,0.92572,-0.316467
1470261239297653,-0.160583,0.130737,0.92572,-0.316345
1470261239320174,-0.160461,0.131042,0.925781,-0.316223
1470261239342198,-0.160339,0.131653,0.92572,-0.316101
1470261239357218,-0.160217,0.132507,0.92572,-0.315918
1470261239380228,-0.159973,0.13324,0.925659,-0.315796
1470261239394241,-0.159851,0.134094,0.925659,-0.315613
1470261239417762,-0.159729,0.135071,0.925598,-0.315308
1470261239440281,-0.159607,0.136475,0.925537,-0.315002
1470261239454294,-0.159363,0.138062,0.925476,-0.314636
1470261239477820,-0.159058,0.139832,0.925415,-0.31427
1470261239499837,-0.158691,0.141663,0.925354,-0.313782
1470261239514348,-0.158264,0.14386,0.925293,-0.31311
1470261239537418,-0.157715,0.146484,0.925232,-0.312378
1470261239559888,-0.157166,0.149292,0.925049,-0.311768
1470261239574402,-0.156677,0.151978,0.924927,-0.311096
1470261239597422,-0.156006,0.154785,0.924866,-0.310242
1470261239619944,-0.155029,0.158142,0.924805,-0.309326
1470261239641537,-0.153992,0.161499,0.924622,-0.308594
1470261239657479,-0.153137,0.164673,0.9245,-0.307861
1470261239679997,-0.152222,0.167358,0.924438,-0.307007
1470261239701519,-0.151123,0.170227,0.924377,-0.30603
1470261239718033,-0.149902,0.173767,0.924194,-0.305176
1470261239740050,-0.149231,0.177917,0.923889,-0.304138
1470261239761125,-0.148193,0.181641,0.923706,-0.302979
1470261239777586,-0.146729,0.18573,0.923584,-0.301514
1470261239800105,-0.145081,0.191467,0.92334,-0.2995
1470261239821123,-0.143127,0.199341,0.922791,-0.297058
1470261239837638,-0.14093,0.208557,0.921875,-0.294495
1470261239860159,-0.138123,0.218323,0.921021,-0.291382
1470261239881212,-0.134399,0.229004,0.920227,-0.287476
1470261239897692,-0.130005,0.242126,0.918884,-0.28302
1470261239920213,-0.125305,0.256592,0.916931,-0.278748
1470261239941231,-0.120239,0.270325,0.914856,-0.274719
1470261239957746,-0.114685,0.282349,0.913269,-0.270203
1470261239980265,-0.10907,0.294434,0.91156,-0.26532
1470261240001286,-0.103271,0.306824,0.909546,-0.26062
1470261240017800,-0.0975952,0.319214,0.907166,-0.256042
1470261240039819,-0.09198,0.330994,0.904907,-0.25116
1470261240062840,-0.0863647,0.34198,0.902832,-0.24585
1470261240076853,-0.0811768,0.353821,0.900146,-0.240601
1470261240099874,-0.076355,0.365234,0.8974,-0.235413
1470261240120893,-0.0712891,0.376038,0.894714,-0.230164
1470261240136907,-0.0637207,0.38739,0.891052,-0.227661
1470261240159928,-0.0571899,0.393433,0.890259,-0.222046
1470261240180945,-0.0515137,0.399536,0.888611,-0.219116
1470261240196961,-0.0497437,0.396057,0.89032,-0.218811
1470261240219981,-0.050415,0.389893,0.893494,-0.216858
1470261240242502,-0.0552979,0.39325,0.892639,-0.213135
1470261240257015,-0.0596924,0.402527,0.888062,-0.213745
1470261240280035,-0.0612183,0.404236,0.887146,-0.213867
1470261240317572,-0.0600586,0.401855,0.888184,-0.214355
1470261240320073,-0.0588379,0.401855,0.888184,-0.214783
1470261240340091,-0.0580444,0.402466,0.887939,-0.214722
1470261240362609,-0.0571899,0.401428,0.88855,-0.214417
1470261240384628,-0.0565186,0.400879,0.888916,-0.214172
1470261240386635,-0.0568237,0.401367,0.888733,-0.213928
1470261240405648,-0.057312,0.401245,0.888855,-0.213562
1470261240428167,-0.0574341,0.400635,0.889099,-0.213562
1470261240444682,-0.0574341,0.400635,0.889099,-0.213562
1470261240465702,-0.0574341,0.400635,0.889099,-0.213562
1470261240488222,-0.0574951,0.400635,0.889099,-0.213562
1470261240504737,-0.0571899,0.400696,0.889038,-0.213745
1470261240532762,-0.0571899,0.400696,0.889038,-0.213745
1470261240547775,-0.057312,0.400818,0.888977,-0.213867
1470261240564291,-0.0574951,0.401306,0.888672,-0.213989
1470261240585812,-0.0576782,0.401672,0.88855,-0.21405
1470261240608340,-0.0576782,0.401672,0.888489,-0.21405
1470261240624345,-0.0576782,0.401733,0.888489,-0.21405
1470261240648894,-0.0576782,0.401733,0.888489,-0.21405
1470261240676391,-0.0576782,0.401733,0.888489,-0.213989
1470261240684401,-0.0576782,0.401733,0.888489,-0.213989
1470261240705418,-0.0576782,0.401978,0.888367,-0.21405
1470261240727951,-0.0577393,0.401978,0.888367,-0.21405
1470261240744452,-0.0577393,0.402039,0.888367,-0.21405
1470261240765473,-0.0577393,0.402039,0.888367,-0.21405
1470261240787991,-0.0577393,0.4021,0.888306,-0.21405
1470261240804507,-0.0577393,0.4021,0.888306,-0.21405
1470261240825525,-0.0577393,0.4021,0.888306,-0.213989
1470261240848075,-0.0578003,0.4021,0.888306,-0.213989
1470261240864560,-0.0578003,0.402161,0.888306,-0.213989
1470261240885603,-0.0578003,0.402161,0.888306,-0.213989
1470261240908103,-0.0578003,0.402161,0.888306,-0.213989
1470261240924615,-0.0578003,0.402222,0.888245,-0.213989
1470261240945632,-0.0578003,0.402222,0.888306,-0.213989
1470261240976186,-0.0578613,0.402222,0.888306,-0.213989
1470261240985173,-0.0578613,0.402222,0.888245,-0.213989
1470261241008713,-0.0578613,0.402222,0.888245,-0.213989
1470261241028207,-0.0578613,0.402222,0.888245,-0.213989
1470261241044221,-0.0578613,0.402283,0.888245,-0.213928
1470261241065741,-0.0579224,0.402222,0.888245,-0.213928
1470261241088260,-0.0579224,0.402283,0.888245,-0.213928
1470261241104278,-0.0579224,0.402283,0.888245,-0.213928
1470261241125328,-0.0579224,0.402649,0.888062,-0.213928
1470261241148333,-0.0580444,0.402832,0.888,-0.213928
1470261241165831,-0.0580444,0.402832,0.888,-0.213928
1470261241185730,-0.0580444,0.402893,0.888,-0.213928
1470261241208330,-0.0580444,0.402893,0.887939,-0.213867
1470261241225784,-0.0580444,0.402893,0.888,-0.213928
1470261241245283,-0.0580444,0.403137,0.887817,-0.21405
1470261241268304,-0.0581665,0.403503,0.887634,-0.21405
1470261241286321,-0.0582275,0.40387,0.887451,-0.21405
1470261241305894,-0.0582886,0.404114,0.887329,-0.21405
1470261241327863,-0.0582886,0.404175,0.887329,-0.21405
1470261241345902,-0.0582886,0.404175,0.887329,-0.21405
1470261241365391,-0.0582886,0.404175,0.887329,-0.21405
1470261241388411,-0.0582886,0.40448,0.887207,-0.21405
1470261241405926,-0.0583496,0.40448,0.887207,-0.21405
1470261241425445,-0.0583496,0.40448,0.887207,-0.21405
1470261241450970,-0.0583496,0.404541,0.887207,-0.21405
1470261241465997,-0.0583496,0.404541,0.887146,-0.21405
1470261241485501,-0.0584106,0.404541,0.887146,-0.213989
1470261241515543,-0.0584106,0.404541,0.887146,-0.213989
1470261241526035,-0.0584106,0.404602,0.887146,-0.213989
1470261241545552,-0.0584106,0.404602,0.887146,-0.213989
1470261241568079,-0.0582275,0.40448,0.887207,-0.21405
1470261241591595,-0.0582275,0.40448,0.887207,-0.21405
1470261241605607,-0.0582275,0.40448,0.887207,-0.21405
1470261241628152,-0.0582886,0.40448,0.887207,-0.21405
1470261241646155,-0.0582886,0.40448,0.887207,-0.21405
1470261241665724,-0.0583496,0.404724,0.887085,-0.213989
1470261241688204,-0.0583496,0.404785,0.887085,-0.213989
1470261241705696,-0.0583496,0.404785,0.887085,-0.213989
1470261241725718,-0.0583496,0.404846,0.887024,-0.213989
1470261241748254,-0.0582886,0.404541,0.887146,-0.21405
1470261241765750,-0.0582886,0.404541,0.887146,-0.21405
1470261241786769,-0.0584717,0.404968,0.886963,-0.214111
1470261241808318,-0.0586548,0.405273,0.886841,-0.21405
1470261241825804,-0.0587158,0.405273,0.88678,-0.21405
1470261241846900,-0.0587158,0.405273,0.88678,-0.21405
1470261241868345,-0.0586548,0.405151,0.886841,-0.214111
1470261241885861,-0.0586548,0.405151,0.886841,-0.214111
1470261241906878,-0.0586548,0.405457,0.886719,-0.214172
1470261241927939,-0.0586548,0.405457,0.886719,-0.214172
1470261241945948,-0.0587158,0.405457,0.886719,-0.214111
1470261241966931,-0.0587158,0.405518,0.886719,-0.214111
1470261241987950,-0.0587158,0.405518,0.886658,-0.214111
1470261242006018,-0.0587158,0.405518,0.886658,-0.214111
1470261242026985,-0.0587158,0.405579,0.886658,-0.214111
1470261242048003,-0.0586548,0.405457,0.886719,-0.21405
1470261242066019,-0.0587158,0.405457,0.886719,-0.21405
1470261242088540,-0.0587158,0.405457,0.886719,-0.21405
1470261242108090,-0.0587158,0.405518,0.886719,-0.21405
1470261242126073,-0.0587158,0.405518,0.886719,-0.21405
1470261242156100,-0.0587158,0.405518,0.886719,-0.21405
1470261242168111,-0.0587158,0.405518,0.886719,-0.21405
1470261242186128,-0.0587158,0.405518,0.886719,-0.21405
1470261242208673,-0.0587158,0.405518,0.886658,-0.21405
1470261242228165,-0.0587158,0.405518,0.886658,-0.21405
1470261242245681,-0.0587158,0.405518,0.886658,-0.21405
1470261242268703,-0.0587158,0.405579,0.886658,-0.21405
1470261242288219,-0.0587158,0.405579,0.886658,-0.21405
1470261242310239,-0.0587158,0.405579,0.886658,-0.21405
1470261242328255,-0.0587769,0.405579,0.886658,-0.21405
1470261242347773,-0.0587769,0.40564,0.886658,-0.21405
1470261242365791,-0.0586548,0.405457,0.886719,-0.213989
1470261242388309,-0.0584717,0.405151,0.886902,-0.213989
1470261242407842,-0.0584717,0.405151,0.886902,-0.213989
1470261242425848,-0.0585938,0.405273,0.886841,-0.213989
1470261242448363,-0.0587158,0.405762,0.886597,-0.213989
1470261242467882,-0.0587769,0.406128,0.886414,-0.213928
1470261242486401,-0.0588379,0.406128,0.886414,-0.213928
1470261242508418,-0.0587158,0.406067,0.886475,-0.213928
1470261242527937,-0.0587769,0.406067,0.886475,-0.213928
1470261242545723,-0.0587769,0.406372,0.886353,-0.213989
1470261242568745,-0.0587769,0.406372,0.886353,-0.213989
1470261242589264,-0.0587769,0.406372,0.886292,-0.213989
1470261242605777,-0.0588379,0.406799,0.886169,-0.213806
1470261242628296,-0.059021,0.407532,0.885864,-0.213623
1470261242648314,-0.0591431,0.408142,0.88562,-0.213379
1470261242673892,-0.059021,0.408569,0.885437,-0.213257
1470261242688351,-0.0587769,0.409058,0.885254,-0.213196
1470261242709369,-0.0586548,0.410156,0.884766,-0.213135
1470261242725905,-0.0591431,0.412354,0.883789,-0.212952
1470261242761509,-0.0595093,0.414612,0.882751,-0.212891
1470261242769425,-0.0595703,0.416077,0.88208,-0.212769
1470261242793445,-0.0596313,0.417725,0.881287,-0.212708
1470261242808458,-0.0598755,0.419861,0.880249,-0.212585
1470261242829477,-0.0604248,0.422058,0.879272,-0.212341
1470261242846010,-0.06073,0.423706,0.878479,-0.212158
1470261242868516,-0.060791,0.424316,0.878174,-0.212219
1470261242888530,-0.060791,0.424316,0.878174,-0.212219
1470261242905045,-0.0608521,0.424561,0.877991,-0.21228
1470261242927565,-0.0610962,0.424622,0.877991,-0.212036
1470261242949110,-0.0610352,0.424622,0.877991,-0.212036
1470261242965101,-0.0610352,0.424683,0.877991,-0.212097
1470261242987619,-0.0610962,0.424866,0.87793,-0.212036
1470261243008638,-0.0610962,0.424866,0.87793,-0.212036
1470261243025153,-0.0610962,0.42511,0.877869,-0.211853
1470261243047674,-0.0611572,0.425476,0.877686,-0.21167
1470261243070194,-0.0610962,0.425415,0.877747,-0.211548
1470261243085210,-0.0609131,0.425293,0.877869,-0.211487
1470261243107728,-0.0608521,0.425293,0.877869,-0.211487
1470261243130247,-0.0609131,0.425293,0.877869,-0.211487
1470261243145260,-0.0609131,0.425293,0.877808,-0.211487
1470261243167783,-0.0609131,0.425354,0.877808,-0.211548
1470261243189801,-0.0608521,0.424988,0.877991,-0.211609
1470261243204314,-0.0606689,0.424561,0.878174,-0.211731
1470261243227335,-0.0606689,0.424561,0.878174,-0.211792
1470261243249867,-0.06073,0.424866,0.877991,-0.211792
1470261243264368,-0.0608521,0.425171,0.877869,-0.211731
1470261243287889,-0.0610352,0.425415,0.877747,-0.211731
1470261243309909,-0.0610962,0.425781,0.877563,-0.21167
1470261243324421,-0.0610962,0.425781,0.877563,-0.21167
1470261243347442,-0.0610962,0.425781,0.877563,-0.211609
1470261243369964,-0.0609741,0.42572,0.877625,-0.21167
1470261243384479,-0.0609131,0.425537,0.877686,-0.21167
1470261243407498,-0.0609131,0.425537,0.877686,-0.21167
1470261243430018,-0.0609741,0.425598,0.877686,-0.21167
1470261243444531,-0.0609741,0.425598,0.877686,-0.21167
1470261243467552,-0.0609131,0.425415,0.877747,-0.211731
1470261243490071,-0.0608521,0.425049,0.87793,-0.211731
1470261243504584,-0.0608521,0.424988,0.87793,-0.211731
1470261243527604,-0.0609131,0.425171,0.877869,-0.21167
1470261243550125,-0.0609131,0.425171,0.877869,-0.21167
1470261243571143,-0.0609741,0.425232,0.877869,-0.21167
1470261243587658,-0.0608521,0.42511,0.87793,-0.211609
1470261243610178,-0.0606689,0.424805,0.878052,-0.211609
1470261243631230,-0.0605469,0.424438,0.878235,-0.21167
1470261243647711,-0.0605469,0.424316,0.878296,-0.21167
1470261243670232,-0.0605469,0.424377,0.878296,-0.21167
1470261243691286,-0.0605469,0.424072,0.878418,-0.21167
1470261243707766,-0.0603027,0.423584,0.878662,-0.211792
1470261243730286,-0.0601807,0.423157,0.878845,-0.211853
1470261243751305,-0.0601196,0.422852,0.878967,-0.211975
1470261243768323,-0.0600586,0.422852,0.878967,-0.211975
1470261243790341,-0.0600586,0.422607,0.879089,-0.211975
1470261243811363,-0.0599365,0.422302,0.879272,-0.211975
1470261243827373,-0.0599365,0.422241,0.879272,-0.211975
1470261243849893,-0.0599976,0.422729,0.879028,-0.211914
1470261243871445,-0.0599976,0.422791,0.879028,-0.211914
1470261243887428,-0.0598755,0.422668,0.879089,-0.211975
1470261243909947,-0.0597534,0.422424,0.879211,-0.212036
1470261243931467,-0.0596924,0.422119,0.879333,-0.212036
1470261243947481,-0.0595703,0.421814,0.879456,-0.212097
1470261243970502,-0.0595703,0.421814,0.879456,-0.212097
1470261243992521,-0.0595703,0.421814,0.879456,-0.212097
1470261244007536,-0.0594482,0.421692,0.879517,-0.212097
1470261244030055,-0.0593872,0.421448,0.8797,-0.212097
1470261244053078,-0.0593262,0.421204,0.879822,-0.212036
1470261244068090,-0.0592041,0.420898,0.879944,-0.212036
1470261244090109,-0.059082,0.420776,0.880005,-0.212097
1470261244112671,-0.059021,0.420593,0.880066,-0.212097
1470261244127646,-0.059021,0.420654,0.880066,-0.212097
1470261244150163,-0.05896,0.420349,0.880188,-0.212158
1470261244172683,-0.05896,0.420044,0.880371,-0.212158
1470261244187197,-0.059082,0.419922,0.880371,-0.212219
1470261244210217,-0.0592041,0.419739,0.880432,-0.21228
1470261244233747,-0.0593262,0.419373,0.880615,-0.212341
1470261244255258,-0.0593262,0.419128,0.880676,-0.212463
1470261244270271,-0.0593872,0.418762,0.880859,-0.212402
1470261244292291,-0.0593872,0.418152,0.881165,-0.212463
1470261244306804,-0.0593262,0.41748,0.88147,-0.212524
1470261244329835,-0.0592651,0.416687,0.881836,-0.212708
1470261244352845,-0.0592651,0.416077,0.88208,-0.21283
1470261244367359,-0.0592651,0.415527,0.882324,-0.212891
1470261244389878,-0.0592651,0.415039,0.882507,-0.212891
1470261244412399,-0.0592651,0.414551,0.882751,-0.212952
1470261244426912,-0.0593872,0.414246,0.882874,-0.212952
1470261244457440,-0.0593872,0.413879,0.883057,-0.213013
1470261244472452,-0.0594482,0.413574,0.883179,-0.213013
1470261244493972,-0.0593872,0.413208,0.883362,-0.213013
1470261244509988,-0.0593262,0.412903,0.883484,-0.213013
1470261244532519,-0.0592651,0.412659,0.883606,-0.212952
1470261244561055,-0.0592651,0.412659,0.883606,-0.212952
1470261244570541,-0.0592651,0.412476,0.883728,-0.212952
1470261244592574,-0.0592651,0.412292,0.883789,-0.212891
1470261244613581,-0.0592041,0.411987,0.883972,-0.21283
1470261244630095,-0.0592041,0.411743,0.884094,-0.212891
1470261244652619,-0.0591431,0.411743,0.884094,-0.212891
1470261244673694,-0.0591431,0.411743,0.884094,-0.212891
1470261244690150,-0.0591431,0.411743,0.884094,-0.212891
1470261244712669,-0.0591431,0.411743,0.884094,-0.212891
1470261244733732,-0.0591431,0.411743,0.884094,-0.212891
1470261244750210,-0.0591431,0.411743,0.884094,-0.212891
1470261244772723,-0.0591431,0.411804,0.884033,-0.212891
1470261244793784,-0.0591431,0.411743,0.884094,-0.212891
1470261244810256,-0.0591431,0.411621,0.884155,-0.21283
1470261244832776,-0.0591431,0.41156,0.884155,-0.21283
1470261244853796,-0.0591431,0.41156,0.884155,-0.21283
1470261244870312,-0.0591431,0.411621,0.884155,-0.21283
1470261244892434,-0.0592041,0.411804,0.884033,-0.21283
1470261244921356,-0.0592041,0.411804,0.884033,-0.21283
1470261244929365,-0.0592041,0.411804,0.884033,-0.21283
1470261244953387,-0.0592041,0.411804,0.884033,-0.21283
1470261244974909,-0.0592041,0.411804,0.884033,-0.21283
1470261244989964,-0.0592041,0.411804,0.884033,-0.21283
1470261245012463,-0.0592041,0.411804,0.884033,-0.21283
1470261245034960,-0.0592041,0.411804,0.884033,-0.21283
1470261245049971,-0.0592041,0.411865,0.884033,-0.21283
1470261245072492,-0.0592041,0.411865,0.884033,-0.21283
1470261245095011,-0.0592041,0.411865,0.884033,-0.21283
1470261245109525,-0.0592041,0.411865,0.884033,-0.21283
1470261245132547,-0.0592041,0.411865,0.884033,-0.21283
1470261245155066,-0.0592041,0.411865,0.884033,-0.21283
1470261245169581,-0.0592041,0.411865,0.884033,-0.21283
1470261245192601,-0.0592041,0.411865,0.884033,-0.21283
1470261245215121,-0.0592041,0.411865,0.884033,-0.21283
1470261245229633,-0.0592651,0.411926,0.884033,-0.21283
1470261245252655,-0.0592041,0.411926,0.883972,-0.21283
1470261245275173,-0.0591431,0.411865,0.884033,-0.212769
1470261245290186,-0.059021,0.411499,0.884216,-0.212769
1470261245312707,-0.05896,0.411499,0.884216,-0.212769
1470261245335229,-0.059082,0.411682,0.884155,-0.212769
1470261245349240,-0.0592651,0.412048,0.883972,-0.212708
1470261245372761,-0.0592651,0.412109,0.883911,-0.212708
1470261245395281,-0.0593262,0.412048,0.883972,-0.212708
1470261245409293,-0.0592041,0.411682,0.884094,-0.212769
1470261245432358,-0.0592041,0.411682,0.884094,-0.212769
1470261245455335,-0.0592651,0.41217,0.883911,-0.212769
1470261245476354,-0.0594482,0.41272,0.883667,-0.212708
1470261245492869,-0.0594482,0.413269,0.883362,-0.212708
1470261245514934,-0.0593262,0.414124,0.882996,-0.212585
1470261245536408,-0.0592651,0.416138,0.882141,-0.212463
1470261245552924,-0.0597534,0.419739,0.880432,-0.212219
1470261245574961,-0.0604858,0.422913,0.878906,-0.212097
1470261245596462,-0.060791,0.424561,0.878052,-0.212097
1470261245612476,-0.0610352,0.425293,0.877686,-0.212158
1470261245635503,-0.0614014,0.426025,0.877258,-0.21228
1470261245656044,-0.0618286,0.427246,0.876648,-0.212402
1470261245672531,-0.0623169,0.428284,0.876038,-0.212646
1470261245695051,-0.0623779,0.428223,0.875977,-0.212952
1470261245716638,-0.0620117,0.427002,0.876526,-0.213318
1470261245732586,-0.0617676,0.425964,0.876953,-0.213562
1470261245755104,-0.0617676,0.425903,0.876953,-0.213623
1470261245776640,-0.0617676,0.426086,0.876953,-0.213379
1470261245792638,-0.0618286,0.426453,0.876892,-0.213013
1470261245815158,-0.0615845,0.426575,0.876892,-0.212769
1470261245837678,-0.0613403,0.426636,0.876892,-0.212646
1470261245852694,-0.0610962,0.426392,0.877075,-0.212402
1470261245875212,-0.060791,0.425964,0.877319,-0.212219
1470261245897733,-0.0603027,0.425232,0.877808,-0.212036
1470261245912745,-0.0600586,0.424683,0.878113,-0.211792
1470261245935269,-0.0599365,0.424438,0.878296,-0.21167
1470261245957786,-0.0597534,0.424011,0.87854,-0.211548
1470261245972303,-0.0594482,0.423279,0.878906,-0.211548
1470261245995320,-0.0593262,0.422729,0.87915,-0.21167
1470261246017841,-0.0593262,0.421814,0.879578,-0.211914
1470261246032854,-0.0591431,0.420776,0.880005,-0.212158
1470261246055373,-0.05896,0.420227,0.880249,-0.212341
1470261246077394,-0.059082,0.419983,0.880371,-0.212219
1470261246091907,-0.0592041,0.419495,0.880554,-0.212219
1470261246115427,-0.059021,0.418945,0.880859,-0.21228
1470261246137448,-0.05896,0.418274,0.881165,-0.21228
1470261246151962,-0.0588989,0.417847,0.881348,-0.212219
1470261246174981,-0.0588989,0.417847,0.881348,-0.212219
1470261246197501,-0.05896,0.417908,0.881348,-0.212219
1470261246219022,-0.0588989,0.418091,0.881226,-0.212219
1470261246237538,-0.0588379,0.418152,0.881226,-0.21228
1470261246257557,-0.0588989,0.418335,0.881165,-0.212158
1470261246280076,-0.0588989,0.418274,0.881165,-0.212158
1470261246295089,-0.05896,0.418274,0.881165,-0.212158
1470261246317610,-0.0588989,0.418335,0.881165,-0.212158
1470261246332122,-0.05896,0.418518,0.881104,-0.212097
1470261246355143,-0.05896,0.418518,0.881104,-0.212097
1470261246377663,-0.0588989,0.418396,0.881165,-0.212097
1470261246398682,-0.0588989,0.418396,0.881165,-0.212097
1470261246415197,-0.0588989,0.418396,0.881165,-0.212097
1470261246438217,-0.0588379,0.418213,0.881287,-0.212036
1470261246458736,-0.0587769,0.418091,0.881348,-0.211975
1470261246482757,-0.0587769,0.417969,0.881409,-0.211853
1470261246497771,-0.0587158,0.417786,0.881531,-0.211792
1470261246518791,-0.0585938,0.417603,0.881592,-0.211792
1470261246535307,-0.0584717,0.417542,0.881653,-0.211792
1470261246557827,-0.0583496,0.417297,0.881775,-0.211731
1470261246578851,-0.0581055,0.417053,0.881897,-0.211731
1470261246595358,-0.0579224,0.416809,0.882019,-0.211853
1470261246617879,-0.0577393,0.416321,0.882202,-0.212097
1470261246638897,-0.0579224,0.415405,0.882446,-0.213013
1470261246655412,-0.0587158,0.414673,0.882446,-0.214111
1470261246677432,-0.0595093,0.414551,0.882263,-0.214966
1470261246699952,-0.0598755,0.414368,0.882202,-0.215393
1470261246714966,-0.0598145,0.414124,0.882263,-0.215515
1470261246737488,-0.0595703,0.413757,0.882507,-0.215393
1470261246759108,-0.0593262,0.413391,0.882751,-0.215149
1470261246788545,-0.0592041,0.413635,0.88269,-0.214844
1470261246797542,-0.0592651,0.414063,0.882629,-0.214478
1470261246819060,-0.0592041,0.41449,0.882507,-0.214111
1470261246835076,-0.059082,0.414612,0.882507,-0.213867
1470261246857593,-0.059082,0.414551,0.882507,-0.213867
1470261246880114,-0.059082,0.414612,0.882507,-0.213867
1470261246895128,-0.059082,0.414612,0.882507,-0.213867
1470261246918150,-0.059082,0.414612,0.882507,-0.213867
1470261246947675,-0.059082,0.414612,0.882507,-0.213867
1470261246955182,-0.059082,0.414673,0.882446,-0.213867
1470261246977702,-0.059021,0.414307,0.88269,-0.213806
1470261247000223,-0.0588379,0.413879,0.882874,-0.213928
1470261247014737,-0.0588989,0.413574,0.882996,-0.213989
1470261247037759,-0.059082,0.413025,0.883179,-0.21405
1470261247060277,-0.0591431,0.412354,0.883484,-0.214111
1470261247074289,-0.0592651,0.411621,0.88385,-0.214111
1470261247097811,-0.0593872,0.411194,0.884033,-0.214172
1470261247120330,-0.0594482,0.411194,0.884033,-0.214172
1470261247141349,-0.0593872,0.411194,0.883972,-0.214172
1470261247157865,-0.0594482,0.411194,0.883972,-0.214172
1470261247180384,-0.0594482,0.411194,0.883972,-0.214172
1470261247194398,-0.0593872,0.411255,0.883972,-0.214172
1470261247225425,-0.0593872,0.411255,0.883972,-0.214172
1470261247239937,-0.0594482,0.411072,0.884033,-0.214172
1470261247254454,-0.0594482,0.411072,0.884033,-0.214172
1470261247277985,-0.0593262,0.410889,0.884155,-0.214111
1470261247299991,-0.0592041,0.410583,0.884338,-0.21405
1470261247314504,-0.0592041,0.410522,0.884338,-0.21405
1470261247337526,-0.0591431,0.410889,0.884216,-0.213867
1470261247360046,-0.0588989,0.411011,0.884216,-0.213684
1470261247381065,-0.0585938,0.410889,0.884399,-0.21344
1470261247397579,-0.0583496,0.410645,0.884583,-0.213135
1470261247420103,-0.0584717,0.410339,0.884766,-0.212952
1470261247441119,-0.0584717,0.40918,0.885193,-0.213257
1470261247458133,-0.0586548,0.407593,0.885864,-0.213379
1470261247480153,-0.0588989,0.406799,0.88623,-0.213623
1470261247508679,-0.0593262,0.406738,0.886108,-0.213928
1470261247517686,-0.0598145,0.407043,0.885864,-0.214233
1470261247540207,-0.0600586,0.406921,0.885864,-0.214355
1470261247561226,-0.0601196,0.406738,0.885986,-0.214417
1470261247577741,-0.0601196,0.406677,0.885986,-0.214417
1470261247600263,-0.0603027,0.407043,0.885864,-0.214294
1470261247621299,-0.0603638,0.407043,0.885803,-0.214294
1470261247637795,-0.0603027,0.407043,0.885803,-0.214294
1470261247659814,-0.0603638,0.407043,0.885803,-0.214294
1470261247681401,-0.0603638,0.407104,0.885803,-0.214294
1470261247697849,-0.0603638,0.407104,0.885803,-0.214294
1470261247720370,-0.0603027,0.407104,0.885803,-0.214294
1470261247741388,-0.0603027,0.407104,0.885803,-0.214294
1470261247757910,-0.0603027,0.407104,0.885803,-0.214294
1470261247779968,-0.0603638,0.407104,0.885803,-0.214294
1470261247802945,-0.0603638,0.407104,0.885803,-0.214294
1470261247817957,-0.0601196,0.407166,0.885803,-0.214172
1470261247840477,-0.0597534,0.406982,0.885925,-0.214111
1470261247862497,-0.0595093,0.40686,0.886047,-0.213989
1470261247878010,-0.0596313,0.406677,0.886108,-0.213867
1470261247900030,-0.0598755,0.40625,0.886353,-0.213928
1470261247922552,-0.0599365,0.405762,0.886475,-0.21405
1470261247937564,-0.0601807,0.406067,0.886292,-0.214294
1470261247960084,-0.060791,0.406738,0.885864,-0.214661
1470261247982604,-0.0612793,0.406982,0.88562,-0.215027
1470261247997117,-0.0614624,0.407043,0.885498,-0.215271
1470261248020138,-0.0615845,0.40741,0.885315,-0.215332
1470261248042658,-0.0615845,0.40741,0.885315,-0.215332
1470261248057171,-0.0615845,0.40741,0.885315,-0.215332
1470261248080207,-0.0615234,0.407288,0.885376,-0.215332
1470261248102714,-0.0615234,0.407288,0.885376,-0.215332
1470261248117225,-0.0615234,0.407288,0.885376,-0.215332
1470261248140245,-0.0615234,0.407288,0.885376,-0.215332
1470261248145770,-0.0615234,0.407288,0.885376,-0.215332
1470261248168271,-0.0614624,0.407227,0.885437,-0.21521
1470261248184787,-0.0614014,0.407227,0.885437,-0.21521
1470261248205805,-0.0614014,0.407227,0.885437,-0.215271
1470261248228324,-0.0613403,0.407288,0.885498,-0.214966
1470261248251847,-0.0610962,0.407227,0.885559,-0.214722
1470261248265374,-0.060791,0.407227,0.885681,-0.214478
1470261248287879,-0.0604858,0.407104,0.885803,-0.214233
1470261248304393,-0.0600586,0.407043,0.885925,-0.21405
1470261248325428,-0.0596313,0.406555,0.886169,-0.213806
1470261248347933,-0.0595703,0.406555,0.88623,-0.213867
1470261248364447,-0.0598145,0.407104,0.885925,-0.213928
1470261248385972,-0.0601807,0.407104,0.885925,-0.213928
1470261248407988,-0.0604858,0.406372,0.886169,-0.214172
1470261248424501,-0.0606689,0.406067,0.88623,-0.214355
1470261248445521,-0.0611572,0.406616,0.885925,-0.2146
1470261248468044,-0.0616455,0.407288,0.885498,-0.214844
1470261248484557,-0.0620117,0.407654,0.885254,-0.215027
1470261248505578,-0.0621948,0.407898,0.885071,-0.215149
1470261248528095,-0.0621948,0.407898,0.885071,-0.215149
1470261248544611,-0.0621948,0.407898,0.885071,-0.215149
1470261248565645,-0.0621948,0.407959,0.885071,-0.215149
1470261248588164,-0.0621948,0.407898,0.885071,-0.215149
1470261248604663,-0.0621948,0.407959,0.885071,-0.215149
1470261248625718,-0.0621948,0.407959,0.885071,-0.215149
1470261248648202,-0.0620728,0.407776,0.885132,-0.21521
1470261248664717,-0.0620728,0.407776,0.885132,-0.21521
1470261248685736,-0.0620728,0.407776,0.885132,-0.21521
1470261248708255,-0.0620728,0.407776,0.885193,-0.21521
1470261248724770,-0.0621948,0.407898,0.885071,-0.215149
1470261248745800,-0.0621948,0.407898,0.885071,-0.215149
1470261248768309,-0.0621948,0.407959,0.885071,-0.215149
1470261248786328,-0.0621948,0.407959,0.885071,-0.21521
1470261248805843,-0.0621948,0.407959,0.885071,-0.215149
1470261248827865,-0.0621338,0.408325,0.884949,-0.215088
1470261248845879,-0.0621338,0.408691,0.884766,-0.214905
1470261248865397,-0.0620117,0.408813,0.884766,-0.214844
1470261248889419,-0.0617676,0.408813,0.884827,-0.214661
1470261248906042,-0.0614014,0.408936,0.884827,-0.214478
1470261248925467,-0.0608521,0.408813,0.884888,-0.214478
1470261248948001,-0.0605469,0.40863,0.885071,-0.214355
1470261248965988,-0.0600586,0.408081,0.885437,-0.213989
1470261248985527,-0.0600586,0.408081,0.885437,-0.213989
1470261249008024,-0.0605469,0.408447,0.885254,-0.213806
1470261249026041,-0.0606689,0.408081,0.885437,-0.213867
1470261249045559,-0.0606079,0.406799,0.885986,-0.214111
1470261249068581,-0.06073,0.406433,0.886108,-0.214355
1470261249086098,-0.0612793,0.407043,0.885681,-0.2146
1470261249105614,-0.0618286,0.407654,0.885315,-0.214722
1470261249128133,-0.0621338,0.407898,0.885132,-0.214966
1470261249146149,-0.0621338,0.407959,0.885132,-0.214966
1470261249165667,-0.0621338,0.407898,0.885132,-0.214966
1470261249188187,-0.0621338,0.407898,0.885132,-0.214966
1470261249206205,-0.0621338,0.407898,0.885132,-0.214966
1470261249225735,-0.0621948,0.408203,0.88501,-0.214844
1470261249248241,-0.0621948,0.408203,0.88501,-0.214844
1470261249266257,-0.0621948,0.408264,0.88501,-0.214844
1470261249287280,-0.0621948,0.408264,0.88501,-0.214844
1470261249308294,-0.0621948,0.408264,0.88501,-0.214844
1470261249325811,-0.0621948,0.408325,0.88501,-0.214844
1470261249347330,-0.0620117,0.408203,0.885071,-0.214722
1470261249368351,-0.0619507,0.40802,0.885193,-0.2146
1470261249385867,-0.0617676,0.407898,0.885315,-0.214417
1470261249414390,-0.0614014,0.407898,0.885315,-0.214417
1470261249427901,-0.0610962,0.407654,0.885498,-0.214233
1470261249445919,-0.0609741,0.407654,0.885559,-0.213989
1470261249467437,-0.0609131,0.407715,0.88562,-0.213806
1470261249488458,-0.0610352,0.407349,0.885803,-0.213684
1470261249507473,-0.0610352,0.407349,0.885803,-0.213684
1470261249534498,-0.0609741,0.407349,0.885803,-0.213684
1470261249548011,-0.0609741,0.407349,0.885803,-0.213684
1470261249566029,-0.0612793,0.407227,0.885803,-0.213806
1470261249587046,-0.0615845,0.407227,0.885681,-0.214294
1470261249611069,-0.0618896,0.407471,0.885498,-0.2146
1470261249626081,-0.0621948,0.407654,0.885315,-0.214722
1470261249647099,-0.0623169,0.407837,0.885193,-0.214966
1470261249668119,-0.0623169,0.407837,0.885193,-0.214966
1470261249686136,-0.0623169,0.407837,0.885193,-0.214966
1470261249708655,-0.0623169,0.407837,0.885193,-0.214966
1470261249728172,-0.0623169,0.407776,0.885193,-0.214966
1470261249746189,-0.0623779,0.408081,0.885071,-0.214783
1470261249768708,-0.0623779,0.408447,0.884949,-0.214722
1470261249788225,-0.062439,0.408325,0.88501,-0.2146
1470261249806242,-0.0623169,0.408081,0.885193,-0.214478
1470261249828261,-0.0622559,0.407898,0.885254,-0.214417
1470261249848279,-0.0621948,0.407898,0.885254,-0.214417
1470261249866296,-0.0621948,0.407898,0.885254,-0.214417
1470261249888315,-0.0621948,0.407898,0.885254,-0.214478
1470261249908333,-0.0621338,0.407776,0.885376,-0.214294
1470261249925850,-0.0621338,0.407776,0.885376,-0.214294
1470261249948984,-0.0620117,0.407715,0.885498,-0.21405
1470261249968388,-0.0618286,0.40741,0.885681,-0.213806
1470261249985906,-0.0616455,0.407349,0.885742,-0.213745
1470261250008423,-0.0616455,0.407349,0.885742,-0.213745
1470261250027940,-0.0616455,0.407349,0.885742,-0.213745
1470261250050473,-0.0615845,0.407349,0.885742,-0.213745
1470261250068478,-0.0615845,0.407349,0.885742,-0.213745
1470261250087999,-0.0616455,0.407349,0.885742,-0.213745
1470261250106011,-0.0616455,0.407349,0.885742,-0.213745
1470261250128531,-0.0615845,0.407349,0.885742,-0.213745
1470261250148051,-0.0615845,0.407349,0.885742,-0.213745
1470261250166091,-0.0615845,0.407349,0.885742,-0.213745
1470261250196118,-0.0618896,0.407532,0.885559,-0.213928
1470261250208103,-0.0623169,0.407776,0.885376,-0.214111
1470261250226119,-0.0629272,0.408081,0.885193,-0.214111
1470261250248678,-0.0631714,0.408264,0.885132,-0.214172
1470261250268157,-0.0631714,0.408264,0.885071,-0.214172
1470261250286176,-0.0634155,0.408203,0.885132,-0.213989
1470261250308756,-0.0633545,0.40802,0.885254,-0.213989
1470261250331716,-0.0635376,0.407471,0.88562,-0.213501
1470261250346226,-0.0635986,0.406982,0.885803,-0.213501
1470261250368748,-0.0635986,0.406677,0.885925,-0.213623
1470261250389766,-0.0634766,0.406494,0.886047,-0.213684
1470261250405780,-0.0634766,0.406433,0.886047,-0.213684
1470261250428800,-0.0636597,0.406677,0.885925,-0.213623
1470261250449819,-0.0638428,0.406921,0.885803,-0.213623
1470261250465836,-0.0637817,0.406982,0.885803,-0.213623
1470261250488958,-0.0637207,0.406677,0.885864,-0.213684
1470261250509375,-0.0636597,0.406677,0.885925,-0.213745
1470261250526487,-0.0636597,0.406677,0.885925,-0.213745
1470261250548410,-0.0636597,0.406677,0.885925,-0.213745
1470261250569430,-0.0636597,0.406677,0.885925,-0.213745
1470261250586445,-0.0636597,0.406677,0.885864,-0.213745
1470261250609000,-0.0635986,0.406677,0.885864,-0.213745
1470261250629483,-0.0635986,0.406738,0.885864,-0.213745
1470261250646041,-0.0635986,0.406738,0.885864,-0.213745
1470261250668518,-0.0635986,0.406738,0.885864,-0.213745
1470261250690037,-0.0635986,0.406738,0.885864,-0.213745
1470261250711554,-0.0635986,0.406738,0.885864,-0.213745
1470261250727572,-0.0635986,0.406738,0.885864,-0.213745
1470261250750113,-0.0635986,0.406738,0.885864,-0.213745
1470261250771608,-0.0635986,0.406738,0.885864,-0.213745
1470261250787623,-0.0635986,0.406738,0.885864,-0.213745
1470261250810143,-0.0635986,0.406799,0.885864,-0.213745
1470261250831166,-0.0635986,0.406799,0.885864,-0.213745
1470261250847676,-0.0634766,0.406555,0.885986,-0.213684
1470261250870698,-0.0634155,0.40625,0.886108,-0.213623
1470261250884711,-0.0634766,0.406311,0.886108,-0.213623
1470261250907730,-0.0634155,0.406311,0.886108,-0.213623
1470261250930257,-0.0632324,0.406372,0.886108,-0.213562
1470261250952774,-0.0629883,0.40686,0.885925,-0.213501
1470261250967785,-0.0628052,0.407227,0.885742,-0.21344
1470261250990305,-0.0628052,0.407288,0.885742,-0.21344
1470261251004318,-0.062439,0.407227,0.885742,-0.213623
1470261251027838,-0.0626221,0.406799,0.886047,-0.213135
1470261251050358,-0.0623169,0.40625,0.886353,-0.213074
1470261251064371,-0.0619507,0.405823,0.886536,-0.213135
1470261251087394,-0.0617065,0.405518,0.886719,-0.213135
1470261251116421,-0.0613403,0.405212,0.88678,-0.21344
1470261251124425,-0.0606689,0.404907,0.88678,-0.214294
1470261251147446,-0.0611572,0.404724,0.886841,-0.214233
1470261251169967,-0.0613403,0.404541,0.88678,-0.214722
1470261251191485,-0.0618286,0.404785,0.886536,-0.21521
1470261251207500,-0.0621338,0.405029,0.886292,-0.215576
1470261251230020,-0.0621338,0.405334,0.886108,-0.215881
1470261251251040,-0.0619507,0.40564,0.885925,-0.216003
1470261251268055,-0.0616455,0.406006,0.885742,-0.216064
1470261251290074,-0.0611572,0.405762,0.885864,-0.216309
1470261251311092,-0.0601807,0.404968,0.886108,-0.217041
1470261251327608,-0.0598755,0.40387,0.886597,-0.217224
1470261251350128,-0.0601807,0.403076,0.886963,-0.217163
1470261251371148,-0.0602417,0.402954,0.886841,-0.217957
1470261251387662,-0.0599976,0.402527,0.886902,-0.218384
1470261251410182,-0.0595093,0.402954,0.886597,-0.218872
1470261251431201,-0.0587769,0.403809,0.886169,-0.219238
1470261251447716,-0.0593262,0.404724,0.885803,-0.219055
1470261251476241,-0.0598145,0.405701,0.885315,-0.219116
1470261251491255,-0.0608521,0.407227,0.88446,-0.219421
1470261251507770,-0.0618286,0.408813,0.883484,-0.220093
1470261251530290,-0.0621948,0.409973,0.882751,-0.220886
1470261251551310,-0.0614014,0.410889,0.88208,-0.221985
1470261251567824,-0.0609131,0.411743,0.881653,-0.222107
1470261251590344,-0.0602417,0.413025,0.880981,-0.222595
1470261251612864,-0.0594482,0.413757,0.880676,-0.222839
1470261251627877,-0.0578613,0.414001,0.880371,-0.22406
1470261251650398,-0.0579834,0.41333,0.880676,-0.223816
1470261251672918,-0.0570679,0.412476,0.880859,-0.224976
1470261251687934,-0.0576782,0.412048,0.881165,-0.224487
1470261251709951,-0.0577393,0.411255,0.88147,-0.224731
1470261251732471,-0.0584717,0.410034,0.88208,-0.224365
1470261251746985,-0.05896,0.409424,0.882324,-0.224365
1470261251770007,-0.0595703,0.408936,0.882629,-0.223816
1470261251793025,-0.0603638,0.408447,0.882996,-0.223145
1470261251807039,-0.0615234,0.408081,0.883301,-0.222168
1470261251830059,-0.0627441,0.407654,0.883667,-0.22113
1470261251852580,-0.0635986,0.406921,0.884094,-0.220764
1470261251867093,-0.0639038,0.406616,0.884094,-0.22113
1470261251890113,-0.0643311,0.406494,0.883972,-0.221741
1470261251912633,-0.0643921,0.40625,0.883911,-0.222229
1470261251927146,-0.0643921,0.406006,0.884033,-0.222351
1470261251950167,-0.0641479,0.40564,0.884155,-0.222473
1470261251972686,-0.0639038,0.406128,0.883972,-0.222473
1470261251987200,-0.0637207,0.406128,0.884033,-0.222351
1470261252010221,-0.0635986,0.405518,0.884338,-0.22229
1470261252032741,-0.0635376,0.404846,0.884644,-0.22229
1470261252047254,-0.0635376,0.404236,0.884888,-0.22229
1470261252070276,-0.0633545,0.403931,0.885132,-0.222046
1470261252092796,-0.0632935,0.403503,0.885376,-0.221802
1470261252113813,-0.0633545,0.403076,0.88562,-0.22168
1470261252129828,-0.0631714,0.402405,0.885986,-0.221558
1470261252152849,-0.0628662,0.401672,0.886353,-0.221436
1470261252173869,-0.0628052,0.401428,0.886475,-0.221313
1470261252190383,-0.0628052,0.401428,0.886475,-0.221313
1470261252218913,-0.0628052,0.401428,0.886475,-0.221313
1470261252233922,-0.0628052,0.401428,0.886475,-0.221313
1470261252250436,-0.0627441,0.401062,0.886658,-0.221191
1470261252272956,-0.0626831,0.400696,0.886841,-0.221252
1470261252301482,-0.0626831,0.400635,0.886841,-0.221252
1470261252310490,-0.0625,0.400757,0.886719,-0.22168
1470261252333010,-0.0626831,0.400879,0.886597,-0.221802
1470261252354030,-0.0629883,0.401367,0.886353,-0.221924
1470261252370547,-0.0629883,0.401367,0.886353,-0.221924
1470261252392565,-0.0631104,0.401306,0.886353,-0.221985
1470261252415084,-0.0630493,0.401184,0.886414,-0.221924
1470261252430098,-0.0630493,0.401184,0.886414,-0.221924
1470261252453119,-0.0630493,0.401184,0.886414,-0.221985
1470261252473636,-0.0630493,0.401367,0.886353,-0.221863
1470261252490152,-0.0630493,0.401428,0.886353,-0.221863
1470261252512672,-0.0630493,0.401428,0.886353,-0.221863
1470261252533690,-0.0630493,0.401428,0.886353,-0.221863
1470261252551708,-0.0630493,0.401428,0.886353,-0.221863
1470261252572726,-0.0630493,0.401428,0.886353,-0.221863
1470261252595246,-0.0630493,0.401428,0.886353,-0.221863
1470261252610259,-0.0630493,0.401428,0.886353,-0.221863
1470261252632779,-0.0629883,0.401245,0.886475,-0.221741
1470261252655300,-0.0629883,0.401245,0.886475,-0.221741
1470261252670313,-0.0629272,0.401123,0.886536,-0.22168
1470261252692833,-0.0627441,0.401001,0.886597,-0.221558
1470261252715353,-0.0627441,0.401001,0.886597,-0.221558
1470261252729367,-0.0627441,0.401001,0.886597,-0.221558
1470261252753389,-0.0627441,0.401001,0.886597,-0.221558
1470261252775407,-0.0627441,0.401062,0.886597,-0.221558
1470261252789420,-0.062561,0.40094,0.886658,-0.221497
1470261252812442,-0.062561,0.40094,0.886658,-0.221497
1470261252835463,-0.0626221,0.40094,0.886658,-0.221497
1470261252857981,-0.062561,0.40094,0.886658,-0.221497
1470261252872494,-0.062561,0.40094,0.886658,-0.221497
1470261252895515,-0.0628052,0.400757,0.886719,-0.22168
1470261252909528,-0.0630493,0.400879,0.886597,-0.221924
1470261252940055,-0.0631714,0.400757,0.886536,-0.222168
1470261252955569,-0.0631104,0.400818,0.886536,-0.222168
1470261252969583,-0.0631104,0.400818,0.886536,-0.222168
1470261252992603,-0.0631104,0.400818,0.886536,-0.222168
1470261253015124,-0.0631104,0.400879,0.886536,-0.222168
1470261253029636,-0.0631104,0.400879,0.886536,-0.222168
1470261253052658,-0.0631104,0.400879,0.886536,-0.222168
1470261253075177,-0.0631104,0.400879,0.886536,-0.222168
1470261253096209,-0.0631104,0.400818,0.886536,-0.222168
1470261253112710,-0.0631104,0.400818,0.886536,-0.222168
1470261253135233,-0.0630493,0.400879,0.886536,-0.222168
1470261253163756,-0.0630493,0.400879,0.886536,-0.222168
1470261253172764,-0.0630493,0.400879,0.886536,-0.222168
1470261253195285,-0.0630493,0.400879,0.886536,-0.222168
1470261253216303,-0.0630493,0.400879,0.886536,-0.222168
1470261253232818,-0.0630493,0.400879,0.886536,-0.222168
1470261253255341,-0.0630493,0.400879,0.886536,-0.222168
1470261253276358,-0.0630493,0.400879,0.886536,-0.222168
1470261253292872,-0.0630493,0.400879,0.886536,-0.222168
1470261253315395,-0.0630493,0.400879,0.886536,-0.222168
1470261253336413,-0.0630493,0.400879,0.886536,-0.222168
1470261253353429,-0.0630493,0.400879,0.886536,-0.222168
1470261253390962,-0.0630493,0.400879,0.886536,-0.222168
1470261253396465,-0.0630493,0.400879,0.886475,-0.222168
1470261253412980,-0.0630493,0.400879,0.886536,-0.222168
1470261253440506,-0.0630493,0.400879,0.886536,-0.222168
1470261253456519,-0.0630493,0.401001,0.886353,-0.222656
1470261253473034,-0.0634155,0.401001,0.886169,-0.223083
1470261253495054,-0.0635986,0.401428,0.885925,-0.223328
1470261253518076,-0.0635986,0.401428,0.885925,-0.223328
1470261253532587,-0.0635986,0.401428,0.885925,-0.223328
1470261253555108,-0.0635986,0.401428,0.885925,-0.223389
1470261253577628,-0.0635986,0.401428,0.885925,-0.223389
1470261253592642,-0.0635986,0.401428,0.885925,-0.223389
1470261253615162,-0.0635986,0.401428,0.885925,-0.223389
1470261253637684,-0.0635986,0.401428,0.885925,-0.223389
1470261253652196,-0.0635376,0.401489,0.885925,-0.223389
1470261253675217,-0.0635376,0.401428,0.885925,-0.223389
1470261253697737,-0.0635376,0.401489,0.885925,-0.223389
1470261253712248,-0.0635376,0.401489,0.885925,-0.223389
1470261253735272,-0.0635376,0.401489,0.885864,-0.223389
1470261253757789,-0.0635376,0.40155,0.885864,-0.223389
1470261253771802,-0.0632935,0.401184,0.886047,-0.223328
1470261253802833,-0.0631104,0.401001,0.886169,-0.223328
1470261253817844,-0.0631104,0.401001,0.886169,-0.223328
1470261253832356,-0.0631104,0.401001,0.886169,-0.223328
1470261253855378,-0.0632324,0.401245,0.886047,-0.223389
1470261253877898,-0.0632324,0.401245,0.886047,-0.223389
1470261253891910,-0.0632324,0.401245,0.886047,-0.223389
1470261253915431,-0.0632324,0.401245,0.886047,-0.223389
1470261253937952,-0.0631714,0.401245,0.886047,-0.223389
1470261253951964,-0.0632324,0.40155,0.885864,-0.223389
1470261253975485,-0.0632324,0.401611,0.885864,-0.223389
1470261253998005,-0.0632324,0.401611,0.885864,-0.223389
1470261254019025,-0.0632324,0.401611,0.885864,-0.223389
1470261254035540,-0.0632324,0.401611,0.885864,-0.223389
1470261254057559,-0.0632324,0.401611,0.885864,-0.223389
1470261254078578,-0.0632324,0.401611,0.885864,-0.223389
1470261254095092,-0.0632324,0.401611,0.885864,-0.223389
1470261254117613,-0.0631714,0.401611,0.885864,-0.223389
1470261254139132,-0.0631104,0.401917,0.885742,-0.223389
1470261254155648,-0.0631104,0.401917,0.885742,-0.223328
1470261254177666,-0.0631104,0.401672,0.885803,-0.223572
1470261254198686,-0.0631714,0.40155,0.885742,-0.223816
1470261254215201,-0.0635986,0.401489,0.885681,-0.224182
1470261254238722,-0.0637817,0.401489,0.88562,-0.224487
1470261254258740,-0.0639648,0.40155,0.885498,-0.22467
1470261254275255,-0.064209,0.401611,0.885376,-0.224915
1470261254297775,-0.06427,0.401611,0.885315,-0.225159
1470261254318796,-0.06427,0.401672,0.885315,-0.225159
1470261254335308,-0.06427,0.401672,0.885315,-0.225159
1470261254357828,-0.06427,0.401672,0.885315,-0.225159
1470261254378847,-0.06427,0.401672,0.885315,-0.225159
1470261254395362,-0.06427,0.401672,0.885315,-0.225159
1470261254417884,-0.064209,0.401672,0.885315,-0.225159
1470261254440402,-0.064209,0.401611,0.885315,-0.225159
1470261254455419,-0.064209,0.401611,0.885315,-0.225159
1470261254477936,-0.064209,0.401672,0.885315,-0.22522
1470261254500456,-0.064209,0.401672,0.885315,-0.22522
1470261254515470,-0.064209,0.401672,0.885315,-0.22522
1470261254537990,-0.0640259,0.401733,0.885315,-0.225098
1470261254560509,-0.0639038,0.401428,0.885437,-0.225098
1470261254576024,-0.0639648,0.401672,0.885376,-0.225037
1470261254597544,-0.0639648,0.401672,0.885376,-0.225037
1470261254620565,-0.0639648,0.401672,0.885376,-0.225037
1470261254634577,-0.0637817,0.401428,0.885498,-0.225159
1470261254657598,-0.0637817,0.401367,0.885498,-0.225159
1470261254680619,-0.0640259,0.401733,0.885254,-0.225342
1470261254694630,-0.06427,0.402039,0.88501,-0.225647
1470261254717654,-0.0645142,0.402222,0.884827,-0.225891
1470261254740176,-0.0645752,0.402039,0.884888,-0.226074
1470261254754685,-0.0646362,0.401794,0.884949,-0.226196
1470261254777705,-0.0646362,0.401794,0.884949,-0.226196
1470261254800226,-0.0645752,0.401794,0.884949,-0.226196
1470261254814739,-0.0645752,0.401794,0.884949,-0.226196
1470261254837759,-0.0646362,0.401794,0.884949,-0.226196
1470261254860279,-0.0646362,0.401855,0.884949,-0.226196
1470261254874293,-0.0643921,0.401733,0.88501,-0.226135
1470261254897814,-0.064209,0.401611,0.885132,-0.226074
1470261254920334,-0.064209,0.401611,0.885132,-0.226074
1470261254941352,-0.064209,0.401611,0.885132,-0.226074
1470261254957867,-0.064209,0.401611,0.885132,-0.226074
1470261254980391,-0.064209,0.401611,0.885132,-0.226074
1470261255001409,-0.0641479,0.401428,0.885193,-0.226074
1470261255017921,-0.0640869,0.401245,0.885315,-0.226135
1470261255040442,-0.0640869,0.401245,0.885254,-0.226135
1470261255061490,-0.0640869,0.401184,0.885315,-0.226135
1470261255084000,-0.0640869,0.401245,0.885254,-0.226135
1470261255099994,-0.0640869,0.401245,0.885254,-0.226135
1470261255121520,-0.0640869,0.401245,0.885254,-0.226135
1470261255138028,-0.0640259,0.401245,0.885254,-0.226135
1470261255160049,-0.0640259,0.401245,0.885254,-0.226135
1470261255181603,-0.0640259,0.401306,0.885254,-0.226135
1470261255197645,-0.0640259,0.401306,0.885254,-0.226135
1470261255220105,-0.0640259,0.401306,0.885254,-0.226135
1470261255241622,-0.0640259,0.401306,0.885254,-0.226135
1470261255257638,-0.0640259,0.401306,0.885254,-0.226135
1470261255280158,-0.0639038,0.401123,0.885376,-0.226135
1470261255301678,-0.0639038,0.401123,0.885376,-0.226135
1470261255318194,-0.0636597,0.401184,0.885376,-0.226013
1470261255340211,-0.0635986,0.401184,0.885437,-0.225647
1470261255361229,-0.0634766,0.401367,0.885437,-0.225525
1470261255377746,-0.0633545,0.401062,0.885559,-0.225586
1470261255400265,-0.0634155,0.401306,0.885376,-0.225769
1470261255422785,-0.0635376,0.401733,0.885071,-0.226074
1470261255437800,-0.0638428,0.401855,0.884949,-0.226318
1470261255460318,-0.0639038,0.401489,0.885071,-0.226624
1470261255482839,-0.0639648,0.401123,0.885132,-0.226868
1470261255497852,-0.0639648,0.401123,0.885132,-0.226929
1470261255520374,-0.0641479,0.401489,0.884949,-0.226807
1470261255548901,-0.06427,0.401367,0.88501,-0.226807
1470261255557405,-0.0641479,0.401123,0.885193,-0.226685
1470261255580426,-0.0640869,0.401123,0.885193,-0.226685
1470261255602954,-0.0640869,0.401123,0.885193,-0.226685
1470261255616966,-0.0640869,0.401062,0.885193,-0.226746
1470261255640487,-0.0640869,0.401062,0.885193,-0.226746
1470261255663008,-0.0640259,0.400879,0.885254,-0.226746
1470261255677020,-0.0640259,0.400879,0.885254,-0.226746
1470261255700542,-0.0640259,0.400879,0.885254,-0.226746
1470261255722561,-0.0640259,0.400879,0.885254,-0.226746
1470261255745083,-0.0639648,0.400879,0.885254,-0.226746
1470261255760594,-0.0639648,0.400879,0.885254,-0.226746
1470261255782615,-0.0639648,0.40094,0.885254,-0.226746
1470261255797128,-0.0639648,0.400879,0.885254,-0.226746
1470261255820650,-0.0639648,0.40094,0.885254,-0.226746
1470261255842668,-0.0639648,0.40094,0.885254,-0.226746
1470261255857182,-0.0639038,0.40094,0.885254,-0.226746
1470261255880203,-0.0639038,0.40094,0.885254,-0.226746
1470261255903225,-0.0639038,0.40094,0.885254,-0.226807
1470261255908228,-0.0639038,0.40094,0.885254,-0.226746
1470261255926244,-0.0639038,0.401001,0.885254,-0.226807
1470261255945761,-0.0639038,0.401001,0.885254,-0.226807
1470261255968282,-0.0639038,0.401001,0.885254,-0.226746
1470261255993805,-0.0639038,0.401001,0.885254,-0.226746
1470261256005815,-0.0640259,0.401123,0.885132,-0.226807
1470261256028335,-0.0641479,0.40155,0.884949,-0.226868
1470261256046351,-0.0644531,0.402222,0.884644,-0.226868
1470261256065868,-0.0646362,0.402893,0.884277,-0.226868
1470261256088389,-0.0646362,0.402954,0.884277,-0.226868
1470261256105906,-0.0645752,0.40271,0.884399,-0.226868
1470261256125923,-0.0644531,0.402344,0.884521,-0.226929
1470261256148460,-0.0645752,0.402405,0.884521,-0.226868
1470261256165960,-0.0646362,0.402649,0.884399,-0.226929
1470261256185978,-0.0646362,0.402649,0.884399,-0.226929
1470261256207997,-0.0646362,0.40271,0.884338,-0.22699
1470261256226014,-0.0645752,0.40271,0.884338,-0.22699
1470261256245533,-0.0645752,0.40271,0.884338,-0.22699
1470261256271056,-0.0646362,0.402771,0.884338,-0.22699
1470261256286069,-0.0646362,0.402771,0.884338,-0.226929
1470261256305584,-0.0646362,0.402771,0.884338,-0.226929
1470261256328605,-0.0646362,0.402771,0.884338,-0.226929
1470261256353630,-0.0646362,0.402832,0.884277,-0.226929
1470261256366639,-0.0646362,0.403076,0.884155,-0.22699
1470261256391161,-0.0646362,0.403076,0.884155,-0.22699
1470261256406174,-0.0645142,0.402954,0.884216,-0.227051
1470261256425692,-0.064209,0.402466,0.88446,-0.227051
1470261256448212,-0.064209,0.402466,0.88446,-0.227112
1470261256466730,-0.0643311,0.402771,0.884338,-0.226929
1470261256485749,-0.0643311,0.402771,0.884338,-0.226929
1470261256508266,-0.064209,0.402649,0.88446,-0.226807
1470261256526284,-0.064209,0.402649,0.88446,-0.226807
1470261256545801,-0.0641479,0.402649,0.88446,-0.226807
1470261256571374,-0.0641479,0.40271,0.884399,-0.226807
1470261256586337,-0.0641479,0.40271,0.884399,-0.226807
1470261256605855,-0.0641479,0.40271,0.884399,-0.226807
1470261256628373,-0.0641479,0.40271,0.884399,-0.226807
1470261256645890,-0.064209,0.40271,0.884399,-0.226807
1470261256665907,-0.0640869,0.402588,0.884521,-0.226807
1470261256688428,-0.0640259,0.402405,0.884583,-0.226807
1470261256714033,-0.0639648,0.402405,0.884583,-0.226807
1470261256725962,-0.0639648,0.402405,0.884583,-0.226807
1470261256748586,-0.0639648,0.402405,0.884583,-0.226807
1470261256765998,-0.0640259,0.402405,0.884583,-0.226807
1470261256785518,-0.0640259,0.402405,0.884583,-0.226807
1470261256808084,-0.0639648,0.402405,0.884583,-0.226807
1470261256826556,-0.0640869,0.402649,0.88446,-0.226807
1470261256845594,-0.0643311,0.402954,0.884338,-0.226746
1470261256868090,-0.0644531,0.40332,0.884155,-0.226807
1470261256886107,-0.0645752,0.403748,0.883911,-0.226807
1470261256907126,-0.0646973,0.404114,0.883728,-0.226746
1470261256928156,-0.0646973,0.404175,0.883728,-0.226746
1470261256946186,-0.0646973,0.404175,0.883728,-0.226746
1470261256967180,-0.0645142,0.403931,0.88385,-0.226807
1470261256988232,-0.0645142,0.40387,0.88385,-0.226807
1470261257006216,-0.0645142,0.403931,0.88385,-0.226807
1470261257027232,-0.0645142,0.404114,0.883728,-0.226868
1470261257048267,-0.0645142,0.404175,0.883728,-0.226807
1470261257070774,-0.0645142,0.404175,0.883728,-0.226868
1470261257087289,-0.0645142,0.404175,0.883728,-0.226868
1470261257108305,-0.0643921,0.403992,0.883789,-0.226929
1470261257125820,-0.06427,0.403809,0.883911,-0.22699
1470261257147339,-0.06427,0.403748,0.883911,-0.22699
1470261257168358,-0.06427,0.403809,0.883911,-0.226929
1470261257186376,-0.06427,0.403809,0.88385,-0.226929
1470261257207394,-0.064209,0.403687,0.883972,-0.226868
1470261257228413,-0.0639038,0.403076,0.884277,-0.226929
1470261257245929,-0.0637817,0.402588,0.88446,-0.22699
1470261257268951,-0.0639038,0.402771,0.884338,-0.227051
1470261257304481,-0.0643311,0.40332,0.884094,-0.22699
1470261257310486,-0.0646973,0.403992,0.883789,-0.226868
1470261257328502,-0.0649414,0.404297,0.883667,-0.226807
1470261257349521,-0.0649414,0.404297,0.883606,-0.226807
1470261257366037,-0.0649414,0.404053,0.883728,-0.226807
1470261257388559,-0.0647583,0.403625,0.883972,-0.226807
1470261257408073,-0.0646362,0.403137,0.884216,-0.226746
1470261257426090,-0.0646973,0.402832,0.884338,-0.226685
1470261257448611,-0.0646973,0.402832,0.884338,-0.226685
1470261257468130,-0.0646973,0.402832,0.884338,-0.226685
1470261257486146,-0.0646973,0.402893,0.884338,-0.226685
1470261257508666,-0.0645752,0.402466,0.884521,-0.226807
1470261257531186,-0.0645142,0.401855,0.884766,-0.226929
1470261257546200,-0.0643921,0.401123,0.885071,-0.227051
1470261257568719,-0.0645142,0.400818,0.885132,-0.227234
1470261257588236,-0.0649414,0.400574,0.885254,-0.227234
1470261257612258,-0.0648193,0.400208,0.885315,-0.2276
1470261257628772,-0.0648193,0.400208,0.885315,-0.2276
1470261257655800,-0.0649414,0.40033,0.885193,-0.227722
1470261257666308,-0.0650635,0.400757,0.884949,-0.227844
1470261257688827,-0.0650635,0.401367,0.884705,-0.227966
1470261257708344,-0.0649414,0.401489,0.884583,-0.228149
1470261257730868,-0.0648193,0.401367,0.884583,-0.228455
1470261257748380,-0.0647583,0.401184,0.884583,-0.228638
1470261257771401,-0.0648804,0.40094,0.884705,-0.228638
1470261257790918,-0.0648193,0.400452,0.884888,-0.228638
1470261257808433,-0.0647583,0.400513,0.884888,-0.228638
1470261257828453,-0.0647583,0.400513,0.884888,-0.228638
1470261257853477,-0.0646973,0.40033,0.88501,-0.228577
1470261257868989,-0.0645142,0.399841,0.885254,-0.228577
1470261257889507,-0.0645142,0.399841,0.885254,-0.228577
1470261257911025,-0.0645142,0.399841,0.885254,-0.228577
1470261257928542,-0.0645142,0.399719,0.885315,-0.228516
1470261257949560,-0.0645142,0.399719,0.885315,-0.228455
1470261257970582,-0.0644531,0.399719,0.885315,-0.228516
1470261257988596,-0.0645142,0.399719,0.885315,-0.228516
1470261258009614,-0.0648193,0.399597,0.885376,-0.228333
1470261258030633,-0.0645142,0.399231,0.885498,-0.228577
1470261258048649,-0.0641479,0.398987,0.88562,-0.228699
1470261258069671,-0.0641479,0.398987,0.88562,-0.228699
1470261258090702,-0.0643311,0.39917,0.885559,-0.228699
1470261258108704,-0.0643311,0.39917,0.885498,-0.228699
1470261258129743,-0.0643311,0.39917,0.885498,-0.228699
1470261258150741,-0.0643921,0.39917,0.885498,-0.228699
1470261258168759,-0.0643921,0.399231,0.885498,-0.228699
1470261258189776,-0.0643311,0.398987,0.88562,-0.228577
1470261258210796,-0.0643311,0.398987,0.88562,-0.228577
1470261258228812,-0.0641479,0.398865,0.885681,-0.228638
1470261258251331,-0.0639648,0.398621,0.885864,-0.228577
1470261258270849,-0.0638428,0.398376,0.885925,-0.228577
1470261258296371,-0.0638428,0.398254,0.886047,-0.228455
1470261258311390,-0.0638428,0.398193,0.886047,-0.228455
1470261258330903,-0.0639648,0.398438,0.885986,-0.228394
1470261258348922,-0.0640259,0.398743,0.885864,-0.228333
1470261258386454,-0.0640869,0.398987,0.885742,-0.228333
1470261258390456,-0.064209,0.399414,0.885559,-0.22821
1470261258414479,-0.0643311,0.400024,0.885315,-0.228149
1470261258430993,-0.0644531,0.40033,0.885132,-0.228149
1470261258451511,-0.0645142,0.400574,0.88501,-0.22821
1470261258468026,-0.06427,0.401245,0.884644,-0.228455
1470261258490546,-0.06427,0.4021,0.884216,-0.228516
1470261258511564,-0.0643921,0.403076,0.883789,-0.228699
1470261258527579,-0.0643921,0.403625,0.883423,-0.229004
1470261258550601,-0.0643921,0.403748,0.883301,-0.22937
1470261258571619,-0.0644531,0.403809,0.883179,-0.229614
1470261258587634,-0.0646973,0.404358,0.882874,-0.229858
1470261258610654,-0.0650635,0.404785,0.882568,-0.22998
1470261258639180,-0.0650635,0.404785,0.882568,-0.22998
1470261258647687,-0.0649414,0.404724,0.882568,-0.230225
1470261258670209,-0.0649414,0.40509,0.882385,-0.230347
1470261258691227,-0.0651245,0.405518,0.882141,-0.230347
1470261258707741,-0.0653076,0.405945,0.881958,-0.230408
1470261258730262,-0.0653076,0.405945,0.881958,-0.230408
1470261258751782,-0.0653076,0.405945,0.881958,-0.230408
1470261258767795,-0.0652466,0.406067,0.881836,-0.23053
1470261258790817,-0.0653687,0.406433,0.881653,-0.23053
1470261258811333,-0.0654297,0.406799,0.88147,-0.230591
1470261258827849,-0.0654297,0.406799,0.88147,-0.230591
1470261258850370,-0.0654297,0.406799,0.88147,-0.230591
1470261258871389,-0.0654297,0.406799,0.88147,-0.230591
1470261258887904,-0.0655518,0.407043,0.881348,-0.230652
1470261258910423,-0.0655518,0.407043,0.881348,-0.230652
1470261258931442,-0.0655518,0.407104,0.881348,-0.230652
1470261258947957,-0.0654297,0.406921,0.881409,-0.230652
1470261258970478,-0.0653687,0.406616,0.881531,-0.230591
1470261258991530,-0.0653687,0.406494,0.881592,-0.230591
1470261259007510,-0.0653076,0.406311,0.881714,-0.230591
1470261259030531,-0.0652466,0.405823,0.881958,-0.23053
1470261259051549,-0.0651245,0.405396,0.882141,-0.230469
1470261259067564,-0.0650635,0.404968,0.882385,-0.23053
1470261259090585,-0.0649414,0.404724,0.882446,-0.230652
1470261259111604,-0.0649414,0.404724,0.882446,-0.230652
1470261259127618,-0.0649414,0.404785,0.882446,-0.230652
1470261259150182,-0.0649414,0.404785,0.882446,-0.230652
1470261259171657,-0.0649414,0.404541,0.882507,-0.230713
1470261259188173,-0.0648804,0.404419,0.882568,-0.230713
1470261259217699,-0.0648804,0.404114,0.88269,-0.230774
1470261259232712,-0.0648804,0.404175,0.88269,-0.230774
1470261259247726,-0.0648193,0.403931,0.882813,-0.230835
1470261259270249,-0.0648193,0.403748,0.882874,-0.230774
1470261259292767,-0.0647583,0.403748,0.882874,-0.230774
1470261259307280,-0.0647583,0.403625,0.882935,-0.230774
1470261259330301,-0.0645752,0.403198,0.883118,-0.230774
1470261259352822,-0.0643311,0.402832,0.883301,-0.230835
1470261259367334,-0.0641479,0.402649,0.883423,-0.230835
1470261259390355,-0.0641479,0.402283,0.883545,-0.230957
1470261259412874,-0.0643311,0.401855,0.883667,-0.231323
1470261259426901,-0.0647583,0.40155,0.883606,-0.231873
1470261259450408,-0.0650635,0.401367,0.883545,-0.232178
1470261259472932,-0.0650635,0.401367,0.883545,-0.232178
1470261259495448,-0.0651245,0.401917,0.883301,-0.232178
1470261259510462,-0.0651245,0.403015,0.882813,-0.232056
1470261259532984,-0.0651855,0.404236,0.882324,-0.231934
1470261259547495,-0.0651855,0.405212,0.881897,-0.231812
1470261259570517,-0.0653076,0.405762,0.881714,-0.231628
1470261259593037,-0.0653076,0.405762,0.881714,-0.231628
1470261259607048,-0.0653076,0.405762,0.881714,-0.231628
1470261259630572,-0.0653076,0.405762,0.881714,-0.231628
1470261259653093,-0.0653076,0.405823,0.881653,-0.231628
1470261259667103,-0.0651245,0.405334,0.881897,-0.231628
1470261259690624,-0.0648804,0.404663,0.882202,-0.23175
1470261259712644,-0.0645752,0.403992,0.882507,-0.231873
1470261259734162,-0.0643921,0.403503,0.88269,-0.231934
1470261259750177,-0.0643311,0.403198,0.882874,-0.231995
1470261259773200,-0.06427,0.402832,0.883057,-0.231873
1470261259795218,-0.0640869,0.402527,0.883179,-0.231873
1470261259810231,-0.0640869,0.402344,0.883301,-0.23175
1470261259832751,-0.0640869,0.402344,0.883301,-0.23175
1470261259853772,-0.0640869,0.402344,0.883301,-0.23175
1470261259877793,-0.06427,0.402283,0.883301,-0.231812
1470261259892806,-0.06427,0.402283,0.883301,-0.231812
1470261259915327,-0.06427,0.402222,0.883362,-0.231812
1470261259930339,-0.0644531,0.402527,0.883179,-0.231812
1470261259952861,-0.0646362,0.40271,0.883057,-0.231873
1470261259973878,-0.0646362,0.40271,0.883057,-0.231873
1470261259990393,-0.0646362,0.40271,0.883057,-0.231873
1470261260012913,-0.0646362,0.40271,0.883057,-0.231873
1470261260041442,-0.0646362,0.40271,0.883057,-0.231873
1470261260050451,-0.0646973,0.403137,0.882874,-0.231873
1470261260072967,-0.0650024,0.40387,0.882507,-0.231934
1470261260093986,-0.0658569,0.40509,0.881836,-0.232056
1470261260110502,-0.0678101,0.407288,0.880676,-0.231934
1470261260133021,-0.0708008,0.410461,0.878845,-0.232605
1470261260155541,-0.0736084,0.413025,0.877136,-0.233582
1470261260169555,-0.0759277,0.414368,0.875916,-0.235107
1470261260192574,-0.0778198,0.413513,0.875671,-0.236816
1470261260215594,-0.0788574,0.411133,0.875977,-0.239441
1470261260229608,-0.0803223,0.408386,0.876343,-0.242493
1470261260253130,-0.0817871,0.406616,0.875732,-0.246887
1470261260275171,-0.0841064,0.406799,0.87384,-0.252686
1470261260289662,-0.0866699,0.406738,0.871643,-0.259338
1470261260312682,-0.0892944,0.407043,0.868958,-0.266785
1470261260335705,-0.0921631,0.407288,0.866028,-0.274902
1470261260357723,-0.0943604,0.407104,0.863098,-0.283508
1470261260387750,-0.097168,0.407654,0.859741,-0.291931
1470261260395256,-0.0997314,0.406067,0.856934,-0.301331
1470261260416276,-0.101196,0.403198,0.854492,-0.311462
1470261260432791,-0.102966,0.399658,0.852173,-0.321533
1470261260455310,-0.104492,0.397278,0.849182,-0.331665
1470261260477329,-0.105957,0.396179,0.845459,-0.342041
1470261260492844,-0.108032,0.396484,0.841125,-0.351563
1470261260515366,-0.109619,0.39563,0.837341,-0.361023
1470261260536884,-0.111145,0.393616,0.834167,-0.369873
1470261260552901,-0.111816,0.390137,0.831909,-0.378357
1470261260575418,-0.113098,0.387878,0.829468,-0.38562
1470261260597939,-0.114624,0.385742,0.827332,-0.391907
1470261260612952,-0.11499,0.38385,0.825012,-0.398438
1470261260635475,-0.115662,0.381836,0.82312,-0.404114
1470261260656491,-0.11554,0.379333,0.82196,-0.408813
1470261260679011,-0.115479,0.376709,0.821045,-0.413025
1470261260695526,-0.116089,0.375,0.820251,-0.415955
1470261260716572,-0.117126,0.373352,0.819763,-0.418213
1470261260732560,-0.117798,0.371277,0.81958,-0.420105
1470261260755580,-0.117859,0.368774,0.819824,-0.421814
1470261260776598,-0.118286,0.367004,0.820129,-0.422729
1470261260793113,-0.119507,0.365845,0.82019,-0.423218
1470261260815633,-0.120667,0.365173,0.820129,-0.423645
1470261260836653,-0.121521,0.364197,0.820251,-0.424011
1470261260853168,-0.122192,0.362915,0.82074,-0.42395
1470261260875188,-0.122864,0.361877,0.821289,-0.423584
1470261260904219,-0.123718,0.361267,0.821594,-0.423279
1470261260912721,-0.124939,0.361267,0.821716,-0.422607
1470261260942748,-0.126099,0.360901,0.822083,-0.421814
1470261260956260,-0.126831,0.360535,0.82251,-0.421143
1470261260972783,-0.127258,0.360229,0.822876,-0.420532
1470261260995296,-0.12738,0.359924,0.823242,-0.420105
1470261261016314,-0.12738,0.35968,0.823547,-0.419617
1470261261032829,-0.127441,0.35968,0.823608,-0.419495
1470261261055350,-0.127319,0.359375,0.823547,-0.419983
1470261261076402,-0.127808,0.358582,0.823242,-0.421021
1470261261100390,-0.129028,0.357422,0.822693,-0.422729
1470261261115403,-0.130371,0.35675,0.822449,-0.423401
1470261261137924,-0.131714,0.355835,0.822632,-0.423401
1470261261152939,-0.132202,0.355469,0.822632,-0.423584
1470261261175456,-0.130859,0.354553,0.82312,-0.423828
1470261261197977,-0.128418,0.354126,0.823364,-0.424438
1470261261212992,-0.127075,0.355042,0.822693,-0.425293
1470261261235512,-0.127258,0.35553,0.82251,-0.425232
1470261261264095,-0.128052,0.356018,0.822327,-0.424927
1470261261272044,-0.128235,0.355713,0.822571,-0.424683
1470261261295565,-0.128174,0.354919,0.822998,-0.4245
1470261261318085,-0.128601,0.355408,0.822876,-0.424194
1470261261332098,-0.128723,0.355652,0.823181,-0.423462
1470261261355619,-0.128845,0.35614,0.823242,-0.422852
1470261261378138,-0.128662,0.356628,0.823425,-0.42218
1470261261392151,-0.128296,0.356873,0.823608,-0.421631
1470261261415173,-0.127991,0.357178,0.82373,-0.421326
1470261261437692,-0.127808,0.357727,0.823669,-0.420959
1470261261460214,-0.127686,0.358215,0.823669,-0.420654
1470261261475226,-0.127502,0.358398,0.82373,-0.42041
1470261261497747,-0.127197,0.358704,0.82373,-0.420105
1470261261512259,-0.127014,0.359192,0.823792,-0.419678
1470261261535281,-0.126709,0.35968,0.823853,-0.41925
1470261261557800,-0.126465,0.360229,0.823914,-0.418701
1470261261572313,-0.126282,0.361023,0.823975,-0.41803
1470261261595334,-0.125977,0.361938,0.824036,-0.417236
1470261261617855,-0.125061,0.362976,0.824219,-0.416138
1470261261638872,-0.123596,0.364075,0.824768,-0.414551
1470261261655389,-0.121643,0.365295,0.825623,-0.412354
1470261261677908,-0.119141,0.36676,0.826782,-0.409424
1470261261698945,-0.116028,0.368713,0.828186,-0.405823
1470261261715442,-0.112305,0.371033,0.829834,-0.401428
1470261261745470,-0.107605,0.37323,0.831848,-0.396362
1470261261758981,-0.102234,0.375671,0.834045,-0.390808
1470261261775996,-0.0964355,0.378296,0.836487,-0.384521
1470261261798016,-0.0903931,0.380615,0.839294,-0.377502
1470261261819038,-0.0842896,0.382874,0.842346,-0.36969
1470261261835551,-0.078186,0.384949,0.845642,-0.361328
1470261261858069,-0.0723877,0.387024,0.848877,-0.352661
1470261261880590,-0.0675049,0.389282,0.85199,-0.343506
1470261261894603,-0.0635986,0.392273,0.854675,-0.333984
1470261261918123,-0.0603638,0.395386,0.857239,-0.32428
1470261261939143,-0.0576172,0.398376,0.859619,-0.314697
1470261261954658,-0.0553589,0.401489,0.861572,-0.305664
1470261261977677,-0.053833,0.404602,0.863159,-0.29718
1470261261999196,-0.0529785,0.407532,0.864502,-0.289246
1470261262014710,-0.0529175,0.410278,0.865723,-0.281738
1470261262037732,-0.0533447,0.413025,0.86676,-0.274292
1470261262066257,-0.0539551,0.415344,0.867798,-0.267273
1470261262074765,-0.0548096,0.417542,0.868774,-0.260498
1470261262097785,-0.0560303,0.420105,0.869385,-0.253967
1470261262135320,-0.0580444,0.424072,0.868958,-0.248169
1470261262137822,-0.0604858,0.428467,0.868042,-0.243347
1470261262157839,-0.0634155,0.430298,0.86792,-0.239746
1470261262180360,-0.0646973,0.429443,0.868713,-0.237976
1470261262194872,-0.0646362,0.425598,0.871155,-0.236084
1470261262217892,-0.0636597,0.42334,0.872559,-0.235107
1470261262240413,-0.0639648,0.424194,0.872375,-0.234131
1470261262261432,-0.0651245,0.425354,0.87207,-0.23291
1470261262277948,-0.0656128,0.424133,0.872925,-0.231812
1470261262300467,-0.0657959,0.421997,0.874207,-0.230774
1470261262314980,-0.065979,0.420532,0.875183,-0.229919
1470261262338002,-0.0661621,0.419922,0.875549,-0.229431
1470261262360521,-0.0664673,0.419739,0.875671,-0.229126
1470261262375034,-0.0667725,0.419128,0.875977,-0.229065
1470261262398054,-0.0665894,0.417786,0.876648,-0.229065
1470261262427582,-0.065979,0.415833,0.877563,-0.229187
1470261262436591,-0.0656128,0.414551,0.878174,-0.22937
1470261262458108,-0.0653687,0.414063,0.878418,-0.22937
1470261262488638,-0.0652466,0.413696,0.878662,-0.229065
1470261262494643,-0.0650635,0.412903,0.87915,-0.228821
1470261262517665,-0.0646973,0.412231,0.879517,-0.228699
1470261262540685,-0.0645142,0.411621,0.879822,-0.228638
1470261262561702,-0.0641479,0.411072,0.880066,-0.22876
1470261262577716,-0.0643921,0.410645,0.880188,-0.228821
1470261262600236,-0.0643921,0.4104,0.88031,-0.228943
1470261262621756,-0.06427,0.409668,0.880615,-0.229187
1470261262637771,-0.0643311,0.409363,0.880676,-0.22937
1470261262660290,-0.0644531,0.409424,0.880615,-0.229492
1470261262681313,-0.0646973,0.40979,0.880371,-0.229553
1470261262697823,-0.0647583,0.40979,0.880371,-0.229553
1470261262720346,-0.0647583,0.40979,0.880371,-0.229553
1470261262741362,-0.0647583,0.409851,0.880371,-0.229553
1470261262757878,-0.0647583,0.409851,0.880371,-0.229553
1470261262780398,-0.0647583,0.409851,0.880371,-0.229553
1470261262801417,-0.0647583,0.409851,0.880371,-0.229553
1470261262823937,-0.0647583,0.409851,0.880371,-0.229553
1470261262840452,-0.0648193,0.409912,0.880371,-0.229553
1470261262861470,-0.0648193,0.409912,0.880371,-0.229553
1470261262877986,-0.0648193,0.409851,0.880371,-0.229553
1470261262900508,-0.0648193,0.409851,0.880371,-0.229553
1470261262921524,-0.0648193,0.409851,0.880371,-0.229553
1470261262938039,-0.0647583,0.410034,0.88031,-0.229431
1470261262960560,-0.0647583,0.410095,0.88031,-0.229431
1470261262983079,-0.0646362,0.410095,0.880371,-0.229248
1470261262998093,-0.0644531,0.410156,0.880371,-0.229065
1470261263020615,-0.0643921,0.410278,0.880432,-0.22876
1470261263042659,-0.0643921,0.410645,0.88031,-0.228516
1470261263057649,-0.0643311,0.411133,0.880127,-0.228271
1470261263080167,-0.0643311,0.411133,0.880127,-0.228271
1470261263103188,-0.0643311,0.411133,0.880127,-0.228271
1470261263125207,-0.0643311,0.411133,0.880127,-0.228271
1470261263140221,-0.0643311,0.411133,0.880127,-0.228271
1470261263162741,-0.0643311,0.411133,0.880127,-0.228271
1470261263177254,-0.0643921,0.411377,0.880066,-0.228149
1470261263200275,-0.0644531,0.411377,0.880066,-0.228149
1470261263222796,-0.0643921,0.411377,0.880066,-0.228149
1470261263237311,-0.0644531,0.411377,0.880066,-0.228149
1470261263261331,-0.0645142,0.411621,0.879944,-0.228149
1470261263282849,-0.0645752,0.411804,0.879883,-0.228149
1470261263297362,-0.0646362,0.411987,0.879761,-0.228149
1470261263320385,-0.0646362,0.411987,0.879761,-0.228149
1470261263342905,-0.0646362,0.412048,0.879761,-0.228149
1470261263357416,-0.0646362,0.412048,0.879761,-0.228088
1470261263381938,-0.0646973,0.412048,0.879761,-0.228088
1470261263402959,-0.0648193,0.412354,0.879578,-0.228088
1470261263417470,-0.0649414,0.41272,0.879456,-0.227966
1470261263440491,-0.0649414,0.41272,0.879456,-0.227966
1470261263463011,-0.0647583,0.412476,0.879578,-0.227966
1470261263484029,-0.0647583,0.412476,0.879578,-0.227966
1470261263500544,-0.0648804,0.41272,0.879456,-0.227966
1470261263523064,-0.0650024,0.412964,0.879333,-0.227905
1470261263544084,-0.0650024,0.412964,0.879333,-0.227905
1470261263560098,-0.0650024,0.412964,0.879333,-0.227905
1470261263583119,-0.0650024,0.412964,0.879333,-0.227905
1470261263604140,-0.0650024,0.413025,0.879333,-0.227905
1470261263620653,-0.0650024,0.413025,0.879333,-0.227905
1470261263642673,-0.0650024,0.413025,0.879333,-0.227905
1470261263664266,-0.0650024,0.413025,0.879333,-0.227905
1470261263680205,-0.0650024,0.413025,0.879333,-0.227905
1470261263685711,-0.0650024,0.413025,0.879272,-0.227905
1470261263708246,-0.0650024,0.413086,0.879272,-0.227905
1470261263730753,-0.0650024,0.413086,0.879272,-0.227905
1470261263745798,-0.0650024,0.413086,0.879272,-0.227905
1470261263768290,-0.0650024,0.413086,0.879272,-0.227905
1470261263790820,-0.0650024,0.413147,0.879272,-0.227905
1470261263805836,-0.0650024,0.413147,0.879272,-0.227905
1470261263828343,-0.0650024,0.413147,0.879272,-0.227905
1470261263850860,-0.0650024,0.413147,0.879272,-0.227905
1470261263865889,-0.0650024,0.413147,0.879211,-0.227905
1470261263888406,-0.0650024,0.413208,0.879211,-0.227905
1470261263910961,-0.0649414,0.412903,0.879395,-0.227844
1470261263925935,-0.0648193,0.412781,0.879456,-0.227783
1470261263948455,-0.0648193,0.412781,0.879456,-0.227783
1470261263970966,-0.0648193,0.412781,0.879456,-0.227783
1470261263985980,-0.0648193,0.412781,0.879456,-0.227783
1470261264010002,-0.0648193,0.412842,0.879456,-0.227783
1470261264031020,-0.0647583,0.412537,0.879578,-0.227783
1470261264046034,-0.0647583,0.412537,0.879578,-0.227783
1470261264068554,-0.0647583,0.412537,0.879578,-0.227783
1470261264091180,-0.0646973,0.412537,0.879578,-0.227783
1470261264106087,-0.0647583,0.412598,0.879578,-0.227783
1470261264128669,-0.0647583,0.412598,0.879578,-0.227783
1470261264151187,-0.0646973,0.412598,0.879578,-0.227783
1470261264165641,-0.0647583,0.412598,0.879578,-0.227783
1470261264188163,-0.0645752,0.412415,0.879639,-0.227783
1470261264210682,-0.0645752,0.412415,0.879639,-0.227783
1470261264233202,-0.0645752,0.412476,0.879639,-0.227783
1470261264249237,-0.0646362,0.412292,0.879761,-0.227722
1470261264271237,-0.0644531,0.411865,0.879883,-0.227844
1470261264286253,-0.0643921,0.411682,0.880005,-0.227905
1470261264308274,-0.0643921,0.411682,0.880005,-0.227905
1470261264330790,-0.0645752,0.411865,0.879883,-0.227966
1470261264345803,-0.0645752,0.411865,0.879883,-0.227966
1470261264368327,-0.0646362,0.411682,0.879944,-0.227966
1470261264390844,-0.0646362,0.411743,0.879944,-0.227966
1470261264405870,-0.0646362,0.411743,0.879944,-0.227966
1470261264431382,-0.0645752,0.411499,0.880005,-0.227966
1470261264450929,-0.0645142,0.411499,0.880005,-0.227966
1470261264465912,-0.0645142,0.411499,0.880005,-0.227966
1470261264488432,-0.0645142,0.41156,0.880005,-0.227966
1470261264510951,-0.0645752,0.41156,0.880005,-0.227966
1470261264525964,-0.0645142,0.411438,0.880066,-0.227966
1470261264549987,-0.0645142,0.411438,0.880066,-0.227966
1470261264571005,-0.0645142,0.411438,0.880066,-0.227966
1470261264587521,-0.0645142,0.411438,0.880066,-0.227966
1470261264608539,-0.0644531,0.411499,0.880066,-0.228027
1470261264631140,-0.0644531,0.411499,0.880066,-0.227966
1470261264647076,-0.0645142,0.411499,0.880066,-0.227966
1470261264668592,-0.0645142,0.411499,0.880066,-0.227966
1470261264691185,-0.0645142,0.411499,0.880066,-0.227966
1470261264707136,-0.0645142,0.411499,0.880066,-0.227966
1470261264728148,-0.0645142,0.411499,0.880066,-0.227966
1470261264750666,-0.0645752,0.411743,0.879944,-0.228027
1470261264767182,-0.0645752,0.411743,0.879944,-0.228027
1470261264788701,-0.0645752,0.411743,0.879944,-0.228027
1470261264810721,-0.0645752,0.411743,0.879944,-0.227966
1470261264827236,-0.0645752,0.411743,0.879883,-0.227966
1470261264848255,-0.0645752,0.411743,0.879883,-0.227966
1470261264873781,-0.0645752,0.411804,0.879883,-0.227966
1470261264888791,-0.0645752,0.411743,0.879883,-0.227966
1470261264908308,-0.0645752,0.411804,0.879883,-0.227966
1470261264933831,-0.0646973,0.412048,0.879761,-0.227966
1470261264948895,-0.0646973,0.412048,0.879761,-0.227966
1470261264968366,-0.0646973,0.412048,0.879761,-0.227966
1470261264990892,-0.0646973,0.412109,0.879761,-0.227966
1470261265008934,-0.0646973,0.412109,0.879761,-0.227966
1470261265028441,-0.0646973,0.412109,0.879761,-0.227966
1470261265050936,-0.0649414,0.412354,0.879639,-0.227905
1470261265068953,-0.0649414,0.412354,0.879639,-0.227905
1470261265088470,-0.0649414,0.412354,0.879639,-0.227905
1470261265110990,-0.0649414,0.412354,0.879639,-0.227905
1470261265128507,-0.0650024,0.412598,0.879517,-0.227966
1470261265148526,-0.0651245,0.412781,0.879395,-0.228027
1470261265171046,-0.0653687,0.412903,0.879272,-0.22821
1470261265188560,-0.0655518,0.413025,0.87915,-0.228394
1470261265208600,-0.0657349,0.412964,0.879089,-0.228699
1470261265230613,-0.0661011,0.413025,0.878967,-0.229065
1470261265248614,-0.0664063,0.41333,0.878723,-0.229248
1470261265268632,-0.0664063,0.41333,0.878723,-0.229248
1470261265290651,-0.0664063,0.413757,0.878479,-0.229309
1470261265316175,-0.0664673,0.414246,0.878296,-0.229126
1470261265328686,-0.0664673,0.414246,0.878296,-0.229126
1470261265350705,-0.0664673,0.414307,0.878296,-0.229126
1470261265373228,-0.0664673,0.414307,0.878296,-0.229126
1470261265388244,-0.0664673,0.414307,0.878296,-0.229187
1470261265410760,-0.0664673,0.414307,0.878296,-0.229187
1470261265428778,-0.0664673,0.414307,0.878235,-0.229187
1470261265448293,-0.0664673,0.414368,0.878235,-0.229126
1470261265470816,-0.0665283,0.414185,0.878296,-0.22937
1470261265488830,-0.0666504,0.414001,0.878296,-0.229553
1470261265510349,-0.0667725,0.413696,0.878357,-0.229858
1470261265530867,-0.0669556,0.413269,0.878479,-0.230225
1470261265548884,-0.0670776,0.412537,0.878662,-0.230591
1470261265569905,-0.0671997,0.411743,0.878967,-0.230896
1470261265590924,-0.0673218,0.411316,0.879089,-0.23114
1470261265608938,-0.0675049,0.411194,0.879089,-0.231323
1470261265629956,-0.067688,0.411194,0.879028,-0.231445
1470261265650976,-0.067688,0.411194,0.879028,-0.231445
1470261265668991,-0.0678101,0.411011,0.879089,-0.231567
1470261265689510,-0.0678711,0.410889,0.879089,-0.23175
1470261265711029,-0.0678711,0.410828,0.879089,-0.23175
1470261265736557,-0.0679321,0.410889,0.879089,-0.23175
1470261265749673,-0.0678711,0.410828,0.879089,-0.23175
1470261265771083,-0.0679321,0.410889,0.879089,-0.23175
1470261265788599,-0.0679321,0.410889,0.879089,-0.23175
1470261265809618,-0.0680542,0.411072,0.878967,-0.231689
1470261265830636,-0.0682373,0.411621,0.878784,-0.231628
1470261265848653,-0.0684204,0.412231,0.878479,-0.231567
1470261265871176,-0.0685425,0.412903,0.878174,-0.231506
1470261265890691,-0.0686035,0.413208,0.877991,-0.231445
1470261265908707,-0.0686035,0.413208,0.877991,-0.231445
1470261265931229,-0.0686035,0.413208,0.877991,-0.231445
1470261265950744,-0.0686035,0.413208,0.878052,-0.231445
1470261265968761,-0.0687256,0.413391,0.87793,-0.231506
1470261265991308,-0.0688477,0.413635,0.877808,-0.231445
1470261266010798,-0.0689087,0.413879,0.877686,-0.231445
1470261266028815,-0.0689087,0.41394,0.877686,-0.231445
1470261266051340,-0.0688477,0.413757,0.877747,-0.231506
1470261266070856,-0.0688477,0.413757,0.877747,-0.231506
1470261266088869,-0.0688477,0.413757,0.877747,-0.231506
1470261266111388,-0.0687866,0.413757,0.877747,-0.231506
1470261266130934,-0.0689697,0.414001,0.877625,-0.231506
1470261266148937,-0.0689697,0.414063,0.877563,-0.231506
1470261266171443,-0.0689697,0.414063,0.877563,-0.231506
1470261266191461,-0.0689087,0.413879,0.877625,-0.231567
1470261266207975,-0.0689087,0.41394,0.877625,-0.231567
1470261266230496,-0.0689087,0.41394,0.877625,-0.231567
1470261266253016,-0.0689087,0.41394,0.877625,-0.231567
1470261266268030,-0.0689087,0.41394,0.877625,-0.231567
1470261266290049,-0.0689087,0.41394,0.877625,-0.231567
1470261266313070,-0.0689087,0.413879,0.877686,-0.231567
1470261266328084,-0.0688477,0.413879,0.877686,-0.231567
1470261266350103,-0.0688477,0.413818,0.877686,-0.231567
1470261266373124,-0.0689087,0.414124,0.877563,-0.231567
1470261266388138,-0.0689697,0.414124,0.877502,-0.231567
1470261266410157,-0.0689087,0.414124,0.877502,-0.231567
1470261266431676,-0.0689087,0.41394,0.877625,-0.231567
1470261266448190,-0.0689087,0.41394,0.877625,-0.231567
1470261266470712,-0.0689087,0.41394,0.877625,-0.231567
1470261266491730,-0.0689087,0.41394,0.877625,-0.231567
1470261266507745,-0.0689087,0.414001,0.877625,-0.231567
1470261266537775,-0.0689087,0.414001,0.877563,-0.231567
1470261266551785,-0.0689087,0.414001,0.877625,-0.231567
1470261266567798,-0.0689087,0.414001,0.877625,-0.231567
1470261266590318,-0.0689087,0.414001,0.877625,-0.231567
1470261266619346,-0.0689087,0.414001,0.877625,-0.231567
1470261266627852,-0.0689087,0.414001,0.877625,-0.231567
1470261266650373,-0.0689087,0.414001,0.877625,-0.231567
1470261266672893,-0.0689087,0.414001,0.877625,-0.231567
1470261266687907,-0.0689087,0.414001,0.877625,-0.231567
1470261266710426,-0.0689087,0.414001,0.877625,-0.231567
1470261266731445,-0.0689087,0.414001,0.877625,-0.231567
1470261266747960,-0.0688477,0.414001,0.877625,-0.231628
1470261266771482,-0.0688477,0.41394,0.877625,-0.231628
1470261266793001,-0.0688477,0.41394,0.877625,-0.231628
1470261266808014,-0.0688477,0.41394,0.877625,-0.231628
1470261266830534,-0.0688477,0.41394,0.877625,-0.231628
1470261266853057,-0.0688477,0.41394,0.877625,-0.231628
1470261266868068,-0.0688477,0.41394,0.877625,-0.231628
1470261266890588,-0.0688477,0.414001,0.877625,-0.231628
1470261266913109,-0.0688477,0.414001,0.877563,-0.231628
1470261266927121,-0.0687256,0.413818,0.877686,-0.231506
1470261266950642,-0.0686035,0.413452,0.877869,-0.231567
1470261266973162,-0.0684814,0.413208,0.877991,-0.231506
