timestamp,x,y,z,w
1470242920716516,-0.00482178,0.191528,-0.929871,0.314087
1470242920739035,-0.00482178,0.191528,-0.929871,0.314087
1470242920763057,-0.00488281,0.191528,-0.929871,0.314087
1470242920785076,-0.00488281,0.191528,-0.929871,0.314087
1470242920800090,-0.00488281,0.191528,-0.929871,0.314087
1470242920821609,-0.00494385,0.191528,-0.929871,0.314087
1470242920836624,-0.00494385,0.191528,-0.929871,0.314087
1470242920875657,-0.00494385,0.191589,-0.929871,0.314087
1470242920878160,-0.00494385,0.191528,-0.929871,0.314087
1470242920890171,-0.00494385,0.191528,-0.929871,0.314087
1470242920907687,-0.00494385,0.191589,-0.929871,0.314026
1470242920928205,-0.00494385,0.191528,-0.929871,0.314026
1470242920957232,-0.00500488,0.191528,-0.929871,0.314026
1470242921001271,-0.00500488,0.191528,-0.929871,0.314026
1470242921011280,-0.00500488,0.191528,-0.929871,0.314026
1470242921025292,-0.00500488,0.191589,-0.929871,0.314026
1470242921031798,-0.00506592,0.191528,-0.929871,0.314026
1470242921046311,-0.00506592,0.191528,-0.929871,0.314026
1470242921068831,-0.00506592,0.191528,-0.929871,0.314026
1470242921086848,-0.00506592,0.191528,-0.929871,0.314026
1470242921106365,-0.00506592,0.191528,-0.929871,0.314026
1470242921128885,-0.00506592,0.191528,-0.929871,0.314026
1470242921146901,-0.00506592,0.191528,-0.929871,0.314026
1470242921173927,-0.00512695,0.191528,-0.929871,0.314026
1470242921188941,-0.00512695,0.191528,-0.929871,0.314026
1470242921206455,-0.00512695,0.191528,-0.929871,0.314026
1470242921226473,-0.00512695,0.191589,-0.929871,0.314026
1470242921256500,-0.00512695,0.191589,-0.929871,0.314026
1470242921266509,-0.00518799,0.191528,-0.929871,0.314026
1470242921286527,-0.00518799,0.191528,-0.929871,0.314026
1470242921309547,-0.00518799,0.191589,-0.929871,0.314026
1470242921326563,-0.00518799,0.191589,-0.929871,0.314026
1470242921346581,-0.00518799,0.191589,-0.929871,0.314026
1470242921369101,-0.00518799,0.191589,-0.929871,0.314026
1470242921386617,-0.00518799,0.191589,-0.929871,0.314026
1470242921407636,-0.00524902,0.191589,-0.929871,0.314026
1470242921428654,-0.00524902,0.191589,-0.929871,0.314026
1470242921446672,-0.00524902,0.191589,-0.929871,0.314026
1470242921467690,-0.00524902,0.191589,-0.929871,0.314026
1470242921489212,-0.00524902,0.191589,-0.929871,0.314026
1470242921506725,-0.00524902,0.191589,-0.929871,0.313965
1470242921527744,-0.00531006,0.191589,-0.929871,0.313965
1470242921548762,-0.00531006,0.19165,-0.929871,0.313965
1470242921566779,-0.00531006,0.19165,-0.929871,0.313965
1470242921587797,-0.00531006,0.19165,-0.929871,0.313965
1470242921616323,-0.00531006,0.19165,-0.929871,0.313965
1470242921626833,-0.00537109,0.19165,-0.929871,0.313965
1470242921647852,-0.00537109,0.19165,-0.929871,0.313965
1470242921671873,-0.00537109,0.19165,-0.929871,0.313965
1470242921686887,-0.00537109,0.19165,-0.929871,0.313965
1470242921707905,-0.00537109,0.19165,-0.929871,0.313965
1470242921728924,-0.00537109,0.19165,-0.929871,0.313965
1470242921746940,-0.00537109,0.19165,-0.929871,0.313965
1470242921767959,-0.00537109,0.19165,-0.929871,0.313965
1470242921788979,-0.00537109,0.19165,-0.929871,0.313965
1470242921806493,-0.00543213,0.19165,-0.929871,0.313965
1470242921829016,-0.00543213,0.191711,-0.929871,0.313965
1470242921849032,-0.00543213,0.191711,-0.929871,0.313965
1470242921866547,-0.00543213,0.191711,-0.929871,0.313965
1470242921896576,-0.00543213,0.191711,-0.929871,0.313965
1470242921909086,-0.00543213,0.191711,-0.929871,0.313965
1470242921926602,-0.00543213,0.191711,-0.929871,0.313965
1470242921949122,-0.00543213,0.191711,-0.929871,0.313965
1470242921976145,-0.00549316,0.191711,-0.929871,0.313965
1470242921992160,-0.00549316,0.191711,-0.929871,0.313965
1470242922008675,-0.00549316,0.191772,-0.929871,0.313965
1470242922031195,-0.00531006,0.191589,-0.929871,0.313965
1470242922052214,-0.00518799,0.191406,-0.929932,0.313965
1470242922068229,-0.00524902,0.191406,-0.929932,0.313965
1470242922090750,-0.00524902,0.191406,-0.929932,0.313965
1470242922119274,-0.00524902,0.191406,-0.929932,0.313965
1470242922128783,-0.00524902,0.191467,-0.929932,0.313965
1470242922150803,-0.00524902,0.191467,-0.929932,0.313965
1470242922171822,-0.00524902,0.191467,-0.929932,0.313965
1470242922188837,-0.00524902,0.191467,-0.929932,0.313965
1470242922210857,-0.00524902,0.191467,-0.929932,0.313965
1470242922231877,-0.00524902,0.191467,-0.929932,0.313965
1470242922248392,-0.00524902,0.191467,-0.929932,0.313965
1470242922270911,-0.00524902,0.191406,-0.929932,0.313965
1470242922291929,-0.00524902,0.191467,-0.929932,0.313965
1470242922308444,-0.00524902,0.191467,-0.929932,0.313965
1470242922330965,-0.00524902,0.191467,-0.929932,0.313965
1470242922353485,-0.00524902,0.191467,-0.929932,0.313965
1470242922376006,-0.00524902,0.191467,-0.929932,0.313965
1470242922391019,-0.00524902,0.191467,-0.929932,0.313965
1470242922413540,-0.00524902,0.191467,-0.929932,0.313965
1470242922428053,-0.00524902,0.191406,-0.929932,0.313965
1470242922451072,-0.00524902,0.191406,-0.929932,0.313965
1470242922473594,-0.00524902,0.191406,-0.929932,0.313965
1470242922488607,-0.00524902,0.191406,-0.929932,0.313965
1470242922511125,-0.00531006,0.191406,-0.929932,0.313965
1470242922533646,-0.00531006,0.191406,-0.929932,0.313965
1470242922547659,-0.00531006,0.191406,-0.929932,0.313965
1470242922571180,-0.00531006,0.191406,-0.929932,0.313965
1470242922593700,-0.00531006,0.191406,-0.929932,0.313965
1470242922616220,-0.00531006,0.191406,-0.929932,0.313965
1470242922630734,-0.00531006,0.191406,-0.929932,0.313965
1470242922653754,-0.00531006,0.191406,-0.929932,0.313965
1470242922676275,-0.00531006,0.191406,-0.929932,0.313965
1470242922690788,-0.00531006,0.191406,-0.929932,0.313965
1470242922713309,-0.00531006,0.191406,-0.929932,0.313965
1470242922727821,-0.00531006,0.191406,-0.929932,0.313965
1470242922750841,-0.00531006,0.191406,-0.929932,0.313965
1470242922773539,-0.00531006,0.191467,-0.929932,0.313965
1470242922788053,-0.00537109,0.191467,-0.929932,0.313965
1470242922811073,-0.00537109,0.191467,-0.929932,0.313965
1470242922833594,-0.00537109,0.191467,-0.929932,0.313965
1470242922854612,-0.00537109,0.191467,-0.929932,0.313965
1470242922871127,-0.00537109,0.191467,-0.929932,0.313965
1470242922893147,-0.00537109,0.191467,-0.929932,0.313965
1470242922914666,-0.00537109,0.191467,-0.929932,0.313965
1470242922931182,-0.00537109,0.191467,-0.929932,0.313965
1470242922953201,-0.00537109,0.191528,-0.929932,0.313965
1470242922974721,-0.00537109,0.191467,-0.929932,0.313965
1470242922990735,-0.00537109,0.191467,-0.929932,0.313965
1470242923013256,-0.00537109,0.191528,-0.929932,0.313965
1470242923034274,-0.00543213,0.191528,-0.929932,0.313965
1470242923050789,-0.00543213,0.191528,-0.929932,0.313965
1470242923073309,-0.00543213,0.191467,-0.929932,0.313965
1470242923094327,-0.00543213,0.191528,-0.929932,0.313965
1470242923110842,-0.00543213,0.191528,-0.929932,0.313904
1470242923133363,-0.00543213,0.191528,-0.929932,0.313904
1470242923154382,-0.00543213,0.191528,-0.929932,0.313904
1470242923170896,-0.00549316,0.191528,-0.929932,0.313904
1470242923193417,-0.00549316,0.191528,-0.929932,0.313904
1470242923214436,-0.00549316,0.191528,-0.929932,0.313904
1470242923230951,-0.00549316,0.191528,-0.929932,0.313904
1470242923253471,-0.00549316,0.191528,-0.929932,0.313904
1470242923274524,-0.00549316,0.191528,-0.929932,0.313904
1470242923291037,-0.00549316,0.191528,-0.929932,0.313904
1470242923313525,-0.00549316,0.191589,-0.929932,0.313904
1470242923336059,-0.00549316,0.191589,-0.929932,0.313904
1470242923351066,-0.00549316,0.191589,-0.929932,0.313904
1470242923373578,-0.0055542,0.191589,-0.929932,0.313904
1470242923396101,-0.0055542,0.191589,-0.929932,0.313904
1470242923411113,-0.0055542,0.191589,-0.929932,0.313904
1470242923433631,-0.0055542,0.191589,-0.929932,0.313904
1470242923456153,-0.0055542,0.191589,-0.929932,0.313904
1470242923470165,-0.00549316,0.191345,-0.929993,0.313904
1470242923493215,-0.00549316,0.191345,-0.929993,0.313904
1470242923516206,-0.00549316,0.191345,-0.929993,0.313904
1470242923530223,-0.00549316,0.191345,-0.929993,0.313904
1470242923553258,-0.00549316,0.191345,-0.929993,0.313904
1470242923575762,-0.00549316,0.191345,-0.929993,0.313904
1470242923590273,-0.0055542,0.191345,-0.929993,0.313904
1470242923613294,-0.0055542,0.191406,-0.929993,0.313904
1470242923635814,-0.0055542,0.191406,-0.929993,0.313904
1470242923650347,-0.0055542,0.191406,-0.929993,0.313904
1470242923673350,-0.0055542,0.191406,-0.929993,0.313904
1470242923695869,-0.0055542,0.191406,-0.929993,0.313904
1470242923717389,-0.0055542,0.191406,-0.929993,0.313904
1470242923733401,-0.0055542,0.191406,-0.929993,0.313904
1470242923755923,-0.0055542,0.191406,-0.929993,0.313904
1470242923770436,-0.00543213,0.191223,-0.929993,0.313904
1470242923793455,-0.00543213,0.191223,-0.929993,0.313904
1470242923815978,-0.00543213,0.191223,-0.929993,0.313904
1470242923837025,-0.00549316,0.191223,-0.929993,0.313904
1470242923853510,-0.00549316,0.191223,-0.929993,0.313904
1470242923876031,-0.00549316,0.191223,-0.929993,0.313904
1470242923897049,-0.00549316,0.191223,-0.929993,0.313904
1470242923913563,-0.00549316,0.191223,-0.929993,0.313904
1470242923936085,-0.00531006,0.191223,-0.929993,0.313965
1470242923957160,-0.00500488,0.191101,-0.929993,0.314087
1470242923973616,-0.00500488,0.191101,-0.929932,0.314087
1470242923996138,-0.00506592,0.191101,-0.929932,0.314087
1470242924017157,-0.00488281,0.190857,-0.929993,0.314087
1470242924041178,-0.00457764,0.190552,-0.930054,0.314087
1470242924055691,-0.00457764,0.190552,-0.930054,0.314087
1470242924077236,-0.00457764,0.190552,-0.930054,0.314087
1470242924093228,-0.00457764,0.190552,-0.930054,0.314087
1470242924115745,-0.00439453,0.19043,-0.930054,0.314148
1470242924144879,-0.00415039,0.190186,-0.930115,0.31427
1470242924153278,-0.00384521,0.189758,-0.930115,0.314453
1470242924175799,-0.00341797,0.189392,-0.930115,0.314636
1470242924197368,-0.00317383,0.189392,-0.930054,0.31488
1470242924212846,-0.00292969,0.189331,-0.929993,0.315186
1470242924235852,-0.00274658,0.189453,-0.92981,0.315552
1470242924258373,-0.00299072,0.189758,-0.929565,0.31604
1470242924273387,-0.00469971,0.19104,-0.929077,0.316711
1470242924295907,-0.00769043,0.193909,-0.928101,0.31781
1470242924318438,-0.0105591,0.197021,-0.927002,0.319092
1470242924339492,-0.0126953,0.198669,-0.926086,0.320618
1470242924355963,-0.0145874,0.198608,-0.925415,0.32251
1470242924378482,-0.0169067,0.198914,-0.9245,0.324829
1470242924399503,-0.0188599,0.199646,-0.923279,0.327637
1470242924423521,-0.0202026,0.199402,-0.921814,0.331848
1470242924446041,-0.0206909,0.198547,-0.920105,0.336914
1470242924459658,-0.0216064,0.197571,-0.918152,0.342896
1470242924476068,-0.0234985,0.198425,-0.9151,0.35022
1470242924498088,-0.026062,0.201355,-0.91095,0.359192
1470242924519607,-0.0289307,0.204407,-0.906006,0.369568
1470242924536122,-0.0309448,0.205322,-0.901001,0.380859
1470242924558642,-0.0308228,0.202087,-0.896606,0.392822
1470242924579661,-0.0291748,0.194946,-0.892578,0.40564
1470242924596176,-0.0273438,0.186096,-0.888,0.419678
1470242924618199,-0.0266724,0.178772,-0.882324,0.434509
1470242924640716,-0.0285034,0.171509,-0.87616,0.449585
1470242924656230,-0.0292969,0.16217,-0.870117,0.464539
1470242924678250,-0.0291138,0.153992,-0.863464,0.479492
1470242924699776,-0.0297241,0.143066,-0.856812,0.494507
1470242924715783,-0.0316162,0.138123,-0.849609,0.507996
1470242924738304,-0.0341187,0.133179,-0.842407,0.521057
1470242924759868,-0.0358887,0.126587,-0.835815,0.533081
1470242924775839,-0.038269,0.121216,-0.829529,0.543762
1470242924798376,-0.0396118,0.110046,-0.824951,0.552979
1470242924819983,-0.041748,0.106689,-0.820374,0.560242
1470242924835891,-0.0384521,0.0974731,-0.816956,0.567078
1470242924858421,-0.0377808,0.0933838,-0.814026,0.572021
1470242924879431,-0.0376587,0.0913086,-0.810852,0.576843
1470242924895946,-0.0401001,0.090271,-0.808655,0.579956
1470242924918469,-0.0405273,0.0888672,-0.807373,0.58197
1470242924947019,-0.0386963,0.0847168,-0.807129,0.582947
1470242924955499,-0.0357056,0.081604,-0.807556,0.583008
1470242924978521,-0.0341187,0.0803223,-0.807678,0.58313
1470242924999563,-0.0332031,0.0797729,-0.807678,0.583252
1470242925015586,-0.0314941,0.0788574,-0.8078,0.583313
1470242925038574,-0.0311279,0.0794678,-0.807739,0.583374
1470242925059620,-0.0291138,0.0791016,-0.808228,0.582764
1470242925076136,-0.0270386,0.0789185,-0.808655,0.582336
1470242925098626,-0.0255737,0.0786133,-0.808838,0.582214
1470242925119646,-0.0239868,0.0779419,-0.808838,0.582336
1470242925136161,-0.022583,0.0772095,-0.808838,0.58252
1470242925158180,-0.0214233,0.0765381,-0.808838,0.582642
1470242925180701,-0.0206909,0.0761719,-0.808899,0.582642
1470242925195715,-0.0201416,0.0757446,-0.808838,0.582764
1470242925224806,-0.0200806,0.0757446,-0.808838,0.582825
1470242925240798,-0.0205078,0.0762329,-0.808716,0.582886
1470242925263244,-0.020813,0.0766602,-0.808655,0.582886
1470242925278221,-0.020813,0.0767212,-0.808655,0.582886
1470242925300741,-0.0203857,0.0765991,-0.808655,0.582886
1470242925316256,-0.0203857,0.0766602,-0.808655,0.582886
1470242925339279,-0.0201416,0.0767212,-0.808716,0.582886
1470242925360798,-0.0197144,0.0766602,-0.808777,0.582825
1470242925375310,-0.0189819,0.0765381,-0.808838,0.582764
1470242925398346,-0.0181274,0.0764771,-0.808899,0.582642
1470242925420849,-0.017334,0.076416,-0.809021,0.582581
1470242925435364,-0.0166626,0.076416,-0.809021,0.58252
1470242925458386,-0.0161743,0.076355,-0.809082,0.58252
1470242925480912,-0.015625,0.0762329,-0.809082,0.58252
1470242925501939,-0.0151367,0.0760498,-0.809204,0.582458
1470242925518440,-0.0145874,0.0758057,-0.809265,0.582336
1470242925540957,-0.0142212,0.0757446,-0.809387,0.582214
1470242925561990,-0.013916,0.0757446,-0.809448,0.582153
1470242925578490,-0.0136719,0.0758667,-0.809509,0.582031
1470242925601013,-0.0136719,0.0759277,-0.809509,0.582031
1470242925622030,-0.0136719,0.0759888,-0.809509,0.582031
1470242925638544,-0.0133057,0.0758057,-0.80957,0.58197
1470242925667072,-0.0130005,0.0756226,-0.809631,0.581909
1470242925682123,-0.0130005,0.0756836,-0.809631,0.581909
1470242925706104,-0.0130005,0.0756836,-0.809631,0.581909
1470242925721119,-0.0130005,0.0756836,-0.809631,0.581909
1470242925742142,-0.0130005,0.0756836,-0.809631,0.581909
1470242925758652,-0.0130005,0.0757446,-0.809631,0.581909
1470242925781173,-0.0130005,0.0757446,-0.809631,0.581909
1470242925802191,-0.0130005,0.0757446,-0.809631,0.581909
1470242925818220,-0.0130005,0.0757446,-0.809631,0.581909
1470242925840726,-0.0130005,0.0757446,-0.809631,0.581909
1470242925862249,-0.0130615,0.0759888,-0.80957,0.581909
1470242925878259,-0.0130615,0.0759888,-0.80957,0.581909
1470242925900780,-0.0130615,0.0759888,-0.80957,0.581909
1470242925922301,-0.0130615,0.0760498,-0.80957,0.581909
1470242925938815,-0.0130615,0.0760498,-0.80957,0.581909
1470242925960834,-0.0130615,0.0760498,-0.80957,0.581909
1470242925983354,-0.0130615,0.0760498,-0.80957,0.581909
1470242925998368,-0.0130615,0.0761108,-0.80957,0.581909
1470242926020889,-0.0130615,0.0761108,-0.80957,0.581909
1470242926042422,-0.0130615,0.0761719,-0.80957,0.581909
1470242926058422,-0.0130615,0.0761719,-0.80957,0.581909
1470242926080955,-0.0130615,0.0761719,-0.80957,0.581909
1470242926101961,-0.0130615,0.0762329,-0.80957,0.581909
1470242926118477,-0.0130615,0.0762329,-0.80957,0.581909
1470242926141010,-0.0130615,0.0762329,-0.80957,0.581909
1470242926163515,-0.0131836,0.076416,-0.80957,0.581848
1470242926178530,-0.0132446,0.0764771,-0.80957,0.581848
1470242926208558,-0.0132446,0.0764771,-0.80957,0.581848
1470242926223569,-0.0131836,0.0764771,-0.80957,0.581848
1470242926238588,-0.0131836,0.0765381,-0.80957,0.581848
1470242926261606,-0.0131836,0.0765381,-0.80957,0.581848
1470242926283623,-0.0131836,0.0765381,-0.80957,0.581848
1470242926297636,-0.0131836,0.0765381,-0.80957,0.581848
1470242926320656,-0.0131836,0.0765381,-0.80957,0.581848
1470242926326179,-0.0131836,0.0765991,-0.80957,0.581848
1470242926349265,-0.0131836,0.0765991,-0.80957,0.581848
1470242926365196,-0.0131836,0.0765991,-0.80957,0.581848
1470242926386218,-0.0131836,0.0765991,-0.80957,0.581848
1470242926409236,-0.0131836,0.0766602,-0.80957,0.581848
1470242926425252,-0.0131836,0.0766602,-0.80957,0.581848
1470242926454276,-0.0130005,0.0765381,-0.809631,0.581787
1470242926468822,-0.0134277,0.076355,-0.80957,0.581848
1470242926485304,-0.015686,0.0770264,-0.809326,0.582092
1470242926506327,-0.0195313,0.0787354,-0.808838,0.582397
1470242926528843,-0.0228882,0.0797729,-0.808289,0.582947
1470242926546875,-0.0241089,0.0795288,-0.807922,0.583374
1470242926566408,-0.0256348,0.0795288,-0.807556,0.583801
1470242926588899,-0.0286255,0.0810547,-0.807007,0.58429
1470242926606935,-0.0310059,0.0825195,-0.806274,0.584961
1470242926626452,-0.0316162,0.0842285,-0.80542,0.585876
1470242926648952,-0.0340576,0.0860596,-0.804382,0.586853
1470242926666981,-0.0369873,0.088501,-0.802856,0.588379
1470242926686516,-0.0394287,0.0908203,-0.801025,0.590393
1470242926709008,-0.0406494,0.0927124,-0.798401,0.593567
1470242926734529,-0.0426025,0.0942993,-0.795166,0.597534
1470242926746539,-0.0424194,0.0950317,-0.791199,0.6026
1470242926769059,-0.0430908,0.0935059,-0.786987,0.608276
1470242926786589,-0.0425415,0.0908813,-0.782898,0.614014
1470242926806596,-0.0422974,0.0900269,-0.778076,0.620239
1470242926829113,-0.0415039,0.0862427,-0.773315,0.62677
1470242926846630,-0.0418701,0.0835571,-0.768372,0.633179
1470242926866648,-0.041748,0.0797119,-0.763611,0.639404
1470242926888667,-0.0418701,0.0750732,-0.759277,0.645081
1470242926906683,-0.0426025,0.0706177,-0.755005,0.650513
1470242926926769,-0.0427246,0.0673218,-0.750977,0.655457
1470242926949237,-0.0429077,0.0639038,-0.747131,0.660217
1470242926966738,-0.0430298,0.0599365,-0.743408,0.664795
1470242926986770,-0.0431519,0.0562134,-0.740051,0.668762
1470242927008800,-0.0431519,0.0522461,-0.737244,0.67218
1470242927026793,-0.0429077,0.0475464,-0.73468,0.675415
1470242927046308,-0.0437012,0.0424805,-0.732361,0.678223
1470242927068828,-0.0458374,0.0375977,-0.729797,0.681091
1470242927086845,-0.0471802,0.0327148,-0.727661,0.683533
1470242927106363,-0.0466309,0.0274048,-0.72583,0.68573
1470242927128902,-0.0454102,0.022522,-0.723938,0.687988
1470242927146926,-0.045166,0.0186157,-0.721863,0.690308
1470242927166429,-0.0458374,0.0150757,-0.719666,0.692627
1470242927188952,-0.0465698,0.0112915,-0.71759,0.694824
1470242927206972,-0.0470581,0.00671387,-0.715637,0.696838
1470242927226498,-0.0475464,0.00134277,-0.713928,0.698608
1470242927249009,-0.0478516,-0.00421143,-0.712219,0.700317
1470242927267006,-0.0480957,-0.00952148,-0.710388,0.702087
1470242927286523,-0.048645,-0.0146484,-0.708374,0.704041
1470242927309044,-0.0498657,-0.0198975,-0.706177,0.705994
1470242927327061,-0.0513916,-0.0255737,-0.703918,0.707947
1470242927346646,-0.0532227,-0.0311279,-0.701843,0.709656
1470242927371601,-0.0549316,-0.0366211,-0.69989,0.711243
1470242927386616,-0.0548706,-0.0413208,-0.699341,0.711487
1470242927406643,-0.0536499,-0.0424194,-0.699829,0.71106
1470242927429152,-0.0533447,-0.0409546,-0.700867,0.710144
1470242927451673,-0.0539551,-0.0383911,-0.701599,0.709473
1470242927466687,-0.0560303,-0.0355225,-0.701782,0.70929
1470242927489205,-0.0575562,-0.0338745,-0.701965,0.709106
1470242927506723,-0.057312,-0.0340576,-0.702209,0.708862
1470242927529242,-0.0560913,-0.03479,-0.702576,0.708557
1470242927549372,-0.0549927,-0.0354614,-0.70282,0.708374
1470242927566777,-0.0545654,-0.0353394,-0.702698,0.708496
1470242927586875,-0.0546875,-0.0349121,-0.702576,0.708679
1470242927608846,-0.0550537,-0.0342407,-0.702515,0.708679
1470242927626866,-0.0551758,-0.0336304,-0.702637,0.708618
1470242927649379,-0.0549927,-0.0330811,-0.702698,0.708618
1470242927669372,-0.0549927,-0.0322876,-0.70282,0.708496
1470242927686901,-0.0552979,-0.031311,-0.703186,0.70813
1470242927707907,-0.055481,-0.0298462,-0.703552,0.707825
1470242927728921,-0.055542,-0.0283813,-0.703796,0.707703
1470242927746938,-0.0552368,-0.0276489,-0.704041,0.707458
1470242927767956,-0.053894,-0.0276489,-0.704224,0.707397
1470242927788975,-0.0521851,-0.0285034,-0.704651,0.707092
1470242927806991,-0.0516357,-0.0288086,-0.704956,0.706787
1470242927828010,-0.0526733,-0.0280151,-0.705322,0.70636
1470242927849038,-0.0541382,-0.0269775,-0.705688,0.705933
1470242927867045,-0.0547485,-0.0262451,-0.706238,0.705322
1470242927887572,-0.053772,-0.0267944,-0.706787,0.704834
1470242927909082,-0.052002,-0.0279541,-0.707336,0.704468
1470242927927242,-0.0510864,-0.0285645,-0.707703,0.704102
1470242927955625,-0.0512085,-0.0283203,-0.707947,0.703796
1470242927968637,-0.0517578,-0.0281372,-0.708252,0.703491
1470242927986686,-0.0518799,-0.0280762,-0.708557,0.703186
1470242928007674,-0.0515137,-0.0283203,-0.708923,0.70282
1470242928029191,-0.0511475,-0.0286255,-0.709229,0.702515
1470242928046720,-0.0509644,-0.0286865,-0.709534,0.702271
1470242928069735,-0.0510254,-0.0286255,-0.709839,0.701965
1470242928088747,-0.0510254,-0.0286865,-0.710022,0.701721
1470242928106760,-0.0510254,-0.0286865,-0.710266,0.701538
1470242928129283,-0.0509033,-0.0288696,-0.71051,0.701294
1470242928148815,-0.0507202,-0.0289307,-0.710693,0.701111
1470242928166815,-0.0504761,-0.0289917,-0.710815,0.700928
1470242928189342,-0.0502319,-0.0292358,-0.71106,0.700745
1470242928208851,-0.0499878,-0.0292358,-0.711182,0.700623
1470242928226897,-0.0498047,-0.0292969,-0.711426,0.700439
1470242928249416,-0.0497437,-0.0292969,-0.711426,0.700439
1470242928268905,-0.0497437,-0.0292969,-0.711426,0.700439
1470242928286922,-0.0497437,-0.0292969,-0.711426,0.700439
1470242928309520,-0.0497437,-0.0292969,-0.711426,0.700439
1470242928328961,-0.0496216,-0.0292969,-0.711426,0.700378
1470242928347020,-0.0493164,-0.0294189,-0.711487,0.700317
1470242928369546,-0.0491333,-0.02948,-0.711548,0.700317
1470242928392016,-0.0491333,-0.0294189,-0.711548,0.700317
1470242928407029,-0.0490723,-0.0294189,-0.711548,0.700317
1470242928429550,-0.0490723,-0.0294189,-0.711548,0.700317
1470242928449127,-0.0490723,-0.0294189,-0.711548,0.700317
1470242928467084,-0.0490723,-0.0294189,-0.711548,0.700317
1470242928489606,-0.0490723,-0.0294189,-0.711548,0.700317
1470242928509126,-0.0490723,-0.0294189,-0.711548,0.700317
1470242928527248,-0.0490723,-0.0294189,-0.711548,0.700317
1470242928549219,-0.0490723,-0.0293579,-0.711548,0.700317
1470242928569175,-0.0490723,-0.0293579,-0.711548,0.700317
1470242928587239,-0.0490723,-0.0294189,-0.711548,0.700317
1470242928609737,-0.0490723,-0.0294189,-0.711548,0.700317
1470242928630254,-0.0490723,-0.0294189,-0.711548,0.700317
1470242928646745,-0.0490723,-0.0294189,-0.711548,0.700317
1470242928669768,-0.0490723,-0.0294189,-0.711548,0.700317
1470242928690301,-0.0490723,-0.0294189,-0.711548,0.700317
1470242928706801,-0.0490112,-0.0294189,-0.711548,0.700317
1470242928729418,-0.0491943,-0.029541,-0.711609,0.700256
1470242928750343,-0.0499268,-0.029541,-0.71167,0.700134
1470242928766853,-0.0513916,-0.0293579,-0.711792,0.69989
1470242928789374,-0.053833,-0.0288086,-0.711792,0.699707
1470242928810418,-0.0574951,-0.0275269,-0.71167,0.699646
1470242928832426,-0.0621338,-0.0254517,-0.711365,0.699646
1470242928848427,-0.0665894,-0.0227051,-0.711121,0.699524
1470242928869980,-0.0706787,-0.0194092,-0.710999,0.699402
1470242928891981,-0.0741577,-0.0154419,-0.71106,0.699036
1470242928908480,-0.0762939,-0.0098877,-0.711182,0.698792
1470242928930007,-0.0758667,-0.00311279,-0.711487,0.698608
1470242928952047,-0.0735474,0.00445557,-0.712036,0.698242
1470242928968536,-0.0702515,0.0132446,-0.713257,0.697266
1470242928997102,-0.0671997,0.0234375,-0.71521,0.695251
1470242929012102,-0.0645142,0.0346069,-0.71759,0.692566
1470242929036095,-0.0633545,0.0462036,-0.719666,0.68988
1470242929051109,-0.0614624,0.0576172,-0.721436,0.687317
1470242929072127,-0.0559692,0.067749,-0.723633,0.68457
1470242929088643,-0.0462646,0.0770874,-0.726624,0.681091
1470242929111177,-0.0349121,0.0876465,-0.729614,0.677307
1470242929132181,-0.0239868,0.100525,-0.732239,0.673157
1470242929148699,-0.0142822,0.11499,-0.73468,0.668457
1470242929171216,-0.00390625,0.1297,-0.737549,0.66272
1470242929192269,0.00817871,0.143738,-0.740906,0.656006
1470242929208749,0.0211182,0.157837,-0.744446,0.648438
1470242929231270,0.0336304,0.172729,-0.747803,0.640137
1470242929252289,0.0471802,0.187927,-0.750488,0.631836
1470242929268813,0.0600586,0.202637,-0.753357,0.622681
1470242929290823,0.0726318,0.217407,-0.756226,0.612854
1470242929313346,0.0856934,0.231323,-0.758728,0.602905
1470242929328686,0.0981445,0.244507,-0.761658,0.59198
1470242929351189,0.110352,0.257019,-0.764709,0.580505
1470242929372210,0.121826,0.268799,-0.768188,0.568176
1470242929388723,0.132568,0.279602,-0.771851,0.55542
1470242929411245,0.142944,0.288574,-0.775879,0.542542
1470242929432267,0.153198,0.296875,-0.779541,0.529785
1470242929448777,0.163025,0.305298,-0.782898,0.516968
1470242929470797,0.172668,0.313782,-0.786194,0.503601
1470242929492317,0.182068,0.321899,-0.789429,0.48999
1470242929508333,0.190979,0.329712,-0.792419,0.476318
1470242929530850,0.200012,0.337097,-0.795105,0.462708
1470242929552434,0.209412,0.344116,-0.797363,0.449341
1470242929568384,0.218567,0.350891,-0.799133,0.43634
1470242929590906,0.227234,0.357544,-0.800476,0.42395
1470242929613425,0.235657,0.363647,-0.801453,0.412231
1470242929627938,0.243408,0.368774,-0.802307,0.401306
1470242929650959,0.250061,0.373413,-0.803101,0.391235
1470242929671979,0.255371,0.377869,-0.803955,0.381653
1470242929688993,0.259155,0.382446,-0.804993,0.372314
1470242929711013,0.261047,0.386902,-0.806335,0.363281
1470242929732057,0.261353,0.391174,-0.807983,0.354736
1470242929748046,0.26062,0.394836,-0.809753,0.347107
1470242929771067,0.258789,0.397888,-0.811646,0.340454
1470242929792133,0.255249,0.401001,-0.813782,0.334351
1470242929807604,0.250122,0.404358,-0.816162,0.328308
1470242929831134,0.24408,0.407471,-0.818787,0.322449
1470242929852139,0.237976,0.408813,-0.821777,0.317688
1470242929874713,0.232239,0.409058,-0.824585,0.314392
1470242929891174,0.227112,0.409363,-0.826721,0.312073
1470242929913695,0.22229,0.40979,-0.828491,0.310242
1470242929934714,0.216675,0.410095,-0.830383,0.308655
1470242929951230,0.210754,0.409912,-0.832581,0.307129
1470242929973748,0.205566,0.408691,-0.834961,0.305908
1470242929987761,0.200867,0.406921,-0.837158,0.305359
1470242930024691,0.196167,0.405945,-0.838684,0.305542
1470242930033699,0.192017,0.405579,-0.839722,0.305725
1470242930056205,0.188721,0.404602,-0.841003,0.305664
1470242930071218,0.186523,0.402405,-0.84259,0.305481
1470242930093738,0.185059,0.400208,-0.843872,0.305664
1470242930116258,0.18396,0.39856,-0.844727,0.306152
1470242930131306,0.182739,0.3974,-0.845276,0.306824
1470242930153823,0.181641,0.396118,-0.845947,0.307434
1470242930167851,0.180847,0.394714,-0.846619,0.3078
1470242930190858,0.180359,0.39325,-0.847412,0.3078
1470242930213377,0.179871,0.391602,-0.848328,0.307617
1470242930227892,0.17926,0.390015,-0.849304,0.307312
1470242930250915,0.178528,0.388855,-0.85022,0.306763
1470242930273430,0.177551,0.387939,-0.851074,0.305969
1470242930287943,0.176453,0.387207,-0.852051,0.304871
1470242930310965,0.174622,0.386353,-0.85321,0.30365
1470242930333486,0.172058,0.38562,-0.854553,0.302429
1470242930355122,0.168762,0.385071,-0.855896,0.301208
1470242930371019,0.164856,0.384277,-0.857422,0.299927
1470242930393554,0.160095,0.38324,-0.859192,0.298889
1470242930414608,0.153931,0.381897,-0.861084,0.298279
1470242930431072,0.146301,0.380188,-0.863098,0.298401
1470242930453594,0.138123,0.378418,-0.865051,0.299011
1470242930474639,0.130737,0.376404,-0.867004,0.299316
1470242930491132,0.124634,0.373962,-0.869019,0.299072
1470242930513646,0.119507,0.370728,-0.871094,0.299194
1470242930534691,0.113953,0.366943,-0.873047,0.300232
1470242930551181,0.107544,0.362976,-0.875,0.301697
1470242930581216,0.100342,0.358887,-0.877075,0.303162
1470242930594735,0.0933838,0.35376,-0.879639,0.303955
1470242930611233,0.0870361,0.34729,-0.882751,0.30426
1470242930633753,0.0812988,0.340698,-0.885681,0.304688
1470242930654805,0.0756836,0.334839,-0.888062,0.305725
1470242930670301,0.0696411,0.330444,-0.889893,0.306702
1470242930693830,0.0645142,0.326233,-0.891663,0.30719
1470242930721833,0.06073,0.321289,-0.893738,0.307129
1470242930730845,0.0571899,0.316223,-0.895813,0.307007
1470242930753399,0.0527954,0.312683,-0.897339,0.307007
1470242930775882,0.0480957,0.310669,-0.898254,0.307129
1470242930790395,0.0443726,0.308228,-0.899414,0.306824
1470242930813415,0.0419922,0.304932,-0.90094,0.305969
1470242930835966,0.039917,0.301636,-0.902466,0.304993
1470242930850483,0.0374146,0.299377,-0.903625,0.304138
1470242930873470,0.0343018,0.298279,-0.904358,0.303345
1470242930895989,0.031189,0.297485,-0.905029,0.30249
1470242930910502,0.0287476,0.296387,-0.905823,0.301453
1470242930933525,0.0265503,0.295105,-0.906616,0.300598
1470242930956045,0.024353,0.294128,-0.907104,0.300049
1470242930970558,0.0222168,0.293213,-0.907593,0.299805
1470242930993579,0.0209961,0.292053,-0.907959,0.299927
1470242931016098,0.0206909,0.290833,-0.908203,0.300354
1470242931030610,0.0206299,0.290161,-0.908081,0.30127
1470242931053633,0.0201416,0.290222,-0.907715,0.302368
1470242931076165,0.0195313,0.290649,-0.907227,0.303406
1470242931090164,0.0189209,0.290344,-0.907166,0.304077
1470242931113689,0.0184326,0.288757,-0.907471,0.304565
1470242931136205,0.017395,0.286804,-0.907959,0.305115
1470242931164762,0.0158691,0.285461,-0.908142,0.305786
1470242931173738,0.0141602,0.284058,-0.908447,0.306396
1470242931196259,0.0126953,0.281677,-0.909119,0.306702
1470242931218801,0.012207,0.278259,-0.910095,0.306824
1470242931233293,0.0120239,0.275818,-0.910828,0.306946
1470242931255812,0.0109253,0.274658,-0.911133,0.307129
1470242931270326,0.00872803,0.27417,-0.911316,0.307007
1470242931293347,0.00622559,0.27301,-0.911804,0.306763
1470242931315868,0.00457764,0.270264,-0.912842,0.30603
1470242931337404,0.003479,0.26593,-0.914368,0.305298
1470242931353900,0.00134277,0.261475,-0.915894,0.304626
1470242931375930,-0.00109863,0.257141,-0.917175,0.304504
1470242931396984,-0.00366211,0.251648,-0.918518,0.304932
1470242931413499,-0.00616455,0.246033,-0.919739,0.305725
1470242931436514,-0.00799561,0.239868,-0.921204,0.306335
1470242931457033,-0.00927734,0.232544,-0.922852,0.306885
1470242931473548,-0.0105591,0.22345,-0.924866,0.307678
1470242931496073,-0.0114746,0.213623,-0.926819,0.308716
1470242931517115,-0.012085,0.203796,-0.92865,0.309875
1470242931533602,-0.0130005,0.194519,-0.930054,0.311523
1470242931556121,-0.0133667,0.185974,-0.930969,0.313965
1470242931577159,-0.0141602,0.178223,-0.93158,0.316589
1470242931593657,-0.0147095,0.170654,-0.932068,0.319214
1470242931616194,-0.0151978,0.163574,-0.932434,0.321899
1470242931637197,-0.015686,0.157227,-0.932556,0.324707
1470242931652710,-0.0161133,0.151611,-0.932556,0.327332
1470242931676230,-0.0164795,0.14679,-0.932434,0.329773
1470242931697248,-0.0166016,0.143127,-0.932251,0.33197
1470242931721270,-0.0168457,0.140625,-0.932007,0.333618
1470242931736283,-0.0170288,0.139282,-0.931885,0.334534
1470242931757302,-0.0170898,0.139343,-0.931824,0.334717
1470242931772818,-0.0169067,0.140869,-0.931763,0.334229
1470242931796338,-0.0165405,0.144348,-0.93158,0.333191
1470242931816856,-0.0161743,0.149658,-0.931396,0.331421
1470242931832870,-0.015564,0.155884,-0.931335,0.328796
1470242931855892,-0.0145874,0.162781,-0.931335,0.325439
1470242931878411,-0.0131226,0.170532,-0.931213,0.321899
1470242931892925,-0.0117798,0.178406,-0.93103,0.318237
1470242931915945,-0.0106201,0.185974,-0.930908,0.31427
1470242931938966,-0.00952148,0.193176,-0.930786,0.310242
1470242931959484,-0.00738525,0.197205,-0.931152,0.306702
1470242931975999,-0.00219727,0.192566,-0.932129,0.306763
1470242931998519,-0.00305176,0.185303,-0.934082,0.305298
1470242932020064,-0.00744629,0.185608,-0.934265,0.304382
1470242932036053,-0.0108032,0.192932,-0.932617,0.304749
1470242932058577,-0.0129395,0.197327,-0.93158,0.304993
1470242932079605,-0.012146,0.196838,-0.931824,0.304626
1470242932096106,-0.0110474,0.195374,-0.932434,0.303772
1470242932118646,-0.010437,0.194153,-0.9328,0.303528
1470242932139648,-0.00933838,0.193298,-0.932983,0.303467
1470242932163667,-0.00915527,0.193298,-0.932983,0.303467
1470242932178681,-0.00939941,0.193848,-0.9328,0.303772
1470242932192693,-0.0098877,0.19458,-0.932617,0.303772
1470242932216228,-0.010498,0.194946,-0.932556,0.303711
1470242932238735,-0.0105591,0.194946,-0.932556,0.303711
1470242932252749,-0.0103149,0.194702,-0.932617,0.303711
1470242932283820,-0.00994873,0.194153,-0.932739,0.303711
1470242932298790,-0.0098877,0.194092,-0.932739,0.303711
1470242932312801,-0.0101929,0.19458,-0.932617,0.303711
1470242932335823,-0.0107422,0.195435,-0.932434,0.303711
1470242932365848,-0.0110474,0.195862,-0.932373,0.303711
1470242932379900,-0.0108643,0.195679,-0.932434,0.303711
1470242932396377,-0.0106201,0.195251,-0.932495,0.303711
1470242932418402,-0.0106201,0.195251,-0.932495,0.303711
1470242932439948,-0.0106201,0.195313,-0.932495,0.303711
1470242932455934,-0.0106201,0.195313,-0.932495,0.303711
1470242932478457,-0.0106201,0.195251,-0.932495,0.303711
1470242932499970,-0.0106201,0.195251,-0.932495,0.303711
1470242932515983,-0.0106201,0.195251,-0.932495,0.303711
1470242932538503,-0.0106201,0.195251,-0.932495,0.303711
1470242932559544,-0.0105591,0.195251,-0.932495,0.303711
1470242932576038,-0.0105591,0.195251,-0.932495,0.303711
1470242932598575,-0.0105591,0.195313,-0.932495,0.303711
1470242932619642,-0.0105591,0.195251,-0.932495,0.303711
1470242932636108,-0.0105591,0.195251,-0.932495,0.303711
1470242932658621,-0.0105591,0.195251,-0.932495,0.303711
1470242932679670,-0.0105591,0.195251,-0.932495,0.303711
1470242932696145,-0.0105591,0.195251,-0.932495,0.303711
1470242932718666,-0.0105591,0.195251,-0.932495,0.303711
1470242932747191,-0.0105591,0.195251,-0.932495,0.303711
1470242932756200,-0.0105591,0.195251,-0.932495,0.303711
1470242932778719,-0.0105591,0.195251,-0.932495,0.303711
1470242932801239,-0.0105591,0.195251,-0.932495,0.303711
1470242932815752,-0.0105591,0.195251,-0.932495,0.303711
1470242932838773,-0.0105591,0.195313,-0.932495,0.303711
1470242932860794,-0.0107422,0.195557,-0.932434,0.303711
1470242932883827,-0.0107422,0.195618,-0.932434,0.303711
1470242932898833,-0.0108032,0.195618,-0.932434,0.30365
1470242932920849,-0.0108032,0.195557,-0.932434,0.30365
1470242932935360,-0.0107422,0.195557,-0.932434,0.303711
1470242932958881,-0.0107422,0.195496,-0.932434,0.303711
1470242932980902,-0.0107422,0.195496,-0.932434,0.303711
1470242932995414,-0.0107422,0.195557,-0.932434,0.303711
1470242933018437,-0.0107422,0.195557,-0.932434,0.303711
1470242933040956,-0.0107422,0.195557,-0.932434,0.303711
1470242933055468,-0.0107422,0.195557,-0.932434,0.303711
1470242933078488,-0.0107422,0.195496,-0.932434,0.303711
1470242933101509,-0.0107422,0.195557,-0.932434,0.303711
1470242933115522,-0.0107422,0.195557,-0.932434,0.303711
1470242933138543,-0.0107422,0.195557,-0.932434,0.303711
1470242933161063,-0.0108032,0.195557,-0.932434,0.30365
1470242933175575,-0.0108032,0.195557,-0.932434,0.30365
1470242933198598,-0.0108032,0.195557,-0.932434,0.30365
1470242933221126,-0.0108032,0.195557,-0.932434,0.30365
1470242933242171,-0.0108032,0.195557,-0.932434,0.30365
1470242933258670,-0.0108032,0.195557,-0.932434,0.30365
1470242933281192,-0.0108032,0.195557,-0.932434,0.30365
1470242933302272,-0.0108032,0.195557,-0.932434,0.30365
1470242933318704,-0.0108032,0.195557,-0.932434,0.30365
1470242933341224,-0.0108032,0.195557,-0.932434,0.30365
1470242933362326,-0.0108643,0.195618,-0.932434,0.30365
1470242933393772,-0.0108643,0.195557,-0.932434,0.30365
1470242933401279,-0.0108032,0.195313,-0.932495,0.303711
1470242933422297,-0.0107422,0.195313,-0.932495,0.303711
1470242933438813,-0.0108032,0.195313,-0.932495,0.303711
1470242933460848,-0.0108032,0.195313,-0.932495,0.303711
1470242933482394,-0.0108032,0.195313,-0.932495,0.303711
1470242933498866,-0.0106812,0.195129,-0.932556,0.303711
1470242933520890,-0.0106812,0.195129,-0.932556,0.303711
1470242933541939,-0.0106812,0.195129,-0.932556,0.303711
1470242933558920,-0.0106812,0.195129,-0.932556,0.303711
1470242933580963,-0.0106812,0.195129,-0.932495,0.303711
1470242933602459,-0.0105591,0.194946,-0.932556,0.303711
1470242933618486,-0.0105591,0.194946,-0.932556,0.303711
1470242933640994,-0.0105591,0.194946,-0.932556,0.303711
1470242933662513,-0.0106201,0.194946,-0.932556,0.303711
1470242933678533,-0.0105591,0.194763,-0.932556,0.303833
1470242933701083,-0.0105591,0.194763,-0.932556,0.303833
1470242933723568,-0.0105591,0.194763,-0.932556,0.303833
1470242933738581,-0.010498,0.194763,-0.932556,0.303833
1470242933761116,-0.010498,0.194763,-0.932556,0.303833
1470242933783622,-0.0105591,0.194763,-0.932556,0.303833
1470242933798635,-0.0105591,0.194763,-0.932556,0.303833
1470242933821156,-0.0105591,0.194763,-0.932556,0.303833
1470242933843677,-0.0105591,0.194702,-0.932556,0.303833
1470242933858690,-0.0105591,0.194763,-0.932556,0.303833
1470242933881209,-0.0105591,0.194763,-0.932556,0.303833
1470242933903729,-0.0105591,0.194763,-0.932556,0.303833
1470242933917742,-0.0105591,0.194763,-0.932556,0.303833
1470242933941268,-0.0105591,0.194763,-0.932556,0.303833
1470242933963799,-0.0105591,0.194763,-0.932556,0.303833
1470242933977796,-0.0106201,0.194946,-0.932495,0.303833
1470242933985305,-0.0106201,0.195007,-0.932495,0.303833
1470242934006355,-0.0106201,0.195007,-0.932495,0.303833
1470242934030345,-0.0106201,0.195007,-0.932495,0.303833
1470242934052863,-0.0106201,0.194946,-0.932495,0.303833
1470242934066381,-0.0106201,0.194946,-0.932556,0.303833
1470242934088898,-0.0106201,0.194946,-0.932495,0.303833
1470242934106914,-0.0106201,0.194946,-0.932495,0.303833
1470242934126446,-0.0106201,0.194946,-0.932495,0.303833
1470242934148952,-0.0106201,0.195007,-0.932495,0.303833
1470242934165465,-0.0106201,0.195007,-0.932495,0.303833
1470242934186528,-0.0106201,0.194946,-0.932495,0.303833
1470242934209023,-0.0106201,0.194946,-0.932495,0.303833
1470242934225519,-0.0106201,0.194946,-0.932495,0.303833
1470242934246537,-0.0106201,0.194946,-0.932495,0.303833
1470242934269058,-0.0106201,0.195007,-0.932495,0.303833
1470242934285585,-0.0106201,0.195007,-0.932495,0.303833
1470242934306595,-0.0106201,0.195007,-0.932495,0.303833
1470242934329112,-0.0106201,0.195007,-0.932495,0.303833
1470242934345626,-0.0106201,0.195007,-0.932495,0.303833
1470242934366644,-0.0106201,0.195007,-0.932495,0.303833
1470242934389169,-0.0106201,0.195007,-0.932495,0.303833
1470242934405188,-0.0106812,0.195007,-0.932495,0.303833
1470242934426784,-0.0106201,0.195007,-0.932495,0.303833
1470242934449219,-0.0106812,0.195007,-0.932495,0.303772
1470242934465234,-0.0106812,0.195007,-0.932495,0.303772
1470242934486754,-0.0106812,0.195007,-0.932495,0.303772
1470242934509273,-0.0106812,0.195007,-0.932495,0.303772
1470242934525288,-0.0106812,0.195007,-0.932495,0.303772
1470242934549309,-0.0106812,0.195007,-0.932495,0.303772
1470242934568828,-0.0106812,0.195007,-0.932495,0.303772
1470242934585343,-0.0106812,0.195007,-0.932495,0.303772
1470242934606381,-0.0106812,0.195007,-0.932495,0.303772
1470242934628923,-0.0106812,0.195007,-0.932495,0.303772
1470242934646897,-0.0107422,0.195007,-0.932495,0.303772
1470242934666415,-0.0107422,0.195007,-0.932495,0.303772
1470242934689436,-0.0107422,0.195007,-0.932495,0.303772
1470242934706951,-0.0107422,0.195007,-0.932495,0.303772
1470242934726496,-0.0107422,0.195007,-0.932495,0.303772
1470242934748991,-0.0107422,0.195068,-0.932495,0.303772
1470242934767007,-0.0108032,0.195068,-0.932495,0.303772
1470242934786547,-0.0108032,0.195068,-0.932495,0.303772
1470242934809066,-0.0108032,0.195068,-0.932495,0.303772
1470242934827095,-0.0108032,0.195068,-0.932495,0.303772
1470242934846602,-0.0108032,0.195068,-0.932495,0.303772
1470242934869096,-0.0108032,0.195068,-0.932495,0.303772
1470242934887149,-0.0108032,0.195068,-0.932495,0.303772
1470242934906632,-0.0108032,0.195068,-0.932495,0.303772
1470242934929185,-0.0108032,0.195068,-0.932495,0.303772
1470242934947166,-0.0108643,0.195068,-0.932495,0.303772
1470242934966698,-0.0108643,0.195068,-0.932495,0.303772
1470242934989205,-0.0108643,0.195068,-0.932495,0.303772
1470242935007332,-0.0108643,0.195068,-0.932495,0.303772
1470242935026823,-0.0108643,0.195068,-0.932495,0.303772
1470242935052340,-0.0108643,0.195068,-0.932495,0.303772
1470242935067274,-0.0108643,0.195068,-0.932495,0.303772
1470242935086340,-0.0108643,0.195068,-0.932495,0.303772
1470242935109338,-0.0108643,0.195068,-0.932495,0.303772
1470242935126859,-0.0108643,0.195068,-0.932495,0.303772
1470242935146846,-0.0108643,0.195068,-0.932495,0.303772
1470242935169435,-0.0108643,0.195068,-0.932495,0.303772
1470242935186882,-0.0109253,0.195068,-0.932495,0.303772
1470242935206401,-0.0109253,0.195068,-0.932495,0.303772
1470242935228934,-0.0109253,0.195068,-0.932495,0.303772
1470242935247032,-0.0109253,0.195068,-0.932495,0.303772
1470242935267954,-0.0109253,0.195068,-0.932495,0.303772
1470242935288973,-0.0109253,0.195068,-0.932495,0.303772
1470242935306995,-0.0109253,0.195068,-0.932495,0.303772
1470242935328008,-0.0109253,0.195068,-0.932495,0.303772
1470242935349027,-0.0109253,0.195129,-0.932495,0.303772
1470242935367124,-0.0108643,0.195129,-0.932495,0.303772
1470242935388106,-0.0109253,0.195129,-0.932495,0.303772
1470242935409107,-0.0109253,0.195129,-0.932495,0.303772
1470242935427098,-0.0109253,0.195068,-0.932495,0.303772
1470242935448115,-0.0110474,0.195251,-0.932495,0.303772
1470242935469168,-0.0110474,0.195313,-0.932434,0.303772
1470242935494658,-0.0110474,0.195251,-0.932495,0.303772
1470242935507680,-0.0109253,0.195068,-0.932495,0.303833
1470242935529274,-0.0108643,0.195068,-0.932495,0.303833
1470242935546705,-0.0108643,0.195068,-0.932495,0.303833
1470242935568225,-0.0108643,0.195068,-0.932495,0.303833
1470242935589243,-0.0108643,0.194946,-0.932495,0.303833
1470242935606759,-0.0106812,0.194702,-0.932556,0.303833
1470242935629798,-0.0106812,0.194702,-0.932556,0.303894
1470242935656804,-0.0108032,0.194946,-0.932495,0.303833
1470242935666862,-0.0108032,0.194946,-0.932495,0.303833
1470242935689384,-0.0108032,0.194946,-0.932495,0.303833
1470242935708902,-0.0108032,0.194946,-0.932495,0.303833
1470242935726935,-0.0108032,0.194885,-0.932556,0.303833
1470242935749437,-0.0109253,0.19519,-0.932434,0.303833
1470242935768955,-0.0109253,0.19519,-0.932434,0.303833
1470242935786986,-0.0109253,0.19519,-0.932434,0.303833
1470242935809524,-0.0109253,0.19519,-0.932434,0.303833
1470242935829041,-0.0109253,0.19519,-0.932434,0.303833
1470242935847050,-0.0109253,0.19519,-0.932434,0.303833
1470242935869599,-0.0109253,0.195129,-0.932495,0.303833
1470242935889096,-0.0109253,0.195129,-0.932434,0.303833
1470242935907078,-0.0108643,0.195129,-0.932495,0.303894
1470242935937128,-0.0109253,0.195129,-0.932495,0.303894
1470242935949116,-0.0109253,0.195129,-0.932495,0.303833
1470242935974639,-0.0109253,0.195129,-0.932495,0.303894
1470242935989652,-0.0108643,0.195068,-0.932495,0.303894
1470242936009170,-0.0109253,0.195068,-0.932495,0.303894
1470242936027186,-0.0109253,0.195068,-0.932495,0.303894
1470242936049726,-0.0109253,0.195068,-0.932495,0.303833
1470242936069244,-0.0109253,0.195068,-0.932495,0.303833
1470242936087338,-0.0109253,0.195068,-0.932495,0.303833
1470242936109261,-0.0109253,0.195068,-0.932495,0.303894
1470242936129278,-0.0109253,0.195068,-0.932495,0.303894
1470242936147324,-0.0109253,0.195068,-0.932495,0.303894
1470242936169845,-0.0109253,0.195068,-0.932495,0.303894
1470242936189332,-0.0109253,0.195068,-0.932495,0.303894
1470242936206847,-0.0109253,0.195068,-0.932495,0.303894
1470242936229416,-0.0108643,0.195068,-0.932495,0.303894
1470242936250389,-0.0109253,0.195007,-0.932495,0.303894
1470242936274436,-0.0108643,0.195007,-0.932495,0.303894
1470242936289422,-0.0108643,0.195007,-0.932495,0.303894
1470242936310470,-0.0108643,0.195007,-0.932495,0.303894
1470242936326965,-0.0108643,0.195007,-0.932495,0.303894
1470242936349491,-0.0108643,0.195007,-0.932495,0.303894
1470242936370512,-0.0108643,0.195007,-0.932495,0.303894
1470242936387040,-0.0108643,0.195007,-0.932495,0.303894
1470242936409529,-0.0108643,0.195007,-0.932495,0.303894
1470242936430556,-0.0108643,0.195007,-0.932495,0.303894
1470242936447092,-0.0108643,0.195007,-0.932495,0.303894
1470242936469583,-0.0106812,0.194824,-0.932556,0.303894
1470242936489608,-0.0106812,0.194763,-0.932556,0.303894
1470242936505616,-0.0106812,0.194763,-0.932556,0.303894
1470242936528636,-0.0106812,0.194763,-0.932556,0.303894
1470242936551156,-0.0106812,0.194763,-0.932556,0.303894
1470242936565670,-0.0106812,0.194763,-0.932556,0.303894
1470242936589192,-0.0106812,0.194763,-0.932556,0.303894
1470242936611211,-0.0106812,0.194763,-0.932556,0.303894
1470242936625723,-0.0106812,0.194702,-0.932556,0.303894
1470242936648744,-0.0106812,0.194702,-0.932556,0.303894
1470242936671265,-0.0106812,0.194702,-0.932556,0.303894
1470242936686278,-0.0106812,0.194702,-0.932556,0.303894
1470242936716306,-0.0106812,0.194702,-0.932556,0.303894
1470242936731318,-0.0106812,0.194702,-0.932556,0.303894
1470242936745337,-0.0106201,0.194641,-0.932556,0.303894
1470242936768852,-0.0106201,0.194641,-0.932556,0.303894
1470242936791373,-0.0106201,0.194641,-0.932556,0.303894
1470242936805385,-0.0106201,0.194641,-0.932556,0.303894
1470242936828906,-0.0106201,0.194641,-0.932556,0.303894
1470242936851426,-0.0106201,0.19458,-0.932556,0.303894
1470242936865438,-0.0106201,0.19458,-0.932556,0.303894
1470242936888468,-0.0106201,0.194641,-0.932556,0.303955
1470242936910980,-0.0106201,0.19458,-0.932556,0.303955
1470242936925492,-0.0106201,0.19458,-0.932556,0.303955
1470242936948513,-0.0106201,0.19458,-0.932556,0.303955
1470242936971033,-0.0106201,0.19458,-0.932556,0.303955
1470242936985546,-0.0106201,0.19458,-0.932556,0.303955
1470242937008569,-0.0106201,0.19458,-0.932556,0.303955
1470242937031094,-0.0105591,0.194519,-0.932556,0.303955
1470242937045603,-0.0105591,0.194519,-0.932556,0.303955
1470242937068621,-0.0105591,0.194519,-0.932556,0.303955
1470242937091144,-0.0105591,0.194519,-0.932556,0.303955
1470242937112186,-0.0105591,0.194519,-0.932556,0.303955
1470242937128675,-0.0105591,0.194519,-0.932556,0.303955
1470242937158702,-0.0105591,0.194519,-0.932556,0.303955
1470242937172216,-0.0105591,0.194519,-0.932556,0.303955
1470242937189230,-0.010498,0.194458,-0.932556,0.303955
1470242937211251,-0.010498,0.194458,-0.932556,0.303955
1470242937232336,-0.010498,0.194458,-0.932556,0.303955
1470242937248819,-0.010498,0.194458,-0.932556,0.303955
1470242937278809,-0.010498,0.194458,-0.932556,0.303955
1470242937292322,-0.010498,0.194397,-0.932617,0.303955
1470242937308836,-0.010498,0.194397,-0.932617,0.303955
1470242937331391,-0.010498,0.194397,-0.932617,0.303955
1470242937352376,-0.010498,0.194397,-0.932617,0.303955
1470242937368890,-0.010437,0.194397,-0.932617,0.303955
1470242937391411,-0.010437,0.194397,-0.932617,0.303955
1470242937412430,-0.010437,0.194397,-0.932617,0.303955
1470242937428444,-0.010437,0.194336,-0.932617,0.303955
1470242937450974,-0.010376,0.194336,-0.932617,0.303955
1470242937472985,-0.010376,0.194336,-0.932617,0.303955
1470242937489000,-0.010376,0.194336,-0.932617,0.303955
1470242937511018,-0.010376,0.194336,-0.932617,0.303955
1470242937533538,-0.010376,0.194336,-0.932617,0.304016
1470242937548552,-0.010376,0.194336,-0.932617,0.304016
1470242937571078,-0.010376,0.194275,-0.932617,0.304016
1470242937593592,-0.010376,0.194275,-0.932617,0.304016
1470242937608606,-0.010376,0.194275,-0.932617,0.304016
1470242937631126,-0.010376,0.194275,-0.932617,0.304016
1470242937653662,-0.0103149,0.194275,-0.932617,0.304016
1470242937668159,-0.0103149,0.194275,-0.932617,0.304016
1470242937691180,-0.0103149,0.194275,-0.932617,0.304016
1470242937713700,-0.0103149,0.194214,-0.932617,0.304016
1470242937728213,-0.0103149,0.194214,-0.932617,0.304016
1470242937751250,-0.0103149,0.194214,-0.932617,0.304016
1470242937773755,-0.0102539,0.194214,-0.932617,0.304016
1470242937788290,-0.0102539,0.194214,-0.932617,0.304016
1470242937811303,-0.0102539,0.194214,-0.932617,0.304016
1470242937833810,-0.0102539,0.194153,-0.932617,0.304016
1470242937847822,-0.0102539,0.194153,-0.932617,0.304016
1470242937878903,-0.0102539,0.194153,-0.932617,0.304016
1470242937893862,-0.0102539,0.194153,-0.932617,0.304016
1470242937915882,-0.0102539,0.194153,-0.932617,0.304016
1470242937931896,-0.0102539,0.194153,-0.932617,0.304016
1470242937953440,-0.0101929,0.194153,-0.932617,0.304016
1470242937967933,-0.0101929,0.194153,-0.932617,0.304016
1470242937990951,-0.0101929,0.194153,-0.932617,0.304016
1470242938013470,-0.0101929,0.194153,-0.932617,0.304016
1470242938034531,-0.0101929,0.194153,-0.932617,0.304016
1470242938051005,-0.0101929,0.194153,-0.932617,0.304016
1470242938073524,-0.0101929,0.194153,-0.932617,0.304016
1470242938095086,-0.0101929,0.194092,-0.932617,0.304016
1470242938111059,-0.0101929,0.194092,-0.932617,0.304016
1470242938133578,-0.0101929,0.194092,-0.932617,0.304016
1470242938154596,-0.0101318,0.194092,-0.932617,0.304016
1470242938171132,-0.0101318,0.194092,-0.932617,0.304016
1470242938193631,-0.0101318,0.194092,-0.932617,0.304016
1470242938214678,-0.0101318,0.194092,-0.932617,0.304016
1470242938231169,-0.0101318,0.194092,-0.932617,0.304016
1470242938253711,-0.0101318,0.194092,-0.932617,0.304016
1470242938274746,-0.0101318,0.194092,-0.932617,0.304077
1470242938298737,-0.0101318,0.194092,-0.932617,0.304077
1470242938313739,-0.0101318,0.194031,-0.932617,0.304077
1470242938334775,-0.0101318,0.194031,-0.932617,0.304077
1470242938351275,-0.0100708,0.194031,-0.932617,0.304077
1470242938373794,-0.0100708,0.194031,-0.932617,0.304077
1470242938394869,-0.0100708,0.194031,-0.932678,0.304077
1470242938411326,-0.0100708,0.194031,-0.932678,0.304077
1470242938433847,-0.0100708,0.19397,-0.932678,0.304077
1470242938461889,-0.0100708,0.19397,-0.932678,0.304077
1470242938472882,-0.0100708,0.194031,-0.932678,0.304077
1470242938493901,-0.0100708,0.194031,-0.932678,0.304077
1470242938515920,-0.0100708,0.194031,-0.932678,0.304077
1470242938530934,-0.0100708,0.19397,-0.932678,0.304077
1470242938553955,-0.0100098,0.19397,-0.932678,0.304077
1470242938575974,-0.0100098,0.19397,-0.932678,0.304077
1470242938590488,-0.0100098,0.19397,-0.932678,0.304077
1470242938613508,-0.0100098,0.19397,-0.932678,0.304077
1470242938636030,-0.0100098,0.19397,-0.932678,0.304077
1470242938658561,-0.0100098,0.19397,-0.932678,0.304077
1470242938673563,-0.0100098,0.193909,-0.932678,0.304077
1470242938696106,-0.0100098,0.193909,-0.932678,0.304077
1470242938710597,-0.0100098,0.19397,-0.932678,0.304077
1470242938733616,-0.0100098,0.19397,-0.932678,0.304077
1470242938756137,-0.0100098,0.193909,-0.932678,0.304077
1470242938770649,-0.0100098,0.193909,-0.932678,0.304077
1470242938793672,-0.0100098,0.193909,-0.932678,0.304077
1470242938816190,-0.0100098,0.193909,-0.932678,0.304077
1470242938830703,-0.0100098,0.193909,-0.932678,0.304077
1470242938853726,-0.0100098,0.193909,-0.932678,0.304077
1470242938876247,-0.0100098,0.193909,-0.932678,0.304077
1470242938890757,-0.00994873,0.193909,-0.932678,0.304077
1470242938913791,-0.00994873,0.193909,-0.932678,0.304077
1470242938936298,-0.00994873,0.193909,-0.932678,0.304077
1470242938950310,-0.00994873,0.193909,-0.932678,0.304077
1470242938973832,-0.00994873,0.193909,-0.932678,0.304077
1470242938996353,-0.00994873,0.193909,-0.932678,0.304077
1470242939017371,-0.00994873,0.193909,-0.932678,0.304077
1470242939033886,-0.0098877,0.193909,-0.932678,0.304077
1470242939056406,-0.0098877,0.193909,-0.932678,0.304077
1470242939077497,-0.00994873,0.193909,-0.932678,0.304077
1470242939093439,-0.00994873,0.193909,-0.932678,0.304077
1470242939115961,-0.00994873,0.193909,-0.932678,0.304077
1470242939137569,-0.00994873,0.193848,-0.932678,0.304077
1470242939153493,-0.00994873,0.193848,-0.932678,0.304077
1470242939176051,-0.0098877,0.193848,-0.932678,0.304077
1470242939197086,-0.0098877,0.193848,-0.932678,0.304077
1470242939213547,-0.0098877,0.193848,-0.932678,0.304077
1470242939236078,-0.0098877,0.193848,-0.932678,0.304077
1470242939257086,-0.0098877,0.193848,-0.932678,0.304077
1470242939273600,-0.0098877,0.193848,-0.932678,0.304077
1470242939303668,-0.0098877,0.193909,-0.932678,0.304077
1470242939317707,-0.0098877,0.193909,-0.932678,0.304077
1470242939333657,-0.0098877,0.193909,-0.932678,0.304077
1470242939356176,-0.0098877,0.193909,-0.932678,0.304077
1470242939377273,-0.0098877,0.193909,-0.932678,0.304077
1470242939393709,-0.0098877,0.193909,-0.932678,0.304077
1470242939416284,-0.0098877,0.193909,-0.932678,0.304077
1470242939438777,-0.0098877,0.193909,-0.932678,0.304077
1470242939453763,-0.0098877,0.193909,-0.932678,0.304077
1470242939476326,-0.0098877,0.193909,-0.932678,0.304077
1470242939498820,-0.0098877,0.193909,-0.932678,0.304077
1470242939513818,-0.0098877,0.193909,-0.932678,0.304077
1470242939543871,-0.0098877,0.193909,-0.932678,0.304077
1470242939558856,-0.0098877,0.193909,-0.932678,0.304077
1470242939572871,-0.0098877,0.193909,-0.932678,0.304077
1470242939595907,-0.0098877,0.193909,-0.932678,0.304077
1470242939618410,-0.0098877,0.193909,-0.932678,0.304077
1470242939632926,-0.0098877,0.193909,-0.932678,0.304077
1470242939656445,-0.0098877,0.193909,-0.932678,0.304077
1470242939678464,-0.0098877,0.193909,-0.932678,0.304077
1470242939692979,-0.00982666,0.193726,-0.932678,0.304138
1470242939716000,-0.00982666,0.193726,-0.932678,0.304138
1470242939739019,-0.00976563,0.193726,-0.932678,0.304138
1470242939753056,-0.00976563,0.193726,-0.932678,0.304138
1470242939776079,-0.00982666,0.193726,-0.932678,0.304138
1470242939798620,-0.00982666,0.193726,-0.932678,0.304138
1470242939813103,-0.00976563,0.193726,-0.932678,0.304138
1470242939836116,-0.00976563,0.193726,-0.932678,0.304138
1470242939859127,-0.00976563,0.193665,-0.932678,0.304138
1470242939873140,-0.00976563,0.193726,-0.932678,0.304138
1470242939896160,-0.00976563,0.193665,-0.932678,0.304138
1470242939918727,-0.00976563,0.193665,-0.932678,0.304138
1470242939939702,-0.00976563,0.193665,-0.932678,0.304138
1470242939956214,-0.00976563,0.193665,-0.932678,0.304138
1470242939978734,-0.00976563,0.193665,-0.932678,0.304138
1470242939999797,-0.00976563,0.193665,-0.932678,0.304138
1470242940016268,-0.00976563,0.193665,-0.932678,0.304138
1470242940038790,-0.00970459,0.193665,-0.932678,0.304138
1470242940059806,-0.00970459,0.193665,-0.932678,0.304138
1470242940076325,-0.00976563,0.193604,-0.932739,0.304138
1470242940098842,-0.00976563,0.193604,-0.932739,0.304138
1470242940119860,-0.00970459,0.193604,-0.932739,0.304138
1470242940136375,-0.00970459,0.193604,-0.932739,0.304138
1470242940158896,-0.00970459,0.193604,-0.932739,0.304138
1470242940179916,-0.00970459,0.193604,-0.932739,0.304138
1470242940196432,-0.00970459,0.193604,-0.932739,0.304138
1470242940218950,-0.00970459,0.193604,-0.932739,0.304138
1470242940239968,-0.00970459,0.193542,-0.932739,0.304138
1470242940255983,-0.00970459,0.193542,-0.932739,0.304138
1470242940278504,-0.00970459,0.193542,-0.932739,0.304138
1470242940300022,-0.00964355,0.193542,-0.932739,0.304138
1470242940323544,-0.00964355,0.193542,-0.932739,0.304138
1470242940338557,-0.00964355,0.193542,-0.932739,0.304138
1470242940360078,-0.00970459,0.193542,-0.932739,0.304138
1470242940376090,-0.00964355,0.193542,-0.932739,0.304138
1470242940398612,-0.00964355,0.193542,-0.932739,0.304138
1470242940421131,-0.00964355,0.193542,-0.932739,0.304138
1470242940436144,-0.00964355,0.193542,-0.932739,0.304138
1470242940458665,-0.00964355,0.193542,-0.932739,0.304138
1470242940488694,-0.00964355,0.193542,-0.932739,0.304138
1470242940496219,-0.00964355,0.193542,-0.932739,0.304138
1470242940518719,-0.00964355,0.193542,-0.932739,0.304138
1470242940541240,-0.00964355,0.193542,-0.932739,0.304138
1470242940555752,-0.00964355,0.193542,-0.932739,0.304138
1470242940578772,-0.00964355,0.193542,-0.932739,0.304138
1470242940601295,-0.00958252,0.193542,-0.932739,0.304138
1470242940615305,-0.00958252,0.193542,-0.932739,0.304138
1470242940638829,-0.00958252,0.193542,-0.932739,0.304138
1470242940661347,-0.00958252,0.193542,-0.932739,0.304138
1470242940675860,-0.00958252,0.193481,-0.932739,0.304138
1470242940698882,-0.00958252,0.193481,-0.932739,0.304138
1470242940720924,-0.00958252,0.193481,-0.932739,0.304138
1470242940735413,-0.00958252,0.193481,-0.932739,0.304138
1470242940758935,-0.00958252,0.193481,-0.932739,0.304138
1470242940780954,-0.00952148,0.193481,-0.932739,0.304199
1470242940795469,-0.00952148,0.193481,-0.932739,0.304199
1470242940818488,-0.00952148,0.193481,-0.932739,0.304199
1470242940841508,-0.00952148,0.193481,-0.932739,0.304199
1470242940855523,-0.00952148,0.193481,-0.932739,0.304199
1470242940878542,-0.00952148,0.193481,-0.932739,0.304199
1470242940901062,-0.00952148,0.193481,-0.932739,0.304199
1470242940922126,-0.00958252,0.193604,-0.932678,0.304199
1470242940938596,-0.00958252,0.193604,-0.932678,0.304199
1470242940961152,-0.00958252,0.193604,-0.932678,0.304199
1470242940982147,-0.00958252,0.193604,-0.932678,0.304199
1470242940998650,-0.00958252,0.193604,-0.932678,0.304199
1470242941021170,-0.00958252,0.193604,-0.932678,0.304199
1470242941042707,-0.00952148,0.193604,-0.932678,0.304199
1470242941058704,-0.00952148,0.193604,-0.932678,0.304199
1470242941081224,-0.00952148,0.193604,-0.932678,0.304199
1470242941102257,-0.00952148,0.193542,-0.932678,0.304199
1470242941126306,-0.00952148,0.193542,-0.932678,0.304199
1470242941141280,-0.00952148,0.193542,-0.932678,0.304199
1470242941162390,-0.00952148,0.193542,-0.932678,0.304199
1470242941178811,-0.00952148,0.193542,-0.932678,0.304199
1470242941201332,-0.00952148,0.193542,-0.932678,0.304199
1470242941222351,-0.00952148,0.193542,-0.932678,0.304199
1470242941238867,-0.00952148,0.193542,-0.932739,0.304199
1470242941260885,-0.00946045,0.193481,-0.932739,0.304199
1470242941282405,-0.00946045,0.193542,-0.932739,0.304199
1470242941298927,-0.00952148,0.193542,-0.932678,0.304199
1470242941320940,-0.00933838,0.193237,-0.9328,0.304199
1470242941351467,-0.00933838,0.193237,-0.9328,0.304199
1470242941358973,-0.00933838,0.193237,-0.9328,0.304199
1470242941381010,-0.00933838,0.193237,-0.9328,0.304199
1470242941403518,-0.00933838,0.193237,-0.9328,0.304199
1470242941432539,-0.00927734,0.193176,-0.9328,0.304199
1470242941441050,-0.00927734,0.193176,-0.9328,0.304199
1470242941464067,-0.00927734,0.193176,-0.9328,0.304199
1470242941478108,-0.00927734,0.193176,-0.9328,0.304199
1470242941501101,-0.00927734,0.193176,-0.9328,0.304199
1470242941523621,-0.00927734,0.193176,-0.9328,0.304199
1470242941538134,-0.00927734,0.193176,-0.9328,0.304199
1470242941561155,-0.00927734,0.193176,-0.9328,0.304199
1470242941583675,-0.00927734,0.193176,-0.9328,0.304199
1470242941598188,-0.00927734,0.193176,-0.9328,0.304199
1470242941621210,-0.00927734,0.193176,-0.9328,0.304199
1470242941643729,-0.00927734,0.193176,-0.9328,0.304199
1470242941658243,-0.00927734,0.193176,-0.9328,0.304199
1470242941665749,-0.00927734,0.193176,-0.9328,0.304199
1470242941686767,-0.00927734,0.193176,-0.9328,0.304199
1470242941709379,-0.00927734,0.193176,-0.9328,0.304199
1470242941725802,-0.00927734,0.193176,-0.9328,0.304199
1470242941746834,-0.00927734,0.193176,-0.9328,0.304199
1470242941768841,-0.00921631,0.193176,-0.9328,0.304199
1470242941785856,-0.00921631,0.193115,-0.9328,0.304199
1470242941806875,-0.00921631,0.193115,-0.9328,0.304199
1470242941829452,-0.00921631,0.193115,-0.9328,0.304199
1470242941845412,-0.00921631,0.193115,-0.9328,0.304199
1470242941874436,-0.00921631,0.193115,-0.9328,0.304199
1470242941889449,-0.00921631,0.193115,-0.9328,0.304199
1470242941905464,-0.00933838,0.193298,-0.932739,0.304199
1470242941927021,-0.00933838,0.193298,-0.932739,0.304199
1470242941949003,-0.00927734,0.193298,-0.932739,0.304199
1470242941965518,-0.00927734,0.193298,-0.932739,0.304199
1470242941989543,-0.00927734,0.193298,-0.932739,0.304199
1470242942009073,-0.00927734,0.193298,-0.932739,0.304199
1470242942025572,-0.00927734,0.193298,-0.932739,0.304199
1470242942047093,-0.00927734,0.193237,-0.932739,0.304199
1470242942077705,-0.00927734,0.193237,-0.932739,0.304199
1470242942085626,-0.00939941,0.193481,-0.932739,0.304199
1470242942106647,-0.00939941,0.193481,-0.932739,0.304199
1470242942129199,-0.00933838,0.193298,-0.932739,0.304199
1470242942145684,-0.00927734,0.193298,-0.932739,0.304199
1470242942166730,-0.00927734,0.193298,-0.932739,0.304199
1470242942189219,-0.00927734,0.193298,-0.932739,0.304199
1470242942205733,-0.00927734,0.193298,-0.932739,0.304199
1470242942226812,-0.00927734,0.193298,-0.932739,0.304199
1470242942249375,-0.00927734,0.193298,-0.932739,0.304199
1470242942267289,-0.00927734,0.193298,-0.932739,0.304199
1470242942286811,-0.00927734,0.193298,-0.932739,0.304199
1470242942309327,-0.00927734,0.193298,-0.932739,0.304199
1470242942331848,-0.00927734,0.193298,-0.932739,0.304199
1470242942354367,-0.00927734,0.193298,-0.932739,0.304199
1470242942369380,-0.00927734,0.193237,-0.932739,0.304199
1470242942387456,-0.00927734,0.193237,-0.932739,0.304199
1470242942406913,-0.00927734,0.193298,-0.932739,0.304199
1470242942428950,-0.00927734,0.193298,-0.932739,0.304199
1470242942446952,-0.00927734,0.193237,-0.932739,0.304199
1470242942466483,-0.00927734,0.193298,-0.932739,0.304199
1470242942489029,-0.00927734,0.193298,-0.932739,0.304199
1470242942507004,-0.00933838,0.193298,-0.932739,0.304199
1470242942526521,-0.00933838,0.193298,-0.932739,0.304199
1470242942549564,-0.00933838,0.193298,-0.932739,0.304199
1470242942567060,-0.00927734,0.193298,-0.932739,0.304199
1470242942587085,-0.00933838,0.193237,-0.932739,0.304199
1470242942609113,-0.00933838,0.193237,-0.932739,0.304199
1470242942631631,-0.00933838,0.193237,-0.932739,0.304199
1470242942646631,-0.00933838,0.193237,-0.932739,0.304199
1470242942669150,-0.00933838,0.193237,-0.932739,0.304199
1470242942687191,-0.00927734,0.193237,-0.932739,0.304199
1470242942708190,-0.00927734,0.193237,-0.932739,0.304199
1470242942729206,-0.00927734,0.193237,-0.932739,0.304199
1470242942747220,-0.00933838,0.193237,-0.932739,0.304199
1470242942766737,-0.00927734,0.193237,-0.932739,0.304199
1470242942789258,-0.00927734,0.193237,-0.932739,0.304199
1470242942807273,-0.00927734,0.193237,-0.932739,0.304199
1470242942826824,-0.00927734,0.193237,-0.932739,0.304199
1470242942849365,-0.00927734,0.193237,-0.932739,0.304199
1470242942866831,-0.00927734,0.193237,-0.932739,0.304199
1470242942888347,-0.00927734,0.193237,-0.932739,0.304199
1470242942912367,-0.00921631,0.193237,-0.932739,0.304199
1470242942927432,-0.00921631,0.193237,-0.932739,0.304199
1470242942947900,-0.00921631,0.193237,-0.932739,0.304199
1470242942969418,-0.00921631,0.193298,-0.932739,0.304199
1470242942987456,-0.00921631,0.193237,-0.932739,0.304199
1470242943007955,-0.00921631,0.193237,-0.932739,0.304199
1470242943029583,-0.00921631,0.193298,-0.932739,0.304199
1470242943047083,-0.00921631,0.193298,-0.932739,0.304199
1470242943068007,-0.00921631,0.193237,-0.932739,0.304199
1470242943089046,-0.00921631,0.193237,-0.932739,0.304199
1470242943107031,-0.00921631,0.193298,-0.932739,0.304199
1470242943128081,-0.00921631,0.193298,-0.932739,0.304199
1470242943149096,-0.00921631,0.193298,-0.932739,0.30426
1470242943167084,-0.00915527,0.193298,-0.932739,0.30426
1470242943189668,-0.00915527,0.193237,-0.932739,0.30426
1470242943209184,-0.00915527,0.193237,-0.932739,0.30426
1470242943227209,-0.00915527,0.193237,-0.932739,0.30426
1470242943249739,-0.00915527,0.193237,-0.932739,0.30426
1470242943269239,-0.00915527,0.193237,-0.932739,0.30426
1470242943292782,-0.00915527,0.193237,-0.932739,0.30426
1470242943309276,-0.00915527,0.193237,-0.932739,0.30426
1470242943329324,-0.00915527,0.193237,-0.932739,0.30426
1470242943347309,-0.00915527,0.193237,-0.932739,0.30426
1470242943377443,-0.00909424,0.193237,-0.932739,0.30426
1470242943389346,-0.00909424,0.193237,-0.932739,0.30426
1470242943406863,-0.00909424,0.193237,-0.932739,0.30426
1470242943429383,-0.00909424,0.193237,-0.932739,0.30426
1470242943449512,-0.00909424,0.193237,-0.932739,0.30426
1470242943467434,-0.00909424,0.193237,-0.932739,0.30426
1470242943489937,-0.00909424,0.193237,-0.932739,0.30426
1470242943509514,-0.00909424,0.193237,-0.932739,0.30426
1470242943526973,-0.00909424,0.193237,-0.932739,0.30426
1470242943549491,-0.00909424,0.193237,-0.932739,0.30426
1470242943569007,-0.00909424,0.193237,-0.932739,0.30426
1470242943587050,-0.00909424,0.193237,-0.932739,0.30426
1470242943609544,-0.00909424,0.193298,-0.932739,0.30426
1470242943629093,-0.00909424,0.193237,-0.932739,0.30426
1470242943651582,-0.00909424,0.193237,-0.932739,0.30426
1470242943669600,-0.00909424,0.193237,-0.932739,0.30426
1470242943689116,-0.0090332,0.193237,-0.932739,0.30426
1470242943707133,-0.0090332,0.193237,-0.932739,0.30426
1470242943745668,-0.0090332,0.193237,-0.932739,0.30426
1470242943750670,-0.0090332,0.193237,-0.932739,0.30426
1470242943767186,-0.0090332,0.193237,-0.932739,0.30426
1470242943789707,-0.0090332,0.193237,-0.932739,0.30426
1470242943816731,-0.0090332,0.193237,-0.932739,0.30426
1470242943827240,-0.0090332,0.193237,-0.932739,0.30426
1470242943849760,-0.0090332,0.193237,-0.932739,0.30426
1470242943870782,-0.0090332,0.193237,-0.932739,0.30426
1470242943893360,-0.0090332,0.193237,-0.932739,0.30426
1470242943909815,-0.0090332,0.193176,-0.932739,0.30426
1470242943930832,-0.00897217,0.193176,-0.932739,0.30426
1470242943947436,-0.00897217,0.193176,-0.932739,0.30426
1470242943969867,-0.00897217,0.193176,-0.932739,0.30426
1470242943991888,-0.00897217,0.193176,-0.932739,0.30426
1470242944007401,-0.00897217,0.193176,-0.932739,0.30426
1470242944029423,-0.00897217,0.193176,-0.932739,0.30426
1470242944050440,-0.00897217,0.193176,-0.932739,0.30426
1470242944066957,-0.00897217,0.193176,-0.932739,0.30426
1470242944097012,-0.00897217,0.193176,-0.932739,0.30426
1470242944110497,-0.00897217,0.193176,-0.932739,0.30426
1470242944127011,-0.00897217,0.193176,-0.932739,0.30426
1470242944150056,-0.00897217,0.193176,-0.932739,0.30426
1470242944171050,-0.00897217,0.193176,-0.932739,0.30426
1470242944185566,-0.00897217,0.193176,-0.932739,0.30426
1470242944208582,-0.00897217,0.193176,-0.932739,0.30426
1470242944231102,-0.00897217,0.193176,-0.932739,0.30426
1470242944245617,-0.00897217,0.193176,-0.932739,0.30426
1470242944268636,-0.00897217,0.193176,-0.932739,0.30426
1470242944291156,-0.00897217,0.193176,-0.932739,0.30426
1470242944312204,-0.00897217,0.193176,-0.932739,0.30426
1470242944328705,-0.00897217,0.193176,-0.932739,0.30426
1470242944351222,-0.00897217,0.193176,-0.932739,0.30426
1470242944365723,-0.00897217,0.193176,-0.932739,0.30426
1470242944388746,-0.00891113,0.193176,-0.932739,0.30426
1470242944411266,-0.00891113,0.193176,-0.932739,0.30426
1470242944425814,-0.00897217,0.193176,-0.932739,0.30426
1470242944448298,-0.00897217,0.193176,-0.932739,0.30426
1470242944471318,-0.00891113,0.193176,-0.932739,0.30426
1470242944485831,-0.00891113,0.193176,-0.932739,0.30426
1470242944508852,-0.00891113,0.193176,-0.932739,0.30426
1470242944537394,-0.00891113,0.193176,-0.932739,0.30426
1470242944545385,-0.00891113,0.193176,-0.932739,0.30426
1470242944568905,-0.00891113,0.193176,-0.932739,0.30426
1470242944591453,-0.00891113,0.193176,-0.932739,0.304321
1470242944605939,-0.00891113,0.193176,-0.932739,0.304321
1470242944628959,-0.00891113,0.193176,-0.932739,0.304321
1470242944651479,-0.00891113,0.193176,-0.932739,0.304321
1470242944672498,-0.00891113,0.193176,-0.932739,0.304321
1470242944689013,-0.0088501,0.193115,-0.932739,0.304321
1470242944711034,-0.0088501,0.193115,-0.932739,0.304321
1470242944733554,-0.0088501,0.193115,-0.932739,0.304321
1470242944748567,-0.0088501,0.193115,-0.932739,0.304321
1470242944771088,-0.0088501,0.193176,-0.932739,0.304321
1470242944792106,-0.0088501,0.193176,-0.932739,0.304321
1470242944808623,-0.0088501,0.193115,-0.932739,0.304321
1470242944831141,-0.0088501,0.193115,-0.932739,0.304321
1470242944852176,-0.0088501,0.193115,-0.932739,0.304321
1470242944868675,-0.0088501,0.193115,-0.932739,0.304321
1470242944891194,-0.0088501,0.193115,-0.932739,0.304321
1470242944912242,-0.0088501,0.193115,-0.932739,0.304321
1470242944929229,-0.0088501,0.193115,-0.932739,0.304321
1470242944951250,-0.0088501,0.193115,-0.932739,0.304321
1470242944972281,-0.0088501,0.193115,-0.932739,0.304321
1470242944988784,-0.00897217,0.193298,-0.932739,0.30426
1470242945011306,-0.0090332,0.193298,-0.932739,0.30426
1470242945032350,-0.00897217,0.193298,-0.932739,0.30426
1470242945048836,-0.00897217,0.193298,-0.932739,0.30426
1470242945071357,-0.00897217,0.193298,-0.932739,0.30426
1470242945092406,-0.00897217,0.193298,-0.932739,0.30426
1470242945108890,-0.00897217,0.193298,-0.932739,0.30426
1470242945131912,-0.00897217,0.193298,-0.932739,0.30426
1470242945153931,-0.00897217,0.193298,-0.932739,0.30426
1470242945176451,-0.00897217,0.193298,-0.932739,0.30426
1470242945191464,-0.00897217,0.193298,-0.932739,0.30426
1470242945213984,-0.00897217,0.193298,-0.932739,0.30426
1470242945229498,-0.00897217,0.193298,-0.932739,0.30426
1470242945251020,-0.00897217,0.193298,-0.932739,0.30426
1470242945273538,-0.00897217,0.193298,-0.932739,0.30426
1470242945288052,-0.00897217,0.193298,-0.932739,0.30426
1470242945311072,-0.00897217,0.193298,-0.932739,0.30426
1470242945333592,-0.00897217,0.193298,-0.932739,0.30426
1470242945348105,-0.00897217,0.193298,-0.932739,0.30426
1470242945371125,-0.00897217,0.193298,-0.932739,0.30426
1470242945393646,-0.00897217,0.193298,-0.932739,0.30426
1470242945408659,-0.00897217,0.193298,-0.932739,0.30426
1470242945431180,-0.00897217,0.193298,-0.932739,0.30426
1470242945453702,-0.00897217,0.193298,-0.932739,0.30426
1470242945468218,-0.00897217,0.193298,-0.932739,0.30426
1470242945491234,-0.00897217,0.193298,-0.932739,0.30426
1470242945513754,-0.00897217,0.193298,-0.932739,0.30426
1470242945534777,-0.00897217,0.193298,-0.932739,0.30426
1470242945551288,-0.00897217,0.193298,-0.932739,0.30426
1470242945573810,-0.00897217,0.193298,-0.932739,0.30426
1470242945596328,-0.00897217,0.193298,-0.932739,0.30426
1470242945611342,-0.00897217,0.193298,-0.932739,0.30426
1470242945633862,-0.00897217,0.193298,-0.932739,0.30426
1470242945654909,-0.00897217,0.193298,-0.932739,0.30426
1470242945671395,-0.00897217,0.193298,-0.932739,0.30426
1470242945693915,-0.00897217,0.193298,-0.932739,0.30426
1470242945714945,-0.00897217,0.193298,-0.932739,0.30426
1470242945731449,-0.00897217,0.193298,-0.932739,0.30426
1470242945753973,-0.00897217,0.193298,-0.932739,0.30426
1470242945774988,-0.00897217,0.193298,-0.932739,0.30426
1470242945791002,-0.0088501,0.193176,-0.932739,0.304321
1470242945813524,-0.0088501,0.193176,-0.932739,0.304321
1470242945835043,-0.0088501,0.193176,-0.932739,0.30426
1470242945851057,-0.0088501,0.193176,-0.932739,0.30426
1470242945873578,-0.0088501,0.193176,-0.932739,0.30426
1470242945895166,-0.0088501,0.193176,-0.932739,0.30426
1470242945911166,-0.0088501,0.193176,-0.932739,0.304321
1470242945933689,-0.0088501,0.193176,-0.932739,0.304321
1470242945954747,-0.00891113,0.193176,-0.932739,0.30426
1470242945971220,-0.00891113,0.193176,-0.932739,0.30426
1470242945993742,-0.0088501,0.193176,-0.932739,0.30426
1470242946014787,-0.0088501,0.193176,-0.932739,0.30426
1470242946038781,-0.0088501,0.193176,-0.932739,0.30426
1470242946053794,-0.0088501,0.193176,-0.932739,0.30426
1470242946076315,-0.00891113,0.193176,-0.932739,0.30426
1470242946091330,-0.00891113,0.193176,-0.932739,0.30426
1470242946113850,-0.0088501,0.193176,-0.932739,0.30426
1470242946136371,-0.0088501,0.193176,-0.932739,0.304321
1470242946151382,-0.0088501,0.193176,-0.932739,0.30426
1470242946173903,-0.0088501,0.193176,-0.932739,0.304321
1470242946196423,-0.0088501,0.193176,-0.932739,0.304321
1470242946211435,-0.0088501,0.193176,-0.932739,0.304321
1470242946241463,-0.0088501,0.193176,-0.932739,0.304321
1470242946256476,-0.0088501,0.193176,-0.932739,0.304321
1470242946270490,-0.0088501,0.193115,-0.932739,0.304321
1470242946293509,-0.0088501,0.193115,-0.932739,0.304321
1470242946316031,-0.0088501,0.193115,-0.932739,0.304321
1470242946330545,-0.0088501,0.193115,-0.932739,0.304321
1470242946353564,-0.00878906,0.193115,-0.932739,0.304321
1470242946376084,-0.00878906,0.193115,-0.932739,0.304321
1470242946390600,-0.00878906,0.193115,-0.932739,0.304321
1470242946413648,-0.00878906,0.193115,-0.932739,0.304321
1470242946436160,-0.00878906,0.193115,-0.932739,0.304321
1470242946457657,-0.00878906,0.193115,-0.932739,0.304321
1470242946473671,-0.00878906,0.193115,-0.932739,0.304321
1470242946496192,-0.00878906,0.193115,-0.932739,0.304321
1470242946510707,-0.00878906,0.193115,-0.932739,0.304321
1470242946533727,-0.00878906,0.193115,-0.932739,0.304321
1470242946557250,-0.00878906,0.193115,-0.932739,0.304321
1470242946577266,-0.00872803,0.193115,-0.932739,0.304321
1470242946593781,-0.00878906,0.193115,-0.932739,0.304321
1470242946616346,-0.00872803,0.193115,-0.932739,0.304321
1470242946637349,-0.00872803,0.193115,-0.932739,0.304321
1470242946653834,-0.00872803,0.193115,-0.932739,0.304321
1470242946676354,-0.00872803,0.193115,-0.932739,0.304321
1470242946697372,-0.00854492,0.192993,-0.932739,0.304504
1470242946713905,-0.00854492,0.192932,-0.932739,0.304504
1470242946736407,-0.00854492,0.192932,-0.932739,0.304504
1470242946758928,-0.00854492,0.192932,-0.932739,0.304504
1470242946773941,-0.00860596,0.192993,-0.932678,0.304688
1470242946796461,-0.00860596,0.192688,-0.932678,0.304871
1470242946817543,-0.00848389,0.192383,-0.932617,0.305115
1470242946833516,-0.00842285,0.191956,-0.932617,0.305542
1470242946856516,-0.00823975,0.190796,-0.932617,0.306152
1470242946877598,-0.00793457,0.188293,-0.932861,0.307068
1470242946893550,-0.00793457,0.185242,-0.933044,0.308289
1470242946916068,-0.00836182,0.181763,-0.933228,0.309875
1470242946937591,-0.00909424,0.178284,-0.933228,0.311829
1470242946953102,-0.0101929,0.174805,-0.933167,0.313904
1470242946976122,-0.0114746,0.170837,-0.933167,0.316101
1470242946997646,-0.0124512,0.166199,-0.933105,0.318604
1470242947013156,-0.0131836,0.160522,-0.933167,0.321411
1470242947036177,-0.013855,0.154724,-0.933167,0.324158
1470242947075212,-0.0144043,0.148682,-0.933167,0.326904
1470242947079752,-0.0150146,0.142761,-0.933105,0.329712
1470242947096248,-0.0158081,0.136353,-0.932983,0.332825
1470242947118753,-0.0166626,0.12854,-0.932861,0.336182
1470242947139770,-0.017395,0.119385,-0.9328,0.3396
1470242947156285,-0.0180664,0.109924,-0.932739,0.342957
1470242947178806,-0.0187378,0.100769,-0.932495,0.346375
1470242947199866,-0.0194702,0.0913696,-0.932129,0.349915
1470242947216340,-0.0202637,0.0812988,-0.931641,0.353577
1470242947238863,-0.0210571,0.0708008,-0.931091,0.3573
1470242947259908,-0.0211182,0.0596313,-0.93042,0.360962
1470242947276411,-0.0206909,0.0480347,-0.929626,0.364868
1470242947298914,-0.0206909,0.0363159,-0.928589,0.368713
1470242947319948,-0.0211182,0.0241089,-0.927429,0.372742
1470242947336447,-0.0213623,0.0118408,-0.926147,0.376404
1470242947358966,-0.0209961,0.000183105,-0.924805,0.379822
1470242947379990,-0.0206299,-0.0106201,-0.923462,0.383057
1470242947396000,-0.0210571,-0.020813,-0.921753,0.386719
1470242947418522,-0.0210571,-0.0322876,-0.920044,0.390015
1470242947440039,-0.020752,-0.0440674,-0.918091,0.393311
1470242947456054,-0.0200806,-0.055603,-0.916199,0.396301
1470242947479074,-0.0195313,-0.0666504,-0.914185,0.399292
1470242947500093,-0.0194702,-0.0772095,-0.912048,0.402344
1470242947516109,-0.0195923,-0.088501,-0.909607,0.405457
1470242947538628,-0.0194092,-0.100342,-0.907166,0.408142
1470242947560148,-0.0189209,-0.112122,-0.904663,0.410706
1470242947575662,-0.0187378,-0.123352,-0.901978,0.413391
1470242947598681,-0.0186768,-0.134705,-0.89917,0.416016
1470242947620243,-0.0187378,-0.146362,-0.89624,0.418335
1470242947636241,-0.019043,-0.157288,-0.893555,0.420166
1470242947658737,-0.0193481,-0.166992,-0.890869,0.422058
1470242947680314,-0.0203247,-0.175171,-0.88855,0.423645
1470242947696273,-0.0213013,-0.182129,-0.886536,0.424866
1470242947718789,-0.0222168,-0.188171,-0.884766,0.425842
1470242947739810,-0.0227661,-0.193054,-0.883423,0.426392
1470242947755822,-0.0230103,-0.196777,-0.882385,0.426819
1470242947778845,-0.0231934,-0.199585,-0.881653,0.427002
1470242947799862,-0.0231934,-0.201538,-0.881226,0.427002
1470242947815877,-0.0233765,-0.201965,-0.881226,0.426758
1470242947838897,-0.0234985,-0.200989,-0.881531,0.426575
1470242947859916,-0.0233765,-0.199646,-0.881958,0.426331
1470242947876435,-0.0228882,-0.198853,-0.882263,0.426086
1470242947898480,-0.0224609,-0.198181,-0.88269,0.425659
1470242947919995,-0.0223389,-0.196472,-0.88324,0.425232
1470242947935985,-0.022583,-0.194092,-0.883911,0.424866
1470242947958538,-0.022522,-0.192566,-0.884399,0.424622
1470242947981025,-0.0220337,-0.1922,-0.884644,0.424255
1470242947996539,-0.0216064,-0.192444,-0.884766,0.42395
1470242948018559,-0.0214233,-0.192322,-0.884827,0.423828
1470242948041597,-0.0215454,-0.191711,-0.88501,0.423767
1470242948056593,-0.0218506,-0.191284,-0.885071,0.423767
1470242948078640,-0.0219116,-0.191772,-0.884949,0.423889
1470242948101633,-0.0217285,-0.192566,-0.884766,0.423828
1470242948115646,-0.0218506,-0.192566,-0.884827,0.423828
1470242948138666,-0.0220947,-0.192078,-0.884888,0.423889
1470242948161189,-0.0222168,-0.191772,-0.884949,0.423828
1470242948175704,-0.0222778,-0.191223,-0.885132,0.423706
1470242948198723,-0.0223389,-0.190613,-0.885315,0.423645
1470242948221242,-0.0222778,-0.189697,-0.885498,0.423584
1470242948235754,-0.0221558,-0.188721,-0.885803,0.423401
1470242948258774,-0.0221558,-0.187805,-0.886108,0.423157
1470242948281296,-0.0222778,-0.186584,-0.886414,0.423035
1470242948295807,-0.0223389,-0.185364,-0.88678,0.422913
1470242948318842,-0.0222778,-0.184265,-0.887024,0.422791
1470242948341353,-0.0222168,-0.183472,-0.887268,0.422607
1470242948355864,-0.0222168,-0.182556,-0.887573,0.422424
1470242948378884,-0.0223389,-0.181335,-0.887878,0.422363
1470242948401403,-0.0222168,-0.179993,-0.888123,0.422424
1470242948415436,-0.0219727,-0.178711,-0.888367,0.422424
1470242948438937,-0.0216675,-0.177368,-0.888733,0.42218
1470242948461456,-0.0202026,-0.175232,-0.889404,0.421692
1470242948482501,-0.0188599,-0.171875,-0.890198,0.42157
1470242948498990,-0.0180054,-0.168884,-0.890747,0.421631
1470242948521021,-0.0158691,-0.168152,-0.89093,0.421631
1470242948542591,-0.0165405,-0.166077,-0.891296,0.421631
1470242948558561,-0.0189819,-0.164551,-0.891113,0.422546
1470242948581563,-0.0218506,-0.164185,-0.890381,0.424011
1470242948602590,-0.0236816,-0.16687,-0.889282,0.425232
1470242948618602,-0.0279541,-0.168274,-0.888062,0.427002
1470242948642620,-0.0307617,-0.168884,-0.886108,0.430603
1470242948662637,-0.0314331,-0.1698,-0.883728,0.43512
1470242948678651,-0.0292358,-0.172791,-0.880859,0.439758
1470242948701172,-0.0283813,-0.174255,-0.878479,0.44397
1470242948722691,-0.0321045,-0.168701,-0.87677,0.449219
1470242948738705,-0.0361328,-0.160278,-0.874451,0.456543
1470242948761225,-0.0363159,-0.15387,-0.870728,0.465637
1470242948782813,-0.0322876,-0.149292,-0.865906,0.476318
1470242948798258,-0.0264893,-0.144714,-0.860291,0.488159
1470242948821290,-0.0203247,-0.139038,-0.85376,0.501343
1470242948842801,-0.013916,-0.133911,-0.84613,0.515747
1470242948858312,-0.00732422,-0.128479,-0.837708,0.530762
1470242948881334,0.000244141,-0.123535,-0.828186,0.546753
1470242948902352,0.00897217,-0.119385,-0.817444,0.563416
1470242948917895,0.0180054,-0.116333,-0.805542,0.58075
1470242948941389,0.026123,-0.113831,-0.792847,0.598145
1470242948963911,0.0321045,-0.110535,-0.780273,0.614746
1470242948977924,0.0372314,-0.107178,-0.767822,0.630493
1470242949001441,0.0424194,-0.104492,-0.755554,0.645325
1470242949023961,0.0488281,-0.103394,-0.743408,0.658997
1470242949045042,0.0566406,-0.103088,-0.731506,0.671631
1470242949061510,0.0646362,-0.103638,-0.719727,0.683472
1470242949083515,0.0700684,-0.103149,-0.708191,0.694885
1470242949105033,0.0723877,-0.100769,-0.697632,0.705627
1470242949121549,0.0736084,-0.0985718,-0.687744,0.715454
1470242949143602,0.0755005,-0.0978394,-0.678589,0.72406
1470242949165089,0.0770874,-0.0982666,-0.670593,0.731262
1470242949181634,0.0772095,-0.0982056,-0.663696,0.737488
1470242949204143,0.0761719,-0.0976563,-0.657654,0.743042
1470242949225142,0.0757446,-0.0971069,-0.651733,0.748352
1470242949241184,0.076355,-0.0974731,-0.645691,0.75354
1470242949263677,0.0769653,-0.0982666,-0.639832,0.758301
1470242949285223,0.0766602,-0.0985718,-0.634827,0.762512
1470242949301212,0.0756836,-0.0983276,-0.630249,0.766418
1470242949306717,0.0750732,-0.0979614,-0.625549,0.770386
1470242949329268,0.0753174,-0.098877,-0.6203,0.774414
1470242949351755,0.0755615,-0.100708,-0.615173,0.778259
1470242949369793,0.0753174,-0.102966,-0.610107,0.781982
1470242949389306,0.0744629,-0.105408,-0.605103,0.785583
1470242949411838,0.0740356,-0.108398,-0.600037,0.789124
1470242949426825,0.0733643,-0.112061,-0.594727,0.792725
1470242949449376,0.072937,-0.116516,-0.589111,0.796265
1470242949471913,0.0733032,-0.121399,-0.583496,0.799622
1470242949486978,0.0739136,-0.126587,-0.577759,0.802917
1470242949509470,0.074707,-0.132019,-0.572021,0.806091
1470242949531917,0.0742798,-0.137146,-0.566284,0.809326
1470242949546930,0.0722046,-0.141663,-0.560852,0.8125
1470242949569450,0.0696411,-0.145203,-0.555847,0.815552
1470242949591971,0.0672607,-0.147278,-0.551575,0.818237
1470242949606985,0.0653076,-0.146545,-0.548828,0.820374
1470242949629505,0.0634766,-0.143372,-0.547729,0.821838
1470242949652025,0.0620728,-0.138611,-0.547974,0.822571
1470242949666540,0.0611572,-0.131531,-0.549194,0.822998
1470242949689560,0.0608521,-0.121216,-0.551147,0.823303
1470242949712084,0.0620728,-0.107605,-0.553711,0.823364
1470242949729595,0.0638428,-0.0910034,-0.557068,0.822998
1470242949749613,0.0671997,-0.071106,-0.561401,0.821716
1470242949771633,0.072998,-0.048645,-0.566711,0.819214
1470242949786646,0.0810547,-0.0237427,-0.572632,0.81543
1470242949809196,0.0892944,0.00378418,-0.578918,0.810425
1470242949831715,0.0980225,0.0335693,-0.58551,0.804016
1470242949846718,0.106995,0.0645752,-0.591797,0.796326
1470242949869253,0.116516,0.0961914,-0.598083,0.787048
1470242949891758,0.127136,0.128479,-0.604248,0.776001
1470242949906756,0.138123,0.161682,-0.610352,0.763
1470242949929276,0.150024,0.194702,-0.616211,0.74823
1470242949951813,0.162537,0.226501,-0.621704,0.731934
1470242949966810,0.175415,0.256348,-0.627014,0.714355
1470242949989328,0.187439,0.284729,-0.632385,0.695618
1470242950011851,0.198792,0.311951,-0.638123,0.675232
1470242950034415,0.210205,0.337158,-0.644653,0.653076
1470242950049381,0.222473,0.358093,-0.65271,0.629456
1470242950071945,0.234253,0.372253,-0.662964,0.605774
1470242950086975,0.242798,0.381714,-0.674744,0.58313
1470242950109435,0.248413,0.388672,-0.687134,0.561279
1470242950131959,0.251221,0.393433,-0.700867,0.539307
1470242950146971,0.253479,0.39386,-0.717285,0.515808
1470242950169490,0.255737,0.388611,-0.737122,0.490112
1470242950192010,0.254883,0.379028,-0.759766,0.462769
1470242950207023,0.248596,0.367859,-0.783508,0.434753
1470242950229544,0.237122,0.358521,-0.806458,0.406067
1470242950251597,0.223083,0.351685,-0.827881,0.375732
1470242950267085,0.209045,0.344788,-0.848389,0.342957
1470242950289694,0.195007,0.336304,-0.868408,0.307678
1470242950314665,0.179688,0.326477,-0.887695,0.270508
1470242950327144,0.162109,0.31842,-0.904663,0.232239
1470242950349690,0.143433,0.313171,-0.918762,0.193054
1470242950371722,0.125366,0.306641,-0.930969,0.153381
1470242950386702,0.106689,0.301392,-0.940369,0.11615
1470242950409227,0.0871582,0.299561,-0.946655,0.0809326
1470242950431763,0.0671387,0.302002,-0.949829,0.0465698
1470242950446739,0.0491333,0.305176,-0.950989,0.0133057
1470242950469289,0.0334473,0.307983,-0.950684,-0.0170288
1470242950491805,0.0181885,0.313477,-0.948425,-0.0435181
1470242950508317,0.00384521,0.321411,-0.94458,-0.0672607
1470242950529329,-0.00817871,0.329468,-0.940002,-0.0883179
1470242950551888,-0.0174561,0.336487,-0.935608,-0.105896
1470242950568385,-0.0235596,0.345703,-0.930481,-0.119263
1470242950589459,-0.027832,0.356323,-0.92511,-0.128235
1470242950611899,-0.0301514,0.368042,-0.919617,-0.133972
1470242950628402,-0.0305786,0.377991,-0.915039,-0.137512
1470242950649420,-0.0302124,0.384583,-0.91217,-0.138245
1470242950680078,-0.0299072,0.388123,-0.911011,-0.13623
1470242950688460,-0.0292358,0.390503,-0.910645,-0.131958
1470242950709475,-0.0278931,0.392883,-0.910583,-0.125549
1470242950731996,-0.026001,0.394775,-0.910828,-0.117798
1470242950748509,-0.0230713,0.395447,-0.911682,-0.109253
1470242950769529,-0.0194092,0.394897,-0.913147,-0.0994873
1470242950792049,-0.0147705,0.393433,-0.914978,-0.0884399
1470242950810093,-0.0088501,0.392639,-0.916504,-0.076416
1470242950829082,-0.00115967,0.3927,-0.91748,-0.0635986
1470242950851603,0.00756836,0.392761,-0.918274,-0.0501709
1470242950871120,0.0178833,0.39209,-0.919067,-0.0353394
1470242950889164,0.0286865,0.390442,-0.919983,-0.0195313
1470242950919182,0.0395508,0.387817,-0.920898,-0.00274658
1470242950929678,0.0498047,0.383545,-0.922058,0.0148315
1470242950956697,0.0588379,0.377319,-0.923645,0.03302
1470242950971744,0.0669556,0.370178,-0.925171,0.0511475
1470242950989726,0.0740967,0.362976,-0.92627,0.0690308
1470242951009277,0.079895,0.355408,-0.927246,0.0869751
1470242951031807,0.0837402,0.346802,-0.928223,0.105286
1470242951049796,0.0853271,0.337585,-0.929199,0.124207
1470242951069298,0.0854492,0.328735,-0.929688,0.142639
1470242951091820,0.0836792,0.320007,-0.929993,0.160217
1470242951109835,0.0805664,0.311768,-0.930115,0.176758
1470242951129354,0.0775757,0.304382,-0.929871,0.191528
1470242951151873,0.0757446,0.297852,-0.929382,0.204529
1470242951169888,0.0739746,0.29126,-0.928711,0.217346
1470242951189405,0.0707397,0.285217,-0.927673,0.23053
1470242951211926,0.0651855,0.281372,-0.925964,0.243286
1470242951237449,0.0585327,0.278748,-0.924255,0.254272
1470242951256966,0.0519409,0.27533,-0.923096,0.26355
1470242951271979,0.0465088,0.27124,-0.922424,0.270935
1470242951289997,0.0424194,0.265259,-0.922485,0.277222
1470242951312042,0.0384521,0.255615,-0.92334,0.283997
1470242951331533,0.0328979,0.244446,-0.924316,0.291199
1470242951349551,0.0262451,0.23468,-0.924988,0.297668
1470242951369067,0.0209351,0.227844,-0.925415,0.302124
1470242951391588,0.0160522,0.223572,-0.925232,0.306213
1470242951409605,0.0112305,0.220825,-0.924683,0.309937
1470242951430622,0.00701904,0.218201,-0.924561,0.312378
1470242951451641,0.00292969,0.214233,-0.92511,0.313477
1470242951469657,0.000366211,0.208557,-0.926208,0.314209
1470242951490677,-0.000976563,0.201721,-0.927856,0.313721
1470242951514698,-0.000976563,0.197632,-0.928284,0.315063
1470242951529714,-0.00177002,0.197815,-0.927612,0.316956
1470242951550733,-0.00262451,0.198181,-0.927185,0.317993
1470242951571783,-0.00262451,0.197327,-0.92749,0.317566
1470242951589768,-0.00164795,0.195068,-0.928345,0.316406
1470242951610786,0.000183105,0.192078,-0.929382,0.315308
1470242951631829,0.00164795,0.190796,-0.929871,0.314514
1470242951649819,0.00262451,0.190674,-0.930054,0.314209
1470242951670839,0.003479,0.189941,-0.930237,0.313904
1470242951691882,0.00469971,0.187866,-0.930786,0.313538
1470242951709873,0.00616455,0.185425,-0.931335,0.313354
1470242951731927,0.00714111,0.183899,-0.931641,0.313354
1470242951747518,0.00720215,0.183411,-0.931763,0.313354
1470242951769956,0.00701904,0.183228,-0.931824,0.313232
1470242951791947,0.00708008,0.182861,-0.931946,0.312988
1470242951812500,0.00726318,0.182678,-0.932129,0.312683
1470242951828482,0.00756836,0.182495,-0.932251,0.312317
1470242951851538,0.00799561,0.182556,-0.932312,0.312195
1470242951872519,0.00787354,0.18219,-0.932373,0.312195
1470242951889033,0.00854492,0.182434,-0.932434,0.311768
1470242951911554,0.00811768,0.183044,-0.932373,0.311707
1470242951932573,0.00775146,0.183472,-0.932312,0.311584
1470242951949088,0.00775146,0.183533,-0.932312,0.311584
1470242951971111,0.00756836,0.183594,-0.932373,0.311279
1470242951986123,0.00756836,0.183472,-0.932495,0.310974
1470242952008643,0.00756836,0.183228,-0.932617,0.310852
1470242952031165,0.00756836,0.183228,-0.932617,0.310852
1470242952045677,0.00720215,0.18335,-0.932617,0.310852
1470242952068695,0.00689697,0.183472,-0.932556,0.310852
1470242952091219,0.00689697,0.183472,-0.932556,0.310852
1470242952105753,0.00689697,0.183533,-0.932556,0.310852
1470242952128790,0.00689697,0.183533,-0.932556,0.310852
1470242952158776,0.00683594,0.183533,-0.932556,0.310852
1470242952172302,0.00683594,0.183594,-0.932556,0.310852
1470242952188803,0.00689697,0.183533,-0.932617,0.310791
1470242952217360,0.00695801,0.183228,-0.932678,0.31073
1470242952232342,0.00695801,0.183289,-0.932678,0.31073
1470242952248860,0.00689697,0.183472,-0.932617,0.31073
1470242952271379,0.00665283,0.183838,-0.932556,0.310669
1470242952292397,0.00665283,0.183899,-0.932556,0.310669
1470242952308928,0.0067749,0.183777,-0.932617,0.310547
1470242952331431,0.00701904,0.183533,-0.932617,0.310608
1470242952352450,0.00701904,0.183533,-0.932617,0.310608
1470242952368964,0.00695801,0.183533,-0.932617,0.310608
1470242952391485,0.00695801,0.183594,-0.932617,0.310608
1470242952412514,0.00689697,0.183594,-0.932617,0.310547
1470242952429018,0.00689697,0.183655,-0.932617,0.310547
1470242952451538,0.00689697,0.183655,-0.932617,0.310547
1470242952472584,0.00689697,0.183655,-0.932617,0.310547
1470242952488607,0.00683594,0.183655,-0.932617,0.310547
1470242952511143,0.00683594,0.183655,-0.932617,0.310547
1470242952532612,0.00683594,0.183716,-0.932617,0.310547
1470242952549126,0.0067749,0.183716,-0.932617,0.310547
1470242952571146,0.00683594,0.183533,-0.932678,0.310547
1470242952592665,0.00683594,0.183533,-0.932678,0.310547
1470242952614704,0.00683594,0.183533,-0.932678,0.310547
1470242952631200,0.0067749,0.183533,-0.932678,0.310547
1470242952652220,0.0067749,0.183594,-0.932678,0.310486
1470242952668754,0.0067749,0.183594,-0.932678,0.310486
1470242952698761,0.0067749,0.183655,-0.932678,0.310486
1470242952713774,0.0067749,0.183655,-0.932678,0.310486
1470242952728788,0.00671387,0.183655,-0.932678,0.310486
1470242952751344,0.00671387,0.183655,-0.932678,0.310486
1470242952773829,0.00665283,0.183655,-0.932678,0.310486
1470242952788842,0.00665283,0.183716,-0.932678,0.310486
1470242952811362,0.00665283,0.183716,-0.932678,0.310486
1470242952833884,0.00665283,0.183716,-0.932678,0.310486
1470242952848399,0.0065918,0.183533,-0.932678,0.310547
1470242952871418,0.00653076,0.18335,-0.932678,0.310608
1470242952893936,0.00653076,0.182922,-0.932739,0.310669
1470242952908450,0.00646973,0.182373,-0.9328,0.310791
1470242952931471,0.00640869,0.181824,-0.932861,0.310913
1470242952954004,0.00634766,0.181274,-0.932922,0.311096
1470242952976509,0.00616455,0.180847,-0.932983,0.311157
1470242952991523,0.00610352,0.18042,-0.933105,0.311096
1470242953014044,0.00616455,0.179871,-0.933228,0.311096
1470242953028057,0.00634766,0.179443,-0.933289,0.310974
1470242953051079,0.00634766,0.179382,-0.933289,0.310974
1470242953073598,0.00634766,0.179382,-0.933289,0.310974
1470242953088122,0.00634766,0.179443,-0.933289,0.310974
1470242953111131,0.00634766,0.17926,-0.933411,0.310913
1470242953133652,0.00634766,0.179016,-0.933472,0.310852
1470242953148186,0.00640869,0.178955,-0.933472,0.310852
1470242953171187,0.00640869,0.178955,-0.933472,0.310852
1470242953193749,0.00634766,0.179016,-0.933472,0.310852
1470242953215226,0.00634766,0.179016,-0.933472,0.310852
1470242953231253,0.00634766,0.179016,-0.933472,0.310852
1470242953253760,0.00628662,0.179016,-0.933472,0.310852
1470242953275278,0.00628662,0.179077,-0.933411,0.310852
1470242953291293,0.00628662,0.179077,-0.933411,0.310852
1470242953313832,0.00628662,0.179016,-0.933472,0.310852
1470242953336334,0.00628662,0.179016,-0.933472,0.310852
1470242953351363,0.00628662,0.179077,-0.933411,0.310852
1470242953373870,0.00622559,0.179077,-0.933411,0.310791
1470242953394916,0.00628662,0.178894,-0.933472,0.310791
1470242953411400,0.00628662,0.178711,-0.933533,0.310852
1470242953433923,0.00628662,0.178711,-0.933533,0.310852
1470242953454971,0.00628662,0.178711,-0.933472,0.310852
1470242953471455,0.00628662,0.178711,-0.933472,0.310852
1470242953493976,0.00622559,0.178772,-0.933533,0.310852
1470242953515074,0.00622559,0.178772,-0.933472,0.310791
1470242953531508,0.00622559,0.178772,-0.933472,0.310791
1470242953554029,0.00616455,0.178833,-0.933472,0.310791
1470242953575148,0.00616455,0.178833,-0.933472,0.310791
1470242953591562,0.00616455,0.178833,-0.933472,0.310791
1470242953614083,0.00616455,0.178833,-0.933472,0.310791
1470242953636103,0.00616455,0.178833,-0.933472,0.310791
1470242953651116,0.00616455,0.178772,-0.933472,0.310791
1470242953673636,0.00592041,0.178955,-0.933472,0.310852
1470242953696201,0.00469971,0.181335,-0.932861,0.31134
1470242953710671,0.00360107,0.185669,-0.931824,0.311768
1470242953733691,0.00299072,0.186584,-0.931702,0.311646
1470242953756711,0.00360107,0.18512,-0.932129,0.311218
1470242953770726,0.00427246,0.184021,-0.932434,0.310974
1470242953793790,0.00390625,0.184448,-0.932312,0.311096
1470242953816269,0.0032959,0.185059,-0.932129,0.311279
1470242953831288,0.00323486,0.184998,-0.93219,0.311218
1470242953853798,0.00335693,0.184692,-0.932251,0.311096
1470242953876319,0.00335693,0.184692,-0.932251,0.311096
1470242953890832,0.00335693,0.184692,-0.932251,0.311096
1470242953913852,0.0032959,0.184509,-0.932312,0.311035
1470242953936372,0.0032959,0.184448,-0.932312,0.311035
1470242953950885,0.0032959,0.184448,-0.932312,0.311035
1470242953973928,0.0032959,0.184509,-0.932312,0.311035
1470242953996439,0.0032959,0.184509,-0.932312,0.311035
1470242954011439,0.0032959,0.184509,-0.932312,0.311035
1470242954033959,0.0032959,0.184509,-0.932312,0.311035
1470242954056480,0.00323486,0.184509,-0.932312,0.310974
1470242954070993,0.00323486,0.184509,-0.932312,0.310974
1470242954094013,0.00305176,0.184753,-0.932312,0.310974
1470242954116534,0.00305176,0.184753,-0.932312,0.310974
1470242954137581,0.00305176,0.184814,-0.932312,0.310974
1470242954154068,0.00305176,0.184814,-0.932312,0.310974
1470242954176207,0.00299072,0.184814,-0.932312,0.310974
1470242954197696,0.00299072,0.184875,-0.932312,0.310974
1470242954214150,0.00299072,0.184875,-0.932312,0.310974
1470242954236159,0.00299072,0.184875,-0.932251,0.310974
1470242954257660,0.00299072,0.184875,-0.932251,0.310974
1470242954288721,0.00286865,0.18512,-0.932251,0.310852
1470242954296696,0.00280762,0.185547,-0.93219,0.310791
1470242954317734,0.00280762,0.185547,-0.93219,0.310791
1470242954333729,0.00274658,0.185547,-0.93219,0.310791
1470242954356249,0.00274658,0.185547,-0.93219,0.310791
1470242954377768,0.00274658,0.185608,-0.93219,0.31073
1470242954393793,0.00268555,0.185913,-0.93219,0.310608
1470242954416306,0.00256348,0.186462,-0.932129,0.310486
1470242954437909,0.00250244,0.18689,-0.932068,0.310303
1470242954453875,0.00256348,0.187073,-0.932129,0.31012
1470242954476358,0.00250244,0.187073,-0.932129,0.31012
1470242954497883,0.00250244,0.187073,-0.932129,0.31012
1470242954513891,0.00244141,0.187378,-0.932129,0.309937
1470242954536411,0.00244141,0.187378,-0.932129,0.309937
1470242954564952,0.00244141,0.187378,-0.932129,0.309937
1470242954573945,0.00244141,0.187378,-0.932129,0.309937
1470242954596468,0.00244141,0.187439,-0.932129,0.309937
1470242954618997,0.00244141,0.187439,-0.932129,0.309937
1470242954633999,0.00238037,0.187439,-0.932129,0.309937
1470242954656518,0.00238037,0.1875,-0.932129,0.309937
1470242954679055,0.00238037,0.1875,-0.932068,0.309937
1470242954694052,0.00238037,0.1875,-0.932068,0.309937
1470242954716072,0.00231934,0.187561,-0.932068,0.309937
1470242954739093,0.00231934,0.187561,-0.932068,0.309937
1470242954753118,0.00231934,0.187561,-0.932068,0.309937
1470242954776135,0.00231934,0.187561,-0.932068,0.309937
1470242954799147,0.00231934,0.187622,-0.932068,0.309937
1470242954813159,0.00231934,0.187622,-0.932068,0.309937
1470242954836680,0.00231934,0.187622,-0.932068,0.309937
1470242954858701,0.0022583,0.187683,-0.932068,0.309937
1470242954873213,0.0022583,0.187683,-0.932068,0.309875
1470242954896734,0.0022583,0.187744,-0.932068,0.309875
1470242954918756,0.0022583,0.187744,-0.932068,0.309875
1470242954933269,0.0020752,0.18811,-0.932007,0.309875
1470242954956300,0.00183105,0.188354,-0.931946,0.309875
1470242954978808,0.00183105,0.188416,-0.931946,0.309875
1470242954993325,0.00183105,0.188416,-0.931946,0.309875
1470242955016394,0.00183105,0.188477,-0.931946,0.309875
1470242955038862,0.00183105,0.188477,-0.931946,0.309875
1470242955053375,0.00183105,0.188477,-0.931946,0.309875
1470242955076395,0.00177002,0.188477,-0.931946,0.309814
1470242955098916,0.00177002,0.188538,-0.931946,0.309814
1470242955121437,0.00177002,0.188538,-0.931946,0.309814
1470242955136453,0.00177002,0.188599,-0.931885,0.309814
1470242955158972,0.00177002,0.188599,-0.931885,0.309814
1470242955179988,0.00170898,0.188599,-0.931885,0.309814
1470242955196508,0.00170898,0.18866,-0.931885,0.309814
1470242955218523,0.00170898,0.18866,-0.931885,0.309814
1470242955240045,0.00170898,0.18866,-0.931885,0.309814
1470242955256558,0.00170898,0.18866,-0.931885,0.309814
1470242955279077,0.00170898,0.188721,-0.931885,0.309814
1470242955300098,0.00164795,0.188721,-0.931885,0.309814
1470242955316130,0.00164795,0.188721,-0.931885,0.309814
1470242955339133,0.00164795,0.188721,-0.931885,0.309814
1470242955361151,0.00164795,0.188721,-0.931885,0.309814
1470242955376666,0.00164795,0.188782,-0.931885,0.309814
1470242955399186,0.00164795,0.188782,-0.931885,0.309814
1470242955420204,0.00164795,0.188782,-0.931885,0.309814
1470242955436221,0.00164795,0.188843,-0.931885,0.309814
1470242955458739,0.00164795,0.188843,-0.931885,0.309814
1470242955480348,0.00164795,0.188843,-0.931885,0.309814
1470242955496272,0.00158691,0.188904,-0.931885,0.309753
1470242955518834,0.00158691,0.188904,-0.931885,0.309753
1470242955541313,0.00158691,0.188904,-0.931885,0.309753
1470242955556327,0.00195313,0.188965,-0.931824,0.309937
1470242955578846,0.00213623,0.189148,-0.931702,0.310181
1470242955601368,0.0022583,0.189453,-0.93158,0.310364
1470242955616396,0.0022583,0.189453,-0.93158,0.310364
1470242955638901,0.00244141,0.189575,-0.931519,0.310486
1470242955677935,0.00244141,0.189575,-0.931519,0.310486
1470242955682457,0.00238037,0.189575,-0.931519,0.310486
1470242955698960,0.00238037,0.189575,-0.931519,0.310486
1470242955721479,0.00244141,0.189575,-0.931458,0.310486
1470242955735487,0.00244141,0.189636,-0.931458,0.310486
1470242955759010,0.00238037,0.189636,-0.931458,0.310486
1470242955781531,0.00238037,0.189697,-0.931458,0.310486
1470242955795545,0.00238037,0.189697,-0.931458,0.310486
1470242955819062,0.00238037,0.189758,-0.931458,0.310486
1470242955841583,0.00238037,0.189758,-0.931458,0.310486
1470242955855613,0.00238037,0.190063,-0.931396,0.310425
1470242955879146,0.00231934,0.190369,-0.931396,0.310364
1470242955901636,0.00231934,0.190369,-0.931396,0.310364
1470242955915670,0.0022583,0.19043,-0.931396,0.310181
1470242955945189,0.00219727,0.190552,-0.931519,0.309875
1470242955961690,0.00213623,0.190674,-0.93158,0.30957
1470242955975705,0.0020752,0.190918,-0.93158,0.309448
1470242955998723,0.00170898,0.191406,-0.931519,0.309387
1470242956021251,0.000488281,0.192688,-0.931213,0.309448
1470242956042763,-0.00177002,0.194885,-0.930542,0.310059
1470242956058777,-0.00524902,0.199158,-0.929321,0.311035
1470242956081299,-0.00872803,0.204285,-0.927979,0.311523
1470242956102824,-0.0102539,0.20813,-0.927124,0.311584
1470242956118831,-0.0111694,0.210449,-0.926636,0.311279
1470242956141351,-0.00958252,0.213196,-0.926208,0.310791
1470242956162907,-0.00970459,0.216797,-0.925354,0.310852
1470242956178885,-0.00848389,0.220154,-0.9245,0.311157
1470242956201408,-0.00341797,0.223755,-0.92395,0.310364
1470242956222466,0.00189209,0.228577,-0.922668,0.310486
1470242956238962,0.00756836,0.235352,-0.920532,0.311707
1470242956261460,0.0146484,0.242004,-0.918274,0.313049
1470242956282506,0.0230713,0.248291,-0.915833,0.314697
1470242956298025,0.0326538,0.254883,-0.913025,0.316772
1470242956321537,0.0429688,0.262146,-0.909546,0.31958
1470242956342561,0.0544434,0.270203,-0.905457,0.322815
1470242956358547,0.067627,0.278625,-0.900818,0.326172
1470242956389074,0.0817871,0.287598,-0.895508,0.329712
1470242956402679,0.0960693,0.29718,-0.889465,0.333618
1470242956418100,0.110474,0.307373,-0.882874,0.337402
1470242956441640,0.12677,0.316895,-0.875732,0.341431
1470242956462640,0.143494,0.321045,-0.86969,0.346436
1470242956478156,0.157349,0.321045,-0.864807,0.352539
1470242956501675,0.174255,0.320679,-0.85907,0.358887
1470242956524196,0.189514,0.323181,-0.853455,0.362305
1470242956538208,0.201294,0.326111,-0.8479,0.366211
1470242956561730,0.209961,0.328003,-0.843567,0.369812
1470242956583751,0.216125,0.329102,-0.840576,0.372009
1470242956598288,0.221008,0.329407,-0.838928,0.37262
1470242956621290,0.224731,0.329529,-0.83783,0.372803
1470242956643807,0.226196,0.331421,-0.836426,0.373413
1470242956666323,0.225586,0.334961,-0.834961,0.37384
1470242956681337,0.224976,0.337524,-0.834106,0.373718
1470242956703857,0.225037,0.337891,-0.834106,0.373474
1470242956725376,0.224915,0.336853,-0.834595,0.373291
1470242956741391,0.223206,0.335876,-0.83551,0.37323
1470242956771439,0.219543,0.335449,-0.836731,0.373047
1470242956784963,0.214355,0.335571,-0.838196,0.37262
1470242956801446,0.208435,0.336121,-0.839722,0.372009
1470242956823965,0.202087,0.336609,-0.841492,0.371094
1470242956845003,0.194702,0.336182,-0.843994,0.369751
1470242956861498,0.18457,0.334473,-0.847839,0.367676
1470242956884037,0.171509,0.33252,-0.852661,0.364685
1470242956905059,0.157104,0.329956,-0.858337,0.360046
1470242956921554,0.14209,0.326538,-0.864624,0.354431
1470242956944072,0.125549,0.32373,-0.870728,0.348206
1470242956965104,0.107178,0.324097,-0.875732,0.341492
1470242956981606,0.0870972,0.326904,-0.879822,0.333923
1470242957004126,0.0665283,0.331055,-0.88324,0.325439
1470242957009161,0.0487671,0.331482,-0.887695,0.315857
1470242957032272,0.0352173,0.325989,-0.893616,0.306458
1470242957047213,0.0240479,0.318115,-0.898865,0.300537
1470242957069766,0.012207,0.311096,-0.903076,0.295898
1470242957092218,0.000183105,0.306091,-0.906677,0.290344
1470242957106721,-0.010498,0.303772,-0.908936,0.285339
1470242957129239,-0.0186157,0.301392,-0.911133,0.280518
1470242957152267,-0.024353,0.298645,-0.913208,0.276245
1470242957166773,-0.0291748,0.295227,-0.915161,0.27301
1470242957189309,-0.0325317,0.290833,-0.916992,0.271118
1470242957211840,-0.0348511,0.286926,-0.918213,0.270935
1470242957226864,-0.0368042,0.283752,-0.919128,0.270874
1470242957252401,-0.0379639,0.281799,-0.919617,0.271057
1470242957271888,-0.0384521,0.28009,-0.919922,0.271606
1470242957286898,-0.0385132,0.277039,-0.920715,0.272217
1470242957309428,-0.0379639,0.272766,-0.921753,0.273132
1470242957340929,-0.0369263,0.268066,-0.922791,0.274414
1470242957346964,-0.0356445,0.263,-0.92395,0.275391
1470242957369482,-0.0344849,0.257629,-0.925354,0.276001
1470242957391976,-0.0339966,0.254272,-0.926086,0.276794
1470242957407014,-0.0342407,0.253845,-0.925964,0.277527
1470242957429512,-0.0344238,0.253723,-0.925903,0.277893
1470242957452029,-0.0339355,0.25238,-0.926147,0.278198
1470242957467042,-0.0335083,0.250549,-0.926514,0.27887
1470242957497103,-0.0332031,0.24884,-0.926758,0.279602
1470242957507079,-0.0327759,0.247192,-0.926941,0.280457
1470242957527096,-0.0321045,0.245789,-0.927124,0.281128
1470242957549621,-0.0315552,0.24585,-0.927002,0.281616
1470242957567134,-0.0315552,0.247314,-0.926514,0.28186
1470242957586665,-0.0317993,0.249329,-0.925903,0.282043
1470242957609670,-0.0320435,0.250305,-0.925537,0.282288
1470242957627219,-0.0319824,0.249634,-0.925659,0.282593
1470242957647220,-0.0313721,0.247803,-0.926147,0.282715
1470242957669766,-0.0307007,0.246155,-0.926514,0.282959
1470242957687269,-0.0305176,0.245728,-0.926514,0.283264
1470242957706764,-0.0309448,0.246643,-0.926208,0.283569
1470242957729305,-0.0314331,0.247559,-0.925842,0.283875
1470242957747337,-0.0314941,0.247681,-0.925659,0.284241
1470242957766811,-0.03125,0.247192,-0.92572,0.284668
1470242957789390,-0.0310059,0.246704,-0.92572,0.285034
1470242957807349,-0.0309448,0.246826,-0.925598,0.2854
1470242957826866,-0.0309448,0.247131,-0.925415,0.285767
1470242957849414,-0.0310059,0.247253,-0.925232,0.286133
1470242957867424,-0.0310059,0.24707,-0.925171,0.286438
1470242957894451,-0.0310059,0.246704,-0.925171,0.286743
1470242957909454,-0.0307617,0.246277,-0.925232,0.287048
1470242957927460,-0.0307007,0.246033,-0.925232,0.287292
1470242957947064,-0.0307617,0.246033,-0.925171,0.287476
1470242957969537,-0.0309448,0.246094,-0.925049,0.287659
1470242957987516,-0.031189,0.246399,-0.924988,0.28772
1470242958007027,-0.031189,0.246704,-0.924927,0.287659
1470242958029549,-0.03125,0.246948,-0.924866,0.287537
1470242958055156,-0.031311,0.247375,-0.924805,0.287476
1470242958068090,-0.0314941,0.247986,-0.924683,0.28717
1470242958089656,-0.031311,0.248474,-0.924683,0.286804
1470242958107165,-0.0310669,0.248718,-0.924744,0.286499
1470242958128184,-0.0310059,0.248962,-0.924744,0.286255
1470242958149203,-0.0310669,0.249268,-0.924683,0.286194
1470242958168222,-0.0311279,0.249023,-0.924683,0.286316
1470242958188239,-0.0311279,0.248657,-0.924744,0.286499
1470242958209762,-0.031311,0.248291,-0.924805,0.28656
1470242958227340,-0.031311,0.248291,-0.924805,0.28656
1470242958248308,-0.0314941,0.248413,-0.924805,0.286499
1470242958269311,-0.0316772,0.248718,-0.924683,0.286499
1470242958287359,-0.0316772,0.248718,-0.924683,0.286499
1470242958308345,-0.0316772,0.248779,-0.924683,0.286499
1470242958332403,-0.0314941,0.248657,-0.924744,0.286499
1470242958347399,-0.0314331,0.248657,-0.924744,0.28656
1470242958369901,-0.03125,0.248474,-0.924744,0.286621
1470242958389450,-0.0310669,0.248108,-0.924866,0.286621
1470242958407439,-0.0310059,0.247681,-0.924927,0.286682
1470242958429955,-0.0310059,0.247681,-0.924988,0.286682
1470242958452499,-0.0310059,0.247681,-0.924988,0.286682
1470242958467488,-0.0310669,0.247681,-0.924988,0.286621
1470242958490008,-0.0311279,0.24762,-0.924988,0.286621
1470242958509528,-0.0309448,0.247437,-0.925049,0.286682
1470242958527596,-0.0308228,0.247192,-0.92511,0.286682
1470242958550089,-0.0306396,0.24707,-0.92511,0.286743
1470242958569584,-0.0305176,0.246826,-0.925171,0.286804
1470242958587096,-0.0305176,0.246826,-0.925171,0.286804
1470242958609618,-0.0305176,0.246826,-0.925171,0.286804
1470242958637147,-0.0305176,0.246826,-0.925171,0.286804
1470242958647171,-0.0305176,0.246582,-0.925232,0.286865
1470242958669670,-0.0305786,0.24646,-0.925232,0.286804
1470242958689187,-0.0305786,0.24646,-0.925232,0.286804
1470242958707204,-0.0305786,0.24646,-0.925232,0.286804
1470242958729752,-0.0306396,0.24646,-0.925232,0.286804
1470242958749242,-0.0305786,0.246521,-0.925232,0.286804
1470242958767258,-0.0303955,0.246155,-0.925354,0.286865
1470242958789780,-0.0302734,0.24585,-0.925415,0.286926
1470242958809302,-0.0302734,0.245789,-0.925415,0.286926
1470242958827337,-0.0302734,0.245789,-0.925415,0.286926
1470242958849933,-0.0302734,0.246033,-0.925354,0.286926
1470242958870850,-0.0303345,0.246094,-0.925293,0.286926
1470242958887376,-0.0303345,0.246094,-0.925293,0.286926
1470242958917392,-0.0303345,0.246094,-0.925293,0.286926
1470242958929417,-0.0303345,0.246094,-0.925293,0.286926
1470242958947433,-0.0303955,0.246094,-0.925293,0.286926
1470242958969979,-0.0303955,0.246094,-0.925293,0.286926
1470242958990959,-0.0304565,0.246338,-0.925232,0.286926
1470242959007475,-0.0304565,0.246338,-0.925232,0.286926
1470242959030057,-0.0304565,0.246338,-0.925232,0.286926
1470242959051011,-0.0304565,0.246338,-0.925232,0.286926
1470242959067028,-0.0304565,0.246338,-0.925232,0.286926
1470242959090048,-0.0305176,0.246399,-0.925232,0.286926
1470242959110566,-0.0305176,0.246399,-0.925232,0.286926
1470242959127081,-0.0305176,0.246399,-0.925232,0.286926
1470242959150245,-0.0305176,0.246399,-0.925232,0.286926
1470242959170620,-0.0305176,0.246399,-0.925232,0.286926
1470242959187771,-0.0305176,0.246399,-0.925232,0.286926
1470242959217783,-0.0305176,0.246399,-0.925232,0.286926
1470242959230676,-0.0305176,0.246399,-0.925232,0.286926
1470242959247315,-0.0305176,0.24646,-0.925232,0.286926
1470242959269756,-0.0305176,0.24646,-0.925232,0.286926
1470242959290729,-0.0305176,0.24646,-0.925232,0.286926
1470242959307242,-0.0305176,0.24646,-0.925232,0.286926
1470242959329788,-0.0305176,0.24646,-0.925232,0.286926
1470242959352298,-0.0305176,0.24646,-0.925232,0.286926
1470242959367297,-0.0305176,0.24646,-0.925232,0.286926
1470242959389852,-0.0305786,0.246643,-0.925171,0.286926
1470242959412370,-0.0305786,0.246704,-0.925171,0.286926
1470242959427350,-0.0305786,0.246704,-0.925171,0.286926
1470242959449919,-0.0305786,0.246704,-0.925171,0.286926
1470242959472496,-0.0305786,0.246704,-0.925171,0.286926
1470242959492910,-0.0305786,0.246704,-0.925171,0.286926
1470242959508924,-0.0305786,0.246704,-0.925171,0.286926
1470242959531445,-0.0305786,0.246704,-0.925171,0.286926
1470242959559970,-0.0305786,0.246704,-0.925171,0.286926
1470242959568977,-0.0305786,0.246704,-0.925171,0.286926
1470242959591498,-0.0305786,0.246704,-0.925171,0.286926
1470242959612516,-0.0305786,0.246704,-0.925171,0.286926
1470242959629050,-0.0305786,0.246704,-0.925171,0.286926
1470242959651551,-0.0305786,0.246704,-0.925171,0.286926
1470242959666065,-0.0305786,0.246704,-0.925171,0.286926
1470242959689132,-0.0305786,0.246704,-0.925171,0.286926
1470242959717655,-0.0305786,0.246704,-0.925171,0.286926
1470242959725618,-0.0305786,0.246704,-0.925171,0.286926
1470242959749139,-0.0305786,0.246704,-0.925171,0.286926
1470242959771680,-0.0305786,0.246704,-0.92511,0.286926
1470242959785674,-0.0305786,0.246765,-0.92511,0.286926
1470242959808693,-0.0305786,0.246765,-0.92511,0.286926
1470242959831212,-0.0305176,0.246582,-0.925171,0.286865
1470242959852751,-0.0303955,0.24646,-0.925232,0.286804
1470242959868748,-0.0301514,0.246216,-0.925354,0.286682
1470242959891767,-0.0298462,0.246277,-0.925415,0.286499
1470242959912803,-0.0298462,0.246338,-0.925415,0.286499
1470242959928800,-0.0298462,0.246338,-0.925354,0.286682
1470242959951321,-0.0298462,0.245972,-0.925415,0.286865
1470242959972840,-0.029541,0.245239,-0.925537,0.286987
1470242959988855,-0.0292358,0.244812,-0.925659,0.287048
1470242960011376,-0.0291138,0.245056,-0.925537,0.287292
1470242960032894,-0.0289307,0.245422,-0.925354,0.287598
1470242960048908,-0.0286255,0.245728,-0.92511,0.288086
1470242960071465,-0.0283813,0.245728,-0.924988,0.288452
1470242960092510,-0.0280151,0.2453,-0.925171,0.288391
