timestamp,x,y,z,w
1470247110303658,-0.149597,0.0134277,-0.43042,0.890015
1470247110320174,-0.149536,0.0134888,-0.43042,0.890015
1470247110342694,-0.149536,0.0135498,-0.43042,0.890015
1470247110363712,-0.149536,0.0135498,-0.43042,0.890015
1470247110379726,-0.149597,0.0136719,-0.430603,0.889954
1470247110402747,-0.149597,0.0136719,-0.430603,0.889954
1470247110423766,-0.149597,0.0136719,-0.430603,0.889954
1470247110439780,-0.149536,0.0136719,-0.430603,0.889954
1470247110462801,-0.149536,0.0136719,-0.430603,0.889954
1470247110483820,-0.149536,0.0136719,-0.430603,0.889954
1470247110499834,-0.149414,0.0136108,-0.430603,0.889954
1470247110522357,-0.149109,0.0134888,-0.430603,0.890015
1470247110543874,-0.14917,0.0134888,-0.430603,0.890015
1470247110559889,-0.14917,0.0135498,-0.430603,0.890015
1470247110582909,-0.14917,0.0135498,-0.430603,0.890015
1470247110604929,-0.14917,0.0135498,-0.430603,0.890015
1470247110628450,-0.149231,0.0135498,-0.430603,0.890015
1470247110629951,-0.149231,0.0135498,-0.430603,0.890015
1470247110647968,-0.149231,0.0135498,-0.430603,0.890015
1470247110670988,-0.149231,0.0135498,-0.430603,0.890015
1470247110685502,-0.149231,0.0135498,-0.430603,0.890015
1470247110709522,-0.149231,0.0135498,-0.430603,0.890015
1470247110730541,-0.149231,0.0135498,-0.430603,0.890015
1470247110747056,-0.149292,0.0135498,-0.430603,0.890015
1470247110768076,-0.149292,0.0135498,-0.430603,0.890015
1470247110790595,-0.149292,0.0136108,-0.430603,0.890015
1470247110805609,-0.149292,0.0135498,-0.430603,0.890015
1470247110827629,-0.149292,0.0135498,-0.430603,0.890015
1470247110850650,-0.149292,0.0135498,-0.430603,0.890015
1470247110865163,-0.149292,0.0135498,-0.430603,0.890015
1470247110887683,-0.149292,0.0135498,-0.430603,0.890015
1470247110910703,-0.149292,0.0135498,-0.430603,0.890015
1470247110933224,-0.149292,0.0135498,-0.430603,0.890015
1470247110947736,-0.149292,0.0135498,-0.430603,0.890015
1470247110970258,-0.149292,0.0136108,-0.430603,0.890015
1470247110985272,-0.149292,0.0136108,-0.430603,0.890015
1470247111007790,-0.149292,0.0136108,-0.430603,0.890015
1470247111030811,-0.149292,0.0136108,-0.430603,0.890015
1470247111045324,-0.149292,0.0136108,-0.430603,0.890015
1470247111067845,-0.149292,0.0136108,-0.430603,0.890015
1470247111090365,-0.149292,0.0136108,-0.430603,0.890015
1470247111105379,-0.149292,0.0136108,-0.430603,0.890015
1470247111127899,-0.149292,0.0136108,-0.430603,0.890015
1470247111150919,-0.149292,0.0136108,-0.430603,0.890015
1470247111166934,-0.149292,0.0136108,-0.430603,0.890015
1470247111187952,-0.149292,0.0136108,-0.430603,0.890015
1470247111210473,-0.149353,0.0136108,-0.430603,0.890015
1470247111226987,-0.149353,0.0136108,-0.430603,0.890015
1470247111248006,-0.149353,0.0136108,-0.430603,0.890015
1470247111270526,-0.149353,0.0136719,-0.430542,0.890015
1470247111287041,-0.149292,0.0136719,-0.430603,0.890015
1470247111308061,-0.149292,0.0136719,-0.430603,0.890015
1470247111330580,-0.149231,0.0136719,-0.430603,0.890015
1470247111347095,-0.149231,0.0136719,-0.430603,0.890015
1470247111368114,-0.149231,0.0136719,-0.430603,0.890015
1470247111390133,-0.149292,0.0136719,-0.430603,0.890015
1470247111406649,-0.149292,0.0136719,-0.430603,0.890015
1470247111427667,-0.149292,0.0137329,-0.430603,0.890015
1470247111450689,-0.149292,0.0137329,-0.430603,0.890015
1470247111466703,-0.149353,0.0137329,-0.430603,0.890015
1470247111488221,-0.149353,0.0137329,-0.430603,0.890015
1470247111510243,-0.149353,0.0137329,-0.430603,0.890015
1470247111528258,-0.149353,0.0137329,-0.430603,0.890015
1470247111547775,-0.149353,0.0137329,-0.430603,0.890015
1470247111570295,-0.149353,0.0137329,-0.430603,0.890015
1470247111588312,-0.149353,0.0137329,-0.430603,0.890015
1470247111607829,-0.149353,0.0137329,-0.430603,0.890015
1470247111630350,-0.149353,0.0137329,-0.430603,0.890015
1470247111648367,-0.149414,0.0137329,-0.430603,0.890015
1470247111667885,-0.149414,0.0137329,-0.430603,0.890015
1470247111691905,-0.149414,0.0137329,-0.430542,0.890015
1470247111708420,-0.149414,0.0137329,-0.430542,0.890015
1470247111727939,-0.149414,0.0137329,-0.430542,0.890015
1470247111750459,-0.149414,0.0137329,-0.430542,0.890015
1470247111768473,-0.149414,0.0137329,-0.430542,0.890015
1470247111787990,-0.149475,0.0137329,-0.430542,0.889954
1470247111810511,-0.149475,0.0137939,-0.430542,0.889954
1470247111828527,-0.149475,0.0137939,-0.430542,0.889954
1470247111848046,-0.149475,0.0137939,-0.430542,0.889954
1470247111870565,-0.149475,0.0137329,-0.430542,0.889954
1470247111888582,-0.149475,0.0137939,-0.430542,0.889954
1470247111908098,-0.149475,0.0137939,-0.430542,0.889954
1470247111930621,-0.149475,0.0137939,-0.430542,0.889954
1470247111948635,-0.149475,0.0137939,-0.430542,0.889954
1470247111968152,-0.149536,0.0137939,-0.430542,0.889954
1470247111990673,-0.149536,0.0137939,-0.430542,0.889954
1470247112008189,-0.149536,0.0137939,-0.430542,0.889954
1470247112029208,-0.149536,0.0137939,-0.430542,0.889954
1470247112050727,-0.149841,0.0136108,-0.430542,0.889893
1470247112068243,-0.150513,0.0134277,-0.430664,0.889771
1470247112088260,-0.153687,0.0130005,-0.430481,0.889343
1470247112110281,-0.162476,0.0119629,-0.429871,0.888062
1470247112128297,-0.178406,0.0128784,-0.428955,0.885437
1470247112149316,-0.198486,0.0175781,-0.426697,0.882202
1470247112170334,-0.21936,0.0227661,-0.423035,0.878845
1470247112188367,-0.233948,0.0285034,-0.415039,0.878723
1470247112209369,-0.239746,0.0371704,-0.395325,0.885925
1470247112230416,-0.248352,0.0438843,-0.364563,0.896362
1470247112248407,-0.261536,0.0465088,-0.325378,0.907471
1470247112269423,-0.276062,0.0418091,-0.279236,0.918701
1470247112290463,-0.289795,0.0298462,-0.225525,0.929626
1470247112308459,-0.306824,0.012085,-0.167664,0.936768
1470247112329477,-0.325317,-0.00958252,-0.111023,0.938965
1470247112350515,-0.342346,-0.0323486,-0.060791,0.937012
1470247112368531,-0.356567,-0.0531006,-0.020813,0.932495
1470247112389531,-0.365784,-0.067749,0.00964355,0.928162
1470247112410605,-0.372498,-0.0783691,0.0327759,0.924133
1470247112428565,-0.375732,-0.0881348,0.0481567,0.921265
1470247112449101,-0.378418,-0.0965576,0.0583496,0.918701
1470247112470686,-0.379333,-0.103516,0.0653687,0.917114
1470247112488121,-0.379578,-0.108887,0.0709229,0.915955
1470247112510640,-0.379272,-0.11261,0.0752563,0.915283
1470247112530657,-0.376831,-0.11499,0.0788574,0.91571
1470247112548674,-0.372864,-0.116577,0.0820923,0.91687
1470247112570694,-0.369385,-0.118286,0.0847168,0.917786
1470247112590225,-0.366211,-0.120178,0.0864258,0.918701
1470247112608228,-0.363098,-0.121765,0.0873413,0.919617
1470247112630748,-0.360352,-0.123047,0.0870361,0.920532
1470247112650765,-0.357544,-0.124146,0.0849609,0.921692
1470247112668281,-0.353577,-0.124878,0.0806885,0.923523
1470247112690802,-0.345703,-0.124207,0.0726929,0.927246
1470247112710321,-0.33374,-0.122375,0.0596924,0.932739
1470247112728386,-0.31958,-0.121216,0.0392456,0.938965
1470247112750885,-0.305359,-0.112976,0.0112305,0.945435
1470247112770375,-0.28717,-0.100891,-0.0272827,0.952148
1470247112788389,-0.264587,-0.0847778,-0.0765991,0.957581
1470247112809960,-0.241089,-0.0648193,-0.136597,0.958618
1470247112830427,-0.215088,-0.0404663,-0.202209,0.95459
1470247112848444,-0.189209,-0.0143433,-0.270081,0.94397
1470247112870997,-0.160034,0.0110474,-0.334778,0.928528
1470247112890509,-0.12915,0.0297852,-0.394592,0.909241
1470247112908499,-0.103699,0.0420532,-0.447083,0.887451
1470247112931521,-0.0829468,0.0514526,-0.490784,0.865784
1470247112950553,-0.0622559,0.057251,-0.525513,0.846558
1470247112976057,-0.0436401,0.0588379,-0.552673,0.830139
1470247112991071,-0.0297241,0.059082,-0.573486,0.816528
1470247113010671,-0.0200806,0.0582886,-0.588562,0.806091
1470247113028605,-0.0155029,0.059021,-0.600037,0.797668
1470247113051188,-0.0112305,0.0574951,-0.608643,0.791321
1470247113072144,-0.00744629,0.053833,-0.614746,0.786865
1470247113088749,-0.00482178,0.0496826,-0.618652,0.784058
1470247113111178,-0.00415039,0.0458984,-0.621155,0.782349
1470247113132198,-0.00537109,0.0423584,-0.622742,0.78125
1470247113156249,-0.00970459,0.0393066,-0.624207,0.780212
1470247113170254,-0.0166016,0.0360107,-0.625854,0.778931
1470247113191251,-0.0240479,0.0321045,-0.627136,0.777893
1470247113213812,-0.0299683,0.0276489,-0.628174,0.776978
1470247113230286,-0.0343628,0.0230103,-0.629578,0.775818
1470247113251304,-0.0392456,0.0181885,-0.631592,0.774109
1470247113273825,-0.0458984,0.0134888,-0.633972,0.771851
1470247113289860,-0.0531616,0.00897217,-0.636169,0.769653
1470247113311485,-0.0596313,0.00512695,-0.638062,0.767639
1470247113326872,-0.0635986,0.000915527,-0.640259,0.765503
1470247113349893,-0.0665283,-0.00402832,-0.642944,0.763
1470247113370913,-0.0698242,-0.00933838,-0.646118,0.759949
1470247113386926,-0.0740356,-0.0142822,-0.649353,0.756775
1470247113409947,-0.0795898,-0.0180664,-0.652222,0.753662
1470247113432493,-0.0856323,-0.020752,-0.654724,0.750732
1470247113446982,-0.0908203,-0.0235596,-0.657166,0.747925
1470247113470001,-0.0946045,-0.0270996,-0.659485,0.745239
1470247113492521,-0.0976563,-0.0308228,-0.661377,0.743042
1470247113507035,-0.100586,-0.0338745,-0.662964,0.741089
1470247113530055,-0.103394,-0.0359497,-0.664368,0.73938
1470247113552576,-0.106262,-0.0372925,-0.665588,0.737793
1470247113573609,-0.108521,-0.038269,-0.666504,0.736572
1470247113597617,-0.110229,-0.0387573,-0.667175,0.735718
1470247113612629,-0.112122,-0.0383301,-0.667297,0.735352
1470247113633671,-0.115723,-0.0361328,-0.666809,0.735291
1470247113650163,-0.121277,-0.0316772,-0.665527,0.735779
1470247113672683,-0.129395,-0.0241699,-0.66272,0.737244
1470247113693768,-0.141113,-0.0140991,-0.658081,0.739502
1470247113710216,-0.154602,-0.00201416,-0.651428,0.742798
1470247113732736,-0.165894,0.00976563,-0.640564,0.749695
1470247113753767,-0.166199,0.020813,-0.621887,0.764954
1470247113770270,-0.159668,0.0255127,-0.589844,0.791138
1470247113792792,-0.149902,0.0247803,-0.542236,0.826416
1470247113813810,-0.14447,0.0206299,-0.480957,0.864502
1470247113829826,-0.148132,0.0126953,-0.408752,0.900452
1470247113852345,-0.162781,0.000244141,-0.330322,0.929749
1470247113873987,-0.188538,-0.0169067,-0.254395,0.948364
1470247113890378,-0.217102,-0.0362549,-0.188599,0.957031
1470247113912399,-0.234375,-0.0540771,-0.131104,0.961731
1470247113933918,-0.25531,-0.0739746,-0.0838623,0.960327
1470247113949940,-0.282837,-0.0916138,-0.0471191,0.953613
1470247113972452,-0.30426,-0.102539,-0.0202026,0.946838
1470247113994057,-0.318542,-0.112305,0.000732422,0.941223
1470247114009986,-0.325806,-0.124268,0.0146484,0.937134
1470247114032506,-0.33252,-0.136414,0.0233154,0.932861
1470247114053565,-0.338013,-0.145752,0.0292969,0.929321
1470247114070040,-0.340759,-0.152344,0.0343018,0.927063
1470247114094061,-0.340576,-0.156677,0.0388184,0.92627
1470247114113607,-0.338074,-0.15918,0.0429688,0.926575
1470247114130094,-0.335388,-0.16095,0.0464478,0.927063
1470247114152614,-0.334167,-0.162781,0.0488892,0.927063
1470247114173661,-0.333984,-0.1651,0.050415,0.926636
1470247114189647,-0.334045,-0.167542,0.0515747,0.926086
1470247114212668,-0.334351,-0.169556,0.0529785,0.925537
1470247114233688,-0.334961,-0.171753,0.0537109,0.924866
1470247114250242,-0.335266,-0.173645,0.053772,0.924377
1470247114272722,-0.335144,-0.175171,0.0535889,0.924194
1470247114293771,-0.335022,-0.176636,0.0534668,0.92395
1470247114310255,-0.334778,-0.178101,0.0536499,0.923767
1470247114332775,-0.334167,-0.179382,0.0541992,0.923645
1470247114353850,-0.332031,-0.180481,0.0545044,0.924194
1470247114370312,-0.327942,-0.180969,0.0540161,0.925598
1470247114392829,-0.320374,-0.179932,0.0512085,0.92865
1470247114415350,-0.309692,-0.176636,0.0440674,0.933228
1470247114429362,-0.296387,-0.170105,0.0303955,0.93927
1470247114452383,-0.284668,-0.158386,0.0100098,0.945374
1470247114474904,-0.27063,-0.142151,-0.0204468,0.951904
1470247114496436,-0.253113,-0.120667,-0.062439,0.957825
1470247114512437,-0.231323,-0.0932007,-0.115723,0.961426
1470247114542464,-0.206909,-0.0602417,-0.178101,0.960083
1470247114555976,-0.180054,-0.0236206,-0.244446,0.952515
1470247114572491,-0.153992,0.0131836,-0.312195,0.937317
1470247114595014,-0.128113,0.0470581,-0.375488,0.916687
1470247114624038,-0.106018,0.072998,-0.430908,0.893127
1470247114632545,-0.0921021,0.0914917,-0.476257,0.869629
1470247114655065,-0.0845337,0.106689,-0.510803,0.848877
1470247114676116,-0.0760498,0.117126,-0.538391,0.831055
1470247114692600,-0.0565796,0.116699,-0.560913,0.817627
1470247114715119,-0.0365601,0.109436,-0.57666,0.808777
1470247114736167,-0.0301514,0.105713,-0.585144,0.803467
1470247114752655,-0.02948,0.105103,-0.588867,0.800842
1470247114775174,-0.0283203,0.103333,-0.591125,0.799438
1470247114796227,-0.0236206,0.098938,-0.592896,0.798828
1470247114820214,-0.0197144,0.0941162,-0.594482,0.79834
1470247114835227,-0.0211182,0.0893555,-0.595764,0.797852
1470247114856274,-0.0281982,0.0858154,-0.596252,0.797729
1470247114872760,-0.0380249,0.083374,-0.595886,0.797791
1470247114895281,-0.0479736,0.0802612,-0.595337,0.797974
1470247114916300,-0.0576172,0.0762329,-0.594849,0.798096
1470247114932316,-0.0668945,0.071228,-0.59436,0.798218
1470247114954838,-0.0750732,0.0655518,-0.593445,0.798645
1470247114976479,-0.0824585,0.0603638,-0.592163,0.799316
1470247114992368,-0.0896606,0.0557861,-0.590332,0.800171
1470247115015389,-0.097168,0.0511475,-0.588318,0.801147
1470247115035938,-0.103271,0.0460205,-0.586243,0.802185
1470247115052423,-0.107178,0.0410767,-0.583984,0.803589
1470247115074943,-0.110107,0.0360718,-0.581787,0.805054
1470247115096461,-0.112854,0.0308228,-0.5802,0.80603
1470247115118981,-0.115784,0.0250244,-0.579346,0.806458
1470247115134998,-0.11908,0.0200195,-0.578491,0.806702
1470247115156517,-0.122986,0.0154419,-0.577576,0.806885
1470247115172029,-0.12738,0.010437,-0.577087,0.806641
1470247115195051,-0.132141,0.00567627,-0.577332,0.805725
1470247115216570,-0.13678,0.00109863,-0.578125,0.804382
1470247115232086,-0.141113,-0.00354004,-0.578979,0.80304
1470247115255104,-0.145325,-0.00823975,-0.579651,0.801758
1470247115276137,-0.149353,-0.0126343,-0.58075,0.800171
1470247115298644,-0.152832,-0.0169678,-0.581787,0.798706
1470247115315658,-0.156494,-0.0214844,-0.582275,0.797485
1470247115337678,-0.160278,-0.0268555,-0.582397,0.796509
1470247115351692,-0.163147,-0.0322266,-0.58252,0.795593
1470247115375211,-0.163025,-0.0373535,-0.583069,0.794983
1470247115397732,-0.160645,-0.0422363,-0.583069,0.795227
1470247115411765,-0.157898,-0.0459595,-0.582825,0.795776
1470247115435266,-0.156128,-0.0485229,-0.58252,0.796204
1470247115457287,-0.15564,-0.0496826,-0.582092,0.79657
1470247115478893,-0.154968,-0.0505371,-0.581909,0.796753
1470247115494819,-0.152832,-0.0519409,-0.582031,0.796997
1470247115517840,-0.149414,-0.053894,-0.58252,0.797119
1470247115531853,-0.145874,-0.0551758,-0.582886,0.797424
1470247115554874,-0.142944,-0.0531006,-0.582397,0.798462
1470247115577894,-0.137085,-0.0457764,-0.580139,0.801575
1470247115598912,-0.127258,-0.03479,-0.576965,0.80603
1470247115614927,-0.108459,-0.0205688,-0.573975,0.811401
1470247115637464,-0.081665,-0.00311279,-0.570068,0.817505
1470247115658967,-0.0496216,0.0186157,-0.565308,0.823181
1470247115675012,-0.0153809,0.0444946,-0.560608,0.826721
1470247115697501,0.0182495,0.0737305,-0.555908,0.827759
1470247115719021,0.0509033,0.103699,-0.551636,0.82605
1470247115735035,0.083252,0.13208,-0.547485,0.822083
1470247115763562,0.113403,0.157227,-0.542908,0.817078
1470247115778575,0.139587,0.177673,-0.537781,0.812195
1470247115795089,0.161499,0.193054,-0.531982,0.808472
1470247115817609,0.180176,0.20343,-0.525757,0.80603
1470247115838634,0.194946,0.20929,-0.520752,0.804382
1470247115855143,0.20874,0.211487,-0.516235,0.803223
1470247115877663,0.21936,0.210449,-0.512573,0.802979
1470247115898715,0.224915,0.206787,-0.509766,0.804199
1470247115915197,0.226135,0.201904,-0.507446,0.80658
1470247115945223,0.224426,0.195557,-0.505981,0.809509
1470247115958780,0.220215,0.187988,-0.505676,0.812622
1470247115975250,0.213074,0.17981,-0.506348,0.815979
1470247115997770,0.202454,0.171997,-0.507996,0.819336
1470247116018789,0.189209,0.164063,-0.510559,0.82251
1470247116035304,0.175476,0.155762,-0.513916,0.825134
1470247116057324,0.160828,0.147217,-0.518127,0.827026
1470247116078926,0.145386,0.138306,-0.522705,0.828552
1470247116094357,0.130554,0.129456,-0.527222,0.82959
1470247116124885,0.11792,0.120178,-0.531799,0.829956
1470247116138897,0.107971,0.110535,-0.536194,0.829834
1470247116154412,0.0978394,0.101013,-0.54071,0.829346
1470247116177433,0.0882568,0.0927124,-0.545227,0.82843
1470247116198951,0.0793457,0.0861206,-0.549377,0.827271
1470247116214465,0.072998,0.0809326,-0.55304,0.825989
1470247116237486,0.0687256,0.0770264,-0.556519,0.824402
1470247116260038,0.06604,0.0745239,-0.560059,0.822449
1470247116274519,0.0656128,0.072876,-0.563416,0.820313
1470247116297561,0.0662231,0.0720825,-0.566223,0.81842
1470247116320060,0.0663452,0.0723267,-0.568726,0.81665
1470247116334576,0.0653076,0.0731201,-0.570679,0.815247
1470247116357594,0.0635376,0.0739136,-0.571716,0.814636
1470247116380114,0.0614624,0.0744629,-0.57196,0.814575
1470247116401640,0.0599365,0.0751343,-0.571472,0.815002
1470247116417647,0.0595093,0.0756836,-0.57019,0.815857
1470247116440168,0.0601196,0.0759277,-0.568115,0.8172
1470247116461243,0.0608521,0.0761719,-0.565247,0.819092
1470247116486230,0.0611572,0.0773315,-0.561462,0.821594
1470247116500222,0.0620728,0.0791016,-0.556946,0.824463
1470247116521300,0.0639648,0.0812988,-0.552002,0.827393
1470247116537756,0.0657959,0.0847168,-0.546265,0.830688
1470247116567783,0.0655518,0.0898438,-0.539368,0.834656
1470247116581294,0.0636597,0.0961304,-0.531006,0.839478
1470247116597809,0.0616455,0.102722,-0.521118,0.844971
1470247116619858,0.0603638,0.109558,-0.509888,0.851074
1470247116641349,0.0593262,0.116394,-0.49707,0.857788
1470247116657863,0.0588379,0.122986,-0.482605,0.865112
1470247116679995,0.0606079,0.128723,-0.466187,0.873169
1470247116700935,0.062561,0.134521,-0.447754,0.881775
1470247116717459,0.0644531,0.139648,-0.427368,0.890869
1470247116739936,0.0664673,0.143921,-0.405151,0.900391
1470247116761456,0.0681763,0.147522,-0.381165,0.910095
1470247116777471,0.0688477,0.150513,-0.355652,0.9198
1470247116799991,0.0682983,0.152466,-0.328552,0.929565
1470247116821518,0.0668945,0.152893,-0.299683,0.93927
1470247116845033,0.0653687,0.151733,-0.269104,0.948792
1470247116860047,0.0631104,0.149048,-0.237122,0.957886
1470247116881097,0.0595703,0.145325,-0.203674,0.966309
1470247116897578,0.0552979,0.140137,-0.16925,0.973938
1470247116927605,0.0510254,0.132813,-0.133667,0.980713
1470247116941161,0.0464478,0.124023,-0.0968628,0.986389
1470247116957632,0.0415039,0.114868,-0.0591431,0.990723
1470247116980154,0.0372314,0.105225,-0.0215454,0.993469
1470247117001190,0.0343018,0.0941162,0.0164795,0.994812
1470247117017186,0.0305786,0.0811157,0.0552979,0.99469
1470247117040207,0.0246582,0.067749,0.0935059,0.992981
1470247117061269,0.0177612,0.0551758,0.129761,0.989807
1470247117076739,0.0115967,0.0429688,0.164734,0.985291
1470247117100260,0.0067749,0.0303955,0.199402,0.97937
1470247117121310,0.000488281,0.0167236,0.233765,0.972107
1470247117136823,-0.00665283,0.00372314,0.266296,0.963806
1470247117159837,-0.0127563,-0.00805664,0.29718,0.954651
1470247117181371,-0.0174561,-0.0189819,0.326538,0.944763
1470247117196847,-0.0211792,-0.0302124,0.354919,0.934143
1470247117220369,-0.0265503,-0.0427856,0.381104,0.923157
1470247117242405,-0.0310669,-0.0530396,0.404419,0.912476
1470247117256901,-0.0332031,-0.0598145,0.425171,0.902466
1470247117279968,-0.034668,-0.0651855,0.444153,0.892883
1470247117302442,-0.0372314,-0.071167,0.460754,0.88385
1470247117316955,-0.0386963,-0.0808105,0.473083,0.876404
1470247117339978,-0.0388794,-0.0884399,0.482422,0.870544
1470247117362496,-0.0377197,-0.0935669,0.489441,0.86615
1470247117384084,-0.0357666,-0.097229,0.494263,0.863098
1470247117400031,-0.0335693,-0.100464,0.495972,0.861816
1470247117422552,-0.0307617,-0.103088,0.494507,0.862488
1470247117443571,-0.0281982,-0.104553,0.490051,0.864868
1470247117460118,-0.0259399,-0.104919,0.482849,0.868958
1470247117482604,-0.0244141,-0.105164,0.47229,0.874756
1470247117503625,-0.0231934,-0.106323,0.457092,0.88269
1470247117520138,-0.0248413,-0.104492,0.438416,0.892273
1470247117542658,-0.0251465,-0.10022,0.416382,0.903259
1470247117563732,-0.0239258,-0.093689,0.391174,0.915161
1470247117580192,-0.0209961,-0.0860596,0.360535,0.928467
1470247117602713,-0.0169678,-0.0782471,0.321655,0.94342
1470247117623746,-0.0125122,-0.0707397,0.275024,0.95874
1470247117640245,-0.00854492,-0.0650024,0.224365,0.97229
1470247117662766,-0.00732422,-0.0614624,0.166016,0.984131
1470247117683817,-0.00646973,-0.0571289,0.101013,0.993164
1470247117700299,0.00299072,-0.0473022,0.0310669,0.998352
1470247117722820,0.0181885,-0.0366821,-0.043335,0.998169
1470247117743917,0.0375366,-0.0268555,-0.119995,0.991699
1470247117759853,0.0578003,-0.0184937,-0.19696,0.978516
1470247117782909,0.074585,-0.010376,-0.272522,0.959167
1470247117803894,0.0877686,-0.00201416,-0.342957,0.935242
1470247117819927,0.0992432,0.00421143,-0.404053,0.909302
1470247117842427,0.104614,0.00939941,-0.458801,0.882324
1470247117871453,0.110168,0.0110474,-0.507996,0.854187
1470247117879977,0.114014,0.0158081,-0.550354,0.826965
1470247117902481,0.118225,0.0203247,-0.584351,0.802551
1470247117924041,0.118835,0.0281372,-0.610962,0.782166
1470247117939549,0.117737,0.0388184,-0.632446,0.764587
1470247117962535,0.11554,0.0502319,-0.64978,0.749573
1470247117984108,0.111328,0.06073,-0.662964,0.737854
1470247117999568,0.103577,0.0731812,-0.672119,0.729492
1470247118022589,0.0940552,0.0823975,-0.677002,0.725281
1470247118043655,0.0831909,0.0881348,-0.678589,0.724426
1470247118059622,0.0740356,0.0882568,-0.677795,0.726135
1470247118082643,0.0673218,0.0812988,-0.674438,0.730713
1470247118103677,0.0610962,0.0693359,-0.668823,0.737671
1470247118119196,0.0530396,0.0567017,-0.662109,0.745361
1470247118142696,0.0437622,0.0444946,-0.655579,0.752563
1470247118165217,0.0354614,0.0306396,-0.648926,0.759399
1470247118179234,0.0275879,0.0145264,-0.642029,0.766052
1470247118202751,0.0177002,-0.000488281,-0.635376,0.771973
1470247118224770,0.00384521,-0.012085,-0.62915,0.777161
1470247118239285,-0.00933838,-0.0231323,-0.622803,0.781982
1470247118262804,-0.015564,-0.038269,-0.615845,0.786804
1470247118284832,-0.0166016,-0.0552368,-0.60791,0.791931
1470247118306403,-0.0169678,-0.0698242,-0.600708,0.796204
1470247118322858,-0.0193481,-0.0783081,-0.59552,0.799316
1470247118346879,-0.0199585,-0.0679932,-0.592407,0.802551
1470247118366398,0.00427246,-0.0440063,-0.588257,0.807434
1470247118382412,0.0438232,-0.00683594,-0.575745,0.816406
1470247118387973,0.0930786,0.0443726,-0.560486,0.821716
1470247118410495,0.147095,0.10498,-0.546265,0.817871
1470247118432984,0.201355,0.168945,-0.531006,0.805542
1470247118447993,0.25293,0.23053,-0.515869,0.785339
1470247118470521,0.313477,0.281128,-0.50177,0.755615
1470247118493013,0.363037,0.326904,-0.488281,0.723145
1470247118509526,0.403259,0.366333,-0.477356,0.689392
1470247118530560,0.433472,0.397888,-0.470154,0.657776
1470247118553066,0.451538,0.423218,-0.464417,0.633423
1470247118568093,0.460938,0.440979,-0.459229,0.618164
1470247118593601,0.470886,0.451111,-0.453369,0.607605
1470247118613118,0.481384,0.456421,-0.450867,0.597168
1470247118628133,0.495789,0.456909,-0.447632,0.587341
1470247118651168,0.503845,0.454468,-0.444092,0.585083
1470247118673294,0.508606,0.450684,-0.439941,0.586975
1470247118688276,0.508972,0.441833,-0.439514,0.593689
1470247118710706,0.501465,0.426941,-0.443787,0.607605
1470247118733229,0.486755,0.408264,-0.450256,0.62738
1470247118748240,0.465027,0.387085,-0.459839,0.649963
1470247118770760,0.431885,0.358093,-0.47168,0.680237
1470247118793281,0.387634,0.323181,-0.486938,0.71283
1470247118808294,0.341614,0.271301,-0.503845,0.745483
1470247118830827,0.295959,0.20636,-0.515808,0.776978
1470247118853334,0.248047,0.138062,-0.521606,0.804504
1470247118878870,0.200378,0.0771484,-0.522644,0.825012
1470247118890873,0.160339,0.0325317,-0.522339,0.836853
1470247118912919,0.124023,-0.00335693,-0.519958,0.845154
1470247118928407,0.0845337,-0.0307007,-0.516541,0.851501
1470247118950922,0.0374146,-0.0465698,-0.514221,0.855591
1470247118973446,-0.0108643,-0.0540161,-0.517212,0.854065
1470247118988461,-0.0459595,-0.0620728,-0.523682,0.848389
1470247119010996,-0.0664063,-0.0739746,-0.527222,0.843872
1470247119032997,-0.0872192,-0.0845947,-0.525696,0.84198
1470247119048017,-0.11084,-0.0884399,-0.524109,0.839783
1470247119070529,-0.132019,-0.0894165,-0.523071,0.83728
1470247119093083,-0.138367,-0.0955811,-0.521606,0.836426
1470247119108096,-0.136597,-0.105652,-0.517517,0.838074
1470247119130626,-0.138428,-0.111938,-0.512512,0.840027
1470247119153103,-0.148071,-0.112427,-0.508545,0.840698
1470247119168118,-0.156982,-0.111755,-0.505737,0.840881
1470247119190638,-0.159607,-0.113159,-0.502991,0.841858
1470247119213183,-0.161133,-0.114014,-0.499695,0.843384
1470247119228199,-0.163513,-0.110901,-0.495911,0.845581
1470247119250707,-0.164429,-0.104065,-0.490906,0.849182
1470247119273214,-0.163147,-0.0966187,-0.48468,0.853882
1470247119288243,-0.161133,-0.0893555,-0.477295,0.859192
1470247119310745,-0.157837,-0.0827026,-0.469055,0.86499
1470247119333268,-0.153442,-0.0748291,-0.460083,0.871338
1470247119348279,-0.146851,-0.0662231,-0.450256,0.878235
1470247119370799,-0.141418,-0.0571289,-0.439758,0.885071
1470247119393320,-0.133972,-0.0499268,-0.42981,0.891479
1470247119408333,-0.12616,-0.0441284,-0.419312,0.897949
1470247119430854,-0.120483,-0.0375366,-0.409058,0.903748
1470247119453374,-0.116272,-0.0314331,-0.399719,0.908691
1470247119468387,-0.111816,-0.0271606,-0.392395,0.912537
1470247119490408,-0.107605,-0.0256348,-0.38678,0.915466
1470247119512950,-0.104919,-0.0264893,-0.382141,0.917725
1470247119535452,-0.108032,-0.0285645,-0.377686,0.919128
1470247119550476,-0.115601,-0.0324707,-0.373718,0.919739
1470247119572980,-0.12085,-0.0375366,-0.370667,0.920105
1470247119587994,-0.120605,-0.0425415,-0.367798,0.921082
1470247119610515,-0.117737,-0.0463867,-0.364868,0.922424
1470247119633035,-0.117188,-0.0490723,-0.362244,0.923401
1470247119648048,-0.118591,-0.0513916,-0.360291,0.923828
1470247119670569,-0.119446,-0.0535278,-0.358887,0.924133
1470247119693089,-0.119385,-0.0554199,-0.357788,0.924438
1470247119709603,-0.119507,-0.0571289,-0.356873,0.924683
1470247119730638,-0.120789,-0.0592651,-0.356445,0.924561
1470247119753170,-0.124512,-0.0617065,-0.356445,0.923889
1470247119775663,-0.129822,-0.06427,-0.356689,0.922913
1470247119790705,-0.133118,-0.0668335,-0.356995,0.922119
1470247119813196,-0.132019,-0.069519,-0.357422,0.921936
1470247119829711,-0.129822,-0.0720215,-0.357849,0.921875
1470247119850730,-0.129944,-0.0736084,-0.358276,0.92157
1470247119868246,-0.131226,-0.0744629,-0.358459,0.921265
1470247119889776,-0.131897,-0.0751343,-0.358582,0.921082
1470247119910785,-0.13147,-0.0755005,-0.358887,0.920959
1470247119928300,-0.130737,-0.0759888,-0.359314,0.920898
1470247119949819,-0.130554,-0.0768433,-0.359741,0.920654
1470247119970839,-0.131042,-0.0779419,-0.360229,0.920288
1470247119988378,-0.131897,-0.0793457,-0.360718,0.919861
1470247120009372,-0.131775,-0.0809326,-0.360901,0.919678
1470247120030891,-0.130493,-0.0825806,-0.36084,0.919739
1470247120048407,-0.127319,-0.0837402,-0.360046,0.92041
1470247120070928,-0.12384,-0.0846558,-0.358887,0.921204
1470247120090987,-0.119507,-0.0848999,-0.358215,0.922058
1470247120113470,-0.113953,-0.0835571,-0.357239,0.923279
1470247120131482,-0.106201,-0.0803223,-0.356079,0.924927
1470247120150503,-0.0955811,-0.0757446,-0.355286,0.926758
1470247120174521,-0.081604,-0.0698853,-0.355652,0.928406
1470247120191066,-0.0643311,-0.0617065,-0.356018,0.930176
1470247120210589,-0.0470581,-0.0496826,-0.355774,0.932068
1470247120233089,-0.0265503,-0.0338745,-0.356384,0.93335
1470247120258597,-0.000610352,-0.0145874,-0.357727,0.933716
1470247120270607,0.0321655,0.0114746,-0.362183,0.931458
1470247120293154,0.0717163,0.0469971,-0.369507,0.925232
1470247120311152,0.112793,0.0904541,-0.379028,0.914001
1470247120330677,0.149963,0.141357,-0.389587,0.897644
1470247120353182,0.179871,0.196228,-0.397888,0.87793
1470247120370698,0.204407,0.249756,-0.402771,0.856445
1470247120390772,0.226135,0.297424,-0.404358,0.834778
1470247120413283,0.249451,0.337097,-0.40271,0.813599
1470247120430753,0.276489,0.367493,-0.401428,0.792053
1470247120453271,0.305481,0.387146,-0.401306,0.77179
1470247120473288,0.328003,0.398621,-0.400085,0.757202
1470247120490805,0.343079,0.401611,-0.399231,0.74939
1470247120511824,0.351685,0.391724,-0.400391,0.75
1470247120533343,0.355652,0.367798,-0.405212,0.757568
1470247120550859,0.354858,0.331421,-0.413635,0.770081
1470247120570968,0.344299,0.286377,-0.423218,0.787537
1470247120600904,0.318726,0.234863,-0.431946,0.810303
1470247120618419,0.277649,0.179138,-0.438538,0.835754
1470247120630461,0.221375,0.119507,-0.445801,0.859009
1470247120653471,0.1521,0.0635376,-0.455261,0.874939
1470247120670968,0.0919189,0.0179443,-0.46582,0.879883
1470247120691986,0.0476685,-0.0217896,-0.476074,0.877869
1470247120713506,0.0189819,-0.0578613,-0.480713,0.874756
1470247120731064,-0.00805664,-0.0844727,-0.483643,0.871155
1470247120752041,-0.0387573,-0.0983887,-0.485046,0.868042
1470247120773058,-0.0703125,-0.104065,-0.488159,0.863647
1470247120791074,-0.0895386,-0.106506,-0.492188,0.859314
1470247120812093,-0.0969238,-0.111206,-0.493286,0.857239
1470247120833145,-0.105713,-0.113647,-0.492065,0.856628
1470247120851128,-0.119629,-0.111694,-0.49054,0.855896
1470247120872149,-0.129517,-0.108887,-0.489746,0.855286
1470247120893168,-0.128296,-0.108948,-0.489014,0.855896
1470247120910182,-0.121521,-0.111023,-0.487,0.857727
1470247120931202,-0.118591,-0.111206,-0.484985,0.859253
1470247120953738,-0.12262,-0.108521,-0.483337,0.859985
1470247120970237,-0.128845,-0.105225,-0.482422,0.859985
1470247120991283,-0.132568,-0.104492,-0.482117,0.85968
1470247121013807,-0.133484,-0.106323,-0.481506,0.85968
1470247121030289,-0.133667,-0.108032,-0.480103,0.860168
1470247121052810,-0.135864,-0.108643,-0.478638,0.860596
1470247121066837,-0.138855,-0.108459,-0.477905,0.860535
1470247121090342,-0.139771,-0.108643,-0.477173,0.860779
1470247121112863,-0.137268,-0.109009,-0.476318,0.861572
1470247121133882,-0.133301,-0.1073,-0.47406,0.863708
1470247121150397,-0.131165,-0.100647,-0.468628,0.867798
1470247121172441,-0.130127,-0.0878906,-0.462402,0.87262
1470247121194038,-0.123291,-0.0754395,-0.459229,0.876465
1470247121209961,-0.11438,-0.0693359,-0.457764,0.878967
1470247121232472,-0.111328,-0.0644531,-0.45697,0.880127
1470247121253989,-0.10791,-0.0565186,-0.455994,0.881592
1470247121270005,-0.100952,-0.0476074,-0.454834,0.883545
1470247121292527,-0.0939941,-0.0391846,-0.454163,0.885071
1470247121314088,-0.0894165,-0.0316162,-0.454346,0.885742
1470247121330062,-0.0876465,-0.0253296,-0.455261,0.885681
1470247121352578,-0.0856934,-0.0203247,-0.455811,0.885681
1470247121374100,-0.0822754,-0.0162354,-0.455933,0.886047
1470247121390112,-0.0782471,-0.0127563,-0.45575,0.886536
1470247121412653,-0.0758667,-0.0100098,-0.455505,0.886902
1470247121433689,-0.0748291,-0.00823975,-0.455017,0.887268
1470247121450166,-0.074585,-0.00787354,-0.454773,0.887451
1470247121472687,-0.0740967,-0.00793457,-0.454041,0.887817
1470247121493721,-0.0734863,-0.00860596,-0.452942,0.888489
1470247121510220,-0.0735474,-0.0098877,-0.452026,0.888916
1470247121534242,-0.0736084,-0.0112305,-0.451477,0.88916
1470247121553759,-0.0736694,-0.012207,-0.451294,0.889221
1470247121570275,-0.0731812,-0.0127563,-0.450928,0.889465
1470247121592794,-0.0717773,-0.0127563,-0.450439,0.889771
1470247121613824,-0.0692749,-0.0114136,-0.449829,0.890381
1470247121630328,-0.0653076,-0.00823975,-0.448975,0.891113
1470247121652848,-0.0592651,-0.00402832,-0.448303,0.891907
1470247121673867,-0.0509033,0.00146484,-0.447632,0.892761
1470247121689381,-0.0405884,0.00854492,-0.44696,0.893616
1470247121712902,-0.0293579,0.0168457,-0.446106,0.894348
1470247121733921,-0.0177612,0.026062,-0.444946,0.894958
1470247121749435,-0.00543213,0.0358887,-0.443604,0.895447
1470247121772455,0.00811768,0.0455322,-0.442017,0.895813
1470247121794976,0.0222168,0.0546875,-0.44043,0.895813
1470247121809489,0.0377197,0.0636597,-0.43866,0.895569
1470247121832510,0.0540771,0.0727539,-0.43634,0.895203
1470247121853528,0.0709839,0.0823364,-0.433655,0.89447
1470247121869543,0.0905762,0.0926514,-0.430237,0.893311
1470247121892564,0.112976,0.103149,-0.426331,0.891541
1470247121914083,0.136597,0.114075,-0.422424,0.888733
1470247121929596,0.1604,0.125671,-0.418518,0.88501
1470247121952617,0.183655,0.138062,-0.414063,0.880737
1470247121975137,0.20575,0.151123,-0.408813,0.87616
1470247121989651,0.227112,0.164307,-0.40332,0.871033
1470247122012672,0.247986,0.176697,-0.398071,0.865295
1470247122035192,0.268555,0.188538,-0.392761,0.85907
1470247122049704,0.287903,0.199829,-0.387207,0.852722
1470247122072725,0.305359,0.2099,-0.381897,0.846619
1470247122095246,0.318604,0.218567,-0.377197,0.841675
1470247122116280,0.328552,0.225952,-0.372253,0.838074
1470247122132779,0.335632,0.232178,-0.367126,0.835815
1470247122155299,0.340942,0.237549,-0.361694,0.834534
1470247122176346,0.345093,0.242004,-0.356201,0.833923
1470247122192834,0.348816,0.245667,-0.350647,0.833618
1470247122215355,0.351807,0.248779,-0.344727,0.833923
1470247122236373,0.355042,0.251099,-0.338379,0.834473
1470247122252887,0.357605,0.252869,-0.331421,0.835632
1470247122275406,0.358398,0.25415,-0.323853,0.83783
1470247122296427,0.357239,0.254822,-0.315918,0.841187
1470247122312441,0.354919,0.254639,-0.307861,0.845215
1470247122334966,0.351135,0.252991,-0.300537,0.849915
1470247122356480,0.344849,0.24939,-0.294373,0.855652
1470247122372994,0.335815,0.243225,-0.288696,0.862976
1470247122395014,0.322327,0.23468,-0.28241,0.872498
1470247122416049,0.303467,0.22229,-0.276123,0.884399
1470247122432550,0.28241,0.207581,-0.26947,0.896912
1470247122455069,0.263306,0.191833,-0.26355,0.907898
1470247122483594,0.246521,0.175415,-0.258484,0.917358
1470247122492602,0.230103,0.15863,-0.255188,0.925598
1470247122515122,0.214172,0.142822,-0.253418,0.932434
1470247122536142,0.19873,0.127991,-0.251282,0.938538
1470247122552156,0.182373,0.113586,-0.249084,0.944336
1470247122575177,0.164124,0.0998535,-0.248352,0.949402
1470247122596195,0.147034,0.086731,-0.249146,0.953247
1470247122612710,0.130737,0.0741577,-0.249268,0.956665
1470247122635233,0.113464,0.0617065,-0.24884,0.959839
1470247122656251,0.097168,0.0509033,-0.249268,0.962158
1470247122672764,0.0849609,0.0422974,-0.25,0.963562
1470247122695284,0.0766602,0.0345459,-0.251099,0.964294
1470247122716304,0.0698242,0.0274048,-0.252197,0.964722
1470247122732319,0.0622559,0.0216064,-0.252258,0.965393
1470247122755337,0.0531616,0.017395,-0.252014,0.966064
1470247122776357,0.0449219,0.0141602,-0.252197,0.966492
1470247122791871,0.0393677,0.0115967,-0.253174,0.966553
1470247122815392,0.0359497,0.00939941,-0.253784,0.966553
1470247122836411,0.0321045,0.00708008,-0.254028,0.966614
1470247122851925,0.0283813,0.00531006,-0.254272,0.966675
1470247122874946,0.0250244,0.00360107,-0.254883,0.966614
1470247122897466,0.0227051,0.00177002,-0.255554,0.966492
1470247122911979,0.0203857,0.000244141,-0.255859,0.966492
1470247122934999,0.0178833,-0.00128174,-0.25592,0.966492
1470247122957520,0.0153809,-0.00280762,-0.256226,0.966492
1470247122972533,0.0133057,-0.00384521,-0.256958,0.966309
1470247122995055,0.0120239,-0.00463867,-0.257874,0.966064
1470247123018074,0.0101929,-0.00567627,-0.258423,0.965942
1470247123032587,0.00708008,-0.00701904,-0.258667,0.965881
1470247123055107,0.00384521,-0.00878906,-0.25885,0.96582
1470247123077627,0.000488281,-0.0108643,-0.259094,0.965759
1470247123098646,-0.00238037,-0.0125122,-0.259338,0.965698
1470247123115161,-0.00537109,-0.013916,-0.259399,0.965637
1470247123137682,-0.00909424,-0.0159912,-0.259216,0.965637
1470247123159220,-0.0134888,-0.019043,-0.259094,0.965576
1470247123175216,-0.0187988,-0.022644,-0.258911,0.965454
1470247123197755,-0.0253906,-0.0267334,-0.258545,0.965271
1470247123218759,-0.0322266,-0.0314331,-0.25769,0.965149
1470247123235270,-0.0379028,-0.0366821,-0.256958,0.964966
1470247123257789,-0.0432739,-0.041687,-0.256287,0.964722
1470247123278901,-0.0504761,-0.0462646,-0.255249,0.964417
1470247123295322,-0.0593872,-0.050415,-0.253967,0.96405
1470247123317844,-0.0690918,-0.0549316,-0.252869,0.96344
1470247123338875,-0.0778809,-0.0601807,-0.252136,0.962646
1470247123354876,-0.0855103,-0.0653687,-0.25116,0.961914
1470247123377897,-0.0932007,-0.0700684,-0.249512,0.961304
1470247123398916,-0.101746,-0.0742798,-0.247437,0.960693
1470247123414930,-0.111694,-0.0789185,-0.245667,0.959656
1470247123437951,-0.122253,-0.0838013,-0.243713,0.958435
1470247123459009,-0.13324,-0.0882568,-0.241394,0.957153
1470247123475485,-0.142578,-0.0927124,-0.238831,0.956055
1470247123497508,-0.151978,-0.0973511,-0.236328,0.954773
1470247123519025,-0.161072,-0.101746,-0.23407,0.953369
1470247123535038,-0.169678,-0.106079,-0.231262,0.952087
1470247123557559,-0.17804,-0.109436,-0.228699,0.950806
1470247123579077,-0.184937,-0.112793,-0.226501,0.949585
1470247123595109,-0.190491,-0.115967,-0.224548,0.948608
1470247123617616,-0.19519,-0.118591,-0.222839,0.947693
1470247123638697,-0.20105,-0.120483,-0.221497,0.946533
1470247123654647,-0.206055,-0.121094,-0.221069,0.945496
1470247123677681,-0.208008,-0.117737,-0.224487,0.944702
1470247123698687,-0.202393,-0.114441,-0.224426,0.94635
1470247123714699,-0.199097,-0.113159,-0.224976,0.947021
1470247123737722,-0.203247,-0.11145,-0.22467,0.946472
1470247123758747,-0.208069,-0.111267,-0.223145,0.945801
1470247123774754,-0.208984,-0.111206,-0.222839,0.945679
1470247123797774,-0.20813,-0.112183,-0.222656,0.945801
1470247123818809,-0.205994,-0.113525,-0.221802,0.946289
1470247123834307,-0.204102,-0.114746,-0.22052,0.946838
1470247123857827,-0.203918,-0.11554,-0.219238,0.947083
1470247123880350,-0.204712,-0.115662,-0.218262,0.947144
1470247123895361,-0.205688,-0.115479,-0.217896,0.947021
1470247123917882,-0.205994,-0.115479,-0.217712,0.947021
1470247123940402,-0.206543,-0.115417,-0.217651,0.946899
1470247123955417,-0.207764,-0.114868,-0.217834,0.946655
1470247123977936,-0.209351,-0.114136,-0.21814,0.94635
1470247123999956,-0.210266,-0.113464,-0.218445,0.946106
1470247124014468,-0.209656,-0.113403,-0.218872,0.946167
1470247124037503,-0.207214,-0.113892,-0.219971,0.946411
1470247124060509,-0.203369,-0.11499,-0.222717,0.946472
1470247124081529,-0.196899,-0.11853,-0.230225,0.945618
1470247124097546,-0.183472,-0.117981,-0.248047,0.943848
1470247124120088,-0.159485,-0.112793,-0.275269,0.941284
1470247124141582,-0.131592,-0.103333,-0.304688,0.937622
1470247124157598,-0.111877,-0.0901489,-0.341003,0.929016
1470247124180139,-0.0976563,-0.0751343,-0.382446,0.91571
1470247124201638,-0.0935669,-0.0596313,-0.422974,0.899292
1470247124223748,-0.101318,-0.0418091,-0.460266,0.880981
1470247124240171,-0.103638,-0.0266724,-0.495056,0.862244
1470247124261218,-0.0926514,-0.0217285,-0.522949,0.847046
1470247124277705,-0.0747681,-0.0236816,-0.541016,0.837341
1470247124300224,-0.0654907,-0.0256958,-0.55011,0.832153
1470247124321272,-0.0647583,-0.0237427,-0.553406,0.830017
1470247124337759,-0.0679321,-0.0196533,-0.553833,0.82959
1470247124360280,-0.067749,-0.0172729,-0.552917,0.830261
1470247124381325,-0.0644531,-0.0175781,-0.551086,0.831787
1470247124397813,-0.0629883,-0.019043,-0.54834,0.833679
1470247124420333,-0.067627,-0.0181885,-0.544739,0.835693
1470247124441383,-0.0786743,-0.0145264,-0.540039,0.83783
1470247124457366,-0.0982056,-0.00817871,-0.534119,0.8396
1470247124481433,-0.125061,-0.000915527,-0.527222,0.840454
1470247124501411,-0.150269,0.00878906,-0.516113,0.843201
1470247124517920,-0.168396,0.0144653,-0.49353,0.853149
1470247124539941,-0.181396,0.0131836,-0.449829,0.87439
1470247124561462,-0.198486,0.00500488,-0.385315,0.901184
1470247124576973,-0.219299,-0.0109863,-0.304871,0.926758
1470247124603000,-0.240601,-0.0337524,-0.218445,0.945068
1470247124621520,-0.26178,-0.0585938,-0.138916,0.953247
1470247124632525,-0.270996,-0.0777588,-0.0778809,0.956238
1470247124653042,-0.280151,-0.0904541,-0.0299683,0.9552
1470247124674061,-0.302246,-0.102417,0.00292969,0.947693
1470247124689576,-0.324829,-0.10791,0.0246582,0.93927
1470247124712595,-0.335205,-0.119324,0.0358276,0.933838
1470247124733644,-0.339294,-0.125488,0.0413208,0.931335
1470247124749632,-0.347473,-0.126465,0.0453491,0.92804
1470247124779155,-0.347473,-0.135925,0.0426636,0.926758
1470247124793683,-0.352295,-0.137634,0.0420532,0.924744
1470247124816707,-0.354553,-0.139221,0.0389404,0.923767
1470247124832203,-0.350464,-0.139221,0.0340576,0.925537
1470247124861229,-0.346313,-0.139282,0.0300293,0.927246
1470247124869736,-0.343933,-0.14032,0.0267944,0.92804
1470247124891756,-0.343018,-0.142822,0.0233154,0.928101
1470247124913800,-0.34314,-0.145935,0.019165,0.927673
1470247124929790,-0.343811,-0.148438,0.0158691,0.927063
1470247124951858,-0.34375,-0.150208,0.0130005,0.92688
1470247124973905,-0.339661,-0.157593,0.00701904,0.927185
1470247124990845,-0.341248,-0.155701,0.00506592,0.926941
1470247125011864,-0.342102,-0.157166,0.0022583,0.926392
1470247125035385,-0.343323,-0.157776,-6.10352e-05,0.925842
1470247125049900,-0.344666,-0.158447,-0.0022583,0.925232
1470247125071917,-0.345947,-0.158997,-0.00372314,0.924683
1470247125095439,-0.347168,-0.159607,-0.00445557,0.924072
1470247125109452,-0.348328,-0.160095,-0.0043335,0.923584
1470247125131972,-0.349731,-0.160706,-0.00372314,0.922974
1470247125155498,-0.351074,-0.161011,-0.00244141,0.922363
1470247125169505,-0.352234,-0.161621,-0.000976563,0.921875
1470247125192026,-0.352356,-0.162048,0.0012207,0.921692
1470247125215547,-0.353027,-0.163391,0.00335693,0.921204
1470247125229559,-0.352722,-0.16394,0.0055542,0.921204
1470247125252080,-0.35144,-0.164185,0.00860596,0.921631
1470247125275101,-0.350464,-0.164429,0.0118408,0.921936
1470247125289615,-0.350159,-0.164734,0.0145264,0.921997
1470247125312134,-0.349976,-0.164795,0.0169067,0.921997
1470247125335655,-0.349854,-0.165161,0.019104,0.921936
1470247125349668,-0.349243,-0.165527,0.0209961,0.922058
1470247125372187,-0.348938,-0.165588,0.022522,0.922119
1470247125395208,-0.348633,-0.165222,0.0235596,0.922241
1470247125409722,-0.348633,-0.164978,0.024353,0.922302
1470247125432241,-0.348755,-0.164612,0.0247192,0.922302
1470247125455262,-0.348877,-0.164612,0.0247192,0.922241
1470247125469776,-0.349609,-0.164795,0.0247803,0.921936
1470247125500803,-0.349854,-0.164673,0.0252075,0.921875
1470247125522823,-0.34967,-0.164429,0.0258789,0.921936
1470247125543842,-0.349609,-0.164001,0.0269775,0.922058
1470247125566362,-0.349915,-0.164001,0.0281372,0.921875
1470247125582877,-0.349792,-0.164001,0.0297852,0.921875
1470247125603895,-0.349854,-0.164429,0.0314331,0.921753
1470247125620411,-0.349487,-0.164856,0.0336304,0.921692
1470247125642930,-0.349243,-0.165527,0.0360718,0.92157
1470247125663950,-0.349609,-0.166626,0.0384521,0.921143
1470247125680464,-0.349792,-0.167664,0.0411377,0.920776
1470247125702984,-0.349609,-0.169006,0.0441895,0.920471
1470247125724003,-0.349792,-0.170532,0.0473633,0.919922
1470247125739518,-0.350037,-0.171936,0.0505371,0.919434
1470247125762539,-0.349915,-0.17334,0.0539551,0.919006
1470247125785058,-0.349976,-0.174866,0.057373,0.918518
1470247125799572,-0.35022,-0.17627,0.06073,0.917908
1470247125822592,-0.349976,-0.177673,0.0640259,0.91748
1470247125845112,-0.349976,-0.179016,0.0670776,0.917053
1470247125859626,-0.349976,-0.180176,0.0700073,0.916626
1470247125882647,-0.349976,-0.181274,0.0725708,0.916138
1470247125905166,-0.349915,-0.182495,0.074707,0.915771
1470247125919679,-0.349854,-0.18335,0.0762329,0.915466
1470247125942700,-0.349792,-0.183655,0.0772705,0.915405
1470247125965221,-0.349609,-0.183533,0.0777588,0.915466
1470247125979734,-0.349548,-0.183289,0.0776978,0.915527
1470247126002754,-0.349915,-0.183167,0.0772095,0.915466
1470247126025274,-0.35022,-0.1828,0.0764771,0.915466
1470247126039789,-0.350281,-0.182251,0.0758667,0.915588
1470247126062807,-0.350281,-0.181763,0.0753174,0.91571
1470247126085328,-0.350403,-0.181213,0.074707,0.915833
1470247126099841,-0.350464,-0.180664,0.0741577,0.915955
1470247126122862,-0.350403,-0.179932,0.0737305,0.916138
1470247126128368,-0.350586,-0.179382,0.0733032,0.91626
1470247126153890,-0.350769,-0.178833,0.0731201,0.916321
1470247126167402,-0.351074,-0.178467,0.0727539,0.91626
1470247126188422,-0.351196,-0.177979,0.0726929,0.916321
1470247126210940,-0.35144,-0.177551,0.0726929,0.916321
1470247126226955,-0.351929,-0.177429,0.0726318,0.916199
1470247126247973,-0.352417,-0.177612,0.0725708,0.915955
1470247126270495,-0.352417,-0.177551,0.0725708,0.915955
1470247126294015,-0.352478,-0.177612,0.072998,0.915894
1470247126308029,-0.352722,-0.177856,0.0734253,0.91571
1470247126330547,-0.353088,-0.178162,0.0739136,0.915466
1470247126347063,-0.353333,-0.17865,0.0744019,0.915222
1470247126368082,-0.353394,-0.179199,0.0749512,0.9151
1470247126390602,-0.353455,-0.179626,0.0751953,0.914917
1470247126407117,-0.353638,-0.179749,0.0756226,0.914795
1470247126428136,-0.353699,-0.17981,0.0760498,0.914734
1470247126450656,-0.35376,-0.179749,0.0760498,0.914734
1470247126467170,-0.35376,-0.179749,0.0760498,0.914734
1470247126488189,-0.353821,-0.179749,0.0760498,0.914734
1470247126510710,-0.353638,-0.179565,0.0759888,0.914795
1470247126527224,-0.353638,-0.179565,0.0760498,0.914795
1470247126548244,-0.353882,-0.17926,0.0759277,0.914795
1470247126570764,-0.353943,-0.179016,0.0759277,0.914795
1470247126587279,-0.353943,-0.179016,0.0759277,0.914795
1470247126608297,-0.353882,-0.178772,0.0759277,0.914856
1470247126630817,-0.353943,-0.178772,0.0759277,0.914856
1470247126647332,-0.354004,-0.178772,0.0759277,0.914856
1470247126668351,-0.354004,-0.178772,0.0759277,0.914856
1470247126690872,-0.354004,-0.178711,0.0759888,0.914856
1470247126708388,-0.354248,-0.178833,0.0761719,0.914734
1470247126728406,-0.35437,-0.178894,0.076416,0.914612
1470247126750925,-0.354553,-0.178955,0.0765991,0.914551
1470247126768941,-0.354675,-0.179077,0.0767822,0.914429
1470247126787959,-0.354675,-0.17926,0.0769653,0.914368
1470247126810980,-0.354675,-0.179199,0.0772705,0.914368
1470247126828495,-0.354675,-0.179199,0.0772705,0.914368
1470247126848013,-0.354675,-0.179138,0.0772705,0.914368
1470247126870534,-0.354736,-0.179138,0.0772705,0.914368
1470247126893052,-0.354675,-0.179199,0.0773315,0.914368
1470247126908068,-0.354675,-0.179138,0.0774536,0.914368
1470247126930587,-0.354736,-0.178955,0.0773926,0.914429
1470247126953108,-0.354797,-0.17865,0.0773315,0.914429
1470247126968124,-0.354919,-0.178223,0.0772095,0.91449
1470247126990642,-0.354919,-0.177795,0.0772095,0.914551
1470247127008657,-0.355042,-0.177307,0.0770874,0.914612
1470247127028177,-0.355164,-0.177002,0.0769043,0.914673
1470247127050696,-0.355286,-0.176636,0.0766602,0.914673
1470247127068711,-0.355286,-0.17627,0.0765381,0.914795
1470247127088229,-0.355713,-0.177002,0.0767212,0.91449
1470247127110750,-0.354797,-0.180176,0.0757446,0.914307
1470247127128766,-0.355774,-0.180664,0.0753784,0.913818
1470247127148283,-0.358765,-0.176453,0.0770264,0.91333
1470247127170802,-0.362,-0.170959,0.0792236,0.912903
1470247127188821,-0.365356,-0.165161,0.081604,0.912415
1470247127208405,-0.368835,-0.159424,0.0838623,0.911865
1470247127230858,-0.37207,-0.153687,0.0860596,0.911316
1470247127248872,-0.375061,-0.148254,0.0878296,0.910828
1470247127268390,-0.378113,-0.143372,0.0895996,0.910156
1470247127290911,-0.380798,-0.139526,0.0906982,0.909546
1470247127308927,-0.382996,-0.136536,0.0915527,0.908997
1470247127329446,-0.384521,-0.134888,0.0916748,0.908569
1470247127350464,-0.385254,-0.134705,0.0911865,0.908325
1470247127368479,-0.385315,-0.136169,0.0900879,0.908203
1470247127389499,-0.384949,-0.136841,0.0892944,0.908325
1470247127410520,-0.384216,-0.137634,0.0881958,0.90863
1470247127428534,-0.383484,-0.138245,0.0872803,0.908936
1470247127457060,-0.382751,-0.138672,0.0864258,0.909302
1470247127470572,-0.382202,-0.139221,0.0855713,0.909485
1470247127493093,-0.381714,-0.139587,0.0846558,0.909729
1470247127509607,-0.381165,-0.140015,0.0836182,0.909973
1470247127530627,-0.380615,-0.14032,0.0825195,0.910278
1470247127548642,-0.380005,-0.140564,0.081543,0.910583
1470247127569661,-0.379639,-0.140869,0.0803833,0.910828
1470247127590680,-0.37915,-0.141174,0.0791016,0.911072
1470247127608696,-0.378479,-0.141296,0.0773315,0.911438
1470247127629714,-0.377625,-0.14093,0.0750122,0.912109
1470247127650733,-0.376587,-0.140137,0.0722046,0.912842
1470247127668750,-0.375732,-0.139038,0.0689697,0.913635
1470247127691269,-0.375,-0.137756,0.0653687,0.914368
1470247127710788,-0.374268,-0.136169,0.0614014,0.915222
1470247127733310,-0.373779,-0.13446,0.0570068,0.915955
1470247127751325,-0.372803,-0.132507,0.0525513,0.91687
1470247127770842,-0.371704,-0.130493,0.0480957,0.917847
1470247127793362,-0.370789,-0.128662,0.0436401,0.918701
1470247127811378,-0.369995,-0.126892,0.0393066,0.919495
1470247127830898,-0.36908,-0.125122,0.0352783,0.920227
1470247127860922,-0.368164,-0.123657,0.0314941,0.920959
1470247127878438,-0.367615,-0.12262,0.0280151,0.921387
1470247127893452,-0.367188,-0.121643,0.0249023,0.921814
1470247127920475,-0.366699,-0.12085,0.0219116,0.92218
1470247127930985,-0.365845,-0.119995,0.019104,0.922729
1470247127950503,-0.365173,-0.119202,0.0163574,0.923096
1470247127968519,-0.364685,-0.118347,0.0133667,0.923462
1470247127991039,-0.364014,-0.117065,0.0100708,0.92395
1470247128010558,-0.362854,-0.115417,0.00640869,0.924622
1470247128033076,-0.361389,-0.113464,0.00213623,0.925476
1470247128051094,-0.359741,-0.111206,-0.00305176,0.926392
1470247128070611,-0.357483,-0.108032,-0.00958252,0.927612
1470247128093131,-0.354126,-0.10376,-0.0178223,0.92926
1470247128111147,-0.349915,-0.0982666,-0.0282593,0.931152
1470247128130665,-0.344788,-0.0915527,-0.0404663,0.933289
1470247128153184,-0.339172,-0.0839844,-0.0550537,0.935303
1470247128171201,-0.333923,-0.0750732,-0.0717773,0.936829
1470247128192222,-0.328613,-0.0648193,-0.0908813,0.937805
1470247128220775,-0.32312,-0.0531616,-0.112366,0.938171
1470247128231284,-0.316101,-0.0408936,-0.136047,0.937988
1470247128252275,-0.308533,-0.0285645,-0.161133,0.937012
1470247128273323,-0.301758,-0.0164185,-0.186829,0.934753
1470247128291313,-0.295105,-0.00512695,-0.212708,0.931458
1470247128312328,-0.290344,0.00500488,-0.238586,0.926697
1470247128333347,-0.285217,0.0145264,-0.263184,0.921509
1470247128351364,-0.279724,0.0227661,-0.285767,0.91626
1470247128372386,-0.273254,0.0300293,-0.30603,0.911499
1470247128393402,-0.267334,0.0355835,-0.323608,0.906921
1470247128410916,-0.263489,0.0393677,-0.339539,0.902039
1470247128431935,-0.261292,0.0418091,-0.353149,0.897339
1470247128452956,-0.258179,0.043396,-0.363525,0.894043
1470247128470970,-0.253601,0.0438843,-0.371582,0.892029
1470247128491988,-0.249878,0.043335,-0.378479,0.890198
1470247128513007,-0.24762,0.0425415,-0.383789,0.88855
1470247128531024,-0.247742,0.0413208,-0.387878,0.88678
1470247128552042,-0.247314,0.0397339,-0.390991,0.88562
1470247128573062,-0.24646,0.0375977,-0.393311,0.884949
1470247128591079,-0.246094,0.0346069,-0.395386,0.884216
1470247128613600,-0.245361,0.0322266,-0.397583,0.883545
1470247128633115,-0.243896,0.0303955,-0.399597,0.883118
1470247128650131,-0.242493,0.0283813,-0.401245,0.882813
1470247128672652,-0.240967,0.0267334,-0.402222,0.882874
1470247128695171,-0.240051,0.0254517,-0.40271,0.882935
1470247128710185,-0.238831,0.0256348,-0.402771,0.88324
1470247128732706,-0.234009,0.0258789,-0.401794,0.884949
1470247128753724,-0.229309,0.026062,-0.400391,0.88678
1470247128770740,-0.228149,0.0265503,-0.399536,0.887451
1470247128792759,-0.228943,0.0270386,-0.399414,0.887329
1470247128813777,-0.227844,0.0266113,-0.399109,0.887756
1470247128830293,-0.226135,0.0264282,-0.398621,0.888428
1470247128852813,-0.225159,0.026062,-0.397949,0.888977
1470247128867326,-0.224548,0.0249634,-0.397156,0.889526
1470247128890347,-0.223633,0.0231323,-0.396545,0.890076
1470247128912868,-0.221619,0.0206909,-0.39624,0.890747
1470247128933885,-0.218506,0.0184937,-0.39624,0.891602
1470247128950901,-0.214355,0.0172729,-0.396362,0.892517
1470247128972921,-0.210815,0.0171509,-0.396118,0.893494
1470247128993940,-0.208435,0.0175781,-0.395813,0.894165
1470247129010455,-0.207031,0.0184937,-0.395508,0.894653
1470247129032975,-0.206116,0.0194092,-0.395569,0.894775
1470247129046987,-0.204895,0.0202637,-0.395996,0.894836
1470247129070008,-0.203308,0.0212402,-0.396729,0.894897
1470247129092528,-0.20343,0.0223999,-0.397217,0.894592
1470247129114048,-0.203735,0.0233154,-0.397217,0.894531
1470247129130061,-0.204224,0.0234985,-0.396912,0.894531
1470247129152582,-0.203064,0.0227661,-0.396973,0.894775
1470247129174101,-0.201904,0.0215454,-0.397156,0.894958
1470247129190115,-0.201477,0.0205078,-0.397522,0.894958
1470247129212636,-0.201416,0.0198975,-0.397705,0.894897
1470247129234155,-0.200928,0.0194092,-0.397705,0.89502
1470247129250670,-0.200134,0.0192261,-0.39801,0.895081
1470247129272690,-0.199768,0.0194702,-0.398376,0.894958
1470247129293708,-0.199829,0.0200195,-0.398743,0.894775
1470247129310223,-0.200195,0.0210571,-0.399109,0.894531
1470247129332746,-0.200623,0.0223999,-0.399292,0.894287
1470247129353762,-0.201477,0.0241089,-0.399475,0.893982
1470247129370278,-0.201904,0.0258179,-0.399963,0.893616
1470247129392798,-0.201904,0.0275269,-0.400635,0.893311
1470247129415318,-0.201782,0.0290527,-0.401672,0.892822
1470247129430331,-0.203125,0.0308838,-0.402832,0.891907
1470247129452853,-0.205261,0.0325317,-0.403992,0.890808
1470247129473870,-0.206726,0.0338745,-0.404663,0.890137
1470247129489384,-0.206421,0.03479,-0.405029,0.890015
1470247129512906,-0.204407,0.0351563,-0.405579,0.890198
1470247129533925,-0.202698,0.0355835,-0.406006,0.890381
1470247129550439,-0.201477,0.0358887,-0.406372,0.890503
1470247129572959,-0.201233,0.036438,-0.406738,0.89032
1470247129595480,-0.200928,0.0358887,-0.407104,0.89032
1470247129610493,-0.19928,0.0350952,-0.407654,0.890442
1470247129634014,-0.198181,0.034668,-0.408264,0.890381
1470247129655533,-0.197937,0.0340576,-0.408813,0.890198
1470247129670547,-0.19812,0.0336914,-0.409241,0.890015
1470247129692567,-0.198303,0.0333252,-0.409607,0.889832
1470247129715587,-0.198181,0.0328369,-0.409912,0.889709
1470247129729601,-0.197876,0.0323486,-0.410156,0.889709
1470247129752621,-0.197449,0.0320435,-0.4104,0.889648
1470247129775141,-0.197266,0.0318604,-0.410645,0.889648
1470247129789654,-0.197266,0.0318604,-0.410645,0.889648
1470247129812674,-0.197205,0.0317383,-0.410767,0.889587
1470247129835195,-0.197021,0.0315552,-0.411011,0.889526
1470247129849708,-0.196716,0.0314331,-0.411255,0.889465
1470247129872729,-0.196472,0.0313721,-0.411438,0.889404
1470247129895249,-0.19635,0.0313721,-0.411682,0.889404
1470247129909763,-0.196167,0.0313721,-0.411865,0.889343
1470247129932783,-0.196167,0.0313721,-0.411865,0.889343
1470247129955303,-0.196167,0.0313721,-0.411865,0.889343
1470247129969817,-0.196106,0.0313721,-0.411865,0.889343
1470247129992836,-0.196045,0.0313721,-0.411865,0.889343
1470247130015356,-0.196106,0.0315552,-0.411804,0.889343
1470247130029369,-0.196167,0.0316162,-0.411804,0.889343
1470247130052890,-0.196167,0.0316162,-0.411804,0.889343
1470247130082917,-0.196106,0.0316162,-0.411804,0.889343
1470247130096430,-0.196106,0.0316162,-0.411804,0.889343
1470247130112945,-0.196106,0.0316772,-0.411804,0.889343
1470247130135465,-0.195679,0.0317993,-0.411926,0.889404
1470247130156484,-0.195374,0.0320435,-0.41217,0.889343
1470247130172497,-0.195618,0.0321655,-0.412292,0.889221
1470247130195519,-0.195618,0.0321655,-0.412292,0.889221
1470247130216538,-0.195068,0.0319214,-0.412354,0.889282
1470247130233054,-0.194336,0.0317383,-0.412598,0.889343
1470247130255071,-0.194275,0.0317383,-0.41272,0.889282
1470247130276090,-0.194641,0.0318604,-0.412964,0.88916
1470247130292606,-0.195068,0.0319824,-0.412964,0.889038
1470247130316127,-0.195129,0.0319824,-0.412964,0.889038
1470247130336645,-0.194702,0.0320435,-0.413086,0.889038
1470247130352660,-0.194824,0.0322876,-0.413208,0.888977
1470247130375181,-0.195618,0.0328369,-0.413269,0.888733
1470247130396199,-0.196533,0.0334473,-0.413391,0.888428
1470247130412714,-0.196716,0.0337524,-0.413757,0.888245
1470247130435263,-0.196411,0.0339355,-0.414063,0.888123
1470247130456282,-0.196106,0.0342407,-0.414185,0.888123
1470247130472795,-0.195862,0.0345459,-0.414368,0.888062
1470247130495316,-0.195801,0.0349731,-0.414551,0.888
1470247130517836,-0.19519,0.0352173,-0.414734,0.888062
1470247130532850,-0.194641,0.0354614,-0.414978,0.888062
1470247130562877,-0.194336,0.0358276,-0.415222,0.888
1470247130577890,-0.19458,0.0361938,-0.415405,0.887878
1470247130592903,-0.194702,0.0363159,-0.415344,0.887817
1470247130615423,-0.194763,0.0361328,-0.415039,0.887939
1470247130637944,-0.194397,0.0358276,-0.414917,0.888123
1470247130652457,-0.193665,0.0352783,-0.414795,0.888367
1470247130675477,-0.193298,0.034668,-0.414551,0.88855
1470247130697998,-0.192993,0.0339355,-0.414368,0.888794
1470247130712010,-0.192383,0.0332031,-0.414124,0.889038
1470247130735532,-0.191284,0.0325317,-0.414063,0.889343
1470247130757553,-0.190857,0.0320435,-0.414001,0.889465
1470247130772065,-0.190674,0.0316162,-0.414001,0.889526
1470247130795084,-0.190857,0.0314941,-0.414063,0.889465
1470247130819106,-0.190857,0.0314941,-0.414063,0.889465
1470247130838624,-0.190735,0.0314331,-0.414124,0.889404
1470247130855139,-0.190735,0.0314331,-0.414185,0.889404
1470247130877659,-0.191101,0.0316772,-0.414185,0.889343
1470247130892171,-0.191467,0.0319214,-0.414307,0.88916
1470247130915193,-0.191711,0.0320435,-0.414368,0.889099
1470247130937713,-0.191711,0.0320435,-0.414368,0.889099
1470247130954728,-0.192139,0.0321655,-0.41449,0.888916
1470247130975247,-0.192688,0.0321655,-0.414612,0.888794
1470247130997767,-0.192871,0.0321045,-0.414734,0.888672
1470247131018786,-0.193054,0.0321045,-0.414795,0.888611
1470247131035301,-0.193298,0.0321045,-0.414856,0.888489
1470247131057821,-0.193848,0.0322266,-0.414856,0.888428
1470247131079340,-0.194214,0.0322266,-0.414856,0.888306
1470247131095355,-0.194153,0.0321655,-0.414795,0.888367
1470247131117877,-0.193726,0.0319824,-0.414856,0.888428
1470247131138893,-0.193237,0.0319824,-0.414917,0.88855
1470247131155409,-0.192871,0.0319824,-0.414856,0.888611
1470247131177929,-0.19281,0.0321045,-0.414856,0.888611
1470247131199449,-0.192749,0.0324097,-0.414917,0.888611
1470247131216464,-0.192688,0.0327148,-0.414978,0.88855
1470247131237983,-0.192444,0.0330811,-0.4151,0.88855
1470247131259001,-0.192383,0.0335693,-0.415222,0.888489
1470247131275516,-0.192261,0.0338745,-0.415283,0.888489
1470247131298036,-0.1922,0.0338745,-0.415283,0.888489
1470247131319055,-0.192627,0.0340576,-0.415222,0.888428
1470247131335569,-0.193054,0.0341797,-0.415039,0.888428
1470247131357590,-0.193054,0.0341797,-0.415039,0.888428
1470247131379109,-0.192993,0.0341797,-0.415039,0.888428
1470247131395623,-0.193176,0.0341187,-0.414856,0.888489
1470247131418645,-0.193604,0.0341187,-0.414673,0.888489
1470247131440665,-0.194092,0.0340576,-0.414368,0.888489
1470247131455177,-0.194092,0.0339966,-0.414124,0.888611
1470247131478199,-0.194092,0.0341187,-0.413879,0.888733
1470247131500719,-0.194336,0.0341797,-0.413513,0.888855
1470247131515231,-0.194946,0.0343628,-0.413391,0.888794
1470247131537752,-0.195801,0.03479,-0.41333,0.88855
1470247131560272,-0.196533,0.0351563,-0.413269,0.888428
1470247131575286,-0.19696,0.0355835,-0.413269,0.888306
1470247131597805,-0.197327,0.0359497,-0.413269,0.888245
1470247131620326,-0.197327,0.0359497,-0.413269,0.888245
1470247131634839,-0.197571,0.0362549,-0.413208,0.888184
1470247131657860,-0.198364,0.0366211,-0.413208,0.888
1470247131680379,-0.198975,0.0369263,-0.413147,0.887878
1470247131694895,-0.198975,0.0369263,-0.413147,0.887878
1470247131717913,-0.198608,0.0371094,-0.413208,0.887939
1470247131740434,-0.19812,0.0371704,-0.413147,0.888062
1470247131754446,-0.19812,0.0371704,-0.413147,0.888062
1470247131777967,-0.197937,0.0373535,-0.413208,0.888062
1470247131800488,-0.197693,0.0375366,-0.413147,0.888123
1470247131814499,-0.196899,0.0370483,-0.413025,0.888428
1470247131838021,-0.195374,0.0366821,-0.413147,0.888672
1470247131860541,-0.194397,0.0366211,-0.41333,0.888794
1470247131874554,-0.193909,0.036438,-0.413574,0.888855
1470247131898075,-0.193787,0.036377,-0.413818,0.888733
1470247131920595,-0.193604,0.0360107,-0.414185,0.888611
1470247131941114,-0.193237,0.0356445,-0.414612,0.88855
1470247131957628,-0.192871,0.0352783,-0.415039,0.888428
1470247131980149,-0.1922,0.03479,-0.415466,0.888367
1470247132001668,-0.191223,0.0342407,-0.415833,0.888428
1470247132017682,-0.190063,0.0338135,-0.416138,0.88855
1470247132040203,-0.188721,0.0334473,-0.416443,0.888733
1470247132061722,-0.187256,0.0332642,-0.416748,0.888916
1470247132077737,-0.186035,0.0333252,-0.416931,0.889038
1470247132100257,-0.184998,0.0334473,-0.417175,0.88916
1470247132121275,-0.184448,0.0336914,-0.417358,0.88916
1470247132137791,-0.184082,0.0339966,-0.417542,0.88916
1470247132160312,-0.183899,0.0341187,-0.417786,0.889038
1470247132181340,-0.183838,0.0341797,-0.418091,0.888916
1470247132197844,-0.184326,0.0341797,-0.418396,0.888672
1470247132220365,-0.184875,0.0341797,-0.41864,0.888489
1470247132241384,-0.185364,0.0340576,-0.418823,0.888306
1470247132257898,-0.18573,0.0336914,-0.418945,0.888184
1470247132280418,-0.186218,0.0332031,-0.418945,0.888062
1470247132301439,-0.186646,0.0326538,-0.418823,0.888062
1470247132317954,-0.187195,0.0320435,-0.41864,0.888062
1470247132340473,-0.187683,0.0314331,-0.418457,0.888062
1470247132361492,-0.18811,0.0308838,-0.418274,0.888062
1470247132378007,-0.18811,0.0303955,-0.418091,0.888184
1470247132400526,-0.187927,0.0300293,-0.417908,0.888306
1470247132423046,-0.187439,0.0299072,-0.417908,0.888428
1470247132438059,-0.186707,0.0299072,-0.417969,0.88855
1470247132460580,-0.186035,0.0299683,-0.41803,0.888672
1470247132483100,-0.18573,0.0302734,-0.418213,0.888672
1470247132504119,-0.185608,0.0306396,-0.418396,0.88855
1470247132520134,-0.185669,0.0311279,-0.418579,0.888428
1470247132542654,-0.185852,0.0314941,-0.418701,0.888306
1470247132557668,-0.186157,0.0317383,-0.418823,0.888184
1470247132588197,-0.186401,0.0319214,-0.418823,0.888123
1470247132602710,-0.186584,0.0318604,-0.418823,0.888123
1470247132617221,-0.186951,0.0317383,-0.418762,0.888062
1470247132640241,-0.187378,0.0314331,-0.418579,0.888062
1470247132662762,-0.187683,0.0309448,-0.418457,0.888123
1470247132677275,-0.187927,0.0303955,-0.418274,0.888123
1470247132700295,-0.188354,0.0299072,-0.418152,0.888123
1470247132722817,-0.188965,0.029541,-0.417969,0.888123
1470247132745336,-0.189514,0.0292969,-0.417786,0.888062
1470247132760349,-0.189758,0.0291138,-0.417603,0.888123
1470247132784371,-0.189819,0.0291138,-0.417603,0.888123
1470247132797384,-0.189819,0.0291138,-0.417603,0.888123
1470247132820405,-0.18988,0.0291748,-0.417603,0.888123
1470247132842923,-0.190125,0.0292969,-0.417603,0.888
1470247132857437,-0.19043,0.0293579,-0.417664,0.887878
1470247132880457,-0.190674,0.0293579,-0.417786,0.887817
1470247132902977,-0.190918,0.02948,-0.417847,0.887756
1470247132923996,-0.19104,0.0294189,-0.417969,0.887634
1470247132940512,-0.191101,0.0294189,-0.417969,0.887634
1470247132963031,-0.191162,0.0293579,-0.41803,0.887573
1470247132984049,-0.191162,0.0293579,-0.41803,0.887573
1470247133000567,-0.191223,0.0293579,-0.41803,0.887573
1470247133023085,-0.190979,0.0291748,-0.418091,0.887634
1470247133044604,-0.190796,0.0291748,-0.418152,0.887634
1470247133060119,-0.190796,0.0291138,-0.418152,0.887634
1470247133082639,-0.190857,0.0291748,-0.418152,0.887634
1470247133104157,-0.190857,0.0291748,-0.418152,0.887634
1470247133120174,-0.190857,0.0291748,-0.418152,0.887634
1470247133142692,-0.190674,0.0291748,-0.418213,0.887634
1470247133163730,-0.19043,0.0292358,-0.418213,0.887695
1470247133180240,-0.190247,0.0291748,-0.418213,0.887695
1470247133202746,-0.190247,0.0291748,-0.418213,0.887695
1470247133223767,-0.190247,0.0291748,-0.418213,0.887695
1470247133240281,-0.190247,0.0291748,-0.418213,0.887695
1470247133262800,-0.190247,0.0292358,-0.418213,0.887695
1470247133283819,-0.190247,0.0292358,-0.418213,0.887695
1470247133300335,-0.190247,0.0292358,-0.418213,0.887695
1470247133322855,-0.190247,0.0292358,-0.418213,0.887695
1470247133345374,-0.190552,0.0291138,-0.418274,0.887634
1470247133360389,-0.19043,0.0291138,-0.418457,0.887573
1470247133382909,-0.190247,0.0289917,-0.41864,0.887512
1470247133405429,-0.189941,0.0288086,-0.418945,0.887451
1470247133420944,-0.189087,0.0286255,-0.419189,0.887512
1470247133442963,-0.187744,0.0284424,-0.419495,0.887634
1470247133465482,-0.186096,0.0284424,-0.4198,0.887878
1470247133480496,-0.184448,0.0286255,-0.420044,0.888062
1470247133510523,-0.183105,0.0290527,-0.420227,0.888306
1470247133525537,-0.181824,0.0296631,-0.420349,0.888428
1470247133539550,-0.180664,0.0304565,-0.420532,0.888611
1470247133563069,-0.179626,0.031311,-0.420715,0.888672
1470247133586091,-0.179077,0.0320435,-0.420898,0.888672
1470247133599603,-0.179138,0.0327148,-0.421082,0.88855
1470247133622624,-0.179443,0.03302,-0.421265,0.888367
1470247133645144,-0.179688,0.032959,-0.421448,0.888245
1470247133659657,-0.179932,0.0326538,-0.421448,0.888245
1470247133682677,-0.18042,0.0322876,-0.421265,0.888245
1470247133705199,-0.18103,0.0320435,-0.420837,0.888306
1470247133719712,-0.18158,0.0317383,-0.420288,0.888489
1470247133742731,-0.182251,0.031189,-0.4198,0.88855
1470247133765752,-0.183044,0.0305786,-0.41925,0.888672
1470247133779764,-0.183594,0.0301514,-0.418823,0.888794
1470247133802786,-0.184082,0.0297852,-0.418457,0.888855
1470247133825306,-0.184387,0.0296631,-0.418152,0.888977
1470247133846328,-0.184326,0.0297241,-0.418091,0.889038
1470247133862840,-0.183838,0.0299072,-0.418091,0.889099
1470247133885359,-0.183105,0.0302734,-0.418274,0.88916
1470247133890864,-0.182495,0.0308228,-0.418579,0.889099
1470247133908881,-0.182068,0.0316162,-0.418823,0.889038
1470247133928399,-0.181946,0.0325317,-0.419067,0.888916
1470247133950918,-0.181946,0.0333862,-0.419373,0.888794
1470247133968935,-0.182129,0.0341187,-0.419556,0.888611
1470247133988452,-0.182129,0.034668,-0.419556,0.888611
1470247134010972,-0.182129,0.0348511,-0.419495,0.888611
1470247134029026,-0.182251,0.034729,-0.419434,0.888611
1470247134048006,-0.182556,0.0343018,-0.419312,0.888672
1470247134071026,-0.182983,0.0337524,-0.419067,0.888672
1470247134088542,-0.183777,0.0332642,-0.418762,0.888672
1470247134108561,-0.184509,0.0327759,-0.418457,0.888672
1470247134130580,-0.184998,0.0324097,-0.418091,0.888733
1470247134149096,-0.185486,0.0323486,-0.417664,0.888855
1470247134168616,-0.186035,0.0323486,-0.417297,0.888916
1470247134190635,-0.18634,0.0324707,-0.416992,0.888977
1470247134208650,-0.186646,0.0327148,-0.416748,0.889038
1470247134228168,-0.187073,0.0331421,-0.416626,0.888977
1470247134250689,-0.187439,0.0334473,-0.416504,0.888977
1470247134273207,-0.187805,0.0336914,-0.416443,0.888916
1470247134288223,-0.188354,0.0339355,-0.416443,0.888794
1470247134310742,-0.188782,0.0340576,-0.416504,0.888672
1470247134328758,-0.188721,0.0340576,-0.416504,0.888672
1470247134348276,-0.188782,0.0341187,-0.416443,0.888672
1470247134370795,-0.189026,0.0342407,-0.416504,0.888611
1470247134388813,-0.189026,0.0343018,-0.416504,0.888611
1470247134408331,-0.189209,0.0345459,-0.416565,0.888489
1470247134439358,-0.189575,0.034668,-0.416565,0.888428
1470247134448868,-0.189514,0.034729,-0.416443,0.888489
1470247134468384,-0.189026,0.03479,-0.416382,0.888611
1470247134493405,-0.188538,0.0348511,-0.416443,0.888733
1470247134508419,-0.187866,0.0350342,-0.416504,0.888794
1470247134528438,-0.187622,0.0352173,-0.416565,0.888794
1470247134550956,-0.187317,0.0354004,-0.416687,0.888855
1470247134568974,-0.187134,0.0354614,-0.41687,0.888794
1470247134588491,-0.18689,0.0354614,-0.417175,0.888672
1470247134611013,-0.186707,0.0355225,-0.41748,0.888611
1470247134633531,-0.186707,0.0355225,-0.417664,0.888489
1470247134648044,-0.186707,0.0355835,-0.417664,0.888489
1470247134673567,-0.186707,0.0355835,-0.417664,0.888489
1470247134693084,-0.186707,0.0355835,-0.417664,0.888489
1470247134708098,-0.186707,0.0355225,-0.417725,0.888489
1470247134730619,-0.186707,0.0355225,-0.417725,0.888489
1470247134749135,-0.186707,0.0355835,-0.417664,0.888489
1470247134769655,-0.186707,0.0355835,-0.417664,0.888489
1470247134790674,-0.186707,0.0355835,-0.417664,0.888489
1470247134808689,-0.187073,0.0355835,-0.417664,0.888428
1470247134828208,-0.187134,0.0355225,-0.417664,0.888428
1470247134850727,-0.187134,0.0355225,-0.417664,0.888428
1470247134873246,-0.187561,0.0355225,-0.417603,0.888367
1470247134888260,-0.187744,0.0354004,-0.417603,0.888306
1470247134910781,-0.187805,0.0352173,-0.417603,0.888306
1470247134928797,-0.187866,0.0350952,-0.417725,0.888245
1470247134949815,-0.187866,0.0350952,-0.417725,0.888245
1470247134970835,-0.187866,0.0350952,-0.417725,0.888245
1470247134994857,-0.187683,0.0352783,-0.417786,0.888245
1470247135009869,-0.187378,0.0354004,-0.417786,0.888306
1470247135030889,-0.186829,0.0355225,-0.417847,0.888367
1470247135053408,-0.186462,0.0357666,-0.417908,0.888428
1470247135069922,-0.186523,0.0361938,-0.417969,0.888367
1470247135090941,-0.186646,0.036438,-0.417969,0.888306
1470247135108958,-0.186584,0.036438,-0.417969,0.888306
1470247135129478,-0.186646,0.036438,-0.417969,0.888306
1470247135150996,-0.186646,0.036438,-0.417969,0.888306
1470247135169012,-0.186584,0.036438,-0.417969,0.888306
1470247135189531,-0.186829,0.0362549,-0.417908,0.888306
1470247135211050,-0.187073,0.0361328,-0.417786,0.888306
1470247135233071,-0.187439,0.0360718,-0.417725,0.888306
1470247135251086,-0.187866,0.0359497,-0.417603,0.888306
1470247135271103,-0.188232,0.0358887,-0.417419,0.888245
1470247135288620,-0.188782,0.0357666,-0.417358,0.888184
1470247135311140,-0.189331,0.0357056,-0.417297,0.888123
1470247135330659,-0.189758,0.0354614,-0.417419,0.887939
1470247135353178,-0.190063,0.0352173,-0.417542,0.887817
1470247135371194,-0.189941,0.0349121,-0.417847,0.887756
1470247135390710,-0.189575,0.0345459,-0.418152,0.887695
1470247135413232,-0.188782,0.0343628,-0.418396,0.887756
1470247135431248,-0.187439,0.0342407,-0.418579,0.887939
1470247135450765,-0.185913,0.0344849,-0.41864,0.888245
1470247135473285,-0.184631,0.0350952,-0.418518,0.88855
1470247135491301,-0.18335,0.0358887,-0.418457,0.888794
1470247135510820,-0.182007,0.0369873,-0.418335,0.889099
1470247135533339,-0.181091,0.0383911,-0.418091,0.889343
1470247135557360,-0.180298,0.0397339,-0.417175,0.889893
1470247135570873,-0.180054,0.0407104,-0.416504,0.890198
1470247135593393,-0.179932,0.0413208,-0.416199,0.89032
1470247135611409,-0.180054,0.0415649,-0.416016,0.890381
1470247135630927,-0.180298,0.0414429,-0.415894,0.890381
1470247135653447,-0.180481,0.0409546,-0.415771,0.890442
1470247135671463,-0.180786,0.0405273,-0.415466,0.890564
1470247135691006,-0.181458,0.0400391,-0.414978,0.890625
1470247135713526,-0.18219,0.0396118,-0.41449,0.890747
1470247135731042,-0.182861,0.0391846,-0.413879,0.89093
1470247135751060,-0.183411,0.0388794,-0.413391,0.891052
1470247135773079,-0.183777,0.0385132,-0.412903,0.891174
1470247135791096,-0.184082,0.0383911,-0.412537,0.891296
1470247135810614,-0.184204,0.0385132,-0.412231,0.891418
1470247135833134,-0.184204,0.0385742,-0.412231,0.891418
1470247135851650,-0.184204,0.0388794,-0.412292,0.891357
1470247135872170,-0.184143,0.0392456,-0.412292,0.891357
1470247135893188,-0.184326,0.0397949,-0.412292,0.891296
1470247135911205,-0.18457,0.0401001,-0.412415,0.891174
1470247135932223,-0.184753,0.0403442,-0.412476,0.891113
1470247135953242,-0.185181,0.0405273,-0.412476,0.890991
1470247135971259,-0.18573,0.0405884,-0.412476,0.890869
1470247135992277,-0.186096,0.0404053,-0.412415,0.890869
1470247136013297,-0.186523,0.0401001,-0.412354,0.890808
1470247136031314,-0.187012,0.0397949,-0.412292,0.890747
1470247136052334,-0.187378,0.0393066,-0.41217,0.890747
1470247136080856,-0.1875,0.0388184,-0.41217,0.890747
1470247136091367,-0.187439,0.0384521,-0.41217,0.890808
1470247136112384,-0.18689,0.038208,-0.412231,0.890869
1470247136133403,-0.186401,0.038208,-0.412292,0.890991
1470247136151419,-0.185852,0.0384521,-0.412354,0.891052
1470247136172439,-0.185303,0.0390015,-0.412476,0.891052
1470247136193458,-0.184875,0.0396118,-0.412659,0.891052
1470247136211473,-0.184631,0.0402222,-0.412903,0.89093
1470247136233995,-0.184631,0.0408936,-0.413147,0.890808
1470247136253011,-0.184753,0.0413208,-0.413452,0.890625
1470247136271029,-0.184875,0.0415039,-0.413818,0.890442
1470247136293548,-0.184875,0.0415039,-0.414063,0.89032
1470247136313066,-0.184692,0.0413208,-0.414246,0.890259
1470247136331082,-0.184631,0.0409546,-0.414368,0.890198
1470247136353601,-0.184631,0.0407104,-0.414368,0.890259
1470247136373119,-0.184753,0.0404053,-0.414246,0.890259
1470247136390134,-0.184753,0.0401611,-0.414124,0.890381
1470247136412655,-0.184753,0.0402222,-0.414124,0.890381
1470247136434173,-0.184814,0.0402222,-0.414124,0.89032
1470247136450688,-0.184814,0.0402222,-0.414124,0.89032
1470247136472727,-0.184692,0.0404663,-0.414063,0.890381
1470247136494227,-0.184448,0.0405884,-0.414124,0.890381
1470247136510243,-0.184265,0.0408325,-0.414124,0.890442
1470247136533763,-0.184448,0.0411377,-0.414246,0.89032
1470247136554284,-0.18457,0.0412598,-0.414307,0.890259
1470247136570296,-0.18457,0.0412598,-0.414307,0.890259
1470247136592818,-0.184448,0.0415039,-0.414368,0.890259
1470247136613851,-0.184204,0.041687,-0.414429,0.890259
1470247136630350,-0.184021,0.0418701,-0.41449,0.890259
1470247136652870,-0.184021,0.0418701,-0.41449,0.890259
1470247136673889,-0.183838,0.0419312,-0.414551,0.890259
1470247136690404,-0.183533,0.0419922,-0.414673,0.890259
1470247136712924,-0.183472,0.0420532,-0.414673,0.890259
1470247136733943,-0.183899,0.0420532,-0.414856,0.890137
1470247136750458,-0.184326,0.0421753,-0.4151,0.889893
1470247136772980,-0.18457,0.0424194,-0.415344,0.889709
1470247136793999,-0.18457,0.0427246,-0.415527,0.889648
1470247136810529,-0.184265,0.0430298,-0.415588,0.889648
1470247136833048,-0.183899,0.0432739,-0.415527,0.889709
1470247136854066,-0.183411,0.0435791,-0.415466,0.889832
1470247136870581,-0.183105,0.0438232,-0.415344,0.889954
1470247136893103,-0.182739,0.0440063,-0.415222,0.890076
1470247136914121,-0.182495,0.0440674,-0.415161,0.890137
1470247136930135,-0.182495,0.0440674,-0.415161,0.890137
1470247136953156,-0.182495,0.0441284,-0.415161,0.890137
1470247136974175,-0.182373,0.0441284,-0.415039,0.890259
1470247136990190,-0.181946,0.0440674,-0.414856,0.890381
1470247137013211,-0.181519,0.0440063,-0.414856,0.890503
1470247137034228,-0.181335,0.0442505,-0.414978,0.890503
1470247137050243,-0.181335,0.0442505,-0.414978,0.890442
1470247137072763,-0.181396,0.0442505,-0.414978,0.890442
1470247137094282,-0.181396,0.0442505,-0.414978,0.890442
1470247137110798,-0.181396,0.0442505,-0.414978,0.890442
1470247137132818,-0.181335,0.0442505,-0.414978,0.890442
1470247137155338,-0.18158,0.0443726,-0.414734,0.890503
1470247137170351,-0.181458,0.0444946,-0.414429,0.890686
1470247137192872,-0.181274,0.0447388,-0.414368,0.890747
1470247137215391,-0.181396,0.045105,-0.414368,0.890686
1470247137230405,-0.181824,0.0454712,-0.414429,0.890564
1470247137252926,-0.182373,0.0456543,-0.414551,0.890381
1470247137275445,-0.182739,0.0458374,-0.414612,0.890259
1470247137289958,-0.182983,0.0458984,-0.414673,0.890198
1470247137312979,-0.182983,0.0458374,-0.414673,0.890198
1470247137335501,-0.182983,0.0458374,-0.414673,0.890198
1470247137349511,-0.182983,0.0458374,-0.414673,0.890198
1470247137373037,-0.182983,0.0458984,-0.414673,0.890198
1470247137395552,-0.182983,0.0458984,-0.414612,0.890198
1470247137409565,-0.182983,0.0458984,-0.414612,0.890198
1470247137433087,-0.183105,0.0457764,-0.414612,0.890198
1470247137455629,-0.183105,0.0455933,-0.414551,0.890259
1470247137469636,-0.182983,0.0453491,-0.414551,0.890259
1470247137492640,-0.1828,0.0450439,-0.414551,0.89032
1470247137515660,-0.182678,0.0447388,-0.41449,0.890381
1470247137529675,-0.182678,0.0443726,-0.414368,0.890442
1470247137552711,-0.182861,0.0440674,-0.414185,0.890503
1470247137575215,-0.183228,0.0437622,-0.414124,0.890503
1470247137589728,-0.183472,0.0435791,-0.414124,0.890442
1470247137612748,-0.183594,0.043457,-0.414124,0.890442
1470247137635270,-0.183655,0.043335,-0.414063,0.890442
1470247137656788,-0.183594,0.0432129,-0.414063,0.890503
1470247137672859,-0.183472,0.0429688,-0.414124,0.890503
1470247137695322,-0.183594,0.0426636,-0.414246,0.890442
1470247137716340,-0.183899,0.0422974,-0.414307,0.890381
1470247137732856,-0.184326,0.0419922,-0.414246,0.89032
1470247137755376,-0.184937,0.0418701,-0.414063,0.890259
1470247137776394,-0.185425,0.0418091,-0.414001,0.890198
1470247137792919,-0.185425,0.0418091,-0.414001,0.890198
1470247137815431,-0.185242,0.041748,-0.414001,0.890259
1470247137836448,-0.184937,0.041748,-0.414001,0.89032
1470247137852964,-0.184814,0.041687,-0.414124,0.890259
1470247137875484,-0.184875,0.0415649,-0.414307,0.890198
1470247137896558,-0.18512,0.0413208,-0.414551,0.890015
1470247137913018,-0.185669,0.0411987,-0.414673,0.889893
1470247137935541,-0.186157,0.0410156,-0.414551,0.889832
1470247137956573,-0.186523,0.0408936,-0.414368,0.889832
1470247137973073,-0.186584,0.0408936,-0.414368,0.889832
1470247137995093,-0.186279,0.0409546,-0.414246,0.889954
1470247138016610,-0.186035,0.0410156,-0.414124,0.890015
1470247138033126,-0.185974,0.0410767,-0.414124,0.890076
1470247138055645,-0.185974,0.0410767,-0.414063,0.890076
1470247138076681,-0.185974,0.0410767,-0.414063,0.890076
1470247138092678,-0.18634,0.0410156,-0.414124,0.890015
1470247138115703,-0.186707,0.0410767,-0.41394,0.890015
1470247138137720,-0.187134,0.0411377,-0.413696,0.890015
1470247138152733,-0.187073,0.0412598,-0.413452,0.890137
1470247138175753,-0.186707,0.0413208,-0.413269,0.890259
1470247138197809,-0.186523,0.0415649,-0.413147,0.890381
1470247138218807,-0.186279,0.041687,-0.413025,0.890442
1470247138235807,-0.186096,0.0415649,-0.413147,0.890503
1470247138257827,-0.186035,0.0415649,-0.413147,0.890503
1470247138272340,-0.186646,0.0412598,-0.413208,0.890381
1470247138295361,-0.187317,0.0410156,-0.413147,0.890259
1470247138317882,-0.187683,0.0407715,-0.412964,0.890259
1470247138332395,-0.187744,0.0405884,-0.412781,0.89032
1470247138355415,-0.1875,0.0405273,-0.412659,0.890442
1470247138377935,-0.1875,0.0405273,-0.412659,0.890442
1470247138391948,-0.187439,0.0408325,-0.412415,0.890564
1470247138415469,-0.187378,0.0409546,-0.412354,0.890625
1470247138437990,-0.187134,0.0408936,-0.412476,0.890625
1470247138452504,-0.187134,0.0406494,-0.412537,0.890564
1470247138475523,-0.187622,0.0404053,-0.412537,0.890503
1470247138498044,-0.18811,0.0401611,-0.412537,0.890381
1470247138512056,-0.188354,0.0400391,-0.412415,0.890381
1470247138535576,-0.188354,0.0400391,-0.412415,0.890381
1470247138558097,-0.18811,0.039978,-0.412354,0.890503
1470247138572110,-0.187988,0.0401611,-0.412231,0.890564
1470247138595632,-0.187805,0.0402832,-0.412231,0.890564
1470247138618151,-0.187622,0.0401611,-0.412476,0.890503
1470247138639170,-0.187683,0.039856,-0.412842,0.890381
1470247138655685,-0.18811,0.0394897,-0.413147,0.890137
1470247138685211,-0.188599,0.0392456,-0.413391,0.889954
1470247138699224,-0.188782,0.0390015,-0.413391,0.889893
1470247138715738,-0.188599,0.0388184,-0.41333,0.890015
1470247138737758,-0.188171,0.0385742,-0.41333,0.890076
1470247138759290,-0.187744,0.0385132,-0.413269,0.890198
1470247138775292,-0.1875,0.0385132,-0.413269,0.890259
1470247138797829,-0.187439,0.0383911,-0.41333,0.890259
1470247138819334,-0.187378,0.0379639,-0.413513,0.890198
1470247138835364,-0.187439,0.0374146,-0.413757,0.890076
1470247138857867,-0.187927,0.0369873,-0.413879,0.889954
1470247138878884,-0.188232,0.0365601,-0.413879,0.889893
1470247138895400,-0.188293,0.0361328,-0.413696,0.889954
1470247138917921,-0.187988,0.0357056,-0.413635,0.890137
1470247138938938,-0.187561,0.0355225,-0.413452,0.890259
1470247138955453,-0.187317,0.0354004,-0.413269,0.890442
1470247138977973,-0.187134,0.0352173,-0.413269,0.890442
1470247138998992,-0.186951,0.0349731,-0.413391,0.890442
1470247139015508,-0.187256,0.034729,-0.413452,0.890381
1470247139038028,-0.187683,0.0343628,-0.413574,0.890259
1470247139060548,-0.187927,0.0341187,-0.413513,0.890198
1470247139075561,-0.187927,0.0339966,-0.413391,0.89032
1470247139098082,-0.187805,0.0337524,-0.413147,0.890442
1470247139120603,-0.187256,0.0336304,-0.412964,0.890625
1470247139135617,-0.186829,0.0335083,-0.412781,0.890808
1470247139158135,-0.186707,0.0336304,-0.412659,0.89093
1470247139180656,-0.186768,0.0336304,-0.412659,0.890869
1470247139194668,-0.187134,0.0335693,-0.41272,0.890808
1470247139218189,-0.187622,0.0334473,-0.412781,0.890686
1470247139240209,-0.187988,0.0332642,-0.412842,0.890564
1470247139254722,-0.187988,0.0330811,-0.412781,0.890564
1470247139277743,-0.187927,0.0330811,-0.412598,0.890686
1470247139300263,-0.187683,0.0332031,-0.412415,0.890808
1470247139314776,-0.187317,0.0333862,-0.412231,0.890991
1470247139337797,-0.186768,0.0336304,-0.411987,0.891174
1470247139360817,-0.186401,0.0338745,-0.411865,0.891296
1470247139374830,-0.186218,0.0339966,-0.411865,0.891357
1470247139397851,-0.186157,0.0341187,-0.411865,0.891357
1470247139420371,-0.186523,0.0342407,-0.411682,0.891357
1470247139434884,-0.186707,0.0341797,-0.411499,0.891418
1470247139457905,-0.186646,0.0341797,-0.411499,0.891418
1470247139480424,-0.186279,0.0340576,-0.411316,0.891602
1470247139501444,-0.185791,0.0339966,-0.411133,0.891785
1470247139517959,-0.185425,0.0340576,-0.411011,0.891907
1470247139540479,-0.184998,0.0342407,-0.410889,0.892029
1470247139561499,-0.184814,0.0343628,-0.41095,0.892029
1470247139578013,-0.184814,0.0343628,-0.411133,0.891968
1470247139600533,-0.184937,0.0341797,-0.411255,0.891907
1470247139621551,-0.185059,0.0340576,-0.411316,0.891846
1470247139638067,-0.184937,0.0338135,-0.411255,0.891907
1470247139660587,-0.184509,0.0336304,-0.411133,0.89209
1470247139681620,-0.184082,0.0335083,-0.41095,0.892273
1470247139698120,-0.183411,0.0335083,-0.410767,0.892456
1470247139720640,-0.182861,0.0336914,-0.410645,0.892639
1470247139741658,-0.182617,0.0339355,-0.410583,0.8927
1470247139758174,-0.182617,0.0340576,-0.410767,0.892578
1470247139780696,-0.182861,0.0340576,-0.411011,0.892456
1470247139801713,-0.183289,0.0340576,-0.411133,0.892273
1470247139817729,-0.183716,0.0341187,-0.411133,0.892212
1470247139840249,-0.183655,0.0341187,-0.411133,0.892212
1470247139861767,-0.18335,0.0341797,-0.411011,0.892334
1470247139877783,-0.182922,0.0342407,-0.410889,0.892456
1470247139900802,-0.182495,0.0344238,-0.410767,0.892639
1470247139921821,-0.18219,0.034668,-0.410645,0.8927
1470247139937836,-0.182312,0.0349121,-0.410706,0.892639
1470247139960362,-0.182678,0.0350342,-0.411011,0.892456
1470247139981875,-0.183289,0.0350952,-0.411255,0.892212
1470247139997889,-0.183838,0.0352173,-0.411377,0.892029
1470247140020410,-0.183899,0.0352173,-0.411438,0.891968
1470247140042930,-0.183472,0.0351563,-0.411377,0.89209
1470247140057943,-0.182983,0.0351563,-0.411255,0.892273
1470247140080465,-0.182495,0.0352173,-0.411194,0.892395
1470247140102984,-0.182007,0.0354004,-0.410889,0.892639
1470247140117997,-0.181641,0.0355225,-0.410706,0.892761
1470247140140517,-0.18158,0.0355225,-0.410889,0.8927
1470247140163037,-0.181885,0.0354614,-0.411072,0.892578
1470247140177550,-0.182556,0.0355835,-0.411194,0.892395
1470247140200572,-0.182983,0.0356445,-0.411255,0.892273
1470247140223092,-0.182922,0.0356445,-0.411255,0.892273
1470247140237605,-0.182434,0.0357666,-0.411133,0.892395
1470247140260626,-0.181885,0.0358276,-0.411011,0.892578
1470247140283146,-0.181458,0.0358887,-0.410828,0.8927
1470247140297159,-0.181274,0.0360718,-0.410706,0.892822
1470247140320679,-0.181335,0.0360718,-0.410645,0.892822
1470247140343199,-0.181641,0.036377,-0.410706,0.892761
1470247140357212,-0.18219,0.0366211,-0.410828,0.892578
1470247140380735,-0.182495,0.0369263,-0.410889,0.892456
1470247140402754,-0.182495,0.0372925,-0.41095,0.892395
1470247140417266,-0.182434,0.0373535,-0.41095,0.892456
1470247140440287,-0.182312,0.0375366,-0.411011,0.892395
1470247140462807,-0.182129,0.0377197,-0.411072,0.892456
1470247140477320,-0.181946,0.0379028,-0.411011,0.892456
1470247140500841,-0.181946,0.0379028,-0.411011,0.892456
1470247140522861,-0.182007,0.0379028,-0.411011,0.892456
1470247140543879,-0.182373,0.0380859,-0.411011,0.892395
1470247140560395,-0.182739,0.0383911,-0.411011,0.892273
1470247140582915,-0.183044,0.0388184,-0.41095,0.892212
1470247140603934,-0.182922,0.0390625,-0.410889,0.892273
1470247140620949,-0.182556,0.0393677,-0.410889,0.892334
1470247140642969,-0.182373,0.0396118,-0.410828,0.892395
1470247140663988,-0.182251,0.039917,-0.410828,0.892395
1470247140680503,-0.182068,0.0401001,-0.410767,0.892456
1470247140703022,-0.182068,0.0403442,-0.410767,0.892456
1470247140724042,-0.182434,0.0405884,-0.410706,0.892395
1470247140740556,-0.182922,0.0407104,-0.410767,0.892273
1470247140763076,-0.183105,0.0407104,-0.410767,0.892212
1470247140784096,-0.183105,0.0407104,-0.410767,0.892212
1470247140800611,-0.183105,0.0407715,-0.410767,0.892212
1470247140822630,-0.182922,0.0407715,-0.410828,0.892273
1470247140844148,-0.182678,0.0407104,-0.410767,0.892273
1470247140860664,-0.182678,0.0407104,-0.410828,0.892273
1470247140883184,-0.182678,0.0406494,-0.410828,0.892273
1470247140904204,-0.183044,0.0407715,-0.410828,0.892212
1470247140920718,-0.183411,0.0410156,-0.410828,0.89209
1470247140942737,-0.183716,0.0411377,-0.41095,0.892029
1470247140965758,-0.18396,0.0412598,-0.411011,0.891907
1470247140980771,-0.183899,0.0412598,-0.411011,0.891907
1470247141002792,-0.183899,0.0413208,-0.411011,0.891907
1470247141025312,-0.183716,0.0414429,-0.411011,0.891968
1470247141039825,-0.183411,0.041626,-0.411072,0.891968
1470247141062846,-0.183533,0.0418091,-0.411133,0.891907
1470247141085367,-0.184021,0.0421753,-0.411255,0.891724
1470247141099879,-0.184631,0.0426025,-0.411438,0.891541
1470247141122899,-0.18512,0.0429077,-0.411621,0.891296
1470247141145420,-0.185425,0.0432739,-0.411804,0.891174
1470247141159933,-0.185547,0.0436401,-0.411926,0.891052
1470247141183954,-0.185486,0.0436401,-0.411926,0.891052
1470247141205474,-0.185242,0.0436401,-0.411926,0.891113
1470247141219987,-0.184875,0.0437012,-0.411926,0.891174
1470247141243008,-0.18457,0.0437012,-0.411865,0.891296
1470247141265528,-0.18457,0.0437012,-0.411865,0.891296
1470247141281042,-0.185059,0.0438232,-0.411804,0.891174
1470247141303562,-0.185425,0.0438232,-0.411682,0.891174
1470247141325581,-0.185425,0.0438843,-0.411682,0.891174
1470247141348102,-0.185242,0.0437622,-0.41156,0.891235
1470247141363115,-0.185242,0.0438232,-0.41156,0.891235
1470247141385637,-0.185242,0.0438232,-0.41156,0.891235
1470247141399648,-0.18512,0.0439453,-0.411438,0.891357
1470247141423169,-0.184875,0.0439453,-0.411438,0.891357
1470247141445690,-0.184814,0.0438843,-0.41156,0.891357
1470247141466709,-0.18512,0.0439453,-0.411682,0.891235
1470247141483223,-0.185608,0.0440063,-0.411804,0.891113
1470247141505242,-0.185852,0.0441284,-0.411865,0.890991
1470247141526763,-0.185852,0.0441284,-0.411865,0.890991
1470247141542776,-0.185486,0.0442505,-0.411926,0.891052
1470247141565800,-0.185425,0.0443115,-0.411926,0.891052
1470247141586815,-0.18512,0.0444336,-0.411804,0.891113
1470247141602830,-0.184692,0.0444336,-0.411865,0.891235
1470247141625352,-0.184326,0.0444336,-0.411926,0.891296
1470247141654895,-0.184326,0.0444336,-0.411926,0.891296
1470247141656378,-0.184753,0.0443726,-0.411926,0.891174
1470247141668412,-0.184998,0.0444336,-0.411987,0.891113
1470247141690909,-0.184937,0.0444336,-0.411987,0.891113
1470247141713430,-0.184937,0.0444946,-0.411926,0.891113
1470247141728445,-0.18457,0.0446167,-0.411926,0.891174
1470247141750963,-0.184509,0.0446167,-0.411926,0.891235
1470247141773485,-0.184509,0.0449219,-0.411926,0.891174
1470247141788499,-0.184998,0.045105,-0.411621,0.891235
1470247141811017,-0.185181,0.0452271,-0.411377,0.891296
1470247141833539,-0.184265,0.045166,-0.411377,0.891479
1470247141848551,-0.185059,0.0454712,-0.411499,0.891235
1470247141871071,-0.186523,0.0457764,-0.411438,0.89093
1470247141893592,-0.187378,0.0458984,-0.411377,0.890808
1470247141908104,-0.187256,0.0462036,-0.411377,0.890808
1470247141930624,-0.18634,0.0465698,-0.411438,0.89093
1470247141953145,-0.185669,0.046875,-0.411377,0.891113
1470247141968660,-0.185913,0.0469971,-0.411133,0.891174
1470247141990678,-0.185974,0.0469971,-0.411133,0.891174
1470247142013198,-0.186035,0.046936,-0.411133,0.891174
1470247142028214,-0.185974,0.0465698,-0.411316,0.891113
1470247142050734,-0.186157,0.0463257,-0.411438,0.890991
1470247142073271,-0.186523,0.0462646,-0.411316,0.890991
1470247142088785,-0.186707,0.0463257,-0.411072,0.891052
1470247142110813,-0.186523,0.0465698,-0.410767,0.891235
1470247142133307,-0.185913,0.0467529,-0.410339,0.891541
1470247142148327,-0.18573,0.046814,-0.40979,0.891846
1470247142178347,-0.186157,0.0473022,-0.409302,0.891968
1470247142193385,-0.18689,0.0469971,-0.409058,0.891907
1470247142208374,-0.18689,0.046936,-0.409058,0.891907
1470247142230896,-0.187073,0.0466919,-0.409058,0.891907
1470247142253432,-0.187134,0.0464478,-0.409058,0.891907
1470247142268455,-0.187439,0.0465088,-0.409058,0.891846
1470247142290948,-0.187622,0.0466919,-0.408936,0.891846
1470247142313468,-0.187378,0.046875,-0.408813,0.891907
1470247142329985,-0.186951,0.046936,-0.408691,0.89209
1470247142351005,-0.186401,0.046936,-0.408691,0.892212
1470247142373524,-0.186401,0.046875,-0.408691,0.892212
1470247142388536,-0.186401,0.046875,-0.408691,0.892212
1470247142411056,-0.186768,0.0466919,-0.408813,0.89209
1470247142433577,-0.1875,0.0466309,-0.408813,0.891907
1470247142448591,-0.1875,0.0466309,-0.408813,0.891907
1470247142471114,-0.187195,0.0465088,-0.408813,0.892029
1470247142493130,-0.186768,0.0463257,-0.408813,0.89209
1470247142511148,-0.18634,0.0461426,-0.408813,0.892212
1470247142531165,-0.186218,0.0460205,-0.40863,0.892273
1470247142553690,-0.185913,0.0458374,-0.408508,0.892456
1470247142569698,-0.185425,0.0457153,-0.408569,0.892517
1470247142590719,-0.185425,0.0456543,-0.408569,0.892517
1470247142613238,-0.186279,0.0457153,-0.408752,0.892273
1470247142629752,-0.187256,0.0458984,-0.408691,0.892029
1470247142650771,-0.187073,0.0458984,-0.40863,0.892151
1470247142673292,-0.185791,0.0455933,-0.408752,0.892334
1470247142689806,-0.184631,0.0455933,-0.408997,0.892517
1470247142710853,-0.184204,0.0455933,-0.409058,0.892517
1470247142733347,-0.184204,0.0455933,-0.409058,0.892517
1470247142749861,-0.18457,0.0457764,-0.409119,0.892456
1470247142770878,-0.184631,0.0457764,-0.409119,0.892456
1470247142793409,-0.184875,0.0457764,-0.409241,0.892334
1470247142809920,-0.185364,0.0457764,-0.409363,0.892151
1470247142830936,-0.185852,0.0458374,-0.409424,0.892029
1470247142853455,-0.185852,0.0458374,-0.409424,0.892029
1470247142871470,-0.185791,0.0457153,-0.409485,0.892029
1470247142890987,-0.185547,0.0455322,-0.409546,0.892029
1470247142913510,-0.18512,0.0452881,-0.409485,0.892151
1470247142931524,-0.184692,0.045105,-0.409424,0.892273
1470247142951042,-0.18457,0.0449829,-0.409363,0.892334
1470247142973578,-0.184875,0.0449829,-0.409363,0.892273
1470247142991579,-0.185425,0.0449829,-0.409424,0.892151
1470247143011099,-0.185669,0.0450439,-0.409485,0.89209
1470247143033616,-0.185669,0.0450439,-0.409485,0.89209
1470247143051131,-0.185364,0.0449219,-0.409546,0.892151
1470247143071254,-0.185181,0.0447998,-0.409546,0.892151
1470247143093673,-0.184753,0.0446777,-0.409546,0.892273
1470247143111201,-0.184387,0.0444946,-0.409485,0.892334
1470247143131204,-0.184265,0.0444946,-0.409424,0.892456
1470247143153723,-0.184326,0.0443726,-0.409363,0.892456
1470247143171239,-0.184265,0.0441895,-0.409424,0.892456
1470247143190788,-0.184631,0.0441895,-0.409546,0.892334
1470247143213279,-0.185303,0.0443115,-0.409668,0.89209
1470247143231293,-0.185669,0.0444336,-0.40979,0.891968
1470247143250827,-0.185791,0.0446167,-0.409912,0.891907
1470247143273331,-0.185669,0.0446167,-0.410095,0.891846
1470247143291348,-0.185608,0.0446167,-0.410095,0.891846
1470247143310864,-0.185181,0.0444336,-0.410095,0.891907
1470247143333384,-0.184875,0.0443115,-0.410095,0.892029
1470247143351401,-0.184631,0.0441284,-0.410095,0.89209
1470247143370918,-0.18457,0.0438843,-0.410095,0.89209
1470247143393466,-0.18457,0.0438843,-0.410095,0.89209
1470247143411512,-0.184937,0.0437622,-0.410095,0.891968
1470247143430972,-0.185242,0.0436401,-0.410095,0.891968
1470247143453492,-0.185242,0.043457,-0.410095,0.891968
1470247143471508,-0.184998,0.0432129,-0.410095,0.892029
1470247143492527,-0.184692,0.0430908,-0.410034,0.89209
1470247143513546,-0.184326,0.0429077,-0.409973,0.892212
1470247143531568,-0.184082,0.0427856,-0.409912,0.892334
1470247143552081,-0.184143,0.0427246,-0.409912,0.892334
1470247143573599,-0.184509,0.0426636,-0.409973,0.892212
1470247143591116,-0.184998,0.0426636,-0.409973,0.89209
1470247143613636,-0.184998,0.0426636,-0.409973,0.89209
1470247143633154,-0.184998,0.0426636,-0.409973,0.89209
1470247143651169,-0.184753,0.0425415,-0.410034,0.892151
1470247143672188,-0.184387,0.0423584,-0.410095,0.892212
1470247143693708,-0.18396,0.0421753,-0.410095,0.892273
1470247143718731,-0.183533,0.0419312,-0.410095,0.892395
1470247143732242,-0.18335,0.041687,-0.410217,0.892395
1470247143753295,-0.183411,0.041687,-0.410217,0.892395
1470247143771278,-0.183655,0.0415649,-0.4104,0.892212
1470247143793798,-0.184021,0.0414429,-0.410583,0.89209
1470247143813916,-0.184204,0.0413818,-0.410706,0.891968
1470247143831333,-0.184143,0.0412598,-0.410889,0.891907
1470247143853854,-0.184143,0.0412598,-0.410889,0.891907
1470247143873369,-0.183838,0.0411987,-0.411011,0.891968
1470247143891385,-0.183411,0.0410156,-0.411072,0.892029
1470247143913907,-0.183167,0.0408325,-0.411011,0.89209
1470247143933425,-0.183167,0.0408325,-0.411011,0.89209
1470247143951513,-0.183228,0.0408325,-0.411011,0.89209
1470247143974010,-0.183228,0.0408325,-0.411011,0.89209
1470247143993556,-0.183533,0.0407715,-0.411133,0.891968
1470247144011517,-0.183838,0.0408325,-0.411255,0.891846
1470247144034013,-0.183838,0.0408325,-0.411255,0.891846
1470247144053531,-0.183411,0.0407715,-0.411255,0.891968
1470247144071549,-0.182983,0.0406494,-0.411194,0.892029
1470247144094068,-0.182556,0.0404663,-0.411133,0.892212
1470247144113678,-0.18219,0.0403442,-0.410889,0.892334
1470247144131101,-0.182068,0.0403442,-0.410706,0.892456
1470247144158625,-0.182129,0.0403442,-0.410706,0.892456
1470247144174139,-0.182556,0.0404663,-0.410706,0.892395
1470247144190654,-0.182922,0.0406494,-0.410767,0.892273
1470247144213174,-0.183105,0.0407715,-0.41095,0.892151
1470247144235694,-0.183105,0.0407715,-0.410889,0.892151
1470247144250709,-0.183105,0.0408325,-0.410889,0.892151
1470247144273230,-0.183044,0.0408325,-0.410889,0.892151
1470247144294267,-0.1828,0.0407104,-0.410889,0.892212
1470247144310770,-0.182495,0.0405884,-0.410767,0.892334
1470247144333282,-0.182068,0.0405273,-0.410706,0.892517
1470247144354301,-0.182007,0.0405884,-0.410583,0.892517
1470247144370316,-0.182068,0.0405884,-0.410583,0.892517
1470247144393335,-0.182251,0.0408325,-0.410645,0.892456
1470247144414355,-0.182251,0.0411987,-0.410706,0.892395
1470247144436875,-0.181946,0.0413818,-0.410889,0.892395
1470247144452889,-0.181641,0.0415649,-0.41095,0.892395
1470247144474460,-0.18158,0.0415649,-0.41095,0.892395
1470247144490423,-0.18158,0.0415649,-0.41095,0.892395
1470247144512943,-0.181091,0.0413818,-0.410889,0.892578
1470247144533963,-0.180664,0.0411987,-0.410706,0.8927
1470247144550978,-0.180725,0.0411987,-0.410706,0.8927
1470247144572999,-0.181152,0.0413818,-0.410583,0.8927
1470247144594018,-0.181641,0.0414429,-0.410583,0.892578
1470247144610531,-0.182068,0.0414429,-0.410767,0.892395
1470247144633051,-0.182068,0.0415039,-0.410767,0.892395
1470247144654084,-0.182068,0.0414429,-0.41095,0.892334
1470247144670584,-0.182068,0.0414429,-0.41095,0.892334
1470247144693105,-0.182007,0.0414429,-0.41095,0.892334
1470247144714129,-0.182007,0.0413818,-0.41095,0.892334
1470247144730639,-0.181824,0.0414429,-0.410767,0.892456
1470247144753159,-0.181885,0.0413818,-0.410583,0.892517
1470247144775680,-0.181946,0.0413818,-0.410583,0.892517
1470247144790693,-0.181946,0.0413818,-0.410583,0.892517
1470247144813215,-0.182434,0.0413818,-0.410583,0.892395
1470247144835733,-0.182434,0.0413818,-0.410583,0.892395
1470247144850747,-0.182373,0.0413818,-0.410583,0.892395
1470247144873266,-0.182434,0.0412598,-0.410645,0.892395
1470247144895787,-0.182373,0.0410767,-0.410706,0.892395
1470247144909800,-0.18219,0.0408325,-0.410706,0.892456
1470247144933320,-0.182068,0.0406494,-0.410583,0.892517
1470247144955725,-0.181946,0.0405273,-0.410583,0.892517
1470247144969738,-0.182007,0.0405273,-0.410583,0.892517
1470247144993259,-0.182068,0.0405273,-0.410583,0.892517
1470247145015778,-0.182434,0.0406494,-0.410706,0.892395
1470247145029792,-0.182617,0.0405884,-0.410889,0.892273
1470247145053312,-0.182617,0.0404053,-0.411133,0.892151
1470247145075333,-0.182617,0.0401611,-0.411255,0.892151
1470247145089847,-0.182312,0.039856,-0.411316,0.892212
1470247145112867,-0.181885,0.0394287,-0.411255,0.892334
1470247145135436,-0.181702,0.0390625,-0.411072,0.892456
1470247145150401,-0.181519,0.0388794,-0.41095,0.892517
1470247145173420,-0.181519,0.0388794,-0.41095,0.892517
1470247145195441,-0.18158,0.0388794,-0.41095,0.892517
1470247145209954,-0.181641,0.0388794,-0.41095,0.892517
1470247145232974,-0.181702,0.0388794,-0.41095,0.892517
1470247145255996,-0.181702,0.0388794,-0.41095,0.892517
1470247145276543,-0.181641,0.0388794,-0.41095,0.892517
1470247145293052,-0.181641,0.0388794,-0.41095,0.892517
1470247145315548,-0.18158,0.0388794,-0.41095,0.892517
1470247145336573,-0.181274,0.0387573,-0.410889,0.892639
1470247145353083,-0.181091,0.0386963,-0.410645,0.892761
1470247145375604,-0.181152,0.0388184,-0.410461,0.892822
1470247145396624,-0.181213,0.0388184,-0.410461,0.892822
1470247145413136,-0.181274,0.0388184,-0.410461,0.892822
1470247145435657,-0.181335,0.0388184,-0.410461,0.892822
1470247145456730,-0.181335,0.0388794,-0.410461,0.892822
1470247145473190,-0.181335,0.0388794,-0.410461,0.892822
1470247145495710,-0.181335,0.0388794,-0.410461,0.892822
1470247145516729,-0.181274,0.0388794,-0.410461,0.892822
1470247145533243,-0.181274,0.0388794,-0.410461,0.892822
1470247145555763,-0.181335,0.0389404,-0.410278,0.892883
1470247145576785,-0.181396,0.0389404,-0.410278,0.892883
1470247145593297,-0.181396,0.0389404,-0.410278,0.892883
1470247145615818,-0.181824,0.0391235,-0.410278,0.892761
1470247145636836,-0.182129,0.0393066,-0.410278,0.8927
1470247145652851,-0.182129,0.0393677,-0.410278,0.8927
1470247145675371,-0.182129,0.0393677,-0.410278,0.8927
1470247145697894,-0.182068,0.0393677,-0.410278,0.8927
1470247145712905,-0.182068,0.0393677,-0.410278,0.8927
1470247145735425,-0.182068,0.0393677,-0.410278,0.8927
1470247145757946,-0.181946,0.0393677,-0.410217,0.892761
1470247145772959,-0.181946,0.0393677,-0.410217,0.892761
1470247145795479,-0.182007,0.0393677,-0.410156,0.892761
1470247145824004,-0.182373,0.0395508,-0.410278,0.892639
1470247145832513,-0.182617,0.0397339,-0.4104,0.892517
1470247145855534,-0.182678,0.0401611,-0.410522,0.892456
1470247145878053,-0.182678,0.0402222,-0.410767,0.892334
1470247145892065,-0.182617,0.0402222,-0.410767,0.892334
1470247145915587,-0.182556,0.0402222,-0.410767,0.892334
1470247145938107,-0.182556,0.0402222,-0.410767,0.892334
1470247145952620,-0.182251,0.0401001,-0.410645,0.892456
1470247145975641,-0.182312,0.0401001,-0.410645,0.892456
1470247145998661,-0.182312,0.0401611,-0.410645,0.892456
1470247146012174,-0.182373,0.0401611,-0.410645,0.892456
1470247146035695,-0.182373,0.0401611,-0.410645,0.892456
1470247146058215,-0.182434,0.0401611,-0.410645,0.892456
1470247146072228,-0.182251,0.0401611,-0.410645,0.892517
1470247146095748,-0.18219,0.0402222,-0.410645,0.892517
1470247146118268,-0.18219,0.0402222,-0.410645,0.892517
1470247146132281,-0.182129,0.0402222,-0.410645,0.892517
1470247146155803,-0.182129,0.0401611,-0.410583,0.892517
1470247146178323,-0.182068,0.0401611,-0.410522,0.892578
1470247146199341,-0.182068,0.0401001,-0.410522,0.892578
1470247146215356,-0.182068,0.0401001,-0.410522,0.892578
1470247146237876,-0.182434,0.0401001,-0.410645,0.892456
1470247146258928,-0.182678,0.0401001,-0.410767,0.892334
1470247146275410,-0.182678,0.0400391,-0.411011,0.892212
1470247146297930,-0.182495,0.039856,-0.411194,0.892212
1470247146318950,-0.182434,0.0396118,-0.411316,0.892151
1470247146337968,-0.182373,0.0396118,-0.411316,0.892151
1470247146357984,-0.182251,0.0394287,-0.411316,0.892212
1470247146379003,-0.18219,0.0394287,-0.411316,0.892212
1470247146395519,-0.182129,0.0394287,-0.411316,0.892212
1470247146418038,-0.182129,0.0394287,-0.411316,0.892212
1470247146439071,-0.182556,0.0396118,-0.411438,0.89209
1470247146455572,-0.182617,0.0396118,-0.411438,0.89209
1470247146478094,-0.182434,0.0395508,-0.411682,0.892029
1470247146499110,-0.182129,0.0394897,-0.411804,0.891968
1470247146515626,-0.182129,0.0395508,-0.411804,0.892029
1470247146538147,-0.182068,0.0394897,-0.411804,0.892029
1470247146559166,-0.181763,0.0392456,-0.411804,0.89209
1470247146575679,-0.181519,0.0390625,-0.411743,0.892151
1470247146598200,-0.181213,0.0390015,-0.411682,0.892273
1470247146619219,-0.181274,0.0390015,-0.411682,0.892273
1470247146635734,-0.181335,0.0390015,-0.411682,0.892212
1470247146658253,-0.181335,0.0390015,-0.411682,0.892212
1470247146680774,-0.181274,0.0388794,-0.411926,0.892151
1470247146695788,-0.180847,0.0389404,-0.411987,0.892212
1470247146718308,-0.180786,0.0389404,-0.411987,0.892212
1470247146740327,-0.18042,0.0387573,-0.411987,0.892334
1470247146755841,-0.179871,0.0385742,-0.411926,0.892456
1470247146777863,-0.179626,0.0384521,-0.411804,0.892578
1470247146800385,-0.179565,0.0384521,-0.411682,0.892639
1470247146814896,-0.179504,0.0385132,-0.411621,0.892639
1470247146837915,-0.179504,0.0385132,-0.411804,0.892578
1470247146860439,-0.179504,0.0385132,-0.411804,0.892578
1470247146874951,-0.179688,0.0387573,-0.411926,0.892456
1470247146897969,-0.179504,0.0388184,-0.41217,0.892395
1470247146920489,-0.179199,0.0387573,-0.412354,0.892395
1470247146935002,-0.179138,0.0387573,-0.412354,0.892395
1470247146958025,-0.179077,0.0387573,-0.412354,0.892395
1470247146980543,-0.178894,0.0385742,-0.412231,0.892517
1470247146995056,-0.179016,0.0383911,-0.412109,0.892517
1470247147018077,-0.179321,0.038269,-0.412048,0.892517
1470247147040597,-0.179382,0.038269,-0.412048,0.892517
1470247147055110,-0.179688,0.0383911,-0.412109,0.892395
1470247147078131,-0.180115,0.0385132,-0.41217,0.892273
1470247147101152,-0.180359,0.0385742,-0.412354,0.892151
1470247147115164,-0.180542,0.0385132,-0.412476,0.892029
1470247147138186,-0.180786,0.0383301,-0.412598,0.891968
1470247147160706,-0.18103,0.038147,-0.412598,0.891907
1470247147181724,-0.181396,0.0379028,-0.412476,0.891907
1470247147198238,-0.181824,0.0377808,-0.412231,0.891907
1470247147220758,-0.182312,0.0377808,-0.412048,0.891907
1470247147241784,-0.182556,0.0378418,-0.411865,0.891968
1470247147258292,-0.183228,0.0379639,-0.411865,0.891785
1470247147287819,-0.18396,0.0380859,-0.411987,0.891602
1470247147301832,-0.184265,0.0380249,-0.412292,0.891418
1470247147318346,-0.184021,0.0379639,-0.412598,0.891296
1470247147340394,-0.18396,0.0379639,-0.412598,0.891296
1470247147361886,-0.183411,0.038147,-0.412476,0.891479
1470247147377904,-0.182617,0.038269,-0.412048,0.891846
1470247147400920,-0.181885,0.0383911,-0.411621,0.892151
1470247147421441,-0.181091,0.038269,-0.411255,0.892517
1470247147437953,-0.180237,0.038208,-0.410767,0.892944
1470247147460474,-0.179993,0.0383301,-0.410461,0.893127
1470247147481509,-0.180481,0.0385132,-0.410339,0.893066
1470247147498008,-0.180908,0.0388184,-0.410461,0.892883
1470247147520528,-0.180847,0.0388794,-0.410706,0.892761
1470247147541582,-0.180359,0.0387573,-0.410828,0.892822
1470247147558064,-0.179932,0.0387573,-0.410889,0.892883
1470247147580583,-0.180054,0.0389404,-0.410706,0.892944
1470247147603102,-0.180298,0.0387573,-0.410645,0.892944
1470247147618116,-0.180298,0.0386963,-0.410645,0.892944
1470247147640636,-0.180786,0.0387573,-0.410889,0.8927
1470247147663155,-0.181702,0.0389404,-0.411072,0.892456
1470247147678169,-0.182678,0.0390625,-0.411133,0.892212
1470247147700690,-0.183228,0.0388794,-0.411316,0.892029
1470247147723210,-0.183228,0.0385132,-0.411865,0.891785
1470247147737722,-0.182861,0.0383301,-0.412109,0.891785
1470247147760244,-0.182617,0.0383911,-0.411987,0.891846
1470247147783263,-0.182373,0.0383301,-0.411621,0.89209
1470247147797277,-0.18158,0.0383911,-0.411194,0.892456
1470247147820798,-0.180969,0.0383301,-0.410767,0.892761
1470247147843318,-0.180664,0.038269,-0.4104,0.893005
1470247147857331,-0.18042,0.0380859,-0.410095,0.893188
1470247147880352,-0.180298,0.0379028,-0.409912,0.893311
1470247147903373,-0.180359,0.0379028,-0.409912,0.893311
1470247147917385,-0.18042,0.0379028,-0.409912,0.893311
1470247147940404,-0.18042,0.0379639,-0.409912,0.89325
1470247147962927,-0.180237,0.0378418,-0.409912,0.893311
1470247147977438,-0.180237,0.0378418,-0.409912,0.893311
1470247148000459,-0.180176,0.0378418,-0.409912,0.893311
1470247148022980,-0.180237,0.0378418,-0.409912,0.893311
1470247148045500,-0.180237,0.0378418,-0.409912,0.893311
1470247148060513,-0.180298,0.0378418,-0.409912,0.893311
1470247148083032,-0.180298,0.0378418,-0.409912,0.893311
1470247148104107,-0.180725,0.0379028,-0.410034,0.893188
1470247148120569,-0.180969,0.0379028,-0.410095,0.893066
1470247148143087,-0.180969,0.0379028,-0.410095,0.893066
1470247148164148,-0.180969,0.0379028,-0.410095,0.893066
1470247148180623,-0.180969,0.0379028,-0.410095,0.893127
1470247148203141,-0.180969,0.0379028,-0.410095,0.893066
1470247148224190,-0.18103,0.0379028,-0.410095,0.893066
1470247148240674,-0.181458,0.0378418,-0.410217,0.892944
1470247148263195,-0.181885,0.0379028,-0.4104,0.892761
1470247148291720,-0.182556,0.0380249,-0.410522,0.892578
1470247148304733,-0.183228,0.0379028,-0.410767,0.892334
1470247148323249,-0.183167,0.0376587,-0.411194,0.892151
1470247148344270,-0.182922,0.0375366,-0.411499,0.89209
1470247148360782,-0.182861,0.0375366,-0.411499,0.89209
1470247148383302,-0.182556,0.0374756,-0.411499,0.892151
1470247148404321,-0.182068,0.0374146,-0.411438,0.892273
1470247148420336,-0.181519,0.0372925,-0.411316,0.892456
1470247148442858,-0.181274,0.0373535,-0.411194,0.892578
1470247148464376,-0.180664,0.0374146,-0.410889,0.892822
1470247148480390,-0.180725,0.0374756,-0.410706,0.892883
1470247148502910,-0.180786,0.0374756,-0.410706,0.892883
1470247148523930,-0.18042,0.0374756,-0.410828,0.892883
1470247148540444,-0.180237,0.0374146,-0.410828,0.892944
1470247148562965,-0.180054,0.0373535,-0.411011,0.892883
1470247148585510,-0.180054,0.0373535,-0.411011,0.892883
1470247148600498,-0.179871,0.0371704,-0.411011,0.892944
1470247148623018,-0.179565,0.0369263,-0.41095,0.893005
1470247148645542,-0.17926,0.0368042,-0.410889,0.893127
1470247148660551,-0.179138,0.0368652,-0.41095,0.893127
1470247148683071,-0.179199,0.0368652,-0.41095,0.893127
1470247148705592,-0.179443,0.0369263,-0.411194,0.892944
1470247148720104,-0.179504,0.0370483,-0.411438,0.892822
1470247148743155,-0.179382,0.0371094,-0.411743,0.8927
1470247148765648,-0.179138,0.0370483,-0.411987,0.892639
1470247148780158,-0.179138,0.0369873,-0.411987,0.892639
1470247148803179,-0.179077,0.0369873,-0.411987,0.892639
1470247148825700,-0.178894,0.0368652,-0.411987,0.8927
1470247148839712,-0.178406,0.0366821,-0.411926,0.892822
1470247148863233,-0.178284,0.0366211,-0.411926,0.892822
1470247148885753,-0.178284,0.0366211,-0.411926,0.892822
1470247148899767,-0.178345,0.0366211,-0.411926,0.892822
1470247148922826,-0.178467,0.0367432,-0.412048,0.8927
1470247148945324,-0.178345,0.0367432,-0.412292,0.892639
1470247148959821,-0.177917,0.0366821,-0.412537,0.892639
1470247148982840,-0.177063,0.036438,-0.412781,0.8927
1470247149005861,-0.175842,0.0359497,-0.412903,0.892944
1470247149019886,-0.1745,0.0355225,-0.412842,0.893188
1470247149042899,-0.173462,0.0350952,-0.412781,0.893494
1470247149065417,-0.172668,0.0348511,-0.412659,0.893677
1470247149086934,-0.172485,0.0348511,-0.412659,0.893677
1470247149102948,-0.172913,0.0352173,-0.412964,0.893494
1470247149125469,-0.173706,0.0357056,-0.413147,0.893188
1470247149146488,-0.174377,0.0359497,-0.413269,0.893005
1470247149163003,-0.174744,0.0360718,-0.41333,0.892944
1470247149185523,-0.174744,0.0360718,-0.41333,0.892944
1470247149206597,-0.174622,0.0358887,-0.41333,0.892944
1470247149223058,-0.174561,0.0356445,-0.41333,0.892944
1470247149245580,-0.174927,0.0355225,-0.413147,0.892944
1470247149266595,-0.175659,0.0354614,-0.413025,0.892883
1470247149283110,-0.176392,0.0355225,-0.412903,0.892822
1470247149305630,-0.177185,0.0355225,-0.412781,0.8927
1470247149326649,-0.17804,0.0356445,-0.41272,0.892578
1470247149343164,-0.178833,0.0358276,-0.412659,0.892395
1470247149365685,-0.179504,0.0360718,-0.412659,0.892273
1470247149386728,-0.179871,0.0361328,-0.412659,0.892212
1470247149393801,-0.180115,0.0360718,-0.412659,0.892151
1470247149408786,-0.180115,0.0360718,-0.412659,0.892151
1470247149431249,-0.179993,0.0360718,-0.412476,0.892273
1470247149453766,-0.180054,0.0360718,-0.412476,0.892273
1470247149468776,-0.180054,0.0360718,-0.412476,0.892212
1470247149490799,-0.180481,0.0361938,-0.412476,0.892151
1470247149513817,-0.180786,0.0362549,-0.412537,0.89209
1470247149528331,-0.180786,0.0363159,-0.412537,0.89209
1470247149551352,-0.180786,0.0363159,-0.412537,0.89209
1470247149573372,-0.180786,0.0363159,-0.412537,0.89209
1470247149588384,-0.180725,0.0363159,-0.412537,0.89209
1470247149610906,-0.180786,0.0363159,-0.412537,0.89209
1470247149633425,-0.180786,0.0363159,-0.412537,0.89209
1470247149648948,-0.180786,0.0363159,-0.412537,0.89209
1470247149672463,-0.181152,0.0365601,-0.412476,0.892029
1470247149701511,-0.18158,0.0367432,-0.412476,0.891907
1470247149711527,-0.18158,0.0368042,-0.412476,0.891907
1470247149731065,-0.18158,0.0368042,-0.412476,0.891907
1470247149753533,-0.18158,0.0368042,-0.412476,0.891907
1470247149768549,-0.181519,0.0368042,-0.412476,0.891907
1470247149791069,-0.181519,0.0368042,-0.412476,0.891907
1470247149813611,-0.181274,0.0368042,-0.412415,0.891968
1470247149828630,-0.18103,0.0369263,-0.412354,0.89209
1470247149851146,-0.180786,0.0370483,-0.412415,0.89209
1470247149873641,-0.180298,0.0374146,-0.412659,0.89209
1470247149888654,-0.179749,0.0377808,-0.412903,0.892029
1470247149911207,-0.179199,0.0380859,-0.413147,0.892029
1470247149933697,-0.178101,0.0384521,-0.41333,0.892151
1470247149951210,-0.17627,0.0385742,-0.41333,0.892517
1470247149978779,-0.174011,0.0385132,-0.413513,0.892883
1470247149993748,-0.171936,0.038269,-0.413452,0.893311
1470247150008763,-0.170593,0.0380859,-0.413452,0.893555
1470247150030782,-0.169983,0.038147,-0.413391,0.893738
1470247150053802,-0.169739,0.038269,-0.413513,0.893677
1470247150068816,-0.169373,0.0384521,-0.413818,0.893616
1470247150090899,-0.169189,0.0386963,-0.414063,0.893555
1470247150113887,-0.169006,0.0390625,-0.414307,0.893433
1470247150129873,-0.168823,0.0392456,-0.41449,0.893372
1470247150151390,-0.168579,0.0393066,-0.414734,0.893311
1470247150173980,-0.168274,0.0392456,-0.414978,0.89325
1470247150191426,-0.16803,0.0391235,-0.415161,0.893188
1470247150210944,-0.167908,0.0390015,-0.415405,0.893127
1470247150236466,-0.167969,0.0390015,-0.415405,0.893127
1470247150249979,-0.168152,0.0390625,-0.415527,0.893005
1470247150271041,-0.168762,0.0391235,-0.415771,0.892822
1470247150293570,-0.169434,0.0393677,-0.416077,0.892517
1470247150310032,-0.169983,0.0396729,-0.41626,0.892334
1470247150331053,-0.170471,0.039917,-0.416382,0.892151
1470247150353572,-0.170776,0.039978,-0.416504,0.892029
1470247150370086,-0.170959,0.039856,-0.416687,0.891907
1470247150391149,-0.171204,0.039856,-0.416809,0.891846
1470247150413627,-0.171448,0.039856,-0.416748,0.891785
1470247150431641,-0.17157,0.0396118,-0.416626,0.891846
1470247150451159,-0.171448,0.0393066,-0.416504,0.891907
1470247150473736,-0.171692,0.0392456,-0.416443,0.891907
1470247150491696,-0.172119,0.0393066,-0.416443,0.891846
1470247150511213,-0.172119,0.0393066,-0.416443,0.891846
1470247150533733,-0.172119,0.0393066,-0.416443,0.891846
1470247150551249,-0.171936,0.0391846,-0.416504,0.891846
1470247150571288,-0.171936,0.0391846,-0.416504,0.891846
1470247150593791,-0.171875,0.0390015,-0.416443,0.891907
1470247150611303,-0.171631,0.0388184,-0.41626,0.892029
1470247150630822,-0.171448,0.0386353,-0.416077,0.892151
1470247150653841,-0.171509,0.0386353,-0.416077,0.892151
1470247150671357,-0.171509,0.0386353,-0.416077,0.892151
1470247150691375,-0.17157,0.0386353,-0.416077,0.892151
1470247150713896,-0.171814,0.0386963,-0.416138,0.892029
1470247150731411,-0.171875,0.0387573,-0.416138,0.892029
1470247150750934,-0.171753,0.0388184,-0.416321,0.891968
1470247150773448,-0.171753,0.0388184,-0.416321,0.892029
1470247150791465,-0.171143,0.0386963,-0.416382,0.89209
1470247150811017,-0.170471,0.0386963,-0.416443,0.892151
1470247150833504,-0.169983,0.0387573,-0.416321,0.892334
1470247150851518,-0.169434,0.0387573,-0.416077,0.892517
1470247150871036,-0.169067,0.0388794,-0.415771,0.892761
1470247150893557,-0.169006,0.0389404,-0.415649,0.892822
1470247150911576,-0.169067,0.0389404,-0.415649,0.892822
1470247150931097,-0.169373,0.0390015,-0.415649,0.892761
1470247150953612,-0.1698,0.0389404,-0.415649,0.892639
1470247150971627,-0.170105,0.0387573,-0.415649,0.892639
1470247150991145,-0.170471,0.0385132,-0.415466,0.892639
1470247151013664,-0.170898,0.0379639,-0.415283,0.892639
1470247151031180,-0.171509,0.0370483,-0.415222,0.892639
1470247151054200,-0.172424,0.0360718,-0.414795,0.8927
1470247151073719,-0.173767,0.0349731,-0.414307,0.8927
1470247151091235,-0.175537,0.0338135,-0.413818,0.892639
1470247151112753,-0.176941,0.0325317,-0.413513,0.892517
1470247151133773,-0.178223,0.0313721,-0.41333,0.892395
1470247151151289,-0.179626,0.0302124,-0.413269,0.892212
1470247151174809,-0.181152,0.0289917,-0.41333,0.891907
1470247151193826,-0.182678,0.027832,-0.41333,0.891602
1470247151211343,-0.184021,0.0264893,-0.413391,0.891357
1470247151232360,-0.184875,0.0250244,-0.413696,0.891052
1470247151253379,-0.185547,0.0237427,-0.414246,0.890747
1470247151271396,-0.186157,0.0223999,-0.414795,0.890381
1470247151292414,-0.186584,0.0209961,-0.415527,0.889954
1470247151313934,-0.186584,0.0196533,-0.416443,0.889587
1470247151331450,-0.18634,0.0183105,-0.417358,0.889221
1470247151352469,-0.185913,0.0169067,-0.418518,0.888794
1470247151373487,-0.184875,0.0153198,-0.420044,0.888306
1470247151391503,-0.183777,0.0134888,-0.42157,0.887878
1470247151414024,-0.183044,0.0114136,-0.422974,0.88739
1470247151433542,-0.18219,0.0090332,-0.424255,0.886963
1470247151451558,-0.181091,0.00640869,-0.425598,0.886597
1470247151474078,-0.179688,0.00354004,-0.426941,0.88623
1470247151493595,-0.178528,0.000366211,-0.428162,0.885864
1470247151511611,-0.177673,-0.00250244,-0.429138,0.885559
1470247151535633,-0.177002,-0.00512695,-0.430359,0.885132
1470247151553650,-0.175903,-0.0078125,-0.432068,0.88446
1470247151571165,-0.174377,-0.0106812,-0.433594,0.884033
1470247151593685,-0.172974,-0.0132446,-0.435059,0.883484
1470247151613704,-0.17157,-0.0158081,-0.436707,0.882935
1470247151631719,-0.170349,-0.0182495,-0.438232,0.882385
1470247151653739,-0.169312,-0.0205078,-0.439636,0.881836
1470247151673756,-0.168701,-0.022522,-0.440979,0.881226
1470247151691773,-0.168091,-0.0244751,-0.4422,0.880676
1470247151713792,-0.167358,-0.0262451,-0.443054,0.88031
1470247151733811,-0.166748,-0.027771,-0.443787,0.880066
1470247151751328,-0.166016,-0.0291138,-0.444336,0.879883
1470247151773847,-0.165039,-0.0303345,-0.444702,0.879822
1470247151793364,-0.163879,-0.0314331,-0.444885,0.879883
1470247151811381,-0.162781,-0.0321045,-0.444885,0.880066
1470247151833901,-0.161804,-0.0324097,-0.444885,0.880249
1470247151853419,-0.160767,-0.0324707,-0.444763,0.880493
1470247151871435,-0.159729,-0.0322876,-0.444397,0.880859
1470247151892954,-0.158875,-0.0316772,-0.443726,0.881409
1470247151921481,-0.158203,-0.0308228,-0.442932,0.881958
1470247151930487,-0.157776,-0.029541,-0.442078,0.882507
1470247151953508,-0.157654,-0.0278931,-0.441101,0.883057
1470247151974028,-0.157959,-0.0258179,-0.440002,0.883606
1470247151990541,-0.15863,-0.0236206,-0.438843,0.884155
1470247152013062,-0.159241,-0.0214844,-0.437744,0.884644
1470247152034081,-0.159668,-0.0193481,-0.436523,0.885193
1470247152050595,-0.160217,-0.0170288,-0.435181,0.885803
1470247152073115,-0.160828,-0.0145264,-0.433533,0.886536
1470247152094136,-0.161133,-0.0120239,-0.431824,0.887329
1470247152110649,-0.161316,-0.00952148,-0.429871,0.888306
1470247152133170,-0.161743,-0.00689697,-0.427795,0.889221
1470247152154188,-0.162292,-0.00408936,-0.425659,0.890198
1470247152170203,-0.163147,-0.0010376,-0.423462,0.891052
1470247152193724,-0.164246,0.00238037,-0.421326,0.891907
1470247152214244,-0.165466,0.00592041,-0.419495,0.892517
1470247152229758,-0.166809,0.00946045,-0.417847,0.893005
1470247152253278,-0.168152,0.0129395,-0.416565,0.893311
1470247152274298,-0.169678,0.0166626,-0.415405,0.893494
1470247152289810,-0.171143,0.0203857,-0.414307,0.893677
1470247152313331,-0.172424,0.0239258,-0.413208,0.89386
1470247152335851,-0.17334,0.0270996,-0.41217,0.894043
1470247152349864,-0.174133,0.0300293,-0.411194,0.894226
1470247152373385,-0.175049,0.0326538,-0.410278,0.894409
1470247152395905,-0.17627,0.0349121,-0.409241,0.894531
1470247152410919,-0.177673,0.0369873,-0.408081,0.894714
1470247152432938,-0.178955,0.0388184,-0.406677,0.89502
1470247152455959,-0.180054,0.0406494,-0.405273,0.895386
1470247152470473,-0.181091,0.0423584,-0.403931,0.89563
1470247152492992,-0.182251,0.0439453,-0.402832,0.895874
1470247152515515,-0.183105,0.0454712,-0.401611,0.896179
1470247152530026,-0.18396,0.0470581,-0.400391,0.896423
1470247152553046,-0.185303,0.0485229,-0.399292,0.896606
1470247152575567,-0.186707,0.0499878,-0.398315,0.896667
1470247152590081,-0.187622,0.0513306,-0.397583,0.896667
1470247152613100,-0.188293,0.0526733,-0.397034,0.896729
1470247152636621,-0.188965,0.053894,-0.396362,0.89679
1470247152650134,-0.189331,0.0548096,-0.395874,0.896912
1470247152673155,-0.190125,0.055481,-0.395874,0.896667
1470247152695674,-0.191223,0.0557861,-0.396179,0.896301
1470247152710187,-0.192383,0.0558472,-0.396545,0.895874
1470247152733208,-0.193237,0.0558472,-0.396667,0.89563
1470247152755228,-0.193176,0.0558472,-0.396667,0.89563
1470247152770241,-0.192383,0.055603,-0.396484,0.895935
1470247152793262,-0.190979,0.0551758,-0.396362,0.896301
1470247152815782,-0.189575,0.0549316,-0.396118,0.896729
1470247152836802,-0.188599,0.0548096,-0.395874,0.897034
1470247152853316,-0.187744,0.0547485,-0.39563,0.897339
1470247152875838,-0.186646,0.0545654,-0.395447,0.897644
1470247152896855,-0.185486,0.0541992,-0.395386,0.897949
1470247152920877,-0.184387,0.0539551,-0.395447,0.898132
1470247152935891,-0.18396,0.0537109,-0.39563,0.898193
1470247152958413,-0.183716,0.0535278,-0.395996,0.898071
1470247152972923,-0.183777,0.0533447,-0.396423,0.897888
1470247152995944,-0.184082,0.0532227,-0.396912,0.897644
1470247153016962,-0.184509,0.0533447,-0.397461,0.897278
1470247153033478,-0.185059,0.0534668,-0.398071,0.896912
1470247153055498,-0.185486,0.0534668,-0.398682,0.896484
1470247153077054,-0.185852,0.0533447,-0.399353,0.896179
1470247153093031,-0.186157,0.0532837,-0.400024,0.895813
1470247153115551,-0.186646,0.0533447,-0.400574,0.895447
1470247153137086,-0.187012,0.0534058,-0.401184,0.895081
1470247153153085,-0.186951,0.0532227,-0.401794,0.894836
1470247153175605,-0.186584,0.0529785,-0.402283,0.894714
1470247153196637,-0.186218,0.0526123,-0.40271,0.894653
1470247153213139,-0.185974,0.0523071,-0.402954,0.894592
1470247153235660,-0.185974,0.0522461,-0.402954,0.894592
1470247153256681,-0.185974,0.0522461,-0.402954,0.894592
1470247153273193,-0.184998,0.0524902,-0.40271,0.894897
1470247153295713,-0.184204,0.0525513,-0.401794,0.895447
