timestamp,x,y,z,w
1470242517015397,-0.0548096,0.249023,-0.922424,0.290161
1470242517030439,-0.0548096,0.249023,-0.922363,0.290161
1470242517052982,-0.0548096,0.249023,-0.922424,0.290161
1470242517075446,-0.0548096,0.249023,-0.922424,0.290161
1470242517090490,-0.0548096,0.249023,-0.922424,0.290161
1470242517113023,-0.0548096,0.249023,-0.922363,0.290161
1470242517135513,-0.0548096,0.249023,-0.922363,0.290161
1470242517150531,-0.0548096,0.249023,-0.922363,0.290161
1470242517180598,-0.0548096,0.249023,-0.922363,0.290161
1470242517196055,-0.0548096,0.249023,-0.922363,0.290161
1470242517218576,-0.0548096,0.249023,-0.922363,0.290161
1470242517234589,-0.0548096,0.249023,-0.922363,0.290161
1470242517255609,-0.0548096,0.249023,-0.922363,0.290161
1470242517287136,-0.0548096,0.249023,-0.922363,0.290161
1470242517293233,-0.0548096,0.249084,-0.922363,0.290161
1470242517316672,-0.0548096,0.249023,-0.922363,0.290161
1470242517347703,-0.0548096,0.249023,-0.922363,0.290161
1470242517349697,-0.0548096,0.249023,-0.922363,0.290161
1470242517369710,-0.0548096,0.249023,-0.922363,0.290161
1470242517391733,-0.0548096,0.249023,-0.922424,0.290161
1470242517409766,-0.0548096,0.249023,-0.922363,0.290161
1470242517429764,-0.0548706,0.249023,-0.922424,0.290161
1470242517473304,-0.0548706,0.248962,-0.922424,0.290161
1470242517490878,-0.0548096,0.248962,-0.922424,0.290161
1470242517497825,-0.0548096,0.248962,-0.922424,0.290161
1470242517511374,-0.0548706,0.248962,-0.922424,0.290161
1470242517526851,-0.0548706,0.248962,-0.922424,0.290161
1470242517557881,-0.0548706,0.248962,-0.922424,0.290161
1470242517571892,-0.0548706,0.248962,-0.922424,0.290161
1470242517595413,-0.0548706,0.248962,-0.922424,0.290161
1470242517617433,-0.0548096,0.248962,-0.922424,0.290161
1470242517631948,-0.0548706,0.248962,-0.922424,0.290161
1470242517654967,-0.0548706,0.248962,-0.922424,0.290161
1470242517677489,-0.0548706,0.248962,-0.922424,0.290161
1470242517692013,-0.0548706,0.248962,-0.922424,0.290161
1470242517715021,-0.0548706,0.248901,-0.922424,0.290161
1470242517737541,-0.0548706,0.248901,-0.922424,0.290161
1470242517752075,-0.0548706,0.248901,-0.922424,0.290161
1470242517775074,-0.0548706,0.248901,-0.922424,0.290161
1470242517797594,-0.0549316,0.249084,-0.922363,0.290222
1470242517812137,-0.0549316,0.249146,-0.922363,0.290222
1470242517835129,-0.0549927,0.249146,-0.922363,0.290161
1470242517857650,-0.0549316,0.249146,-0.922363,0.290222
1470242517878667,-0.0549316,0.249084,-0.922363,0.290222
1470242517895185,-0.0549927,0.249084,-0.922363,0.290161
1470242517917703,-0.0549927,0.249084,-0.922363,0.290161
1470242517938737,-0.0549927,0.249084,-0.922363,0.290161
1470242517955288,-0.0549316,0.249084,-0.922363,0.290222
1470242517977757,-0.0549316,0.249084,-0.922363,0.290222
1470242517998791,-0.0549927,0.249084,-0.922363,0.290161
1470242518015290,-0.0549927,0.249084,-0.922363,0.290161
1470242518037810,-0.0549927,0.249084,-0.922363,0.290161
1470242518058853,-0.0549927,0.249084,-0.922363,0.290161
1470242518075344,-0.0549927,0.249084,-0.922363,0.290161
1470242518097864,-0.0549927,0.249084,-0.922363,0.290161
1470242518118883,-0.0549927,0.249084,-0.922363,0.290161
1470242518135398,-0.0549316,0.249146,-0.922363,0.290222
1470242518157418,-0.0549316,0.249084,-0.922363,0.290222
1470242518179008,-0.0549927,0.249084,-0.922363,0.290161
1470242518194983,-0.0549927,0.249084,-0.922363,0.290222
1470242518217472,-0.0549316,0.249084,-0.922363,0.290222
1470242518239091,-0.0549316,0.249084,-0.922363,0.290222
1470242518254507,-0.0549316,0.249084,-0.922363,0.290222
1470242518277526,-0.0549316,0.249023,-0.922363,0.290222
1470242518300046,-0.0549316,0.249023,-0.922363,0.290222
1470242518315059,-0.0549316,0.249023,-0.922363,0.290222
1470242518337580,-0.0549316,0.249023,-0.922363,0.290222
1470242518360104,-0.0549316,0.249023,-0.922363,0.290222
1470242518375140,-0.0549316,0.249023,-0.922363,0.290222
1470242518398135,-0.0549316,0.249023,-0.922363,0.290222
1470242518420154,-0.0549316,0.249023,-0.922363,0.290222
1470242518435217,-0.0548706,0.249023,-0.922363,0.290222
1470242518463738,-0.0549316,0.249023,-0.922363,0.290222
1470242518480244,-0.0549316,0.249023,-0.922363,0.290222
1470242518502730,-0.0548706,0.249023,-0.922363,0.290222
1470242518523747,-0.0548706,0.249023,-0.922363,0.290222
1470242518540262,-0.0548706,0.249023,-0.922363,0.290222
1470242518562783,-0.0548706,0.248962,-0.922363,0.290222
1470242518583833,-0.0548706,0.248962,-0.922363,0.290222
1470242518600315,-0.0548706,0.248962,-0.922363,0.290222
1470242518622871,-0.0548706,0.248962,-0.922363,0.290222
1470242518643861,-0.0548706,0.249023,-0.922363,0.290222
1470242518660369,-0.0548706,0.249023,-0.922363,0.290222
1470242518682891,-0.0548706,0.249023,-0.922363,0.290222
1470242518703909,-0.0549316,0.249268,-0.922302,0.290222
1470242518719924,-0.0549316,0.249268,-0.922302,0.290222
1470242518742467,-0.0549316,0.249268,-0.922302,0.290222
1470242518763967,-0.0549316,0.249268,-0.922302,0.290222
1470242518779978,-0.0549316,0.249268,-0.922302,0.290222
1470242518802497,-0.0549316,0.249268,-0.922302,0.290222
1470242518825017,-0.0549316,0.249268,-0.922302,0.290222
1470242518840031,-0.0549316,0.249268,-0.922302,0.290222
1470242518862551,-0.0549316,0.249268,-0.922302,0.290222
1470242518885073,-0.0549316,0.249268,-0.922302,0.290222
1470242518900085,-0.0548706,0.249329,-0.922302,0.290222
1470242518922605,-0.0548706,0.249268,-0.922302,0.290222
1470242518945125,-0.0548706,0.249268,-0.922302,0.290222
1470242518959660,-0.0548706,0.249329,-0.922302,0.290222
1470242518982659,-0.0548706,0.249329,-0.922302,0.290222
1470242519005179,-0.0548706,0.249329,-0.922302,0.290222
1470242519019692,-0.0548706,0.249329,-0.922302,0.290222
1470242519042713,-0.0548706,0.249329,-0.922302,0.290222
1470242519065234,-0.0548706,0.249329,-0.922302,0.290222
1470242519079745,-0.0548706,0.249329,-0.922302,0.290222
1470242519102767,-0.0548706,0.249329,-0.922302,0.290222
1470242519125289,-0.0548706,0.249329,-0.922302,0.290222
1470242519130816,-0.0548706,0.249329,-0.922302,0.290222
1470242519146806,-0.0548096,0.249329,-0.922302,0.290222
1470242519168326,-0.0548096,0.249329,-0.922302,0.290222
1470242519190427,-0.0548706,0.249329,-0.922302,0.290222
1470242519206860,-0.0548096,0.249329,-0.922302,0.290222
1470242519227879,-0.0548096,0.249329,-0.922302,0.290222
1470242519250402,-0.0548096,0.249329,-0.922302,0.290222
1470242519266914,-0.0548096,0.249329,-0.922302,0.290222
1470242519288440,-0.0548096,0.249329,-0.922302,0.290222
1470242519310455,-0.0548096,0.249329,-0.922302,0.290222
1470242519326968,-0.0548096,0.249268,-0.922302,0.290222
1470242519347993,-0.0548706,0.24939,-0.922241,0.290222
1470242519370542,-0.0548706,0.24939,-0.922241,0.290222
1470242519387026,-0.0548706,0.24939,-0.922241,0.290222
1470242519408076,-0.0548706,0.24939,-0.922241,0.290222
1470242519430580,-0.0548706,0.24939,-0.922241,0.290222
1470242519447076,-0.0548096,0.24939,-0.922241,0.290222
1470242519468126,-0.0548096,0.24939,-0.922241,0.290222
1470242519490644,-0.0548096,0.24939,-0.922241,0.290222
1470242519508657,-0.0548096,0.24939,-0.922241,0.290283
1470242519528175,-0.0548096,0.24939,-0.922241,0.290283
1470242519550700,-0.0548096,0.24939,-0.922241,0.290283
1470242519567183,-0.0548096,0.24939,-0.922241,0.290283
1470242519588207,-0.0548096,0.24939,-0.922241,0.290283
1470242519610725,-0.0548096,0.24939,-0.922241,0.290283
1470242519628239,-0.0548096,0.24939,-0.922241,0.290283
1470242519648257,-0.0548096,0.24939,-0.922241,0.290283
1470242519670777,-0.0548096,0.249451,-0.922241,0.290283
1470242519686791,-0.0548096,0.24939,-0.922241,0.290283
1470242519710829,-0.0548096,0.249451,-0.922241,0.290283
1470242519730831,-0.0548096,0.249451,-0.922241,0.290283
1470242519748347,-0.0548096,0.249451,-0.922241,0.290283
1470242519767864,-0.0548096,0.249451,-0.922241,0.290283
1470242519790892,-0.0548096,0.249451,-0.922241,0.290283
1470242519808460,-0.0548096,0.24939,-0.922241,0.290283
1470242519827918,-0.0548096,0.24939,-0.922241,0.290283
1470242519850438,-0.0548096,0.24939,-0.922241,0.290283
1470242519868455,-0.0548096,0.24939,-0.922241,0.290283
1470242519887985,-0.0548096,0.24939,-0.922302,0.290283
1470242519910545,-0.0548096,0.249512,-0.922241,0.290283
1470242519928521,-0.0548096,0.249512,-0.922241,0.290283
1470242519948026,-0.0549316,0.249695,-0.92218,0.290283
1470242519970581,-0.0549316,0.249695,-0.92218,0.290283
1470242519988674,-0.0549316,0.249695,-0.92218,0.290283
1470242520008079,-0.0549927,0.249878,-0.922119,0.290283
1470242520030601,-0.0549927,0.25,-0.922058,0.290344
1470242520048616,-0.0549927,0.25,-0.922058,0.290344
1470242520068134,-0.0549927,0.25,-0.922058,0.290344
1470242520090666,-0.0549927,0.25,-0.922058,0.290344
1470242520108670,-0.0549927,0.25,-0.922058,0.290344
1470242520128188,-0.0550537,0.250183,-0.921997,0.290405
1470242520153710,-0.0551758,0.250427,-0.921875,0.290527
1470242520168724,-0.0552368,0.250671,-0.921814,0.290649
1470242520188241,-0.0552979,0.250916,-0.921692,0.290649
1470242520210761,-0.0554199,0.25116,-0.92157,0.290771
1470242520228778,-0.0554199,0.251221,-0.92157,0.290771
1470242520248295,-0.0554199,0.25116,-0.92157,0.290771
1470242520270315,-0.0554199,0.25116,-0.92157,0.290771
1470242520288331,-0.0554199,0.25116,-0.92157,0.290771
1470242520307850,-0.055481,0.251404,-0.921509,0.290771
1470242520330369,-0.055481,0.251404,-0.921509,0.290771
1470242520348396,-0.0554199,0.251404,-0.921509,0.290771
1470242520369414,-0.0554199,0.251465,-0.921509,0.290771
1470242520390433,-0.0554199,0.251404,-0.921509,0.290771
1470242520408449,-0.0554199,0.251404,-0.921509,0.290771
1470242520429468,-0.0552368,0.251282,-0.92157,0.290833
1470242520457993,-0.0549927,0.251282,-0.92157,0.290833
1470242520468505,-0.0546265,0.251282,-0.92157,0.290833
1470242520489522,-0.0540161,0.251038,-0.921692,0.290894
1470242520510542,-0.0531616,0.251404,-0.921692,0.29071
1470242520528558,-0.0516968,0.251587,-0.921814,0.290344
1470242520549577,-0.0506592,0.25238,-0.921753,0.2901
1470242520570595,-0.0504761,0.254028,-0.921387,0.289856
1470242520588611,-0.0510254,0.255737,-0.920898,0.289673
1470242520609631,-0.0518799,0.256897,-0.920593,0.289551
1470242520630649,-0.0525513,0.25708,-0.920532,0.289551
1470242520648666,-0.0530396,0.257019,-0.920593,0.289246
1470242520669684,-0.0537109,0.257141,-0.920593,0.28894
1470242520690702,-0.0552979,0.258545,-0.920166,0.288757
1470242520708719,-0.0570679,0.260498,-0.919373,0.289246
1470242520731239,-0.0576782,0.260925,-0.919189,0.289246
1470242520750756,-0.0582275,0.261108,-0.919189,0.289063
1470242520768773,-0.059021,0.262024,-0.919067,0.288391
1470242520791293,-0.0596313,0.262512,-0.919128,0.28772
1470242520810811,-0.0598755,0.263123,-0.919067,0.287231
1470242520828326,-0.0606689,0.263916,-0.918823,0.28717
1470242520850847,-0.0616455,0.265137,-0.918518,0.286865
1470242520870864,-0.0623779,0.26593,-0.918396,0.286194
1470242520888381,-0.0623169,0.265869,-0.918762,0.285217
1470242520910901,-0.062561,0.266479,-0.91864,0.284973
1470242520930419,-0.0635376,0.267517,-0.918335,0.28479
1470242520948435,-0.0648193,0.269958,-0.917603,0.284424
1470242520970954,-0.0650024,0.270996,-0.917419,0.284119
1470242520990472,-0.0650635,0.271118,-0.917358,0.284058
1470242521008490,-0.0655518,0.271301,-0.917297,0.28418
1470242521031010,-0.0661011,0.272034,-0.916992,0.284302
1470242521050526,-0.0668945,0.273071,-0.916565,0.284485
1470242521068550,-0.0671997,0.273376,-0.916321,0.284851
1470242521091080,-0.0680542,0.273987,-0.916016,0.285034
1470242521110580,-0.0683594,0.273315,-0.916138,0.285278
1470242521128596,-0.0688477,0.273376,-0.915955,0.285645
1470242521151117,-0.0692749,0.27356,-0.915771,0.28595
1470242521173651,-0.0700684,0.273865,-0.915527,0.286194
1470242521188654,-0.0706177,0.273621,-0.915466,0.286621
1470242521211190,-0.071106,0.27356,-0.915283,0.286987
1470242521230688,-0.0718384,0.273804,-0.9151,0.287109
1470242521248704,-0.0725098,0.274109,-0.915039,0.286865
1470242521271224,-0.0728149,0.273804,-0.9151,0.286987
1470242521292243,-0.0732422,0.273499,-0.915039,0.287292
1470242521309265,-0.0735474,0.273193,-0.915039,0.287476
1470242521331278,-0.0738525,0.273315,-0.915039,0.287354
1470242521351796,-0.0745239,0.274109,-0.914856,0.287048
1470242521368813,-0.0750122,0.275452,-0.914612,0.286377
1470242521390846,-0.0747681,0.276062,-0.914673,0.285583
1470242521412350,-0.0742798,0.275146,-0.915161,0.285156
1470242521428378,-0.0744019,0.275146,-0.915161,0.285156
1470242521450885,-0.0752563,0.276123,-0.914917,0.284729
1470242521471905,-0.0757446,0.276611,-0.914795,0.284485
1470242521488447,-0.0751953,0.275024,-0.915283,0.284546
1470242521509938,-0.0750122,0.274231,-0.915405,0.284912
1470242521531457,-0.0751953,0.274048,-0.915405,0.285034
1470242521547485,-0.0755615,0.275024,-0.9151,0.285034
1470242521570006,-0.0756836,0.275146,-0.915161,0.284729
1470242521591512,-0.0753174,0.275146,-0.915344,0.284302
1470242521607526,-0.0747681,0.275146,-0.915466,0.283875
1470242521630048,-0.0740356,0.275818,-0.915405,0.283752
1470242521651565,-0.0738525,0.277344,-0.914978,0.283752
1470242521667580,-0.0739136,0.278992,-0.91449,0.28363
1470242521690103,-0.0733643,0.278381,-0.914673,0.283691
1470242521714123,-0.0719604,0.275085,-0.915771,0.283875
1470242521727160,-0.0700684,0.273315,-0.916382,0.283936
1470242521750157,-0.0703735,0.274719,-0.915771,0.284485
1470242521772674,-0.0719604,0.27594,-0.915161,0.284912
1470242521787690,-0.072876,0.27533,-0.915283,0.284973
1470242521810208,-0.0725098,0.273499,-0.916016,0.284424
1470242521832729,-0.0709229,0.269958,-0.917175,0.284424
1470242521853763,-0.0693359,0.266846,-0.917908,0.2854
1470242521870262,-0.0681763,0.265747,-0.918091,0.286133
1470242521892782,-0.0670166,0.267334,-0.917664,0.286194
1470242521913805,-0.0658569,0.269287,-0.917358,0.285767
1470242521930316,-0.0649414,0.271729,-0.916931,0.284973
1470242521952836,-0.0637817,0.272888,-0.916626,0.285034
1470242521966849,-0.0617676,0.272156,-0.916809,0.285583
1470242521989869,-0.0598145,0.269348,-0.917664,0.286133
1470242522012890,-0.0598145,0.266296,-0.918335,0.286743
1470242522033910,-0.0599976,0.262939,-0.919006,0.287598
1470242522049924,-0.0594482,0.25885,-0.920044,0.288025
1470242522072943,-0.0584106,0.255737,-0.920898,0.288452
1470242522093963,-0.0581665,0.254883,-0.921082,0.288635
1470242522109977,-0.0585327,0.25592,-0.920776,0.288574
1470242522132998,-0.05896,0.257568,-0.920349,0.288452
1470242522154016,-0.0593262,0.258484,-0.920044,0.28833
1470242522170201,-0.0593262,0.258606,-0.920044,0.28833
1470242522192720,-0.05896,0.258057,-0.920227,0.288391
1470242522213769,-0.0585327,0.257202,-0.920471,0.288452
1470242522230255,-0.0582886,0.256531,-0.920593,0.288574
1470242522252774,-0.0582886,0.256531,-0.920593,0.288574
1470242522281299,-0.0583496,0.256409,-0.920593,0.288757
1470242522290307,-0.0582275,0.25647,-0.920532,0.289001
1470242522312828,-0.0582886,0.257019,-0.920288,0.289307
1470242522333849,-0.0586548,0.258057,-0.919922,0.289429
1470242522350362,-0.05896,0.25824,-0.9198,0.289551
1470242522372882,-0.0586548,0.257324,-0.920044,0.289734
1470242522393901,-0.0581665,0.256165,-0.920288,0.290039
1470242522409924,-0.0578613,0.255615,-0.920349,0.290405
1470242522432936,-0.0576782,0.255249,-0.920349,0.29071
1470242522453955,-0.0574341,0.254761,-0.92041,0.290955
1470242522470469,-0.0569458,0.254028,-0.920532,0.29126
1470242522492492,-0.055542,0.25293,-0.920837,0.291565
1470242522513534,-0.0543823,0.25177,-0.921143,0.291931
1470242522530023,-0.053894,0.251221,-0.921143,0.292542
1470242522552543,-0.0535278,0.250244,-0.921204,0.293091
1470242522574067,-0.0524902,0.248657,-0.92157,0.293457
1470242522590079,-0.0512695,0.246948,-0.922058,0.293579
1470242522612598,-0.0496826,0.245239,-0.922607,0.29364
1470242522635117,-0.0481567,0.243774,-0.922974,0.293945
1470242522650131,-0.0473633,0.242615,-0.923035,0.294739
1470242522672651,-0.0462646,0.240662,-0.923462,0.295349
1470242522695171,-0.0453491,0.238953,-0.923828,0.295593
1470242522716190,-0.045105,0.23822,-0.92395,0.295837
1470242522732706,-0.0449219,0.23761,-0.924072,0.296021
1470242522762732,-0.0444946,0.236633,-0.924316,0.296082
1470242522769257,-0.0438843,0.235657,-0.924561,0.296265
1470242522792290,-0.0432129,0.234924,-0.924744,0.296387
1470242522815280,-0.0427246,0.234619,-0.924805,0.296509
1470242522829799,-0.0426636,0.234619,-0.924805,0.296509
1470242522852813,-0.0426636,0.23468,-0.924805,0.296509
1470242522875333,-0.0426636,0.234619,-0.924805,0.296509
1470242522889346,-0.0424805,0.234741,-0.924744,0.29657
1470242522912866,-0.0421753,0.234924,-0.924683,0.296753
1470242522935388,-0.041748,0.235107,-0.924622,0.296875
1470242522949400,-0.0413818,0.235168,-0.924561,0.296997
1470242522972920,-0.0406494,0.235229,-0.924561,0.297119
1470242522994941,-0.0394287,0.235291,-0.9245,0.297302
1470242523009454,-0.038147,0.236084,-0.924255,0.297546
1470242523032975,-0.0370483,0.237122,-0.924011,0.297791
1470242523054994,-0.0358887,0.237671,-0.923889,0.297913
1470242523076513,-0.0344849,0.23822,-0.923706,0.297974
1470242523092528,-0.0331421,0.239258,-0.923523,0.298035
1470242523122555,-0.0317383,0.240479,-0.923157,0.298218
1470242523136067,-0.0304565,0.242126,-0.922668,0.298584
1470242523152583,-0.02948,0.243713,-0.92218,0.298889
1470242523175102,-0.0279541,0.244568,-0.921936,0.299133
1470242523196121,-0.0255127,0.244873,-0.921814,0.299438
1470242523212636,-0.022644,0.245544,-0.921631,0.299744
1470242523235157,-0.0201416,0.247803,-0.920959,0.30011
1470242523256175,-0.0181274,0.250916,-0.920044,0.300415
1470242523272690,-0.0161743,0.253418,-0.919373,0.300476
1470242523295210,-0.0139771,0.254944,-0.918945,0.300537
1470242523317730,-0.0117798,0.256104,-0.91864,0.300598
1470242523332244,-0.00982666,0.25708,-0.918396,0.30072
1470242523355264,-0.00805664,0.258179,-0.91803,0.300781
1470242523376283,-0.00646973,0.259338,-0.917725,0.300781
1470242523392797,-0.00469971,0.260132,-0.917603,0.300598
1470242523415318,-0.00280762,0.260925,-0.917419,0.300415
1470242523436337,-0.00109863,0.261841,-0.917175,0.300354
1470242523452852,0.000732422,0.262756,-0.916931,0.300354
1470242523475373,0.00286865,0.263184,-0.916809,0.300293
1470242523496392,0.0057373,0.263306,-0.916931,0.299866
1470242523511905,0.00939941,0.263184,-0.917114,0.299255
1470242523534925,0.0130005,0.263916,-0.917053,0.298706
1470242523557946,0.015686,0.265808,-0.916565,0.298462
1470242523571959,0.0177002,0.26709,-0.916199,0.298279
1470242523595480,0.0199585,0.267151,-0.916138,0.298157
1470242523617500,0.0228882,0.266724,-0.91626,0.297974
1470242523633013,0.0257568,0.266785,-0.916199,0.297913
1470242523655533,0.0285034,0.267578,-0.915894,0.297974
1470242523677553,0.0309448,0.268066,-0.915649,0.297974
1470242523692567,0.0328979,0.268311,-0.915466,0.298035
1470242523715087,0.034668,0.26825,-0.915405,0.298096
1470242523737607,0.0358887,0.268372,-0.915283,0.298218
1470242523752132,0.0368652,0.268494,-0.915161,0.298401
1470242523775141,0.0380249,0.268066,-0.915222,0.298462
1470242523797661,0.0394287,0.267761,-0.915222,0.298584
1470242523812174,0.0401001,0.26825,-0.914917,0.299011
1470242523835196,0.0397949,0.268921,-0.91449,0.299744
1470242523857715,0.0391846,0.268799,-0.914368,0.300232
1470242523871728,0.039856,0.266785,-0.915039,0.300049
1470242523895249,0.0411377,0.265747,-0.915283,0.299866
1470242523917771,0.0410156,0.267212,-0.914734,0.300293
1470242523932283,0.039917,0.268616,-0.914246,0.300659
1470242523955303,0.0392456,0.268127,-0.914429,0.300598
1470242523977823,0.0394287,0.266479,-0.914978,0.300476
1470242523992336,0.0402832,0.265808,-0.9151,0.300415
1470242524015358,0.0404663,0.266663,-0.914856,0.300415
1470242524037879,0.0401001,0.267761,-0.914612,0.300415
1470242524052390,0.0401001,0.267822,-0.914612,0.300415
1470242524075422,0.0394897,0.267273,-0.914673,0.300659
1470242524097433,0.038208,0.266724,-0.914795,0.301025
1470242524118994,0.0360718,0.265869,-0.914978,0.301453
1470242524135464,0.0310669,0.265381,-0.914917,0.30249
1470242524158022,0.0206909,0.26709,-0.914063,0.304504
1470242524179004,0.00134277,0.270386,-0.912781,0.306152
1470242524195519,-0.0228271,0.273804,-0.911316,0.30658
1470242524217540,-0.0473633,0.273193,-0.91095,0.30542
1470242524239061,-0.069458,0.266663,-0.912598,0.302124
1470242524255572,-0.0566406,0.256226,-0.91687,0.300842
1470242524277595,-0.0427856,0.226196,-0.924255,0.304626
1470242524298614,-0.0375977,0.230408,-0.922058,0.308716
1470242524314627,-0.0516968,0.259338,-0.91272,0.311462
1470242524337670,-0.0643311,0.271423,-0.910034,0.306702
1470242524359185,-0.0574341,0.254578,-0.915771,0.30542
1470242524374679,-0.0496826,0.239563,-0.920044,0.306091
1470242524397701,-0.0478516,0.239563,-0.920044,0.306396
1470242524418765,-0.0507202,0.245544,-0.918518,0.305847
1470242524434733,-0.0527954,0.249695,-0.917603,0.30481
1470242524457790,-0.0519409,0.24939,-0.917908,0.30426
1470242524478773,-0.050293,0.248291,-0.918701,0.303101
1470242524494286,-0.0489502,0.246399,-0.919617,0.301941
1470242524517810,-0.0480957,0.244202,-0.92041,0.301453
1470242524540330,-0.0473633,0.243835,-0.920593,0.301392
1470242524555342,-0.0477295,0.245239,-0.920227,0.30127
1470242524577898,-0.0481567,0.24585,-0.920105,0.301147
1470242524600382,-0.0478516,0.245422,-0.920349,0.300842
1470242524615396,-0.0472412,0.244019,-0.920776,0.300659
1470242524637916,-0.0469971,0.243591,-0.921021,0.300354
1470242524660436,-0.0471802,0.243164,-0.921204,0.300171
1470242524674449,-0.0473633,0.243042,-0.921204,0.300171
1470242524697512,-0.0473022,0.243103,-0.921143,0.300415
1470242524720030,-0.0473633,0.243103,-0.921082,0.300537
1470242524734502,-0.0473022,0.243042,-0.921082,0.300659
1470242524758023,-0.0473022,0.242798,-0.921143,0.300598
1470242524780043,-0.0473633,0.242798,-0.921143,0.300537
1470242524794556,-0.0473633,0.243103,-0.921082,0.300476
1470242524817577,-0.0474243,0.243469,-0.921021,0.300476
1470242524840098,-0.0477905,0.243896,-0.920898,0.300415
1470242524854610,-0.0480957,0.244202,-0.920715,0.300537
1470242524877631,-0.0481567,0.244263,-0.920715,0.300476
1470242524900151,-0.0481567,0.244263,-0.920715,0.300476
1470242524914665,-0.0484009,0.244385,-0.920715,0.300476
1470242524937685,-0.0484619,0.244385,-0.920715,0.300476
1470242524960206,-0.0485229,0.244385,-0.920715,0.300476
1470242524974218,-0.048584,0.244629,-0.920593,0.300476
1470242524997739,-0.0488281,0.245239,-0.920471,0.300476
1470242525020259,-0.0490723,0.245728,-0.920288,0.300476
1470242525041279,-0.0491943,0.24585,-0.920288,0.300354
1470242525057794,-0.0490723,0.245911,-0.920288,0.300354
1470242525080313,-0.0490723,0.245911,-0.920288,0.300354
1470242525101332,-0.0491943,0.246155,-0.920227,0.300354
1470242525117849,-0.0494385,0.24646,-0.920166,0.300232
1470242525147874,-0.0494385,0.24646,-0.920166,0.300232
1470242525161386,-0.0494995,0.246521,-0.920166,0.300232
1470242525177901,-0.0494995,0.246521,-0.920166,0.300232
1470242525200420,-0.0495605,0.246521,-0.920166,0.300232
1470242525221441,-0.0495605,0.246582,-0.920166,0.300171
1470242525237955,-0.0496216,0.246521,-0.920166,0.300171
1470242525260474,-0.0497437,0.246826,-0.920105,0.30011
1470242525281494,-0.0497437,0.246826,-0.920105,0.30011
1470242525297509,-0.0498047,0.246887,-0.920105,0.30011
1470242525320029,-0.0499878,0.246826,-0.920105,0.300049
1470242525341047,-0.0499878,0.24646,-0.920166,0.300049
1470242525357563,-0.0499878,0.24646,-0.920166,0.300049
1470242525380082,-0.0500488,0.24646,-0.920166,0.300049
1470242525401103,-0.050293,0.246582,-0.920166,0.299927
1470242525417616,-0.0505371,0.246826,-0.920105,0.299927
1470242525440136,-0.0505371,0.246826,-0.920105,0.299927
1470242525462656,-0.0506592,0.24707,-0.920044,0.299866
1470242525477670,-0.0507202,0.247314,-0.919983,0.299866
1470242525500190,-0.0507813,0.247681,-0.919922,0.299744
1470242525522710,-0.0509644,0.248047,-0.919861,0.299683
1470242525537724,-0.0512085,0.248291,-0.9198,0.299622
1470242525560259,-0.0513916,0.248535,-0.919739,0.299561
1470242525582766,-0.0513916,0.248535,-0.919739,0.299561
1470242525597821,-0.0515137,0.248779,-0.919678,0.2995
1470242525620309,-0.0515137,0.249023,-0.919617,0.2995
1470242525642818,-0.0515137,0.249268,-0.919556,0.299438
1470242525657331,-0.0516357,0.249573,-0.919495,0.299377
1470242525680352,-0.0516357,0.249573,-0.919495,0.299377
1470242525702871,-0.0516968,0.249573,-0.919495,0.299377
1470242525717385,-0.0516968,0.249573,-0.919495,0.299377
1470242525740460,-0.0516968,0.249939,-0.919373,0.299316
1470242525762925,-0.0518188,0.250305,-0.919312,0.299316
1470242525785445,-0.0518799,0.250305,-0.919312,0.299316
1470242525800459,-0.0518799,0.250305,-0.919312,0.299316
1470242525822979,-0.0518799,0.250305,-0.919312,0.299316
1470242525836992,-0.0517578,0.250427,-0.91925,0.299255
1470242525860513,-0.0517578,0.250732,-0.919189,0.299255
1470242525882534,-0.0517578,0.250732,-0.919189,0.299255
1470242525897046,-0.0515137,0.250732,-0.91925,0.299072
1470242525920067,-0.0512695,0.251038,-0.91925,0.29895
1470242525942587,-0.0511475,0.251282,-0.91925,0.298828
1470242525963908,-0.0509033,0.251343,-0.91925,0.298767
1470242525980422,-0.0501709,0.251709,-0.91925,0.298462
1470242526002943,-0.0495605,0.252625,-0.919189,0.298157
1470242526023961,-0.0494385,0.253723,-0.918884,0.297974
1470242526040476,-0.0493164,0.254211,-0.918762,0.298035
1470242526062497,-0.0489502,0.254272,-0.918762,0.298096
1470242526091522,-0.048584,0.25415,-0.918762,0.298279
1470242526100530,-0.048584,0.254028,-0.918701,0.298584
1470242526122550,-0.0489502,0.253662,-0.918701,0.298828
1470242526143569,-0.0491943,0.252686,-0.918884,0.299072
1470242526160084,-0.0490723,0.251343,-0.919128,0.2995
1470242526182604,-0.0488892,0.250183,-0.91925,0.299988
1470242526203622,-0.0488281,0.249451,-0.919373,0.300232
1470242526219638,-0.0488892,0.249084,-0.919434,0.300415
1470242526242658,-0.0489502,0.248779,-0.919495,0.300537
1470242526263677,-0.0492554,0.248413,-0.919495,0.300659
1470242526280192,-0.0496216,0.248169,-0.919556,0.30072
1470242526302713,-0.0501099,0.24823,-0.919495,0.30072
1470242526323730,-0.0504761,0.248047,-0.919495,0.300842
1470242526340246,-0.0506592,0.247681,-0.919556,0.300842
1470242526362767,-0.050354,0.247253,-0.9198,0.300537
1470242526383784,-0.0502319,0.247498,-0.9198,0.300354
1470242526400300,-0.050354,0.24823,-0.919739,0.299927
1470242526422820,-0.050354,0.248962,-0.919678,0.299438
1470242526451847,-0.0502319,0.249817,-0.919678,0.298889
1470242526453847,-0.0502319,0.251038,-0.919495,0.29834
1470242526465858,-0.050415,0.252075,-0.919373,0.297852
1470242526488379,-0.050354,0.252869,-0.91925,0.297607
1470242526510398,-0.0499878,0.253296,-0.91925,0.297302
1470242526525412,-0.0499268,0.253845,-0.919128,0.297058
1470242526547932,-0.0499878,0.254333,-0.919006,0.297119
1470242526570453,-0.0499878,0.254517,-0.918884,0.297302
1470242526585465,-0.0498657,0.254578,-0.918823,0.297424
1470242526607985,-0.0496216,0.254456,-0.918884,0.297363
1470242526630506,-0.0491943,0.254333,-0.919006,0.29718
1470242526645520,-0.0490723,0.254944,-0.918884,0.297119
1470242526668041,-0.0492554,0.256042,-0.918579,0.297058
1470242526690559,-0.0493774,0.256775,-0.918396,0.296936
1470242526705573,-0.0492554,0.256958,-0.918396,0.296753
1470242526728093,-0.0489502,0.257019,-0.918457,0.296631
1470242526750614,-0.0488892,0.257385,-0.918396,0.29657
1470242526765627,-0.0488281,0.258118,-0.918213,0.296448
1470242526788148,-0.0488892,0.25885,-0.918091,0.296265
1470242526812170,-0.0490112,0.259583,-0.917908,0.296021
1470242526825681,-0.0491943,0.260376,-0.917725,0.295898
1470242526848202,-0.0493774,0.260925,-0.917603,0.295898
1470242526870721,-0.0494385,0.26123,-0.91748,0.295959
1470242526885735,-0.0494385,0.260864,-0.917603,0.295898
1470242526908255,-0.0494385,0.260864,-0.917603,0.295898
1470242526930776,-0.0494385,0.260864,-0.917603,0.295898
1470242526945789,-0.0496216,0.260864,-0.917542,0.296021
1470242526968309,-0.0497437,0.260559,-0.917603,0.296082
1470242526990830,-0.0498657,0.260376,-0.917603,0.296265
1470242527007344,-0.0500488,0.260193,-0.917603,0.296387
1470242527028366,-0.0500488,0.259888,-0.917603,0.296509
1470242527050383,-0.0501099,0.259338,-0.917725,0.296692
1470242527066898,-0.0502319,0.258972,-0.917725,0.296997
1470242527087917,-0.050415,0.258118,-0.917969,0.297058
1470242527110437,-0.050415,0.257629,-0.91803,0.297241
1470242527126952,-0.0506592,0.257324,-0.91803,0.297363
1470242527147970,-0.0509033,0.256531,-0.918213,0.297485
1470242527170490,-0.0509033,0.25592,-0.918335,0.297729
1470242527187006,-0.0509033,0.255432,-0.918396,0.297852
1470242527208024,-0.0510254,0.255188,-0.918457,0.297913
1470242527230544,-0.0512695,0.255127,-0.918457,0.297974
1470242527247060,-0.0515137,0.254822,-0.918518,0.297913
1470242527268078,-0.0515137,0.254517,-0.918579,0.297913
1470242527290598,-0.0516968,0.254333,-0.91864,0.297913
1470242527307114,-0.0518799,0.25415,-0.91864,0.298035
1470242527328132,-0.0518799,0.253845,-0.918701,0.298157
1470242527350653,-0.0516968,0.253357,-0.918823,0.298279
1470242527368669,-0.0516968,0.253357,-0.918762,0.298279
1470242527388186,-0.0516968,0.253418,-0.918762,0.298279
1470242527410707,-0.0516968,0.253418,-0.918762,0.298279
1470242527428723,-0.0516357,0.253235,-0.918823,0.298401
1470242527448240,-0.0516357,0.253235,-0.918823,0.298401
1470242527470761,-0.0516357,0.253235,-0.918823,0.298401
1470242527488786,-0.0516357,0.252991,-0.918823,0.298645
1470242527508302,-0.0516968,0.252991,-0.918823,0.298645
1470242527530814,-0.0516968,0.252991,-0.918823,0.298645
1470242527548831,-0.0516968,0.252991,-0.918823,0.298584
1470242527568348,-0.0517578,0.25293,-0.918823,0.298584
1470242527590868,-0.0517578,0.25293,-0.918823,0.298584
1470242527608416,-0.052002,0.252991,-0.918762,0.298584
1470242527627901,-0.0521851,0.253235,-0.918701,0.298523
1470242527650422,-0.0521851,0.253235,-0.918701,0.298523
1470242527674443,-0.052063,0.253235,-0.918701,0.298645
1470242527687987,-0.052063,0.253235,-0.918701,0.298706
1470242527710475,-0.052063,0.253235,-0.918701,0.298706
1470242527728492,-0.052063,0.253235,-0.918701,0.298706
1470242527748011,-0.052063,0.253235,-0.918701,0.298706
1470242527770530,-0.052063,0.253235,-0.918701,0.298706
1470242527794551,-0.052063,0.253235,-0.918701,0.298706
1470242527808063,-0.052063,0.253235,-0.918701,0.298706
1470242527838089,-0.052063,0.253235,-0.918701,0.298645
1470242527848600,-0.052063,0.253235,-0.918701,0.298645
1470242527869619,-0.052063,0.253235,-0.918701,0.298645
1470242527890638,-0.052063,0.253235,-0.918701,0.298645
1470242527908655,-0.052124,0.253235,-0.918701,0.298645
1470242527928171,-0.052124,0.253235,-0.918701,0.298645
1470242527950693,-0.052124,0.253235,-0.918701,0.298645
1470242527968708,-0.052002,0.253235,-0.918701,0.298523
1470242527989727,-0.0518799,0.253479,-0.918701,0.298462
1470242528010746,-0.0518188,0.253662,-0.918701,0.29834
1470242528033266,-0.0518188,0.253967,-0.91864,0.298218
1470242528049790,-0.0516968,0.254028,-0.91864,0.298096
1470242528070799,-0.0515137,0.25415,-0.918701,0.298035
1470242528088315,-0.0512695,0.25415,-0.918762,0.297852
1470242528116841,-0.0510254,0.254578,-0.918701,0.297729
1470242528130868,-0.0507202,0.25531,-0.918579,0.297485
1470242528148869,-0.0507202,0.256714,-0.918335,0.297119
1470242528169388,-0.0508423,0.258301,-0.91803,0.296631
1470242528190907,-0.0510254,0.26001,-0.917725,0.295898
1470242528208423,-0.0511475,0.262085,-0.917419,0.295044
1470242528229442,-0.0510864,0.264343,-0.917053,0.294189
1470242528250961,-0.0513916,0.266846,-0.916565,0.293396
1470242528268479,-0.0517578,0.269043,-0.916138,0.292603
1470242528289496,-0.052002,0.270935,-0.915833,0.291748
1470242528310515,-0.052063,0.272461,-0.915649,0.291016
1470242528328533,-0.0521851,0.274048,-0.915344,0.290405
1470242528351080,-0.0525513,0.275818,-0.914978,0.289795
1470242528370586,-0.0528564,0.277527,-0.914673,0.289185
1470242528388586,-0.0532837,0.278992,-0.914368,0.288513
1470242528411105,-0.0534058,0.280151,-0.914246,0.287842
1470242528430648,-0.0535889,0.281189,-0.914063,0.287292
1470242528448639,-0.053894,0.282104,-0.91394,0.286804
1470242528471163,-0.0541382,0.282959,-0.913757,0.286438
1470242528490719,-0.0544434,0.283813,-0.913574,0.286133
1470242528508709,-0.0544434,0.283813,-0.913574,0.286133
1470242528531216,-0.0545044,0.283752,-0.913574,0.286194
1470242528550765,-0.0544434,0.283325,-0.913696,0.286255
1470242528568747,-0.0543213,0.282593,-0.913879,0.286377
1470242528591296,-0.0544434,0.282227,-0.914001,0.286499
1470242528610784,-0.0546875,0.281982,-0.914001,0.286621
1470242528628802,-0.0551147,0.281555,-0.914001,0.286865
1470242528651320,-0.0554199,0.280945,-0.914124,0.287109
1470242528670838,-0.0557251,0.280212,-0.914246,0.287415
1470242528688855,-0.0559692,0.279114,-0.914429,0.287781
1470242528710874,-0.0559692,0.277771,-0.914673,0.288208
1470242528730892,-0.0559082,0.276062,-0.915039,0.288879
1470242528755948,-0.055603,0.273865,-0.915405,0.289673
1470242528770928,-0.0551147,0.271362,-0.915894,0.290649
1470242528791947,-0.0545044,0.269165,-0.91626,0.291687
1470242528808490,-0.0541382,0.266907,-0.916565,0.292847
1470242528830481,-0.053772,0.264404,-0.916992,0.293884
1470242528851501,-0.0534058,0.262085,-0.917358,0.294861
1470242528867515,-0.0532227,0.260315,-0.917664,0.295593
1470242528890042,-0.0532227,0.258972,-0.917847,0.296143
1470242528911556,-0.0532837,0.258057,-0.917969,0.296448
1470242528927569,-0.0535278,0.257507,-0.918091,0.29657
1470242528950589,-0.0535278,0.257019,-0.918152,0.296753
1470242528971608,-0.0534668,0.256653,-0.918213,0.296936
1470242528987625,-0.0534668,0.256653,-0.918213,0.296936
1470242529010144,-0.0534668,0.256653,-0.918213,0.296936
1470242529031162,-0.0534668,0.256653,-0.918213,0.296936
1470242529047677,-0.0534668,0.256653,-0.918213,0.296936
1470242529070197,-0.0534668,0.256653,-0.918213,0.296936
1470242529091230,-0.0534668,0.256653,-0.918213,0.296936
1470242529107748,-0.0534668,0.256653,-0.918213,0.296875
1470242529130251,-0.0533447,0.256409,-0.918274,0.296997
1470242529151270,-0.0533447,0.25647,-0.918274,0.296997
1470242529167806,-0.0533447,0.25647,-0.918274,0.296997
1470242529190326,-0.0533447,0.25647,-0.918274,0.296997
1470242529211346,-0.0533447,0.25647,-0.918274,0.296997
1470242529227861,-0.0533447,0.256409,-0.918274,0.296997
1470242529257886,-0.0533447,0.256409,-0.918274,0.296997
1470242529272899,-0.0533447,0.256409,-0.918274,0.296997
1470242529287913,-0.0533447,0.25647,-0.918274,0.296997
1470242529310434,-0.0533447,0.25647,-0.918274,0.296997
1470242529332953,-0.0533447,0.256226,-0.918335,0.296936
1470242529347467,-0.0533447,0.256226,-0.918335,0.296936
1470242529369993,-0.0533447,0.256226,-0.918335,0.296936
1470242529392507,-0.0533447,0.256165,-0.918335,0.296936
1470242529407021,-0.0533447,0.256165,-0.918335,0.296936
1470242529430543,-0.0534058,0.256226,-0.918335,0.296936
1470242529452562,-0.0533447,0.256165,-0.918335,0.296936
1470242529467076,-0.0533447,0.256165,-0.918335,0.296936
1470242529490600,-0.0533447,0.25592,-0.918396,0.297058
1470242529512615,-0.0531616,0.255493,-0.918457,0.29718
1470242529527129,-0.0529785,0.255005,-0.918579,0.297302
1470242529550149,-0.0527954,0.2547,-0.918579,0.297546
1470242529572669,-0.0525513,0.254517,-0.918579,0.297852
1470242529587184,-0.0522461,0.254089,-0.91864,0.298035
1470242529610203,-0.0518799,0.253357,-0.918762,0.29834
1470242529632723,-0.0515137,0.252869,-0.918823,0.298584
1470242529647238,-0.0513916,0.252747,-0.918823,0.298767
1470242529670257,-0.0514526,0.252502,-0.918823,0.299011
1470242529700284,-0.0514526,0.252319,-0.918762,0.299255
1470242529707290,-0.0515137,0.252075,-0.918762,0.299622
1470242529736318,-0.0515137,0.251648,-0.918762,0.299927
1470242529752831,-0.0513916,0.25116,-0.918762,0.300232
1470242529773850,-0.0513306,0.250916,-0.918762,0.300415
1470242529790365,-0.0513306,0.250916,-0.918823,0.300415
1470242529812885,-0.0513306,0.250854,-0.918823,0.300415
1470242529833905,-0.0513306,0.250854,-0.918823,0.300415
1470242529850418,-0.0513916,0.250854,-0.918823,0.300415
1470242529872940,-0.0513916,0.250854,-0.918823,0.300415
1470242529893958,-0.0513916,0.250854,-0.918823,0.300415
1470242529909972,-0.0513916,0.250854,-0.918823,0.300415
1470242529932993,-0.0513916,0.250854,-0.918823,0.300415
1470242529954014,-0.0514526,0.250977,-0.918762,0.300354
1470242529977533,-0.0515747,0.251099,-0.918762,0.300293
1470242529993046,-0.0516968,0.251282,-0.918701,0.300293
1470242530014065,-0.0517578,0.251343,-0.918701,0.300232
1470242530030580,-0.0516968,0.251709,-0.91864,0.300232
1470242530060607,-0.0517578,0.252197,-0.918518,0.300171
1470242530074119,-0.0518799,0.252625,-0.918396,0.300171
1470242530090134,-0.0518799,0.252625,-0.918396,0.300171
1470242530112657,-0.0518799,0.252441,-0.918457,0.300171
1470242530141212,-0.0518188,0.252441,-0.918457,0.300171
1470242530150188,-0.0518799,0.25238,-0.918457,0.300171
1470242530172710,-0.052002,0.252502,-0.918396,0.30011
1470242530193787,-0.052124,0.252686,-0.918396,0.300049
1470242530210262,-0.052124,0.252686,-0.918396,0.300049
1470242530232763,-0.052124,0.252686,-0.918396,0.300049
1470242530255284,-0.0521851,0.252686,-0.918396,0.300049
1470242530270295,-0.0521851,0.252686,-0.918396,0.300049
1470242530292816,-0.052124,0.252686,-0.918396,0.300049
1470242530315336,-0.0521851,0.252686,-0.918396,0.300049
1470242530329849,-0.0521851,0.252686,-0.918396,0.300049
1470242530352912,-0.0521851,0.252686,-0.918396,0.300049
1470242530375390,-0.0521851,0.252686,-0.918396,0.300049
1470242530389443,-0.0521851,0.252686,-0.918396,0.300049
1470242530420430,-0.0521851,0.252686,-0.918396,0.300049
1470242530435445,-0.0521851,0.252686,-0.918396,0.300049
1470242530449457,-0.0521851,0.252686,-0.918396,0.300049
1470242530472986,-0.0521851,0.252686,-0.918396,0.300049
1470242530495498,-0.0523071,0.252747,-0.918396,0.299988
1470242530509511,-0.0524902,0.253113,-0.918274,0.299927
1470242530533057,-0.0527954,0.253418,-0.918213,0.299866
1470242530555552,-0.0528564,0.253662,-0.918152,0.299805
1470242530569583,-0.0529175,0.254211,-0.91803,0.299744
1470242530592599,-0.0531616,0.254639,-0.917908,0.299622
1470242530615606,-0.0531616,0.2547,-0.917908,0.299622
1470242530629621,-0.0529175,0.254395,-0.91803,0.299683
1470242530653139,-0.0527344,0.25415,-0.91803,0.299683
1470242530675159,-0.0527344,0.25415,-0.91803,0.299683
1470242530689677,-0.0527344,0.25415,-0.918091,0.299683
1470242530712693,-0.0527344,0.25415,-0.91803,0.299683
1470242530735213,-0.0527344,0.25415,-0.91803,0.299683
1470242530756233,-0.0527344,0.25415,-0.91803,0.299683
1470242530772747,-0.0527954,0.25415,-0.918091,0.299683
1470242530795267,-0.0527954,0.254089,-0.918091,0.299683
1470242530816301,-0.0527954,0.254089,-0.918091,0.299683
1470242530832801,-0.0527954,0.254089,-0.918091,0.299683
1470242530855321,-0.0527954,0.254089,-0.918091,0.299683
1470242530876340,-0.0527954,0.254089,-0.918091,0.299683
1470242530892855,-0.0527954,0.254089,-0.918091,0.299683
1470242530915375,-0.0527344,0.253906,-0.918152,0.299683
1470242530936395,-0.0526733,0.253845,-0.918152,0.299683
1470242530952909,-0.0527344,0.254028,-0.918091,0.299683
1470242530975429,-0.0527344,0.254028,-0.918091,0.299683
1470242530996447,-0.0527344,0.254089,-0.918091,0.299683
1470242531012962,-0.0527344,0.254089,-0.918091,0.299683
1470242531035483,-0.0527344,0.254089,-0.918091,0.299683
1470242531056502,-0.0527954,0.254211,-0.91803,0.299683
1470242531073017,-0.0528564,0.254211,-0.91803,0.299683
1470242531095536,-0.0527954,0.254211,-0.91803,0.299683
1470242531116056,-0.0527954,0.254211,-0.91803,0.299683
1470242531133071,-0.0527954,0.254211,-0.91803,0.299683
1470242531155591,-0.0528564,0.254211,-0.91803,0.299683
1470242531177611,-0.0528564,0.254211,-0.91803,0.299683
1470242531192624,-0.0528564,0.254211,-0.91803,0.299683
1470242531215645,-0.0528564,0.254211,-0.91803,0.299683
1470242531237664,-0.0527954,0.254211,-0.91803,0.299683
1470242531252679,-0.0528564,0.254211,-0.91803,0.299683
1470242531275198,-0.0528564,0.254211,-0.91803,0.299683
1470242531297719,-0.0527954,0.253967,-0.918091,0.299683
1470242531312232,-0.0527954,0.253967,-0.918091,0.299683
1470242531335253,-0.0527954,0.253967,-0.918091,0.299683
1470242531357772,-0.0527954,0.253967,-0.918091,0.299683
1470242531372288,-0.0527954,0.253967,-0.918091,0.299683
1470242531395306,-0.0527954,0.253967,-0.918091,0.299683
1470242531417826,-0.0527954,0.253967,-0.918091,0.299683
1470242531432340,-0.0527954,0.253967,-0.918091,0.299683
1470242531455360,-0.0527954,0.253967,-0.918091,0.299683
1470242531477881,-0.0528564,0.254028,-0.918091,0.299683
1470242531492393,-0.0527954,0.254028,-0.918091,0.299683
1470242531515413,-0.0527954,0.254028,-0.918091,0.299683
1470242531537934,-0.0528564,0.254333,-0.91803,0.299622
1470242531552447,-0.0528564,0.254333,-0.91803,0.299622
1470242531575467,-0.0528564,0.254333,-0.91803,0.299622
1470242531597988,-0.0528564,0.254395,-0.91803,0.299622
1470242531619006,-0.0528564,0.254395,-0.91803,0.299622
1470242531643029,-0.0529175,0.254395,-0.91803,0.299561
1470242531658041,-0.0529175,0.254395,-0.91803,0.299561
1470242531679060,-0.0529175,0.254333,-0.91803,0.299561
1470242531695575,-0.0529175,0.254333,-0.91803,0.299561
1470242531717595,-0.0529175,0.254333,-0.91803,0.299561
1470242531739117,-0.0529785,0.254333,-0.91803,0.299561
1470242531755133,-0.0529785,0.254333,-0.91803,0.299561
1470242531777649,-0.0529785,0.254333,-0.91803,0.299561
1470242531799168,-0.0529785,0.254333,-0.91803,0.299561
1470242531815184,-0.0529785,0.254333,-0.91803,0.299561
1470242531837703,-0.0529785,0.254272,-0.91803,0.299561
1470242531858722,-0.0529785,0.254333,-0.91803,0.299561
1470242531875237,-0.0529785,0.254272,-0.91803,0.299561
1470242531897757,-0.0529785,0.254272,-0.91803,0.299561
1470242531918776,-0.0526733,0.254089,-0.918091,0.299622
1470242531935290,-0.0522461,0.253784,-0.918152,0.299805
1470242531957811,-0.052063,0.253967,-0.91803,0.299988
1470242531978830,-0.052063,0.254028,-0.91803,0.299988
1470242531995345,-0.052063,0.254028,-0.91803,0.299988
1470242532017865,-0.052063,0.254028,-0.91803,0.299988
1470242532038884,-0.052063,0.254028,-0.91803,0.299988
1470242532055400,-0.052063,0.254028,-0.91803,0.299988
1470242532077919,-0.052063,0.254028,-0.91803,0.299988
1470242532098939,-0.052063,0.254028,-0.91803,0.299988
1470242532114452,-0.052063,0.253967,-0.91803,0.299988
1470242532137973,-0.0522461,0.25415,-0.91803,0.299927
1470242532160493,-0.0523071,0.254333,-0.917969,0.299927
1470242532175507,-0.0523071,0.254333,-0.917969,0.299927
1470242532198028,-0.0523071,0.254333,-0.917969,0.299927
1470242532220547,-0.0523071,0.254333,-0.917969,0.299927
1470242532235560,-0.0523071,0.254333,-0.917969,0.299927
1470242532258080,-0.0523071,0.254395,-0.917969,0.299927
1470242532280100,-0.0523071,0.254395,-0.917969,0.299927
1470242532294613,-0.0523071,0.254395,-0.917969,0.299927
1470242532317634,-0.0523682,0.254333,-0.917969,0.299927
1470242532340154,-0.0523682,0.254333,-0.917969,0.299927
1470242532354667,-0.0523682,0.254333,-0.917969,0.299927
1470242532377688,-0.0523682,0.254333,-0.917969,0.299927
1470242532400210,-0.0523682,0.254333,-0.917969,0.299927
1470242532414721,-0.0523682,0.254395,-0.917969,0.299927
1470242532437742,-0.0523682,0.254333,-0.917969,0.299927
1470242532460262,-0.0523682,0.254333,-0.917969,0.299927
1470242532474775,-0.0523071,0.254333,-0.917969,0.299927
1470242532497796,-0.0523682,0.254333,-0.917969,0.299927
1470242532520316,-0.0523682,0.254333,-0.917969,0.299927
1470242532534828,-0.0524292,0.254028,-0.91803,0.299988
1470242532557849,-0.0524292,0.254028,-0.91803,0.299988
1470242532580370,-0.0524292,0.253723,-0.918091,0.299988
1470242532594383,-0.0524292,0.253662,-0.918091,0.299988
1470242532617905,-0.0524292,0.253662,-0.918091,0.299988
1470242532640426,-0.0524292,0.253662,-0.918091,0.299988
1470242532661445,-0.0524292,0.253662,-0.918091,0.299988
1470242532677957,-0.0524292,0.253601,-0.918091,0.299988
1470242532707984,-0.0524292,0.253601,-0.918152,0.299988
1470242532721496,-0.0524292,0.253601,-0.918152,0.299988
1470242532738011,-0.0524292,0.253601,-0.918152,0.299988
1470242532760532,-0.0524292,0.25354,-0.918152,0.299988
1470242532781550,-0.0524292,0.25354,-0.918152,0.299988
1470242532798065,-0.0524292,0.25354,-0.918152,0.299988
1470242532820598,-0.0524292,0.25354,-0.918152,0.299988
1470242532841605,-0.0524292,0.253479,-0.918152,0.300049
1470242532857619,-0.0524292,0.253479,-0.918152,0.299988
1470242532880139,-0.0524292,0.25354,-0.918152,0.299988
1470242532901660,-0.0524292,0.253479,-0.918152,0.299988
1470242532917674,-0.0524292,0.253479,-0.918152,0.300049
1470242532940195,-0.0524292,0.253418,-0.918152,0.299988
1470242532961245,-0.0524292,0.253418,-0.918152,0.299988
1470242532977726,-0.0524292,0.253418,-0.918152,0.300049
1470242533000247,-0.0524292,0.253418,-0.918152,0.300049
1470242533028790,-0.0524292,0.253418,-0.918152,0.299988
1470242533037780,-0.052002,0.253113,-0.918213,0.30011
1470242533060303,-0.0515747,0.252869,-0.918335,0.300171
1470242533082821,-0.0513916,0.252808,-0.918396,0.30011
1470242533097870,-0.0513916,0.252991,-0.918335,0.30011
1470242533120354,-0.0515137,0.253296,-0.918274,0.300049
1470242533142875,-0.0515137,0.253296,-0.918274,0.300049
1470242533157888,-0.0515137,0.253296,-0.918274,0.300049
1470242533180408,-0.0516357,0.253418,-0.918274,0.299927
1470242533202929,-0.0518188,0.253845,-0.918152,0.299927
1470242533223948,-0.052063,0.254089,-0.918091,0.299866
1470242533240462,-0.052063,0.254089,-0.918091,0.299866
1470242533262983,-0.052063,0.254028,-0.918091,0.299866
1470242533276996,-0.052063,0.254028,-0.918091,0.299866
1470242533300516,-0.052063,0.254028,-0.918091,0.299866
1470242533323036,-0.0521851,0.254272,-0.91803,0.299866
1470242533337049,-0.0523071,0.254456,-0.917908,0.299866
1470242533360570,-0.0523071,0.254517,-0.917908,0.299866
1470242533383591,-0.0523071,0.254517,-0.917908,0.299866
1470242533397103,-0.0523071,0.254456,-0.917908,0.299866
1470242533420124,-0.0523071,0.254456,-0.917908,0.299866
1470242533442644,-0.0523071,0.254456,-0.917908,0.299866
1470242533457157,-0.0523071,0.254456,-0.917908,0.299866
1470242533480178,-0.0523071,0.254456,-0.917908,0.299866
1470242533502720,-0.0523071,0.254456,-0.917908,0.299927
1470242533523719,-0.0523071,0.254456,-0.917908,0.299927
1470242533540233,-0.0523071,0.254211,-0.91803,0.299927
1470242533562797,-0.0523071,0.254211,-0.91803,0.299927
1470242533583771,-0.0523071,0.254211,-0.91803,0.299866
1470242533600285,-0.0523071,0.254211,-0.91803,0.299927
1470242533622823,-0.0523071,0.254211,-0.91803,0.299927
1470242533643842,-0.0523071,0.254211,-0.91803,0.299927
1470242533666347,-0.0522461,0.253967,-0.918091,0.299866
1470242533682862,-0.0522461,0.253967,-0.918091,0.299866
1470242533703879,-0.0521851,0.253906,-0.918091,0.299866
1470242533720394,-0.0522461,0.253967,-0.918091,0.299866
1470242533742913,-0.0522461,0.253967,-0.918091,0.299866
1470242533763934,-0.0522461,0.253967,-0.918091,0.299866
1470242533770938,-0.0522461,0.253967,-0.918091,0.299866
1470242533785952,-0.0522461,0.253967,-0.918091,0.299866
1470242533808472,-0.0522461,0.253967,-0.918091,0.299866
1470242533830992,-0.0522461,0.253967,-0.918091,0.299866
1470242533846012,-0.0522461,0.253967,-0.918091,0.299866
1470242533868527,-0.0522461,0.253906,-0.918091,0.299866
1470242533891106,-0.0522461,0.253906,-0.918091,0.299866
1470242533906062,-0.0523071,0.253906,-0.918091,0.299866
1470242533928659,-0.0523071,0.253967,-0.918091,0.299866
1470242533951101,-0.0523071,0.253967,-0.918091,0.299866
1470242533965614,-0.0523071,0.253967,-0.918091,0.299866
1470242533988148,-0.0523071,0.253967,-0.918091,0.299866
1470242534010672,-0.0523071,0.253967,-0.918091,0.299866
1470242534025687,-0.0523071,0.253967,-0.918091,0.299866
1470242534048202,-0.0523682,0.253967,-0.918091,0.299866
1470242534070732,-0.0523682,0.253967,-0.918091,0.299866
1470242534085827,-0.0523682,0.253967,-0.918091,0.299866
1470242534108250,-0.0524292,0.253784,-0.918152,0.299866
1470242534130775,-0.0524902,0.253479,-0.918213,0.299866
1470242534145793,-0.0524902,0.253174,-0.918274,0.299927
1470242534168311,-0.0525513,0.252869,-0.918335,0.299988
1470242534190834,-0.0526733,0.252563,-0.918396,0.300049
1470242534205844,-0.0527344,0.252258,-0.918457,0.30011
1470242534228349,-0.0526733,0.251892,-0.918518,0.300171
1470242534250885,-0.0526123,0.251587,-0.918579,0.300232
1470242534265883,-0.0526733,0.251587,-0.918579,0.300232
1470242534288408,-0.0526733,0.251587,-0.918579,0.300232
1470242534310924,-0.0526733,0.251587,-0.918579,0.300232
1470242534325937,-0.0526733,0.251221,-0.918701,0.300293
1470242534348457,-0.0526733,0.250977,-0.918762,0.300293
1470242534370977,-0.0527344,0.250977,-0.918762,0.300293
1470242534385991,-0.0527344,0.250977,-0.918762,0.300293
1470242534408511,-0.0527344,0.250977,-0.918762,0.300293
1470242534431032,-0.0527344,0.250977,-0.918762,0.300293
1470242534448570,-0.0527344,0.250977,-0.918701,0.300293
1470242534468065,-0.0527344,0.251038,-0.918701,0.300293
1470242534491156,-0.0527344,0.251038,-0.918701,0.300293
1470242534505613,-0.0527954,0.250793,-0.918762,0.300354
1470242534528119,-0.0530396,0.250427,-0.918823,0.300354
1470242534550685,-0.0536499,0.250488,-0.918823,0.300415
1470242534565655,-0.0546265,0.251099,-0.918518,0.300537
1470242534588690,-0.0560303,0.252869,-0.917969,0.300537
1470242534610749,-0.0571289,0.254883,-0.917358,0.300476
1470242534627242,-0.0576172,0.255493,-0.917114,0.300476
1470242534648252,-0.0574951,0.2547,-0.917358,0.300537
1470242534670751,-0.0571289,0.253235,-0.917725,0.30072
1470242534687262,-0.0566406,0.251831,-0.918091,0.300842
1470242534708329,-0.0563354,0.250916,-0.918274,0.301086
1470242534732303,-0.0560913,0.250427,-0.918396,0.301208
1470242534747360,-0.0558472,0.249756,-0.918579,0.301208
1470242534768336,-0.0553589,0.248901,-0.918884,0.301208
1470242534790888,-0.0549316,0.24823,-0.919067,0.301208
1470242534807401,-0.0549316,0.24823,-0.919067,0.30127
1470242534828423,-0.0549316,0.24823,-0.919067,0.301208
1470242534850944,-0.0548706,0.247864,-0.919189,0.301147
1470242534867423,-0.0546265,0.247375,-0.919373,0.301025
1470242534888442,-0.0545654,0.24707,-0.919434,0.300964
1470242534910978,-0.0544434,0.246826,-0.919556,0.300903
1470242534928492,-0.0543213,0.246582,-0.919678,0.300842
1470242534948591,-0.0543213,0.246338,-0.919739,0.300781
1470242534971109,-0.0543213,0.246155,-0.9198,0.30072
1470242534989042,-0.0541992,0.245911,-0.919922,0.300659
1470242535008094,-0.0541992,0.245911,-0.919922,0.300659
1470242535030569,-0.0541992,0.245972,-0.919922,0.300659
1470242535048619,-0.0541992,0.245972,-0.919922,0.300659
1470242535068637,-0.0541992,0.245911,-0.919922,0.300659
1470242535090629,-0.0539551,0.245972,-0.919922,0.300598
1470242535108640,-0.053894,0.246094,-0.919922,0.300537
1470242535128157,-0.053894,0.246094,-0.919922,0.300537
1470242535151257,-0.0536499,0.246155,-0.919922,0.300476
1470242535168729,-0.0535278,0.246216,-0.919922,0.300415
1470242535188244,-0.0534058,0.246338,-0.919922,0.300354
1470242535210791,-0.0532227,0.246704,-0.919861,0.300354
1470242535228777,-0.0530396,0.24707,-0.9198,0.300293
1470242535248316,-0.0530396,0.247559,-0.919678,0.300232
1470242535270858,-0.0530396,0.247986,-0.919556,0.300232
1470242535288842,-0.0530396,0.248047,-0.919556,0.300232
1470242535308322,-0.0530396,0.248047,-0.919556,0.300232
1470242535330879,-0.0530396,0.248047,-0.919556,0.300232
1470242535348855,-0.0530396,0.248047,-0.919556,0.300232
1470242535368431,-0.0530396,0.248291,-0.919495,0.300171
1470242535390893,-0.0529785,0.248291,-0.919495,0.300171
1470242535408909,-0.0529175,0.248657,-0.919434,0.30011
1470242535428426,-0.0528564,0.249207,-0.919312,0.299988
1470242535450947,-0.0526733,0.249878,-0.919189,0.299927
1470242535468964,-0.0526123,0.250305,-0.919067,0.299866
1470242535488481,-0.0524902,0.250427,-0.919067,0.299744
1470242535511140,-0.0523071,0.25061,-0.919128,0.299561
1470242535528517,-0.0523071,0.250916,-0.919006,0.2995
1470242535549536,-0.0523071,0.250916,-0.919006,0.2995
1470242535571098,-0.0523071,0.250977,-0.919006,0.2995
1470242535588586,-0.0523682,0.250793,-0.919067,0.299561
1470242535611123,-0.0524292,0.25061,-0.919067,0.299622
1470242535631120,-0.0524902,0.250366,-0.919128,0.299622
1470242535648722,-0.0525513,0.250183,-0.919189,0.299683
1470242535669645,-0.0526733,0.249939,-0.91925,0.299683
1470242535690718,-0.0527344,0.249634,-0.919312,0.299683
1470242535708736,-0.0527344,0.249695,-0.919312,0.299683
1470242535729697,-0.0527954,0.249512,-0.919312,0.299744
1470242535750750,-0.0528564,0.24939,-0.919312,0.299744
1470242535768732,-0.0528564,0.249207,-0.919373,0.299744
1470242535789753,-0.0528564,0.249207,-0.919373,0.299744
1470242535810786,-0.0528564,0.249207,-0.919373,0.299744
1470242535828805,-0.0527344,0.249084,-0.919373,0.299805
1470242535849805,-0.0527954,0.249146,-0.919373,0.299805
1470242535870839,-0.0527954,0.249146,-0.919373,0.299805
1470242535888874,-0.0527344,0.249146,-0.919373,0.299805
1470242535911431,-0.0527344,0.249146,-0.919373,0.299805
1470242535930877,-0.0527344,0.249023,-0.919434,0.299866
1470242535948897,-0.0528564,0.248901,-0.919434,0.299866
1470242535971415,-0.0529175,0.248596,-0.919556,0.299805
1470242535990934,-0.0528564,0.248352,-0.919556,0.299866
1470242536008948,-0.0528564,0.248352,-0.919617,0.299866
1470242536031468,-0.0528564,0.248352,-0.919617,0.299866
1470242536051026,-0.0528564,0.248352,-0.919556,0.299866
1470242536068504,-0.0528564,0.248352,-0.919556,0.299866
1470242536091540,-0.0528564,0.248352,-0.919617,0.299866
1470242536111124,-0.0527344,0.248535,-0.919556,0.299805
1470242536128555,-0.0524292,0.249695,-0.919189,0.300049
1470242536151077,-0.0524292,0.251465,-0.91864,0.300293
1470242536171594,-0.0524292,0.25238,-0.918274,0.300659
1470242536187610,-0.0527344,0.253296,-0.917847,0.301025
1470242536210137,-0.0533447,0.253479,-0.917725,0.301208
1470242536231658,-0.053833,0.252319,-0.917969,0.301331
1470242536248162,-0.053833,0.250427,-0.918457,0.301453
1470242536270683,-0.0541382,0.249939,-0.918518,0.301514
1470242536291701,-0.0552368,0.250916,-0.918213,0.301453
1470242536307718,-0.0562134,0.251526,-0.917969,0.301514
1470242536330237,-0.0567017,0.251099,-0.91803,0.301636
1470242536359344,-0.0566406,0.249817,-0.918335,0.301758
1470242536367770,-0.0559692,0.24884,-0.918579,0.301941
1470242536390291,-0.0559692,0.25,-0.918091,0.30249
1470242536411862,-0.0565186,0.252563,-0.917175,0.303162
1470242536427826,-0.0565796,0.253967,-0.916687,0.303223
1470242536450345,-0.0559082,0.252991,-0.917175,0.302795
1470242536471864,-0.0549316,0.251526,-0.917725,0.302551
1470242536487917,-0.0548096,0.251587,-0.917725,0.30249
1470242536510398,-0.0552979,0.25238,-0.917542,0.302429
1470242536531439,-0.0554199,0.252197,-0.917542,0.302307
1470242536547972,-0.0551147,0.251221,-0.917908,0.302246
1470242536570452,-0.0551147,0.250793,-0.91803,0.302185
1470242536591471,-0.0557861,0.251892,-0.917664,0.302185
1470242536607986,-0.0566406,0.253845,-0.917175,0.302002
1470242536636512,-0.0576172,0.255676,-0.916748,0.301575
1470242536651525,-0.0578003,0.256287,-0.916626,0.301331
1470242536667539,-0.0570679,0.255188,-0.916992,0.301208
1470242536690560,-0.0566406,0.254089,-0.917297,0.30127
1470242536711168,-0.0569458,0.254211,-0.917236,0.301331
1470242536728094,-0.0574341,0.254517,-0.917114,0.301453
1470242536750113,-0.057373,0.25354,-0.917419,0.30127
1470242536771633,-0.0569458,0.252197,-0.917969,0.300903
1470242536787705,-0.0565796,0.251221,-0.918335,0.300659
1470242536810668,-0.0565186,0.251221,-0.918335,0.300659
1470242536832688,-0.0566406,0.251526,-0.918213,0.300659
1470242536847702,-0.0566406,0.251587,-0.918213,0.300598
1470242536870221,-0.0564575,0.251099,-0.918396,0.300476
1470242536892744,-0.0562744,0.250671,-0.918579,0.300354
1470242536907759,-0.0563965,0.250732,-0.91864,0.300232
1470242536930327,-0.0567017,0.250854,-0.918579,0.30011
1470242536952798,-0.0570679,0.251099,-0.918579,0.299988
1470242536967809,-0.057373,0.25116,-0.918579,0.299805
1470242536996342,-0.0578613,0.251221,-0.918518,0.299744
1470242537012871,-0.0585938,0.251709,-0.918396,0.299622
1470242537027387,-0.0595093,0.252686,-0.918152,0.299438
1470242537050383,-0.0606689,0.253723,-0.917786,0.299438
1470242537072929,-0.0614014,0.253784,-0.917725,0.299438
1470242537087416,-0.0616455,0.253174,-0.917786,0.299622
1470242537110440,-0.0618896,0.252808,-0.917847,0.299683
1470242537132958,-0.0621338,0.252625,-0.917908,0.299683
1470242537146993,-0.0623169,0.251953,-0.918091,0.299683
1470242537170493,-0.062439,0.251282,-0.918335,0.2995
1470242537193014,-0.0623779,0.251038,-0.918457,0.299316
1470242537207024,-0.0626221,0.250793,-0.918457,0.299377
1470242537230545,-0.0629883,0.250427,-0.918518,0.299438
1470242537253107,-0.0631714,0.249939,-0.918701,0.299255
1470242537267078,-0.0629272,0.248962,-0.919128,0.298889
1470242537290640,-0.0629883,0.249146,-0.91925,0.298279
1470242537313137,-0.0629883,0.249878,-0.919312,0.297424
1470242537334155,-0.0636597,0.25061,-0.919189,0.297058
1470242537350663,-0.0643311,0.250732,-0.919189,0.296875
1470242537372676,-0.0640259,0.248962,-0.919678,0.296814
1470242537394191,-0.0629883,0.24707,-0.92041,0.296509
1470242537410207,-0.0620728,0.246155,-0.920959,0.295593
1470242537432727,-0.0620728,0.247253,-0.920776,0.295349
1470242537454246,-0.0627441,0.247986,-0.920532,0.295349
1470242537470276,-0.0626221,0.246094,-0.920959,0.295593
1470242537492781,-0.0614014,0.242737,-0.921753,0.296082
1470242537513802,-0.0608521,0.240662,-0.922119,0.296875
1470242537530314,-0.0614014,0.240845,-0.921875,0.297241
1470242537552835,-0.0614624,0.239746,-0.922058,0.297607
1470242537573909,-0.0609131,0.237793,-0.922485,0.297913
1470242537590404,-0.0611572,0.237244,-0.922485,0.298279
1470242537612888,-0.0622559,0.237732,-0.922302,0.29834
1470242537633953,-0.0632324,0.237915,-0.922241,0.298157
1470242537650452,-0.0631104,0.236084,-0.922668,0.29834
1470242537672944,-0.0629883,0.235107,-0.922791,0.298767
1470242537693994,-0.0637817,0.234985,-0.922791,0.298706
1470242537710478,-0.0656738,0.236206,-0.922363,0.298645
1470242537732997,-0.0670776,0.236572,-0.92218,0.298462
1470242537754047,-0.0671997,0.235596,-0.922363,0.298706
1470242537770530,-0.0680542,0.235718,-0.922241,0.298828
1470242537793052,-0.0692139,0.236206,-0.922058,0.298828
1470242537815570,-0.0697632,0.236145,-0.921997,0.298767
1470242537830585,-0.0700684,0.236389,-0.921997,0.298584
1470242537853106,-0.0703735,0.236938,-0.921997,0.298035
1470242537875640,-0.0705566,0.237854,-0.921997,0.297363
1470242537890138,-0.0706177,0.239075,-0.921936,0.29657
1470242537913158,-0.0706177,0.240723,-0.921753,0.295715
1470242537935678,-0.0702515,0.239441,-0.922241,0.295288
1470242537949691,-0.0700684,0.240295,-0.922302,0.294495
1470242537973214,-0.0712891,0.244019,-0.92157,0.293457
1470242537995234,-0.0733032,0.247375,-0.920837,0.29248
1470242538016752,-0.0731812,0.247314,-0.920898,0.292358
1470242538032765,-0.0715332,0.246216,-0.921204,0.292664
1470242538055288,-0.0708618,0.246582,-0.921204,0.292664
1470242538069801,-0.0715332,0.248291,-0.920654,0.292664
1470242538092819,-0.0717773,0.250305,-0.920044,0.292847
1470242538115340,-0.0703735,0.249756,-0.920166,0.293213
1470242538129852,-0.0682373,0.247131,-0.921021,0.293335
1470242538152883,-0.0671387,0.246399,-0.921204,0.293518
1470242538175393,-0.067749,0.248779,-0.920532,0.293457
1470242538189907,-0.0687256,0.251221,-0.919861,0.293396
1470242538212955,-0.0684814,0.250793,-0.919922,0.293518
1470242538235450,-0.0666504,0.248169,-0.920837,0.293335
1470242538249460,-0.0651855,0.246704,-0.921509,0.292847
1470242538272980,-0.0657959,0.24823,-0.921082,0.292725
1470242538295503,-0.0666504,0.249023,-0.920654,0.293091
1470242538316559,-0.0662231,0.247864,-0.920776,0.293823
1470242538339040,-0.0649414,0.24585,-0.921204,0.294556
1470242538355555,-0.0639648,0.244385,-0.921509,0.294983
1470242538376619,-0.0639038,0.244324,-0.921509,0.294983
1470242538393089,-0.0639648,0.2453,-0.921265,0.294983
1470242538415609,-0.0640869,0.246521,-0.920959,0.294983
1470242538436681,-0.0635376,0.246521,-0.920898,0.295227
1470242538452643,-0.0622559,0.246033,-0.921204,0.294983
1470242538475662,-0.0609131,0.246033,-0.921448,0.294434
1470242538496683,-0.0604248,0.247131,-0.921326,0.294067
1470242538512745,-0.0598145,0.247559,-0.921204,0.294312
1470242538535217,-0.0583496,0.246338,-0.921326,0.295166
1470242538556735,-0.0571289,0.2453,-0.921448,0.295837
1470242538572766,-0.0560303,0.244751,-0.92157,0.296021
1470242538595276,-0.0549316,0.244324,-0.921753,0.296204
1470242538616790,-0.0540771,0.244263,-0.921814,0.296204
1470242538632806,-0.0532837,0.244446,-0.921814,0.296143
1470242538655324,-0.0522461,0.244019,-0.922058,0.295959
1470242538676399,-0.0511475,0.244202,-0.922119,0.295715
1470242538692909,-0.0508423,0.245667,-0.921875,0.295471
1470242538715420,-0.0504761,0.246155,-0.921753,0.29541
1470242538737937,-0.0492554,0.245911,-0.921875,0.295471
1470242538752912,-0.0483398,0.246216,-0.921875,0.295288
1470242538775433,-0.0478516,0.246643,-0.921814,0.295227
1470242538797953,-0.0472412,0.246887,-0.921753,0.295227
1470242538812966,-0.0465088,0.24707,-0.921753,0.295349
1470242538835486,-0.0458374,0.247498,-0.921631,0.29541
1470242538858014,-0.0452881,0.248047,-0.92157,0.295288
1470242538873020,-0.0443726,0.248352,-0.92157,0.295166
1470242538895585,-0.0432129,0.248535,-0.921631,0.294983
1470242538918060,-0.0426636,0.249084,-0.921448,0.295105
1470242538932085,-0.0424194,0.249329,-0.921326,0.295288
1470242538955594,-0.0421753,0.249634,-0.921265,0.295288
1470242538978119,-0.041687,0.250366,-0.921143,0.295166
1470242538992126,-0.0413208,0.250732,-0.921082,0.294983
1470242539015648,-0.0411377,0.25116,-0.921021,0.294983
1470242539037667,-0.0408325,0.251282,-0.920959,0.295105
1470242539052206,-0.0403442,0.251221,-0.920898,0.295288
1470242539075702,-0.039856,0.251343,-0.920837,0.295471
1470242539097726,-0.0397339,0.251892,-0.920654,0.295593
1470242539112234,-0.0394897,0.252258,-0.920532,0.295776
1470242539135255,-0.0388184,0.252258,-0.920471,0.295959
1470242539157775,-0.0383911,0.252136,-0.920593,0.295898
1470242539172292,-0.0385742,0.252258,-0.920532,0.295715
1470242539195309,-0.0384521,0.252258,-0.920532,0.295776
1470242539217830,-0.038147,0.252075,-0.920593,0.295898
1470242539232342,-0.0379639,0.25177,-0.920593,0.296204
1470242539255363,-0.0378418,0.251587,-0.920471,0.296631
1470242539277883,-0.0380249,0.251709,-0.920288,0.297119
1470242539300404,-0.038147,0.25177,-0.920166,0.297424
1470242539315417,-0.038208,0.251648,-0.920044,0.297913
1470242539337975,-0.0380859,0.251221,-0.919983,0.298523
1470242539358956,-0.038147,0.250488,-0.920044,0.298889
1470242539383011,-0.038269,0.249695,-0.920166,0.299194
1470242539398029,-0.0383911,0.249146,-0.920227,0.299438
1470242539419029,-0.0387573,0.249023,-0.920227,0.2995
1470242539435525,-0.0392456,0.248962,-0.920227,0.2995
1470242539458045,-0.0397949,0.248901,-0.920227,0.2995
1470242539479081,-0.0402832,0.248718,-0.920227,0.299622
1470242539495581,-0.0407715,0.248535,-0.920166,0.299744
1470242539518126,-0.0412598,0.248291,-0.920166,0.299927
1470242539539180,-0.041626,0.247559,-0.920349,0.299988
1470242539555632,-0.0419922,0.246948,-0.920471,0.300049
1470242539578152,-0.0424805,0.246277,-0.920593,0.300171
1470242539606678,-0.0429688,0.245544,-0.920715,0.300354
1470242539615719,-0.0437622,0.2453,-0.920654,0.300537
1470242539637707,-0.0449219,0.245605,-0.920471,0.30072
1470242539660227,-0.0462646,0.246216,-0.920227,0.300781
1470242539675260,-0.0471191,0.246216,-0.920166,0.300781
1470242539697790,-0.0474243,0.246033,-0.920227,0.300659
1470242539727788,-0.0474243,0.246033,-0.920288,0.300537
1470242539735325,-0.0476074,0.246521,-0.920166,0.300476
1470242539758819,-0.0476074,0.246582,-0.920166,0.300476
1470242539780336,-0.0474243,0.246521,-0.920105,0.300598
1470242539795348,-0.0471191,0.245911,-0.920227,0.300781
1470242539817868,-0.0467529,0.245178,-0.92041,0.301025
1470242539840390,-0.0465088,0.24469,-0.920471,0.301208
1470242539854925,-0.0462646,0.244446,-0.920471,0.301331
1470242539877927,-0.0460205,0.244263,-0.920471,0.301514
1470242539900443,-0.0457764,0.244141,-0.920532,0.301636
1470242539914959,-0.0455322,0.243896,-0.920532,0.301819
1470242539937979,-0.0455322,0.243835,-0.920532,0.301819
1470242539960512,-0.0463257,0.244385,-0.920349,0.30188
1470242539974540,-0.0467529,0.245239,-0.920227,0.301392
1470242539998032,-0.0465088,0.245789,-0.920227,0.300964
1470242540020550,-0.0462646,0.246033,-0.920288,0.300781
1470242540035063,-0.0459595,0.246521,-0.920288,0.300415
1470242540058085,-0.0457764,0.247009,-0.920166,0.300354
1470242540080631,-0.0456543,0.247437,-0.920044,0.300354
1470242540094616,-0.0450439,0.247192,-0.920166,0.300354
1470242540118137,-0.0442505,0.24707,-0.920288,0.300171
1470242540140657,-0.0438843,0.24762,-0.920227,0.299988
1470242540163223,-0.043396,0.248291,-0.920044,0.299988
1470242540178191,-0.0427246,0.249084,-0.919861,0.300049
1470242540200712,-0.0419312,0.248718,-0.919983,0.299988
1470242540221731,-0.0415649,0.248779,-0.920105,0.299683
1470242540237760,-0.0411987,0.248718,-0.920227,0.299438
1470242540260265,-0.0410767,0.249695,-0.920044,0.299255
1470242540281787,-0.0411987,0.25061,-0.919861,0.299011
1470242540297799,-0.0412598,0.250671,-0.9198,0.299011
1470242540320364,-0.0409546,0.250549,-0.919861,0.299072
1470242540341394,-0.0404663,0.250488,-0.919922,0.299072
1470242540357853,-0.0401611,0.250549,-0.919922,0.29895
1470242540380373,-0.0397949,0.250488,-0.919983,0.298828
1470242540401391,-0.0396118,0.25061,-0.920044,0.298645
1470242540417908,-0.0396118,0.251099,-0.919983,0.298462
1470242540440427,-0.0396729,0.251648,-0.9198,0.298401
1470242540461480,-0.0396729,0.251648,-0.9198,0.298401
1470242540477961,-0.0396729,0.251709,-0.9198,0.298401
1470242540500481,-0.0396729,0.251709,-0.9198,0.298401
1470242540521528,-0.0396729,0.25177,-0.9198,0.298401
1470242540538015,-0.039917,0.251892,-0.9198,0.29834
1470242540560535,-0.0403442,0.252014,-0.919739,0.298279
1470242540581584,-0.0408325,0.252197,-0.919678,0.298279
1470242540598105,-0.0414429,0.252197,-0.919617,0.298401
1470242540620589,-0.0419922,0.251526,-0.919678,0.298645
1470242540641656,-0.0429077,0.250916,-0.919678,0.299133
1470242540658139,-0.0439453,0.250488,-0.919556,0.299561
1470242540680643,-0.0449829,0.25,-0.919556,0.299988
1470242540703164,-0.0458984,0.249207,-0.919556,0.300293
1470242540718199,-0.0467529,0.248047,-0.919739,0.30072
1470242540740696,-0.0477905,0.247375,-0.919739,0.301086
1470242540762762,-0.0489502,0.247131,-0.919617,0.301392
1470242540777730,-0.0497437,0.246948,-0.919556,0.301697
1470242540800250,-0.0501099,0.246643,-0.919556,0.30188
1470242540822806,-0.0502319,0.246399,-0.919556,0.302063
1470242540837283,-0.0504761,0.246155,-0.919495,0.302307
1470242540860304,-0.0508423,0.246094,-0.919434,0.30249
1470242540882824,-0.0510864,0.245789,-0.919434,0.302673
1470242540897381,-0.0512695,0.245422,-0.919495,0.302734
1470242540920358,-0.0513916,0.244995,-0.919617,0.302856
1470242540942879,-0.0515747,0.244812,-0.919617,0.302856
1470242540957391,-0.0515747,0.244812,-0.919617,0.302856
1470242540980413,-0.0515137,0.244629,-0.919617,0.302917
1470242541002934,-0.0513916,0.244263,-0.919739,0.30304
1470242541017476,-0.0513916,0.244263,-0.919739,0.30304
1470242541040466,-0.0512085,0.244324,-0.919678,0.303162
1470242541063003,-0.0507202,0.244568,-0.919617,0.303223
1470242541077498,-0.0500488,0.244995,-0.919556,0.303101
1470242541100522,-0.0493164,0.245422,-0.919556,0.302856
1470242541123050,-0.048584,0.246277,-0.919556,0.302429
1470242541128544,-0.0481567,0.247864,-0.919128,0.302368
1470242541145061,-0.0479126,0.249817,-0.918579,0.302429
1470242541166079,-0.0474243,0.250488,-0.918457,0.30249
1470242541188598,-0.046936,0.250549,-0.918457,0.30249
1470242541204613,-0.0467529,0.250732,-0.918457,0.302429
1470242541226135,-0.0460205,0.250793,-0.918457,0.302368
1470242541248205,-0.0453491,0.251465,-0.918396,0.302246
1470242541272175,-0.0446167,0.251404,-0.918518,0.30188
1470242541285719,-0.0440674,0.251709,-0.918579,0.301636
1470242541308262,-0.0432739,0.252075,-0.918518,0.301514
1470242541326283,-0.0426025,0.252625,-0.918457,0.30127
1470242541346273,-0.0421753,0.252991,-0.918457,0.301086
1470242541368282,-0.0418091,0.253113,-0.918518,0.300903
1470242541384776,-0.0411377,0.252563,-0.918701,0.300842
1470242541405824,-0.0408936,0.25238,-0.918762,0.300903
1470242541428331,-0.0408325,0.252441,-0.918762,0.300903
1470242541444862,-0.0408325,0.252441,-0.918762,0.300903
1470242541465847,-0.0407104,0.252441,-0.918823,0.30072
1470242541488410,-0.0407104,0.252441,-0.918823,0.30072
1470242541506427,-0.0408936,0.252869,-0.918701,0.300659
1470242541525942,-0.0413208,0.253235,-0.918579,0.300659
1470242541548464,-0.041687,0.25354,-0.918457,0.30072
1470242541566471,-0.0419312,0.253357,-0.918457,0.300842
1470242541585955,-0.0421753,0.252991,-0.918457,0.301086
1470242541608486,-0.0427246,0.252563,-0.918457,0.301453
1470242541626600,-0.043396,0.251404,-0.918579,0.30188
1470242541646049,-0.0442505,0.249939,-0.918762,0.302429
1470242541668533,-0.0452881,0.248718,-0.918884,0.302917
1470242541686046,-0.0461426,0.247498,-0.919067,0.303284
1470242541706064,-0.0467529,0.246277,-0.91925,0.303528
1470242541728583,-0.0473633,0.244934,-0.919495,0.303894
1470242541746600,-0.0479736,0.243469,-0.919739,0.30426
1470242541766118,-0.048645,0.242004,-0.919983,0.304565
1470242541788137,-0.0491333,0.240723,-0.920166,0.304871
1470242541806154,-0.0491943,0.23938,-0.92041,0.305237
1470242541825670,-0.0492554,0.238708,-0.920471,0.305481
1470242541848191,-0.0496216,0.238464,-0.920471,0.305664
1470242541866208,-0.0499268,0.238342,-0.920471,0.305664
1470242541885772,-0.0499878,0.237976,-0.920532,0.305725
1470242541908264,-0.0498657,0.23761,-0.920654,0.305725
1470242541926313,-0.0498657,0.23761,-0.920654,0.305725
1470242541945805,-0.0499878,0.23761,-0.920593,0.305786
1470242541968362,-0.0499878,0.237671,-0.920593,0.305786
1470242541986367,-0.0499268,0.237427,-0.920654,0.305847
1470242542005833,-0.0499268,0.237305,-0.920654,0.305908
1470242542028354,-0.0498657,0.237305,-0.920654,0.305908
1470242542046383,-0.0499268,0.237305,-0.920654,0.305908
1470242542065887,-0.0498657,0.237366,-0.920654,0.305908
1470242542088455,-0.0498657,0.237366,-0.920654,0.305908
1470242542106478,-0.0499268,0.237366,-0.920654,0.305908
1470242542125942,-0.0499268,0.237366,-0.920654,0.305908
1470242542148518,-0.0496216,0.237366,-0.920715,0.305847
1470242542166477,-0.0492554,0.237671,-0.920654,0.305786
1470242542189091,-0.0490112,0.238159,-0.920532,0.305786
1470242542208556,-0.048584,0.238159,-0.920593,0.305786
1470242542226539,-0.0479126,0.238708,-0.920593,0.30542
1470242542247549,-0.0474854,0.239685,-0.920471,0.305115
1470242542271571,-0.0470581,0.241028,-0.920227,0.304688
1470242542286086,-0.0464478,0.24231,-0.920044,0.304382
1470242542307105,-0.0455322,0.243225,-0.919983,0.303955
1470242542328726,-0.0448608,0.243774,-0.919861,0.303955
1470242542346767,-0.0440674,0.244629,-0.919678,0.304016
1470242542367157,-0.0430298,0.245422,-0.919556,0.303955
1470242542388231,-0.0419922,0.246582,-0.919434,0.303528
1470242542406197,-0.0408936,0.247864,-0.91925,0.303101
1470242542427213,-0.039917,0.248962,-0.919067,0.302979
1470242542448730,-0.0390625,0.25,-0.918884,0.302795
1470242542466246,-0.0385132,0.250671,-0.918823,0.302551
1470242542487265,-0.0383301,0.251099,-0.918762,0.302307
1470242542508296,-0.038269,0.251282,-0.918762,0.302124
1470242542526301,-0.038269,0.251526,-0.918762,0.302002
1470242542548820,-0.038269,0.251892,-0.918579,0.302063
1470242542568375,-0.038269,0.25238,-0.918518,0.302002
1470242542586353,-0.0383911,0.252808,-0.918457,0.30188
1470242542608874,-0.0385132,0.252869,-0.918457,0.301636
1470242542628393,-0.0385742,0.252869,-0.918579,0.301453
1470242542646409,-0.0386963,0.252686,-0.918579,0.301392
1470242542668928,-0.0390625,0.252686,-0.918579,0.301453
1470242542688445,-0.0394287,0.252625,-0.918579,0.301514
1470242542705961,-0.0397949,0.252258,-0.918579,0.301636
1470242542728981,-0.0402832,0.251831,-0.91864,0.301758
1470242542748499,-0.0407715,0.251404,-0.918701,0.301819
1470242542766515,-0.0415039,0.250732,-0.918823,0.301941
1470242542788535,-0.0422363,0.249756,-0.919006,0.302124
1470242542816060,-0.0432739,0.248535,-0.919189,0.302429
1470242542826070,-0.0444336,0.246948,-0.919495,0.302673
1470242542848589,-0.0449829,0.245056,-0.919861,0.303101
1470242542868607,-0.045166,0.243408,-0.920166,0.303406
1470242542886123,-0.0457764,0.242981,-0.920105,0.303833
1470242542908643,-0.046814,0.242554,-0.920044,0.304199
1470242542928161,-0.0476074,0.241638,-0.920105,0.304504
1470242542946177,-0.0479736,0.240417,-0.920349,0.304871
1470242542968697,-0.0482788,0.239319,-0.920532,0.305115
1470242542988215,-0.0484619,0.238525,-0.920654,0.305298
1470242543006231,-0.0484619,0.237671,-0.920776,0.305481
1470242543028753,-0.0485229,0.236816,-0.920959,0.305664
1470242543048269,-0.0484009,0.235901,-0.921143,0.305847
1470242543066285,-0.0482788,0.235107,-0.921326,0.305969
1470242543088806,-0.0481567,0.234436,-0.921448,0.306152
1470242543108322,-0.0480957,0.233887,-0.921509,0.306213
1470242543126339,-0.0479126,0.233521,-0.921631,0.306274
1470242543148859,-0.0474854,0.23291,-0.921753,0.306396
1470242543169877,-0.0470581,0.232178,-0.921936,0.306458
1470242543186392,-0.046936,0.231445,-0.92218,0.306274
1470242543216419,-0.046875,0.230774,-0.922424,0.306152
1470242543229431,-0.046814,0.230164,-0.922607,0.305969
1470242543246446,-0.0466919,0.229553,-0.922852,0.305725
1470242543268466,-0.0462646,0.228882,-0.923157,0.305481
1470242543289993,-0.0455933,0.228394,-0.92334,0.305359
1470242543306500,-0.0447388,0.227783,-0.923645,0.305115
1470242543329021,-0.043457,0.227783,-0.92395,0.304199
1470242543350040,-0.0423584,0.228455,-0.924255,0.30304
1470242543366554,-0.0411377,0.229065,-0.924561,0.301697
1470242543388578,-0.0394897,0.22937,-0.92511,0.300171
1470242543409593,-0.0384521,0.231506,-0.925293,0.297913
1470242543430618,-0.0390625,0.235352,-0.924988,0.295837
1470242543448630,-0.039856,0.238464,-0.9245,0.294678
1470242543469647,-0.0396118,0.240356,-0.924194,0.294128
1470242543490667,-0.0384521,0.240051,-0.924683,0.293091
1470242543508682,-0.038208,0.238892,-0.925354,0.291992
1470242543530201,-0.0379028,0.23822,-0.925781,0.291077
1470242543551721,-0.0378418,0.239441,-0.925781,0.290161
1470242543568236,-0.0383301,0.240417,-0.925842,0.289063
1470242543590756,-0.0385742,0.240723,-0.926208,0.28772
1470242543611775,-0.0386353,0.240845,-0.926575,0.286316
1470242543628290,-0.0390625,0.24176,-0.926758,0.284851
1470242543650309,-0.0396729,0.242981,-0.926758,0.283691
1470242543664824,-0.0400391,0.243469,-0.92688,0.282837
1470242543687843,-0.0403442,0.243713,-0.927002,0.282227
1470242543710363,-0.0407715,0.24353,-0.927246,0.281616
1470242543724892,-0.0413818,0.243164,-0.92749,0.281006
1470242543747923,-0.0419922,0.24292,-0.927734,0.280273
1470242543770418,-0.0422974,0.242676,-0.92804,0.279541
1470242543784931,-0.0421753,0.242188,-0.928284,0.279053
1470242543807951,-0.0422363,0.242126,-0.928406,0.278687
1470242543830473,-0.0425415,0.241943,-0.928528,0.278442
1470242543852991,-0.0427246,0.241577,-0.928589,0.278381
1470242543868006,-0.0424194,0.240906,-0.928772,0.278442
1470242543890570,-0.0420532,0.240234,-0.928955,0.278503
1470242543904538,-0.041687,0.239502,-0.929199,0.278503
1470242543928058,-0.0413208,0.239075,-0.929321,0.27832
1470242543950579,-0.0409546,0.239014,-0.929443,0.278198
1470242543964630,-0.0404663,0.239075,-0.929504,0.278015
1470242543988113,-0.039978,0.239075,-0.929504,0.278015
1470242544011135,-0.0392456,0.238708,-0.929565,0.278259
1470242544031696,-0.0385742,0.237183,-0.929871,0.278564
1470242544048201,-0.038269,0.237,-0.929871,0.27887
1470242544070705,-0.0384521,0.237,-0.92981,0.279053
1470242544091797,-0.0384521,0.237,-0.92981,0.279053
1470242544108266,-0.0385132,0.237061,-0.92981,0.279053
1470242544130240,-0.0384521,0.236755,-0.929871,0.279053
1470242544151779,-0.0383911,0.236511,-0.929871,0.279175
1470242544168274,-0.0386353,0.236023,-0.929932,0.279297
1470242544190794,-0.0391235,0.236694,-0.929688,0.279602
1470242544211813,-0.0394897,0.237,-0.929443,0.280029
1470242544228329,-0.0394287,0.236511,-0.929443,0.280457
1470242544250348,-0.0392456,0.236267,-0.929382,0.280945
1470242544271867,-0.0391846,0.236023,-0.92926,0.281555
1470242544287881,-0.0390625,0.235962,-0.929138,0.282043
1470242544310402,-0.0391846,0.236023,-0.929016,0.282288
1470242544331477,-0.0390625,0.235596,-0.929077,0.282532
1470242544347935,-0.0389404,0.235046,-0.929199,0.282654
1470242544370456,-0.0385742,0.234558,-0.92926,0.282776
1470242544391521,-0.0383911,0.234131,-0.929382,0.282898
1470242544407990,-0.038269,0.233643,-0.929443,0.28302
1470242544430510,-0.0380249,0.233337,-0.929504,0.283142
1470242544453030,-0.0379028,0.233215,-0.929504,0.283203
1470242544468045,-0.0379028,0.233215,-0.929504,0.283203
1470242544490563,-0.0379028,0.233276,-0.929504,0.283203
1470242544519141,-0.0379639,0.233276,-0.929565,0.28302
1470242544528100,-0.0379028,0.233398,-0.929565,0.282776
1470242544550617,-0.0378418,0.233276,-0.929688,0.282532
1470242544573139,-0.0375977,0.233032,-0.92981,0.28241
1470242544588151,-0.0375366,0.233032,-0.92981,0.28241
1470242544610673,-0.0375366,0.233032,-0.92981,0.28241
1470242544633191,-0.0375977,0.233032,-0.92981,0.28241
1470242544647204,-0.0375977,0.232666,-0.929871,0.282532
1470242544670743,-0.0376587,0.232239,-0.929932,0.282715
1470242544693245,-0.0375977,0.231323,-0.930176,0.282654
1470242544707258,-0.0374756,0.230347,-0.93042,0.282593
1470242544730779,-0.0377197,0.231262,-0.930115,0.282837
1470242544753328,-0.0379639,0.23175,-0.929932,0.282959
1470242544767312,-0.0379639,0.231812,-0.929932,0.282959
1470242544790337,-0.0379639,0.231812,-0.929932,0.282959
1470242544812886,-0.0380249,0.231628,-0.929993,0.282959
1470242544827367,-0.0379028,0.231018,-0.930115,0.282959
1470242544850386,-0.0375977,0.230286,-0.930298,0.28302
1470242544872908,-0.0375977,0.230286,-0.930298,0.28302
1470242544887420,-0.0375977,0.230286,-0.930298,0.28302
1470242544910446,-0.0375366,0.230469,-0.930237,0.283142
1470242544932961,-0.0375977,0.23053,-0.930237,0.283142
1470242544954502,-0.0375977,0.23053,-0.930237,0.283142
1470242544970516,-0.0375977,0.230591,-0.930176,0.283142
1470242544999063,-0.0376587,0.230591,-0.930176,0.283142
1470242545014066,-0.0376587,0.230591,-0.930176,0.283142
1470242545030549,-0.0376587,0.230591,-0.930176,0.283142
1470242545053097,-0.0377808,0.230835,-0.930115,0.283264
1470242545074087,-0.0380249,0.231201,-0.929993,0.283325
1470242545090605,-0.0380249,0.231201,-0.929993,0.283325
1470242545113122,-0.0380249,0.231262,-0.929993,0.283325
1470242545134145,-0.0379639,0.231262,-0.929932,0.283325
1470242545150656,-0.038147,0.23175,-0.92981,0.283447
1470242545173178,-0.0385132,0.2323,-0.929626,0.283508
1470242545194236,-0.0385742,0.2323,-0.929626,0.283508
1470242545210710,-0.0385742,0.232361,-0.929626,0.283508
1470242545233230,-0.0386353,0.232544,-0.929504,0.28363
1470242545254278,-0.0388794,0.232788,-0.929443,0.283752
1470242545270266,-0.0391235,0.232666,-0.929443,0.283752
1470242545293284,-0.0390015,0.232422,-0.929443,0.283875
1470242545314310,-0.0386963,0.231873,-0.929565,0.283997
1470242545330317,-0.0385742,0.231445,-0.929688,0.283997
1470242545352838,-0.0386353,0.231445,-0.929688,0.283997
1470242545374371,-0.0386963,0.23114,-0.929749,0.283936
1470242545390371,-0.0385742,0.230835,-0.929871,0.283936
1470242545412894,-0.0383301,0.230408,-0.929932,0.284058
1470242545435411,-0.0385132,0.230774,-0.92981,0.284241
1470242545450425,-0.0387573,0.231262,-0.929626,0.284302
1470242545472945,-0.0385742,0.231079,-0.929626,0.284424
1470242545495482,-0.0383301,0.230713,-0.92981,0.284302
1470242545510516,-0.038147,0.230652,-0.92981,0.284302
1470242545532999,-0.038147,0.230652,-0.929871,0.28418
1470242545555520,-0.0380249,0.230652,-0.929932,0.283997
1470242545570032,-0.0377808,0.230103,-0.930115,0.283813
1470242545593055,-0.0374756,0.229492,-0.930298,0.283752
1470242545615621,-0.0373535,0.229187,-0.93042,0.283691
1470242545630112,-0.0373535,0.229126,-0.93042,0.283691
1470242545653146,-0.0375366,0.229858,-0.930176,0.283813
1470242545683135,-0.0377808,0.230347,-0.929993,0.283997
1470242545690175,-0.0378418,0.230652,-0.929871,0.284119
1470242545713179,-0.0379028,0.230957,-0.929749,0.284241
1470242545735682,-0.0379028,0.231018,-0.929749,0.28418
1470242545749694,-0.0379639,0.231018,-0.929749,0.28418
1470242545773215,-0.0379639,0.231079,-0.929749,0.28418
1470242545795735,-0.0379639,0.231079,-0.929749,0.28418
1470242545809748,-0.038147,0.231384,-0.929688,0.28418
1470242545833269,-0.038208,0.231384,-0.929626,0.28418
1470242545855790,-0.038208,0.231445,-0.929626,0.28418
1470242545869837,-0.038208,0.231506,-0.929626,0.28418
1470242545893323,-0.038208,0.231506,-0.929626,0.28418
1470242545915345,-0.038208,0.231567,-0.929626,0.28418
1470242545936361,-0.038269,0.231445,-0.929688,0.284058
1470242545952876,-0.038269,0.231445,-0.929688,0.284058
1470242545975402,-0.038269,0.231506,-0.929688,0.284058
1470242545996416,-0.038269,0.231506,-0.929626,0.284058
1470242546012998,-0.0383301,0.231567,-0.929626,0.284058
1470242546035516,-0.0383301,0.231567,-0.929626,0.284058
1470242546056557,-0.038269,0.231323,-0.929749,0.283997
1470242546073081,-0.038208,0.231323,-0.929688,0.283997
1470242546095570,-0.038269,0.231384,-0.929688,0.283997
1470242546116589,-0.038269,0.231384,-0.929688,0.283997
1470242546133104,-0.038269,0.231384,-0.929688,0.283997
1470242546155624,-0.038269,0.231262,-0.929749,0.284058
1470242546176683,-0.038208,0.231079,-0.929749,0.284058
1470242546193172,-0.038269,0.230957,-0.92981,0.284119
1470242546215680,-0.0383301,0.231018,-0.929749,0.284119
1470242546236775,-0.038208,0.230835,-0.92981,0.28418
1470242546253234,-0.038147,0.230896,-0.92981,0.28418
1470242546275732,-0.038147,0.230896,-0.92981,0.28418
1470242546296772,-0.038208,0.230896,-0.92981,0.28418
1470242546313265,-0.038208,0.230896,-0.92981,0.28418
1470242546335786,-0.038208,0.230957,-0.929749,0.28418
1470242546358328,-0.038208,0.231018,-0.929749,0.28418
1470242546372819,-0.038269,0.231018,-0.929749,0.284119
1470242546395339,-0.038269,0.231018,-0.929749,0.284119
1470242546417861,-0.038269,0.231079,-0.929749,0.284119
1470242546432874,-0.038269,0.230896,-0.92981,0.284058
1470242546455393,-0.038269,0.230957,-0.92981,0.284058
1470242546477914,-0.0383301,0.230957,-0.92981,0.284058
1470242546492461,-0.0383301,0.230957,-0.92981,0.284058
1470242546515448,-0.0383301,0.231018,-0.92981,0.284058
1470242546537979,-0.0383301,0.231018,-0.92981,0.284058
1470242546552481,-0.0383301,0.231079,-0.92981,0.284058
1470242546576010,-0.0383911,0.231079,-0.92981,0.284058
1470242546598022,-0.0383911,0.231079,-0.929749,0.284058
1470242546612535,-0.0383911,0.231079,-0.929749,0.284058
1470242546635559,-0.0383911,0.23114,-0.929749,0.284058
1470242546658075,-0.0383911,0.23114,-0.929749,0.284058
1470242546672087,-0.0383911,0.231201,-0.929749,0.283997
1470242546695609,-0.0383911,0.231201,-0.929749,0.283997
1470242546718156,-0.0383911,0.231262,-0.929749,0.283997
1470242546732642,-0.0383911,0.231262,-0.929749,0.283997
1470242546755665,-0.0384521,0.23114,-0.929749,0.284058
1470242546778183,-0.0384521,0.231018,-0.92981,0.283997
1470242546792200,-0.0384521,0.230835,-0.92981,0.284119
1470242546815716,-0.0383911,0.230835,-0.92981,0.284119
1470242546838237,-0.0384521,0.230835,-0.92981,0.284119
1470242546859259,-0.0384521,0.230896,-0.92981,0.284058
1470242546875274,-0.0384521,0.230896,-0.92981,0.284058
1470242546898291,-0.0385132,0.230957,-0.92981,0.284058
1470242546919310,-0.0385132,0.230957,-0.92981,0.284058
1470242546935326,-0.0385132,0.230957,-0.92981,0.284058
1470242546957852,-0.0385742,0.230896,-0.92981,0.284119
1470242546979374,-0.0386353,0.230591,-0.92981,0.28418
1470242546995411,-0.0384521,0.230347,-0.929871,0.284363
1470242547017919,-0.0383911,0.230225,-0.929871,0.284485
1470242547039467,-0.0383911,0.230103,-0.929871,0.284607
1470242547055432,-0.0383911,0.229919,-0.929871,0.284668
1470242547077953,-0.0384521,0.229736,-0.929871,0.284851
1470242547099017,-0.0385132,0.229553,-0.929871,0.284973
1470242547115486,-0.0385132,0.229492,-0.929871,0.285095
1470242547138026,-0.0385132,0.229492,-0.929871,0.285095
1470242547159059,-0.0385742,0.22937,-0.929871,0.285095
1470242547175540,-0.0385132,0.229248,-0.929871,0.285217
1470242547198062,-0.0385132,0.229248,-0.929871,0.285217
1470242547219128,-0.0386963,0.229553,-0.929749,0.285339
1470242547235598,-0.0387573,0.229553,-0.929749,0.285339
1470242547258114,-0.0387573,0.229614,-0.929749,0.285339
1470242547280635,-0.0387573,0.229614,-0.929749,0.285339
1470242547295682,-0.0387573,0.229614,-0.929749,0.285339
1470242547318168,-0.0387573,0.229614,-0.929749,0.285339
1470242547340722,-0.0387573,0.229614,-0.929749,0.285339
1470242547355731,-0.0387573,0.229675,-0.929749,0.285278
1470242547378221,-0.0387573,0.229675,-0.929749,0.285278
1470242547400742,-0.0387573,0.229675,-0.929688,0.285278
1470242547414787,-0.0387573,0.229736,-0.929688,0.285278
1470242547438275,-0.0388184,0.229736,-0.929688,0.285278
1470242547460803,-0.0388184,0.229736,-0.929688,0.285278
1470242547474809,-0.0388184,0.229736,-0.929688,0.285278
1470242547498330,-0.0388184,0.229736,-0.929688,0.285278
1470242547520397,-0.0388184,0.229797,-0.929688,0.285278
1470242547534863,-0.0388184,0.229797,-0.929688,0.285278
1470242547557886,-0.0388184,0.229797,-0.929688,0.285278
1470242547580408,-0.0388794,0.229858,-0.929688,0.285278
1470242547594921,-0.0388794,0.229858,-0.929688,0.285278
1470242547617938,-0.0388794,0.229919,-0.929688,0.285278
1470242547640459,-0.0388794,0.229736,-0.929749,0.285217
1470242547655004,-0.0388794,0.229736,-0.929688,0.285217
1470242547677994,-0.0388794,0.229797,-0.929688,0.285217
1470242547700512,-0.0388794,0.229797,-0.929688,0.285217
1470242547715024,-0.0388794,0.229797,-0.929688,0.285217
1470242547745552,-0.0388794,0.229736,-0.929688,0.285278
1470242547760593,-0.0389404,0.229614,-0.929749,0.285217
1470242547775089,-0.0389404,0.229614,-0.929749,0.285217
1470242547798099,-0.0389404,0.229614,-0.929749,0.285217
1470242547820660,-0.0389404,0.229675,-0.929749,0.285217
1470242547841681,-0.0389404,0.229675,-0.929749,0.285217
1470242547858156,-0.0389404,0.229675,-0.929749,0.285217
1470242547880673,-0.0389404,0.229675,-0.929749,0.285217
1470242547903224,-0.0389404,0.229675,-0.929749,0.285217
1470242547918207,-0.0389404,0.229736,-0.929749,0.285217
1470242547940726,-0.0390015,0.229736,-0.929749,0.285217
1470242547961758,-0.0390015,0.229736,-0.929749,0.285217
1470242547978260,-0.0390015,0.229736,-0.929749,0.285217
1470242548000780,-0.0390015,0.229736,-0.929749,0.285217
1470242548021800,-0.0390015,0.229736,-0.929749,0.285217
1470242548038314,-0.0390015,0.229736,-0.929688,0.285217
1470242548060333,-0.0390015,0.229736,-0.929688,0.285217
1470242548081931,-0.0390625,0.229736,-0.929688,0.285217
1470242548097870,-0.0390625,0.229736,-0.929688,0.285217
1470242548120388,-0.0390015,0.229553,-0.929749,0.285278
1470242548141408,-0.0390015,0.229553,-0.929749,0.285278
1470242548157965,-0.0390015,0.229553,-0.929749,0.285278
1470242548180442,-0.0390625,0.229614,-0.929749,0.285278
1470242548209478,-0.0390625,0.229614,-0.929749,0.285278
1470242548217979,-0.0390625,0.229675,-0.929749,0.285278
1470242548246518,-0.0390625,0.229675,-0.929749,0.285278
1470242548263068,-0.0390625,0.229675,-0.929749,0.285217
1470242548278029,-0.0390625,0.229675,-0.929749,0.285217
1470242548300553,-0.0390625,0.229675,-0.929749,0.285217
1470242548323072,-0.0390625,0.229675,-0.929749,0.285217
1470242548338084,-0.0391235,0.229675,-0.929749,0.285217
1470242548360603,-0.0391235,0.229675,-0.929749,0.285217
1470242548383124,-0.0391235,0.229675,-0.929749,0.285217
1470242548397636,-0.0391235,0.229675,-0.929749,0.285217
1470242548420658,-0.0391235,0.229675,-0.929688,0.285217
1470242548443235,-0.0391846,0.229736,-0.929749,0.285217
1470242548457193,-0.0391846,0.229736,-0.929688,0.285217
1470242548488719,-0.0391846,0.229736,-0.929688,0.285217
1470242548490837,-0.0391846,0.229736,-0.929688,0.285217
1470242548508285,-0.0391846,0.229797,-0.929688,0.285217
1470242548524751,-0.0391846,0.229614,-0.929749,0.285217
1470242548546270,-0.0390625,0.229431,-0.92981,0.285217
1470242548568290,-0.0390625,0.229431,-0.92981,0.285217
1470242548584806,-0.0390625,0.229431,-0.92981,0.285217
1470242548606328,-0.0390625,0.229431,-0.92981,0.285217
1470242548628388,-0.0391235,0.22937,-0.92981,0.285156
1470242548644860,-0.0390625,0.229126,-0.929871,0.285156
1470242548665880,-0.0390625,0.229126,-0.929871,0.285156
1470242548688453,-0.0391235,0.229187,-0.929871,0.285156
1470242548704913,-0.0391235,0.229187,-0.929871,0.285156
1470242548725987,-0.0391235,0.229187,-0.929871,0.285156
1470242548748460,-0.0391235,0.229187,-0.929871,0.285156
1470242548764967,-0.0391235,0.229187,-0.929871,0.285156
1470242548785986,-0.0391235,0.229248,-0.929871,0.285156
1470242548808506,-0.0391235,0.229248,-0.929871,0.285156
1470242548825026,-0.0391235,0.229004,-0.929932,0.285156
1470242548846115,-0.0391235,0.229004,-0.929932,0.285156
1470242548868633,-0.0391235,0.229065,-0.929932,0.285156
1470242548885093,-0.0391235,0.229065,-0.929932,0.285156
1470242548906141,-0.0391235,0.229065,-0.929932,0.285156
1470242548928631,-0.0390625,0.229004,-0.929932,0.285095
1470242548945147,-0.0390625,0.229004,-0.929932,0.285095
1470242548966165,-0.0391235,0.229004,-0.929932,0.285095
1470242548988686,-0.0391235,0.229065,-0.929932,0.285095
1470242549004701,-0.0391235,0.229065,-0.929932,0.285095
1470242549026359,-0.0391235,0.229065,-0.929932,0.285095
1470242549048746,-0.0391235,0.229065,-0.929932,0.285095
1470242549064755,-0.0391235,0.229065,-0.929932,0.285095
1470242549086274,-0.0391235,0.229065,-0.929932,0.285095
1470242549108349,-0.0391846,0.229126,-0.929932,0.285095
1470242549124808,-0.0391846,0.229126,-0.929932,0.285095
1470242549145855,-0.0391846,0.229126,-0.929871,0.285095
1470242549168851,-0.0391846,0.229187,-0.929871,0.285095
1470242549186396,-0.0391846,0.229065,-0.929932,0.285034
1470242549205881,-0.0391846,0.229065,-0.929932,0.285034
1470242549228419,-0.0391846,0.229065,-0.929932,0.285034
1470242549246462,-0.0391846,0.229126,-0.929932,0.285034
1470242549266435,-0.0392456,0.229126,-0.929932,0.285034
1470242549288503,-0.0392456,0.229126,-0.929932,0.285034
1470242549306567,-0.0392456,0.229187,-0.929932,0.285034
1470242549325989,-0.0392456,0.229187,-0.929932,0.285034
1470242549348550,-0.0392456,0.229187,-0.929871,0.285034
1470242549366525,-0.0392456,0.229248,-0.929871,0.285034
1470242549386067,-0.0392456,0.229248,-0.929871,0.285034
1470242549411566,-0.0392456,0.229248,-0.929871,0.285034
1470242549426579,-0.0392456,0.229248,-0.929871,0.285034
1470242549446120,-0.0393066,0.229248,-0.929871,0.285034
1470242549468616,-0.0393066,0.229248,-0.929871,0.285034
1470242549486662,-0.0393066,0.229309,-0.929871,0.285034
1470242549506206,-0.0393066,0.229309,-0.929871,0.285034
1470242549528671,-0.0393066,0.229309,-0.929871,0.285034
1470242549546733,-0.0393677,0.22937,-0.929871,0.284973
1470242549566212,-0.0393677,0.22937,-0.929871,0.284973
1470242549588741,-0.0393677,0.22937,-0.929871,0.284973
1470242549606748,-0.0393677,0.22937,-0.929871,0.284973
1470242549626258,-0.0393677,0.22937,-0.929871,0.284973
1470242549648278,-0.0393677,0.22937,-0.929871,0.284973
1470242549666295,-0.0393677,0.229431,-0.929871,0.284973
1470242549685811,-0.0393677,0.229431,-0.929871,0.284973
1470242549708376,-0.0393677,0.229431,-0.929871,0.284973
1470242549726384,-0.0393677,0.229431,-0.929871,0.284973
1470242549746391,-0.0393677,0.229431,-0.929871,0.284973
1470242549768388,-0.0394287,0.229492,-0.92981,0.284973
1470242549786462,-0.0394287,0.229492,-0.92981,0.284973
1470242549807421,-0.0394287,0.229492,-0.92981,0.284973
1470242549828441,-0.0394287,0.229492,-0.92981,0.284973
1470242549846456,-0.0394287,0.229492,-0.92981,0.284973
1470242549867475,-0.0394287,0.229553,-0.92981,0.284973
1470242549888494,-0.0394287,0.229553,-0.92981,0.284973
1470242549906510,-0.0394287,0.229553,-0.92981,0.284973
1470242549927529,-0.0394287,0.229553,-0.92981,0.284973
1470242549948553,-0.0394287,0.229431,-0.929871,0.284973
1470242549966565,-0.0394287,0.229431,-0.929871,0.285034
1470242549987586,-0.0394287,0.229431,-0.929871,0.284973
1470242550008601,-0.0394897,0.229431,-0.92981,0.284973
1470242550026617,-0.0394897,0.229431,-0.92981,0.284973
1470242550047637,-0.0394897,0.229492,-0.92981,0.284973
1470242550068655,-0.0394897,0.229492,-0.92981,0.284973
1470242550086171,-0.0394897,0.229553,-0.92981,0.284973
1470242550107190,-0.0395508,0.229553,-0.92981,0.284973
1470242550128209,-0.0395508,0.229553,-0.92981,0.284973
1470242550146226,-0.0395508,0.229553,-0.92981,0.284973
1470242550168746,-0.0395508,0.229553,-0.92981,0.284973
1470242550188763,-0.0395508,0.229553,-0.92981,0.284973
1470242550206280,-0.0394897,0.22937,-0.929871,0.284973
1470242550228802,-0.0394897,0.22937,-0.929871,0.284973
1470242550248318,-0.0394897,0.229431,-0.929871,0.284973
1470242550266333,-0.0394897,0.229431,-0.929871,0.284973
1470242550288853,-0.0394897,0.229431,-0.929871,0.284973
1470242550308372,-0.0394897,0.229492,-0.92981,0.284973
1470242550326389,-0.0394897,0.229492,-0.92981,0.284973
1470242550348935,-0.0394897,0.229492,-0.92981,0.284973
1470242550368426,-0.0395508,0.229553,-0.92981,0.284973
1470242550386467,-0.0395508,0.229553,-0.92981,0.284973
1470242550408963,-0.0395508,0.229553,-0.92981,0.284973
1470242550428507,-0.0395508,0.229553,-0.92981,0.284973
1470242550446593,-0.0395508,0.229553,-0.92981,0.284973
1470242550469069,-0.0395508,0.229553,-0.92981,0.284973
1470242550488533,-0.0395508,0.229553,-0.92981,0.284973
1470242550506549,-0.0395508,0.229431,-0.929871,0.284973
1470242550529110,-0.0395508,0.229431,-0.929871,0.284973
1470242550548615,-0.0395508,0.229431,-0.929871,0.284973
1470242550566602,-0.0395508,0.229492,-0.92981,0.284973
1470242550596632,-0.0395508,0.229492,-0.92981,0.284973
1470242550610164,-0.0395508,0.229492,-0.92981,0.284973
1470242550626696,-0.0396118,0.229492,-0.92981,0.284973
1470242550649176,-0.0395508,0.229492,-0.92981,0.284973
1470242550668706,-0.0395508,0.229492,-0.92981,0.284973
1470242550686847,-0.0396118,0.229553,-0.92981,0.284973
1470242550708731,-0.0396118,0.229553,-0.92981,0.284973
1470242550729749,-0.0396118,0.229553,-0.92981,0.284973
1470242550746311,-0.0396118,0.229553,-0.92981,0.284973
1470242550774289,-0.0396118,0.229553,-0.92981,0.284973
1470242550789803,-0.0396118,0.229614,-0.92981,0.284973
1470242550807319,-0.0396118,0.229553,-0.92981,0.284973
1470242550828839,-0.0396118,0.229614,-0.92981,0.284973
1470242550849857,-0.0396118,0.229614,-0.92981,0.284973
1470242550872879,-0.0396118,0.229614,-0.92981,0.284973
1470242550887892,-0.0396118,0.229614,-0.92981,0.284973
1470242550910413,-0.0396118,0.229614,-0.92981,0.284973
1470242550925425,-0.0396118,0.229614,-0.92981,0.284912
1470242550947945,-0.0396729,0.229675,-0.92981,0.284912
1470242550969465,-0.0396118,0.229614,-0.92981,0.284973
1470242550985479,-0.0393677,0.229309,-0.929871,0.284973
1470242551008000,-0.0393677,0.229309,-0.929871,0.284973
1470242551029605,-0.0393677,0.229309,-0.929871,0.284973
1470242551045536,-0.0393677,0.229309,-0.929871,0.284973
1470242551068054,-0.0393677,0.22937,-0.929871,0.284973
1470242551090594,-0.0394287,0.22937,-0.929871,0.284973
1470242551105611,-0.0394287,0.22937,-0.929871,0.284973
1470242551128107,-0.0394287,0.22937,-0.929871,0.284973
1470242551150628,-0.0394287,0.22937,-0.929871,0.284973
1470242551165641,-0.0394287,0.22937,-0.929871,0.284973
1470242551188161,-0.0394897,0.229431,-0.929871,0.284973
1470242551210686,-0.0394897,0.229431,-0.929871,0.284912
1470242551224712,-0.0394897,0.229431,-0.929871,0.284912
1470242551248214,-0.0394897,0.229431,-0.929871,0.284912
1470242551270736,-0.0394897,0.229431,-0.929871,0.284912
1470242551285276,-0.0394897,0.229492,-0.929871,0.284912
1470242551308270,-0.0394897,0.229492,-0.929871,0.284912
1470242551330289,-0.0394897,0.229492,-0.929871,0.284912
1470242551344803,-0.0394897,0.229553,-0.92981,0.284912
1470242551368322,-0.0394897,0.22937,-0.929871,0.284912
1470242551390350,-0.0394897,0.22937,-0.929871,0.284912
1470242551404857,-0.0395508,0.22937,-0.929871,0.284912
1470242551428376,-0.0395508,0.22937,-0.929871,0.284912
1470242551450426,-0.0395508,0.22937,-0.929871,0.284912
1470242551464913,-0.0395508,0.22937,-0.929871,0.284912
1470242551487931,-0.0395508,0.229431,-0.929871,0.284912
1470242551510460,-0.0395508,0.22937,-0.929871,0.284912
1470242551525000,-0.0395508,0.22937,-0.929871,0.284912
1470242551547984,-0.0395508,0.22937,-0.929871,0.284912
1470242551570506,-0.0396729,0.229553,-0.92981,0.284912
1470242551592045,-0.0396729,0.229614,-0.92981,0.284912
1470242551608038,-0.0396729,0.229553,-0.92981,0.284912
1470242551630559,-0.0396729,0.229614,-0.92981,0.284912
1470242551651619,-0.0396729,0.229614,-0.92981,0.284912
1470242551668096,-0.0397339,0.229614,-0.92981,0.284912
1470242551690616,-0.0397339,0.229675,-0.92981,0.284851
1470242551711664,-0.0397339,0.229675,-0.92981,0.284851
1470242551728174,-0.0397339,0.229675,-0.92981,0.284851
1470242551750703,-0.0397339,0.229675,-0.92981,0.284851
1470242551771685,-0.0397339,0.229675,-0.92981,0.284851
1470242551788199,-0.0397339,0.229736,-0.92981,0.284851
1470242551818226,-0.0397949,0.229736,-0.92981,0.284851
1470242551831756,-0.0397339,0.229553,-0.92981,0.284912
1470242551848253,-0.0394287,0.229431,-0.92981,0.285034
1470242551870774,-0.0394287,0.229431,-0.92981,0.285034
1470242551899391,-0.0394287,0.229736,-0.929749,0.285095
1470242551908353,-0.0394287,0.229797,-0.929749,0.285095
1470242551930333,-0.0394287,0.229797,-0.929749,0.285095
1470242551951846,-0.0394897,0.229797,-0.929749,0.285034
1470242551967863,-0.0394897,0.229797,-0.929749,0.285034
1470242551990881,-0.0394897,0.229858,-0.929749,0.285034
1470242552012934,-0.0394897,0.229858,-0.929749,0.285034
1470242552027916,-0.0394897,0.229858,-0.929688,0.285034
1470242552050436,-0.0394897,0.229858,-0.929688,0.285034
1470242552072955,-0.0394897,0.229858,-0.929688,0.285034
1470242552087969,-0.0394897,0.229919,-0.929688,0.285034
1470242552110491,-0.0394897,0.229919,-0.929688,0.285034
1470242552133009,-0.0394897,0.22998,-0.929688,0.285034
1470242552147524,-0.0394897,0.22998,-0.929688,0.285034
1470242552170568,-0.0395508,0.22998,-0.929688,0.285034
1470242552193063,-0.0394897,0.230103,-0.929626,0.285217
1470242552207578,-0.0394897,0.230103,-0.929626,0.285217
1470242552230598,-0.0395508,0.230164,-0.929565,0.285217
1470242552260626,-0.0395508,0.230164,-0.929565,0.285217
1470242552267630,-0.0395508,0.230164,-0.929565,0.285217
1470242552290690,-0.0396118,0.230225,-0.929565,0.285217
1470242552313172,-0.0396118,0.230225,-0.929565,0.285217
1470242552327183,-0.0396118,0.230225,-0.929565,0.285217
1470242552350713,-0.039856,0.230469,-0.929504,0.285278
1470242552373228,-0.039856,0.230469,-0.929504,0.285278
1470242552387270,-0.039856,0.23053,-0.929504,0.285217
1470242552410759,-0.039917,0.23053,-0.929443,0.285217
1470242552433279,-0.039917,0.230591,-0.929443,0.285217
1470242552447293,-0.0400391,0.230774,-0.929443,0.285217
1470242552470813,-0.0400391,0.230774,-0.929443,0.285217
1470242552492835,-0.0400391,0.230774,-0.929443,0.285217
1470242552507358,-0.0400391,0.230774,-0.929443,0.285217
1470242552530866,-0.0400391,0.230835,-0.929382,0.285217
1470242552553422,-0.0400391,0.230835,-0.929382,0.285217
1470242552574405,-0.0400391,0.230896,-0.929382,0.285217
1470242552590438,-0.0400391,0.230896,-0.929382,0.285217
1470242552612984,-0.0400391,0.230896,-0.929382,0.285217
1470242552634478,-0.0400391,0.230957,-0.929382,0.285217
1470242552650474,-0.0400391,0.230957,-0.929382,0.285217
1470242552672994,-0.0400391,0.230957,-0.929382,0.285217
1470242552694013,-0.0400391,0.230957,-0.929382,0.285217
1470242552710527,-0.0401001,0.230896,-0.929382,0.285278
1470242552733047,-0.0401001,0.230652,-0.929443,0.285278
1470242552754121,-0.0401001,0.230713,-0.929443,0.285278
1470242552770581,-0.0401001,0.230713,-0.929443,0.285278
1470242552793102,-0.0401001,0.230713,-0.929443,0.285278
1470242552815622,-0.0401001,0.230713,-0.929443,0.285278
1470242552830636,-0.0401001,0.230713,-0.929382,0.285278
1470242552853156,-0.0401001,0.230713,-0.929443,0.285278
1470242552874210,-0.0401001,0.230713,-0.929382,0.285278
1470242552890690,-0.0401611,0.230713,-0.929382,0.285278
1470242552913212,-0.0401611,0.230774,-0.929382,0.285278
1470242552934233,-0.0401611,0.230774,-0.929382,0.285278
1470242552950790,-0.0401611,0.230774,-0.929382,0.285278
1470242552973266,-0.0401611,0.230835,-0.929382,0.285278
1470242552995818,-0.0401611,0.230835,-0.929382,0.285278
1470242553010798,-0.0401611,0.230835,-0.929382,0.285278
1470242553033318,-0.0401611,0.230835,-0.929382,0.285278
1470242553055841,-0.0402222,0.230835,-0.929382,0.285278
1470242553070852,-0.0402222,0.230835,-0.929382,0.285278
1470242553093871,-0.0402222,0.230835,-0.929382,0.285278
1470242553115891,-0.0402222,0.230835,-0.929382,0.285217
1470242553130405,-0.0402222,0.230835,-0.929382,0.285217
1470242553153426,-0.0402222,0.230835,-0.929382,0.285217
1470242553175485,-0.0402222,0.230835,-0.929382,0.285217
1470242553189958,-0.0402222,0.230835,-0.929382,0.285217
1470242553212979,-0.0402222,0.230896,-0.929382,0.285217
1470242553235501,-0.0402832,0.230896,-0.929382,0.285217
1470242553258022,-0.0400391,0.230591,-0.929443,0.285217
1470242553273037,-0.039856,0.230286,-0.929565,0.285217
1470242553295554,-0.039856,0.230286,-0.929565,0.285217
1470242553310066,-0.039917,0.230286,-0.929565,0.285156
1470242553333087,-0.039917,0.230286,-0.929565,0.285156
1470242553355612,-0.039917,0.230286,-0.929565,0.285156
1470242553370124,-0.039917,0.230286,-0.929565,0.285156
1470242553393143,-0.039917,0.230286,-0.929565,0.285156
1470242553415668,-0.039917,0.230286,-0.929565,0.285156
1470242553436682,-0.039917,0.230286,-0.929565,0.285156
1470242553453197,-0.039917,0.230286,-0.929565,0.285156
1470242553475735,-0.039978,0.230286,-0.929565,0.285156
1470242553496777,-0.039978,0.230286,-0.929565,0.285156
1470242553513249,-0.039978,0.230286,-0.929565,0.285156
1470242553535771,-0.039917,0.230286,-0.929565,0.285156
1470242553556850,-0.039917,0.230286,-0.929565,0.285156
1470242553573354,-0.039978,0.230286,-0.929565,0.285156
1470242553595832,-0.039978,0.230286,-0.929565,0.285156
1470242553616841,-0.039978,0.230286,-0.929565,0.285156
1470242553633356,-0.039978,0.230286,-0.929565,0.285156
1470242553655880,-0.039978,0.230286,-0.929565,0.285156
1470242553676896,-0.039978,0.230286,-0.929565,0.285156
1470242553692966,-0.039978,0.230286,-0.929565,0.285156
1470242553715930,-0.039978,0.230286,-0.929565,0.285156
1470242553736950,-0.0400391,0.230286,-0.929565,0.285156
1470242553752981,-0.0400391,0.230286,-0.929565,0.285156
1470242553775484,-0.0400391,0.230286,-0.929565,0.285156
1470242553796559,-0.0400391,0.230286,-0.929565,0.285156
1470242553813033,-0.0400391,0.230286,-0.929565,0.285156
1470242553843053,-0.0400391,0.230286,-0.929565,0.285156
1470242553857074,-0.0400391,0.230286,-0.929565,0.285156
1470242553873091,-0.0400391,0.230347,-0.929565,0.285156
1470242553895594,-0.0400391,0.230286,-0.929565,0.285156
1470242553916612,-0.0400391,0.230286,-0.929565,0.285156
1470242553932624,-0.0400391,0.230347,-0.929565,0.285156
1470242553955690,-0.0400391,0.230347,-0.929565,0.285156
1470242553978167,-0.0400391,0.230347,-0.929565,0.285156
1470242553993180,-0.0400391,0.230347,-0.929565,0.285156
1470242554015699,-0.0401001,0.230347,-0.929565,0.285156
1470242554038274,-0.0400391,0.230347,-0.929565,0.285156
1470242554053233,-0.0400391,0.230347,-0.929565,0.285156
1470242554075754,-0.0400391,0.230347,-0.929565,0.285156
1470242554098274,-0.0400391,0.230347,-0.929565,0.285156
1470242554119375,-0.0401001,0.230347,-0.929565,0.285156
1470242554135807,-0.0401001,0.230347,-0.929565,0.285156
1470242554158333,-0.0401001,0.230347,-0.929565,0.285156
1470242554172340,-0.0401001,0.230347,-0.929565,0.285156
1470242554195861,-0.0401611,0.23053,-0.929504,0.285156
1470242554218381,-0.0401611,0.23053,-0.929504,0.285156
1470242554232432,-0.0401611,0.23053,-0.929504,0.285156
1470242554255935,-0.0402222,0.23053,-0.929504,0.285156
1470242554277936,-0.0402222,0.23053,-0.929504,0.285156
1470242554292452,-0.0401611,0.23053,-0.929504,0.285156
1470242554315469,-0.0401611,0.230469,-0.929504,0.285156
1470242554337990,-0.0402832,0.230713,-0.929443,0.285217
1470242554352502,-0.0405273,0.230896,-0.929382,0.285156
1470242554375522,-0.0405273,0.230957,-0.929382,0.285156
1470242554398083,-0.0403442,0.23053,-0.929504,0.285156
1470242554419578,-0.0401611,0.230103,-0.929626,0.285156
1470242554435577,-0.0401611,0.230103,-0.929626,0.285156
1470242554458097,-0.0404053,0.230469,-0.929504,0.285095
1470242554479157,-0.0406494,0.230957,-0.929382,0.285095
1470242554495631,-0.0406494,0.231018,-0.929382,0.285095
1470242554518188,-0.0404663,0.230774,-0.929443,0.285034
1470242554539225,-0.0402222,0.230408,-0.929565,0.285095
1470242554555687,-0.0402222,0.230408,-0.929565,0.285095
1470242554578204,-0.0402222,0.230408,-0.929565,0.285095
1470242554599276,-0.0402832,0.230408,-0.929565,0.285034
1470242554615738,-0.0402832,0.230408,-0.929565,0.285034
1470242554638286,-0.0403442,0.230408,-0.929565,0.285034
1470242554659338,-0.0403442,0.230408,-0.929565,0.285034
1470242554675798,-0.0402832,0.230408,-0.929565,0.285034
1470242554698332,-0.0402832,0.230408,-0.929565,0.285034
1470242554726881,-0.0402832,0.230347,-0.929565,0.285034
1470242554735846,-0.0403442,0.230347,-0.929565,0.285034
1470242554758366,-0.0403442,0.230408,-0.929565,0.285034
1470242554779385,-0.0404663,0.230591,-0.929504,0.284973
1470242554795900,-0.0405273,0.230591,-0.929504,0.284973
1470242554817921,-0.0405273,0.230591,-0.929504,0.284973
1470242554840440,-0.0405273,0.23053,-0.929504,0.284973
1470242554855453,-0.0405273,0.23053,-0.929504,0.284973
1470242554877974,-0.0405273,0.230591,-0.929504,0.284973
1470242554900496,-0.0405273,0.230591,-0.929504,0.284973
1470242554915519,-0.0405884,0.230591,-0.929504,0.284973
1470242554938067,-0.0405884,0.230591,-0.929504,0.284973
1470242554960548,-0.0405884,0.230591,-0.929504,0.284973
1470242554976079,-0.0405884,0.23053,-0.929504,0.284973
1470242554998081,-0.0405884,0.23053,-0.929504,0.284973
1470242555020603,-0.0405884,0.23053,-0.929504,0.284973
1470242555035116,-0.0405884,0.23053,-0.929565,0.284973
1470242555065651,-0.0406494,0.23053,-0.929565,0.284973
1470242555080658,-0.0406494,0.23053,-0.929565,0.284973
1470242555095169,-0.0406494,0.23053,-0.929565,0.284973
1470242555118189,-0.0406494,0.23053,-0.929565,0.284912
1470242555141209,-0.0406494,0.23053,-0.929565,0.284973
1470242555155222,-0.0406494,0.23053,-0.929565,0.284973
1470242555184250,-0.0406494,0.23053,-0.929565,0.284912
1470242555200763,-0.0406494,0.23053,-0.929565,0.284912
1470242555215280,-0.0407104,0.23053,-0.929565,0.284912
1470242555238297,-0.0407104,0.23053,-0.929565,0.284912
1470242555260818,-0.0407104,0.23053,-0.929565,0.284912
1470242555274830,-0.0407104,0.23053,-0.929565,0.284912
1470242555298363,-0.0407104,0.230469,-0.929565,0.284912
1470242555320896,-0.0407104,0.230469,-0.929565,0.284912
1470242555334886,-0.0407104,0.230469,-0.929565,0.284912
1470242555358431,-0.0407104,0.230469,-0.929565,0.284912
1470242555380429,-0.0407104,0.230469,-0.929565,0.284912
1470242555401944,-0.0407104,0.230408,-0.929565,0.284912
1470242555417959,-0.0407104,0.230469,-0.929565,0.284912
1470242555440479,-0.0407715,0.230408,-0.929565,0.284912
1470242555461553,-0.0407715,0.230408,-0.929565,0.284912
1470242555478019,-0.0407715,0.230408,-0.929565,0.284912
1470242555500533,-0.0407715,0.230408,-0.929565,0.284912
1470242555521564,-0.0407715,0.230408,-0.929565,0.284912
1470242555544105,-0.0407715,0.230408,-0.929565,0.284912
1470242555560589,-0.0408325,0.230408,-0.929565,0.284912
1470242555582682,-0.0407715,0.230408,-0.929565,0.284912
1470242555598124,-0.0407715,0.230347,-0.929565,0.284912
1470242555620682,-0.0407715,0.230347,-0.929565,0.284912
1470242555641715,-0.0407715,0.230347,-0.929565,0.284912
1470242555658215,-0.0408325,0.230347,-0.929565,0.284912
1470242555680726,-0.0408325,0.230286,-0.929626,0.284912
1470242555701713,-0.0408325,0.230286,-0.929626,0.284912
1470242555718231,-0.0408325,0.230286,-0.929626,0.284912
1470242555740749,-0.0408325,0.230225,-0.929626,0.284912
1470242555761831,-0.0408325,0.230225,-0.929626,0.284912
1470242555777781,-0.0408325,0.230225,-0.929626,0.284912
1470242555800802,-0.0408325,0.230225,-0.929626,0.284912
1470242555823339,-0.0408325,0.230225,-0.929626,0.284912
1470242555838335,-0.0408325,0.230469,-0.929504,0.285034
1470242555843340,-0.0408936,0.230408,-0.929504,0.285034
1470242555865876,-0.0408936,0.230408,-0.929504,0.285034
1470242555888897,-0.0408936,0.230408,-0.929504,0.285034
1470242555903402,-0.0408936,0.230408,-0.929504,0.285034
1470242555926442,-0.0408936,0.230408,-0.929565,0.285034
1470242555948964,-0.0408936,0.230408,-0.929565,0.285034
1470242555963453,-0.0408936,0.230408,-0.929565,0.285034
1470242555986014,-0.0408936,0.230347,-0.929565,0.285034
1470242556008522,-0.0408936,0.230347,-0.929565,0.285034
1470242556023546,-0.0408936,0.230347,-0.929565,0.285034
1470242556046078,-0.0408936,0.230347,-0.929565,0.285034
1470242556068553,-0.0408936,0.230286,-0.929565,0.285034
1470242556083556,-0.0408936,0.230286,-0.929565,0.285034
1470242556106082,-0.0408936,0.230347,-0.929565,0.285034
1470242556128596,-0.0409546,0.230286,-0.929565,0.285034
1470242556143639,-0.0409546,0.230347,-0.929565,0.285034
1470242556166144,-0.0409546,0.230286,-0.929565,0.285034
1470242556188716,-0.0409546,0.230286,-0.929565,0.285034
1470242556203697,-0.0409546,0.230286,-0.929565,0.285034
1470242556226240,-0.0409546,0.230286,-0.929565,0.285034
1470242556248705,-0.0409546,0.230286,-0.929565,0.285034
1470242556266720,-0.0409546,0.230286,-0.929565,0.285034
1470242556286239,-0.0409546,0.230225,-0.929565,0.285034
1470242556308758,-0.0409546,0.230225,-0.929565,0.285034
1470242556323772,-0.0409546,0.230225,-0.929565,0.285034
1470242556348795,-0.0409546,0.230164,-0.929565,0.285034
1470242556368812,-0.0409546,0.230164,-0.929565,0.285034
1470242556383825,-0.0409546,0.230164,-0.929565,0.285034
1470242556406346,-0.0409546,0.230164,-0.929565,0.285034
1470242556428958,-0.0409546,0.230164,-0.929626,0.285034
1470242556444880,-0.0409546,0.230103,-0.929626,0.285034
1470242556465932,-0.0409546,0.230103,-0.929626,0.285034
1470242556488470,-0.0409546,0.230103,-0.929626,0.285034
1470242556506938,-0.0409546,0.230103,-0.929626,0.285034
1470242556525982,-0.0409546,0.230103,-0.929626,0.285034
1470242556548475,-0.0409546,0.230042,-0.929626,0.285034
1470242556564988,-0.0409546,0.230042,-0.929626,0.285034
1470242556586009,-0.0409546,0.230042,-0.929626,0.285034
1470242556608583,-0.0409546,0.230042,-0.929626,0.285034
1470242556626544,-0.0409546,0.230042,-0.929626,0.285034
1470242556646085,-0.0409546,0.230042,-0.929626,0.285034
1470242556668616,-0.0409546,0.230042,-0.929626,0.285034
1470242556685116,-0.0409546,0.230042,-0.929626,0.285034
1470242556706122,-0.0409546,0.22998,-0.929626,0.285034
1470242556728697,-0.0409546,0.230042,-0.929626,0.285034
1470242556745242,-0.0409546,0.22998,-0.929626,0.285034
1470242556766170,-0.0409546,0.22998,-0.929626,0.285034
1470242556788689,-0.0409546,0.22998,-0.929626,0.285034
1470242556814212,-0.0409546,0.22998,-0.929626,0.285034
1470242556826233,-0.0409546,0.22998,-0.929626,0.285034
1470242556848743,-0.0409546,0.22998,-0.929626,0.285034
1470242556866761,-0.0409546,0.22998,-0.929626,0.285034
1470242556893784,-0.0409546,0.22998,-0.929626,0.285034
1470242556908797,-0.0409546,0.22998,-0.929626,0.285034
1470242556932320,-0.0410156,0.229919,-0.929626,0.285034
1470242556946336,-0.0409546,0.229919,-0.929626,0.285034
1470242556968851,-0.0409546,0.229919,-0.929626,0.285034
1470242556986401,-0.0409546,0.229919,-0.929626,0.285034
1470242557005885,-0.0409546,0.229858,-0.929688,0.285034
1470242557028449,-0.0410156,0.229858,-0.929688,0.285034
1470242557046450,-0.0409546,0.229858,-0.929688,0.285034
1470242557065973,-0.0409546,0.229858,-0.929688,0.285034
1470242557088501,-0.0409546,0.229858,-0.929688,0.285034
1470242557106517,-0.0410156,0.229858,-0.929688,0.285034
1470242557126025,-0.0409546,0.229858,-0.929688,0.285034
1470242557148539,-0.0410156,0.229858,-0.929688,0.285034
1470242557166561,-0.0409546,0.229858,-0.929688,0.285034
1470242557186051,-0.0410156,0.229858,-0.929688,0.285034
1470242557210070,-0.0410156,0.229858,-0.929688,0.285034
1470242557226600,-0.0410156,0.229797,-0.929688,0.285034
1470242557246119,-0.0410156,0.229797,-0.929688,0.285034
1470242557268620,-0.0410156,0.229797,-0.929688,0.285034
1470242557286736,-0.0410156,0.229736,-0.929688,0.285034
1470242557306223,-0.0410156,0.229736,-0.929688,0.285034
1470242557328715,-0.0411377,0.22998,-0.929626,0.285034
1470242557346699,-0.0412598,0.230286,-0.929504,0.285156
1470242557369227,-0.0412598,0.230286,-0.929504,0.285156
1470242557388728,-0.0412598,0.230225,-0.929504,0.285156
1470242557406744,-0.0411987,0.230225,-0.929504,0.285156
1470242557427263,-0.0411987,0.230225,-0.929504,0.285156
1470242557459292,-0.0413208,0.230469,-0.929443,0.285156
1470242557466798,-0.0413818,0.230469,-0.929443,0.285156
1470242557487356,-0.0413818,0.230408,-0.929443,0.285156
1470242557508388,-0.0413208,0.230408,-0.929443,0.285156
1470242557526351,-0.0413208,0.230408,-0.929443,0.285156
1470242557547373,-0.0413208,0.230408,-0.929504,0.285156
1470242557568416,-0.0413208,0.230408,-0.929504,0.285156
1470242557586943,-0.0411987,0.22998,-0.929565,0.285156
1470242557607424,-0.0411987,0.229919,-0.929565,0.285156
1470242557628456,-0.0411987,0.229919,-0.929565,0.285156
1470242557646460,-0.0410767,0.230042,-0.929565,0.285156
1470242557667479,-0.0411377,0.230042,-0.929565,0.285095
1470242557688532,-0.0408936,0.229858,-0.929688,0.285034
1470242557706554,-0.0406494,0.229675,-0.929749,0.284973
1470242557729089,-0.0406494,0.229675,-0.929749,0.284973
1470242557748567,-0.0407104,0.229858,-0.929688,0.284912
1470242557767068,-0.0407104,0.229858,-0.929688,0.284912
1470242557789132,-0.0407715,0.229858,-0.929688,0.284851
1470242557808640,-0.0404053,0.229492,-0.92981,0.284973
1470242557826666,-0.0404053,0.229431,-0.92981,0.284973
1470242557849142,-0.0406494,0.229553,-0.92981,0.28479
1470242557868659,-0.0406494,0.229614,-0.92981,0.28479
1470242557886675,-0.0404053,0.229309,-0.929932,0.284668
1470242557909226,-0.0402222,0.229004,-0.930054,0.284546
1470242557928713,-0.0400391,0.228943,-0.930115,0.284424
1470242557946730,-0.0400391,0.228943,-0.930115,0.284424
1470242557969249,-0.0400391,0.229126,-0.930115,0.284241
1470242557988767,-0.0401001,0.229492,-0.929993,0.284302
1470242558006783,-0.0401611,0.229675,-0.929993,0.284241
1470242558029303,-0.0403442,0.229797,-0.929932,0.284241
1470242558048827,-0.0406494,0.229919,-0.929932,0.284241
1470242558066338,-0.0407104,0.230042,-0.92981,0.284424
1470242558088870,-0.0408936,0.230225,-0.929749,0.284546
1470242558108875,-0.0411377,0.23053,-0.929626,0.284546
1470242558126390,-0.0411377,0.23053,-0.929626,0.284546
1470242558148913,-0.0411987,0.23053,-0.929626,0.284546
1470242558168928,-0.0411377,0.230164,-0.929688,0.284607
1470242558186476,-0.0411377,0.230103,-0.929749,0.284607
1470242558208970,-0.0411377,0.230103,-0.929749,0.284607
1470242558228526,-0.0411377,0.230103,-0.929749,0.284607
1470242558246593,-0.0411377,0.230103,-0.929749,0.284607
1470242558268023,-0.0411377,0.230103,-0.929749,0.284607
1470242558289537,-0.0411377,0.230042,-0.929749,0.284607
1470242558305552,-0.0411377,0.230042,-0.929749,0.284607
1470242558328071,-0.0411377,0.230042,-0.929749,0.284607
1470242558349664,-0.0411377,0.230042,-0.929749,0.284607
1470242558365606,-0.0411377,0.22998,-0.929749,0.284607
1470242558388125,-0.0411377,0.22998,-0.929749,0.284607
1470242558409144,-0.0411377,0.22998,-0.929749,0.284607
1470242558425661,-0.0411377,0.22998,-0.929749,0.284607
1470242558448180,-0.0410767,0.229919,-0.929749,0.284607
1470242558469198,-0.0411377,0.229919,-0.929749,0.284607
1470242558485715,-0.0411377,0.229919,-0.929749,0.284607
1470242558508233,-0.0411377,0.229858,-0.92981,0.284607
1470242558529265,-0.0411377,0.229858,-0.92981,0.284607
1470242558545770,-0.0411377,0.229797,-0.92981,0.284607
1470242558568287,-0.0410767,0.229919,-0.92981,0.284546
1470242558589347,-0.0410767,0.229858,-0.92981,0.284546
1470242558605820,-0.0410767,0.229858,-0.92981,0.284546
1470242558628341,-0.0410767,0.229858,-0.92981,0.284546
1470242558649415,-0.0410767,0.229797,-0.92981,0.284546
1470242558665875,-0.0410767,0.229797,-0.92981,0.284546
1470242558687901,-0.0410767,0.229797,-0.92981,0.284546
1470242558710915,-0.0410767,0.229736,-0.92981,0.284546
1470242558725928,-0.0410767,0.229736,-0.92981,0.284546
1470242558755955,-0.0410767,0.229736,-0.92981,0.284546
1470242558770969,-0.0410767,0.229675,-0.929871,0.284546
1470242558785483,-0.0410767,0.229614,-0.929871,0.284546
1470242558808010,-0.0410767,0.229614,-0.929871,0.284546
1470242558831023,-0.0410767,0.229614,-0.929871,0.284546
1470242558845536,-0.0410767,0.229614,-0.929871,0.284546
1470242558874690,-0.0410767,0.229553,-0.929871,0.284546
1470242558890578,-0.0410767,0.229553,-0.929871,0.284546
1470242558905092,-0.0410767,0.229553,-0.929871,0.284546
1470242558928111,-0.0410767,0.229492,-0.929871,0.284607
1470242558950631,-0.0410767,0.229492,-0.929871,0.284607
1470242558965146,-0.0410767,0.229492,-0.929871,0.284607
1470242558988164,-0.0410767,0.229431,-0.929871,0.284607
1470242559010685,-0.0410767,0.229431,-0.929871,0.284607
1470242559025199,-0.0411377,0.229492,-0.929871,0.284607
1470242559048218,-0.0411987,0.229492,-0.929871,0.284607
1470242559070739,-0.0411987,0.229492,-0.929871,0.284607
1470242559085256,-0.0411987,0.229492,-0.929871,0.284607
1470242559108273,-0.0411987,0.229431,-0.929871,0.284607
1470242559130793,-0.0411987,0.229431,-0.929871,0.284607
1470242559151813,-0.0411987,0.22937,-0.929932,0.284607
1470242559168326,-0.0411987,0.22937,-0.929932,0.284607
1470242559196879,-0.0411987,0.22937,-0.929932,0.284607
1470242559211895,-0.0411987,0.22937,-0.929932,0.284607
1470242559227891,-0.0411987,0.229309,-0.929932,0.284607
1470242559250973,-0.0411987,0.229309,-0.929932,0.284607
1470242559271953,-0.0411987,0.229309,-0.929932,0.284607
1470242559288434,-0.0411987,0.229248,-0.929932,0.284607
1470242559310955,-0.0411987,0.229248,-0.929932,0.284607
1470242559331972,-0.0412598,0.229248,-0.929932,0.284607
1470242559348487,-0.0412598,0.229248,-0.929932,0.284607
1470242559370527,-0.0412598,0.229248,-0.929932,0.284607
1470242559392044,-0.0412598,0.229248,-0.929932,0.284607
1470242559408074,-0.0412598,0.229248,-0.929932,0.284607
1470242559430564,-0.0413208,0.229248,-0.929932,0.284546
1470242559452080,-0.0412598,0.229187,-0.929932,0.284607
1470242559475602,-0.0412598,0.229187,-0.929932,0.284607
1470242559490633,-0.0412598,0.229187,-0.929932,0.284607
1470242559511693,-0.0412598,0.229126,-0.929993,0.284607
1470242559528150,-0.0413208,0.229126,-0.929993,0.284546
1470242559550673,-0.0413208,0.229126,-0.929993,0.284546
1470242559571688,-0.0413818,0.229126,-0.929993,0.284546
1470242559588203,-0.0413818,0.229065,-0.929993,0.284546
1470242559610744,-0.0413818,0.229065,-0.929993,0.284546
1470242559633244,-0.0413818,0.229065,-0.929993,0.284546
1470242559648259,-0.0413818,0.229065,-0.929993,0.284546
1470242559670777,-0.0414429,0.229065,-0.929993,0.284546
1470242559693297,-0.0414429,0.229065,-0.929993,0.284546
1470242559708313,-0.0414429,0.229004,-0.929993,0.284546
1470242559730830,-0.0414429,0.229004,-0.929993,0.284546
1470242559753392,-0.0414429,0.229004,-0.929993,0.284546
1470242559768367,-0.0414429,0.229004,-0.929993,0.284546
1470242559790885,-0.0415039,0.229004,-0.929993,0.284546
1470242559812905,-0.0415039,0.229004,-0.929993,0.284546
1470242559827417,-0.0415039,0.229004,-0.929993,0.284546
1470242559850439,-0.0415039,0.229004,-0.929993,0.284546
1470242559873460,-0.0415039,0.229004,-0.929993,0.284546
1470242559887471,-0.0415039,0.228943,-0.929993,0.284546
1470242559916998,-0.0415039,0.228943,-0.929993,0.284546
1470242559933512,-0.0415039,0.228943,-0.929993,0.284546
1470242559947527,-0.0415039,0.228943,-0.929993,0.284546
1470242559970570,-0.0415649,0.228943,-0.929993,0.284546
1470242559993067,-0.0415649,0.228943,-0.929993,0.284546
1470242560007579,-0.0415649,0.228943,-0.929993,0.284546
1470242560030600,-0.0415649,0.228943,-0.930054,0.284546
1470242560053121,-0.0415649,0.228882,-0.930054,0.284546
1470242560067634,-0.0415649,0.228882,-0.930054,0.284485
1470242560090654,-0.0415649,0.228882,-0.930054,0.284485
1470242560113176,-0.041626,0.228882,-0.930054,0.284485
1470242560134225,-0.041626,0.228882,-0.930054,0.284485
1470242560150708,-0.041626,0.228882,-0.930054,0.284485
1470242560173232,-0.041626,0.228882,-0.930054,0.284485
