timestamp,roll,pitch,yaw
1472092257631649,-0.113722,-0.0294477,2.27351
1472092257653683,-0.11361,-0.0293963,2.2735
1472092257677722,-0.11361,-0.0293963,2.2735
1472092257692747,-0.11361,-0.0293963,2.2735
1472092257714274,-0.11361,-0.0293963,2.2735
1472092257737796,-0.112956,-0.0293524,2.27367
1472092257791845,-0.112185,-0.0292654,2.27362
1472092257792845,-0.111581,-0.0291042,2.27385
1472092257793346,-0.111581,-0.0291042,2.27385
1472092257804856,-0.111581,-0.0291042,2.27385
1472092257819369,-0.111581,-0.0291042,2.27385
1472092257843391,-0.111581,-0.0291042,2.27385
1472092257866412,-0.111581,-0.0291042,2.27385
1472092257901444,-0.111632,-0.0289936,2.27385
1472092257911453,-0.111632,-0.0289936,2.27385
1472092257924464,-0.111632,-0.0289936,2.27385
1472092257947485,-0.111572,-0.0288317,2.27383
1472092257961998,-0.111572,-0.0288317,2.27383
1472092257986029,-0.111409,-0.0288909,2.27383
1472092258007061,-0.111461,-0.0287803,2.27382
1472092258023592,-0.111461,-0.0287803,2.27382
1472092258046138,-0.111461,-0.0287803,2.27382
1472092258067169,-0.111349,-0.028729,2.27381
1472092258083696,-0.1114,-0.0286184,2.27381
1472092258106227,-0.111407,-0.0286172,2.27394
1472092258127283,-0.111407,-0.0286172,2.27394
1472092258143305,-0.111296,-0.0285658,2.27393
1472092258165837,-0.111296,-0.0285658,2.27393
1472092258187356,-0.111296,-0.0285658,2.27393
1472092258203370,-0.111347,-0.0284552,2.27393
1472092258225891,-0.111347,-0.0284552,2.27393
1472092258247410,-0.111236,-0.0284039,2.27392
1472092258263425,-0.111236,-0.0284039,2.27392
1472092258285945,-0.111287,-0.0282933,2.27392
1472092258307465,-0.111287,-0.0282933,2.27392
1472092258323479,-0.111287,-0.0282933,2.27392
1472092258345999,-0.111227,-0.0281314,2.2739
1472092258367018,-0.111227,-0.0281314,2.2739
1472092258383533,-0.111227,-0.0281314,2.2739
1472092258406053,-0.111278,-0.0280208,2.2739
1472092258427073,-0.111278,-0.0280208,2.2739
1472092258443588,-0.111278,-0.0280208,2.2739
1472092258466108,-0.11133,-0.0279103,2.27389
1472092258487127,-0.111218,-0.0278589,2.27388
1472092258503643,-0.111218,-0.0278589,2.27388
1472092258526162,-0.111218,-0.0278589,2.27388
1472092258547181,-0.111107,-0.0278076,2.27387
1472092258563696,-0.111158,-0.027697,2.27387
1472092258586216,-0.111158,-0.027697,2.27387
1472092258607236,-0.111158,-0.027697,2.27387
1472092258623751,-0.111047,-0.0276457,2.27386
1472092258645781,-0.111098,-0.0275351,2.27385
1472092258667324,-0.111098,-0.0275351,2.27385
1472092258683851,-0.111098,-0.0275351,2.27385
1472092258705898,-0.111038,-0.0273732,2.27384
1472092258728419,-0.111038,-0.0273732,2.27384
1472092258743460,-0.110926,-0.0273219,2.27383
1472092258765990,-0.110926,-0.0273219,2.27383
1472092258788771,-0.110815,-0.0272705,2.27382
1472092258803768,-0.110815,-0.0272705,2.27382
1472092258825805,-0.110866,-0.02716,2.27382
1472092258848564,-0.110866,-0.02716,2.27382
1472092258862576,-0.110866,-0.02716,2.27382
1472092258899481,-0.110434,-0.0272122,2.27408
1472092258908501,-0.109898,-0.0274857,2.27434
1472092258931030,-0.109526,-0.0277,2.27462
1472092258959590,-0.109433,-0.0278984,2.27511
1472092258968614,-0.109172,-0.0281642,2.27539
1472092258991148,-0.109223,-0.0280536,2.27539
1472092259012190,-0.109223,-0.0280536,2.27539
1472092259028705,-0.109223,-0.0280536,2.27539
1472092259051242,-0.109223,-0.0280536,2.27539
1472092259072275,-0.109223,-0.0280536,2.27539
1472092259088811,-0.109112,-0.0280023,2.27538
1472092259110848,-0.109163,-0.0278917,2.27537
1472092259132367,-0.109052,-0.0278405,2.27536
1472092259148400,-0.109052,-0.0278405,2.27536
1472092259171430,-0.10894,-0.0277892,2.27536
1472092259193475,-0.108992,-0.0276786,2.27535
1472092259207989,-0.108992,-0.0276786,2.27535
1472092259231023,-0.108992,-0.0276786,2.27535
1472092259253552,-0.109042,-0.0275612,2.27542
1472092259268575,-0.109093,-0.0274506,2.27541
1472092259291114,-0.109093,-0.0274506,2.27541
1472092259313329,-0.108981,-0.0273993,2.2754
1472092259328844,-0.108981,-0.0273993,2.2754
1472092259350890,-0.109374,-0.0274412,2.27556
1472092259373739,-0.109262,-0.0273899,2.27555
1472092259387809,-0.109262,-0.0273899,2.27555
1472092259411190,-0.109313,-0.0272793,2.27555
1472092259433732,-0.109313,-0.0272793,2.27555
1472092259447733,-0.109313,-0.0272793,2.27555
1472092259471279,-0.109365,-0.0271687,2.27555
1472092259493411,-0.109252,-0.0271107,2.27561
1472092259507943,-0.109252,-0.0271107,2.27561
1472092259530999,-0.109252,-0.0271107,2.27561
1472092259553225,-0.10914,-0.0270594,2.2756
1472092259567867,-0.10914,-0.0270594,2.2756
1472092259590948,-0.109192,-0.0269488,2.27559
1472092259613764,-0.10908,-0.0268976,2.27558
1472092259628132,-0.10908,-0.0268976,2.27558
1472092259651081,-0.10908,-0.0268976,2.27558
1472092259673618,-0.10908,-0.0268976,2.27558
1472092259694676,-0.108039,-0.026805,2.2758
1472092259711205,-0.106298,-0.0267729,2.2764
1472092259733305,-0.104788,-0.0268159,2.27758
1472092259754825,-0.102664,-0.0264233,2.27905
1472092259770901,-0.103666,-0.0274135,2.28154
1472092259793491,-0.106909,-0.0296561,2.28461
1472092259814658,-0.109746,-0.0322087,2.28818
1472092259831126,-0.109219,-0.0351025,2.29179
1472092259853710,-0.108413,-0.0389173,2.29567
1472092259874858,-0.109511,-0.0433201,2.29951
1472092259890965,-0.108089,-0.0461834,2.30331
1472092259913563,-0.104096,-0.0470462,2.30812
1472092259934607,-0.101161,-0.0473381,2.31263
1472092259949725,-0.102195,-0.0468167,2.31764
1472092259973924,-0.103906,-0.045033,2.32411
1472092259994707,-0.102444,-0.0422319,2.33132
1472092260010673,-0.0990394,-0.0386571,2.34032
1472092260033696,-0.0960544,-0.034645,2.35154
1472092260054557,-0.093565,-0.0299866,2.36486
1472092260070579,-0.0899434,-0.0247493,2.37921
1472092260093672,-0.0859706,-0.019242,2.39529
1472092260114695,-0.080683,-0.0139119,2.41304
1472092260130209,-0.0749739,-0.00848002,2.43269
1472092260154088,-0.0691741,-0.00311492,2.45383
1472092260176375,-0.0631465,0.00181329,2.47598
1472092260190397,-0.0569019,0.00629036,2.49927
1472092260213343,-0.0504465,0.0102965,2.52352
1472092260236231,-0.0438773,0.0132897,2.54926
1472092260250250,-0.036672,0.0155399,2.57639
1472092260273904,-0.028489,0.0166062,2.60526
1472092260296048,-0.0200576,0.0166305,2.63589
1472092260317385,-0.0106238,0.015392,2.66765
1472092260333810,-0.000753152,0.0128413,2.70034
1472092260355920,0.00841588,0.00934127,2.7342
1472092260377105,0.0177981,0.00508937,2.76945
1472092260393859,0.0267324,-0.000656582,2.80483
1472092260415987,0.0352563,-0.00772545,2.8396
1472092260438705,0.041167,-0.0156117,2.87216
1472092260453828,0.0449604,-0.0232647,2.90309
1472092260475968,0.0483268,-0.0314233,2.93381
1472092260497114,0.05267,-0.0407884,2.96377
1472092260513416,0.055983,-0.0509189,2.99209
1472092260535981,0.0564745,-0.0607692,3.01883
1472092260557239,0.0571116,-0.0695889,3.04339
1472092260573752,0.0585598,-0.0769803,3.06549
1472092260596106,0.0606561,-0.0834743,3.08539
1472092260617206,0.0631588,-0.0902674,3.10181
1472092260633269,0.0658225,-0.0952802,3.11473
1472092260656076,0.068603,-0.0981184,3.12367
1472092260677368,0.0711588,-0.0985268,3.12891
1472092260693379,0.0725414,-0.0960037,3.13028
1472092260716119,0.0732338,-0.0905255,3.12764
1472092260737118,0.0735279,-0.0797678,3.12105
1472092260753704,0.0746663,-0.0638373,3.11036
1472092260776271,0.0762011,-0.0417593,3.09588
1472092260797436,0.0782214,-0.0122166,3.07586
1472092260812995,0.080259,0.0278818,3.0503
1472092260836025,0.0839444,0.0753538,3.02069
1472092260857170,0.0873836,0.129076,2.98605
1472092260873742,0.0887669,0.18871,2.94577
1472092260896398,0.0867018,0.254018,2.90107
1472092260917197,0.0799132,0.323047,2.85367
1472092260933156,0.0694531,0.394977,2.80503
1472092260956082,0.0563102,0.463173,2.75702
1472092260977258,0.0440248,0.527817,2.71096
1472092260992823,0.0314078,0.587708,2.66644
1472092261015915,0.0225421,0.640188,2.62547
1472092261037355,0.0152623,0.682474,2.58785
1472092261052897,0.00941165,0.713744,2.5553
1472092261076209,0.0104552,0.734012,2.53502
1472092261098771,0.0256282,0.73544,2.53351
1472092261112842,0.0561862,0.714505,2.55482
1472092261136045,0.106085,0.670584,2.59615
1472092261158123,0.16425,0.606151,2.64822
1472092261173017,0.221089,0.523726,2.70523
1472092261196077,0.268054,0.427429,2.76322
1472092261218727,0.300413,0.321687,2.82031
1472092261239787,0.321017,0.214392,2.87419
1472092261256231,0.330174,0.116587,2.91884
1472092261278850,0.337594,0.0328373,2.95452
1472092261299905,0.34673,-0.0371715,2.98645
1472092261316244,0.34379,-0.0917045,3.01683
1472092261338407,0.319467,-0.133704,3.04489
1472092261359687,0.286128,-0.164564,3.06856
1472092261376191,0.255212,-0.184204,3.08872
1472092261398849,0.231385,-0.19479,3.1048
1472092261419736,0.215788,-0.198597,3.11618
1472092261436253,0.20429,-0.200412,3.12776
1472092261458953,0.189814,-0.201842,3.14068
1472092261479607,0.174448,-0.202256,-3.13064
1472092261496314,0.166691,-0.201602,-3.12094
1472092261518450,0.165941,-0.20036,-3.11214
1472092261539959,0.165795,-0.199431,-3.10429
1472092261556010,0.16144,-0.200785,-3.09535
1472092261578426,0.152556,-0.204365,-3.0871
1472092261601630,0.144986,-0.20832,-3.08009
1472092261615155,0.141498,-0.212527,-3.07472
1472092261638458,0.14382,-0.217453,-3.07111
1472092261660068,0.149008,-0.224578,-3.06958
1472092261676117,0.15521,-0.234417,-3.07012
1472092261698719,0.162316,-0.240445,-3.07412
1472092261719904,0.173516,-0.236679,-3.08575
1472092261736419,0.202429,-0.224193,-3.11087
1472092261758640,0.251056,-0.188578,3.13614
1472092261779861,0.31137,-0.129288,3.08573
1472092261795949,0.375147,-0.0471901,3.02109
1472092261818618,0.435972,0.0507742,2.94583
1472092261838643,0.486508,0.15985,2.86834
1472092261855638,0.524064,0.275757,2.78367
1472092261878912,0.550662,0.398468,2.69201
1472092261899916,0.559564,0.533568,2.59507
1472092261915515,0.540198,0.677424,2.48663
1472092261938566,0.481627,0.816678,2.36385
1472092261959824,0.355293,0.937802,2.20992
1472092261976898,0.161409,1.03156,2.00931
1472092261998422,-0.0767057,1.09222,1.78021
1472092262027351,-0.319634,1.12875,1.56112
1472092262042391,-0.541634,1.14887,1.36945
1472092262058740,-0.716382,1.1566,1.23136
1472092262081275,-0.848169,1.16387,1.12808
1472092262095300,-0.918878,1.16841,1.05853
1472092262118481,-0.960274,1.19054,0.991341
1472092262142509,-0.929617,1.21783,0.980298
1472092262162586,-0.84802,1.24677,1.01522
1472092262178656,-0.729651,1.27044,1.09237
1472092262200898,-0.577442,1.28451,1.21666
1472092262223882,-0.378859,1.28478,1.39529
1472092262238395,-0.139309,1.25648,1.61334
1472092262261041,0.088434,1.18216,1.82345
1472092262291635,0.254889,1.07978,1.98797
1472092262298682,0.352629,0.948411,2.10686
1472092262321180,0.449563,0.78727,2.22247
1472092262342231,0.548907,0.607624,2.33928
1472092262358826,0.617816,0.422298,2.44887
1472092262381387,0.634177,0.253444,2.55078
1472092262402726,0.610998,0.109594,2.65608
1472092262417765,0.565596,-0.00401774,2.764
1472092262441181,0.508368,-0.0762364,2.86103
1472092262462375,0.438908,-0.122636,2.95288
1472092262478401,0.355792,-0.150447,3.04294
1472092262500945,0.267568,-0.163051,3.12627
1472092262522572,0.193094,-0.165893,-3.09357
1472092262538529,0.142272,-0.160722,-3.05259
1472092262561186,0.101999,-0.158019,-3.01444
1472092262583806,0.0787068,-0.151623,-2.97448
1472092262598384,0.0671425,-0.147484,-2.9366
1472092262620929,0.0631084,-0.151897,-2.9109
1472092262642383,0.0643746,-0.154423,-2.89512
1472092262658949,0.0689104,-0.158841,-2.88372
1472092262680948,0.0679689,-0.164152,-2.8755
1472092262702386,0.0583818,-0.169443,-2.8711
1472092262718915,0.0464382,-0.176102,-2.87062
1472092262741260,0.0350723,-0.183462,-2.8736
1472092262762227,0.0261905,-0.189903,-2.87912
1472092262778033,0.026155,-0.184676,-2.89025
1472092262801238,0.0420971,-0.182098,-2.90331
1472092262822318,0.0564108,-0.18607,-2.92203
1472092262837887,0.0693505,-0.193964,-2.9466
1472092262861419,0.093209,-0.185793,-2.98698
1472092262882722,0.130284,-0.168864,-3.04515
1472092262897834,0.165727,-0.143298,-3.12551
1472092262920967,0.201053,-0.100277,3.05417
1472092262942094,0.233151,-0.0425398,2.93684
1472092262957909,0.248023,0.0249641,2.80632
1472092262981173,0.246274,0.101428,2.6626
1472092263003447,0.234064,0.177943,2.5059
1472092263018505,0.21794,0.238359,2.33924
1472092263041029,0.18312,0.264662,2.1705
1472092263063714,0.116398,0.257157,2.00394
1472092263077863,0.00822997,0.239167,1.85366
1472092263101082,-0.0729659,0.238278,1.75205
1472092263123795,-0.139051,0.237055,1.68576
1472092263144815,-0.192515,0.238126,1.6507
1472092263161089,-0.220042,0.239136,1.64922
1472092263183792,-0.185509,0.246443,1.68543
1472092263204628,-0.133944,0.245521,1.74538
1472092263228492,-0.0850777,0.233735,1.82421
1472092263243505,-0.0456508,0.210809,1.91959
1472092263264623,-0.00744692,0.178222,2.02789
1472092263281004,0.0367229,0.135473,2.15112
1472092263303646,0.0692112,0.0862641,2.28719
1472092263324904,0.0891548,0.039837,2.42414
1472092263343421,0.106957,-0.00464688,2.56606
1472092263362938,0.123924,-0.0525149,2.7201
1472092263385067,0.131276,-0.0944269,2.86966
1472092263401695,0.144759,-0.116388,2.98513
1472092263423246,0.180726,-0.113334,3.05947
1472092263444680,0.229096,-0.0820993,3.09758
1472092263461224,0.274729,-0.0173909,3.09888
1472092263483775,0.307337,0.0735123,3.06136
1472092263504759,0.32041,0.184225,2.99265
1472092263521087,0.321591,0.308118,2.89839
1472092263545182,0.297111,0.431537,2.77669
1472092263564600,0.229884,0.545107,2.64394
1472092263580560,0.124075,0.652939,2.5067
1472092263603920,-0.00766656,0.758624,2.3635
1472092263624975,-0.15841,0.845755,2.19624
1472092263641568,-0.281174,0.899489,2.03919
1472092263665098,-0.323645,0.912461,1.95383
1472092263684758,-0.259313,0.904988,1.9776
1472092263701292,-0.119132,0.87128,2.09031
1472092263723875,0.0581828,0.801155,2.243
1472092263746385,0.22319,0.688489,2.39242
1472092263760408,0.353687,0.545197,2.52177
1472092263783817,0.447378,0.381895,2.63059
1472092263804928,0.505566,0.214247,2.72498
1472092263820800,0.545428,0.0451951,2.80839
1472092263843827,0.570639,-0.10389,2.8719
1472092263864924,0.599231,-0.201754,2.91558
1472092263880429,0.628431,-0.236438,2.93812
1472092263903811,0.636405,-0.213798,2.94563
1472092263924937,0.62673,-0.134696,2.93334
1472092263940483,0.608652,-0.016028,2.90078
1472092263963693,0.579335,0.123312,2.85138
1472092263986291,0.525127,0.266943,2.78421
1472092264000875,0.442207,0.399473,2.70075
1472092264023247,0.334171,0.52634,2.60441
1472092264046284,0.21469,0.638573,2.49118
1472092264060867,0.107393,0.722434,2.37509
1472092264083649,0.0395658,0.769482,2.2856
1472092264106227,0.0361998,0.77195,2.26315
1472092264127367,0.0843355,0.742146,2.30083
1472092264143841,0.15436,0.681816,2.36966
1472092264165183,0.23589,0.591425,2.44957
1472092264187190,0.308777,0.479681,2.52563
1472092264203727,0.36965,0.358172,2.59625
1472092264226327,0.413854,0.236394,2.66043
1472092264247357,0.447126,0.122634,2.71265
1472092264263716,0.470249,0.0284041,2.75078
1472092264286114,0.496851,-0.0396056,2.77875
1472092264307516,0.514488,-0.0845912,2.79803
1472092264323832,0.503794,-0.103362,2.80715
1472092264345907,0.470433,-0.0936274,2.80553
1472092264374929,0.434386,-0.0623556,2.79308
1472092264383504,0.402452,-0.0196418,2.76925
1472092264406253,0.36231,0.0268772,2.73689
1472092264427161,0.313527,0.0714759,2.70044
1472092264443735,0.258912,0.112302,2.66181
1472092264466355,0.206731,0.150085,2.62223
1472092264487144,0.164411,0.17872,2.58258
1472092264504322,0.138424,0.198828,2.55232
1472092264526380,0.127491,0.210947,2.53904
1472092264547514,0.121954,0.21041,2.53576
1472092264563659,0.114152,0.193889,2.53768
1472092264585945,0.109311,0.16762,2.53546
1472092264607218,0.113668,0.139626,2.53217
1472092264623782,0.128754,0.111595,2.53039
1472092264646301,0.146161,0.0854901,2.5299
1472092264667496,0.147413,0.0626055,2.52904
1472092264682990,0.128976,0.0440033,2.52595
1472092264706487,0.109694,0.0315679,2.51956
1472092264727307,0.0990245,0.0240826,2.51121
1472092264742767,0.0909886,0.0200563,2.50306
1472092264765926,0.079504,0.0182766,2.49799
1472092264787691,0.0674647,0.0172841,2.49974
1472092264803183,0.0589865,0.0148541,2.50767
1472092264825312,0.0566306,0.0121557,2.51606
1472092264847154,0.0614825,0.0125442,2.52472
1472092264869854,0.0701535,0.0137492,2.53558
1472092264885960,0.0774971,0.0146316,2.54821
1472092264908570,0.0807463,0.0146494,2.56213
1472092264923116,0.0788847,0.0156041,2.57481
1472092264946195,0.0740542,0.0172618,2.58411
1472092264968850,0.0704581,0.0182666,2.59077
1472092264982992,0.0688198,0.0182125,2.59686
1472092265006052,0.0677634,0.0174472,2.60285
1472092265028613,0.0642863,0.0157901,2.60836
1472092265049852,0.0593886,0.0133012,2.61273
1472092265066356,0.0552098,0.00952895,2.6165
1472092265088444,0.0524192,0.00528185,2.61961
1472092265109859,0.0482427,-0.000431612,2.6216
1472092265127007,0.041536,-0.00754064,2.62256
1472092265156140,0.0360171,-0.0134407,2.62344
1472092265169785,0.0336907,-0.0176201,2.62528
1472092265186251,0.0332889,-0.0205385,2.62775
1472092265208457,0.0326032,-0.0229029,2.63062
1472092265229975,0.0311108,-0.0245838,2.63301
1472092265246568,0.0308354,-0.0250492,2.6342
1472092265268864,0.0318662,-0.0241472,2.63391
1472092265282443,0.0323431,-0.0230003,2.63282
1472092265306371,0.0322828,-0.0212299,2.63133
1472092265328460,0.0316788,-0.0183325,2.62936
1472092265343719,0.0313639,-0.015101,2.627
1472092265366381,0.031249,-0.0116868,2.62444
1472092265388619,0.03118,-0.00800297,2.62169
1472092265409853,0.0303477,-0.00527743,2.61883
1472092265426035,0.0291546,-0.00265342,2.61627
1472092265448578,0.0280502,-0.000392929,2.61419
1472092265469798,0.0273899,0.00160447,2.61233
1472092265485994,0.0264684,0.00314957,2.61055
1472092265509010,0.025052,0.00418218,2.60856
1472092265529770,0.0234413,0.00452222,2.60687
1472092265546243,0.0221961,0.00444927,2.60557
1472092265568815,0.020717,0.00430987,2.60436
1472092265590038,0.0192825,0.00354662,2.60324
1472092265606124,0.0176784,0.00248027,2.60223
1472092265628315,0.0164938,0.0012706,2.60171
1472092265649890,0.0154273,9.19923e-05,2.6013
1472092265666082,0.014126,-0.0011522,2.60089
1472092265688727,0.0129751,-0.00248619,2.60118
1472092265709385,0.0117254,-0.00346829,2.60167
1472092265726474,0.0109002,-0.00370101,2.60256
1472092265748541,0.0104145,-0.00333567,2.60405
1472092265770015,0.0100143,-0.00282155,2.60594
1472092265786414,0.0089407,-0.00261881,2.60812
1472092265809001,0.00751323,-0.00251216,2.61091
1472092265830072,0.0059576,-0.00193402,2.61498
1472092265846475,0.00309785,-0.00119565,2.62067
1472092265868633,-0.00133559,0.000280552,2.62836
1472092265898503,-0.00576572,0.00330677,2.63817
1472092265905517,-0.0119666,0.00857736,2.65021
1472092265928686,-0.0187889,0.0157815,2.66429
1472092265951323,-0.0257815,0.0260632,2.68186
1472092265965453,-0.0323215,0.0394471,2.70244
1472092265988650,-0.0377162,0.0575679,2.72627
1472092266011144,-0.0408957,0.0811972,2.75281
1472092266032282,-0.0412449,0.109345,2.78233
1472092266048768,-0.0378554,0.142128,2.81479
1472092266071581,-0.0308452,0.17586,2.84994
1472092266092710,-0.0196715,0.211647,2.88898
1472092266108906,-0.0043814,0.246393,2.93118
1472092266131096,0.0122393,0.278618,2.9752
1472092266152231,0.0270925,0.307903,3.01883
1472092266168437,0.040757,0.334937,3.06536
1472092266191154,0.0581495,0.360029,3.11606
1472092266212550,0.0793963,0.38171,-3.1143
1472092266236171,0.101056,0.398802,-3.06228
1472092266251293,0.121269,0.411972,-3.01184
1472092266272508,0.140555,0.423836,-2.96372
1472092266288597,0.15948,0.43433,-2.91858
1472092266311248,0.178644,0.444064,-2.87533
1472092266332370,0.193115,0.450197,-2.83607
1472092266348843,0.205886,0.45569,-2.79914
1472092266371252,0.217728,0.461001,-2.76452
1472092266392409,0.227223,0.465438,-2.73487
1472092266408452,0.233944,0.46947,-2.71037
1472092266430524,0.237466,0.471765,-2.69003
1472092266452277,0.240054,0.473543,-2.67292
1472092266468842,0.240004,0.474614,-2.66069
1472092266491403,0.237053,0.474095,-2.65237
1472092266511888,0.232189,0.471869,-2.64743
1472092266528559,0.226139,0.468315,-2.64562
1472092266551123,0.219318,0.464468,-2.64532
1472092266572707,0.211909,0.460779,-2.64501
1472092266596186,0.207168,0.459253,-2.64221
1472092266611238,0.205829,0.459337,-2.63698
1472092266633121,0.204473,0.457066,-2.63126
1472092266647936,0.202412,0.453797,-2.62607
1472092266671518,0.200567,0.449641,-2.62208
1472092266692684,0.197284,0.445666,-2.62033
1472092266708166,0.193996,0.441178,-2.61897
1472092266731495,0.192616,0.438211,-2.61797
1472092266752568,0.191374,0.436924,-2.61731
1472092266768451,0.190344,0.436147,-2.61745
1472092266791087,0.189565,0.43569,-2.61747
1472092266821124,0.188241,0.434849,-2.61766
1472092266828628,0.186479,0.434028,-2.61865
1472092266851182,0.184332,0.433324,-2.62128
1472092266873570,0.183075,0.432926,-2.62334
1472092266889108,0.181864,0.432884,-2.62458
1472092266911062,0.181331,0.433409,-2.62522
1472092266933707,0.180506,0.4339,-2.626
1472092266947825,0.179059,0.434676,-2.627
1472092266971494,0.176458,0.435481,-2.62852
1472092266993705,0.174887,0.436433,-2.62924
1472092267007913,0.173568,0.437407,-2.62941
1472092267031383,0.172631,0.438407,-2.62909
1472092267053682,0.17252,0.439728,-2.62844
1472092267067832,0.172557,0.440751,-2.62838
1472092267091371,0.170922,0.44118,-2.62973
1472092267113575,0.169847,0.441861,-2.63068
1472092267127992,0.169285,0.443049,-2.63115
1472092267151096,0.168953,0.444327,-2.63137
1472092267173686,0.168368,0.44565,-2.63206
1472092267188641,0.168684,0.446493,-2.63225
1472092267211312,0.169277,0.447139,-2.63218
1472092267232967,0.168787,0.446993,-2.63289
1472092267247892,0.168752,0.446879,-2.63341
1472092267271064,0.168793,0.447007,-2.63341
1472092267293769,0.167774,0.446738,-2.63358
1472092267314909,0.167246,0.446598,-2.63346
1472092267331475,0.167075,0.446519,-2.63306
1472092267354070,0.166289,0.445896,-2.63287
1472092267375210,0.165046,0.445172,-2.63294
1472092267391369,0.164558,0.444648,-2.63279
1472092267413768,0.163172,0.443675,-2.6331
1472092267434705,0.162901,0.44308,-2.63249
1472092267451299,0.162696,0.44246,-2.63208
1472092267473852,0.162369,0.441884,-2.63222
1472092267502114,0.161916,0.441251,-2.63289
1472092267511133,0.160374,0.440194,-2.63374
1472092267533762,0.159529,0.439491,-2.63427
1472092267554711,0.158268,0.438271,-2.63494
1472092267571328,0.156946,0.436631,-2.6353
1472092267593565,0.155884,0.434962,-2.63571
1472092267614818,0.15554,0.433583,-2.6355
1472092267631495,0.154986,0.432424,-2.63543
1472092267653587,0.153702,0.431326,-2.6358
1472092267674656,0.152573,0.430165,-2.63594
1472092267690323,0.152146,0.429609,-2.63547
1472092267713942,0.152175,0.429726,-2.63495
1472092267736058,0.152175,0.429726,-2.63495
1472092267751101,0.152108,0.430023,-2.6356
1472092267773962,0.151862,0.431118,-2.63622
1472092267796305,0.152463,0.432294,-2.63722
1472092267811333,0.153084,0.433458,-2.63758
1472092267833913,0.154008,0.434396,-2.63747
1472092267856436,0.155665,0.435817,-2.63705
1472092267871479,0.15787,0.438269,-2.63658
1472092267893031,0.159125,0.440704,-2.63732
1472092267916223,0.160696,0.443076,-2.63779
1472092267930769,0.162504,0.445641,-2.63801
1472092267953841,0.163814,0.447948,-2.63842
1472092267976469,0.163531,0.449481,-2.6397
1472092267990520,0.162259,0.450721,-2.64147
1472092268013952,0.16341,0.453099,-2.64211
1472092268035579,0.164714,0.454853,-2.64187
1472092268050840,0.164727,0.455616,-2.6416
1472092268074032,0.164854,0.455586,-2.64157
1472092268096224,0.164854,0.455586,-2.64157
1472092268110468,0.164767,0.455745,-2.64159
1472092268133721,0.163841,0.455959,-2.64189
1472092268156448,0.16213,0.455492,-2.64259
1472092268170485,0.160146,0.454789,-2.64302
1472092268193630,0.158362,0.453636,-2.64319
1472092268216314,0.157969,0.453069,-2.6426
1472092268237370,0.156945,0.452151,-2.64263
1472092268253534,0.15513,0.450915,-2.64341
1472092268276276,0.153291,0.449801,-2.64389
1472092268297446,0.152163,0.44875,-2.64362
1472092268313656,0.151357,0.448279,-2.64322
1472092268336379,0.150246,0.44749,-2.64318
1472092268357463,0.147718,0.446052,-2.64407
1472092268373613,0.146102,0.444751,-2.6445
1472092268396454,0.144834,0.443875,-2.64499
1472092268417263,0.143457,0.443319,-2.64583
1472092268433596,0.142309,0.443348,-2.64688
1472092268456157,0.141137,0.443507,-2.64815
1472092268477510,0.140459,0.443286,-2.6491
1472092268493833,0.140315,0.443455,-2.64987
1472092268516301,0.14024,0.443751,-2.65053
1472092268537438,0.14003,0.443947,-2.6511
1472092268554037,0.139984,0.44421,-2.65155
1472092268576220,0.140314,0.444928,-2.65205
1472092268597279,0.140847,0.445842,-2.65243
1472092268613837,0.141537,0.446724,-2.65268
1472092268636096,0.141543,0.447377,-2.65335
1472092268657619,0.141587,0.448157,-2.65402
1472092268673686,0.141788,0.448907,-2.65455
1472092268695853,0.142245,0.450242,-2.65518
1472092268718894,0.142097,0.451057,-2.65611
1472092268734003,0.142001,0.451618,-2.6571
1472092268756232,0.142213,0.452598,-2.65777
1472092268778793,0.142268,0.453674,-2.65876
1472092268793837,0.142579,0.454748,-2.6591
1472092268816265,0.142987,0.455828,-2.65962
1472092268838327,0.143262,0.456838,-2.66016
1472092268852922,0.143628,0.457669,-2.66109
1472092268876492,0.143582,0.458722,-2.66234
1472092268898606,0.144452,0.459986,-2.6633
1472092268913215,0.145305,0.460945,-2.66342
1472092268936168,0.146026,0.461835,-2.66355
1472092268958724,0.146336,0.462946,-2.66399
1472092268973255,0.146121,0.463923,-2.66483
1472092268996082,0.1468,0.465333,-2.66512
1472092269018657,0.148741,0.46734,-2.66458
1472092269033733,0.150435,0.469572,-2.66429
1472092269056254,0.151178,0.471595,-2.6644
1472092269078988,0.151975,0.473365,-2.66459
1472092269093433,0.153181,0.475464,-2.66459
1472092269116092,0.153845,0.477133,-2.66469
1472092269138827,0.15436,0.478448,-2.665
1472092269152907,0.155537,0.47987,-2.66487
1472092269176133,0.156425,0.481387,-2.66501
1472092269198745,0.156841,0.482599,-2.66512
1472092269220111,0.1575,0.483355,-2.66483
1472092269244059,0.157833,0.484174,-2.66483
1472092269258836,0.158797,0.485136,-2.66459
1472092269279981,0.160003,0.486292,-2.66412
1472092269295608,0.160771,0.487288,-2.66414
1472092269318712,0.161786,0.488613,-2.66404
1472092269340012,0.162094,0.489604,-2.66436
1472092269356494,0.163226,0.490686,-2.66462
1472092269378844,0.164988,0.491841,-2.66445
1472092269400035,0.166792,0.49363,-2.6638
1472092269416550,0.168509,0.495982,-2.66265
1472092269438993,0.171155,0.498865,-2.66094
1472092269460013,0.173854,0.501512,-2.65982
1472092269476131,0.173977,0.502272,-2.65921
1472092269498289,0.174277,0.502057,-2.65839
1472092269519938,0.174995,0.502137,-2.65729
1472092269536463,0.174664,0.501393,-2.65679
1472092269558504,0.173851,0.499875,-2.65685
1472092269579877,0.172093,0.497545,-2.65769
1472092269596463,0.170529,0.495567,-2.65818
1472092269618642,0.17043,0.494904,-2.65785
1472092269641263,0.170523,0.494628,-2.65728
1472092269656277,0.169694,0.493232,-2.65704
1472092269678754,0.168686,0.49095,-2.65656
1472092269701222,0.169532,0.48941,-2.65524
1472092269716383,0.171796,0.488467,-2.65313
1472092269746347,0.173424,0.487936,-2.65139
1472092269761312,0.174965,0.48818,-2.64974
1472092269776414,0.176576,0.488417,-2.64785
1472092269798560,0.177297,0.48809,-2.64631
1472092269821471,0.178671,0.488632,-2.64417
1472092269835609,0.179813,0.489213,-2.64241
1472092269858655,0.181682,0.490709,-2.64043
1472092269881258,0.183416,0.492064,-2.63828
1472092269895906,0.184147,0.492925,-2.63744
1472092269918594,0.184904,0.493282,-2.63699
1472092269941251,0.185433,0.493239,-2.63636
1472092269955805,0.186335,0.493679,-2.63547
1472092269978670,0.187192,0.494107,-2.63511
1472092270001348,0.187192,0.494107,-2.63511
1472092270015926,0.187948,0.493888,-2.634
1472092270039028,0.189002,0.493217,-2.63281
1472092270061103,0.189452,0.492022,-2.63181
1472092270075496,0.188662,0.490262,-2.63198
1472092270099084,0.187538,0.488591,-2.63295
1472092270121193,0.186398,0.487038,-2.63362
1472092270142393,0.185617,0.485916,-2.63435
1472092270158828,0.184528,0.485012,-2.63504
1472092270181562,0.18452,0.483975,-2.63498
1472092270202323,0.18489,0.482713,-2.63473
1472092270218970,0.184779,0.48115,-2.63446
1472092270241228,0.184852,0.480339,-2.6343
1472092270262297,0.185063,0.47963,-2.63423
1472092270278778,0.185787,0.479165,-2.63343
1472092270300865,0.186954,0.479389,-2.6327
1472092270322336,0.187662,0.479194,-2.63224
1472092270338644,0.189095,0.479489,-2.63156
1472092270361217,0.190754,0.480146,-2.63095
1472092270382334,0.191287,0.480235,-2.63044
1472092270398802,0.192417,0.480726,-2.6292
1472092270421480,0.194874,0.481388,-2.6275
1472092270442578,0.197324,0.481913,-2.6257
1472092270458620,0.199519,0.482555,-2.62457
1472092270481285,0.199727,0.482771,-2.62496
1472092270502325,0.198525,0.482534,-2.62528
1472092270519012,0.197961,0.482429,-2.62538
1472092270541250,0.197832,0.48246,-2.62541
1472092270562375,0.197081,0.482144,-2.62596
1472092270579038,0.196381,0.481672,-2.62659
1472092270601135,0.195681,0.481199,-2.62723
1472092270623916,0.193374,0.480334,-2.62858
1472092270638873,0.190674,0.479482,-2.63052
1472092270661460,0.188807,0.47917,-2.63181
1472092270683617,0.187916,0.479152,-2.63271
1472092270698983,0.187045,0.479382,-2.63331
1472092270721066,0.185763,0.478937,-2.63427
1472092270743945,0.185304,0.478518,-2.63454
1472092270757982,0.185304,0.478518,-2.63454
1472092270781744,0.185304,0.478518,-2.63454
1472092270803840,0.186127,0.478963,-2.63388
1472092270818432,0.187633,0.47977,-2.633
1472092270841208,0.188904,0.480465,-2.63185
1472092270863862,0.190524,0.480972,-2.63073
1472092270877911,0.192254,0.481565,-2.62927
1472092270901443,0.193301,0.481411,-2.62812
1472092270923986,0.194495,0.481878,-2.62707
1472092270938012,0.195243,0.481271,-2.62606
1472092270961578,0.195114,0.481302,-2.62609
1472092270983844,0.195149,0.481418,-2.62651
1472092270997904,0.195155,0.481573,-2.62714
1472092271021347,0.195155,0.481573,-2.62714
1472092271043985,0.195199,0.481702,-2.62714
1472092271057998,0.19507,0.481733,-2.62716
1472092271081090,0.195242,0.481832,-2.62713
1472092271103812,0.195467,0.48139,-2.62728
1472092271124908,0.195155,0.480825,-2.62784
1472092271141426,0.195155,0.480825,-2.62784
1472092271171498,0.195155,0.480825,-2.62784
1472092271184782,0.19442,0.480741,-2.6285
1472092271201522,0.192738,0.480258,-2.62943
1472092271223651,0.19153,0.479942,-2.63027
1472092271244908,0.190309,0.479456,-2.6309
1472092271261383,0.188665,0.478968,-2.63172
1472092271283963,0.188034,0.47845,-2.63202
1472092271304913,0.187382,0.478105,-2.63266
1472092271321489,0.186207,0.477748,-2.63328
1472092271343607,0.185873,0.477684,-2.63345
1472092271365146,0.185916,0.477813,-2.63345
1472092271381288,0.186335,0.478083,-2.63265
1472092271403765,0.18766,0.478656,-2.63169
1472092271424927,0.188377,0.479013,-2.63136
1472092271441211,0.188505,0.478982,-2.63133
1472092271463716,0.188505,0.478982,-2.63133
1472092271484838,0.189449,0.479262,-2.63053
1472092271501379,0.190169,0.479179,-2.62966
1472092271523837,0.191736,0.479422,-2.62843
1472092271546452,0.191274,0.478885,-2.62817
1472092271561221,0.191576,0.478514,-2.62758
1472092271583761,0.192275,0.478602,-2.62703
1472092271613657,0.190939,0.478263,-2.62727
1472092271621164,0.190148,0.477817,-2.62782
1472092271643807,0.190148,0.477817,-2.62782
1472092271666392,0.190191,0.477946,-2.62781
1472092271681442,0.190191,0.477946,-2.62781
1472092271702966,0.190822,0.478043,-2.62749
1472092271726963,0.190822,0.478043,-2.62749
1472092271740713,0.191198,0.477817,-2.6273
1472092271763853,0.190527,0.477206,-2.62771
1472092271786468,0.189766,0.476721,-2.62805
1472092271800466,0.189063,0.476533,-2.62859
1472092271823755,0.188665,0.476512,-2.62908
1472092271846281,0.187423,0.476165,-2.62993
1472092271860803,0.186849,0.475945,-2.63045
1472092271883962,0.186626,0.475584,-2.63037
1472092271906163,0.186821,0.475546,-2.63012
1472092271920607,0.186162,0.475068,-2.63064
1472092271943806,0.186201,0.475163,-2.63054
1472092271966351,0.186162,0.475068,-2.63064
1472092271980920,0.186672,0.475329,-2.63045
1472092272004010,0.186715,0.475459,-2.63045
1472092272026097,0.186715,0.475459,-2.63045
1472092272047424,0.188696,0.476109,-2.62948
1472092272063947,0.190465,0.477368,-2.62857
1472092272086505,0.191928,0.478425,-2.62761
1472092272107328,0.193306,0.479279,-2.62728
1472092272123647,0.193639,0.479483,-2.62817
1472092272146296,0.194392,0.480396,-2.6288
1472092272167403,0.19433,0.481484,-2.63013
1472092272183981,0.194259,0.482858,-2.63136
1472092272206054,0.194584,0.483891,-2.63271
1472092272227502,0.194895,0.484393,-2.63446
1472092272243696,0.194589,0.485066,-2.63676
1472092272266359,0.194799,0.485982,-2.63835
1472092272287471,0.195875,0.486536,-2.63923
1472092272303641,0.196003,0.486687,-2.64036
1472092272326317,0.196708,0.486698,-2.6416
1472092272347410,0.197674,0.487355,-2.64398
1472092272363966,0.198306,0.488468,-2.64655
1472092272386083,0.199467,0.489998,-2.64862
1472092272407681,0.200888,0.491995,-2.65067
1472092272423779,0.202065,0.494427,-2.65301
1472092272446411,0.203811,0.497702,-2.65602
1472092272467385,0.205872,0.501078,-2.65983
1472092272484041,0.206881,0.503921,-2.66447
1472092272505420,0.208353,0.50682,-2.66892
1472092272528811,0.207962,0.50971,-2.67345
1472092272543876,0.205754,0.51319,-2.67901
1472092272566430,0.203547,0.517559,-2.68522
1472092272588645,0.203225,0.522424,-2.69023
1472092272603117,0.206382,0.527632,-2.69198
1472092272626023,0.210942,0.532729,-2.69147
1472092272648857,0.215328,0.537598,-2.69054
1472092272663374,0.220202,0.542732,-2.68908
1472092272686593,0.22524,0.548517,-2.68772
1472092272708764,0.228973,0.554047,-2.68662
1472092272729375,0.231125,0.558986,-2.68593
1472092272746453,0.232907,0.563486,-2.68451
1472092272768596,0.235302,0.56765,-2.68207
1472092272783211,0.237791,0.571617,-2.67916
1472092272806318,0.238694,0.574923,-2.6771
1472092272828969,0.240001,0.578113,-2.6745
1472092272843182,0.240972,0.581418,-2.6723
1472092272866589,0.241126,0.58407,-2.67004
1472092272888750,0.23969,0.585731,-2.6682
1472092272903317,0.238526,0.586949,-2.66638
1472092272926188,0.238126,0.587974,-2.66404
1472092272948748,0.236104,0.58824,-2.6629
1472092272963149,0.233077,0.58699,-2.66266
1472092272986302,0.22956,0.5843,-2.66352
1472092273008745,0.225284,0.580054,-2.665
1472092273031548,0.220243,0.576198,-2.6673
1472092273046432,0.216474,0.572923,-2.66892
1472092273068534,0.212538,0.570228,-2.67039
1472092273090071,0.209808,0.568177,-2.67109
1472092273106672,0.207211,0.566882,-2.67159
1472092273128968,0.204889,0.566204,-2.67219
1472092273150105,0.203777,0.566042,-2.67265
1472092273166224,0.202979,0.565958,-2.67305
1472092273189025,0.202856,0.565874,-2.67339
1472092273209914,0.203481,0.56613,-2.67327
1472092273226531,0.20442,0.566465,-2.67307
1472092273249111,0.206022,0.567443,-2.67256
1472092273270131,0.207818,0.569187,-2.67249
1472092273286260,0.209709,0.57154,-2.67256
1472092273308321,0.210535,0.573378,-2.67316
1472092273329955,0.212039,0.575752,-2.67374
1472092273346428,0.213325,0.578168,-2.6746
1472092273368587,0.21443,0.580479,-2.6755
1472092273390244,0.216109,0.582942,-2.67562
1472092273406362,0.217874,0.585354,-2.67539
1472092273428815,0.219471,0.587692,-2.67562
1472092273451485,0.220977,0.589519,-2.67573
1472092273466503,0.222975,0.591363,-2.67517
1472092273488610,0.224642,0.592962,-2.6738
1472092273511670,0.22548,0.594013,-2.67206
1472092273527234,0.225014,0.594234,-2.67131
1472092273548902,0.224142,0.593739,-2.67116
1472092273571290,0.22181,0.592474,-2.67119
1472092273593655,0.217853,0.590268,-2.67187
1472092273608700,0.213132,0.586623,-2.6725
1472092273631218,0.20906,0.583243,-2.67299
1472092273645484,0.205415,0.58098,-2.6739
1472092273668545,0.202054,0.580389,-2.67531
1472092273691211,0.199239,0.579825,-2.6767
1472092273705531,0.195625,0.578264,-2.67818
1472092273729209,0.192779,0.575839,-2.67898
1472092273751345,0.190386,0.573425,-2.67956
1472092273765948,0.187821,0.571995,-2.6807
1472092273789032,0.185707,0.571845,-2.68238
1472092273811156,0.184868,0.572275,-2.68328
1472092273832487,0.184643,0.57312,-2.68385
1472092273848909,0.185346,0.574836,-2.68427
1472092273871219,0.186948,0.576799,-2.68459
1472092273885876,0.18817,0.57828,-2.68563
1472092273908786,0.189967,0.580184,-2.68645
1472092273931396,0.191545,0.582127,-2.68756
1472092273952432,0.193745,0.584492,-2.68832
1472092273968744,0.19501,0.586644,-2.68974
1472092273991186,0.195789,0.58906,-2.69207
1472092274012532,0.196831,0.591302,-2.69387
1472092274029089,0.199321,0.593228,-2.69496
1472092274051303,0.201483,0.595343,-2.69561
1472092274072388,0.204054,0.597907,-2.69653
1472092274089170,0.20721,0.601432,-2.69761
1472092274110879,0.20961,0.604606,-2.69951
1472092274132603,0.21066,0.606625,-2.70185
1472092274148617,0.211762,0.608107,-2.70402
1472092274171650,0.213349,0.60982,-2.70523
1472092274192790,0.216025,0.612132,-2.70565
1472092274208824,0.220025,0.615388,-2.7056
1472092274231594,0.224678,0.618774,-2.70562
1472092274252715,0.226413,0.62077,-2.70737
1472092274268974,0.228114,0.621701,-2.70881
1472092274291124,0.230241,0.622031,-2.7094
1472092274312844,0.230116,0.620999,-2.71046
1472092274328904,0.229994,0.619981,-2.71084
1472092274351055,0.230232,0.619547,-2.71062
1472092274372586,0.231004,0.619721,-2.70923
1472092274388811,0.231905,0.620663,-2.70765
1472092274411471,0.232901,0.622287,-2.70564
1472092274433574,0.235003,0.624452,-2.70309
1472092274448755,0.23628,0.626478,-2.70051
1472092274471419,0.236231,0.628304,-2.69868
1472092274493732,0.236085,0.630096,-2.697
1472092274508854,0.235721,0.630758,-2.69482
1472092274531327,0.234748,0.629607,-2.69254
1472092274554090,0.233503,0.627914,-2.69072
1472092274568195,0.23244,0.626185,-2.68907
1472092274591276,0.2298,0.624498,-2.68851
1472092274613959,0.225602,0.622382,-2.6884
1472092274628363,0.221601,0.619856,-2.68786
1472092274651506,0.218561,0.617563,-2.68647
1472092274674058,0.215482,0.615729,-2.68522
1472092274688115,0.211724,0.613822,-2.6848
1472092274711346,0.208113,0.611198,-2.68449
1472092274733932,0.203747,0.607442,-2.68481
1472092274748478,0.199988,0.603535,-2.68474
1472092274771244,0.196733,0.600466,-2.68462
1472092274794140,0.194119,0.597946,-2.68461
1472092274808176,0.192851,0.597019,-2.68418
1472092274831362,0.193199,0.597042,-2.68311
1472092274853830,0.195087,0.597953,-2.68207
1472092274874884,0.196312,0.598522,-2.68203
1472092274891581,0.196907,0.598091,-2.68218
1472092274913220,0.196433,0.596503,-2.68279
1472092274934688,0.196859,0.595233,-2.68289
1472092274951294,0.199035,0.594603,-2.68208
1472092274973825,0.202249,0.594747,-2.68085
1472092274994410,0.205733,0.595169,-2.6797
1472092275011452,0.205033,0.593606,-2.68094
1472092275034171,0.202273,0.591225,-2.68314
1472092275054928,0.201136,0.589213,-2.68455
1472092275071654,0.200622,0.588452,-2.68558
1472092275093674,0.199548,0.588544,-2.68651
1472092275114938,0.199589,0.589641,-2.68692
1472092275131653,0.200076,0.590845,-2.68714
1472092275153773,0.199167,0.591836,-2.68789
1472092275174865,0.19835,0.592141,-2.68823
1472092275191389,0.198824,0.59267,-2.68719
1472092275214043,0.199573,0.593285,-2.68619
1472092275235094,0.198987,0.593302,-2.68643
1472092275251551,0.198404,0.593163,-2.68689
1472092275274092,0.196976,0.59174,-2.68733
1472092275295108,0.194869,0.589512,-2.68721
1472092275311281,0.192664,0.587284,-2.68657
1472092275334089,0.191271,0.585711,-2.686
1472092275356332,0.190149,0.584602,-2.68574
1472092275371468,0.187725,0.583794,-2.68615
1472092275394092,0.185608,0.583323,-2.68629
1472092275416517,0.184465,0.582885,-2.68544
1472092275430988,0.1847,0.582773,-2.68376
1472092275454076,0.184549,0.582934,-2.68316
1472092275476632,0.185245,0.583835,-2.68253
1472092275490709,0.186084,0.584549,-2.68207
1472092275513833,0.187248,0.584853,-2.68159
1472092275536536,0.188425,0.584604,-2.68138
1472092275550644,0.189602,0.584356,-2.68118
1472092275574113,0.191763,0.58454,-2.68067
1472092275596209,0.193802,0.5852,-2.68098
1472092275611377,0.1959,0.585729,-2.68182
1472092275633653,0.197592,0.586723,-2.68302
1472092275656250,0.198069,0.587337,-2.68448
1472092275670761,0.200026,0.588157,-2.68516
1472092275693991,0.200867,0.588698,-2.68663
1472092275715755,0.201757,0.589081,-2.6882
1472092275730973,0.203355,0.589833,-2.68908
1472092275753883,0.206076,0.590774,-2.68914
1472092275776544,0.208797,0.591815,-2.68923
1472092275791090,0.211478,0.592625,-2.6893
1472092275813848,0.21407,0.59302,-2.68925
1472092275836679,0.215006,0.592596,-2.69042
1472092275857805,0.216404,0.591838,-2.69154
1472092275874017,0.218114,0.59156,-2.69252
1472092275896550,0.21869,0.591504,-2.69391
1472092275917647,0.220525,0.592234,-2.69485
1472092275933752,0.22352,0.593354,-2.69456
1472092275956324,0.225915,0.594317,-2.69362
1472092275977631,0.228147,0.594956,-2.69334
1472092275993764,0.230426,0.594462,-2.6931
1472092276016468,0.232039,0.593261,-2.69327
1472092276037616,0.23323,0.591806,-2.69322
1472092276053799,0.23331,0.589867,-2.69425
1472092276076429,0.233695,0.587009,-2.69439
1472092276105224,0.233586,0.583323,-2.69458
1472092276113756,0.231751,0.578452,-2.69596
1472092276138026,0.23069,0.572725,-2.69666
1472092276157625,0.230834,0.566454,-2.69642
1472092276173716,0.230743,0.560278,-2.697
1472092276196250,0.230321,0.552637,-2.69756
1472092276217548,0.22966,0.544488,-2.69839
1472092276233152,0.228032,0.535883,-2.69907
1472092276256409,0.226466,0.528304,-2.69916
1472092276279060,0.226879,0.523081,-2.69855
1472092276293164,0.228556,0.521004,-2.69767
1472092276316297,0.22967,0.519903,-2.69598
1472092276338874,0.230465,0.51844,-2.69413
1472092276353805,0.231918,0.516746,-2.69212
1472092276376579,0.233688,0.51509,-2.6903
1472092276398793,0.236123,0.515192,-2.68874
1472092276413405,0.237579,0.515064,-2.68716
1472092276436540,0.237745,0.513578,-2.68479
1472092276458656,0.237011,0.511468,-2.68225
1472092276473188,0.236907,0.509799,-2.68059
1472092276496572,0.237378,0.508296,-2.67892
1472092276518158,0.236912,0.506601,-2.67721
1472092276533040,0.234505,0.504402,-2.67629
1472092276556253,0.231062,0.502116,-2.6763
1472092276578811,0.227059,0.50009,-2.67708
1472092276593376,0.225187,0.499192,-2.67739
1472092276616244,0.223946,0.498964,-2.67793
1472092276639019,0.222263,0.498373,-2.6778
1472092276653362,0.220933,0.498129,-2.67771
1472092276676455,0.21966,0.498292,-2.67785
1472092276698763,0.2184,0.498832,-2.67822
1472092276713377,0.217402,0.499318,-2.67854
1472092276736424,0.217477,0.500066,-2.67847
1472092276759020,0.218232,0.500955,-2.67804
1472092276780167,0.219168,0.502014,-2.67705
1472092276796320,0.220149,0.503204,-2.67607
1472092276818993,0.222078,0.504681,-2.6747
1472092276840062,0.224185,0.50651,-2.67266
1472092276856185,0.224748,0.50786,-2.67058
1472092276878796,0.225591,0.509433,-2.66866
1472092276899919,0.227078,0.511498,-2.66633
1472092276916556,0.227737,0.513774,-2.66481
1472092276939135,0.22682,0.515761,-2.66358
1472092276960203,0.226613,0.518369,-2.66225
1472092276976247,0.226674,0.521833,-2.6608
1472092276999082,0.226788,0.526246,-2.65927
1472092277020377,0.226627,0.53118,-2.65731
1472092277035959,0.225292,0.535957,-2.65666
1472092277059034,0.224446,0.540206,-2.656
1472092277080196,0.224042,0.544531,-2.65611
1472092277096344,0.223927,0.54916,-2.65555
1472092277118950,0.223852,0.554039,-2.65467
1472092277141220,0.224112,0.559283,-2.65396
1472092277163820,0.225787,0.56603,-2.65293
1472092277179055,0.227432,0.572963,-2.65147
1472092277199847,0.22786,0.578418,-2.65043
1472092277216433,0.227577,0.580993,-2.64991
1472092277239167,0.22654,0.583617,-2.65012
1472092277261515,0.224911,0.585719,-2.65087
1472092277276499,0.222327,0.587128,-2.65235
1472092277299012,0.219234,0.587606,-2.6542
1472092277321673,0.215271,0.586937,-2.65652
1472092277335780,0.210717,0.585629,-2.65859
1472092277358966,0.205672,0.583835,-2.66087
1472092277381497,0.200826,0.581892,-2.66329
1472092277396022,0.197852,0.580341,-2.66593
1472092277419088,0.196054,0.579757,-2.66826
1472092277441220,0.194868,0.580187,-2.66988
1472092277455897,0.19498,0.581657,-2.67117
1472092277478936,0.195988,0.583187,-2.67214
1472092277501505,0.197259,0.58454,-2.67259
1472092277515995,0.198562,0.58582,-2.67239
1472092277539084,0.200416,0.587313,-2.67238
1472092277561555,0.202863,0.588771,-2.67246
1472092277575677,0.205797,0.590504,-2.67168
1472092277598703,0.20877,0.592124,-2.66999
1472092277621615,0.213414,0.593418,-2.66723
1472092277643772,0.219567,0.594692,-2.66397
1472092277659053,0.225119,0.596387,-2.66209
1472092277681611,0.228831,0.597489,-2.66214
1472092277702359,0.229102,0.597931,-2.66482
1472092277718959,0.226248,0.598444,-2.66948
1472092277741628,0.222159,0.59852,-2.6743
1472092277762710,0.219668,0.599096,-2.67877
1472092277778767,0.218292,0.599486,-2.68165
1472092277801501,0.217829,0.599157,-2.6812
1472092277822574,0.21852,0.599145,-2.67864
1472092277846407,0.220386,0.599574,-2.6746
1472092277861489,0.222892,0.599963,-2.67053
1472092277882650,0.223409,0.598734,-2.66878
1472092277899115,0.22111,0.595491,-2.66909
1472092277921205,0.21968,0.591923,-2.66927
1472092277942469,0.219276,0.589175,-2.66785
1472092277959055,0.21847,0.58729,-2.66671
1472092277981397,0.21583,0.586254,-2.66672
1472092278002442,0.213374,0.58533,-2.66669
1472092278018759,0.212085,0.58383,-2.66613
1472092278041353,0.2112,0.582009,-2.66533
1472092278062346,0.209293,0.578574,-2.66552
1472092278079003,0.205005,0.574055,-2.66608
1472092278101675,0.201999,0.570331,-2.66661
1472092278122736,0.200128,0.567959,-2.66718
1472092278139093,0.199066,0.565948,-2.6676
1472092278161320,0.197949,0.563681,-2.66757
1472092278183783,0.196565,0.560804,-2.66745
1472092278198400,0.193248,0.5566,-2.66692
1472092278221316,0.190172,0.552639,-2.66548
1472092278243700,0.187978,0.549899,-2.66383
1472092278258739,0.18715,0.54793,-2.66183
1472092278281200,0.186063,0.545867,-2.6601
1472092278303743,0.184997,0.543966,-2.65891
1472092278318537,0.182886,0.541659,-2.65825
1472092278341562,0.181203,0.539617,-2.65719
1472092278364195,0.18068,0.538504,-2.65531
1472092278378309,0.180031,0.538221,-2.65373
1472092278401266,0.180656,0.538425,-2.65179
1472092278423940,0.182411,0.538249,-2.64925
1472092278438107,0.183136,0.537509,-2.64659
1472092278461682,0.185222,0.537086,-2.64354
1472092278483711,0.188684,0.536721,-2.63945
1472092278498215,0.192457,0.536085,-2.63444
1472092278521344,0.19502,0.536506,-2.63199
1472092278543695,0.196014,0.536105,-2.63047
1472092278558330,0.197331,0.535322,-2.62834
1472092278581189,0.198064,0.534728,-2.62708
1472092278603841,0.198241,0.533463,-2.62654
1472092278618179,0.196654,0.532279,-2.62724
1472092278641290,0.193908,0.5311,-2.62872
1472092278663941,0.192441,0.530295,-2.62983
1472092278684984,0.191429,0.529469,-2.63021
1472092278701476,0.19067,0.528348,-2.63041
1472092278723877,0.190839,0.527925,-2.63035
1472092278745021,0.190486,0.527333,-2.63049
1472092278761564,0.189467,0.526664,-2.63067
1472092278784184,0.188922,0.526382,-2.63046
1472092278805269,0.188897,0.526268,-2.63003
1472092278821441,0.188894,0.526229,-2.62993
1472092278843733,0.18907,0.526331,-2.62989
1472092278864835,0.18907,0.526331,-2.62989
1472092278881651,0.18907,0.526331,-2.62989
1472092278903958,0.18994,0.526662,-2.62951
1472092278925074,0.190897,0.52722,-2.62902
1472092278941266,0.192797,0.528024,-2.62771
1472092278963937,0.194773,0.529113,-2.62608
1472092278984962,0.196534,0.530396,-2.62535
1472092279001560,0.196534,0.530396,-2.62535
1472092279023804,0.196534,0.530396,-2.62535
1472092279029337,0.196306,0.530749,-2.62606
1472092279052094,0.196199,0.530895,-2.62651
1472092279067229,0.195956,0.530976,-2.62699
1472092279089833,0.195207,0.5312,-2.62801
1472092279111974,0.195274,0.531058,-2.62852
1472092279127002,0.1957,0.530534,-2.62829
1472092279149566,0.19461,0.529324,-2.62814
1472092279172136,0.191969,0.528157,-2.6298
1472092279186638,0.188952,0.52735,-2.63178
1472092279209349,0.187409,0.526803,-2.63293
1472092279231630,0.185095,0.526324,-2.63371
1472092279247030,0.181069,0.525192,-2.63568
1472092279269210,0.176661,0.524183,-2.63869
1472092279291805,0.17278,0.523434,-2.64149
1472092279306830,0.170342,0.523258,-2.64392
1472092279329371,0.16825,0.523244,-2.64618
1472092279351763,0.167336,0.523486,-2.64735
1472092279368300,0.166472,0.524091,-2.64865
1472092279389373,0.167436,0.524671,-2.64858
1472092279412051,0.169362,0.525236,-2.64736
1472092279428420,0.172924,0.526504,-2.64529
1472092279449619,0.176373,0.52859,-2.64436
1472092279471925,0.178447,0.530767,-2.64512
1472092279488423,0.18274,0.533372,-2.64669
1472092279509507,0.186503,0.537073,-2.65017
1472092279531801,0.190788,0.542315,-2.65546
1472092279554382,0.195916,0.547358,-2.66291
1472092279569554,0.201477,0.550586,-2.67438
1472092279592037,0.203508,0.5523,-2.69231
1472092279614118,0.203266,0.553571,-2.71754
1472092279629140,0.201976,0.555083,-2.74986
1472092279652061,0.200866,0.556394,-2.78733
1472092279674581,0.197116,0.55651,-2.83194
1472092279689097,0.184912,0.550378,-2.88911
1472092279711683,0.159182,0.541076,-2.95938
1472092279734211,0.129597,0.531556,-3.03753
1472092279748797,0.105596,0.520603,-3.11951
1472092279771960,0.0894343,0.503847,3.07931
1472092279794480,0.0678309,0.471212,2.98847
1472092279809517,0.0317131,0.42206,2.90276
1472092279832077,-0.0181972,0.373952,2.82725
1472092279854454,-0.0677985,0.33319,2.75944
1472092279869477,-0.0987904,0.294733,2.69797
1472092279891997,-0.110741,0.253903,2.63796
1472092279914376,-0.117573,0.213632,2.5836
1472092279929397,-0.127541,0.175539,2.54027
1472092279951929,-0.135169,0.133937,2.51191
1472092279974767,-0.13462,0.0931268,2.49301
1472092279989298,-0.127397,0.0625435,2.48268
1472092280011933,-0.120638,0.0435207,2.47578
1472092280034394,-0.120809,0.0323442,2.47136
1472092280051011,-0.124698,0.0266114,2.46951
1472092280071920,-0.123772,0.0252996,2.46814
1472092280094071,-0.115443,0.0303349,2.46419
1472092280111075,-0.103695,0.0362257,2.46303
1472092280131818,-0.101487,0.0398541,2.46297
1472092280154474,-0.108354,0.0427318,2.46249
1472092280170607,-0.110488,0.0483142,2.46197
1472092280191815,-0.110903,0.0546832,2.46255
1472092280214529,-0.115831,0.0578397,2.46165
1472092280229211,-0.120904,0.0592703,2.4585
1472092280251804,-0.121034,0.0591944,2.45534
1472092280274491,-0.117002,0.0608887,2.44983
1472092280291021,-0.113877,0.0622701,2.447
1472092280311843,-0.112324,0.0610684,2.44838
1472092280334508,-0.115341,0.0542209,2.45031
1472092280350710,-0.113768,0.0465614,2.4497
1472092280371824,-0.110535,0.0461192,2.44876
1472092280394353,-0.108099,0.0504982,2.44856
1472092280410882,-0.108837,0.0546445,2.4483
1472092280432002,-0.113829,0.0566484,2.4461
1472092280454584,-0.120513,0.0564597,2.44372
1472092280469763,-0.124881,0.0567154,2.44151
1472092280493154,-0.126294,0.0565355,2.44045
1472092280514410,-0.130372,0.0549643,2.44122
1472092280530985,-0.137834,0.0526731,2.44175
1472092280552174,-0.147567,0.0489951,2.44158
1472092280574510,-0.155383,0.045738,2.44121
1472092280597002,-0.158466,0.0473037,2.44047
1472092280612074,-0.157481,0.0509088,2.44212
1472092280634317,-0.159273,0.0532951,2.44448
1472092280656853,-0.16748,0.0562407,2.44503
1472092280671949,-0.176645,0.058739,2.44418
1472092280694460,-0.182298,0.0607864,2.44305
1472092280716988,-0.184073,0.0635082,2.44103
1472092280732012,-0.186449,0.0657843,2.43944
1472092280754161,-0.190258,0.0674843,2.43877
1472092280772733,-0.194859,0.0689206,2.43842
1472092280791790,-0.200792,0.0710068,2.43755
1472092280814482,-0.205861,0.073478,2.43604
1472092280830751,-0.209412,0.0763771,2.4346
1472092280852249,-0.212711,0.0800314,2.43325
1472092280881730,-0.216761,0.0837336,2.43257
1472092280892284,-0.221222,0.0878188,2.43195
1472092280912044,-0.224866,0.0917993,2.43122
1472092280934204,-0.227099,0.0961855,2.43064
1472092280952360,-0.227865,0.101056,2.43088
1472092280971957,-0.228384,0.105827,2.43188
1472092280994649,-0.228976,0.110217,2.4333
1472092281016718,-0.23028,0.113672,2.43452
1472092281031824,-0.232216,0.116359,2.43561
1472092281054351,-0.234424,0.118458,2.43704
1472092281077382,-0.236324,0.119545,2.43905
1472092281091947,-0.238283,0.120313,2.44198
1472092281122068,-0.239867,0.120381,2.44446
1472092281136658,-0.240501,0.120032,2.44719
1472092281152313,-0.241052,0.119047,2.4498
1472092281174468,-0.241223,0.117231,2.45191
1472092281197010,-0.241002,0.11457,2.4534
1472092281212040,-0.239448,0.110071,2.45403
1472092281234297,-0.236996,0.103518,2.45328
1472092281256849,-0.234367,0.0946678,2.45246
1472092281273367,-0.231511,0.0826171,2.45148
1472092281294419,-0.229794,0.068353,2.45064
1472092281316677,-0.227658,0.0523232,2.45019
1472092281333255,-0.222413,0.0350037,2.45036
1472092281353751,-0.214418,0.0154701,2.45092
1472092281376783,-0.203907,-0.0069296,2.45007
1472092281393350,-0.197223,-0.0332569,2.44824
1472092281414467,-0.193812,-0.0580092,2.44898
1472092281437359,-0.188265,-0.0779261,2.45335
1472092281453405,-0.176039,-0.0941907,2.45832
1472092281474486,-0.159279,-0.108856,2.46337
1472092281497014,-0.14269,-0.123744,2.46862
1472092281513528,-0.12923,-0.138675,2.47475
1472092281534637,-0.118397,-0.150596,2.48192
1472092281556880,-0.110282,-0.159544,2.49002
1472092281574832,-0.101742,-0.16714,2.49918
1472092281594379,-0.0898701,-0.172852,2.50956
1472092281617030,-0.0795932,-0.176347,2.52186
1472092281634829,-0.0737234,-0.177919,2.5357
1472092281654670,-0.0710629,-0.178993,2.55019
1472092281677249,-0.0684784,-0.179764,2.56412
1472092281694771,-0.0666565,-0.180154,2.57629
1472092281714859,-0.0676322,-0.180302,2.58729
1472092281739523,-0.07169,-0.180296,2.59806
1472092281759719,-0.0759903,-0.179409,2.60902
1472092281774371,-0.0767252,-0.17402,2.61949
1472092281796948,-0.075288,-0.163308,2.62902
1472092281819735,-0.072454,-0.147531,2.63756
1472092281834866,-0.0677258,-0.127681,2.64348
1472092281857008,-0.0627562,-0.106044,2.64737
1472092281879449,-0.0598462,-0.083374,2.65047
1472092281894492,-0.058698,-0.0594379,2.65312
1472092281917104,-0.0585514,-0.0337778,2.65532
1472092281939726,-0.0607171,-0.00826488,2.65547
1472092281954315,-0.0645707,0.0124581,2.64846
1472092281977192,-0.0693643,0.0273601,2.63584
1472092281999224,-0.0774416,0.0367186,2.62341
1472092282014247,-0.0887682,0.0433199,2.61317
1472092282037015,-0.0996258,0.0490237,2.60475
1472092282059203,-0.105881,0.0546218,2.59532
1472092282074300,-0.107541,0.0585415,2.58555
1472092282097231,-0.106232,0.0592952,2.57702
1472092282119412,-0.107485,0.0586365,2.57043
1472092282134476,-0.113666,0.0570331,2.56409
1472092282156532,-0.122569,0.0554426,2.55721
1472092282179861,-0.129281,0.0543577,2.54866
1472092282194223,-0.130638,0.0533327,2.5402
1472092282216950,-0.128062,0.0527355,2.53366
1472092282239386,-0.126701,0.0530456,2.52924
1472092282254634,-0.127753,0.0541702,2.52538
1472092282276763,-0.129388,0.0549146,2.52039
1472092282299656,-0.127243,0.0550587,2.51521
1472092282314660,-0.121065,0.0541878,2.51212
1472092282337247,-0.114521,0.0515663,2.50988
1472092282359336,-0.112034,0.0495598,2.50753
1472092282376192,-0.113258,0.0486477,2.50496
1472092282397360,-0.114988,0.0455512,2.50075
1472092282419379,-0.11612,0.0430215,2.49642
1472092282434472,-0.116823,0.0419422,2.49252
1472092282457115,-0.116974,0.040389,2.48844
1472092282479747,-0.11826,0.0386682,2.48362
1472092282494437,-0.117997,0.0377364,2.47895
1472092282517098,-0.11551,0.0372214,2.47499
1472092282547592,-0.113414,0.0371236,2.47153
1472092282562593,-0.111583,0.0370795,2.46825
1472092282576922,-0.110631,0.0365995,2.4649
1472092282599479,-0.109627,0.036451,2.46259
1472092282616204,-0.106801,0.0357287,2.46192
1472092282636859,-0.104063,0.0352427,2.46136
1472092282659532,-0.10352,0.0343588,2.46054
1472092282675805,-0.103919,0.033306,2.46047
1472092282696787,-0.103877,0.0327949,2.46031
1472092282719870,-0.103454,0.033087,2.46059
1472092282735421,-0.102519,0.0330409,2.46087
1472092282756930,-0.102823,0.0336199,2.4617
1472092282779541,-0.104487,0.0347655,2.46272
1472092282796084,-0.105868,0.0365038,2.46314
1472092282818209,-0.106592,0.0385961,2.46342
1472092282839471,-0.107328,0.0406725,2.46344
1472092282856014,-0.108449,0.0423519,2.46338
1472092282877177,-0.109447,0.043676,2.46314
1472092282899331,-0.11098,0.0450791,2.46307
1472092282917319,-0.113331,0.0465743,2.46281
1472092282937162,-0.115146,0.0483971,2.46274
1472092282959383,-0.116603,0.0495751,2.46279
1472092282977460,-0.118388,0.0502469,2.46285
1472092282996917,-0.119407,0.0513393,2.46329
1472092283019459,-0.120115,0.0522656,2.46344
1472092283037534,-0.120797,0.0534567,2.46348
1472092283057061,-0.121632,0.0543196,2.46325
1472092283079652,-0.122688,0.055125,2.46341
1472092283105021,-0.123234,0.0559947,2.46385
1472092283116952,-0.123298,0.0566638,2.46468
1472092283139861,-0.123449,0.0575573,2.4654
1472092283157447,-0.123263,0.0593491,2.46618
1472092283176771,-0.123295,0.0604886,2.46584
1472092283199805,-0.122707,0.0609015,2.46485
1472092283217285,-0.122974,0.0607622,2.46391
1472092283236902,-0.125681,0.0603173,2.46363
1472092283259360,-0.126442,0.0615414,2.46483
1472092283281951,-0.12584,0.0629965,2.46629
1472092283297035,-0.123675,0.0638931,2.46653
1472092283319555,-0.12084,0.0638155,2.46589
1472092283342119,-0.120032,0.063285,2.46523
1472092283357306,-0.120524,0.0632623,2.46561
1472092283379422,-0.120317,0.0638899,2.46635
1472092283401983,-0.119125,0.0645859,2.46673
1472092283417006,-0.116937,0.0649356,2.46623
1472092283439611,-0.116416,0.0648329,2.46567
1472092283461909,-0.1175,0.0645743,2.46548
1472092283476850,-0.1193,0.0642177,2.46577
1472092283499631,-0.120646,0.0644201,2.46624
1472092283521864,-0.120814,0.0652726,2.4663
1472092283537941,-0.120635,0.0662338,2.46615
1472092283559342,-0.120531,0.0674548,2.46648
1472092283581735,-0.120538,0.0690447,2.46719
1472092283598851,-0.121153,0.0705487,2.46788
1472092283619438,-0.122343,0.0718773,2.46898
1472092283641923,-0.123567,0.0729244,2.46989
1472092283658449,-0.12514,0.073828,2.4704
1472092283679564,-0.126747,0.0747035,2.47046
1472092283702027,-0.128855,0.075515,2.47021
1472092283718547,-0.130811,0.0762578,2.47007
1472092283739464,-0.131983,0.0770155,2.47002
1472092283761771,-0.132731,0.0780615,2.47016
1472092283778438,-0.133629,0.0787972,2.47031
1472092283800944,-0.13441,0.0795729,2.47046
1472092283822100,-0.135001,0.0805439,2.4706
1472092283840152,-0.134797,0.0823473,2.47148
1472092283859663,-0.133935,0.0839533,2.47161
1472092283882337,-0.132625,0.0852876,2.47108
1472092283899718,-0.132976,0.0857664,2.47018
1472092283919258,-0.135674,0.0855736,2.46949
1472092283941855,-0.137867,0.0864108,2.4702
1472092283960092,-0.13815,0.0873997,2.47111
1472092283979434,-0.136913,0.0883735,2.47157
1472092284002013,-0.135546,0.0892115,2.47115
1472092284020148,-0.135795,0.089512,2.47105
1472092284039259,-0.137339,0.0899005,2.4713
1472092284061730,-0.139299,0.090021,2.47165
1472092284080006,-0.141077,0.0903168,2.47171
1472092284102482,-0.1424,0.0907654,2.47167
1472092284122095,-0.143357,0.0915913,2.47143
1472092284139660,-0.14455,0.0927153,2.47106
1472092284159461,-0.145875,0.0938011,2.47072
1472092284182163,-0.147269,0.0951157,2.47034
1472092284199801,-0.149046,0.0964325,2.47005
1472092284219695,-0.151215,0.0977451,2.46976
1472092284242266,-0.153173,0.0988887,2.46978
1472092284259136,-0.154548,0.0998543,2.46991
1472092284279404,-0.155757,0.100751,2.47014
1472092284301937,-0.156556,0.101667,2.47055
1472092284320034,-0.157213,0.102509,2.47099
1472092284339545,-0.157937,0.103187,2.47132
1472092284361954,-0.158867,0.103672,2.47168
1472092284380126,-0.159715,0.103911,2.47184
1472092284402634,-0.160797,0.104464,2.47209
1472092284424718,-0.161837,0.104901,2.47234
1472092284444393,-0.162454,0.105613,2.47258
1472092284460914,-0.163261,0.106524,2.47289
1472092284484826,-0.163971,0.10746,2.47303
1472092284504349,-0.164842,0.108456,2.47296
1472092284520899,-0.165752,0.10919,2.47301
1472092284542102,-0.166455,0.109724,2.47296
1472092284564038,-0.167048,0.110306,2.47302
1472092284581111,-0.16776,0.110832,2.47288
1472092284602208,-0.168227,0.111067,2.47296
1472092284624777,-0.168885,0.111502,2.47311
1472092284641154,-0.16965,0.111906,2.47336
1472092284661888,-0.170338,0.112482,2.47381
1472092284684597,-0.170954,0.112802,2.47398
1472092284701136,-0.171454,0.113555,2.47421
1472092284721752,-0.171961,0.114319,2.47455
1472092284744427,-0.172619,0.115149,2.47478
1472092284761182,-0.173556,0.115999,2.47481
1472092284782388,-0.174308,0.116659,2.47486
1472092284804601,-0.175054,0.117308,2.4748
1472092284822059,-0.175807,0.117969,2.47486
1472092284842143,-0.176521,0.118495,2.47471
1472092284864446,-0.177202,0.118898,2.47449
1472092284882388,-0.177884,0.1193,2.47426
1472092284909509,-0.178428,0.119758,2.47421
1472092284924584,-0.178641,0.120336,2.47418
1472092284942689,-0.178971,0.12127,2.47422
1472092284978376,-0.179409,0.121759,2.47408
1472092284984396,-0.180124,0.122285,2.47394
1472092285002189,-0.180892,0.122919,2.4737
1472092285025241,-0.181065,0.123363,2.47347
1472092285044780,-0.181407,0.123086,2.473
1472092285061872,-0.181336,0.123223,2.47279
1472092285081914,-0.18092,0.123902,2.47296
1472092285104434,-0.180327,0.124502,2.47312
1472092285122450,-0.180227,0.125105,2.47377
1472092285141990,-0.18063,0.125242,2.47403
1472092285164529,-0.180673,0.125358,2.47403
1472092285182554,-0.180673,0.125358,2.47403
1472092285202079,-0.180673,0.125358,2.47403
1472092285224627,-0.180715,0.125474,2.47402
1472092285242242,-0.181204,0.125448,2.4742
1472092285263461,-0.182096,0.125412,2.47429
1472092285284552,-0.182096,0.125412,2.47429
1472092285302620,-0.182212,0.125372,2.47429
1472092285322128,-0.182138,0.125527,2.47428
1472092285344663,-0.182138,0.125527,2.47428
1472092285362720,-0.182138,0.125527,2.47428
1472092285381792,-0.182648,0.125486,2.47428
1472092285404313,-0.182648,0.125486,2.47428
1472092285427055,-0.182648,0.125486,2.47428
1472092285443866,-0.182637,0.125494,2.47437
1472092285464863,-0.182637,0.125494,2.47437
1472092285482633,-0.182637,0.125494,2.47437
1472092285503704,-0.182637,0.125494,2.47437
1472092285524577,-0.182637,0.125494,2.47437
1472092285547165,-0.18268,0.125609,2.47437
1472092285563730,-0.18268,0.125609,2.47437
1472092285584743,-0.18268,0.125609,2.47437
1472092285606777,-0.18268,0.125609,2.47437
1472092285623844,-0.182606,0.125765,2.47436
1472092285644440,-0.182606,0.125765,2.47436
1472092285667191,-0.182606,0.125765,2.47436
1472092285683805,-0.182606,0.125765,2.47436
1472092285704330,-0.182649,0.12588,2.47435
1472092285727128,-0.182649,0.12588,2.47435
1472092285745273,-0.182649,0.12588,2.47435
1472092285764419,-0.182691,0.125996,2.47435
1472092285787077,-0.182691,0.125996,2.47435
1472092285805093,-0.182691,0.125996,2.47435
1472092285824682,-0.182691,0.125996,2.47435
1472092285846893,-0.183128,0.126504,2.47441
1472092285864002,-0.183521,0.126897,2.47448
1472092285884525,-0.183556,0.127002,2.47436
1472092285907012,-0.183556,0.127002,2.47436
1472092285925161,-0.183439,0.127041,2.47436
1472092285947673,-0.183436,0.12706,2.47456
1472092285966264,-0.183471,0.127165,2.47444
1472092285984674,-0.183471,0.127165,2.47444
1472092286004701,-0.183471,0.127165,2.47444
1472092286026897,-0.183323,0.127475,2.47443
1472092286045073,-0.182867,0.127625,2.47433
1472092286064666,-0.182793,0.12778,2.47432
1472092286087021,-0.182793,0.12778,2.47432
1472092286105028,-0.182719,0.127935,2.47431
1472092286124524,-0.182719,0.127935,2.47431
1472092286147135,-0.182719,0.127935,2.47431
1472092286165287,-0.182719,0.127935,2.47431
1472092286184898,-0.182761,0.128051,2.47431
1472092286206923,-0.182645,0.12809,2.47431
1472092286225015,-0.183024,0.128115,2.4746
1472092286244644,-0.183076,0.127976,2.47479
1472092286266900,-0.182977,0.127771,2.47509
1472092286284997,-0.182452,0.12705,2.47525
1472092286304579,-0.181885,0.126214,2.47541
1472092286327386,-0.181478,0.125058,2.47549
1472092286344964,-0.181339,0.12393,2.47546
1472092286366164,-0.181274,0.123041,2.47551
1472092286387818,-0.181773,0.122218,2.47546
1472092286404910,-0.182367,0.121619,2.47531
1472092286427566,-0.182722,0.121068,2.47483
1472092286450079,-0.183021,0.120675,2.47438
1472092286464793,-0.182884,0.120169,2.47393
1472092286485888,-0.182779,0.119392,2.47349
1472092286507015,-0.182713,0.11875,2.47325
1472092286524613,-0.182577,0.117998,2.47309
1472092286546032,-0.182532,0.117093,2.47296
1472092286567157,-0.181903,0.116404,2.47302
1472092286584788,-0.181146,0.115763,2.47317
1472092286605911,-0.180815,0.115243,2.4734
1472092286625897,-0.18108,0.114893,2.47342
1472092286650883,-0.181652,0.11431,2.47345
1472092286665907,-0.181844,0.113702,2.47319
1472092286687014,-0.181887,0.113818,2.47318
1472092286709396,-0.18177,0.113857,2.47318
1472092286727454,-0.18225,0.114067,2.47296
1472092286747005,-0.18225,0.114067,2.47296
1472092286769633,-0.18225,0.114067,2.47296
1472092286787756,-0.182175,0.114222,2.47296
1472092286807330,-0.182749,0.114033,2.47306
1472092286829354,-0.183322,0.113844,2.47316
1472092286854847,-0.183556,0.11416,2.47323
1472092286866867,-0.183545,0.114581,2.4736
1472092286889511,-0.183524,0.115011,2.47405
1472092286907544,-0.183566,0.115127,2.47404
1472092286926998,-0.183566,0.115127,2.47404
1472092286949650,-0.183725,0.115203,2.47404
1472092286967329,-0.184193,0.11544,2.47412
1472092286987003,-0.184812,0.115743,2.47408
1472092287009634,-0.185598,0.116133,2.47415
1472092287027738,-0.186217,0.116436,2.47411
1472092287047062,-0.186737,0.11678,2.47409
1472092287069295,-0.187132,0.116758,2.47388
1472092287087416,-0.187451,0.116911,2.47388
1472092287106991,-0.187919,0.117148,2.47395
1472092287131157,-0.188548,0.117443,2.47382
1472092287147855,-0.18926,0.117593,2.47381
1472092287166961,-0.18926,0.117593,2.47381
1472092287189460,-0.189826,0.118033,2.47358
1472092287207627,-0.189999,0.118477,2.47335
1472092287227250,-0.190554,0.118926,2.47322
1472092287249488,-0.190597,0.119041,2.47321
1472092287268059,-0.190875,0.119473,2.47327
1472092287286608,-0.191396,0.119818,2.47325
1472092287309847,-0.19178,0.120219,2.47341
1472092287327466,-0.19178,0.120219,2.47341
1472092287348664,-0.191771,0.120208,2.4733
1472092287369418,-0.191706,0.120374,2.4734
1472092287387782,-0.191697,0.120363,2.47329
1472092287408315,-0.191697,0.120363,2.47329
1472092287429859,-0.191547,0.120693,2.47348
1472092287447602,-0.19159,0.120808,2.47347
1472092287468658,-0.191473,0.120848,2.47347
1472092287489725,-0.191473,0.120848,2.47347
1472092287507266,-0.191473,0.120848,2.47347
1472092287528330,-0.191399,0.121003,2.47346
1472092287549990,-0.191399,0.121003,2.47346
1472092287567670,-0.191442,0.121118,2.47345
1472092287588461,-0.191442,0.121118,2.47345
1472092287609578,-0.191474,0.121243,2.47354
1472092287627314,-0.191474,0.121243,2.47354
1472092287649915,-0.1914,0.121398,2.47353
1472092287669624,-0.1914,0.121398,2.47353
1472092287687171,-0.191924,0.121723,2.4733
1472092287710192,-0.191924,0.121723,2.4733
1472092287729715,-0.191555,0.122083,2.47299
1472092287747365,-0.191563,0.122094,2.4731
1472092287769885,-0.191563,0.122094,2.4731
1472092287789448,-0.191596,0.122219,2.47318
1472092287811974,-0.191192,0.122625,2.47334
1472092287830013,-0.191235,0.12274,2.47334
1472092287849547,-0.191235,0.12274,2.47334
1472092287872034,-0.190872,0.122887,2.47362
1472092287890065,-0.190222,0.12325,2.47372
1472092287909615,-0.189733,0.123424,2.47389
1472092287931998,-0.189776,0.12354,2.47388
1472092287950144,-0.189776,0.12354,2.47388
1472092287969778,-0.189776,0.12354,2.47388
1472092287992183,-0.189275,0.123987,2.47406
1472092288009886,-0.188776,0.124416,2.47404
1472092288029550,-0.188659,0.124455,2.47404
1472092288051873,-0.188659,0.124455,2.47404
1472092288069809,-0.188702,0.124571,2.47403
1472092288089525,-0.188679,0.125002,2.47449
1472092288112181,-0.188846,0.125239,2.47495
1472092288129840,-0.188889,0.125355,2.47495
1472092288152387,-0.18845,0.125261,2.47516
1472092288171960,-0.188376,0.125416,2.47515
1472092288189990,-0.188376,0.125416,2.47515
1472092288209510,-0.188302,0.125571,2.47514
1472092288231378,-0.188302,0.125571,2.47514
1472092288250014,-0.187951,0.125689,2.47514
1472092288271121,-0.187951,0.125689,2.47514
1472092288295073,-0.187994,0.125804,2.47513
1472092288310080,-0.187877,0.125844,2.47513
1472092288330793,-0.18792,0.125959,2.47512
1472092288352102,-0.18792,0.125959,2.47512
1472092288377329,-0.187963,0.126075,2.47511
1472092288390807,-0.187952,0.126084,2.47521
1472092288411903,-0.188431,0.126313,2.47519
1472092288430029,-0.189089,0.126356,2.47528
1472092288451208,-0.189868,0.126341,2.47516
1472092288471828,-0.190307,0.126435,2.47495
1472092288489987,-0.191058,0.126916,2.47433
1472092288511016,-0.192094,0.127595,2.47417
1472092288532050,-0.19283,0.127464,2.47407
1472092288549880,-0.192461,0.127429,2.47368
1472092288571134,-0.191251,0.127557,2.47331
1472092288593564,-0.191015,0.12805,2.47358
1472092288610144,-0.190312,0.128701,2.47385
1472092288640231,-0.188304,0.130443,2.47406
1472092288651823,-0.186367,0.132444,2.47456
1472092288669985,-0.185328,0.133975,2.47467
1472092288692595,-0.183597,0.135142,2.47542
1472092288712197,-0.182033,0.135734,2.4763
1472092288729239,-0.180589,0.136267,2.47697
1472092288752464,-0.179259,0.136384,2.47778
1472092288771996,-0.178329,0.136461,2.47817
1472092288790038,-0.177926,0.137113,2.47806
1472092288812823,-0.178155,0.137666,2.47773
1472092288832364,-0.17868,0.137994,2.47751
1472092288849954,-0.17929,0.13877,2.47666
1472092288872863,-0.179924,0.139531,2.47564
1472092288891853,-0.180166,0.140472,2.4753
1472092288909910,-0.180209,0.140983,2.47537
1472092288932476,-0.180642,0.141243,2.47571
1472092288952131,-0.180579,0.141174,2.47622
1472092288969922,-0.180014,0.141106,2.47632
1472092288992488,-0.179691,0.14119,2.47593
1472092289012007,-0.179539,0.141737,2.47552
1472092289034066,-0.178877,0.141713,2.47565
1472092289052655,-0.178288,0.141534,2.47578
1472092289071743,-0.178245,0.141418,2.47578
1472092289094418,-0.178717,0.141637,2.47565
1472092289112469,-0.179477,0.141885,2.47543
1472092289132036,-0.18028,0.142249,2.47519
1472092289154748,-0.180701,0.142607,2.47487
1472092289172325,-0.180701,0.142607,2.47487
1472092289192294,-0.180701,0.142607,2.47487
1472092289222158,-0.181041,0.142714,2.47436
1472092289232667,-0.181451,0.142684,2.47406
1472092289253813,-0.181755,0.142687,2.47367
1472092289277404,-0.181798,0.142803,2.47366
1472092289292390,-0.181681,0.142842,2.47366
1472092289313423,-0.181725,0.142958,2.47366
1472092289334476,-0.181725,0.142958,2.47366
1472092289352422,-0.181725,0.142958,2.47366
1472092289373255,-0.181519,0.143002,2.47327
1472092289394397,-0.181402,0.143041,2.47327
1472092289412446,-0.181402,0.143041,2.47327
1472092289433446,-0.181445,0.143157,2.47327
1472092289454479,-0.181328,0.143197,2.47327
1472092289472473,-0.181974,0.142852,2.47336
1472092289493646,-0.182648,0.142651,2.47375
1472092289514688,-0.182648,0.142651,2.47375
1472092289532633,-0.182691,0.142767,2.47374
1472092289554774,-0.183034,0.142637,2.47363
1472092289574933,-0.183263,0.142577,2.47384
1472092289592406,-0.18331,0.142457,2.47423
1472092289615156,-0.18331,0.142457,2.47423
1472092289634372,-0.18331,0.142457,2.47423
1472092289652919,-0.183353,0.142573,2.47422
1472092289674986,-0.182742,0.143022,2.47401
1472092289694558,-0.182809,0.143517,2.47389
1472092289712454,-0.182725,0.143897,2.47337
1472092289734483,-0.182574,0.144049,2.47289
1472092289762196,-0.182574,0.144049,2.47289
1472092289772556,-0.182693,0.143773,2.47329
1472092289794796,-0.183106,0.143508,2.47339
1472092289814578,-0.183647,0.143195,2.47339
1472092289832605,-0.183865,0.143143,2.47369
1472092289855071,-0.184223,0.142769,2.47388
1472092289874517,-0.18497,0.142018,2.47421
1472092289892639,-0.185893,0.141316,2.47423
1472092289915379,-0.186114,0.14085,2.47425
1472092289934737,-0.186114,0.14085,2.47425
1472092289952368,-0.1865,0.140441,2.47406
1472092289974905,-0.186909,0.140196,2.47436
1472092289994446,-0.186912,0.139961,2.47476
1472092290012474,-0.187208,0.139735,2.47486
1472092290043053,-0.187399,0.13954,2.47487
1472092290056063,-0.187547,0.13923,2.47488
1472092290072599,-0.187663,0.138795,2.47481
1472092290095130,-0.187722,0.138273,2.47504
1472092290114660,-0.188369,0.137929,2.47515
1472092290137147,-0.188782,0.137664,2.47525
1472092290155173,-0.189312,0.13736,2.47535
1472092290175712,-0.189355,0.137476,2.47534
1472092290197239,-0.189472,0.137437,2.47534
1472092290215268,-0.189889,0.137152,2.47524
1472092290236302,-0.190547,0.136801,2.47525
1472092290257294,-0.19116,0.136354,2.47548
1472092290274838,-0.19171,0.136183,2.47576
1472092290295870,-0.19221,0.13615,2.47584
1472092290316898,-0.19221,0.13615,2.47584
1472092290334418,-0.192592,0.136157,2.47593
1472092290355966,-0.193223,0.136056,2.47573
1472092290376994,-0.193765,0.135744,2.47574
1472092290395018,-0.194276,0.135703,2.47574
1472092290416109,-0.194819,0.135787,2.47582
1472092290437204,-0.195467,0.13584,2.476
1472092290454727,-0.196024,0.135894,2.47579
1472092290475888,-0.196024,0.135894,2.47579
1472092290497182,-0.196024,0.135894,2.47579
1472092290514753,-0.196024,0.135894,2.47579
1472092290537313,-0.195907,0.135934,2.47579
1472092290557480,-0.196481,0.136142,2.47595
1472092290575294,-0.19707,0.136321,2.47583
1472092290597511,-0.197436,0.136569,2.47561
1472092290617367,-0.197436,0.136569,2.47561
1472092290634994,-0.197436,0.136569,2.47561
1472092290657668,-0.197479,0.136685,2.4756
1472092290677202,-0.197479,0.136685,2.4756
1472092290694861,-0.197479,0.136685,2.4756
1472092290717418,-0.197479,0.136685,2.4756
1472092290737249,-0.197406,0.13684,2.47559
1472092290754925,-0.197406,0.13684,2.47559
1472092290777680,-0.197394,0.136849,2.47568
1472092290797044,-0.197406,0.13684,2.47559
1472092290815219,-0.197394,0.136849,2.47568
1472092290837249,-0.197109,0.137065,2.47549
1472092290856992,-0.196419,0.137292,2.47539
1472092290875151,-0.195802,0.137363,2.4753
1472092290897506,-0.195845,0.137479,2.47529
1472092290917024,-0.195728,0.137519,2.47529
1472092290935051,-0.195728,0.137519,2.47529
1472092290957622,-0.195728,0.137519,2.47529
1472092290977105,-0.195093,0.13764,2.4757
1472092290994688,-0.194614,0.137805,2.47578
1472092291017828,-0.194614,0.137805,2.47578
1472092291038735,-0.194657,0.137921,2.47578
1472092291054779,-0.194263,0.137923,2.47578
1472092291077417,-0.193779,0.137713,2.476
1472092291098479,-0.193779,0.137713,2.476
1472092291115017,-0.193706,0.13805,2.47667
1472092291137547,-0.193706,0.13805,2.47667
1472092291158603,-0.193711,0.138212,2.47714
1472092291175117,-0.193754,0.138328,2.47713
1472092291197183,-0.193754,0.138328,2.47713
1472092291220173,-0.193754,0.138328,2.47713
1472092291235196,-0.193754,0.138328,2.47713
1472092291257718,-0.193754,0.138328,2.47713
1472092291279278,-0.193754,0.138328,2.47713
1472092291299322,-0.19368,0.138483,2.47712
1472092291317350,-0.19368,0.138483,2.47712
1472092291338376,-0.193723,0.138599,2.47712
1472092291359515,-0.193723,0.138599,2.47712
1472092291377418,-0.193723,0.138599,2.47712
1472092291398507,-0.193723,0.138599,2.47712
1472092291419862,-0.193606,0.138638,2.47711
1472092291437511,-0.193649,0.138754,2.47711
1472092291460160,-0.193649,0.138754,2.47711
1472092291479475,-0.193692,0.13887,2.4771
1472092291497662,-0.193692,0.13887,2.4771
1472092291520714,-0.193575,0.138909,2.4771
1472092291539710,-0.193618,0.139025,2.47709
1472092291557481,-0.193618,0.139025,2.47709
1472092291580130,-0.193606,0.139033,2.47719
1472092291599653,-0.193649,0.139149,2.47718
1472092291617781,-0.193926,0.139187,2.47717
1472092291639783,-0.19418,0.139242,2.47735
1472092291659611,-0.194106,0.139397,2.47734
1472092291677777,-0.194106,0.139397,2.47734
1472092291704294,-0.194106,0.139397,2.47734
1472092291719540,-0.194106,0.139397,2.47734
1472092291737854,-0.194149,0.139513,2.47734
1472092291760168,-0.193556,0.140358,2.47721
1472092291779393,-0.19335,0.141586,2.47703
1472092291797418,-0.193823,0.142595,2.47704
1472092291818951,-0.194284,0.142693,2.47685
1472092291839831,-0.194065,0.142742,2.47655
1472092291857857,-0.193227,0.142884,2.47637
1472092291879887,-0.19311,0.142923,2.47637
1472092291906937,-0.193628,0.143023,2.47663
1472092291917452,-0.194214,0.143223,2.47671
1472092291939472,-0.194214,0.143223,2.47671
1472092291959507,-0.193548,0.143828,2.4765
1472092291985047,-0.193591,0.143944,2.47649
1472092292000080,-0.193591,0.143944,2.47649
1472092292019618,-0.193591,0.143944,2.47649
1472092292037645,-0.193474,0.143984,2.47649
1472092292059925,-0.193739,0.14403,2.47658
1472092292080985,-0.193782,0.144146,2.47657
1472092292097765,-0.193782,0.144146,2.47657
1472092292119933,-0.193782,0.144146,2.47657
1472092292141025,-0.193825,0.144262,2.47657
1472092292157689,-0.193825,0.144262,2.47657
1472092292180256,-0.193708,0.144301,2.47656
1472092292200913,-0.193708,0.144301,2.47656
1472092292217520,-0.193751,0.144417,2.47656
1472092292240205,-0.193751,0.144417,2.47656
1472092292261240,-0.193739,0.144425,2.47665
1472092292277402,-0.193739,0.144425,2.47665
1472092292299932,-0.193782,0.144541,2.47664
1472092292321058,-0.193782,0.144541,2.47664
1472092292337671,-0.193782,0.144541,2.47664
1472092292359989,-0.194165,0.144548,2.47673
1472092292381050,-0.194165,0.144548,2.47673
1472092292397552,-0.194165,0.144548,2.47673
1472092292420373,-0.194091,0.144703,2.47672
1472092292442581,-0.194091,0.144703,2.47672
1472092292462140,-0.194251,0.14478,2.47672
1472092292480177,-0.193751,0.144417,2.47656
1472092292502378,-0.193333,0.144039,2.47667
1472092292521898,-0.19286,0.144399,2.47755
1472092292540416,-0.193273,0.14453,2.47772
1472092292562448,-0.193316,0.144646,2.47772
1472092292581979,-0.193316,0.144646,2.47772
1472092292599501,-0.193359,0.144762,2.47771
1472092292622722,-0.193359,0.144762,2.47771
1472092292642239,-0.193359,0.144762,2.47771
1472092292660254,-0.193242,0.144801,2.47771
1472092292682835,-0.193668,0.144924,2.47779
1472092292702359,-0.193668,0.144924,2.47779
1472092292720389,-0.193711,0.145041,2.47778
1472092292742839,-0.193711,0.145041,2.47778
1472092292761908,-0.193711,0.145041,2.47778
1472092292780501,-0.193711,0.145041,2.47778
1472092292802519,-0.193754,0.145157,2.47778
1472092292822179,-0.193754,0.145157,2.47778
1472092292840297,-0.193746,0.145144,2.47766
1472092292862444,-0.193789,0.14526,2.47766
1472092292882494,-0.193789,0.14526,2.47766
1472092292900043,-0.193789,0.14526,2.47766
1472092292922746,-0.193789,0.14526,2.47766
1472092292942333,-0.193832,0.145376,2.47765
1472092292959992,-0.193832,0.145376,2.47765
1472092292982606,-0.193832,0.145376,2.47765
1472092293003842,-0.193832,0.145376,2.47765
1472092293019934,-0.193875,0.145492,2.47764
1472092293042613,-0.193875,0.145492,2.47764
1472092293063900,-0.193875,0.145492,2.47764
1472092293080145,-0.193758,0.145532,2.47764
1472092293109489,-0.193801,0.145648,2.47764
1472092293123489,-0.193918,0.145609,2.47764
1472092293140307,-0.193918,0.145609,2.47764
1472092293162402,-0.193789,0.145656,2.47773
1472092293183533,-0.194257,0.1455,2.47773
1472092293200092,-0.194757,0.145468,2.47782
1472092293222764,-0.194874,0.145429,2.47782
1472092293243981,-0.194917,0.145545,2.47781
1472092293259959,-0.194917,0.145545,2.47781
1472092293282783,-0.194917,0.145545,2.47781
1472092293302831,-0.194917,0.145545,2.47781
1472092293325381,-0.194917,0.145545,2.47781
1472092293342104,-0.195077,0.145622,2.47781
1472092293364314,-0.195077,0.145622,2.47781
1472092293385746,-0.195077,0.145622,2.47781
1472092293401775,-0.19512,0.145738,2.4778
1472092293424379,-0.19512,0.145738,2.4778
1472092293445375,-0.19512,0.145738,2.4778
1472092293461499,-0.19512,0.145738,2.4778
1472092293483261,-0.195164,0.145854,2.47779
1472092293512830,-0.195164,0.145854,2.47779
1472092293521921,-0.195164,0.145854,2.47779
1472092293544520,-0.195324,0.145931,2.47779
1472092293565720,-0.195316,0.145919,2.47767
1472092293581667,-0.195316,0.145919,2.47767
1472092293604511,-0.195316,0.145919,2.47767
1472092293625272,-0.195433,0.145879,2.47767
1472092293641834,-0.195476,0.145995,2.47767
1472092293664488,-0.195476,0.145995,2.47767
1472092293685254,-0.195476,0.145995,2.47767
1472092293716901,-0.195519,0.146112,2.47766
1472092293724425,-0.195624,0.146081,2.47775
1472092293745522,-0.195624,0.146081,2.47775
1472092293761723,-0.195667,0.146197,2.47775
1472092293784367,-0.195667,0.146197,2.47775
1472092293805561,-0.195667,0.146197,2.47775
1472092293822271,-0.19571,0.146313,2.47774
1472092293844299,-0.19571,0.146313,2.47774
1472092293865251,-0.19571,0.146313,2.47774
1472092293881533,-0.19571,0.146313,2.47774
1472092293904257,-0.195871,0.14639,2.47773
1472092293925366,-0.195871,0.14639,2.47773
1472092293941880,-0.195914,0.146506,2.47773
1472092293964435,-0.195914,0.146506,2.47773
1472092293985392,-0.195914,0.146506,2.47773
1472092294001517,-0.195914,0.146506,2.47773
1472092294024137,-0.195957,0.146622,2.47772
1472092294045349,-0.195957,0.146622,2.47772
1472092294061946,-0.195957,0.146622,2.47772
1472092294084254,-0.196,0.146738,2.47771
1472092294105401,-0.196,0.146738,2.47771
1472092294129523,-0.196,0.146738,2.47771
1472092294144563,-0.19616,0.146815,2.47771
1472092294165593,-0.196035,0.146842,2.47759
1472092294181648,-0.196152,0.146803,2.4776
1472092294204296,-0.19494,0.14774,2.47758
1472092294225482,-0.194143,0.149418,2.47721
1472092294241504,-0.194074,0.15074,2.47722
1472092294264097,-0.19381,0.150855,2.4776
1472092294286153,-0.192986,0.150754,2.47773
1472092294301684,-0.191792,0.151033,2.47776
1472092294324576,-0.191219,0.151616,2.47774
1472092294346588,-0.191644,0.152135,2.47789
1472092294369141,-0.191687,0.152251,2.47788
1472092294384154,-0.191687,0.152251,2.47788
1472092294407197,-0.191249,0.152532,2.47797
1472092294421219,-0.19141,0.152609,2.47796
1472092294451593,-0.19141,0.152609,2.47796
1472092294466615,-0.19141,0.152609,2.47796
1472092294480911,-0.19141,0.152609,2.47796
1472092294504130,-0.19141,0.152609,2.47796
1472092294526930,-0.19141,0.152609,2.47796
1472092294549469,-0.191453,0.152725,2.47796
1472092294564484,-0.191453,0.152725,2.47796
1472092294587019,-0.191496,0.152841,2.47795
1472092294601033,-0.191496,0.152841,2.47795
1472092294624073,-0.191496,0.152841,2.47795
1472092294646602,-0.191496,0.152841,2.47795
1472092294661123,-0.191496,0.152841,2.47795
1472092294684181,-0.191539,0.152958,2.47794
1472092294706850,-0.191656,0.152919,2.47794
1472092294727881,-0.1917,0.153035,2.47794
1472092294744396,-0.1917,0.153035,2.47794
1472092294766434,-0.1917,0.153035,2.47794
1472092294787965,-0.191743,0.153151,2.47793
1472092294803990,-0.191743,0.153151,2.47793
1472092294827028,-0.191743,0.153151,2.47793
1472092294848046,-0.191766,0.153262,2.4779
1472092294864075,-0.191809,0.153379,2.4779
1472092294886622,-0.191809,0.153379,2.4779
1472092294907663,-0.192204,0.152982,2.47782
1472092294924185,-0.192647,0.152446,2.47793
1472092294946262,-0.19316,0.151776,2.47825
1472092294968019,-0.193396,0.151068,2.47858
1472092294984576,-0.193848,0.150545,2.4788
1472092295006595,-0.194027,0.150359,2.4789
1472092295027824,-0.194354,0.150259,2.47909
1472092295044363,-0.194646,0.150055,2.47939
1472092295066998,-0.194942,0.14983,2.47949
1472092295087783,-0.194999,0.149705,2.47979
1472092295104520,-0.194944,0.149597,2.47989
1472092295126696,-0.194944,0.149597,2.47989
1472092295147828,-0.19508,0.149295,2.47999
1472092295164235,-0.195384,0.149083,2.48021
1472092295186882,-0.195946,0.148905,2.48039
1472092295207909,-0.195946,0.148905,2.48039
1472092295224257,-0.195872,0.14906,2.48038
1472092295254497,-0.195989,0.149021,2.48038
1472092295269139,-0.195915,0.149176,2.48038
1472092295284616,-0.195915,0.149176,2.48038
1472092295306713,-0.195915,0.149176,2.48038
1472092295329285,-0.195915,0.149176,2.48038
1472092295344392,-0.195915,0.149176,2.48038
1472092295366651,-0.195958,0.149292,2.48037
1472092295389433,-0.195958,0.149292,2.48037
1472092295410533,-0.195958,0.149292,2.48037
1472092295426691,-0.196001,0.149409,2.48036
1472092295449189,-0.196001,0.149409,2.48036
1472092295463698,-0.196001,0.149409,2.48036
1472092295486747,-0.196044,0.149525,2.48036
1472092295509419,-0.196044,0.149525,2.48036
1472092295523894,-0.196087,0.149641,2.48035
1472092295546952,-0.196079,0.149628,2.48024
1472092295569755,-0.196079,0.149628,2.48024
1472092295583401,-0.196087,0.149641,2.48035
1472092295606512,-0.196079,0.149628,2.48024
1472092295629470,-0.196122,0.149744,2.48023
1472092295643485,-0.196122,0.149744,2.48023
1472092295666627,-0.196122,0.149744,2.48023
1472092295689470,-0.196165,0.149861,2.48022
1472092295703540,-0.196165,0.149861,2.48022
1472092295727285,-0.196165,0.149861,2.48022
1472092295748703,-0.196165,0.149861,2.48022
1472092295770263,-0.196165,0.149861,2.48022
1472092295786950,-0.196313,0.149946,2.48031
1472092295809446,-0.196313,0.149946,2.48031
1472092295830218,-0.196313,0.149946,2.48031
1472092295846797,-0.196196,0.149985,2.48031
1472092295869426,-0.196313,0.149946,2.48031
1472092295890478,-0.196356,0.150062,2.4803
1472092295906755,-0.196356,0.150062,2.4803
1472092295929159,-0.196708,0.149946,2.4803
1472092295950242,-0.197164,0.149799,2.4804
1472092295966708,-0.197651,0.149776,2.48058
1472092295989366,-0.197651,0.149776,2.48058
1472092296011868,-0.197695,0.149892,2.48057
1472092296027702,-0.197695,0.149892,2.48057
1472092296049304,-0.197812,0.149853,2.48057
1472092296070556,-0.197812,0.149853,2.48057
1472092296087024,-0.197812,0.149853,2.48057
1472092296109090,-0.197855,0.14997,2.48056
1472092296130234,-0.197855,0.14997,2.48056
1472092296146814,-0.197972,0.149931,2.48056
1472092296169303,-0.197972,0.149931,2.48056
1472092296192009,-0.197972,0.149931,2.48056
1472092296207058,-0.197972,0.149931,2.48056
1472092296229156,-0.197972,0.149931,2.48056
1472092296251855,-0.198133,0.150008,2.48056
1472092296266496,-0.198133,0.150008,2.48056
1472092296289173,-0.198133,0.150008,2.48056
1472092296311908,-0.198133,0.150008,2.48056
1472092296325998,-0.19825,0.149969,2.48056
1472092296349534,-0.19825,0.149969,2.48056
1472092296371695,-0.198293,0.150085,2.48055
1472092296386414,-0.198293,0.150085,2.48055
1472092296409057,-0.198285,0.150073,2.48044
1472092296431674,-0.198445,0.15015,2.48043
1472092296446158,-0.198445,0.15015,2.48043
1472092296469282,-0.198445,0.15015,2.48043
1472092296492213,-0.198445,0.15015,2.48043
1472092296506343,-0.198445,0.15015,2.48043
1472092296529208,-0.198562,0.150111,2.48043
1472092296551254,-0.198562,0.150111,2.48043
1472092296566323,-0.198605,0.150227,2.48043
1472092296589230,-0.198723,0.150188,2.48043
1472092296611883,-0.198723,0.150188,2.48043
1472092296626367,-0.198723,0.150188,2.48043
1472092296650092,-0.198723,0.150188,2.48043
1472092296671856,-0.198723,0.150188,2.48043
1472092296693059,-0.198766,0.150304,2.48042
1472092296709182,-0.198766,0.150304,2.48042
1472092296731987,-0.198766,0.150304,2.48042
1472092296753013,-0.198883,0.150266,2.48042
1472092296769146,-0.198926,0.150382,2.48041
1472092296791824,-0.198451,0.150791,2.48022
1472092296813098,-0.198319,0.151864,2.48005
1472092296829261,-0.198494,0.152936,2.47949
1472092296852109,-0.198641,0.154047,2.47932
1472092296872764,-0.198623,0.154706,2.47928
1472092296889293,-0.198844,0.155266,2.47904
1472092296912024,-0.198892,0.155757,2.4789
1472092296932987,-0.198991,0.155981,2.4788
1472092296949514,-0.198774,0.156425,2.47858
1472092296972050,-0.198774,0.156425,2.47858
1472092296992593,-0.198774,0.156425,2.47858
1472092297008112,-0.198774,0.156425,2.47858
1472092297031629,-0.198817,0.156541,2.47857
1472092297052653,-0.198817,0.156541,2.47857
1472092297069176,-0.198861,0.156657,2.47856
1472092297092008,-0.198652,0.156485,2.47878
1472092297113087,-0.198592,0.156003,2.47901
1472092297129164,-0.198562,0.155645,2.47933
1472092297151761,-0.198684,0.155351,2.47952
1472092297174351,-0.198671,0.154964,2.47954
1472092297189338,-0.198476,0.154783,2.47967
1472092297211409,-0.198407,0.154288,2.47979
1472092297234205,-0.198391,0.153922,2.48001
1472092297249365,-0.198434,0.154038,2.48
1472092297271966,-0.198434,0.154038,2.48
1472092297294554,-0.198434,0.154038,2.48
1472092297308691,-0.198434,0.154038,2.48
1472092297331904,-0.198477,0.154154,2.48
1472092297353988,-0.198477,0.154154,2.48
1472092297368688,-0.198477,0.154154,2.48
1472092297391795,-0.198477,0.154154,2.48
1472092297414306,-0.198477,0.154154,2.48
1472092297428550,-0.19852,0.15427,2.47999
1472092297451751,-0.19852,0.15427,2.47999
1472092297474340,-0.19852,0.15427,2.47999
1472092297488680,-0.198138,0.154262,2.47991
1472092297511852,-0.198021,0.154301,2.4799
1472092297534541,-0.198021,0.154301,2.4799
1472092297549087,-0.198064,0.154418,2.4799
1472092297571791,-0.198064,0.154418,2.4799
1472092297594695,-0.198064,0.154418,2.4799
1472092297607661,-0.198064,0.154418,2.4799
1472092297631827,-0.198064,0.154418,2.4799
1472092297654429,-0.198064,0.154418,2.4799
1472092297675629,-0.19799,0.154573,2.47989
1472092297691817,-0.19799,0.154573,2.47989
1472092297714516,-0.19799,0.154573,2.47989
1472092297735621,-0.197977,0.154581,2.47998
1472092297751689,-0.197977,0.154581,2.47998
1472092297774509,-0.19802,0.154697,2.47998
1472092297795276,-0.19802,0.154697,2.47998
1472092297812239,-0.19802,0.154697,2.47998
1472092297834307,-0.19802,0.154697,2.47998
1472092297855512,-0.197903,0.154736,2.47998
1472092297871643,-0.197903,0.154736,2.47998
1472092297900174,-0.197946,0.154853,2.47997
1472092297915449,-0.197946,0.154853,2.47997
1472092297932069,-0.197946,0.154853,2.47997
1472092297954449,-0.19799,0.154969,2.47996
1472092297975674,-0.19799,0.154969,2.47996
1472092297991696,-0.19799,0.154969,2.47996
1472092298014221,-0.19799,0.154969,2.47996
1472092298035245,-0.198033,0.155085,2.47996
1472092298051776,-0.198033,0.155085,2.47996
1472092298074258,-0.198033,0.155085,2.47996
1472092298097428,-0.198033,0.155085,2.47996
1472092298112041,-0.198076,0.155201,2.47995
1472092298134315,-0.197759,0.155655,2.47943
1472092298156381,-0.197949,0.15609,2.47911
1472092298171992,-0.198418,0.156726,2.47925
1472092298194218,-0.199022,0.157061,2.4795
1472092298216962,-0.199022,0.157061,2.4795
1472092298231168,-0.198444,0.157268,2.47961
1472092298254165,-0.198444,0.157268,2.47961
1472092298276719,-0.198327,0.157307,2.47961
1472092298291234,-0.19837,0.157587,2.48008
1472092298314350,-0.198766,0.157353,2.48047
1472092298336882,-0.198983,0.157305,2.48077
1472092298351398,-0.198975,0.157292,2.48066
1472092298374557,-0.199018,0.157408,2.48065
1472092298396600,-0.199018,0.157408,2.48065
1472092298410620,-0.199061,0.157525,2.48064
1472092298434159,-0.199048,0.157533,2.48073
1472092298456707,-0.199048,0.157533,2.48073
1472092298471247,-0.1994,0.157417,2.48073
1472092298494282,-0.199796,0.157416,2.48073
1472092298516910,-0.199839,0.157533,2.48072
1472092298531094,-0.199826,0.157541,2.48081
1472092298554623,-0.199826,0.157541,2.48081
1472092298577181,-0.199869,0.157657,2.48081
1472092298597850,-0.199869,0.157657,2.48081
1472092298614764,-0.199869,0.157657,2.48081
1472092298636917,-0.200326,0.15751,2.4809
1472092298658009,-0.200326,0.15751,2.4809
1472092298673984,-0.200369,0.157627,2.48089
1472092298697189,-0.200369,0.157627,2.48089
1472092298717714,-0.200369,0.157627,2.48089
1472092298734331,-0.200782,0.157364,2.48099
1472092298757033,-0.200782,0.157364,2.48099
1472092298777834,-0.200826,0.15748,2.48098
1472092298794341,-0.200826,0.15748,2.48098
1472092298816643,-0.200826,0.15748,2.48098
1472092298839259,-0.201208,0.157092,2.481
1472092298854438,-0.201208,0.157092,2.481
1472092298876577,-0.201418,0.156635,2.48111
1472092298897669,-0.201418,0.156635,2.48111
1472092298914212,-0.201075,0.156532,2.48162
1472092298937233,-0.201118,0.156649,2.48162
1472092298957752,-0.201457,0.156541,2.48171
1472092298974326,-0.201575,0.156502,2.48171
1472092298996845,-0.201501,0.156657,2.4817
1472092299019397,-0.201501,0.156657,2.4817
1472092299034420,-0.201727,0.156566,2.48159
1472092299064459,-0.202036,0.156334,2.4816
1472092299079481,-0.20211,0.156179,2.48161
1472092299094518,-0.202258,0.155869,2.48162
1472092299116551,-0.202258,0.155869,2.48162
1472092299139086,-0.202597,0.155761,2.48171
1472092299154110,-0.20318,0.155589,2.48192
1472092299176617,-0.203223,0.155705,2.48191
1472092299199602,-0.203371,0.155395,2.48193
1472092299213117,-0.203254,0.155434,2.48192
1472092299236667,-0.203254,0.155434,2.48192
1472092299259198,-0.203254,0.155434,2.48192
1472092299273720,-0.203254,0.155434,2.48192
1472092299296611,-0.203285,0.155559,2.48201
1472092299319215,-0.203285,0.155559,2.48201
1472092299333737,-0.203285,0.155559,2.48201
1472092299356799,-0.203285,0.155559,2.48201
1472092299379405,-0.203285,0.155559,2.48201
1472092299393866,-0.203328,0.155675,2.482
1472092299417051,-0.203328,0.155675,2.482
1472092299439631,-0.203328,0.155675,2.482
1472092299453636,-0.203328,0.155675,2.482
1472092299476781,-0.203328,0.155675,2.482
1472092299499556,-0.203328,0.155675,2.482
1472092299520669,-0.203328,0.155675,2.482
1472092299536926,-0.20321,0.155714,2.482
1472092299559527,-0.20321,0.155714,2.482
1472092299580752,-0.20321,0.155714,2.482
1472092299596673,-0.20321,0.155714,2.482
1472092299619480,-0.20321,0.155714,2.482
1472092299640646,-0.20321,0.155714,2.482
1472092299656714,-0.20321,0.155714,2.482
1472092299679307,-0.20321,0.155714,2.482
1472092299700500,-0.20321,0.155714,2.482
1472092299716663,-0.20321,0.155714,2.482
1472092299739324,-0.203254,0.15583,2.482
1472092299760355,-0.203254,0.15583,2.482
1472092299776617,-0.203254,0.15583,2.482
1472092299799283,-0.203254,0.15583,2.482
1472092299820518,-0.203093,0.155753,2.482
1472092299836771,-0.203093,0.155753,2.482
1472092299859271,-0.203254,0.15583,2.482
1472092299880543,-0.203254,0.15583,2.482
1472092299897096,-0.20321,0.155714,2.482
1472092299919702,-0.20321,0.155714,2.482
1472092299940261,-0.203007,0.155124,2.48195
1472092299956959,-0.20289,0.155163,2.48194
1472092299979493,-0.203185,0.155335,2.48212
1472092300002028,-0.203194,0.155348,2.48223
1472092300015553,-0.203194,0.155348,2.48223
1472092300039092,-0.202724,0.155503,2.48223
1472092300061629,-0.202064,0.155456,2.48215
1472092300076147,-0.202051,0.155464,2.48224
1472092300099278,-0.202651,0.155822,2.48269
1472092300121809,-0.203255,0.155762,2.48287
1472092300136329,-0.203373,0.155724,2.48287
1472092300159362,-0.202477,0.155753,2.48279
1472092300181893,-0.202477,0.155753,2.48279
1472092300196133,-0.202434,0.155637,2.4828
1472092300218664,-0.202434,0.155637,2.4828
1472092300241694,-0.202477,0.155753,2.48279
1472092300256206,-0.202477,0.155753,2.48279
1472092300279265,-0.202477,0.155753,2.48279
1472092300301638,-0.202477,0.155753,2.48279
1472092300323317,-0.202477,0.155753,2.48279
1472092300339403,-0.202477,0.155753,2.48279
1472092300361986,-0.202477,0.155753,2.48279
1472092300376110,-0.202477,0.155753,2.48279
1472092300399245,-0.202477,0.155753,2.48279
1472092300421792,-0.20236,0.155792,2.48279
1472092300436417,-0.20236,0.155792,2.48279
1472092300459469,-0.20236,0.155792,2.48279
1472092300482042,-0.20236,0.155792,2.48279
1472092300502689,-0.20236,0.155792,2.48279
1472092300526873,-0.202242,0.155831,2.48279
1472092300541942,-0.202251,0.155844,2.4829
1472092300563172,-0.202208,0.155728,2.48291
1472092300579835,-0.202208,0.155728,2.48291
1472092300601666,-0.202208,0.155728,2.48291
1472092300622798,-0.201652,0.15565,2.48292
1472092300639348,-0.201652,0.15565,2.48292
1472092300661894,-0.201652,0.15565,2.48292
1472092300683216,-0.201652,0.15565,2.48292
1472092300699536,-0.201665,0.155641,2.48283
1472092300721745,-0.201534,0.155689,2.48292
1472092300742743,-0.201534,0.155689,2.48292
1472092300759154,-0.201534,0.155689,2.48292
1472092300781811,-0.20109,0.155826,2.48274
1472092300803037,-0.200356,0.155934,2.48265
1472092300819200,-0.200356,0.155934,2.48265
1472092300841903,-0.200313,0.155818,2.48266
1472092300862922,-0.200282,0.155693,2.48257
1472092300878950,-0.200235,0.155762,2.48325
1472092300901665,-0.200413,0.156136,2.4839
1472092300924196,-0.200928,0.155865,2.48429
1472092300939219,-0.200853,0.15602,2.48429
1472092300961665,-0.200853,0.15602,2.48429
1472092300984099,-0.20081,0.155904,2.48429
1472092300999458,-0.20081,0.155904,2.48429
1472092301020986,-0.20081,0.155904,2.48429
1472092301044121,-0.200693,0.155943,2.48429
1472092301059134,-0.200693,0.155943,2.48429
1472092301081608,-0.200736,0.156059,2.48429
1472092301104123,-0.200736,0.156059,2.48429
1472092301118641,-0.200736,0.156059,2.48429
1472092301141675,-0.200736,0.156059,2.48429
1472092301164211,-0.200736,0.156059,2.48429
1472092301178775,-0.200736,0.156059,2.48429
1472092301201895,-0.200693,0.155943,2.48429
1472092301224161,-0.200793,0.155934,2.48459
1472092301238922,-0.200793,0.155934,2.48459
1472092301261953,-0.200793,0.155934,2.48459
1472092301284483,-0.200793,0.155934,2.48459
1472092301298521,-0.200793,0.155934,2.48459
1472092301322071,-0.200793,0.155934,2.48459
1472092301344104,-0.200793,0.155934,2.48459
1472092301358627,-0.200793,0.155934,2.48459
1472092301381660,-0.201188,0.155935,2.48458
1472092301404183,-0.201188,0.155935,2.48458
1472092301425399,-0.201297,0.155883,2.48447
1472092301441937,-0.201297,0.155883,2.48447
1472092301464554,-0.201188,0.155935,2.48458
1472092301485593,-0.201476,0.155698,2.48457
1472092301501681,-0.20175,0.155759,2.48477
1472092301524210,-0.20175,0.155759,2.48477
1472092301545329,-0.20175,0.155759,2.48477
1472092301561857,-0.20175,0.155759,2.48477
1472092301584446,-0.201426,0.156232,2.48445
1472092301605540,-0.201412,0.156869,2.48421
1472092301622031,-0.201514,0.157468,2.48397
1472092301644558,-0.201321,0.15829,2.48364
1472092301665587,-0.201542,0.158686,2.48293
1472092301681619,-0.201893,0.158802,2.48253
1472092301704481,-0.202011,0.158764,2.48253
1472092301725511,-0.202011,0.158764,2.48253
1472092301742040,-0.20225,0.158828,2.4828
1472092301764430,-0.203128,0.158829,2.48317
1472092301785464,-0.20382,0.158606,2.48326
1472092301801984,-0.203777,0.158093,2.4832
1472092301823512,-0.203753,0.157318,2.48324
1472092301845244,-0.203637,0.156728,2.48357
1472092301861760,-0.203682,0.156216,2.48389
1472092301884292,-0.204166,0.155821,2.48421
1472092301907073,-0.204697,0.155521,2.48431
1472092301921597,-0.205036,0.155414,2.4844
1472092301944133,-0.205036,0.155414,2.4844
1472092301966156,-0.205036,0.155414,2.4844
1472092301989191,-0.205036,0.155414,2.4844
1472092302004214,-0.205036,0.155414,2.4844
1472092302026527,-0.205036,0.155414,2.4844
1472092302041167,-0.205036,0.155414,2.4844
1472092302064240,-0.205581,0.155104,2.48441
1472092302086946,-0.205611,0.155229,2.4845
1472092302101555,-0.205611,0.155229,2.4845
1472092302124377,-0.205611,0.155229,2.4845
1472092302147388,-0.205611,0.155229,2.4845
1472092302161351,-0.205611,0.155229,2.4845
1472092302184624,-0.205581,0.155104,2.48441
1472092302207371,-0.205581,0.155104,2.48441
1472092302221401,-0.205581,0.155104,2.48441
1472092302244420,-0.205389,0.155463,2.48487
1472092302266955,-0.205372,0.155494,2.48517
1472092302280974,-0.20536,0.155502,2.48526
1472092302304525,-0.20536,0.155502,2.48526
1472092302327070,-0.205242,0.155541,2.48526
1472092302341095,-0.205242,0.155541,2.48526
1472092302364126,-0.205199,0.155425,2.48527
1472092302394358,-0.205199,0.155425,2.48527
1472092302407878,-0.205199,0.155425,2.48527
1472092302424420,-0.205242,0.155541,2.48526
1472092302446945,-0.205125,0.15558,2.48526
1472092302467973,-0.205125,0.15558,2.48526
1472092302484150,-0.205125,0.15558,2.48526
1472092302506877,-0.205125,0.15558,2.48526
1472092302528112,-0.205125,0.15558,2.48526
1472092302544645,-0.205007,0.155618,2.48526
1472092302566621,-0.204994,0.155627,2.48535
1472092302587899,-0.204994,0.155627,2.48535
1472092302604506,-0.204994,0.155627,2.48535
1472092302626136,-0.204994,0.155627,2.48535
1472092302648119,-0.204994,0.155627,2.48535
1472092302664589,-0.204994,0.155627,2.48535
1472092302686955,-0.204877,0.155666,2.48535
1472092302707533,-0.204877,0.155666,2.48535
1472092302724702,-0.204877,0.155666,2.48535
1472092302746783,-0.20492,0.155782,2.48535
1472092302767788,-0.20492,0.155782,2.48535
1472092302784371,-0.204811,0.155834,2.48546
1472092302806964,-0.204811,0.155834,2.48546
1472092302829037,-0.204811,0.155834,2.48546
1472092302843983,-0.204694,0.155872,2.48546
1472092302867140,-0.204694,0.155872,2.48546
1472092302889231,-0.204694,0.155872,2.48546
1472092302904702,-0.204694,0.155872,2.48546
1472092302926795,-0.204694,0.155872,2.48546
1472092302949463,-0.204694,0.155872,2.48546
1472092302964564,-0.204737,0.155988,2.48545
1472092302987125,-0.204619,0.156027,2.48545
1472092303009716,-0.204619,0.156027,2.48545
1472092303023638,-0.204619,0.156027,2.48545
1472092303046785,-0.204619,0.156027,2.48545
1472092303075582,-0.204619,0.156027,2.48545
1472092303083172,-0.204619,0.156027,2.48545
1472092303107072,-0.204619,0.156027,2.48545
1472092303129672,-0.204619,0.156027,2.48545
1472092303143889,-0.204502,0.156066,2.48545
1472092303167040,-0.204502,0.156066,2.48545
1472092303189759,-0.204502,0.156066,2.48545
1472092303203758,-0.204384,0.156104,2.48545
1472092303227045,-0.204384,0.156104,2.48545
1472092303249671,-0.204384,0.156104,2.48545
1472092303263698,-0.204384,0.156104,2.48545
1472092303286201,-0.204267,0.156143,2.48545
1472092303309373,-0.204427,0.15622,2.48544
1472092303330834,-0.20431,0.156259,2.48544
1472092303347021,-0.203777,0.156956,2.48541
1472092303369512,-0.203374,0.158002,2.48536
1472092303390539,-0.203129,0.158462,2.48532
1472092303407064,-0.202846,0.158677,2.48513
1472092303428611,-0.202475,0.159055,2.48502
1472092303450476,-0.201418,0.159402,2.48502
1472092303467503,-0.201461,0.159519,2.48502
1472092303489556,-0.201387,0.159674,2.48501
1472092303510438,-0.201387,0.159674,2.48501
1472092303526964,-0.201547,0.159752,2.485
1472092303549506,-0.20143,0.15979,2.485
1472092303570538,-0.20143,0.15979,2.485
1472092303587070,-0.20143,0.15979,2.485
1472092303609607,-0.20143,0.15979,2.485
1472092303630360,-0.201473,0.159906,2.485
1472092303646893,-0.201356,0.159945,2.485
1472092303669429,-0.201356,0.159945,2.485
1472092303690468,-0.201411,0.160449,2.48497
1472092303707000,-0.201411,0.160449,2.48497
1472092303729546,-0.201411,0.160449,2.48497
1472092303750579,-0.201411,0.160449,2.48497
1472092303767097,-0.201237,0.16038,2.48507
1472092303789630,-0.201234,0.160006,2.4852
1472092303811673,-0.201135,0.159385,2.48523
1472092303826700,-0.201272,0.158687,2.48527
1472092303856736,-0.20114,0.157964,2.48542
1472092303871878,-0.201081,0.157481,2.48565
1472092303886971,-0.20142,0.157374,2.48574
1472092303909589,-0.201684,0.157818,2.4859
1472092303932160,-0.201974,0.158245,2.48587
1472092303946242,-0.202004,0.15837,2.48596
1472092303969872,-0.201886,0.158409,2.48596
1472092303991937,-0.201886,0.158409,2.48596
1472092304006105,-0.201819,0.157914,2.48608
1472092304029701,-0.202099,0.157324,2.4864
1472092304051819,-0.202453,0.156977,2.48681
1472092304066292,-0.20269,0.156668,2.48721
1472092304088840,-0.202969,0.156475,2.4876
1472092304111850,-0.202969,0.156475,2.4876
1472092304126432,-0.203012,0.156592,2.4876
1472092304149497,-0.203396,0.156205,2.48761
1472092304172146,-0.203885,0.155789,2.48772
1472092304194307,-0.204295,0.15555,2.48802
1472092304209492,-0.204567,0.155345,2.48831
1472092304231209,-0.204934,0.154989,2.48862
1472092304246169,-0.205274,0.154883,2.48871
1472092304269229,-0.205794,0.154593,2.48891
1472092304292050,-0.206057,0.154267,2.48913
1472092304312581,-0.206268,0.153812,2.48924
1472092304329648,-0.206858,0.153389,2.48965
1472092304351834,-0.207731,0.152985,2.48985
1472092304374504,-0.208407,0.152796,2.49024
1472092304389661,-0.208692,0.152583,2.49043
1472092304411844,-0.209016,0.152509,2.49083
1472092304433022,-0.209386,0.152529,2.49101
1472092304449684,-0.209798,0.152291,2.49131
1472092304471804,-0.2102,0.15204,2.49151
1472092304492963,-0.210697,0.152036,2.4918
1472092304509241,-0.211333,0.152106,2.49207
1472092304531781,-0.211926,0.152059,2.49234
1472092304552870,-0.212575,0.15212,2.49252
1472092304569444,-0.212958,0.152132,2.49261
1472092304592163,-0.213354,0.152134,2.4926
1472092304612999,-0.213823,0.152378,2.49268
1472092304629246,-0.214075,0.152437,2.49286
1472092304651859,-0.214662,0.152644,2.49293
1472092304672953,-0.215075,0.152782,2.4931
1472092304689701,-0.21543,0.153041,2.49297
1472092304711875,-0.215417,0.153051,2.49307
1472092304734322,-0.21546,0.153167,2.49306
1472092304749320,-0.215342,0.153205,2.49306
1472092304771990,-0.21565,0.153372,2.49314
1472092304794641,-0.21565,0.153372,2.49314
1472092304809326,-0.21565,0.153372,2.49314
1472092304832163,-0.215693,0.153488,2.49313
1472092304854318,-0.216115,0.153639,2.49341
1472092304868829,-0.216398,0.153825,2.49368
1472092304891604,-0.216929,0.153925,2.49385
1472092304914492,-0.217342,0.154063,2.49403
1472092304928975,-0.217693,0.154346,2.4941
1472092304951768,-0.218002,0.154512,2.49418
1472092304974400,-0.218002,0.154512,2.49418
1472092304988996,-0.218045,0.154629,2.49417
1472092305012231,-0.218045,0.154629,2.49417
1472092305033494,-0.217927,0.154667,2.49417
1472092305049080,-0.217927,0.154667,2.49417
1472092305072128,-0.217969,0.154783,2.49416
1472092305094505,-0.217969,0.154783,2.49416
1472092305109093,-0.217969,0.154783,2.49416
1472092305131819,-0.218012,0.1549,2.49415
1472092305154326,-0.218012,0.1549,2.49415
1472092305168946,-0.218012,0.1549,2.49415
1472092305192180,-0.218012,0.1549,2.49415
1472092305214334,-0.218012,0.1549,2.49415
1472092305235565,-0.218055,0.155016,2.49415
1472092305252175,-0.218055,0.155016,2.49415
1472092305274356,-0.218055,0.155016,2.49415
1472092305295418,-0.217967,0.15518,2.49423
1472092305320143,-0.217967,0.15518,2.49423
1472092305334756,-0.217967,0.15518,2.49423
1472092305362945,-0.217524,0.154916,2.49397
1472092305371875,-0.217143,0.154507,2.49381
1472092305394482,-0.216501,0.154193,2.49384
1472092305415581,-0.215482,0.154277,2.49396
1472092305431801,-0.214857,0.154761,2.49414
1472092305454259,-0.214356,0.154954,2.49453
1472092305475422,-0.213629,0.155237,2.49502
1472092305492074,-0.212923,0.155632,2.49549
1472092305514897,-0.212448,0.155973,2.49616
1472092305535453,-0.21178,0.156506,2.49683
1472092305552062,-0.210587,0.15789,2.49785
1472092305582067,-0.210202,0.159788,2.4989
1472092305596986,-0.211461,0.161724,2.50051
1472092305612086,-0.212924,0.163027,2.50164
1472092305634549,-0.212633,0.163802,2.502
1472092305655694,-0.211594,0.164519,2.50188
1472092305671364,-0.210994,0.165356,2.50175
1472092305693813,-0.211696,0.166069,2.50217
1472092305724258,-0.211323,0.166151,2.50335
1472092305732383,-0.209694,0.166012,2.50478
1472092305754349,-0.208488,0.166607,2.50576
1472092305776970,-0.207981,0.168209,2.50588
1472092305791983,-0.208631,0.169664,2.50556
1472092305814527,-0.209018,0.170463,2.5057
1472092305836142,-0.208456,0.170776,2.50579
1472092305851707,-0.206916,0.170909,2.50613
1472092305874762,-0.205872,0.17084,2.50597
1472092305897191,-0.205356,0.170729,2.50571
1472092305918133,-0.205072,0.170709,2.50592
1472092305934676,-0.204559,0.17051,2.50633
1472092305956839,-0.203473,0.171274,2.50671
1472092305971270,-0.204213,0.172336,2.50672
1472092305994366,-0.20578,0.173136,2.50672
1472092306016918,-0.206839,0.173341,2.50706
1472092306031465,-0.206243,0.17355,2.50727
1472092306054506,-0.205231,0.174391,2.50725
1472092306077051,-0.206109,0.17501,2.50709
1472092306091662,-0.20782,0.175114,2.50712
1472092306114876,-0.207938,0.175077,2.50712
1472092306137124,-0.207436,0.175331,2.50663
1472092306158144,-0.206651,0.175565,2.50636
1472092306174261,-0.206533,0.175603,2.50636
1472092306196814,-0.207044,0.175159,2.50616
1472092306225400,-0.207069,0.17473,2.50579
1472092306234374,-0.207432,0.174286,2.50483
1472092306256879,-0.207569,0.174073,2.50426
1472092306277935,-0.207243,0.174311,2.50435
1472092306294574,-0.207125,0.174348,2.50435
1472092306316943,-0.207167,0.174465,2.50434
1472092306338105,-0.206945,0.174762,2.50385
1472092306354662,-0.206549,0.174989,2.50345
1472092306376803,-0.206549,0.174989,2.50345
1472092306397903,-0.206549,0.174989,2.50345
1472092306414993,-0.206199,0.174704,2.50338
1472092306436882,-0.206185,0.174713,2.50347
1472092306457943,-0.206185,0.174713,2.50347
1472092306474663,-0.206067,0.17475,2.50348
1472092306496826,-0.206227,0.17483,2.50347
1472092306517424,-0.206227,0.17483,2.50347
1472092306547694,-0.206227,0.17483,2.50347
1472092306557241,-0.206227,0.17483,2.50347
1472092306578310,-0.206568,0.174726,2.50356
1472092306594576,-0.207111,0.174819,2.50363
1472092306617247,-0.207862,0.174711,2.50362
1472092306639278,-0.208666,0.174444,2.5036
1472092306654329,-0.20911,0.174168,2.50351
1472092306677449,-0.209441,0.173907,2.50322
1472092306699835,-0.209799,0.173628,2.50274
1472092306714710,-0.209951,0.173923,2.50221
1472092306736839,-0.210381,0.173887,2.50181
1472092306759323,-0.211033,0.173784,2.50151
1472092306781412,-0.210787,0.173701,2.50112
1472092306796881,-0.21048,0.173763,2.50064
1472092306819195,-0.210466,0.173772,2.50074
1472092306833713,-0.210348,0.17381,2.50074
1472092306857242,-0.210348,0.17381,2.50074
1472092306879271,-0.209819,0.173709,2.50057
1472092306893900,-0.209492,0.173804,2.50038
1472092306917164,-0.209492,0.173804,2.50038
1472092306939580,-0.208916,0.173752,2.5007
1472092306960658,-0.208396,0.173809,2.50091
1472092306984310,-0.208722,0.173714,2.50109
1472092306999505,-0.208844,0.173857,2.50168
1472092307015039,-0.208679,0.173944,2.50217
1472092307037086,-0.208207,0.174094,2.50217
1472092307059654,-0.20772,0.173879,2.5024
1472092307073651,-0.207763,0.173996,2.50239
1472092307096334,-0.207763,0.173996,2.50239
1472092307119699,-0.20772,0.173879,2.5024
1472092307140877,-0.2072,0.174166,2.50221
1472092307156842,-0.206666,0.174231,2.50251
1472092307186890,-0.206548,0.174268,2.50252
1472092307200601,-0.206591,0.174385,2.50251
1472092307217127,-0.206076,0.174419,2.50252
1472092307239421,-0.206076,0.174419,2.50252
1472092307260508,-0.206487,0.174557,2.50269
1472092307276803,-0.206487,0.174557,2.50269
1472092307299336,-0.206487,0.174557,2.50269
1472092307320487,-0.206487,0.174557,2.50269
1472092307337056,-0.206487,0.174557,2.50269
1472092307359428,-0.206487,0.174557,2.50269
1472092307380490,-0.206487,0.174557,2.50269
1472092307396974,-0.206369,0.174595,2.50269
1472092307419627,-0.206369,0.174595,2.50269
1472092307440749,-0.206412,0.174712,2.50268
1472092307456944,-0.206412,0.174712,2.50268
1472092307479505,-0.205835,0.174659,2.503
1472092307501359,-0.205835,0.174659,2.503
1472092307517059,-0.206677,0.174762,2.50277
1472092307541102,-0.207418,0.174497,2.50237
1472092307562139,-0.20704,0.174318,2.50181
1472092307577192,-0.206558,0.174311,2.50143
1472092307599794,-0.206601,0.174428,2.50142
1472092307621916,-0.206307,0.17402,2.50166
1472092307637010,-0.206151,0.173544,2.50159
1472092307659585,-0.206193,0.173661,2.50158
1472092307682192,-0.206193,0.173661,2.50158
1472092307696767,-0.205838,0.173399,2.50171
1472092307719455,-0.205838,0.173399,2.50171
1472092307741972,-0.206221,0.173412,2.5018
1472092307756395,-0.206713,0.173374,2.50177
1472092307779280,-0.207195,0.173381,2.50215
1472092307801958,-0.207682,0.173365,2.50233
1472092307816467,-0.207682,0.173365,2.50233
1472092307839630,-0.207682,0.173365,2.50233
1472092307861818,-0.207682,0.173365,2.50233
1472092307876351,-0.207436,0.173283,2.50195
1472092307898484,-0.207436,0.173283,2.50195
1472092307921947,-0.20752,0.173142,2.50206
1472092307936805,-0.207634,0.172694,2.50188
1472092307959624,-0.208063,0.172426,2.50188
1472092307981958,-0.208224,0.172506,2.50188
1472092308004631,-0.208224,0.172506,2.50188
1472092308019195,-0.208106,0.172543,2.50188
1472092308042026,-0.208738,0.172473,2.50187
1472092308063090,-0.208738,0.172473,2.50187
1472092308079754,-0.20862,0.17251,2.50187
1472092308101590,-0.20862,0.17251,2.50187
1472092308123480,-0.20862,0.17251,2.50187
1472092308139753,-0.208535,0.172507,2.50148
1472092308161800,-0.208535,0.172507,2.50148
1472092308183112,-0.208535,0.172507,2.50148
1472092308199710,-0.207812,0.172598,2.5013
1472092308222334,-0.207812,0.172598,2.5013
1472092308243984,-0.207812,0.172598,2.5013
1472092308259758,-0.207812,0.172598,2.5013
1472092308282179,-0.207812,0.172598,2.5013
1472092308302964,-0.207812,0.172598,2.5013
1472092308319615,-0.207812,0.172598,2.5013
1472092308342130,-0.207812,0.172598,2.5013
1472092308363225,-0.207808,0.172764,2.50178
1472092308379256,-0.208659,0.172793,2.50234
1472092308402358,-0.209378,0.1731,2.50259
1472092308423436,-0.208911,0.174036,2.50264
1472092308439670,-0.208236,0.174798,2.50292
1472092308461791,-0.207703,0.175237,2.5031
1472092308482918,-0.207584,0.175274,2.5031
1472092308497939,-0.207584,0.175274,2.5031
1472092308521943,-0.207584,0.175274,2.5031
1472092308544566,-0.207078,0.175321,2.50322
1472092308559650,-0.206813,0.175271,2.50313
1472092308582170,-0.205912,0.175688,2.50313
1472092308604216,-0.205391,0.175743,2.50335
1472092308619746,-0.204773,0.175805,2.50327
1472092308648267,-0.204654,0.175843,2.50327
1472092308664818,-0.204654,0.175843,2.50327
1472092308678824,-0.204654,0.175843,2.50327
1472092308700972,-0.204697,0.17596,2.50326
1472092308724523,-0.204697,0.17596,2.50326
1472092308738575,-0.204697,0.17596,2.50326
1472092308762104,-0.204697,0.17596,2.50326
1472092308784635,-0.204697,0.17596,2.50326
1472092308798616,-0.204526,0.176069,2.50395
1472092308822160,-0.204866,0.175965,2.50404
1472092308844727,-0.205491,0.176112,2.50352
1472092308858746,-0.205458,0.176614,2.5031
1472092308881774,-0.204895,0.176553,2.50332
1472092308903829,-0.204296,0.176352,2.50335
1472092308918865,-0.204503,0.176152,2.50326
1472092308942516,-0.20508,0.175973,2.50335
1472092308964569,-0.204494,0.175763,2.50328
1472092308978662,-0.204494,0.175763,2.50328
1472092309001841,-0.204494,0.175763,2.50328
1472092309024434,-0.204494,0.175763,2.50328
1472092309045544,-0.204494,0.175763,2.50328
1472092309061909,-0.204342,0.175929,2.50299
1472092309084480,-0.203903,0.175808,2.50301
1472092309105606,-0.203903,0.175808,2.50301
1472092309122218,-0.203785,0.175846,2.50301
1472092309144568,-0.203785,0.175846,2.50301
1472092309165615,-0.203785,0.175846,2.50301
1472092309182578,-0.203828,0.175963,2.503
1472092309204475,-0.203828,0.175963,2.503
1472092309225391,-0.203828,0.175963,2.503
1472092309242226,-0.203827,0.175731,2.50341
1472092309264792,-0.203841,0.175259,2.50412
1472092309285834,-0.203641,0.17501,2.50513
1472092309302141,-0.204067,0.174446,2.50642
1472092309324713,-0.204848,0.173771,2.5077
1472092309345647,-0.205276,0.173209,2.50899
1472092309362160,-0.20577,0.172567,2.5095
1472092309384720,-0.206054,0.172213,2.50942
1472092309406759,-0.206927,0.172278,2.5088
1472092309421783,-0.207878,0.171958,2.50859
1472092309444594,-0.208065,0.171148,2.50902
1472092309467652,-0.207817,0.170626,2.50965
1472092309482163,-0.20762,0.17061,2.51025
1472092309503596,-0.208481,0.170453,2.51013
1472092309526893,-0.208481,0.170453,2.51013
1472092309541964,-0.208027,0.170196,2.50996
1472092309564608,-0.207153,0.170361,2.51018
1472092309587134,-0.207077,0.170515,2.51017
1472092309601189,-0.207949,0.171302,2.51049
1472092309624770,-0.207991,0.171419,2.51048
1472092309646814,-0.207727,0.171367,2.5104
1472092309661278,-0.207065,0.171309,2.51032
1472092309684767,-0.207065,0.171309,2.51032
1472092309706847,-0.207065,0.171309,2.51032
1472092309721521,-0.207023,0.171192,2.51033
1472092309744912,-0.207065,0.171309,2.51032
1472092309767001,-0.207495,0.171418,2.5102
1472092309788049,-0.208065,0.171869,2.50996
1472092309804530,-0.208711,0.172166,2.50972
1472092309827114,-0.208711,0.172166,2.50972
1472092309841178,-0.208711,0.172166,2.50972
1472092309864468,-0.208711,0.172166,2.50972
1472092309886988,-0.208711,0.172166,2.50972
1472092309909558,-0.20908,0.172046,2.50962
1472092309924679,-0.209662,0.171846,2.50951
1472092309947302,-0.210191,0.171806,2.50941
1472092309967931,-0.210348,0.171475,2.50922
1472092309984623,-0.210467,0.171063,2.50935
1472092310007334,-0.210619,0.170755,2.50936
1472092310028008,-0.210619,0.170755,2.50936
1472092310044676,-0.211168,0.170453,2.50936
1472092310066717,-0.211694,0.170145,2.50935
1472092310088281,-0.21212,0.169903,2.50956
1472092310112351,-0.21292,0.169662,2.50975
1472092310126953,-0.212802,0.169699,2.50975
1472092310155639,-0.213034,0.170167,2.5101
1472092310164652,-0.21303,0.170335,2.51058
1472092310187316,-0.213702,0.170552,2.51104
1472092310208199,-0.213321,0.172046,2.51194
1472092310224713,-0.213358,0.173055,2.51335
1472092310247275,-0.21309,0.172942,2.51415
1472092310268295,-0.212444,0.172644,2.51438
1472092310284810,-0.212683,0.172341,2.51479
1472092310306359,-0.212866,0.171786,2.51502
1472092310327907,-0.212439,0.172667,2.51458
1472092310344429,-0.21254,0.173243,2.51414
1472092310366968,-0.212581,0.173589,2.51373
1472092310389491,-0.212621,0.173936,2.51331
1472092310404814,-0.213411,0.173767,2.51271
1472092310434366,-0.214224,0.173747,2.51239
1472092310449889,-0.214654,0.173711,2.51199
1472092310464426,-0.21595,0.173496,2.51127
1472092310486970,-0.216975,0.17348,2.51026
1472092310510507,-0.217093,0.173671,2.50985
1472092310524034,-0.217093,0.173671,2.50985
1472092310547069,-0.216577,0.173702,2.50986
1472092310569604,-0.215845,0.173172,2.51011
1472092310584123,-0.215254,0.172983,2.51024
1472092310607263,-0.215392,0.172539,2.51007
1472092310629298,-0.21624,0.172019,2.51018
1472092310643895,-0.21699,0.172516,2.50963
1472092310666957,-0.218555,0.173137,2.50905
1472092310689738,-0.219065,0.173731,2.5087
1472092310703868,-0.21833,0.174987,2.50854
1472092310726927,-0.217591,0.175664,2.50911
1472092310749460,-0.216963,0.175106,2.50946
1472092310764031,-0.217302,0.172662,2.50951
1472092310787090,-0.218541,0.169189,2.51
1472092310809493,-0.221931,0.164356,2.51023
1472092310830554,-0.226976,0.15877,2.51081
1472092310854683,-0.23151,0.153223,2.51143
1472092310869492,-0.235445,0.147355,2.51204
1472092310890560,-0.239002,0.139274,2.51277
1472092310907137,-0.245884,0.128514,2.51407
1472092310929286,-0.257776,0.119383,2.51616
1472092310950873,-0.272243,0.110873,2.51916
1472092310966959,-0.287589,0.102544,2.52228
1472092310989573,-0.302632,0.09373,2.52556
1472092311010725,-0.312903,0.0865477,2.53222
1472092311027280,-0.314489,0.0840418,2.54423
1472092311049602,-0.31153,0.0875493,2.56325
1472092311070795,-0.313269,0.0962097,2.58641
1472092311087295,-0.31986,0.108616,2.61221
1472092311110020,-0.324926,0.121332,2.64093
1472092311130728,-0.325924,0.133614,2.6726
1472092311146377,-0.324742,0.14365,2.7075
1472092311169410,-0.320608,0.153538,2.74486
1472092311189929,-0.313909,0.164675,2.78282
1472092311206636,-0.305128,0.17423,2.81995
1472092311229995,-0.295802,0.182853,2.85566
1472092311250677,-0.283907,0.190718,2.89058
1472092311266178,-0.27233,0.192468,2.92584
1472092311289804,-0.261015,0.188563,2.95953
1472092311310792,-0.251004,0.181672,2.98892
1472092311326721,-0.240114,0.175842,3.013
1472092311349475,-0.226274,0.172991,3.03332
1472092311372018,-0.215425,0.170315,3.05041
1472092311386680,-0.210585,0.165144,3.06448
1472092311409500,-0.207427,0.15648,3.0754
1472092311431867,-0.201271,0.147717,3.08358
1472092311446534,-0.191349,0.141385,3.08988
1472092311469796,-0.183272,0.137954,3.09645
1472092311492379,-0.181423,0.136091,3.10277
1472092311513525,-0.181095,0.134164,3.10863
1472092311529718,-0.180516,0.131586,3.11271
1472092311551986,-0.179318,0.129237,3.11521
1472092311574453,-0.176611,0.127419,3.11666
1472092311589542,-0.173323,0.126211,3.11797
1472092311612083,-0.170152,0.12535,3.11922
1472092311626615,-0.166268,0.125232,3.12046
1472092311649790,-0.162112,0.126484,3.1205
1472092311672323,-0.155968,0.12914,3.11946
1472092311693454,-0.150463,0.13574,3.11711
1472092311709477,-0.146495,0.143432,3.11448
1472092311732057,-0.145029,0.150468,3.11137
1472092311753140,-0.144979,0.155436,3.10868
1472092311769724,-0.145005,0.158541,3.10758
1472092311791939,-0.14371,0.160014,3.10733
1472092311812924,-0.141676,0.160242,3.10674
1472092311829454,-0.142893,0.160358,3.10688
1472092311852005,-0.145806,0.160112,3.10728
1472092311872890,-0.14711,0.160913,3.10662
1472092311889962,-0.146129,0.162689,3.10559
1472092311913633,-0.145236,0.166152,3.10405
1472092311933223,-0.144148,0.17019,3.1036
1472092311949782,-0.142603,0.174528,3.10563
1472092311979809,-0.141205,0.179962,3.10757
1472092311992821,-0.139865,0.184568,3.10995
1472092312009374,-0.135315,0.18706,3.11179
1472092312031906,-0.130894,0.187554,3.11316
1472092312053422,-0.134469,0.185782,3.1127
1472092312069826,-0.141573,0.181778,3.11073
1472092312091871,-0.143911,0.178437,3.10719
1472092312116225,-0.142194,0.177661,3.10286
1472092312129180,-0.140771,0.177948,3.09965
1472092312152365,-0.14116,0.179488,3.09716
1472092312173190,-0.144048,0.185839,3.09717
1472092312189636,-0.148204,0.189495,3.10104
1472092312212080,-0.144727,0.190511,3.10425
1472092312240674,-0.136321,0.192463,3.0989
1472092312249224,-0.141078,0.194254,3.09364
1472092312271877,-0.149925,0.192284,3.09562
1472092312294978,-0.153173,0.189929,3.09942
1472092312309040,-0.152417,0.189136,3.10189
1472092312332117,-0.151512,0.190935,3.10282
1472092312354807,-0.152438,0.193776,3.10301
1472092312369783,-0.155148,0.196659,3.10251
1472092312392270,-0.155881,0.198841,3.10066
