timestamp,roll,pitch,yaw
1470330447676778,-0.242078,0.0171743,0.168184
1470330447691785,-0.242202,0.0171846,0.168184
1470330447714306,-0.242202,0.0171846,0.168184
1470330447738371,-0.242202,0.0171846,0.168184
1470330447753366,-0.242202,0.0171846,0.168184
1470330447774360,-0.242202,0.0171846,0.168184
1470330447798382,-0.242326,0.0171949,0.168184
1470330447844422,-0.242326,0.0171949,0.168184
1470330447846424,-0.24245,0.0172052,0.168185
1470330447857935,-0.24245,0.0172052,0.168185
1470330447875952,-0.24245,0.0172052,0.168185
1470330447895969,-0.24245,0.0172052,0.168185
1470330447924994,-0.242461,0.0170845,0.168199
1470330447969534,-0.242461,0.0170845,0.168199
1470330447979553,-0.24245,0.0172052,0.168185
1470330447980046,-0.242575,0.0172155,0.168185
1470330447993056,-0.242575,0.0172155,0.168185
1470330448014075,-0.242575,0.0172155,0.168185
1470330448036595,-0.242575,0.0172155,0.168185
1470330448054708,-0.242575,0.0172155,0.168185
1470330448074216,-0.242699,0.0172258,0.168185
1470330448096651,-0.242699,0.0172258,0.168185
1470330448114669,-0.242699,0.0172258,0.168185
1470330448134185,-0.242685,0.017226,0.168175
1470330448156731,-0.242685,0.017226,0.168175
1470330448174831,-0.242809,0.0172363,0.168175
1470330448194292,-0.242809,0.0172363,0.168175
1470330448216793,-0.242809,0.0172363,0.168175
1470330448234776,-0.242809,0.0172363,0.168175
1470330448254350,-0.242809,0.0172363,0.168175
1470330448276812,-0.242809,0.0172363,0.168175
1470330448294826,-0.242809,0.0172363,0.168175
1470330448314379,-0.242809,0.0172363,0.168175
1470330448336864,-0.242933,0.0172466,0.168175
1470330448354882,-0.242933,0.0172466,0.168175
1470330448374433,-0.242933,0.0172466,0.168175
1470330448396965,-0.243058,0.0172569,0.168175
1470330448414436,-0.243058,0.0172569,0.168175
1470330448435486,-0.243058,0.0172569,0.168175
1470330448456972,-0.243058,0.0172569,0.168175
1470330448475055,-0.243058,0.0172569,0.168175
1470330448496008,-0.243441,0.017182,0.168313
1470330448517028,-0.243441,0.017182,0.168313
1470330448534607,-0.243565,0.0171923,0.168313
1470330448555602,-0.243565,0.0171923,0.168313
1470330448576582,-0.243565,0.0171923,0.168313
1470330448594628,-0.243565,0.0171923,0.168313
1470330448615615,-0.24369,0.0172026,0.168314
1470330448636718,-0.24369,0.0172026,0.168314
1470330448654657,-0.243675,0.0172028,0.168303
1470330448675669,-0.243675,0.0172028,0.168303
1470330448696732,-0.2438,0.0172131,0.168304
1470330448714721,-0.2438,0.0172131,0.168304
1470330448735727,-0.2438,0.0172131,0.168304
1470330448756742,-0.24379,0.0173339,0.168289
1470330448774780,-0.24379,0.0173339,0.168289
1470330448795778,-0.24379,0.0173339,0.168289
1470330448819814,-0.24379,0.0173339,0.168289
1470330448834867,-0.24379,0.0173339,0.168289
1470330448857346,-0.24379,0.0173339,0.168289
1470330448876872,-0.24379,0.0173339,0.168289
1470330448894866,-0.243914,0.0173442,0.168289
1470330448917388,-0.243914,0.0173442,0.168289
1470330448939406,-0.24379,0.0173339,0.168289
1470330448959986,-0.243572,0.0169956,0.1687
1470330448976470,-0.243364,0.0165217,0.169004
1470330448998960,-0.24381,0.0157672,0.169598
1470330449020004,-0.246161,0.0142494,0.170653
1470330449036511,-0.250541,0.0122095,0.172038
1470330449059014,-0.256611,0.00920303,0.174302
1470330449080120,-0.262912,0.00660985,0.176665
1470330449096548,-0.27156,0.00542783,0.177767
1470330449119067,-0.281156,0.00477381,0.17845
1470330449140123,-0.286856,0.00602723,0.177587
1470330449156601,-0.290146,0.00929493,0.175906
1470330449179151,-0.294891,0.0128432,0.17442
1470330449200141,-0.301201,0.0172804,0.173053
1470330449216154,-0.301814,0.0275449,0.17175
1470330449238676,-0.299216,0.0437836,0.171682
1470330449260194,-0.295391,0.0633025,0.171963
1470330449275710,-0.290852,0.0875437,0.171176
1470330449298730,-0.287165,0.116947,0.168776
1470330449319761,-0.285807,0.149057,0.163898
1470330449335763,-0.285073,0.186167,0.156253
1470330449358783,-0.283268,0.226565,0.145225
1470330449381846,-0.281597,0.269851,0.12965
1470330449395816,-0.280484,0.315268,0.109654
1470330449418838,-0.280369,0.361935,0.0864123
1470330449441358,-0.280973,0.408048,0.0617462
1470330449455870,-0.283992,0.45229,0.0355761
1470330449478891,-0.287099,0.494211,0.00822464
1470330449501412,-0.286686,0.533685,-0.0185716
1470330449515437,-0.281685,0.571292,-0.0443369
1470330449538949,-0.272504,0.606554,-0.067578
1470330449561467,-0.259569,0.638481,-0.0872751
1470330449575478,-0.247357,0.664425,-0.104188
1470330449622580,-0.235361,0.686339,-0.117828
1470330449627529,-0.224509,0.705049,-0.129202
1470330449650045,-0.213332,0.72058,-0.138847
1470330449659052,-0.200429,0.732769,-0.147134
1470330449681572,-0.186483,0.742606,-0.154332
1470330449702612,-0.173474,0.750911,-0.160299
1470330449719106,-0.16196,0.757339,-0.164592
1470330449741651,-0.153174,0.762537,-0.167819
1470330449762645,-0.148731,0.767542,-0.171707
1470330449778660,-0.147013,0.772125,-0.176526
1470330449801180,-0.144844,0.775882,-0.18107
1470330449822700,-0.143497,0.778676,-0.18532
1470330449838717,-0.143556,0.780516,-0.188727
1470330449861234,-0.145018,0.781839,-0.191208
1470330449890272,-0.147759,0.782254,-0.193197
1470330449898769,-0.151356,0.782451,-0.195388
1470330449921292,-0.155416,0.783284,-0.19785
1470330449942349,-0.159493,0.784538,-0.19958
1470330449958823,-0.163659,0.786124,-0.200465
1470330449981343,-0.168887,0.788512,-0.201377
1470330450009868,-0.175751,0.791897,-0.202994
1470330450018876,-0.181433,0.796303,-0.204271
1470330450041443,-0.187436,0.802416,-0.205683
1470330450062416,-0.193351,0.809949,-0.206364
1470330450078932,-0.201812,0.818937,-0.208029
1470330450101451,-0.212339,0.829786,-0.210857
1470330450122470,-0.22614,0.843867,-0.215705
1470330450138983,-0.243282,0.86141,-0.223216
1470330450167509,-0.264976,0.882812,-0.234721
1470330450182523,-0.290702,0.908175,-0.249812
1470330450198037,-0.320448,0.936407,-0.268661
1470330450221557,-0.354472,0.966048,-0.291535
1470330450242576,-0.397315,0.997806,-0.321168
1470330450258092,-0.444647,1.02844,-0.353787
1470330450281611,-0.4992,1.06161,-0.395072
1470330450303635,-0.553527,1.09003,-0.436074
1470330450318145,-0.617419,1.11933,-0.487858
1470330450341166,-0.683446,1.1454,-0.540371
1470330450363708,-0.743913,1.16785,-0.589691
1470330450378242,-0.801308,1.18811,-0.637151
1470330450414762,-0.855041,1.20594,-0.681761
1470330450423740,-0.903946,1.22186,-0.722115
1470330450438256,-0.945173,1.23554,-0.756002
1470330450461273,-0.977298,1.24761,-0.781998
1470330450483800,-1.00217,1.25853,-0.800814
1470330450498306,-1.02262,1.26829,-0.814908
1470330450521327,-1.03767,1.27717,-0.823666
1470330450543848,-1.04758,1.2855,-0.827405
1470330450564867,-1.0553,1.2934,-0.829212
1470330450581380,-1.05953,1.30155,-0.828116
1470330450603901,-1.05884,1.30882,-0.82329
1470330450624932,-1.05563,1.31564,-0.816927
1470330450647538,-1.05179,1.32128,-0.809825
1470330450663959,-1.04815,1.32681,-0.80337
1470330450684975,-1.04018,1.33248,-0.792075
1470330450701488,-1.03404,1.3383,-0.781916
1470330450724028,-1.02956,1.34398,-0.773568
1470330450745093,-1.0253,1.34823,-0.766007
1470330450761542,-1.02226,1.35286,-0.759897
1470330450784062,-1.01899,1.35745,-0.753146
1470330450805111,-1.01937,1.36294,-0.749832
1470330450821596,-1.02104,1.36869,-0.748141
1470330450843615,-1.02476,1.37549,-0.749084
1470330450865135,-1.02626,1.38227,-0.748395
1470330450881149,-1.02768,1.38929,-0.747511
1470330450903669,-1.03228,1.39601,-0.749971
1470330450925189,-1.03359,1.40278,-0.749835
1470330450941203,-1.03392,1.40912,-0.748809
1470330450963759,-1.0341,1.4151,-0.747369
1470330450985243,-1.03473,1.42061,-0.746309
1470330451001257,-1.0283,1.42627,-0.738072
1470330451023779,-1.01965,1.43084,-0.727551
1470330451044796,-1.00706,1.43573,-0.71302
1470330451061310,-0.993377,1.43946,-0.697986
1470330451083834,-0.976367,1.44368,-0.679576
1470330451104876,-0.950051,1.44698,-0.652162
1470330451121365,-0.913107,1.45088,-0.61395
1470330451143885,-0.860251,1.45318,-0.559782
1470330451164917,-0.785938,1.45501,-0.483898
1470330451180918,-0.691266,1.45418,-0.387328
1470330451203939,-0.581352,1.45065,-0.275527
1470330451224962,-0.458528,1.44368,-0.151127
1470330451240979,-0.328773,1.43273,-0.0197029
1470330451263995,-0.206192,1.41665,0.105074
1470330451286516,-0.102659,1.39516,0.211377
1470330451300527,-0.0203787,1.37118,0.296325
1470330451324066,0.0475212,1.34371,0.365699
1470330451346566,0.102988,1.31248,0.422141
1470330451360591,0.144182,1.27761,0.46405
1470330451384101,0.171808,1.24066,0.492744
1470330451406623,0.193672,1.20397,0.51478
1470330451420635,0.215151,1.16749,0.533267
1470330451444156,0.238348,1.12831,0.551694
1470330451466174,0.259084,1.08607,0.568649
1470330451480733,0.277024,1.0408,0.584911
1470330451503708,0.294253,0.992065,0.600257
1470330451526229,0.311255,0.940234,0.614539
1470330451547813,0.327505,0.885546,0.626889
1470330451563763,0.344315,0.828146,0.637685
1470330451586284,0.361851,0.767138,0.646869
1470330451607329,0.378845,0.701075,0.655501
1470330451629858,0.393584,0.633292,0.663365
1470330451646336,0.404161,0.565643,0.670582
1470330451667356,0.410584,0.498196,0.675735
1470330451683870,0.416078,0.430099,0.678106
1470330451712431,0.419843,0.361923,0.679153
1470330451727439,0.417326,0.29559,0.679207
1470330451743425,0.411278,0.235766,0.677258
1470330451766444,0.405108,0.182342,0.674452
1470330451787481,0.397579,0.131954,0.670957
1470330451803980,0.387483,0.0813667,0.667196
1470330451834005,0.374924,0.0299999,0.663622
1470330451847590,0.361942,-0.0216613,0.658218
1470330451864058,0.347794,-0.0728651,0.652325
1470330451886551,0.333024,-0.121926,0.647421
1470330451907592,0.317306,-0.166804,0.641254
1470330451924085,0.303317,-0.208034,0.634953
1470330451946627,0.292025,-0.246094,0.628353
1470330451967625,0.281685,-0.281783,0.620488
1470330451983639,0.271018,-0.316838,0.611027
1470330452006218,0.261263,-0.35204,0.599019
1470330452027730,0.252911,-0.386482,0.584285
1470330452043192,0.244111,-0.422,0.566571
1470330452066213,0.234683,-0.458311,0.545727
1470330452087232,0.22765,-0.494276,0.523212
1470330452103748,0.224228,-0.529974,0.499897
1470330452126269,0.224676,-0.56639,0.473314
1470330452147789,0.228276,-0.603024,0.441866
1470330452163319,0.232829,-0.642112,0.408063
1470330452186321,0.236482,-0.683279,0.374913
1470330452208841,0.241796,-0.724204,0.341442
1470330452223354,0.255173,-0.763648,0.302214
1470330452246377,0.276673,-0.802408,0.259631
1470330452268895,0.298954,-0.842682,0.219176
1470330452283408,0.320438,-0.882377,0.178866
1470330452306429,0.341624,-0.919914,0.137697
1470330452328949,0.365535,-0.955904,0.0968881
1470330452343462,0.390343,-0.99013,0.0592631
1470330452366483,0.410291,-1.02329,0.0293306
1470330452389044,0.427512,-1.05652,0.00277166
1470330452403017,0.447688,-1.08752,-0.0250169
1470330452426538,0.463089,-1.11584,-0.0433581
1470330452449058,0.468984,-1.14179,-0.050191
1470330452470076,0.470937,-1.16498,-0.0529538
1470330452486591,0.472371,-1.18509,-0.0553376
1470330452509112,0.466334,-1.20424,-0.0525078
1470330452530131,0.458419,-1.22332,-0.0492592
1470330452546677,0.449569,-1.23897,-0.0437356
1470330452569165,0.437358,-1.25287,-0.0339744
1470330452590214,0.424387,-1.26616,-0.0238133
1470330452606272,0.410072,-1.28044,-0.0138277
1470330452628775,0.398669,-1.29466,-0.00866562
1470330452649737,0.387913,-1.30631,-0.00518672
1470330452666253,0.375796,-1.31818,0.000106137
1470330452688818,0.3678,-1.32956,0.000589701
1470330452709820,0.362429,-1.34069,-0.00252144
1470330452726312,0.361992,-1.35146,-0.0104916
1470330452748826,0.365554,-1.36049,-0.0219279
1470330452769847,0.371939,-1.36832,-0.0346228
1470330452786362,0.382496,-1.37478,-0.0502152
1470330452808882,0.394931,-1.38001,-0.0675919
1470330452830401,0.406249,-1.38395,-0.0849455
1470330452846449,0.416952,-1.3873,-0.101937
1470330452868934,0.429028,-1.38957,-0.119408
1470330452889970,0.445739,-1.39108,-0.140606
1470330452906468,0.461574,-1.39131,-0.160923
1470330452929030,0.476824,-1.39074,-0.180402
1470330452950010,0.493113,-1.39031,-0.200683
1470330452966522,0.510247,-1.38805,-0.222635
1470330452996569,0.524728,-1.38555,-0.242193
1470330453010071,0.536947,-1.38257,-0.258336
1470330453026576,0.548032,-1.37942,-0.272542
1470330453049096,0.557083,-1.37553,-0.284463
1470330453070116,0.563899,-1.37207,-0.294027
1470330453086133,0.568415,-1.36773,-0.301558
1470330453109150,0.569784,-1.36376,-0.306407
1470330453130242,0.568173,-1.35945,-0.307755
1470330453146234,0.561708,-1.35553,-0.303049
1470330453168721,0.55665,-1.35131,-0.299127
1470330453191224,0.548611,-1.34737,-0.292807
1470330453206238,0.538659,-1.34324,-0.284676
1470330453228757,0.527543,-1.33871,-0.274998
1470330453251281,0.516872,-1.33432,-0.265346
1470330453266291,0.50499,-1.32799,-0.2562
1470330453288812,0.490406,-1.32198,-0.243961
1470330453311331,0.477155,-1.31467,-0.231924
1470330453325844,0.459662,-1.304,-0.218837
1470330453348865,0.431885,-1.28808,-0.204269
1470330453371385,0.395602,-1.27263,-0.181454
1470330453393905,0.367741,-1.25889,-0.16227
1470330453408919,0.349821,-1.24268,-0.15063
1470330453431439,0.330423,-1.22109,-0.143889
1470330453452958,0.306837,-1.19596,-0.140795
1470330453454960,0.274523,-1.1719,-0.131756
1470330453474486,0.243094,-1.15069,-0.118675
1470330453498514,0.218992,-1.12947,-0.105443
1470330453514514,0.201113,-1.10499,-0.0973815
1470330453534533,0.182986,-1.07757,-0.0933201
1470330453557087,0.15722,-1.04919,-0.0874387
1470330453574568,0.126709,-1.02256,-0.0790036
1470330453594087,0.0954766,-0.996301,-0.0673938
1470330453616613,0.068888,-0.969038,-0.0561451
1470330453634622,0.0478279,-0.939289,-0.0478279
1470330453654641,0.0294957,-0.907197,-0.0412722
1470330453676659,0.0106203,-0.876784,-0.0332924
1470330453694675,-0.00874011,-0.849985,-0.0239155
1470330453714210,-0.0275752,-0.823257,-0.0143366
1470330453736741,-0.044213,-0.794908,-0.00633355
1470330453754760,-0.0572205,-0.766507,-0.000755273
1470330453774295,-0.0683946,-0.739845,0.00347588
1470330453796820,-0.082356,-0.715115,0.00900443
1470330453814809,-0.0974903,-0.69021,0.0159844
1470330453834331,-0.110265,-0.664189,0.0226775
1470330453856836,-0.121577,-0.639493,0.0279327
1470330453874839,-0.133091,-0.617568,0.0313461
1470330453894355,-0.147351,-0.595952,0.0357299
1470330453916875,-0.162875,-0.573698,0.0420147
1470330453934991,-0.175943,-0.551661,0.0480124
1470330453954460,-0.184529,-0.529729,0.0531057
1470330453976933,-0.189156,-0.507106,0.057763
1470330453994991,-0.191731,-0.484741,0.0626941
1470330454014462,-0.194776,-0.463812,0.0675548
1470330454036982,-0.198873,-0.444044,0.0721959
1470330454054999,-0.20332,-0.42467,0.0769834
1470330454074575,-0.206664,-0.40608,0.0815305
1470330454097162,-0.208916,-0.388578,0.0856567
1470330454114554,-0.211024,-0.371727,0.0897801
1470330454134586,-0.213182,-0.355652,0.0935857
1470330454156635,-0.215113,-0.341003,0.0972258
1470330454174608,-0.21643,-0.327919,0.100538
1470330454194625,-0.217312,-0.315096,0.103665
1470330454216646,-0.217867,-0.302873,0.106175
1470330454235162,-0.218557,-0.291776,0.108457
1470330454254188,-0.219586,-0.282038,0.110817
1470330454276724,-0.221125,-0.273238,0.113723
1470330454294761,-0.222407,-0.265193,0.11642
1470330454314732,-0.22319,-0.258099,0.118656
1470330454337253,-0.223369,-0.251383,0.120974
1470330454354808,-0.223486,-0.245559,0.123267
1470330454374384,-0.224656,-0.240539,0.125666
1470330454396807,-0.226051,-0.235766,0.127867
1470330454414822,-0.226675,-0.231196,0.129745
1470330454434340,-0.227061,-0.227544,0.131206
1470330454456860,-0.227984,-0.224618,0.132571
1470330454474878,-0.229103,-0.221323,0.133787
1470330454494393,-0.229962,-0.218478,0.134532
1470330454516923,-0.230061,-0.216057,0.134987
1470330454534930,-0.230689,-0.214265,0.135211
1470330454554447,-0.232085,-0.212802,0.135439
1470330454576968,-0.23299,-0.211352,0.135734
1470330454594483,-0.23329,-0.210211,0.135875
1470330454614501,-0.233338,-0.209192,0.135999
1470330454637021,-0.233664,-0.208433,0.136068
1470330454654555,-0.234116,-0.207914,0.136054
1470330454674602,-0.23462,-0.207722,0.136332
1470330454697136,-0.235111,-0.207571,0.13637
1470330454714591,-0.235728,-0.207523,0.136431
1470330454735610,-0.23665,-0.207953,0.136589
1470330454756695,-0.237961,-0.209279,0.136286
1470330454774668,-0.239764,-0.210839,0.135821
1470330454795676,-0.242225,-0.212475,0.135571
1470330454816683,-0.244941,-0.213796,0.135682
1470330454834701,-0.246789,-0.215042,0.135811
1470330454855750,-0.247362,-0.215739,0.13597
1470330454877238,-0.246378,-0.215931,0.135881
1470330454894797,-0.245228,-0.215759,0.135723
1470330454915773,-0.245228,-0.21565,0.135712
1470330454936835,-0.246086,-0.215328,0.135892
1470330454954834,-0.246086,-0.215328,0.135892
1470330454975869,-0.245329,-0.21471,0.136219
1470330454996900,-0.243816,-0.21375,0.136662
1470330455014879,-0.241785,-0.212832,0.136927
1470330455043387,-0.241029,-0.212079,0.137362
1470330455056950,-0.24117,-0.211401,0.137913
1470330455074954,-0.241663,-0.210565,0.138481
1470330455097434,-0.24151,-0.209778,0.138856
1470330455116954,-0.240979,-0.208628,0.139391
1470330455134968,-0.240335,-0.207501,0.139919
1470330455157489,-0.23993,-0.206591,0.140374
1470330455177022,-0.23993,-0.205798,0.140894
1470330455195041,-0.239915,-0.204991,0.141406
1470330455217045,-0.239689,-0.204184,0.142147
1470330455236579,-0.238773,-0.203735,0.143223
1470330455254580,-0.236957,-0.20381,0.144641
1470330455277131,-0.233991,-0.204674,0.146277
1470330455296615,-0.229679,-0.20564,0.149011
1470330455314630,-0.224124,-0.20726,0.153411
1470330455337162,-0.217504,-0.208968,0.159177
1470330455356745,-0.209544,-0.21032,0.16635
1470330455374738,-0.199793,-0.210862,0.174818
1470330455397209,-0.188537,-0.210375,0.184985
1470330455416721,-0.177047,-0.208292,0.196826
1470330455440745,-0.165318,-0.203664,0.21041
1470330455457260,-0.15267,-0.196256,0.224931
1470330455479804,-0.140798,-0.186861,0.239597
1470330455494793,-0.131451,-0.176361,0.253906
1470330455517372,-0.126013,-0.164361,0.268826
1470330455536859,-0.123526,-0.150043,0.283774
1470330455554912,-0.120424,-0.133165,0.300156
1470330455577379,-0.11538,-0.11234,0.317826
1470330455598384,-0.111519,-0.0891818,0.334687
1470330455614916,-0.114116,-0.0661886,0.350988
1470330455637420,-0.119642,-0.0428316,0.366871
1470330455658438,-0.124542,-0.0193818,0.381682
1470330455674954,-0.127179,0.0031175,0.39437
1470330455697473,-0.129189,0.0274264,0.406719
1470330455717992,-0.131801,0.0536187,0.417862
1470330455734508,-0.134407,0.0811595,0.427309
1470330455757027,-0.139,0.110468,0.434869
1470330455778562,-0.143975,0.140825,0.442098
1470330455795100,-0.148731,0.172611,0.449096
1470330455817081,-0.153626,0.20564,0.455534
1470330455838100,-0.156166,0.239384,0.462159
1470330455861621,-0.155262,0.273888,0.469542
1470330455877667,-0.152603,0.309043,0.477719
1470330455897653,-0.151886,0.345213,0.486911
1470330455920174,-0.152914,0.382795,0.496044
1470330455936694,-0.152433,0.421291,0.505801
1470330455957711,-0.151212,0.461475,0.515265
1470330455980227,-0.149452,0.504146,0.525172
1470330455996242,-0.148901,0.549507,0.533452
1470330456019262,-0.149307,0.598737,0.539646
1470330456040282,-0.152665,0.650037,0.543915
1470330456056296,-0.162023,0.702181,0.547395
1470330456078817,-0.173548,0.756022,0.552493
1470330456093330,-0.183917,0.8107,0.558887
1470330456116356,-0.19201,0.864687,0.568706
1470330456138871,-0.197802,0.917416,0.581312
1470330456154386,-0.201983,0.968282,0.595819
1470330456176404,-0.207099,1.01847,0.610655
1470330456198924,-0.218441,1.06629,0.620991
1470330456213437,-0.238413,1.11239,0.626481
1470330456236458,-0.265707,1.15734,0.623988
1470330456258978,-0.293773,1.19752,0.623375
1470330456279997,-0.330671,1.23834,0.611369
1470330456296513,-0.384505,1.27729,0.586221
1470330456319033,-0.451049,1.31372,0.549466
1470330456340050,-0.536267,1.34601,0.493138
1470330456364073,-0.642985,1.36742,0.412691
1470330456379086,-0.761942,1.38211,0.317208
1470330456400106,-0.878964,1.38901,0.221741
1470330456416620,-0.984565,1.39101,0.136023
1470330456439139,-1.07552,1.39198,0.0657515
1470330456467666,-1.14753,1.39075,0.0136361
1470330456476673,-1.20167,1.38752,-0.0214015
1470330456498693,-1.23378,1.38198,-0.0384622
1470330456520213,-1.24679,1.37345,-0.0404488
1470330456536227,-1.24281,1.3647,-0.0281189
1470330456559248,-1.22726,1.35613,-0.00470345
1470330456579766,-1.20831,1.34872,0.021317
1470330456596782,-1.18953,1.34145,0.0472344
1470330456626310,-1.17346,1.33342,0.0692787
1470330456639839,-1.15522,1.32312,0.0932584
1470330456656339,-1.18612,1.33098,0.0649118
1470330456678861,-1.19074,1.33383,0.0609518
1470330456699894,-1.15746,1.32701,0.0888567
1470330456716389,-1.13484,1.32555,0.102465
1470330456738911,-1.12171,1.32834,0.112797
1470330456760441,-1.11539,1.32852,0.125296
1470330456776442,-1.11556,1.32874,0.131426
1470330456806470,-1.11482,1.33073,0.135314
1470330456820037,-1.10672,1.32889,0.142327
1470330456836543,-1.09407,1.32894,0.150505
1470330456866524,-1.07791,1.32592,0.160585
1470330456880061,-1.05748,1.31959,0.176059
1470330456895549,-1.04128,1.31114,0.18947
1470330456919070,-1.02712,1.30093,0.203607
1470330456941595,-1.0143,1.2911,0.21558
1470330456955619,-1.00177,1.27949,0.226927
1470330456978651,-0.995026,1.2656,0.232668
1470330457001644,-0.992145,1.25337,0.235048
1470330457015660,-0.993067,1.24286,0.233174
1470330457039178,-0.990729,1.2344,0.233218
1470330457061198,-0.98756,1.22694,0.235079
1470330457075749,-0.987246,1.21848,0.235629
1470330457098735,-0.988546,1.21031,0.233752
1470330457121758,-0.989089,1.20327,0.231271
1470330457142780,-0.985359,1.19843,0.231231
1470330457158788,-0.979203,1.19489,0.234441
1470330457181312,-0.976923,1.19039,0.236596
1470330457195850,-0.97744,1.18608,0.237914
1470330457218840,-0.978087,1.18229,0.23858
1470330457241361,-0.976727,1.17966,0.239314
1470330457262422,-0.974465,1.17833,0.240921
1470330457278894,-0.972694,1.17695,0.242473
1470330457301420,-0.972343,1.17543,0.243468
1470330457322467,-0.972781,1.17455,0.244009
1470330457338948,-0.973497,1.17336,0.243937
1470330457361467,-0.973419,1.1735,0.244204
1470330457375507,-0.972549,1.17356,0.245006
1470330457399003,-0.971356,1.17368,0.246413
1470330457421524,-0.970843,1.17386,0.247083
1470330457436034,-0.971017,1.17402,0.246732
1470330457459056,-0.971926,1.17485,0.246296
1470330457481575,-0.972368,1.17554,0.245791
1470330457502610,-0.97215,1.17613,0.246406
1470330457519112,-0.972393,1.17636,0.246621
1470330457541654,-0.972087,1.17687,0.247414
1470330457562662,-0.972083,1.17702,0.247968
1470330457579172,-0.972162,1.17688,0.247698
1470330457601683,-0.972298,1.17721,0.247533
1470330457622702,-0.972218,1.17707,0.247426
1470330457639217,-0.972386,1.17729,0.247357
1470330457661739,-0.972208,1.17684,0.247333
1470330457682756,-0.972423,1.17668,0.247647
1470330457698771,-0.971446,1.17543,0.248262
1470330457721312,-0.970581,1.17427,0.249359
1470330457742371,-0.970824,1.17278,0.249397
1470330457758837,-0.971365,1.17099,0.249482
1470330457781345,-0.971641,1.16945,0.2499
1470330457802363,-0.972562,1.16829,0.249584
1470330457818888,-0.972008,1.16713,0.249695
1470330457841403,-0.970779,1.16669,0.250709
1470330457862934,-0.970206,1.16601,0.251359
1470330457878934,-0.969792,1.16547,0.252397
1470330457901453,-0.968852,1.16538,0.253813
1470330457923974,-0.968032,1.16554,0.255522
1470330457938986,-0.966562,1.16616,0.257691
1470330457961509,-0.965082,1.16629,0.259398
1470330457984027,-0.962314,1.16656,0.26257
1470330457999040,-0.959191,1.16693,0.266706
1470330458021561,-0.955399,1.16717,0.272033
1470330458044083,-0.950206,1.16723,0.278989
1470330458058093,-0.943223,1.16732,0.287713
1470330458081614,-0.934957,1.16776,0.298029
1470330458104158,-0.924607,1.16776,0.310235
1470330458118150,-0.912674,1.16789,0.324268
1470330458141668,-0.899331,1.16804,0.34043
1470330458164189,-0.88358,1.16725,0.359811
1470330458185207,-0.865409,1.16581,0.382488
1470330458201222,-0.843861,1.16362,0.409163
1470330458223742,-0.81831,1.16082,0.440756
1470330458245300,-0.787885,1.15676,0.478298
1470330458261776,-0.753652,1.15193,0.521374
1470330458283796,-0.715822,1.14535,0.5697
1470330458305388,-0.674299,1.13631,0.623023
1470330458321330,-0.63189,1.12465,0.67834
1470330458343852,-0.588837,1.11068,0.734726
1470330458364921,-0.545408,1.0938,0.791601
1470330458381384,-0.500224,1.07432,0.849882
1470330458403903,-0.455596,1.05201,0.908778
1470330458426424,-0.410966,1.02601,0.967864
1470330458441439,-0.368814,0.996989,1.0254
1470330458463958,-0.330347,0.9639,1.07919
1470330458484992,-0.294653,0.92797,1.13032
1470330458501493,-0.260983,0.888532,1.17947
1470330458524011,-0.231555,0.845779,1.22519
1470330458545043,-0.204397,0.801015,1.26831
1470330458561560,-0.179756,0.753667,1.30913
1470330458584071,-0.157093,0.704396,1.34629
1470330458605084,-0.135762,0.655156,1.38025
1470330458621599,-0.113323,0.605361,1.41081
1470330458644121,-0.0925684,0.555641,1.43652
1470330458665158,-0.0731114,0.508363,1.45964
1470330458681152,-0.0562202,0.462272,1.48164
1470330458704173,-0.0417525,0.416657,1.50138
1470330458725196,-0.0282511,0.372676,1.52019
1470330458740711,-0.0166005,0.331363,1.53741
1470330458764228,-0.00560449,0.292226,1.55281
1470330458785246,0.00573123,0.254641,1.5652
1470330458800760,0.0165797,0.219121,1.5762
1470330458823780,0.026426,0.18573,1.5873
1470330458846302,0.0359206,0.156214,1.59712
1470330458860816,0.0456192,0.130058,1.60433
1470330458883835,0.0545016,0.106805,1.6117
1470330458906355,0.0597178,0.0862647,1.61862
1470330458920869,0.0601468,0.0674077,1.62476
1470330458943888,0.059257,0.0493054,1.63
1470330458966408,0.059971,0.0329783,1.63491
1470330458980924,0.0621129,0.0175473,1.64004
1470330459003942,0.0585441,0.00433306,1.64104
1470330459026462,0.0562634,-0.0111901,1.64289
1470330459047482,0.0534796,-0.0253295,1.64545
1470330459064003,0.0522813,-0.0361208,1.64676
1470330459086518,0.0513974,-0.0451073,1.64798
1470330459101029,0.0533384,-0.0508064,1.64817
1470330459124050,0.0607007,-0.0548209,1.64838
1470330459146595,0.0660475,-0.0555348,1.64788
1470330459167590,0.0685981,-0.0556536,1.64592
1470330459184104,0.0710006,-0.0557407,1.64342
1470330459206652,0.0761807,-0.0557253,1.64026
1470330459220637,0.0823076,-0.0559925,1.63729
1470330459244157,0.0844802,-0.0579472,1.6348
1470330459266678,0.0827848,-0.0615235,1.63277
1470330459280692,0.0792574,-0.0656645,1.63109
1470330459304214,0.0766175,-0.0688038,1.62946
1470330459326732,0.076958,-0.0701621,1.62857
1470330459347250,0.0787882,-0.0704487,1.62787
1470330459363765,0.0821852,-0.0702696,1.62736
1470330459386286,0.0873121,-0.0698034,1.62705
1470330459407804,0.0934029,-0.0689258,1.62661
1470330459423824,0.0985358,-0.0682852,1.62634
1470330459446340,0.104305,-0.0675221,1.62504
1470330459467359,0.109301,-0.0661364,1.62394
1470330459483874,0.111614,-0.0641099,1.62368
1470330459506394,0.11131,-0.0628705,1.62334
1470330459527428,0.110103,-0.0629972,1.62313
1470330459543928,0.111233,-0.0635958,1.62243
1470330459566448,0.114808,-0.0632268,1.62183
1470330459587467,0.117939,-0.0626166,1.62176
1470330459603982,0.119248,-0.0617164,1.62201
1470330459626503,0.119163,-0.0616278,1.62201
1470330459649023,0.119594,-0.0615639,1.6222
1470330459664049,0.121239,-0.0615256,1.62225
1470330459686556,0.122445,-0.0612383,1.62266
1470330459707577,0.122,-0.0611799,1.62335
1470330459724089,0.121029,-0.0614331,1.62367
1470330459746611,0.120944,-0.0613444,1.62367
1470330459767628,0.122075,-0.0609479,1.62372
1470330459784143,0.122602,-0.0604559,1.62393
1470330459806663,0.122331,-0.0607179,1.62409
1470330459829184,0.122672,-0.0608924,1.62393
1470330459843713,0.123637,-0.0604883,1.62397
1470330459866718,0.123989,-0.0603256,1.62398
1470330459888737,0.12443,-0.0602408,1.62382
1470330459903751,0.125659,-0.0597389,1.62353
1470330459926271,0.126539,-0.059246,1.62357
1470330459965306,0.126543,-0.0590735,1.62358
1470330459969809,0.126543,-0.0590735,1.62358
1470330460001338,0.126543,-0.0590735,1.62358
1470330460008845,0.126547,-0.0589011,1.62359
1470330460023358,0.126547,-0.0589011,1.62359
1470330460046379,0.12655,-0.0587286,1.62359
1470330460068900,0.126465,-0.05864,1.62359
1470330460083413,0.126465,-0.05864,1.62359
1470330460106435,0.126554,-0.0585562,1.6236
1470330460128952,0.126558,-0.0583838,1.62361
1470330460143467,0.126558,-0.0583838,1.62361
1470330460166486,0.12648,-0.058292,1.6236
1470330460189007,0.12648,-0.058292,1.6236
1470330460203519,0.126484,-0.0581195,1.62361
1470330460226540,0.126481,-0.0581116,1.62343
1470330460249060,0.12657,-0.0580278,1.62344
1470330460263104,0.126059,-0.0576762,1.62361
1470330460286594,0.126059,-0.0576762,1.62361
1470330460309114,0.126062,-0.0575038,1.62361
1470330460330149,0.126062,-0.0575038,1.62361
1470330460346647,0.125977,-0.0574152,1.62361
1470330460369168,0.125977,-0.0574152,1.62361
1470330460390187,0.125981,-0.0572427,1.62362
1470330460406202,0.125981,-0.0572427,1.62362
1470330460428729,0.125722,-0.0571492,1.62361
1470330460450241,0.125115,-0.0570459,1.6236
1470330460466257,0.12503,-0.0569573,1.6236
1470330460488777,0.125119,-0.0568735,1.6236
1470330460510295,0.124693,-0.0566104,1.62377
1470330460526309,0.124179,-0.056251,1.62377
1470330460555351,0.124179,-0.056251,1.62377
1470330460570382,0.124094,-0.0561623,1.62377
1470330460592869,0.124094,-0.0561623,1.62377
1470330460608885,0.123753,-0.0559878,1.62393
1470330460630410,0.123066,-0.0559651,1.62391
1470330460646421,0.12307,-0.0557927,1.62391
1470330460668937,0.12307,-0.0557927,1.62391
1470330460690527,0.123073,-0.0556203,1.62392
1470330460706473,0.123073,-0.0556203,1.62392
1470330460729492,0.123073,-0.0556203,1.62392
1470330460751514,0.122988,-0.0555316,1.62392
1470330460766525,0.122988,-0.0555316,1.62392
1470330460789045,0.123077,-0.0554478,1.62392
1470330460811566,0.123077,-0.0554478,1.62392
1470330460826579,0.122992,-0.0553592,1.62392
1470330460849100,0.123518,-0.0550213,1.62378
1470330460854620,0.123607,-0.0549376,1.62379
1470330460877124,0.123012,-0.0546587,1.62377
1470330460892138,0.123012,-0.0546587,1.62377
1470330460914658,0.122927,-0.0545701,1.62377
1470330460937204,0.123015,-0.0544863,1.62378
1470330460953194,0.122409,-0.0543831,1.62376
1470330460974247,0.121903,-0.0540205,1.62375
1470330460997271,0.121903,-0.0540205,1.62375
1470330461011794,0.121818,-0.0539318,1.62375
1470330461034374,0.121907,-0.0538481,1.62376
1470330461056788,0.121992,-0.0539367,1.62376
1470330461071801,0.121377,-0.0538547,1.62409
1470330461094319,0.11999,-0.0536611,1.6244
1470330461116840,0.118166,-0.0533789,1.62488
1470330461131869,0.116594,-0.0536967,1.62517
1470330461154373,0.115907,-0.0536739,1.62515
1470330461185901,0.115721,-0.0536819,1.62532
1470330461191909,0.114751,-0.0541129,1.62581
1470330461214427,0.112366,-0.0553753,1.62641
1470330461236949,0.111021,-0.05666,1.62687
1470330461253465,0.11011,-0.0578708,1.62735
1470330461274482,0.109086,-0.0590499,1.62889
1470330461297001,0.108097,-0.0670538,1.6287
1470330461313516,0.105881,-0.0716055,1.63412
1470330461334535,0.0973519,-0.077975,1.63749
1470330461357055,0.0876679,-0.0882196,1.64386
1470330461373570,0.0909096,-0.0954134,1.65059
1470330461394588,0.132045,-0.0966071,1.65381
1470330461417109,0.173515,-0.0982697,1.6543
1470330461433624,0.207025,-0.107505,1.65698
1470330461462256,0.220485,-0.121726,1.66376
1470330461476688,0.222791,-0.134001,1.66947
1470330461493178,0.229618,-0.145034,1.67243
1470330461514200,0.248257,-0.154927,1.67352
1470330461536741,0.274797,-0.16553,1.67445
1470330461553231,0.301828,-0.177682,1.67495
1470330461574751,0.325303,-0.191227,1.6741
1470330461596770,0.346622,-0.205467,1.6727
1470330461613287,0.366934,-0.220735,1.6708
1470330461634304,0.389233,-0.236084,1.66875
1470330461656824,0.413748,-0.251049,1.6668
1470330461674874,0.441796,-0.265632,1.66439
1470330461694358,0.469745,-0.280117,1.66091
1470330461716895,0.496992,-0.293254,1.65638
1470330461734910,0.521995,-0.304098,1.65127
1470330461754428,0.543435,-0.31153,1.64253
1470330461776951,0.555524,-0.321428,1.63606
1470330461794978,0.565651,-0.328687,1.62741
1470330461814525,0.570216,-0.335466,1.61995
1470330461836987,0.573361,-0.341676,1.61334
1470330461855062,0.577871,-0.347159,1.60897
1470330461874550,0.583785,-0.351976,1.60685
1470330461897067,0.592115,-0.356616,1.60628
1470330461915066,0.599054,-0.360993,1.60753
1470330461934573,0.604848,-0.364878,1.61088
1470330461957094,0.608103,-0.368219,1.61454
1470330461982617,0.606598,-0.372101,1.61846
1470330461994694,0.601922,-0.376403,1.62168
1470330462018149,0.59912,-0.383172,1.62555
1470330462035271,0.600009,-0.390607,1.62933
1470330462054686,0.598771,-0.398616,1.63382
1470330462077275,0.591535,-0.408048,1.64034
1470330462095296,0.583103,-0.417959,1.64773
1470330462114267,0.576223,-0.426562,1.65561
1470330462137256,0.570762,-0.434201,1.66367
1470330462154829,0.565341,-0.441555,1.67212
1470330462174291,0.559324,-0.448984,1.68087
1470330462196809,0.553428,-0.455574,1.68876
1470330462214826,0.54453,-0.46051,1.69527
1470330462234356,0.532912,-0.463235,1.70064
1470330462256863,0.52174,-0.464373,1.70552
1470330462274911,0.514956,-0.467038,1.70804
1470330462295899,0.510433,-0.47286,1.70674
1470330462316917,0.502978,-0.482028,1.70396
1470330462334933,0.492633,-0.494126,1.70113
1470330462355954,0.483574,-0.509414,1.69923
1470330462377029,0.480906,-0.522873,1.69657
1470330462394999,0.47886,-0.53368,1.69217
1470330462417507,0.471369,-0.542785,1.6916
1470330462437024,0.461189,-0.55103,1.69478
1470330462455040,0.452847,-0.55851,1.69997
1470330462475560,0.447138,-0.566727,1.70724
1470330462497093,0.444645,-0.574677,1.71475
1470330462514609,0.441498,-0.583705,1.72104
1470330462537615,0.433438,-0.594966,1.72696
1470330462556648,0.425011,-0.601366,1.73259
1470330462574651,0.419643,-0.601417,1.72639
1470330462595667,0.408972,-0.601566,1.73283
1470330462617186,0.403604,-0.605525,1.73501
1470330462634703,0.400874,-0.610224,1.73431
1470330462657250,0.401167,-0.611645,1.73388
1470330462676766,0.398583,-0.613755,1.73427
1470330462694815,0.396798,-0.61513,1.73294
1470330462717277,0.397277,-0.615641,1.73081
1470330462736798,0.395958,-0.614831,1.72968
1470330462754815,0.392898,-0.613317,1.72816
1470330462777348,0.389063,-0.611293,1.7277
1470330462796863,0.387261,-0.608862,1.7274
1470330462814864,0.386061,-0.606891,1.7276
1470330462837385,0.386003,-0.605211,1.72749
1470330462856921,0.385449,-0.604186,1.72779
1470330462874946,0.384672,-0.603516,1.72818
1470330462897443,0.38515,-0.602667,1.72775
1470330462916956,0.385598,-0.601758,1.7267
1470330462935087,0.385984,-0.600942,1.72609
1470330462957556,0.386539,-0.600195,1.72525
1470330462977027,0.386658,-0.599395,1.72489
1470330462995026,0.387015,-0.598767,1.72432
1470330463017576,0.387627,-0.598125,1.72393
1470330463038064,0.388336,-0.5974,1.72352
1470330463055080,0.388514,-0.596129,1.72309
1470330463077600,0.388772,-0.595206,1.72291
1470330463097117,0.388768,-0.594347,1.72275
1470330463114636,0.388728,-0.593148,1.72233
1470330463137270,0.388428,-0.591635,1.7223
1470330463157171,0.388158,-0.590218,1.72188
1470330463175305,0.387347,-0.589264,1.72221
1470330463197249,0.386587,-0.588172,1.72275
1470330463217225,0.386535,-0.587027,1.72297
1470330463234768,0.386611,-0.585894,1.72277
1470330463256262,0.386306,-0.585046,1.72245
1470330463277782,0.38571,-0.584072,1.72298
1470330463294294,0.385275,-0.583118,1.72392
1470330463316815,0.385296,-0.581983,1.72459
1470330463337834,0.38529,-0.581081,1.72507
1470330463353848,0.384511,-0.580226,1.72544
1470330463376368,0.383369,-0.579565,1.72604
1470330463397892,0.382079,-0.579359,1.72633
1470330463413904,0.380642,-0.579279,1.72685
1470330463436422,0.379132,-0.578572,1.72706
1470330463457947,0.377511,-0.577756,1.72727
1470330463473957,0.376477,-0.576964,1.72765
1470330463496476,0.375839,-0.576031,1.72881
1470330463517495,0.375686,-0.574965,1.72953
1470330463534012,0.375361,-0.573976,1.73023
1470330463556561,0.374729,-0.573092,1.73075
1470330463577590,0.373704,-0.572822,1.73143
1470330463594068,0.373133,-0.572371,1.73183
1470330463616585,0.372548,-0.571728,1.73221
1470330463646611,0.372055,-0.571099,1.73213
1470330463654117,0.370968,-0.570726,1.73238
1470330463676638,0.369364,-0.571003,1.73254
1470330463699158,0.367608,-0.571787,1.73175
1470330463714188,0.365863,-0.572764,1.73141
1470330463736692,0.363971,-0.572776,1.73093
1470330463759226,0.362585,-0.572,1.72987
1470330463773226,0.361272,-0.571619,1.72883
1470330463796757,0.360223,-0.571124,1.72799
1470330463818766,0.359401,-0.570228,1.72728
1470330463833280,0.358437,-0.569121,1.72737
1470330463856800,0.357708,-0.568083,1.72768
1470330463879320,0.357095,-0.567102,1.72821
1470330463893333,0.35696,-0.566326,1.72851
1470330463916853,0.35683,-0.565498,1.72902
1470330463938874,0.356716,-0.564867,1.72914
1470330463953387,0.356135,-0.564276,1.7293
1470330463976407,0.355407,-0.563864,1.72907
1470330463998927,0.354241,-0.563307,1.72884
1470330464013441,0.353279,-0.562544,1.72796
1470330464036461,0.352538,-0.561427,1.72741
1470330464058981,0.351814,-0.559934,1.7268
1470330464073494,0.351733,-0.558611,1.72617
1470330464096516,0.35139,-0.557348,1.72598
1470330464119037,0.351005,-0.556078,1.7258
1470330464140055,0.350651,-0.55514,1.72588
1470330464156569,0.350123,-0.554514,1.72583
1470330464179102,0.349952,-0.553739,1.72573
1470330464200108,0.349678,-0.553093,1.72585
1470330464216639,0.3499,-0.552736,1.72618
1470330464239145,0.350044,-0.552087,1.72647
1470330464260192,0.35005,-0.552042,1.72628
1470330464276678,0.35005,-0.552042,1.72628
1470330464299197,0.35005,-0.552042,1.72628
1470330464320232,0.35005,-0.552042,1.72628
1470330464336766,0.35005,-0.552042,1.72628
1470330464359251,0.349487,-0.551645,1.72646
1470330464380309,0.348623,-0.551307,1.72668
1470330464396784,0.348134,-0.550967,1.72668
1470330464419304,0.348339,-0.550471,1.72678
1470330464440325,0.348181,-0.549888,1.7267
1470330464456338,0.34765,-0.549315,1.72643
1470330464478860,0.346805,-0.548619,1.72577
1470330464500377,0.34602,-0.547548,1.72544
1470330464516392,0.345555,-0.546565,1.7249
1470330464538912,0.34509,-0.545583,1.72436
1470330464561433,0.34477,-0.544473,1.72399
1470330464575946,0.344725,-0.542933,1.72314
1470330464598966,0.344577,-0.541529,1.72209
1470330464621488,0.344157,-0.540002,1.72105
1470330464636516,0.343747,-0.537629,1.72028
1470330464659020,0.342703,-0.534552,1.71863
1470330464681540,0.340214,-0.531723,1.71631
1470330464696053,0.334527,-0.529098,1.71368
1470330464719074,0.326884,-0.525211,1.71164
1470330464741594,0.319254,-0.51969,1.71041
1470330464755606,0.314369,-0.511835,1.70943
1470330464779128,0.311802,-0.502104,1.70699
1470330464801648,0.308387,-0.491904,1.70381
1470330464815660,0.302698,-0.481448,1.70081
1470330464839182,0.294982,-0.469809,1.69865
1470330464861702,0.286122,-0.458081,1.698
1470330464875716,0.278918,-0.446749,1.69632
1470330464899256,0.274637,-0.435351,1.69506
1470330464921755,0.271014,-0.423888,1.69399
1470330464935769,0.26683,-0.411849,1.69157
1470330464959289,0.261631,-0.400561,1.68799
1470330464981312,0.256025,-0.390232,1.68418
1470330465002828,0.251029,-0.380696,1.68162
1470330465018844,0.247178,-0.371508,1.67946
1470330465041373,0.243181,-0.362492,1.67715
1470330465062899,0.237832,-0.353651,1.67477
1470330465078901,0.232201,-0.345612,1.67305
1470330465101417,0.228374,-0.33814,1.67189
1470330465122953,0.226178,-0.330549,1.67162
1470330465138951,0.224668,-0.323209,1.67079
1470330465161471,0.222101,-0.316391,1.66965
1470330465182491,0.218533,-0.309253,1.66857
1470330465205023,0.21467,-0.302505,1.66792
1470330465221525,0.21238,-0.296618,1.66763
1470330465242578,0.21112,-0.291129,1.66717
1470330465259084,0.209818,-0.285712,1.66653
1470330465281581,0.207521,-0.280172,1.66611
1470330465302598,0.205435,-0.274581,1.66589
1470330465319114,0.204776,-0.269413,1.66547
1470330465341633,0.204748,-0.264881,1.66489
1470330465362666,0.203788,-0.260697,1.66397
1470330465379168,0.201927,-0.256795,1.66292
1470330465401686,0.199658,-0.253794,1.66228
1470330465422798,0.198561,-0.251408,1.66183
1470330465439221,0.198838,-0.249472,1.66157
1470330465461740,0.199682,-0.24752,1.66166
1470330465484261,0.200524,-0.245899,1.6616
1470330465499274,0.200215,-0.244673,1.66174
1470330465521827,0.199796,-0.243528,1.66189
1470330465544340,0.199918,-0.242219,1.66185
1470330465559328,0.20024,-0.240746,1.6618
1470330465581350,0.199827,-0.239095,1.66212
1470330465603868,0.198722,-0.237054,1.66243
1470330465618882,0.197079,-0.235159,1.66277
1470330465641402,0.195929,-0.232834,1.66289
1470330465670428,0.194738,-0.229856,1.66263
1470330465678435,0.192856,-0.226508,1.66255
1470330465701456,0.190532,-0.223051,1.66247
1470330465723976,0.188009,-0.219971,1.66277
1470330465738490,0.186261,-0.216655,1.66288
1470330465762010,0.184551,-0.212328,1.66333
1470330465784030,0.182142,-0.207615,1.66379
1470330465798543,0.178585,-0.202612,1.66369
1470330465821563,0.174134,-0.197093,1.66321
1470330465844084,0.169174,-0.190872,1.66291
1470330465865102,0.164009,-0.184331,1.66298
1470330465881618,0.159342,-0.177197,1.66285
1470330465904137,0.154744,-0.170161,1.66274
1470330465925156,0.150309,-0.163008,1.66317
1470330465941672,0.146283,-0.155635,1.66381
1470330465964192,0.142146,-0.148229,1.66408
1470330465985210,0.137167,-0.140758,1.66398
1470330466001725,0.131707,-0.133231,1.66334
1470330466024245,0.126599,-0.126053,1.66235
1470330466045264,0.121294,-0.119063,1.66155
1470330466061779,0.115815,-0.11191,1.66094
1470330466084306,0.110904,-0.103915,1.66016
1470330466106319,0.104896,-0.095271,1.65936
1470330466121833,0.0975903,-0.0863187,1.65858
1470330466143853,0.0915044,-0.0775973,1.65763
1470330466164871,0.086849,-0.0693935,1.65689
1470330466181387,0.0826805,-0.0615938,1.65688
1470330466203907,0.0779026,-0.0536858,1.65688
1470330466225426,0.0722196,-0.0469599,1.65721
1470330466241440,0.067446,-0.0412162,1.6572
1470330466263961,0.065225,-0.0364567,1.6574
1470330466285480,0.0638101,-0.032955,1.65797
1470330466301494,0.0621017,-0.0302187,1.65852
1470330466324015,0.0599549,-0.0278851,1.65887
1470330466346536,0.057789,-0.0260544,1.65868
1470330466361548,0.0560458,-0.0244971,1.65831
1470330466384069,0.0544109,-0.0223503,1.65831
1470330466405087,0.0519382,-0.0196392,1.65794
1470330466421603,0.0486294,-0.0163642,1.65721
1470330466444122,0.0450789,-0.0126456,1.65629
1470330466466643,0.0417928,-0.00868793,1.65558
1470330466481656,0.0390372,-0.0044063,1.6547
1470330466504177,0.0359493,0.00023368,1.65381
1470330466526697,0.0322404,0.00464101,1.65256
1470330466541210,0.0286095,0.00895405,1.65131
1470330466564231,0.0259178,0.0131411,1.6499
1470330466586751,0.0233755,0.0167964,1.64884
1470330466600764,0.0212457,0.0199977,1.64796
1470330466624284,0.0196985,0.0227447,1.64691
1470330466646806,0.0190703,0.0248538,1.64551
1470330466660817,0.0184371,0.0267885,1.64446
1470330466684339,0.0174216,0.0276964,1.64356
1470330466706359,0.0170144,0.0286686,1.64286
1470330466720873,0.0173079,0.0299585,1.64201
1470330466744392,0.0169946,0.0311863,1.64131
1470330466772919,0.0158153,0.0324432,1.64041
1470330466780952,0.0148135,0.0340408,1.63918
1470330466803946,0.0132175,0.0359152,1.63812
1470330466826466,0.011449,0.0377951,1.63722
1470330466840979,0.00977486,0.0400995,1.636
1470330466864002,0.00793874,0.0427544,1.63495
1470330466886520,0.00601284,0.0451506,1.63425
1470330466901048,0.00442355,0.0471892,1.63372
1470330466924066,0.00318468,0.049214,1.63339
1470330466946575,0.00176387,0.0509007,1.63322
1470330466967594,0.000428537,0.052496,1.63306
1470330466984135,-0.000306667,0.0536409,1.63325
1470330467006638,-9.82318e-05,0.0543268,1.63381
1470330467027672,0.000361425,0.0547454,1.63437
1470330467043663,0.000471087,0.0551747,1.63474
1470330467066683,0.000215489,0.0554419,1.63456
1470330467087726,-0.000568679,0.0555527,1.63419
1470330467104216,-0.00168811,0.0558472,1.63399
1470330467134243,-0.00245127,0.056476,1.6338
1470330467147755,-0.00329286,0.0573667,1.63363
1470330467179283,-0.00413694,0.0582544,1.63328
1470330467186789,-0.00506249,0.059406,1.63293
1470330467207808,-0.00641789,0.0606571,1.63257
1470330467223823,-0.00777618,0.0619047,1.63204
1470330467253850,-0.00930791,0.0631571,1.6315
1470330467267862,-0.0104958,0.0644038,1.63114
1470330467283877,-0.0115943,0.0657283,1.63062
1470330467306397,-0.0127021,0.0668818,1.63009
1470330467328917,-0.0140688,0.0679538,1.62955
1470330467343931,-0.0148383,0.0690946,1.62885
1470330467373957,-0.0156915,0.0701525,1.62832
1470330467388971,-0.0165488,0.0708659,1.62796
1470330467403484,-0.0172398,0.0715724,1.62743
1470330467426507,-0.0179381,0.0721018,1.62672
1470330467449025,-0.0194336,0.0725645,1.62563
1470330467464054,-0.0216595,0.0726928,1.62379
1470330467486560,-0.0260957,0.0712242,1.62152
1470330467509081,-0.0336946,0.067921,1.619
1470330467531599,-0.0433941,0.0625792,1.61668
1470330467546613,-0.0527229,0.0555316,1.61305
1470330467569133,-0.0635806,0.0467653,1.60712
1470330467583648,-0.0795858,0.0388108,1.5994
1470330467606668,-0.0968006,0.0381681,1.5897
1470330467629186,-0.106014,0.0451999,1.57706
1470330467650208,-0.106082,0.0576397,1.55891
1470330467666720,-0.109026,0.0711004,1.53299
1470330467689240,-0.115064,0.0849275,1.50071
1470330467710277,-0.122313,0.105835,1.4625
1470330467726774,-0.131547,0.127159,1.41758
1470330467749295,-0.142718,0.14696,1.36635
1470330467770347,-0.154097,0.163776,1.31102
1470330467786333,-0.164933,0.17841,1.25315
1470330467808849,-0.174671,0.19231,1.19226
1470330467830380,-0.182192,0.204503,1.12971
1470330467846381,-0.187045,0.211912,1.06576
1470330467868902,-0.191481,0.213831,0.999699
1470330467890421,-0.192817,0.21238,0.932453
1470330467906440,-0.190244,0.206527,0.864633
1470330467928956,-0.186106,0.196736,0.796653
1470330467950501,-0.180036,0.184439,0.729134
1470330467966490,-0.175029,0.169677,0.664466
1470330467989011,-0.175195,0.15291,0.60297
1470330468010028,-0.180279,0.136234,0.544569
1470330468026545,-0.187904,0.120575,0.49034
1470330468049064,-0.197517,0.107449,0.442691
1470330468070111,-0.204281,0.0943198,0.40392
1470330468086598,-0.212084,0.0798043,0.371179
1470330468109120,-0.227421,0.0710419,0.340448
1470330468130137,-0.246079,0.0596089,0.314317
1470330468146654,-0.252662,0.0473896,0.295563
1470330468168671,-0.243068,0.0381839,0.285265
1470330468190191,-0.238935,0.0322658,0.27939
1470330468206705,-0.243701,0.0273419,0.275264
1470330468229227,-0.248254,0.0229849,0.272089
1470330468250278,-0.243936,0.0207476,0.268854
1470330468265758,-0.237836,0.0198711,0.266442
1470330468289281,-0.238516,0.0184975,0.265624
1470330468310312,-0.242945,0.0178218,0.265363
1470330468316818,-0.245855,0.0183325,0.265322
1470330468333319,-0.247284,0.0196537,0.264421
1470330468354338,-0.245107,0.0201133,0.26348
1470330468376871,-0.239879,0.0192415,0.262066
1470330468391887,-0.231538,0.0185078,0.260001
1470330468414406,-0.222057,0.0188016,0.257179
1470330468436912,-0.214279,0.0184974,0.253462
1470330468453427,-0.211943,0.0153181,0.249711
1470330468474445,-0.213983,0.0116047,0.246153
1470330468496967,-0.216887,0.00891242,0.243127
1470330468513481,-0.218682,0.00614666,0.240722
1470330468534499,-0.218732,0.00252851,0.239266
1470330468560023,-0.216619,-0.000508264,0.238708
1470330468572033,-0.213341,-0.00222583,0.237849
1470330468594553,-0.209602,-0.00300992,0.237027
1470330468617073,-0.205572,-0.00360145,0.235913
1470330468632088,-0.201453,-0.00334593,0.234724
1470330468654607,-0.19795,-0.00316972,0.233174
1470330468677128,-0.195869,-0.00245632,0.231593
1470330468693642,-0.194727,-0.00235301,0.230208
1470330468714661,-0.193716,-0.00225919,0.22859
1470330468737181,-0.193004,-0.00166144,0.226668
1470330468752194,-0.193134,-0.000798166,0.225227
1470330468774715,-0.192279,0.000170261,0.224753
1470330468796735,-0.190717,0.000839085,0.224544
1470330468811748,-0.187833,0.0024053,0.224989
1470330468834269,-0.184065,0.00426231,0.227006
1470330468857290,-0.183243,0.00501645,0.228157
1470330468871804,-0.184788,0.00558239,0.22837
1470330468894322,-0.186611,0.00582651,0.228728
1470330468917436,-0.187547,0.00523457,0.229162
1470330468933359,-0.186725,0.00487195,0.228944
1470330468954437,-0.186036,0.00436877,0.228367
1470330468976923,-0.187222,0.00373507,0.228073
1470330468993412,-0.188795,0.00389435,0.227812
1470330469014433,-0.189596,0.00443959,0.227401
1470330469039955,-0.18977,0.00503629,0.226973
1470330469053466,-0.189844,0.0054859,0.226445
1470330469074497,-0.190513,0.00602921,0.226143
1470330469097004,-0.191672,0.00674703,0.225846
1470330469115021,-0.192804,0.00756269,0.225275
1470330469134539,-0.194071,0.00839053,0.224718
1470330469157060,-0.194765,0.00878733,0.224192
1470330469173574,-0.194803,0.00947788,0.223626
1470330469194593,-0.194951,0.0103146,0.223173
1470330469217147,-0.19588,0.0108823,0.222883
1470330469233627,-0.196617,0.0107958,0.222391
1470330469254645,-0.197409,0.0103822,0.222319
1470330469277166,-0.196948,0.0101586,0.223083
1470330469294699,-0.194352,0.0101614,0.223553
1470330469314707,-0.192161,0.00991496,0.223567
1470330469337284,-0.191446,0.00968851,0.22334
1470330469355351,-0.191794,0.00990917,0.223936
1470330469374262,-0.19328,0.00992694,0.224932
1470330469397350,-0.193736,0.00917088,0.225498
1470330469414790,-0.192423,0.00767743,0.225632
1470330469434367,-0.190096,0.0064122,0.225488
1470330469457328,-0.18847,0.00550633,0.225682
1470330469474859,-0.188181,0.00484902,0.225627
1470330469494363,-0.188181,0.00484902,0.225627
1470330469516897,-0.187331,0.00474068,0.225509
1470330469534898,-0.186194,0.00496736,0.225356
1470330469554415,-0.185057,0.00519422,0.225203
1470330469576936,-0.184042,0.00542375,0.224927
1470330469594967,-0.184042,0.00542375,0.224927
1470330469614471,-0.184042,0.00542375,0.224927
1470330469636991,-0.183998,0.00575255,0.224521
1470330469655007,-0.183188,0.00638335,0.224338
1470330469674525,-0.181397,0.00690525,0.224149
1470330469697043,-0.179288,0.00700154,0.223757
1470330469715060,-0.177812,0.00696903,0.223874
1470330469734577,-0.176882,0.0064968,0.223914
1470330469757097,-0.176581,0.00583032,0.223718
1470330469775220,-0.176437,0.00490281,0.223186
1470330469794633,-0.176144,0.0042142,0.222756
1470330469817151,-0.17542,0.00399082,0.222513
1470330469835168,-0.174854,0.00351724,0.222059
1470330469855686,-0.174901,0.00311123,0.221609
1470330469880208,-0.175787,0.00280124,0.22114
1470330469894721,-0.17659,0.00335723,0.220856
1470330469916741,-0.176351,0.00437697,0.220151
1470330469937259,-0.175884,0.00512937,0.219454
1470330469954775,-0.175551,0.00589449,0.218771
1470330469977297,-0.175764,0.00624014,0.218258
1470330469996813,-0.175405,0.00602609,0.217648
1470330470014831,-0.17517,0.00599881,0.217659
1470330470035849,-0.17517,0.00599881,0.217659
1470330470056879,-0.174785,0.00603744,0.217151
1470330470074882,-0.175273,0.00604764,0.216659
1470330470095902,-0.176294,0.00576899,0.21645
1470330470116921,-0.176909,0.005704,0.216329
1470330470134937,-0.177032,0.00571716,0.21633
1470330470155956,-0.176454,0.00539806,0.216236
1470330470193990,-0.175702,0.0055601,0.216223
1470330470196492,-0.175119,0.00636437,0.216268
1470330470216010,-0.174872,0.00752508,0.217148
1470330470237031,-0.176166,0.00809885,0.21784
1470330470262550,-0.176432,0.00917009,0.218498
1470330470277565,-0.177011,0.00953292,0.219085
1470330470304589,-0.17775,0.0094819,0.218963
1470330470315098,-0.17873,0.00955592,0.218596
1470330470337619,-0.179492,0.00936128,0.21825
1470330470357135,-0.180854,0.00917828,0.217276
1470330470375152,-0.183208,0.00907639,0.216074
1470330470397201,-0.186168,0.00904911,0.214986
1470330470417190,-0.189635,0.00882977,0.213913
1470330470435310,-0.192193,0.00905785,0.213407
1470330470457794,-0.19363,0.00942071,0.213008
1470330470477244,-0.19471,0.00973161,0.212496
1470330470494760,-0.195903,0.0101033,0.212466
1470330470517281,-0.196382,0.0102519,0.21221
1470330470544805,-0.19787,0.0101058,0.211612
1470330470554814,-0.199483,0.00998391,0.211138
1470330470579836,-0.200097,0.0100116,0.210771
1470330470596866,-0.200738,0.00980982,0.210551
1470330470614868,-0.201254,0.00958278,0.210208
1470330470637388,-0.202635,0.00933731,0.209994
1470330470658407,-0.204236,0.00934618,0.209633
1470330470674922,-0.205307,0.0096908,0.209478
1470330470697442,-0.205354,0.0104281,0.209404
1470330470716960,-0.205128,0.0113689,0.209179
1470330470733975,-0.205273,0.012348,0.208957
1470330470756495,-0.206305,0.0130292,0.208517
1470330470777514,-0.207574,0.0139068,0.208558
1470330470794029,-0.207981,0.0147334,0.208965
1470330470816550,-0.207524,0.0155784,0.209246
1470330470838068,-0.206979,0.0161306,0.209195
1470330470861589,-0.206967,0.0162514,0.209182
1470330470876604,-0.207657,0.0166906,0.209134
1470330470897621,-0.208988,0.016914,0.208742
1470330470914136,-0.209604,0.0169393,0.208373
1470330470936657,-0.20969,0.0172886,0.208089
1470330470957677,-0.209651,0.0176252,0.207804
1470330470974190,-0.209515,0.0178153,0.207421
1470330470996711,-0.209761,0.0177894,0.206928
1470330471017729,-0.210377,0.0178012,0.206436
1470330471034244,-0.211228,0.0179716,0.206054
1470330471056764,-0.211956,0.0180086,0.205673
1470330471077784,-0.211943,0.0181293,0.205661
1470330471094298,-0.211943,0.0181293,0.205661
1470330471116319,-0.211943,0.0181293,0.205661
1470330471137854,-0.212326,0.0180333,0.205551
1470330471154352,-0.212956,0.0179624,0.205441
1470330471176871,-0.212956,0.0179624,0.205441
1470330471199392,-0.212956,0.0179624,0.205441
1470330471213906,-0.212968,0.0178417,0.205454
1470330471236426,-0.213449,0.0178661,0.205196
1470330471258946,-0.213918,0.0181447,0.205048
1470330471273959,-0.214498,0.0185433,0.204764
1470330471296481,-0.214844,0.018783,0.204369
1470330471319000,-0.215547,0.0190733,0.204085
1470330471333513,-0.215547,0.0190733,0.204085
1470330471356534,-0.215535,0.019194,0.204072
1470330471379054,-0.215535,0.019194,0.204072
1470330471393569,-0.215758,0.0194605,0.204047
1470330471416588,-0.216005,0.0194854,0.204047
1470330471439109,-0.215992,0.0196062,0.204034
1470330471453620,-0.215992,0.0196062,0.204034
1470330471476641,-0.215992,0.0196062,0.204034
1470330471499162,-0.216005,0.0194854,0.204047
1470330471520182,-0.216351,0.0196703,0.204269
1470330471536697,-0.217327,0.0197838,0.204381
1470330471559215,-0.218056,0.0199662,0.204245
1470330471573228,-0.218661,0.0200021,0.203987
1470330471596751,-0.219402,0.0200636,0.203865
1470330471619271,-0.219402,0.0200636,0.203865
1470330471633784,-0.219279,0.0200512,0.203865
1470330471656802,-0.219749,0.0203425,0.203839
1470330471679325,-0.220094,0.0204873,0.203691
1470330471700361,-0.220094,0.0204873,0.203691
1470330471716856,-0.220094,0.0204873,0.203691
1470330471739376,-0.220082,0.020608,0.203677
1470330471760397,-0.220094,0.0204873,0.203691
1470330471776411,-0.220094,0.0204873,0.203691
1470330471798931,-0.220094,0.0204873,0.203691
1470330471820454,-0.220577,0.0206444,0.203555
1470330471836465,-0.221059,0.0208015,0.203419
1470330471858988,-0.221776,0.0209699,0.203147
1470330471880008,-0.221776,0.0209699,0.203147
1470330471896521,-0.221776,0.0209699,0.203147
1470330471919038,-0.222171,0.0207523,0.203051
1470330471940564,-0.222665,0.0206814,0.203053
1470330471956572,-0.222665,0.0206814,0.203053
1470330471979093,-0.222665,0.0206814,0.203053
1470330472000112,-0.222665,0.0206814,0.203053
1470330472016630,-0.222677,0.0205607,0.203066
1470330472039147,-0.223271,0.0208506,0.202917
1470330472060165,-0.223878,0.0210061,0.202657
1470330472076681,-0.22389,0.0208854,0.202671
1470330472099201,-0.223482,0.0211966,0.202507
1470330472121722,-0.223248,0.021117,0.202026
1470330472136734,-0.222741,0.021227,0.201272
1470330472159254,-0.222741,0.021227,0.201272
1470330472181778,-0.222729,0.0213477,0.201258
1470330472196788,-0.222741,0.021227,0.201272
1470330472219308,-0.222741,0.021227,0.201272
1470330472241864,-0.222741,0.021227,0.201272
1470330472256868,-0.222741,0.021227,0.201272
1470330472279362,-0.223187,0.0216249,0.201097
1470330472301881,-0.223274,0.0219856,0.200933
1470330472315895,-0.22315,0.0219733,0.200933
1470330472339416,-0.223164,0.0219733,0.200945
1470330472361460,-0.223621,0.022264,0.200906
1470330472375949,-0.224351,0.0223242,0.200771
1470330472398969,-0.224351,0.0223242,0.200771
1470330472421990,-0.224005,0.0221665,0.200797
1470330472436005,-0.224005,0.0221665,0.200797
1470330472459023,-0.223993,0.0222872,0.200783
1470330472481544,-0.224734,0.0222129,0.200539
1470330472496056,-0.225241,0.0221276,0.200429
1470330472519077,-0.225241,0.0221276,0.200429
1470330472541599,-0.225241,0.0221276,0.200429
1470330472564118,-0.225229,0.0222483,0.200416
1470330472579163,-0.225229,0.0222483,0.200416
1470330472601653,-0.225229,0.0222483,0.200416
1470330472616201,-0.225501,0.0220039,0.200196
1470330472646692,-0.225501,0.0220039,0.200196
1470330472661705,-0.225501,0.0220039,0.200196
1470330472682726,-0.225501,0.0220039,0.200196
1470330472699240,-0.225005,0.0219548,0.200196
1470330472721778,-0.2245,0.0221608,0.200304
1470330472742815,-0.2245,0.0221608,0.200304
1470330472759293,-0.2245,0.0221608,0.200304
1470330472781819,-0.2245,0.0221608,0.200304
1470330472802886,-0.2245,0.0221608,0.200304
1470330472819350,-0.224376,0.0221485,0.200304
1470330472841868,-0.224747,0.0221578,0.200058
1470330472862886,-0.224735,0.0222785,0.200044
1470330472879401,-0.224747,0.0221578,0.200058
1470330472901925,-0.224747,0.0221578,0.200058
1470330472922940,-0.224871,0.0221701,0.200058
1470330472939454,-0.224735,0.0222785,0.200044
1470330472961480,-0.225229,0.0222069,0.200046
1470330472982993,-0.225229,0.0222069,0.200046
1470330472999010,-0.225241,0.0220862,0.20006
1470330473021533,-0.225229,0.0222069,0.200046
1470330473042575,-0.225229,0.0222069,0.200046
1470330473059063,-0.225229,0.0222069,0.200046
1470330473081583,-0.225229,0.0222069,0.200046
1470330473104110,-0.225624,0.0219885,0.19995
1470330473119117,-0.225624,0.0219885,0.19995
1470330473141636,-0.225972,0.0222805,0.200046
1470330473164157,-0.226096,0.0222928,0.200046
1470330473179170,-0.225848,0.0222544,0.199923
1470330473201702,-0.225724,0.0222422,0.199923
1470330473224210,-0.226096,0.0222651,0.1998
1470330473238723,-0.226343,0.0222758,0.199677
1470330473261746,-0.225812,0.0225336,0.199143
1470330473284265,-0.22543,0.0226969,0.198759
1470330473298281,-0.225554,0.0227091,0.198759
1470330473323300,-0.225888,0.0230424,0.199212
1470330473344345,-0.225245,0.0233054,0.199924
1470330473358333,-0.223108,0.0237279,0.200129
1470330473381854,-0.220971,0.0241364,0.200211
1470330473404372,-0.220069,0.0244126,0.200172
1470330473418385,-0.220428,0.0245837,0.200282
1470330473441929,-0.221505,0.0249221,0.200119
1470330473464436,-0.222224,0.0251827,0.199598
1470330473478438,-0.222289,0.0257577,0.199162
1470330473501459,-0.222254,0.0260926,0.198876
1470330473523980,-0.222254,0.0260926,0.198876
1470330473546525,-0.222254,0.0260926,0.198876
1470330473561513,-0.222254,0.0260926,0.198876
1470330473584033,-0.222254,0.0260926,0.198876
1470330473605562,-0.221711,0.0265539,0.19907
1470330473621569,-0.221724,0.0265541,0.199082
1470330473644087,-0.221724,0.0265541,0.199082
1470330473672656,-0.222353,0.0263872,0.199219
1470330473681621,-0.222353,0.0263872,0.199219
1470330473704141,-0.222477,0.0263995,0.199219
1470330473725162,-0.222477,0.0263995,0.199219
1470330473741675,-0.222477,0.0263995,0.199219
1470330473764195,-0.222353,0.0263872,0.199219
1470330473785228,-0.222342,0.026508,0.199206
1470330473801729,-0.222513,0.02601,0.199012
1470330473824266,-0.222856,0.0250414,0.198872
1470330473845283,-0.223546,0.024337,0.198582
1470330473861783,-0.224223,0.0236186,0.198157
1470330473884303,-0.224235,0.0234979,0.198171
1470330473905322,-0.224235,0.0234979,0.198171
1470330473921859,-0.224223,0.0236186,0.198157
1470330473951863,-0.224236,0.0236187,0.198169
1470330473965376,-0.224236,0.0236187,0.198169
1470330473996904,-0.224236,0.0236187,0.198169
1470330474003910,-0.224113,0.0236066,0.198169
1470330474026430,-0.224113,0.0236066,0.198169
1470330474041444,-0.224113,0.0236066,0.198169
1470330474071472,-0.224036,0.0230978,0.1981
1470330474086485,-0.224196,0.0227478,0.19814
1470330474116512,-0.224196,0.0227478,0.19814
1470330474124018,-0.224196,0.0227478,0.19814
1470330474146538,-0.2237,0.0226718,0.197894
1470330474161554,-0.2237,0.0226718,0.197894
1470330474191581,-0.224084,0.0225738,0.197784
1470330474206593,-0.224591,0.0224603,0.197428
1470330474229113,-0.224726,0.0223105,0.197072
1470330474244128,-0.224962,0.022414,0.19669
1470330474266646,-0.224838,0.022402,0.19669
1470330474281159,-0.224838,0.022402,0.19669
1470330474304180,-0.223615,0.0223884,0.196577
1470330474326702,-0.223527,0.0220278,0.19674
1470330474341214,-0.224056,0.0216206,0.197028
1470330474364735,-0.224326,0.021365,0.197796
1470330474386755,-0.221136,0.021211,0.198186
1470330474401268,-0.218748,0.0203776,0.198398
1470330474424290,-0.222596,0.0177142,0.19981
1470330474446809,-0.226946,0.0150408,0.20173
1470330474460821,-0.226924,0.0128762,0.203334
1470330474484350,-0.22406,0.0106235,0.204548
1470330474506863,-0.22168,0.00859073,0.205129
1470330474527881,-0.221234,0.00709406,0.206534
1470330474544396,-0.221297,0.00654687,0.208193
1470330474566916,-0.220863,0.00613441,0.209353
1470330474587935,-0.218854,0.00650563,0.210159
1470330474603954,-0.21754,0.0072084,0.209945
1470330474626974,-0.217731,0.00777018,0.209275
1470330474647993,-0.219242,0.00856721,0.208331
1470330474664004,-0.220111,0.0096743,0.207477
1470330474686526,-0.219377,0.0107637,0.206858
1470330474707569,-0.218123,0.0120182,0.205965
1470330474724058,-0.217759,0.0132001,0.204733
1470330474746578,-0.220176,0.0135849,0.203707
1470330474768096,-0.223622,0.0137315,0.202972
1470330474784111,-0.225203,0.0138662,0.202708
1470330474806633,-0.225809,0.0140487,0.202697
1470330474827650,-0.225945,0.0139266,0.202588
1470330474844176,-0.226946,0.0137847,0.202608
1470330474866685,-0.227714,0.0135391,0.20301
1470330474887723,-0.22821,0.0135104,0.203384
1470330474904236,-0.227828,0.0136355,0.203738
1470330474926740,-0.226543,0.0141553,0.204045
1470330474949260,-0.225617,0.0148053,0.204094
1470330474964284,-0.226717,0.0149041,0.203963
1470330474986299,-0.228547,0.0150919,0.203946
1470330475009352,-0.229721,0.0156854,0.20376
1470330475024352,-0.228918,0.0163201,0.203563
1470330475046853,-0.229004,0.0166665,0.203276
1470330475069374,-0.230204,0.0170184,0.203117
1470330475084428,-0.231552,0.0171412,0.202986
1470330475106406,-0.232381,0.0174697,0.202948
1470330475129428,-0.232072,0.0180338,0.202754
1470330475143441,-0.23091,0.0186171,0.202445
1470330475166461,-0.230873,0.0189367,0.202034
1470330475196490,-0.232197,0.0192575,0.201504
1470330475203496,-0.234127,0.0196537,0.201087
1470330475226515,-0.234871,0.0196988,0.200842
1470330475249036,-0.234116,0.0198231,0.200455
1470330475263548,-0.233573,0.0203342,0.200026
1470330475286588,-0.232695,0.0204468,0.19964
1470330475309089,-0.232782,0.020764,0.199106
1470330475323611,-0.233366,0.0211299,0.198572
1470330475346642,-0.233838,0.0213769,0.198175
1470330475369143,-0.233838,0.0213769,0.198175
1470330475383656,-0.233838,0.0213769,0.198175
1470330475406676,-0.233825,0.0214547,0.197792
1470330475429199,-0.233825,0.0214547,0.197792
1470330475450216,-0.234297,0.0217015,0.197395
1470330475466731,-0.234522,0.0219096,0.196875
1470330475489251,-0.235017,0.0219004,0.196383
1470330475510272,-0.235366,0.0221346,0.195986
1470330475526785,-0.235986,0.0221514,0.195617
1470330475549305,-0.236603,0.0220474,0.195251
1470330475570325,-0.236987,0.0219337,0.195019
1470330475586838,-0.237619,0.0218293,0.194665
1470330475615421,-0.238127,0.0217127,0.194311
1470330475630377,-0.238127,0.0217127,0.194311
1470330475646892,-0.238127,0.0217127,0.194311
1470330475668912,-0.238003,0.0217008,0.194311
1470330475690431,-0.238127,0.0217127,0.194311
1470330475706450,-0.238127,0.0217127,0.194311
1470330475728993,-0.238127,0.0217127,0.194311
1470330475750485,-0.238127,0.0217127,0.194311
1470330475757009,-0.238733,0.0217286,0.193931
1470330475772006,-0.239974,0.0217888,0.19344
1470330475794550,-0.241077,0.0218515,0.19306
1470330475817593,-0.242044,0.0220225,0.192666
1470330475832092,-0.243037,0.0220577,0.192175
1470330475857603,-0.243655,0.0219365,0.191687
1470330475877124,-0.244917,0.0216475,0.191352
1470330475892157,-0.246541,0.0214987,0.19088
1470330475914659,-0.248289,0.0213305,0.190164
1470330475937186,-0.249788,0.0211379,0.189447
1470330475952193,-0.250915,0.0209402,0.188976
1470330475974725,-0.252068,0.0206212,0.188532
1470330475997212,-0.252214,0.02033,0.188072
1470330476012246,-0.252246,0.0198913,0.187504
1470330476034746,-0.253059,0.0191287,0.186738
1470330476057294,-0.25475,0.01822,0.186117
1470330476072281,-0.256431,0.017462,0.185728
1470330476094795,-0.257251,0.0165036,0.185353
1470330476117390,-0.257576,0.0156197,0.184973
1470330476132333,-0.257947,0.014285,0.184901
1470330476154852,-0.258353,0.0125886,0.184877
1470330476177370,-0.259357,0.0111173,0.185198
1470330476192383,-0.259426,0.0103691,0.186033
1470330476214903,-0.258699,0.0103695,0.187516
1470330476237422,-0.25698,0.0103808,0.188865
1470330476252436,-0.254496,0.0106388,0.190792
1470330476274457,-0.252508,0.01085,0.192973
1470330476296980,-0.251974,0.0114414,0.195123
1470330476312490,-0.252023,0.0123336,0.197235
1470330476334510,-0.250877,0.0153759,0.200681
1470330476357030,-0.25064,0.0178693,0.203953
1470330476372059,-0.2516,0.0195407,0.206599
1470330476394593,-0.253944,0.0208282,0.208915
1470330476417086,-0.256287,0.02209,0.210982
1470330476432098,-0.257962,0.0227332,0.212641
1470330476454648,-0.260341,0.0236195,0.213642
1470330476477172,-0.263257,0.0242161,0.214813
1470330476492151,-0.265953,0.0246041,0.215519
1470330476514702,-0.267418,0.0248286,0.215989
1470330476537209,-0.267836,0.0254996,0.216019
1470330476553707,-0.26987,0.0261523,0.216428
1470330476574728,-0.272379,0.0271496,0.217174
1470330476597276,-0.274509,0.0279383,0.217551
1470330476613261,-0.276077,0.0285065,0.217736
1470330476634780,-0.276854,0.0292183,0.217751
1470330476657325,-0.277523,0.0299676,0.218148
1470330476673316,-0.278291,0.030988,0.218635
1470330476694367,-0.278033,0.0321413,0.219088
1470330476717353,-0.276395,0.0334726,0.219274
1470330476733370,-0.274111,0.0350968,0.219428
1470330476754389,-0.272847,0.0365185,0.219989
1470330476777407,-0.273319,0.0378355,0.221047
1470330476793422,-0.273946,0.0376937,0.222177
1470330476814952,-0.279308,0.0351632,0.225369
1470330476844533,-0.293132,0.0293044,0.232787
1470330476854977,-0.309544,0.0234915,0.242704
1470330476874494,-0.317808,0.0199902,0.254788
1470330476897545,-0.313335,0.0220591,0.270623
1470330476915033,-0.300653,0.0302378,0.291481
1470330476934549,-0.287504,0.0419821,0.31756
1470330476957173,-0.279279,0.054693,0.349098
1470330476975103,-0.284659,0.0650835,0.387972
1470330476994628,-0.298202,0.0763585,0.427841
1470330477017123,-0.306409,0.0880768,0.465069
1470330477035165,-0.301168,0.0989809,0.500804
1470330477054682,-0.288047,0.108452,0.535704
1470330477077177,-0.273161,0.114671,0.571181
1470330477095258,-0.263046,0.118018,0.605337
1470330477114712,-0.257159,0.116544,0.635192
1470330477137257,-0.254485,0.108604,0.660604
1470330477162755,-0.248887,0.0951715,0.680553
1470330477174764,-0.23695,0.0777759,0.693648
1470330477197297,-0.218885,0.0583072,0.701682
1470330477215302,-0.200985,0.0416621,0.710081
1470330477234898,-0.193073,0.0285751,0.719674
1470330477257392,-0.194837,0.0167845,0.727386
1470330477274854,-0.20466,-0.0180827,0.707393
1470330477294945,-0.199189,-0.0273176,0.709939
1470330477325399,-0.185477,-0.0291379,0.709716
1470330477335409,-0.181834,-0.0295963,0.709303
1470330477354966,-0.185395,-0.0309107,0.710651
1470330477384474,-0.187203,-0.0295474,0.712563
1470330477394967,-0.182149,-0.0273441,0.714323
1470330477415981,-0.175912,-0.0269573,0.715437
1470330477437582,-0.171005,-0.0270441,0.71602
1470330477455075,-0.166471,-0.027133,0.71632
1470330477476035,-0.163933,-0.0293352,0.717063
1470330477497558,-0.160273,-0.0327792,0.717333
1470330477519575,-0.154179,-0.0357422,0.716913
1470330477536094,-0.148537,-0.038107,0.716976
1470330477557152,-0.146287,-0.0401392,0.716778
1470330477575195,-0.141876,-0.0393219,0.718456
1470330477596183,-0.139095,-0.0398528,0.716149
1470330477617193,-0.133856,-0.0403124,0.7149
1470330477635179,-0.127295,-0.0424558,0.710831
1470330477656219,-0.11909,-0.0433887,0.706108
1470330477677257,-0.112165,-0.0450197,0.700713
1470330477695233,-0.105545,-0.0467568,0.695328
1470330477716252,-0.100093,-0.0471865,0.691754
1470330477737270,-0.0953806,-0.0456112,0.68886
1470330477755285,-0.0945911,-0.0424219,0.688012
1470330477775807,-0.101473,-0.0422473,0.686339
1470330477797322,-0.113925,-0.0434469,0.685214
1470330477815439,-0.120116,-0.0429023,0.685834
1470330477837360,-0.11474,-0.0420888,0.688407
1470330477857385,-0.111331,-0.0405128,0.695197
1470330477875406,-0.125609,-0.0442455,0.69917
1470330477897414,-0.138915,-0.0515067,0.690992
1470330477917433,-0.145021,-0.0548634,0.687676
1470330477934948,-0.150082,-0.0572471,0.681408
1470330477957468,-0.15834,-0.0597853,0.673895
1470330477977486,-0.167868,-0.0609154,0.668206
1470330477995014,-0.176304,-0.0607749,0.662754
1470330478017522,-0.182422,-0.0600903,0.656572
1470330478037039,-0.185549,-0.0579076,0.649965
1470330478055068,-0.188397,-0.0551184,0.64416
1470330478077575,-0.191149,-0.0519735,0.638561
1470330478097095,-0.194452,-0.0479395,0.633931
1470330478115109,-0.197451,-0.0439641,0.630083
1470330478137661,-0.199914,-0.0410266,0.626665
1470330478158203,-0.200826,-0.0378316,0.62456
1470330478174162,-0.2011,-0.0337632,0.622973
1470330478196682,-0.201638,-0.0292042,0.621769
1470330478217704,-0.203442,-0.0253366,0.621033
1470330478234216,-0.204558,-0.0224427,0.620657
1470330478256738,-0.203105,-0.0196153,0.620033
1470330478277756,-0.200148,-0.0168925,0.619387
1470330478294269,-0.197771,-0.0139517,0.618985
1470330478316790,-0.196168,-0.0113243,0.619415
1470330478337891,-0.194262,-0.00926433,0.620443
1470330478354326,-0.19172,-0.00763431,0.62173
1470330478376844,-0.18895,-0.00568703,0.623118
1470330478397868,-0.187541,-0.00358611,0.624299
1470330478414378,-0.187369,-0.000977986,0.6252
1470330478436898,-0.188791,0.00144276,0.625543
1470330478457977,-0.190745,0.00381157,0.626137
1470330478474444,-0.192053,0.00695337,0.626265
1470330478496958,-0.192906,0.0102781,0.625858
1470330478517970,-0.194259,0.0135909,0.624923
1470330478534485,-0.195927,0.0167954,0.624536
1470330478556505,-0.197704,0.0196789,0.624431
1470330478578024,-0.198659,0.0218898,0.624101
1470330478594543,-0.199534,0.0239474,0.623781
1470330478616558,-0.201891,0.0258018,0.623131
1470330478638079,-0.204951,0.0274825,0.622389
1470330478654093,-0.207705,0.0293301,0.621753
1470330478676613,-0.209374,0.0313126,0.620807
1470330478698195,-0.209501,0.0336507,0.619401
1470330478714147,-0.208803,0.0365831,0.617688
1470330478736687,-0.207488,0.0402556,0.616272
1470330478759187,-0.206525,0.0440554,0.614976
1470330478774200,-0.205691,0.0475083,0.613754
1470330478796723,-0.20437,0.0496101,0.612118
1470330478819245,-0.203591,0.0512582,0.610684
1470330478834254,-0.203775,0.0535109,0.609554
1470330478856775,-0.205448,0.0555494,0.608076
1470330478879294,-0.208161,0.0571736,0.606911
1470330478894363,-0.210412,0.0590328,0.605709
1470330478916830,-0.212346,0.0606774,0.604653
1470330478939396,-0.2135,0.0615503,0.603563
1470330478960386,-0.215415,0.0624094,0.602438
1470330478982893,-0.217629,0.0627508,0.601644
1470330478999404,-0.218985,0.0625216,0.601539
1470330479013416,-0.218974,0.061739,0.601503
1470330479036937,-0.217986,0.0611792,0.601553
1470330479059457,-0.217331,0.0603585,0.601747
1470330479073513,-0.217307,0.0595902,0.601817
1470330479096990,-0.219498,0.0587738,0.602181
1470330479119510,-0.222568,0.0579827,0.602515
1470330479133523,-0.225509,0.058083,0.603179
1470330479157044,-0.228533,0.057867,0.60308
1470330479179066,-0.23137,0.0574904,0.603299
1470330479193578,-0.234419,0.0571746,0.603326
1470330479216598,-0.237436,0.0566202,0.603686
1470330479239123,-0.240346,0.0559694,0.603533
1470330479253630,-0.243146,0.0552049,0.602731
1470330479276652,-0.246174,0.0541278,0.601976
1470330479299171,-0.248417,0.0527085,0.601537
1470330479320706,-0.24968,0.0515126,0.601172
1470330479336706,-0.250441,0.0502699,0.600684
1470330479359227,-0.251167,0.0495585,0.600382
1470330479380263,-0.252312,0.0496063,0.600015
1470330479396761,-0.254255,0.0499755,0.599234
1470330479419280,-0.256134,0.050478,0.597636
1470330479440340,-0.256905,0.0512494,0.595876
1470330479456830,-0.256655,0.0524598,0.594078
1470330479479376,-0.25656,0.0539438,0.591952
1470330479500369,-0.257435,0.0552156,0.589865
1470330479516869,-0.25926,0.0563869,0.587831
1470330479539388,-0.261848,0.0571374,0.585711
1470330479560498,-0.263913,0.0570261,0.584055
1470330479584479,-0.264111,0.0563099,0.582229
1470330479599441,-0.265386,0.0549651,0.580853
1470330479620469,-0.269686,0.053454,0.580075
1470330479636974,-0.274491,0.0519828,0.579437
1470330479659495,-0.27794,0.0511898,0.579208
1470330479680518,-0.277387,0.0508973,0.579246
1470330479696532,-0.272987,0.0513916,0.579357
1470330479719051,-0.267626,0.0520982,0.578557
1470330479741571,-0.263642,0.0529147,0.577379
1470330479756585,-0.260804,0.0536886,0.575167
1470330479779110,-0.257898,0.0543008,0.572869
1470330479801668,-0.253724,0.0553368,0.57078
1470330479816636,-0.249584,0.0567602,0.569562
1470330479839160,-0.249843,0.0571969,0.569387
1470330479861677,-0.259196,0.0546356,0.570671
1470330479876196,-0.27085,0.051357,0.57291
1470330479899210,-0.276869,0.0491679,0.571991
1470330479921731,-0.277133,0.0472392,0.569678
1470330479942749,-0.277071,0.0451423,0.567784
1470330479959264,-0.276904,0.0437615,0.56563
1470330479981802,-0.27824,0.042576,0.56364
1470330479996311,-0.278956,0.0417169,0.561578
1470330480019319,-0.278051,0.041161,0.559586
1470330480041839,-0.275349,0.0405967,0.557557
1470330480056351,-0.272364,0.0401394,0.555884
1470330480079372,-0.271103,0.039079,0.554594
1470330480101893,-0.27222,0.0368683,0.553872
1470330480115905,-0.274681,0.0340624,0.553547
1470330480139427,-0.276479,0.0312688,0.552813
1470330480161947,-0.276048,0.0286877,0.552639
1470330480175961,-0.275234,0.0274915,0.553022
1470330480199480,-0.275767,0.0269238,0.552475
1470330480222000,-0.277367,0.0254016,0.552987
1470330480243019,-0.278807,0.0240165,0.553857
1470330480259535,-0.278284,0.0232062,0.554587
1470330480281556,-0.276068,0.0220385,0.555316
1470330480302572,-0.273427,0.0215131,0.556097
1470330480319088,-0.271208,0.0212584,0.55695
1470330480341608,-0.268604,0.0214776,0.557501
1470330480362629,-0.266665,0.0219681,0.557623
1470330480379141,-0.266118,0.0224953,0.557034
1470330480401662,-0.266799,0.0227643,0.556631
1470330480422682,-0.266518,0.0232773,0.556305
1470330480439195,-0.265027,0.0244159,0.555612
1470330480467721,-0.262333,0.025718,0.554863
1470330480490243,-0.261194,0.0269779,0.55429
1470330480499251,-0.261211,0.0281944,0.553732
1470330480521771,-0.262835,0.0292628,0.553522
1470330480542810,-0.264468,0.0298002,0.553108
1470330480559303,-0.265176,0.0299037,0.552317
1470330480581826,-0.265939,0.0299198,0.55184
1470330480602845,-0.267185,0.0300406,0.551973
1470330480619358,-0.267984,0.0304084,0.552078
1470330480641877,-0.267794,0.0305917,0.551909
1470330480664431,-0.267144,0.0315206,0.551648
1470330480679468,-0.267504,0.0325362,0.551783
1470330480701931,-0.268677,0.0334374,0.55222
1470330480724454,-0.26855,0.0338352,0.551646
1470330480739465,-0.265439,0.0348427,0.55144
1470330480762003,-0.262273,0.0365143,0.550667
1470330480784219,-0.260166,0.0384916,0.549863
1470330480799232,-0.258415,0.0406352,0.549577
1470330480821753,-0.254926,0.0439417,0.550114
1470330480844274,-0.25006,0.0472828,0.552103
1470330480858785,-0.24523,0.0509224,0.555336
1470330480887855,-0.242121,0.0551892,0.558645
1470330480904327,-0.241581,0.0590067,0.562709
1470330480918839,-0.241636,0.0615357,0.566257
1470330480941902,-0.241394,0.0633231,0.568762
1470330480964425,-0.239575,0.0642703,0.570297
1470330480978920,-0.239027,0.0643948,0.57054
1470330481001920,-0.240758,0.0642023,0.570068
1470330481024435,-0.243676,0.0638709,0.569732
1470330481038448,-0.245619,0.0637932,0.569612
1470330481061967,-0.245586,0.0639095,0.569598
1470330481084488,-0.243932,0.0651842,0.570337
1470330481098501,-0.242123,0.0665547,0.571202
1470330481122021,-0.241757,0.0678408,0.572095
1470330481144549,-0.242492,0.0693237,0.572974
1470330481165060,-0.242835,0.0712183,0.573907
1470330481181575,-0.242526,0.0735859,0.575048
1470330481204095,-0.241508,0.0762128,0.57593
1470330481225615,-0.24044,0.0789551,0.576774
1470330481241630,-0.240263,0.0817809,0.577255
1470330481264149,-0.24019,0.0842116,0.577368
1470330481285184,-0.240325,0.086854,0.576701
1470330481301685,-0.241271,0.0889272,0.575695
1470330481324205,-0.242594,0.0906045,0.574735
1470330481345224,-0.243868,0.0919971,0.573664
1470330481361792,-0.245106,0.093106,0.57251
1470330481384321,-0.245983,0.0941248,0.571495
1470330481405276,-0.246501,0.0950222,0.570348
1470330481421792,-0.246706,0.0956994,0.569245
1470330481444311,-0.246914,0.0963443,0.567872
1470330481465330,-0.247915,0.096964,0.566516
1470330481481845,-0.249571,0.0975373,0.565284
1470330481504365,-0.250487,0.0979869,0.563806
1470330481525402,-0.250975,0.0985813,0.562443
1470330481541900,-0.251034,0.0993216,0.561194
1470330481564419,-0.251279,0.0998795,0.560105
1470330481585439,-0.251864,0.100156,0.55905
1470330481601952,-0.252741,0.100265,0.557988
1470330481623973,-0.253545,0.100225,0.556969
1470330481646994,-0.253782,0.100295,0.556037
1470330481662006,-0.253916,0.100316,0.555
1470330481684527,-0.253958,0.10022,0.554248
1470330481706605,-0.253844,0.100223,0.55362
1470330481721561,-0.25368,0.100374,0.55322
1470330481744081,-0.253417,0.100892,0.552919
1470330481766603,-0.252493,0.101874,0.552668
1470330481781113,-0.251739,0.102757,0.552324
1470330481804135,-0.251402,0.103595,0.551746
1470330481826654,-0.251447,0.1044,0.551012
1470330481841168,-0.251745,0.104738,0.550055
1470330481864190,-0.251971,0.104911,0.549006
1470330481886708,-0.252015,0.104815,0.548255
1470330481901221,-0.25204,0.104735,0.547609
1470330481924242,-0.251777,0.104354,0.547292
1470330481946790,-0.251662,0.103803,0.547208
1470330481961303,-0.251539,0.102853,0.547057
1470330481984324,-0.25187,0.102154,0.546888
1470330482006844,-0.25187,0.102154,0.546888
1470330482021356,-0.251902,0.102038,0.5469
1470330482044376,-0.251902,0.102038,0.5469
1470330482066897,-0.25187,0.102154,0.546888
1470330482080909,-0.251835,0.102756,0.546691
1470330482104430,-0.252043,0.103424,0.54649
1470330482126950,-0.252162,0.103942,0.546304
1470330482147971,-0.25204,0.103909,0.546305
1470330482164484,-0.252528,0.104026,0.546164
1470330482186505,-0.252941,0.103875,0.54602
1470330482208023,-0.253247,0.103708,0.546041
1470330482224039,-0.253126,0.103675,0.546043
1470330482246558,-0.253126,0.103675,0.546043
1470330482268077,-0.253829,0.103475,0.545937
1470330482284092,-0.254505,0.103359,0.545549
1470330482306612,-0.254923,0.103295,0.545181
1470330482327632,-0.255018,0.103395,0.544764
1470330482344146,-0.255067,0.103731,0.54435
1470330482366667,-0.255066,0.104198,0.544029
1470330482388185,-0.255066,0.104198,0.544029
1470330482404200,-0.255066,0.104198,0.544029
1470330482426721,-0.255066,0.104198,0.544029
1470330482447740,-0.255588,0.104182,0.543766
1470330482464253,-0.256158,0.104033,0.543409
1470330482486774,-0.256556,0.104,0.543282
1470330482515299,-0.256556,0.104,0.543282
1470330482524308,-0.256048,0.103915,0.543664
1470330482546827,-0.2556,0.103629,0.544339
1470330482569349,-0.25542,0.103344,0.545428
1470330482584362,-0.2552,0.102655,0.546393
1470330482606883,-0.25521,0.102136,0.547236
1470330482629402,-0.255448,0.101682,0.548048
1470330482644415,-0.255988,0.101547,0.548696
1470330482666935,-0.256415,0.101777,0.549412
1470330482689455,-0.256294,0.102226,0.550155
1470330482704469,-0.255983,0.102788,0.551099
1470330482726989,-0.255413,0.103401,0.552064
1470330482756516,-0.254964,0.104047,0.553027
1470330482763522,-0.255132,0.104328,0.553764
1470330482794050,-0.255698,0.104578,0.554374
1470330482809064,-0.256131,0.104863,0.554596
1470330482823583,-0.256654,0.105299,0.554805
1470330482846598,-0.257147,0.105834,0.554866
1470330482869117,-0.257489,0.106435,0.554781
1470330482883632,-0.257489,0.106435,0.554781
1470330482906652,-0.257548,0.106686,0.55462
1470330482929172,-0.257821,0.107104,0.554308
1470330482943684,-0.257971,0.107489,0.553997
1470330482966704,-0.258296,0.107758,0.553456
1470330482989225,-0.2585,0.107994,0.552916
1470330483003741,-0.258827,0.108246,0.55224
1470330483026759,-0.259188,0.108365,0.551441
1470330483049280,-0.259608,0.10875,0.550616
1470330483070298,-0.259803,0.109053,0.549689
1470330483086813,-0.2601,0.109421,0.549
1470330483109333,-0.260395,0.109807,0.548447
1470330483130352,-0.260674,0.11019,0.547865
1470330483146868,-0.260635,0.110357,0.547329
1470330483169387,-0.260593,0.110559,0.547064
1470330483190405,-0.260472,0.110525,0.547065
1470330483206920,-0.259382,0.110309,0.546858
1470330483212425,-0.257919,0.109593,0.546588
1470330483234946,-0.257772,0.108691,0.546815
1470330483256966,-0.256548,0.107954,0.547692
1470330483271981,-0.255174,0.107283,0.548424
1470330483294498,-0.254067,0.107097,0.549384
1470330483317019,-0.254546,0.107161,0.549737
1470330483332034,-0.255332,0.10706,0.55011
1470330483354553,-0.256256,0.107445,0.550055
1470330483377090,-0.25671,0.107698,0.550036
1470330483392102,-0.257175,0.108332,0.549949
1470330483414673,-0.257552,0.108799,0.549741
1470330483437128,-0.257257,0.109468,0.549699
1470330483452146,-0.257166,0.110251,0.55
1470330483474662,-0.257665,0.110752,0.54979
1470330483497182,-0.255725,0.110764,0.550204
1470330483512196,-0.253756,0.110408,0.550791
1470330483534714,-0.251667,0.109098,0.552155
1470330483557261,-0.250004,0.108482,0.553915
1470330483572248,-0.248679,0.10805,0.555388
1470330483594813,-0.249502,0.107797,0.556431
1470330483617290,-0.249484,0.107376,0.557127
1470330483632346,-0.250726,0.107497,0.55721
1470330483654827,-0.252969,0.108244,0.556971
1470330483677342,-0.253547,0.108949,0.556224
1470330483692356,-0.253813,0.10987,0.555863
1470330483714876,-0.254236,0.110223,0.555696
1470330483745931,-0.253694,0.110268,0.556204
1470330483752410,-0.251373,0.110307,0.556778
1470330483774930,-0.248887,0.110392,0.557044
1470330483797495,-0.247995,0.110351,0.557722
1470330483819971,-0.248566,0.110099,0.55838
1470330483834985,-0.250088,0.109688,0.558653
1470330483857506,-0.251762,0.109663,0.558617
1470330483872020,-0.254195,0.110179,0.558128
1470330483894538,-0.2556,0.110723,0.55727
1470330483917058,-0.255703,0.110894,0.55649
1470330483932086,-0.255231,0.111226,0.556207
1470330483954618,-0.254253,0.111003,0.556628
1470330483977139,-0.251423,0.110952,0.557587
1470330483992153,-0.248476,0.110848,0.558415
1470330484014678,-0.247947,0.110909,0.559088
1470330484037199,-0.247853,0.109786,0.559439
1470330484052207,-0.248374,0.10889,0.559286
1470330484074726,-0.249104,0.107732,0.558643
1470330484097224,-0.249966,0.106973,0.557799
1470330484113737,-0.251103,0.106614,0.557438
1470330484134756,-0.251781,0.106486,0.556913
1470330484157301,-0.251361,0.106671,0.556399
1470330484173832,-0.250422,0.106853,0.556016
1470330484194851,-0.249826,0.107169,0.55587
1470330484217327,-0.249826,0.107169,0.55587
1470330484233842,-0.249673,0.107252,0.55586
1470330484254863,-0.249673,0.107252,0.55586
1470330484277381,-0.250267,0.107387,0.555551
1470330484293494,-0.250876,0.107542,0.555407
1470330484315063,-0.251404,0.107927,0.55521
1470330484337436,-0.251986,0.108613,0.555258
1470330484354985,-0.251986,0.108613,0.555258
1470330484374474,-0.251791,0.108882,0.554848
1470330484397049,-0.251869,0.109118,0.554581
1470330484413611,-0.251869,0.109118,0.554581
1470330484434554,-0.251869,0.109118,0.554581
1470330484457543,-0.25129,0.109316,0.554418
1470330484475059,-0.251306,0.109318,0.554447
1470330484494607,-0.251306,0.109318,0.554447
1470330484517128,-0.25129,0.109316,0.554418
1470330484535115,-0.25129,0.109316,0.554418
1470330484554665,-0.25129,0.109316,0.554418
1470330484577153,-0.251411,0.10935,0.554416
1470330484595199,-0.251411,0.10935,0.554416
1470330484615191,-0.251411,0.10935,0.554416
1470330484637251,-0.251411,0.10935,0.554416
1470330484655289,-0.251411,0.10935,0.554416
1470330484674772,-0.25129,0.109316,0.554418
1470330484697286,-0.251188,0.109716,0.554788
1470330484715341,-0.251815,0.109734,0.554491
1470330484734795,-0.251831,0.109736,0.55452
1470330484757312,-0.251831,0.109736,0.55452
1470330484775329,-0.251986,0.109637,0.554394
1470330484794845,-0.252607,0.109705,0.554503
1470330484817366,-0.253102,0.110224,0.554429
1470330484834882,-0.253249,0.110643,0.55439
1470330484857903,-0.253121,0.11111,0.554342
1470330484877539,-0.252946,0.111691,0.554254
1470330484894936,-0.252914,0.111808,0.554242
1470330484915011,-0.252946,0.111691,0.554254
1470330484937547,-0.252946,0.111691,0.554254
1470330484955038,-0.252841,0.111659,0.554285
1470330484975009,-0.252814,0.112192,0.554478
1470330484997032,-0.252602,0.112924,0.554649
1470330485015045,-0.252197,0.113456,0.554729
1470330485034577,-0.252319,0.11349,0.554727
1470330485057108,-0.252287,0.113607,0.554716
1470330485075153,-0.252504,0.113291,0.554749
1470330485096156,-0.252636,0.11279,0.554525
1470330485117694,-0.253249,0.11246,0.554564
1470330485135177,-0.254181,0.112329,0.554421
1470330485156172,-0.254738,0.112631,0.554506
1470330485177218,-0.25486,0.112665,0.554504
1470330485195207,-0.25486,0.112665,0.554504
1470330485216226,-0.25486,0.112665,0.554504
1470330485237261,-0.255288,0.112534,0.554522
1470330485255272,-0.255578,0.112367,0.554513
1470330485276278,-0.255795,0.11205,0.554546
1470330485297342,-0.25629,0.111669,0.554453
1470330485315327,-0.25666,0.11127,0.554498
1470330485336333,-0.257276,0.110923,0.554404
1470330485357395,-0.25777,0.110541,0.554312
1470330485375368,-0.257589,0.110257,0.554475
1470330485395886,-0.257589,0.110257,0.554475
1470330485417406,-0.257589,0.110257,0.554475
1470330485435422,-0.257589,0.110257,0.554475
1470330485458441,-0.257711,0.110291,0.554473
1470330485477487,-0.257589,0.110257,0.554475
1470330485494975,-0.257589,0.110257,0.554475
1470330485517496,-0.257589,0.110257,0.554475
1470330485537513,-0.257133,0.11002,0.554629
1470330485555034,-0.257099,0.110154,0.554752
1470330485577606,-0.257509,0.110038,0.554877
1470330485597070,-0.258315,0.109907,0.555009
1470330485615083,-0.25894,0.109942,0.554849
1470330485644109,-0.25894,0.109942,0.554849
1470330485658121,-0.25894,0.109942,0.554849
1470330485674137,-0.258989,0.109828,0.55489
1470330485696656,-0.258989,0.109828,0.55489
1470330485718175,-0.258989,0.109828,0.55489
1470330485734692,-0.258989,0.109828,0.55489
1470330485764219,-0.259449,0.11003,0.554465
1470330485778263,-0.259848,0.110448,0.55388
1470330485801752,-0.260507,0.110936,0.553321
1470330485816763,-0.260907,0.111354,0.552736
1470330485837800,-0.260737,0.112022,0.552421
1470330485854298,-0.260306,0.112637,0.552216
1470330485876818,-0.259996,0.113287,0.552009
1470330485897837,-0.259779,0.113603,0.551974
1470330485914353,-0.259779,0.113603,0.551974
1470330485936887,-0.259779,0.113603,0.551974
1470330485957991,-0.259901,0.113637,0.551973
1470330485974405,-0.259901,0.113637,0.551973
1470330485996925,-0.259901,0.113637,0.551973
1470330486017989,-0.259869,0.113754,0.55196
1470330486034459,-0.259869,0.113754,0.55196
1470330486056979,-0.259869,0.113754,0.55196
1470330486077499,-0.260358,0.113873,0.551817
1470330486094015,-0.26048,0.113907,0.551815
1470330486117034,-0.26048,0.113907,0.551815
1470330486138054,-0.26048,0.113907,0.551815
1470330486154566,-0.26048,0.113907,0.551815
1470330486176591,-0.260847,0.113991,0.551674
1470330486198106,-0.260969,0.114025,0.551672
1470330486214179,-0.260937,0.114142,0.55166
1470330486236686,-0.260816,0.114108,0.551662
1470330486258165,-0.260937,0.114142,0.55166
1470330486274174,-0.260937,0.114142,0.55166
1470330486296695,-0.260937,0.114142,0.55166
1470330486318214,-0.260937,0.114142,0.55166
1470330486334228,-0.260937,0.114142,0.55166
1470330486356751,-0.260937,0.114142,0.55166
1470330486379269,-0.260937,0.114142,0.55166
1470330486401806,-0.260889,0.114257,0.551619
1470330486416803,-0.260921,0.11414,0.551631
1470330486439334,-0.260921,0.11414,0.551631
1470330486454336,-0.260921,0.11414,0.551631
1470330486476856,-0.261011,0.114291,0.551617
1470330486499377,-0.261011,0.114291,0.551617
1470330486513890,-0.261011,0.114291,0.551617
1470330486536910,-0.261011,0.114291,0.551617
1470330486559430,-0.261011,0.114291,0.551617
1470330486573943,-0.260979,0.114407,0.551605
1470330486596992,-0.261101,0.114441,0.551603
1470330486619484,-0.261101,0.114441,0.551603
1470330486633497,-0.261101,0.114441,0.551603
1470330486657020,-0.261223,0.114475,0.551601
1470330486679538,-0.261223,0.114475,0.551601
1470330486693551,-0.261191,0.114592,0.551588
1470330486717071,-0.261191,0.114592,0.551588
1470330486739629,-0.261191,0.114592,0.551588
1470330486753605,-0.261159,0.114709,0.551576
1470330486777126,-0.261159,0.114709,0.551576
1470330486799646,-0.261159,0.114709,0.551576
1470330486813661,-0.261281,0.114743,0.551574
1470330486836682,-0.261189,0.115076,0.551402
1470330486859202,-0.261152,0.115694,0.551339
1470330486880218,-0.261121,0.115811,0.551327
1470330486896735,-0.261121,0.115811,0.551327
1470330486919254,-0.261121,0.115811,0.551327
1470330486940288,-0.261089,0.115928,0.551315
1470330486956787,-0.261089,0.115928,0.551315
1470330486979307,-0.261211,0.115962,0.551313
1470330487000328,-0.261211,0.115962,0.551313
1470330487016844,-0.261211,0.115962,0.551313
1470330487039361,-0.261194,0.115959,0.551284
1470330487060436,-0.261316,0.115993,0.551282
1470330487076896,-0.261284,0.11611,0.55127
1470330487099419,-0.261284,0.11611,0.55127
1470330487120495,-0.261284,0.11611,0.55127
1470330487136949,-0.261284,0.11611,0.55127
1470330487159471,-0.261284,0.11611,0.55127
1470330487180537,-0.261284,0.11611,0.55127
1470330487197004,-0.261284,0.11611,0.55127
1470330487219523,-0.26125,0.116244,0.551393
1470330487240570,-0.26125,0.116244,0.551393
1470330487257057,-0.26125,0.116244,0.551393
1470330487279577,-0.26125,0.116244,0.551393
1470330487302097,-0.26125,0.116244,0.551393
1470330487317111,-0.261372,0.116278,0.55139
1470330487339632,-0.261372,0.116278,0.55139
1470330487361693,-0.261341,0.116395,0.551378
1470330487376708,-0.261341,0.116395,0.551378
1470330487399189,-0.261462,0.116429,0.551376
1470330487421706,-0.261462,0.116429,0.551376
1470330487436217,-0.261462,0.116429,0.551376
1470330487459238,-0.261462,0.116429,0.551376
1470330487481761,-0.261462,0.116429,0.551376
1470330487496290,-0.261462,0.116429,0.551376
1470330487519293,-0.261584,0.116463,0.551374
1470330487547861,-0.261553,0.11658,0.551362
1470330487556356,-0.261553,0.11658,0.551362
1470330487579349,-0.261674,0.116614,0.55136
1470330487601866,-0.261643,0.11673,0.551348
1470330487616380,-0.261643,0.11673,0.551348
1470330487639418,-0.261643,0.11673,0.551348
1470330487661921,-0.261643,0.11673,0.551348
1470330487682969,-0.261643,0.11673,0.551348
1470330487698953,-0.261765,0.116764,0.551346
1470330487721978,-0.261748,0.116762,0.551317
1470330487735987,-0.26187,0.116796,0.551314
1470330487759508,-0.261838,0.116913,0.551302
1470330487782032,-0.261838,0.116913,0.551302
1470330487803080,-0.261838,0.116913,0.551302
1470330487819562,-0.261838,0.116913,0.551302
1470330487842082,-0.261533,0.116595,0.551468
1470330487863101,-0.261136,0.116143,0.551783
1470330487879622,-0.260951,0.115876,0.552082
1470330487902137,-0.260584,0.115324,0.552544
1470330487922684,-0.260582,0.114875,0.553001
1470330487939205,-0.260444,0.114372,0.553295
1470330487961730,-0.260503,0.114172,0.553589
1470330487982764,-0.260503,0.114172,0.553589
1470330487999226,-0.260207,0.114253,0.553822
1470330488021759,-0.260207,0.114253,0.553822
1470330488042776,-0.260207,0.114253,0.553822
1470330488059293,-0.260175,0.11437,0.55381
1470330488081797,-0.260175,0.11437,0.55381
1470330488102817,-0.260175,0.11437,0.55381
1470330488119334,-0.260297,0.114404,0.553808
1470330488141855,-0.260297,0.114404,0.553808
1470330488162926,-0.260297,0.114404,0.553808
1470330488179432,-0.260297,0.114404,0.553808
1470330488201909,-0.260297,0.114404,0.553808
1470330488222953,-0.260297,0.114404,0.553808
1470330488239439,-0.260297,0.114404,0.553808
1470330488261961,-0.260419,0.114438,0.553806
1470330488284479,-0.260419,0.114438,0.553806
1470330488299494,-0.260419,0.114438,0.553806
1470330488322013,-0.260419,0.114438,0.553806
1470330488344534,-0.260419,0.114438,0.553806
1470330488359547,-0.260419,0.114438,0.553806
1470330488382067,-0.260387,0.114555,0.553794
1470330488404589,-0.260509,0.114589,0.553792
1470330488418601,-0.260509,0.114589,0.553792
1470330488442128,-0.260509,0.114589,0.553792
1470330488464142,-0.260509,0.114589,0.553792
1470330488478655,-0.26063,0.114623,0.55379
1470330488501674,-0.26063,0.114623,0.55379
1470330488524196,-0.26063,0.114623,0.55379
1470330488538707,-0.26063,0.114623,0.55379
1470330488561729,-0.260509,0.114589,0.553792
1470330488584271,-0.26063,0.114623,0.55379
1470330488598761,-0.26063,0.114623,0.55379
1470330488621784,-0.26063,0.114623,0.55379
1470330488644303,-0.26063,0.114623,0.55379
1470330488658823,-0.260662,0.114506,0.553802
1470330488681837,-0.260662,0.114506,0.553802
1470330488704367,-0.260784,0.11454,0.5538
1470330488718870,-0.260786,0.114523,0.553665
1470330488741890,-0.260786,0.114523,0.553665
1470330488764411,-0.260786,0.114523,0.553665
1470330488785508,-0.260786,0.114523,0.553665
1470330488801945,-0.260786,0.114523,0.553665
1470330488824464,-0.260786,0.114523,0.553665
1470330488845496,-0.26094,0.114441,0.553675
1470330488861998,-0.26094,0.114441,0.553675
1470330488884518,-0.26094,0.114441,0.553675
1470330488905537,-0.26094,0.114441,0.553675
1470330488922052,-0.26094,0.114441,0.553675
1470330488944573,-0.26094,0.114441,0.553675
1470330488965608,-0.26094,0.114441,0.553675
1470330488981605,-0.26094,0.114441,0.553675
1470330489004642,-0.26094,0.114441,0.553675
1470330489025683,-0.261061,0.114475,0.553673
1470330489041715,-0.26094,0.114441,0.553675
1470330489064217,-0.26094,0.114441,0.553675
1470330489085699,-0.260971,0.114324,0.553688
1470330489101713,-0.26094,0.114441,0.553675
1470330489124238,-0.260971,0.114324,0.553688
1470330489145256,-0.26094,0.114441,0.553675
1470330489161767,-0.261061,0.114475,0.553673
1470330489184287,-0.261061,0.114475,0.553673
1470330489206838,-0.261045,0.114472,0.553644
1470330489221322,-0.261045,0.114472,0.553644
1470330489244346,-0.261045,0.114472,0.553644
1470330489266861,-0.261013,0.114589,0.553632
1470330489281875,-0.261013,0.114589,0.553632
1470330489304395,-0.261013,0.114589,0.553632
1470330489326923,-0.261013,0.114589,0.553632
1470330489341429,-0.261013,0.114589,0.553632
1470330489364451,-0.261013,0.114589,0.553632
1470330489386969,-0.261013,0.114589,0.553632
1470330489401482,-0.261013,0.114589,0.553632
1470330489424516,-0.261134,0.114623,0.55363
1470330489447061,-0.261134,0.114623,0.55363
1470330489461658,-0.261134,0.114623,0.55363
1470330489492069,-0.261013,0.114589,0.553632
1470330489507076,-0.261134,0.114623,0.55363
1470330489521090,-0.261134,0.114623,0.55363
1470330489544613,-0.261134,0.114623,0.55363
1470330489567132,-0.261134,0.114623,0.55363
1470330489581146,-0.261103,0.11474,0.553618
1470330489604196,-0.261256,0.114657,0.553628
1470330489626699,-0.261134,0.114623,0.55363
1470330489641200,-0.261103,0.11474,0.553618
1470330489664223,-0.261256,0.114657,0.553628
1470330489686930,-0.261224,0.114774,0.553616
1470330489707988,-0.261224,0.114774,0.553616
1470330489724463,-0.261224,0.114774,0.553616
1470330489746998,-0.261224,0.114774,0.553616
1470330489768002,-0.261224,0.114774,0.553616
1470330489784517,-0.261224,0.114774,0.553616
1470330489807038,-0.261224,0.114774,0.553616
1470330489828065,-0.261314,0.114925,0.553602
1470330489844571,-0.261314,0.114925,0.553602
1470330489867090,-0.261314,0.114925,0.553602
1470330489888110,-0.261312,0.114942,0.553737
1470330489904126,-0.261312,0.114942,0.553737
1470330489926664,-0.261312,0.114942,0.553737
1470330489947691,-0.26128,0.115059,0.553725
1470330489964195,-0.26128,0.115059,0.553725
1470330489986701,-0.26128,0.115059,0.553725
1470330490008218,-0.261159,0.115025,0.553727
1470330490024232,-0.26128,0.115059,0.553725
1470330490046752,-0.26128,0.115059,0.553725
1470330490067771,-0.261249,0.115176,0.553712
1470330490084287,-0.26128,0.115059,0.553725
1470330490106806,-0.261249,0.115176,0.553712
1470330490127829,-0.261249,0.115176,0.553712
1470330490144344,-0.261249,0.115176,0.553712
1470330490166860,-0.261249,0.115176,0.553712
1470330490189384,-0.261249,0.115176,0.553712
1470330490204427,-0.261249,0.115176,0.553712
1470330490226915,-0.261249,0.115176,0.553712
1470330490249439,-0.261249,0.115176,0.553712
1470330490264447,-0.26137,0.11521,0.55371
1470330490286983,-0.261249,0.115176,0.553712
1470330490309490,-0.261249,0.115176,0.553712
1470330490324002,-0.261249,0.115176,0.553712
1470330490347022,-0.261249,0.115176,0.553712
1470330490369543,-0.261217,0.115293,0.5537
1470330490383554,-0.260948,0.115291,0.554216
1470330490407096,-0.260525,0.115372,0.554722
1470330490429596,-0.260379,0.115387,0.555101
1470330490443610,-0.260663,0.115271,0.555498
1470330490466640,-0.260793,0.115238,0.555885
1470330490489153,-0.260915,0.115273,0.555883
1470330490510668,-0.260793,0.115238,0.555885
1470330490526706,-0.260978,0.11549,0.556381
1470330490549203,-0.260645,0.115722,0.556873
1470330490563720,-0.260315,0.115936,0.557229
1470330490586787,-0.260413,0.11602,0.557604
1470330490609257,-0.260413,0.11602,0.557604
1470330490623774,-0.260534,0.116054,0.557602
1470330490646791,-0.260534,0.116054,0.557602
1470330490669312,-0.260502,0.116171,0.55759
1470330490682355,-0.260502,0.116171,0.55759
1470330490692833,-0.260502,0.116171,0.55759
1470330490712375,-0.260502,0.116171,0.55759
1470330490734959,-0.260502,0.116171,0.55759
1470330490752906,-0.260502,0.116171,0.55759
1470330490772442,-0.260502,0.116171,0.55759
1470330490794948,-0.260502,0.116171,0.55759
1470330490812953,-0.26047,0.116287,0.557578
1470330490832457,-0.26047,0.116287,0.557578
1470330490854978,-0.26056,0.116438,0.557564
1470330490873033,-0.26056,0.116438,0.557564
1470330490892595,-0.26056,0.116438,0.557564
1470330490915032,-0.26056,0.116438,0.557564
1470330490932571,-0.26056,0.116438,0.557564
1470330490952600,-0.26056,0.116438,0.557564
1470330490975164,-0.26056,0.116438,0.557564
1470330491000110,-0.26056,0.116438,0.557564
1470330491012623,-0.26056,0.116438,0.557564
1470330491035139,-0.26056,0.116438,0.557564
1470330491052683,-0.26056,0.116438,0.557564
1470330491072200,-0.260682,0.116473,0.557562
1470330491094697,-0.26065,0.11659,0.55755
1470330491112711,-0.26065,0.11659,0.55755
1470330491132260,-0.26065,0.11659,0.55755
1470330491154787,-0.26065,0.11659,0.55755
1470330491172808,-0.260618,0.116706,0.557538
1470330491192322,-0.260618,0.116706,0.557538
1470330491214802,-0.260601,0.116704,0.557509
1470330491232833,-0.260723,0.116738,0.557506
1470330491252379,-0.260723,0.116738,0.557506
1470330491274909,-0.260691,0.116855,0.557494
1470330491292973,-0.260569,0.11682,0.557496
1470330491312392,-0.260569,0.11682,0.557496
1470330491334912,-0.260691,0.116855,0.557494
1470330491352924,-0.260691,0.116855,0.557494
1470330491372443,-0.260691,0.116855,0.557494
1470330491394964,-0.260715,0.116805,0.557117
1470330491412979,-0.260892,0.116674,0.55675
1470330491432496,-0.261172,0.116591,0.556488
1470330491455016,-0.261018,0.116673,0.556478
1470330491472561,-0.261018,0.116673,0.556478
1470330491492647,-0.260987,0.11679,0.556465
1470330491517573,-0.261018,0.116673,0.556478
1470330491532586,-0.261018,0.116673,0.556478
1470330491552103,-0.261018,0.116673,0.556478
1470330491574624,-0.261018,0.116673,0.556478
1470330491592669,-0.260987,0.11679,0.556465
1470330491612185,-0.260987,0.11679,0.556465
1470330491634694,-0.260987,0.11679,0.556465
1470330491652738,-0.260955,0.116907,0.556453
1470330491672217,-0.260987,0.11679,0.556465
1470330491694787,-0.260955,0.116907,0.556453
1470330491712749,-0.260955,0.116907,0.556453
1470330491733767,-0.260955,0.116907,0.556453
1470330491754787,-0.260923,0.117023,0.556441
1470330491772803,-0.260986,0.117241,0.556939
1470330491795324,-0.261052,0.117442,0.557302
1470330491814842,-0.260875,0.117574,0.557669
1470330491832879,-0.260819,0.11774,0.558034
1470330491853893,-0.260819,0.11774,0.558034
1470330491874958,-0.260908,0.117891,0.55802
1470330491892961,-0.260908,0.117891,0.55802
1470330491913949,-0.260908,0.117891,0.55802
1470330491934947,-0.260908,0.117891,0.55802
1470330491953011,-0.260908,0.117891,0.55802
1470330491973482,-0.26103,0.117925,0.558018
1470330491995001,-0.26103,0.117925,0.558018
1470330492013172,-0.260876,0.118008,0.558008
1470330492033558,-0.260876,0.118008,0.558008
1470330492055059,-0.261331,0.118262,0.557988
1470330492072571,-0.262015,0.118565,0.557798
1470330492095615,-0.262015,0.118565,0.557798
1470330492115201,-0.262017,0.119014,0.557341
1470330492132667,-0.262067,0.119349,0.556926
1470330492155173,-0.261999,0.119632,0.556377
1470330492174705,-0.262145,0.119617,0.555998
1470330492192680,-0.262113,0.119734,0.555986
1470330492215200,-0.261989,0.119717,0.556124
1470330492235218,-0.261989,0.119717,0.556124
1470330492252733,-0.261989,0.119717,0.556124
1470330492275278,-0.261989,0.119717,0.556124
1470330492294770,-0.26211,0.119751,0.556121
1470330492312814,-0.26211,0.119751,0.556121
1470330492335348,-0.262079,0.119868,0.556109
1470330492354850,-0.262079,0.119868,0.556109
1470330492372841,-0.2622,0.119902,0.556107
1470330492395365,-0.2622,0.119902,0.556107
1470330492414936,-0.262169,0.120019,0.556095
1470330492432895,-0.262169,0.120019,0.556095
1470330492455415,-0.262169,0.120019,0.556095
1470330492474949,-0.262137,0.120136,0.556083
1470330492492965,-0.262137,0.120136,0.556083
1470330492515098,-0.262137,0.120136,0.556083
1470330492535116,-0.262137,0.120136,0.556083
1470330492552664,-0.262259,0.12017,0.556081
1470330492575151,-0.262171,0.120468,0.555639
1470330492594688,-0.262215,0.12087,0.554834
1470330492612685,-0.262294,0.121604,0.553586
1470330492635205,-0.263149,0.122356,0.551795
1470330492656225,-0.265384,0.122393,0.549433
1470330492678744,-0.267559,0.121691,0.547421
1470330492695304,-0.270623,0.120404,0.5466
1470330492716324,-0.27572,0.117687,0.546808
1470330492737361,-0.281012,0.114727,0.547588
1470330492755342,-0.284771,0.112285,0.547982
1470330492776377,-0.287194,0.110019,0.547851
1470330492797353,-0.288756,0.107573,0.548142
1470330492815367,-0.290052,0.105134,0.548951
1470330492836415,-0.290848,0.102679,0.549783
1470330492852902,-0.29074,0.100722,0.550564
1470330492875454,-0.290085,0.0993379,0.551917
1470330492896439,-0.288821,0.0959644,0.55314
1470330492912955,-0.287357,0.0928434,0.554707
1470330492935030,-0.281994,0.0899646,0.55616
1470330492955994,-0.279098,0.0869385,0.556927
1470330492973009,-0.278015,0.0834404,0.557883
1470330492995529,-0.277374,0.0802474,0.559199
1470330493017550,-0.275764,0.0777965,0.560559
1470330493032568,-0.272621,0.0752646,0.561764
1470330493055083,-0.268994,0.0735432,0.563373
1470330493077103,-0.265923,0.0717216,0.56501
1470330493092665,-0.263032,0.0701802,0.566483
1470330493114636,-0.260714,0.0684412,0.568104
1470330493136660,-0.258125,0.0662956,0.570142
1470330493158175,-0.255563,0.0640779,0.572569
1470330493174701,-0.25289,0.0618356,0.57513
1470330493196710,-0.250808,0.0602458,0.577501
1470330493218229,-0.248567,0.0587378,0.578953
1470330493234243,-0.246794,0.0573682,0.580378
1470330493256764,-0.24586,0.0570796,0.581305
1470330493271277,-0.245589,0.0575558,0.581626
1470330493294299,-0.245911,0.0586296,0.581248
1470330493316818,-0.2465,0.0596949,0.580252
1470330493337870,-0.247104,0.0610813,0.578672
1470330493354350,-0.24754,0.0630476,0.577024
1470330493376875,-0.247827,0.0651258,0.575634
1470330493391385,-0.247482,0.0671928,0.574636
1470330493414405,-0.246471,0.0693187,0.573613
1470330493436926,-0.245497,0.0713451,0.572742
1470330493451438,-0.244871,0.0734924,0.57198
1470330493474459,-0.244333,0.0757914,0.571208
1470330493496979,-0.243486,0.0778553,0.570346
1470330493518002,-0.243034,0.0794228,0.569656
1470330493534515,-0.242959,0.0805787,0.568881
1470330493557035,-0.243346,0.0814736,0.568008
1470330493578081,-0.244284,0.0822737,0.567157
1470330493594567,-0.245135,0.0829063,0.566184
1470330493617090,-0.246071,0.0832198,0.565491
1470330493638151,-0.246471,0.0836603,0.565074
1470330493654664,-0.246384,0.0835093,0.565087
1470330493677141,-0.246384,0.0835093,0.565087
1470330493698196,-0.246384,0.0835093,0.565087
1470330493714675,-0.246384,0.0835093,0.565087
1470330493737195,-0.24623,0.0835913,0.565075
1470330493758214,-0.24623,0.0835913,0.565075
1470330493774228,-0.24623,0.0835913,0.565075
1470330493796798,-0.246577,0.083694,0.565044
1470330493818268,-0.246577,0.083694,0.565044
1470330493833782,-0.24661,0.0835776,0.565057
1470330493856806,-0.24661,0.0835776,0.565057
1470330493878361,-0.246388,0.0839401,0.565425
1470330493894336,-0.246634,0.084424,0.565627
1470330493916856,-0.246848,0.0849927,0.565545
1470330493939422,-0.247183,0.0855958,0.565463
1470330493954390,-0.247688,0.0861178,0.565422
1470330493976912,-0.248298,0.0866734,0.565351
1470330493999432,-0.248391,0.0872235,0.565405
1470330494014445,-0.248501,0.0877423,0.565217
1470330494037016,-0.248676,0.0880443,0.565191
1470330494059484,-0.248941,0.0884812,0.565015
1470330494074498,-0.249342,0.0888513,0.564958
1470330494097033,-0.250068,0.0890422,0.564818
1470330494119595,-0.250068,0.0890422,0.564818
1470330494140575,-0.250068,0.0890422,0.564818
1470330494157075,-0.250068,0.0890422,0.564818
1470330494179592,-0.250068,0.0890422,0.564818
1470330494193617,-0.250035,0.0891586,0.564805
1470330494217126,-0.250035,0.0891586,0.564805
1470330494239646,-0.250035,0.0891586,0.564805
1470330494253658,-0.250415,0.0891448,0.564786
1470330494277180,-0.250415,0.0891448,0.564786
1470330494299245,-0.250536,0.0891793,0.564785
1470330494314213,-0.250536,0.0891793,0.564785
1470330494336783,-0.250536,0.0891793,0.564785
1470330494366760,-0.250536,0.0891793,0.564785
1470330494373775,-0.250657,0.0892138,0.564785
1470330494396789,-0.250657,0.0892138,0.564785
1470330494419307,-0.250657,0.0892138,0.564785
1470330494440931,-0.250657,0.0892138,0.564785
1470330494456841,-0.25118,0.0896183,0.564726
1470330494486870,-0.251873,0.0899255,0.564573
1470330494500381,-0.251994,0.08996,0.564572
1470330494516896,-0.251864,0.0903933,0.564251
1470330494539422,-0.251387,0.0907405,0.564096
1470330494567941,-0.251721,0.0913759,0.564284
1470330494576948,-0.252377,0.0912981,0.56414
1470330494599470,-0.252155,0.0916457,0.564374
1470330494620501,-0.251407,0.0924558,0.564412
1470330494637003,-0.25144,0.0923393,0.564424
1470330494659542,-0.25144,0.0923393,0.564424
1470330494680570,-0.251561,0.0923739,0.564423
1470330494697072,-0.251561,0.0923739,0.564423
1470330494719577,-0.251561,0.0923739,0.564423
1470330494740651,-0.251561,0.0923739,0.564423
1470330494757126,-0.251528,0.0924903,0.564411
1470330494779661,-0.251561,0.0923739,0.564423
1470330494800649,-0.251528,0.0924903,0.564411
1470330494817164,-0.251528,0.0924903,0.564411
1470330494839684,-0.251528,0.0924903,0.564411
1470330494860703,-0.251777,0.0929422,0.564341
1470330494876718,-0.252041,0.0933953,0.5643
1470330494899241,-0.252069,0.0941784,0.564329
1470330494921758,-0.252389,0.094899,0.564262
1470330494936828,-0.252482,0.0954493,0.564316
1470330494959303,-0.252422,0.0960814,0.564359
1470330494981812,-0.25191,0.0965781,0.564465
1470330494996826,-0.251326,0.0968057,0.564567
1470330495019350,-0.251293,0.0969223,0.564555
1470330495041871,-0.251293,0.0969223,0.564555
1470330495056379,-0.251293,0.0969223,0.564555
1470330495079400,-0.251293,0.0969223,0.564555
1470330495101921,-0.251293,0.0969223,0.564555
1470330495116433,-0.251414,0.0969568,0.564554
1470330495139454,-0.251414,0.0969568,0.564554
1470330495161974,-0.251382,0.0970733,0.564542
1470330495176487,-0.251382,0.0970733,0.564542
1470330495199508,-0.251382,0.0970733,0.564542
1470330495222028,-0.251382,0.0970733,0.564542
1470330495236541,-0.251382,0.0970733,0.564542
1470330495259562,-0.251382,0.0970733,0.564542
1470330495282082,-0.251382,0.0970733,0.564542
1470330495296095,-0.25176,0.0970756,0.564657
1470330495319616,-0.25176,0.0970756,0.564657
1470330495342135,-0.251881,0.0971101,0.564655
1470330495356148,-0.251881,0.0971101,0.564655
1470330495379669,-0.251848,0.0972266,0.564643
1470330495402190,-0.251848,0.0972266,0.564643
1470330495423208,-0.251848,0.0972266,0.564643
1470330495439223,-0.251969,0.0972612,0.564642
1470330495461758,-0.251969,0.0972612,0.564642
1470330495483262,-0.251969,0.0972612,0.564642
1470330495499278,-0.251969,0.0972612,0.564642
1470330495521814,-0.252058,0.0974123,0.564628
1470330495543316,-0.252058,0.0974123,0.564628
1470330495559330,-0.252058,0.0974123,0.564628
1470330495581851,-0.252058,0.0974123,0.564628
1470330495603371,-0.252058,0.0974123,0.564628
1470330495619385,-0.252058,0.0974123,0.564628
1470330495641906,-0.252058,0.0974123,0.564628
1470330495662923,-0.252058,0.0974123,0.564628
1470330495679438,-0.252058,0.0974123,0.564628
1470330495701959,-0.252058,0.0974123,0.564628
1470330495722980,-0.252179,0.0974469,0.564627
1470330495739493,-0.252179,0.0974469,0.564627
1470330495762013,-0.252179,0.0974469,0.564627
1470330495783031,-0.252163,0.0974455,0.564598
1470330495799546,-0.252284,0.0974801,0.564597
1470330495822066,-0.252284,0.0974801,0.564597
1470330495844587,-0.252284,0.0974801,0.564597
1470330495859600,-0.252284,0.0974801,0.564597
1470330495882121,-0.252372,0.0976312,0.564583
1470330495904641,-0.252372,0.0976312,0.564583
1470330495919655,-0.252372,0.0976312,0.564583
1470330495942174,-0.252339,0.0977477,0.564571
1470330495964695,-0.252339,0.0977477,0.564571
1470330495979208,-0.252339,0.0977477,0.564571
1470330496002229,-0.25246,0.0977822,0.56457
1470330496024249,-0.25246,0.0977822,0.56457
1470330496038761,-0.25246,0.0977822,0.56457
1470330496061782,-0.25246,0.0977822,0.56457
1470330496084303,-0.252427,0.0978988,0.564557
1470330496098816,-0.252427,0.0978988,0.564557
1470330496121837,-0.252427,0.0978988,0.564557
1470330496144357,-0.252549,0.0979333,0.564556
1470330496158869,-0.252549,0.0979333,0.564556
1470330496181890,-0.252549,0.0979333,0.564556
1470330496204410,-0.252549,0.0979333,0.564556
1470330496218924,-0.252516,0.0980498,0.564544
1470330496241943,-0.252637,0.0980844,0.564542
1470330496264465,-0.252637,0.0980844,0.564542
1470330496278979,-0.252637,0.0980844,0.564542
1470330496308016,-0.252637,0.0980844,0.564542
1470330496324517,-0.252637,0.0980844,0.564542
1470330496345537,-0.252758,0.098119,0.564541
1470330496362052,-0.252758,0.098119,0.564541
1470330496384572,-0.252758,0.098119,0.564541
1470330496405591,-0.252758,0.098119,0.564541
1470330496422106,-0.252725,0.0982355,0.564529
1470330496444625,-0.252725,0.0982355,0.564529
1470330496465644,-0.252709,0.0982341,0.5645
1470330496482159,-0.25283,0.0982687,0.564498
1470330496504679,-0.25283,0.0982687,0.564498
1470330496525698,-0.25283,0.0982687,0.564498
1470330496541713,-0.25283,0.0982687,0.564498
1470330496564234,-0.252797,0.0983852,0.564486
1470330496585754,-0.252797,0.0983852,0.564486
1470330496601767,-0.252797,0.0983852,0.564486
1470330496624288,-0.252918,0.0984198,0.564485
1470330496645306,-0.252886,0.0985363,0.564472
1470330496661821,-0.252918,0.0984198,0.564485
1470330496684343,-0.252918,0.0984198,0.564485
1470330496705359,-0.252918,0.0984198,0.564485
1470330496721875,-0.252886,0.0985363,0.564472
1470330496744409,-0.252886,0.0985363,0.564472
1470330496765429,-0.253007,0.0985709,0.564471
1470330496781928,-0.253007,0.0985709,0.564471
1470330496804451,-0.253007,0.0985709,0.564471
1470330496827013,-0.252974,0.0986874,0.564459
1470330496841982,-0.2523,0.0987804,0.564711
1470330496864573,-0.253229,0.0986882,0.564846
1470330496887107,-0.253868,0.0987281,0.564717
1470330496902093,-0.253951,0.0983772,0.564725
1470330496924632,-0.252862,0.0981687,0.564646
1470330496947125,-0.251942,0.0977769,0.564697
1470330496961135,-0.252502,0.0971816,0.564768
1470330496984655,-0.253397,0.0972058,0.564891
1470330497007174,-0.254071,0.0971127,0.56464
1470330497021187,-0.254114,0.0964957,0.564704
1470330497044708,-0.253287,0.0966707,0.564944
1470330497066727,-0.253254,0.0967872,0.564931
1470330497081260,-0.253264,0.0962866,0.564982
1470330497104302,-0.253264,0.0962866,0.564982
1470330497126781,-0.253603,0.0960229,0.565153
1470330497141294,-0.253587,0.0960216,0.565124
1470330497164314,-0.253272,0.0958191,0.565304
1470330497186839,-0.252667,0.0956461,0.56531
1470330497201348,-0.252634,0.0957625,0.565297
1470330497224373,-0.252663,0.0956954,0.565716
1470330497246889,-0.252528,0.096108,0.566162
1470330497261401,-0.252798,0.0974093,0.566663
1470330497284423,-0.253014,0.0984266,0.567055
1470330497306951,-0.252233,0.0993524,0.567084
1470330497328497,-0.249601,0.100457,0.56778
1470330497344482,-0.24869,0.101774,0.569058
1470330497366998,-0.250659,0.101607,0.570089
1470330497388021,-0.252054,0.100735,0.570937
1470330497404531,-0.251491,0.0999759,0.571278
1470330497427055,-0.250614,0.0990132,0.571799
1470330497448125,-0.250394,0.0979583,0.572037
1470330497464585,-0.250881,0.096713,0.572171
1470330497487106,-0.251207,0.0964326,0.572177
1470330497508125,-0.252252,0.0955308,0.571769
1470330497524637,-0.252657,0.0946032,0.571626
1470330497547158,-0.251761,0.094576,0.571501
1470330497568205,-0.251641,0.094541,0.571502
1470330497584692,-0.251641,0.094541,0.571502
1470330497606713,-0.251641,0.094541,0.571502
1470330497628294,-0.251641,0.094541,0.571502
1470330497644294,-0.251641,0.094541,0.571502
1470330497667266,-0.251641,0.094541,0.571502
1470330497688287,-0.251674,0.0944247,0.571515
1470330497704300,-0.251795,0.0944596,0.571514
1470330497727319,-0.251674,0.0944247,0.571515
1470330497749341,-0.251674,0.0944247,0.571515
1470330497764355,-0.251795,0.0944596,0.571514
1470330497786875,-0.251674,0.0944247,0.571515
1470330497809394,-0.251674,0.0944247,0.571515
1470330497824409,-0.251707,0.0943083,0.571527
1470330497846966,-0.251707,0.0943083,0.571527
1470330497869470,-0.251674,0.0944247,0.571515
1470330497884461,-0.251707,0.0943083,0.571527
1470330497906981,-0.251707,0.0943083,0.571527
1470330497929501,-0.251707,0.0943083,0.571527
1470330497944014,-0.251707,0.0943083,0.571527
1470330497967536,-0.251828,0.0943432,0.571526
1470330497989587,-0.251828,0.0943432,0.571526
1470330498004069,-0.251828,0.0943432,0.571526
1470330498027127,-0.251828,0.0943432,0.571526
1470330498049611,-0.251795,0.0944596,0.571514
1470330498063628,-0.251953,0.0947775,0.571593
1470330498087143,-0.251819,0.0952594,0.571679
1470330498109665,-0.251819,0.0952594,0.571679
1470330498123677,-0.251819,0.0952594,0.571679
1470330498147196,-0.25194,0.0952943,0.571678
1470330498152248,-0.25194,0.0952943,0.571678
1470330498174722,-0.251961,0.0956784,0.571639
1470330498191236,-0.252052,0.0962291,0.571694
1470330498212255,-0.252019,0.0963454,0.571681
1470330498234778,-0.25214,0.0963804,0.57168
1470330498251292,-0.25214,0.0963804,0.57168
1470330498272309,-0.25214,0.0963804,0.57168
1470330498294830,-0.25214,0.0963804,0.57168
1470330498311346,-0.25214,0.0963804,0.57168
1470330498332363,-0.25214,0.0963804,0.57168
1470330498354897,-0.25214,0.0963804,0.57168
1470330498371398,-0.252107,0.0964968,0.571668
1470330498392419,-0.252228,0.0965318,0.571667
1470330498414973,-0.252228,0.0965318,0.571667
1470330498431452,-0.252228,0.0965318,0.571667
1470330498452529,-0.252228,0.0965318,0.571667
1470330498475041,-0.252228,0.0965318,0.571667
1470330498491505,-0.252228,0.0965318,0.571667
1470330498512527,-0.252228,0.0965318,0.571667
1470330498535046,-0.252349,0.0965668,0.571666
1470330498551560,-0.252349,0.0965668,0.571666
1470330498572579,-0.252315,0.0966831,0.571653
1470330498595145,-0.252315,0.0966831,0.571653
1470330498611113,-0.252315,0.0966831,0.571653
1470330498632750,-0.252315,0.0966831,0.571653
1470330498654679,-0.252315,0.0966831,0.571653
1470330498671166,-0.25242,0.0967168,0.571623
1470330498692749,-0.25242,0.0967168,0.571623
1470330498714706,-0.25242,0.0967168,0.571623
1470330498733274,-0.25242,0.0967168,0.571623
1470330498752785,-0.25242,0.0967168,0.571623
1470330498774779,-0.252541,0.0967518,0.571622
1470330498792777,-0.252541,0.0967518,0.571622
1470330498812295,-0.252508,0.0968682,0.571609
1470330498834814,-0.252508,0.0968682,0.571609
1470330498852864,-0.252508,0.0968682,0.571609
1470330498872383,-0.252508,0.0968682,0.571609
1470330498894890,-0.252508,0.0968682,0.571609
1470330498912984,-0.252629,0.0969032,0.571608
1470330498932428,-0.252596,0.0970196,0.571596
1470330498954940,-0.252596,0.0970196,0.571596
1470330498972971,-0.252596,0.0970196,0.571596
1470330498992456,-0.252596,0.0970196,0.571596
1470330499014976,-0.252596,0.0970196,0.571596
1470330499033044,-0.252717,0.0970545,0.571595
1470330499052540,-0.252683,0.0971709,0.571582
1470330499075038,-0.252804,0.0972059,0.571581
1470330499093046,-0.252804,0.0972059,0.571581
1470330499112564,-0.252804,0.0972059,0.571581
1470330499135108,-0.252925,0.0972409,0.57158
1470330499153196,-0.252804,0.0972059,0.571581
1470330499172618,-0.252892,0.0973573,0.571568
1470330499194643,-0.252892,0.0973573,0.571568
1470330499213155,-0.252892,0.0973573,0.571568
1470330499233673,-0.253013,0.0973922,0.571566
1470330499255197,-0.252997,0.0973909,0.571537
1470330499272709,-0.252997,0.0973909,0.571537
1470330499293728,-0.252997,0.0973909,0.571537
1470330499315262,-0.252997,0.0973909,0.571537
1470330499333281,-0.252964,0.0975073,0.571525
1470330499361287,-0.252964,0.0975073,0.571525
1470330499374807,-0.253085,0.0975423,0.571523
1470330499392873,-0.253085,0.0975423,0.571523
1470330499413836,-0.253085,0.0975423,0.571523
1470330499434871,-0.253085,0.0975423,0.571523
1470330499457386,-0.253085,0.0975423,0.571523
1470330499481395,-0.253052,0.0976587,0.571511
1470330499494949,-0.253052,0.0976587,0.571511
1470330499513018,-0.253173,0.0976936,0.57151
1470330499533942,-0.253173,0.0976936,0.57151
1470330499562467,-0.253173,0.0976936,0.57151
1470330499573089,-0.253173,0.0976936,0.57151
1470330499601533,-0.253173,0.0976936,0.57151
1470330499615029,-0.253294,0.0977286,0.571509
1470330499633031,-0.253294,0.0977286,0.571509
1470330499655551,-0.25326,0.097845,0.571496
1470330499675069,-0.25326,0.097845,0.571496
1470330499692584,-0.25326,0.097845,0.571496
1470330499715646,-0.25326,0.097845,0.571496
1470330499735154,-0.25326,0.097845,0.571496
1470330499752638,-0.253381,0.09788,0.571495
1470330499775677,-0.253227,0.0979614,0.571484
1470330499794709,-0.254095,0.0984879,0.571527
1470330499812693,-0.254379,0.0993428,0.571583
1470330499835213,-0.254459,0.100394,0.571586
1470330499854730,-0.254594,0.101713,0.571564
1470330499872747,-0.254158,0.103174,0.571901
1470330499895269,-0.253629,0.104532,0.57266
1470330499914801,-0.253619,0.105898,0.573291
1470330499932807,-0.253888,0.107168,0.573524
1470330499955377,-0.253361,0.108493,0.574014
1470330499974840,-0.25267,0.10955,0.574835
1470330499997398,-0.251973,0.110104,0.575676
1470330500015419,-0.251564,0.11011,0.576575
1470330500037942,-0.251253,0.109784,0.577646
1470330500052910,-0.250787,0.109122,0.578501
1470330500075445,-0.250619,0.108367,0.578985
1470330500094947,-0.250247,0.107392,0.579211
1470330500112966,-0.25028,0.107276,0.579223
1470330500135483,-0.251229,0.107159,0.579111
1470330500155000,-0.252479,0.107331,0.578562
1470330500173016,-0.253668,0.107685,0.577582
1470330500195536,-0.254341,0.108116,0.576506
1470330500215054,-0.254689,0.108724,0.575517
1470330500233070,-0.254908,0.109363,0.575073
1470330500255590,-0.254908,0.109363,0.575073
1470330500276609,-0.254908,0.109363,0.575073
1470330500293124,-0.254611,0.109025,0.575102
1470330500315702,-0.254033,0.108349,0.57519
1470330500336179,-0.253803,0.107778,0.575242
1470330500353229,-0.254001,0.107096,0.57545
1470330500375240,-0.254804,0.106591,0.575651
1470330500396216,-0.255282,0.106247,0.575802
1470330500413249,-0.255485,0.105948,0.575943
1470330500435251,-0.255518,0.105832,0.575956
1470330500456272,-0.255518,0.105832,0.575956
1470330500472827,-0.255518,0.105832,0.575956
1470330500495306,-0.255518,0.105832,0.575956
1470330500516324,-0.255518,0.105832,0.575956
1470330500532866,-0.255518,0.105832,0.575956
1470330500555401,-0.256036,0.105857,0.575962
1470330500576381,-0.256036,0.105857,0.575962
1470330500597899,-0.256157,0.105892,0.57596
1470330500614414,-0.256183,0.106226,0.575514
1470330500636951,-0.256347,0.106597,0.575096
1470330500658007,-0.256326,0.107148,0.574519
1470330500674467,-0.256747,0.107488,0.574217
1470330500696988,-0.257044,0.107827,0.574187
1470330500718006,-0.257044,0.107827,0.574187
1470330500734521,-0.257011,0.107943,0.574175
1470330500757040,-0.257011,0.107943,0.574175
1470330500771068,-0.257015,0.108342,0.574243
1470330500794624,-0.256605,0.108871,0.574322
1470330500817109,-0.256471,0.109353,0.574409
