timestamp,roll,pitch,yaw
1470330559008287,-0.359389,0.0613425,0.298905
1470330559015793,-0.359009,0.0613089,0.299031
1470330559031807,-0.359009,0.0613089,0.299031
1470330559053327,-0.359009,0.0613089,0.299031
1470330559077348,-0.359604,0.0615646,0.299239
1470330559092362,-0.359604,0.0615646,0.299239
1470330559113381,-0.359604,0.0615646,0.299239
1470330559136901,-0.359604,0.0615646,0.299239
1470330559183944,-0.359604,0.0615646,0.299239
1470330559185946,-0.359731,0.0615832,0.299239
1470330559197956,-0.35946,0.061687,0.299343
1470330559211970,-0.35946,0.061687,0.299343
1470330559233988,-0.35946,0.061687,0.299343
1470330559258511,-0.359587,0.0617056,0.299343
1470330559286536,-0.359587,0.0617056,0.299343
1470330559297045,-0.359587,0.0617056,0.299343
1470330559316562,-0.359587,0.0617056,0.299343
1470330559330575,-0.359587,0.0617056,0.299343
1470330559353095,-0.359713,0.0617242,0.299342
1470330559375617,-0.359713,0.0617242,0.299342
1470330559390630,-0.359315,0.0618094,0.299447
1470330559413151,-0.359315,0.0618094,0.299447
1470330559435670,-0.359315,0.0618094,0.299447
1470330559450683,-0.359316,0.0617872,0.299323
1470330559473204,-0.359316,0.0617872,0.299323
1470330559495724,-0.359316,0.0617872,0.299323
1470330559510737,-0.359443,0.0618058,0.299322
1470330559533258,-0.359443,0.0618058,0.299322
1470330559555779,-0.359443,0.0618058,0.299322
1470330559570792,-0.359048,0.0620102,0.299424
1470330559593313,-0.359048,0.0620102,0.299424
1470330559615832,-0.359048,0.0620102,0.299424
1470330559630845,-0.359408,0.0620656,0.299405
1470330559653365,-0.359408,0.0620656,0.299405
1470330559678888,-0.35901,0.0621508,0.29951
1470330559698406,-0.358616,0.0623551,0.299612
1470330559713419,-0.358616,0.0623551,0.299612
1470330559735939,-0.358616,0.0623551,0.299612
1470330559750953,-0.358616,0.0623551,0.299612
1470330559773473,-0.358633,0.0622363,0.299632
1470330559795993,-0.358633,0.0622363,0.299632
1470330559811007,-0.358742,0.0623738,0.299611
1470330559833527,-0.358742,0.0623738,0.299611
1470330559856047,-0.358742,0.0623738,0.299611
1470330559871060,-0.358742,0.0623738,0.299611
1470330559900588,-0.35876,0.0622549,0.299632
1470330559915603,-0.359356,0.0624664,0.299591
1470330559931115,-0.359373,0.0623476,0.299612
1470330559953135,-0.359373,0.0623476,0.299612
1470330559975654,-0.359373,0.0623476,0.299612
1470330559992170,-0.3595,0.0623662,0.299612
1470330560013190,-0.3595,0.0623662,0.299612
1470330560035709,-0.359483,0.0624851,0.299591
1470330560052224,-0.359483,0.0624851,0.299591
1470330560073243,-0.359483,0.0624851,0.299591
1470330560095763,-0.359483,0.0624851,0.299591
1470330560112279,-0.3595,0.0623662,0.299612
1470330560133297,-0.3595,0.0623662,0.299612
1470330560155817,-0.359483,0.0624851,0.299591
1470330560172331,-0.3595,0.0623662,0.299612
1470330560193351,-0.3595,0.0623662,0.299612
1470330560215870,-0.359609,0.0625037,0.29959
1470330560232387,-0.359627,0.0623627,0.299487
1470330560253403,-0.359606,0.0623622,0.299469
1470330560275925,-0.359606,0.0623622,0.299469
1470330560292939,-0.359589,0.0625032,0.299572
1470330560315461,-0.359589,0.0625032,0.299572
1470330560336479,-0.359589,0.0625032,0.299572
1470330560352995,-0.359715,0.0625219,0.299572
1470330560375514,-0.359715,0.0625219,0.299572
1470330560396532,-0.359715,0.0625219,0.299572
1470330560413049,-0.359589,0.0625032,0.299572
1470330560435567,-0.359715,0.0625219,0.299572
1470330560456586,-0.359321,0.0627484,0.299798
1470330560472601,-0.359321,0.0627484,0.299798
1470330560495121,-0.359338,0.0626296,0.299819
1470330560516641,-0.359338,0.0626296,0.299819
1470330560532656,-0.359321,0.0627484,0.299798
1470330560555675,-0.359338,0.0626296,0.299819
1470330560576694,-0.359338,0.0626296,0.299819
1470330560592709,-0.359338,0.0626296,0.299819
1470330560615229,-0.359317,0.0626291,0.299801
1470330560636249,-0.359317,0.0626291,0.299801
1470330560652765,-0.359444,0.0626478,0.299801
1470330560675283,-0.359444,0.0626478,0.299801
1470330560696306,-0.359444,0.0626478,0.299801
1470330560712832,-0.359444,0.0626478,0.299801
1470330560735341,-0.359427,0.0627666,0.29978
1470330560756358,-0.359427,0.0627666,0.29978
1470330560772875,-0.359554,0.0627852,0.29978
1470330560795393,-0.359554,0.0627852,0.29978
1470330560816409,-0.359554,0.0627852,0.29978
1470330560832925,-0.359554,0.0627852,0.29978
1470330560855446,-0.359554,0.0627852,0.29978
1470330560876482,-0.35968,0.0628039,0.299779
1470330560892978,-0.35968,0.0628039,0.299779
1470330560915500,-0.35968,0.0628039,0.299779
1470330560938019,-0.35968,0.0628039,0.299779
1470330560953035,-0.359807,0.0628225,0.299779
1470330560975553,-0.359807,0.0628225,0.299779
1470330560998073,-0.359807,0.0628225,0.299779
1470330561013129,-0.359807,0.0628225,0.299779
1470330561035606,-0.359934,0.0628412,0.299778
1470330561058127,-0.359934,0.0628412,0.299778
1470330561072140,-0.359934,0.0628412,0.299778
1470330561095164,-0.360061,0.0628598,0.299778
1470330561117681,-0.36004,0.0628593,0.29976
1470330561132197,-0.36004,0.0628593,0.29976
1470330561155215,-0.36004,0.0628593,0.29976
1470330561177735,-0.360547,0.0629561,0.299883
1470330561192248,-0.360526,0.0629557,0.299865
1470330561215270,-0.360526,0.0629557,0.299865
1470330561237790,-0.360526,0.0629557,0.299865
1470330561252302,-0.360653,0.0629743,0.299865
1470330561275323,-0.360653,0.0629743,0.299865
1470330561297842,-0.36067,0.0628555,0.299886
1470330561312355,-0.360797,0.0628742,0.299885
1470330561335403,-0.360798,0.0628519,0.299761
1470330561357896,-0.36078,0.062993,0.299864
1470330561372408,-0.36078,0.062993,0.299864
1470330561395430,-0.360924,0.0628705,0.29976
1470330561417957,-0.360924,0.0628705,0.29976
1470330561439015,-0.360907,0.0629894,0.299739
1470330561455535,-0.360924,0.0628705,0.29976
1470330561478046,-0.361034,0.063008,0.299739
1470330561499067,-0.361034,0.063008,0.299739
1470330561515549,-0.361034,0.063008,0.299739
1470330561538057,-0.361161,0.0630266,0.299738
1470330561559077,-0.361161,0.0630266,0.299738
1470330561575591,-0.361161,0.0630266,0.299738
1470330561605618,-0.361161,0.0630266,0.299738
1470330561619131,-0.361267,0.0630671,0.299845
1470330561642669,-0.361267,0.0630671,0.299845
1470330561657665,-0.361267,0.0630671,0.299845
1470330561679237,-0.361267,0.0630671,0.299845
1470330561695199,-0.361377,0.0632045,0.299823
1470330561717719,-0.361377,0.0632045,0.299823
1470330561739242,-0.361377,0.0632045,0.299823
1470330561755253,-0.361377,0.0632045,0.299823
1470330561777776,-0.361377,0.0632045,0.299823
1470330561798792,-0.361503,0.0632232,0.299823
1470330561815311,-0.361486,0.063342,0.299802
1470330561837827,-0.361486,0.063342,0.299802
1470330561860348,-0.361486,0.063342,0.299802
1470330561875361,-0.361613,0.0633607,0.299801
1470330561897882,-0.361613,0.0633607,0.299801
1470330561920401,-0.361613,0.0633607,0.299801
1470330561935418,-0.361613,0.0633607,0.299801
1470330561957968,-0.361613,0.0633607,0.299801
1470330561980457,-0.361613,0.0633607,0.299801
1470330562002977,-0.361613,0.0633607,0.299801
1470330562018018,-0.361723,0.0634981,0.29978
1470330562040509,-0.361723,0.0634981,0.29978
1470330562055023,-0.361723,0.0634981,0.29978
1470330562078042,-0.361829,0.0635163,0.299761
1470330562100563,-0.361829,0.0635163,0.299761
1470330562114576,-0.361829,0.0635163,0.299761
1470330562137644,-0.361812,0.0636351,0.29974
1470330562160617,-0.361812,0.0636351,0.29974
1470330562174630,-0.361939,0.0636537,0.29974
1470330562197654,-0.361939,0.0636537,0.29974
1470330562220170,-0.361939,0.0636537,0.29974
1470330562234687,-0.361922,0.0637725,0.299719
1470330562257704,-0.361922,0.0637725,0.299719
1470330562280224,-0.362049,0.0637912,0.299718
1470330562294737,-0.362049,0.0637912,0.299718
1470330562317761,-0.362049,0.0637912,0.299718
1470330562340278,-0.362176,0.0638098,0.299718
1470330562361298,-0.362159,0.0639286,0.299697
1470330562377811,-0.362159,0.0639286,0.299697
1470330562400332,-0.362286,0.0639473,0.299696
1470330562421353,-0.362286,0.0639473,0.299696
1470330562437866,-0.362286,0.0639473,0.299696
1470330562460405,-0.362375,0.0640842,0.299657
1470330562481409,-0.362375,0.0640842,0.299657
1470330562497919,-0.362375,0.0640842,0.299657
1470330562520439,-0.362375,0.0640842,0.299657
1470330562541491,-0.362501,0.0641029,0.299656
1470330562557976,-0.362501,0.0641029,0.299656
1470330562580495,-0.362501,0.0641029,0.299656
1470330562609050,-0.362501,0.0641029,0.299656
1470330562618045,-0.362484,0.064244,0.29976
1470330562640547,-0.362484,0.064244,0.29976
1470330562661632,-0.362611,0.0642403,0.299635
1470330562678081,-0.362738,0.0642589,0.299634
1470330562700603,-0.362738,0.0642589,0.299634
1470330562721620,-0.362738,0.0642813,0.299759
1470330562737670,-0.362738,0.0642813,0.299759
1470330562760155,-0.362738,0.0642813,0.299759
1470330562781776,-0.362848,0.0644188,0.299737
1470330562797690,-0.362848,0.0644188,0.299737
1470330562820211,-0.362827,0.0644183,0.299719
1470330562842732,-0.362954,0.0644369,0.299719
1470330562857742,-0.362954,0.0644369,0.299719
1470330562880276,-0.362954,0.0644369,0.299719
1470330562910290,-0.362937,0.0645557,0.299698
1470330562923845,-0.363064,0.0645744,0.299697
1470330562940317,-0.363064,0.0645744,0.299697
1470330562962841,-0.363064,0.0645744,0.299697
1470330562977350,-0.363064,0.0645744,0.299697
1470330563000374,-0.363174,0.0647118,0.299676
1470330563022893,-0.363174,0.0647118,0.299676
1470330563037404,-0.363174,0.0647118,0.299676
1470330563060425,-0.363301,0.0647305,0.299675
1470330563082946,-0.363283,0.0648493,0.299654
1470330563097458,-0.363283,0.0648493,0.299654
1470330563120479,-0.363283,0.0648493,0.299654
1470330563143000,-0.36341,0.0648679,0.299654
1470330563157013,-0.36341,0.0648679,0.299654
1470330563180532,-0.363389,0.0648674,0.299636
1470330563203053,-0.363372,0.0649862,0.299615
1470330563217115,-0.363499,0.0650048,0.299614
1470330563240631,-0.363499,0.0650048,0.299614
1470330563270613,-0.363626,0.0650235,0.299614
1470330563277119,-0.363609,0.0651423,0.299592
1470330563306669,-0.363609,0.0651423,0.299592
1470330563322684,-0.363609,0.0651423,0.299592
1470330563344179,-0.363609,0.0651423,0.299592
1470330563360193,-0.363609,0.0651423,0.299592
1470330563382714,-0.363592,0.0652611,0.299571
1470330563404232,-0.364189,0.0654726,0.29953
1470330563420248,-0.365151,0.0658363,0.29934
1470330563442770,-0.365826,0.0663775,0.298985
1470330563463792,-0.365869,0.0669448,0.29863
1470330563480302,-0.365852,0.0670862,0.298733
1470330563502859,-0.365852,0.0670862,0.298733
1470330563523896,-0.366194,0.0672828,0.298816
1470330563540401,-0.366177,0.0674016,0.298795
1470330563562877,-0.365767,0.0677027,0.298751
1470330563583919,-0.365063,0.0681073,0.298795
1470330563600410,-0.365063,0.0681073,0.298795
1470330563622930,-0.36519,0.0681259,0.298794
1470330563643974,-0.36519,0.0681259,0.298794
1470330563660471,-0.366187,0.0682291,0.298522
1470330563683037,-0.368267,0.0678181,0.297959
1470330563704022,-0.371773,0.0670881,0.297192
1470330563720517,-0.377016,0.0665175,0.296516
1470330563743038,-0.382353,0.0660809,0.295806
1470330563765557,-0.386542,0.0660229,0.295442
1470330563780571,-0.389439,0.0659224,0.295186
1470330563803091,-0.392893,0.0655174,0.295501
1470330563825112,-0.396961,0.0645015,0.296081
1470330563840124,-0.402076,0.0631179,0.297102
1470330563862644,-0.40752,0.0620144,0.298572
1470330563885165,-0.410776,0.0612868,0.299853
1470330563899678,-0.41115,0.0613083,0.300857
1470330563922698,-0.409638,0.0613779,0.301736
1470330563945226,-0.408074,0.0617759,0.302419
1470330563959732,-0.406978,0.0622235,0.302943
1470330563982791,-0.406127,0.0629197,0.303314
1470330564005273,-0.405043,0.0635033,0.303332
1470330564019788,-0.4033,0.0640861,0.303203
1470330564042842,-0.401837,0.0646576,0.302845
1470330564065328,-0.400916,0.0649252,0.302416
1470330564079842,-0.400521,0.0650317,0.302015
1470330564110367,-0.399891,0.065101,0.301633
1470330564125399,-0.398967,0.0652266,0.301085
1470330564139894,-0.398303,0.0655332,0.300657
1470330564162915,-0.397273,0.0656657,0.300253
1470330564185435,-0.395831,0.0660738,0.299674
1470330564206458,-0.394501,0.0666442,0.299197
1470330564222970,-0.393182,0.066978,0.298749
1470330564245489,-0.392026,0.0670699,0.298223
1470330564266507,-0.390926,0.06695,0.297885
1470330564283023,-0.389536,0.0670305,0.297502
1470330564305542,-0.38803,0.0669033,0.297396
1470330564326561,-0.386529,0.066943,0.297534
1470330564342587,-0.38524,0.0669949,0.297512
1470330564365621,-0.384134,0.0668526,0.297676
1470330564387116,-0.383168,0.0664909,0.297867
1470330564403130,-0.382463,0.0662619,0.297927
1470330564425650,-0.381718,0.0661744,0.298072
1470330564446668,-0.381097,0.0659864,0.298221
1470330564462684,-0.380863,0.0659731,0.298364
1470330564485203,-0.380991,0.0659917,0.298363
1470330564506723,-0.380991,0.0659917,0.298363
1470330564522737,-0.380991,0.0659917,0.298363
1470330564545262,-0.380974,0.0661104,0.298341
1470330564566293,-0.380974,0.0661104,0.298341
1470330564582825,-0.381463,0.0661608,0.298197
1470330564605362,-0.382223,0.0661532,0.298199
1470330564626831,-0.383884,0.0659429,0.298353
1470330564642847,-0.385817,0.0656753,0.298654
1470330564665366,-0.387908,0.0650711,0.299006
1470330564686385,-0.389405,0.0643753,0.299397
1470330564702900,-0.389533,0.0643939,0.299397
1470330564725421,-0.389005,0.0644379,0.299375
1470330564747939,-0.388592,0.0647377,0.299326
1470330564762955,-0.388592,0.0647377,0.299326
1470330564785473,-0.388635,0.065325,0.299088
1470330564815500,-0.388635,0.065325,0.299088
1470330564829054,-0.388635,0.065325,0.299088
1470330564845528,-0.38898,0.0654751,0.298922
1470330564868087,-0.390015,0.0653868,0.298947
1470330564882060,-0.391934,0.0652154,0.299104
1470330564905081,-0.394835,0.0641811,0.299787
1470330564928101,-0.399926,0.0621263,0.301196
1470330564942114,-0.408089,0.0590256,0.303094
1470330564965135,-0.420477,0.055614,0.304474
1470330564988155,-0.433872,0.0539702,0.304519
1470330565009195,-0.442851,0.0550831,0.305363
1470330565025188,-0.447948,0.0592515,0.307255
1470330565047750,-0.451773,0.0660976,0.310057
1470330565069228,-0.456873,0.0760916,0.313889
1470330565085271,-0.464209,0.0899371,0.319369
1470330565107764,-0.470788,0.106574,0.326038
1470330565129283,-0.475715,0.126918,0.334663
1470330565145296,-0.478659,0.15142,0.344637
1470330565167818,-0.481914,0.180257,0.35598
1470330565188836,-0.486252,0.211849,0.368604
1470330565205351,-0.48879,0.247086,0.382702
1470330565227871,-0.489085,0.284089,0.397397
1470330565248932,-0.487373,0.323725,0.412999
1470330565265404,-0.483894,0.365105,0.429387
1470330565287925,-0.479661,0.407391,0.446826
1470330565308972,-0.474695,0.449489,0.464631
1470330565325474,-0.469689,0.491528,0.48296
1470330565347978,-0.465004,0.533361,0.501743
1470330565353513,-0.460345,0.574751,0.521249
1470330565376066,-0.455623,0.615161,0.541057
1470330565391053,-0.451432,0.6535,0.560862
1470330565413608,-0.4483,0.690167,0.580842
1470330565438604,-0.446021,0.725926,0.599449
1470330565461624,-0.442371,0.761242,0.617731
1470330565473603,-0.439202,0.795137,0.635587
1470330565496111,-0.437497,0.82652,0.65276
1470330565511154,-0.436277,0.856557,0.66941
1470330565536153,-0.434257,0.884819,0.686731
1470330565557166,-0.434072,0.911656,0.702926
1470330565570692,-0.436434,0.93802,0.716725
1470330565593200,-0.440488,0.964683,0.729561
1470330565615718,-0.447541,0.987843,0.740551
1470330565631237,-0.45787,1.01249,0.746808
1470330565660774,-0.462498,1.03227,0.756563
1470330565676283,-0.476552,1.05726,0.755908
1470330565691791,-0.480733,1.0707,0.766088
1470330565713809,-0.494165,1.0903,0.76494
1470330565735861,-0.505729,1.10692,0.764099
1470330565753843,-0.519267,1.12149,0.76009
1470330565773362,-0.53423,1.13415,0.754294
1470330565795883,-0.549057,1.14567,0.749947
1470330565810912,-0.564357,1.15571,0.746896
1470330565840937,-0.580536,1.16491,0.741756
1470330565855939,-0.595491,1.17334,0.733812
1470330565870949,-0.607495,1.1812,0.727576
1470330565893468,-0.617069,1.18742,0.723626
1470330565925035,-0.62793,1.19167,0.718669
1470330565931001,-0.638428,1.19459,0.712796
1470330565961040,-0.647717,1.19711,0.70769
1470330565976042,-0.654532,1.19757,0.705253
1470330565991055,-0.650771,1.20212,0.708733
1470330566013576,-0.651793,1.21141,0.70977
1470330566036115,-0.653444,1.21003,0.711229
1470330566051111,-0.652338,1.20985,0.712009
1470330566073641,-0.650532,1.21302,0.711189
1470330566097151,-0.652486,1.21613,0.709271
1470330566111269,-0.659465,1.21873,0.70385
1470330566133213,-0.665889,1.22017,0.69857
1470330566156204,-0.672479,1.22092,0.691337
1470330566170772,-0.677217,1.21998,0.685133
1470330566193272,-0.680573,1.22018,0.679087
1470330566215772,-0.683379,1.2195,0.674485
1470330566232272,-0.68285,1.21973,0.672956
1470330566253291,-0.681985,1.22013,0.672577
1470330566275813,-0.679138,1.2202,0.674682
1470330566292329,-0.678079,1.21986,0.675112
1470330566313400,-0.677245,1.21952,0.674775
1470330566335869,-0.676668,1.21953,0.673703
1470330566352411,-0.676497,1.22034,0.672535
1470330566373425,-0.675612,1.22183,0.671634
1470330566395963,-0.674452,1.22374,0.670951
1470330566412434,-0.673278,1.22639,0.670759
1470330566433454,-0.673456,1.22897,0.669395
1470330566455973,-0.673017,1.23174,0.668411
1470330566471987,-0.672699,1.23436,0.667025
1470330566493507,-0.672696,1.23656,0.665948
1470330566516058,-0.672257,1.23869,0.664942
1470330566534162,-0.671776,1.24125,0.664408
1470330566553580,-0.670326,1.24297,0.664505
1470330566576081,-0.669235,1.24418,0.664985
1470330566594097,-0.666914,1.2452,0.667446
1470330566613614,-0.663271,1.24545,0.671268
1470330566636135,-0.658293,1.24568,0.676963
1470330566653651,-0.65305,1.24591,0.682944
1470330566673173,-0.647732,1.24624,0.688352
1470330566696198,-0.642938,1.24656,0.693239
1470330566721212,-0.639264,1.24681,0.696565
1470330566733223,-0.637125,1.24681,0.698197
1470330566755745,-0.637125,1.24681,0.698197
1470330566773825,-0.636917,1.24707,0.698026
1470330566793294,-0.636032,1.24785,0.698363
1470330566815806,-0.635076,1.24872,0.698665
1470330566841319,-0.635998,1.24994,0.697112
1470330566853344,-0.63781,1.25144,0.694295
1470330566875881,-0.640199,1.25332,0.689921
1470330566893946,-0.642846,1.2553,0.685185
1470330566913384,-0.646731,1.25755,0.679407
1470330566935905,-0.652053,1.25945,0.672661
1470330566953920,-0.658104,1.26048,0.664813
1470330566973537,-0.664154,1.26149,0.657988
1470330566995991,-0.668799,1.2618,0.651962
1470330567014015,-0.672759,1.26229,0.646906
1470330567035002,-0.676039,1.26171,0.642363
1470330567056012,-0.679574,1.26102,0.638703
1470330567073529,-0.683305,1.26038,0.635261
1470330567093546,-0.68538,1.25977,0.632961
1470330567116066,-0.686779,1.25891,0.631157
1470330567134082,-0.688377,1.25856,0.629497
1470330567156102,-0.689038,1.25752,0.628669
1470330567176119,-0.689368,1.25691,0.6286
1470330567194143,-0.688329,1.25596,0.62936
1470330567220702,-0.687061,1.25536,0.630392
1470330567236210,-0.686019,1.25521,0.631624
1470330567253705,-0.684209,1.25461,0.633197
1470330567276211,-0.682052,1.25376,0.634969
1470330567295761,-0.680462,1.25314,0.637328
1470330567313773,-0.677442,1.25226,0.640967
1470330567334764,-0.675012,1.2514,0.643515
1470330567355782,-0.672305,1.25097,0.646273
1470330567373836,-0.669198,1.25038,0.649161
1470330567394816,-0.666076,1.25055,0.652539
1470330567415835,-0.663668,1.25012,0.655014
1470330567433854,-0.661504,1.25012,0.657177
1470330567454870,-0.658258,1.25012,0.660422
1470330567475948,-0.655694,1.25028,0.663269
1470330567493905,-0.652589,1.25044,0.666661
1470330567514924,-0.649365,1.25077,0.669958
1470330567535961,-0.646183,1.25067,0.673276
1470330567554058,-0.644428,1.25082,0.67533
1470330567576588,-0.643058,1.25045,0.677176
1470330567596058,-0.642105,1.25026,0.678368
1470330567614113,-0.640762,1.2506,0.679774
1470330567636614,-0.639481,1.25085,0.681226
1470330567656052,-0.638271,1.25102,0.682226
1470330567674067,-0.638271,1.25102,0.682226
1470330567696088,-0.638271,1.25102,0.682226
1470330567716105,-0.638134,1.25119,0.682637
1470330567734121,-0.638134,1.25119,0.682637
1470330567756155,-0.638203,1.25144,0.682724
1470330567776159,-0.638203,1.25144,0.682724
1470330567794237,-0.63807,1.25127,0.682594
1470330567816195,-0.63807,1.25127,0.682594
1470330567836716,-0.637587,1.25085,0.683117
1470330567853235,-0.636767,1.24981,0.683789
1470330567881814,-0.635947,1.24876,0.684972
1470330567896842,-0.634666,1.24762,0.68675
1470330567912802,-0.633064,1.24657,0.688737
1470330567935303,-0.632537,1.24553,0.689622
1470330567956321,-0.631485,1.24451,0.690527
1470330567972835,-0.6307,1.24383,0.691197
1470330567995355,-0.629784,1.24331,0.692292
1470330568016879,-0.628938,1.24272,0.692941
1470330568032889,-0.627827,1.24244,0.694395
1470330568055410,-0.626461,1.24185,0.695569
1470330568076429,-0.624249,1.24132,0.697985
1470330568092947,-0.620427,1.24051,0.702389
1470330568115494,-0.614301,1.23933,0.709097
1470330568136528,-0.606346,1.23761,0.718387
1470330568152998,-0.59656,1.23514,0.730515
1470330568175518,-0.585345,1.23163,0.744605
1470330568196579,-0.57274,1.22724,0.760939
1470330568213053,-0.558054,1.22139,0.780058
1470330568235572,-0.541895,1.21431,0.801252
1470330568256633,-0.524348,1.20605,0.824887
1470330568273107,-0.504379,1.19624,0.850361
1470330568303139,-0.482486,1.18581,0.878638
1470330568318145,-0.45908,1.17335,0.90891
1470330568333172,-0.435933,1.15922,0.939933
1470330568355679,-0.412938,1.14341,0.971863
1470330568376698,-0.390203,1.12621,1.00404
1470330568392712,-0.367483,1.10756,1.03643
1470330568415734,-0.344281,1.0871,1.06877
1470330568436802,-0.322242,1.06429,1.10012
1470330568452298,-0.301798,1.0401,1.12993
1470330568475288,-0.282988,1.0148,1.1593
1470330568505318,-0.263638,0.987283,1.18982
1470330568512320,-0.244744,0.958233,1.21992
1470330568535341,-0.225702,0.928081,1.24945
1470330568557860,-0.205492,0.897484,1.27923
1470330568580381,-0.184469,0.865335,1.31049
1470330568595428,-0.16552,0.830639,1.34088
1470330568617915,-0.148247,0.795095,1.37
1470330568632429,-0.130382,0.759349,1.39947
1470330568655448,-0.112004,0.723189,1.42836
1470330568677968,-0.0940669,0.686032,1.45518
1470330568692481,-0.0770254,0.648528,1.47991
1470330568715503,-0.0614858,0.611216,1.50365
1470330568738023,-0.0477778,0.574164,1.52698
1470330568759071,-0.0375722,0.538259,1.54947
1470330568783099,-0.0289935,0.504069,1.56956
1470330568798076,-0.0204584,0.471161,1.58754
1470330568819126,-0.0104105,0.439747,1.6045
1470330568835610,-0.00147431,0.410091,1.6213
1470330568858135,0.0056187,0.382557,1.63735
1470330568879148,0.0109337,0.356143,1.65191
1470330568895663,0.0155894,0.331744,1.66373
1470330568917715,0.0214822,0.310187,1.67393
1470330568939202,0.0281526,0.291263,1.68212
1470330568955218,0.0339716,0.273599,1.68865
1470330568977747,0.0372906,0.255015,1.69476
1470330568999346,0.037072,0.23527,1.7007
1470330569015774,0.0346948,0.214468,1.70609
1470330569037792,0.0328502,0.193669,1.7109
1470330569059334,0.0333332,0.174904,1.71482
1470330569075325,0.0354204,0.158478,1.71803
1470330569097847,0.0374093,0.143796,1.72115
1470330569118895,0.0385559,0.12986,1.7244
1470330569135381,0.0392072,0.116726,1.72926
1470330569157899,0.0391773,0.104217,1.73613
1470330569178946,0.0405449,0.0929262,1.74101
1470330569195433,0.0443596,0.0829919,1.74472
1470330569217966,0.0496251,0.0737631,1.74937
1470330569238972,0.053638,0.064439,1.75435
1470330569255487,0.0571703,0.0548635,1.76007
1470330569278007,0.0605643,0.0453609,1.76549
1470330569299026,0.0639023,0.0358627,1.77052
1470330569315540,0.0642861,0.0282328,1.77188
1470330569338061,0.0633554,0.0179173,1.77428
1470330569359113,0.0622295,0.00839766,1.77713
1470330569374594,0.0645492,0.00145651,1.77758
1470330569398153,0.0700464,-0.00415604,1.7778
1470330569419167,0.0747715,-0.00799939,1.7769
1470330569434681,0.07239,-0.0117616,1.77494
1470330569458179,0.0659915,-0.0158227,1.77326
1470330569480707,0.0629075,-0.0189272,1.77156
1470330569494704,0.0625482,-0.0217214,1.77053
1470330569517722,0.0619239,-0.0245818,1.76969
1470330569540245,0.0605632,-0.0278896,1.76883
1470330569555261,0.0619049,-0.0302526,1.76804
1470330569577778,0.0633342,-0.0326822,1.76633
1470330569600822,0.0625238,-0.034912,1.76532
1470330569614809,0.0605974,-0.0360125,1.76491
1470330569637830,0.0598251,-0.0368136,1.76525
1470330569660350,0.0618982,-0.0368569,1.76567
1470330569674863,0.0685835,-0.0368866,1.76506
1470330569697886,0.07752,-0.0371043,1.76376
1470330569720404,0.0850989,-0.0379576,1.76243
1470330569741423,0.0895724,-0.0394781,1.76157
1470330569757940,0.0917259,-0.0416389,1.76064
1470330569780467,0.0933423,-0.0439372,1.76008
1470330569794971,0.0958368,-0.0461392,1.75936
1470330569817992,0.0990426,-0.0482398,1.75884
1470330569840525,0.101318,-0.049994,1.75832
1470330569855025,0.102765,-0.0513283,1.75796
1470330569878047,0.104341,-0.0522315,1.75743
1470330569900567,0.106015,-0.0530628,1.75707
1470330569915079,0.107636,-0.054412,1.75672
1470330569938101,0.109305,-0.0560423,1.75658
1470330569960620,0.110529,-0.0578935,1.75658
1470330569981639,0.111467,-0.0599711,1.7564
1470330569998154,0.112299,-0.0621568,1.75677
1470330570020674,0.111354,-0.0645705,1.75803
1470330570041725,0.109574,-0.0675105,1.75926
1470330570057707,0.108507,-0.0703164,1.75997
1470330570080227,0.108899,-0.072396,1.76073
1470330570101253,0.109876,-0.0738288,1.76132
1470330570117761,0.110436,-0.075132,1.76189
1470330570140282,0.110888,-0.0766669,1.76209
1470330570161313,0.112351,-0.0778422,1.76192
1470330570177815,0.114544,-0.0787305,1.76158
1470330570207842,0.116501,-0.0793352,1.76125
1470330570221354,0.117971,-0.0793863,1.76112
1470330570245376,0.117971,-0.0793863,1.76112
1470330570260389,0.117524,-0.079441,1.7613
1470330570281409,0.117315,-0.0797787,1.76148
1470330570297922,0.117263,-0.0803053,1.76165
1470330570320447,0.117129,-0.080729,1.76166
1470330570341974,0.117266,-0.0811005,1.76185
1470330570357979,0.117187,-0.0810061,1.76185
1470330570380499,0.117437,-0.081109,1.76168
1470330570403016,0.117813,-0.0809577,1.76148
1470330570418031,0.118708,-0.0806897,1.76133
1470330570440551,0.119705,-0.0803417,1.76117
1470330570463071,0.11972,-0.0801698,1.76117
1470330570478087,0.11972,-0.0801698,1.76117
1470330570500605,0.120088,-0.0800205,1.76099
1470330570523124,0.120708,-0.0799824,1.76082
1470330570537142,0.121253,-0.0797001,1.76102
1470330570560658,0.121344,-0.0796141,1.76085
1470330570582696,0.121344,-0.0796141,1.76085
1470330570597224,0.121344,-0.0796141,1.76085
1470330570620713,0.121265,-0.0795198,1.76085
1470330570642743,0.12136,-0.0794422,1.76086
1470330570657245,0.121281,-0.0793479,1.76086
1470330570680266,0.121283,-0.0793563,1.76103
1470330570702820,0.121204,-0.079262,1.76103
1470330570717299,0.121204,-0.079262,1.76103
1470330570740341,0.121204,-0.079262,1.76103
1470330570762840,0.121228,-0.0790874,1.76102
1470330570777354,0.121228,-0.0790874,1.76102
1470330570800384,0.121228,-0.0790874,1.76102
1470330570822894,0.121149,-0.0789931,1.76102
1470330570837421,0.121149,-0.0789931,1.76102
1470330570860427,0.121243,-0.0789155,1.76102
1470330570882948,0.121164,-0.0788212,1.76102
1470330570904503,0.121164,-0.0788212,1.76102
1470330570920501,0.121085,-0.0787268,1.76102
1470330570943014,0.121085,-0.0787268,1.76102
1470330570964033,0.121085,-0.0787268,1.76102
1470330570980548,0.121006,-0.0786325,1.76102
1470330571003068,0.1211,-0.0785549,1.76103
1470330571024118,0.121195,-0.0784774,1.76103
1470330571040638,0.121192,-0.078469,1.76086
1470330571063133,0.120423,-0.0783158,1.76102
1470330571084205,0.119456,-0.0783202,1.76119
1470330571100659,0.119456,-0.0783202,1.76119
1470330571123175,0.119456,-0.0783202,1.76119
1470330571144240,0.119046,-0.0780203,1.76118
1470330571160209,0.118361,-0.0779504,1.76116
1470330571182729,0.118361,-0.0779504,1.76116
1470330571203748,0.118816,-0.0778931,1.76096
1470330571220763,0.119448,-0.0776748,1.76062
1470330571242831,0.119448,-0.0776748,1.76062
1470330571263804,0.119464,-0.0775029,1.76062
1470330571280317,0.119464,-0.0775029,1.76062
1470330571302837,0.119464,-0.0775029,1.76062
1470330571325418,0.119558,-0.0774254,1.76062
1470330571340379,0.119558,-0.0774254,1.76062
1470330571362910,0.119566,-0.0774227,1.76061
1470330571385412,0.119661,-0.0773452,1.76061
1470330571400426,0.119661,-0.0773452,1.76061
1470330571422946,0.119661,-0.0773452,1.76061
1470330571445465,0.119056,-0.0772114,1.76079
1470330571460480,0.118615,-0.0772554,1.76078
1470330571489504,0.118536,-0.0771611,1.76078
1470330571505519,0.118442,-0.0772386,1.76078
1470330571520032,0.118442,-0.0772386,1.76078
1470330571543053,0.118536,-0.0771611,1.76078
1470330571565573,0.118536,-0.0771611,1.76078
1470330571580118,0.118552,-0.0769892,1.76078
1470330571603108,0.118552,-0.0769892,1.76078
1470330571625626,0.118552,-0.0769892,1.76078
1470330571640141,0.118552,-0.0769892,1.76078
1470330571663160,0.118473,-0.0768948,1.76078
1470330571685681,0.118473,-0.0768948,1.76078
1470330571699693,0.118473,-0.0768948,1.76078
1470330571723215,0.118567,-0.0768173,1.76079
1470330571745235,0.118567,-0.0768173,1.76079
1470330571759747,0.118567,-0.0768173,1.76079
1470330571783269,0.118488,-0.0767229,1.76079
1470330571805289,0.118488,-0.0767229,1.76079
1470330571826808,0.118488,-0.0767229,1.76079
1470330571843323,0.118488,-0.0767229,1.76079
1470330571865342,0.118488,-0.0767229,1.76079
1470330571886886,0.118409,-0.0766286,1.76079
1470330571902876,0.118409,-0.0766286,1.76079
1470330571925399,0.118409,-0.0766286,1.76079
1470330571946915,0.118512,-0.0765485,1.76077
1470330571962930,0.11816,-0.0765257,1.76096
1470330571985450,0.117632,-0.0764779,1.76097
1470330572006970,0.117461,-0.0764693,1.76113
1470330572022984,0.117461,-0.0764693,1.76113
1470330572045539,0.117461,-0.0764693,1.76113
1470330572066552,0.117461,-0.0764693,1.76113
1470330572083039,0.117469,-0.0764667,1.76112
1470330572105559,0.118002,-0.076337,1.76096
1470330572126578,0.118723,-0.0760522,1.76081
1470330572143092,0.118731,-0.0760496,1.76079
1470330572165631,0.118211,-0.0759993,1.76078
1470330572186633,0.118211,-0.0759993,1.76078
1470330572203146,0.118752,-0.0758668,1.76061
1470330572225669,0.118752,-0.0758668,1.76061
1470330572246688,0.118673,-0.0757725,1.76061
1470330572263199,0.118311,-0.0759109,1.7606
1470330572285721,0.118311,-0.0759109,1.7606
1470330572307740,0.118232,-0.0758166,1.7606
1470330572322754,0.117863,-0.0761242,1.76056
1470330572345773,0.116753,-0.0768725,1.76034
1470330572367816,0.115179,-0.0780066,1.76008
1470330572382807,0.114565,-0.0791389,1.75967
1470330572405327,0.116288,-0.0795988,1.75876
1470330572427848,0.118338,-0.0788196,1.75708
1470330572442515,0.117529,-0.0763792,1.75402
1470330572465574,0.109024,-0.0747385,1.74996
1470330572488056,0.0929999,-0.0733481,1.74462
1470330572502072,0.0815215,-0.0720387,1.73798
1470330572525590,0.0637135,-0.0699275,1.73084
1470330572548110,0.0451324,-0.0660393,1.72236
1470330572569128,0.0380814,-0.0582953,1.71348
1470330572585643,0.0463897,-0.0471953,1.7061
1470330572608163,0.0698893,-0.0329941,1.69742
1470330572629238,0.0862966,-0.015689,1.68144
1470330572645701,0.0876262,-0.000442877,1.66367
1470330572667721,0.0757809,0.0139738,1.6466
1470330572689236,0.0621496,0.0289851,1.62769
1470330572705751,0.0539337,0.0445363,1.60384
1470330572728288,0.0503827,0.0603447,1.57469
1470330572749290,0.0476825,0.0764485,1.54116
1470330572765805,0.0439108,0.095067,1.50314
1470330572787829,0.0372557,0.112607,1.46065
1470330572809418,0.0300774,0.129329,1.41241
1470330572825407,0.0223803,0.144065,1.35943
1470330572847881,0.0113968,0.155077,1.30188
1470330572869403,-0.00220392,0.163352,1.24117
1470330572885413,-0.016041,0.167915,1.17951
1470330572907943,-0.029253,0.168885,1.11751
1470330572913454,-0.039853,0.167028,1.0549
1470330572935958,-0.0482619,0.162869,0.992596
1470330572950975,-0.0572376,0.156266,0.931995
1470330572973508,-0.0630068,0.147834,0.875832
1470330572996039,-0.0647113,0.139075,0.823684
1470330573011068,-0.0696376,0.12844,0.774638
1470330573033563,-0.0804924,0.116634,0.728717
1470330573056132,-0.101681,0.100303,0.685646
1470330573071084,-0.142483,0.0807077,0.643441
1470330573093664,-0.19408,0.0656958,0.599699
1470330573116161,-0.230708,0.0598722,0.567419
1470330573131160,-0.258573,0.0629186,0.544017
1470330573153654,-0.268832,0.0682122,0.521652
1470330573176174,-0.269286,0.0729133,0.499635
1470330573191188,-0.268323,0.0744748,0.481377
1470330573220767,-0.26615,0.0748477,0.464697
1470330573235775,-0.264337,0.0732674,0.447686
1470330573258748,-0.263106,0.0701375,0.431918
1470330573273261,-0.263677,0.0641665,0.418909
1470330573298831,-0.259742,0.0601919,0.408963
1470330573311320,-0.250682,0.0629034,0.400245
1470330573333824,-0.242115,0.0710287,0.39233
1470330573355838,-0.237049,0.0768864,0.386338
1470330573370873,-0.233471,0.078087,0.38362
1470330573393397,-0.226913,0.0795629,0.383814
1470330573415919,-0.22015,0.0822344,0.383934
1470330573433924,-0.215085,0.0838334,0.383745
1470330573453456,-0.209734,0.0836469,0.383752
1470330573475976,-0.204362,0.0841993,0.383676
1470330573490991,-0.200917,0.0852363,0.383409
1470330573513531,-0.199157,0.0853934,0.382304
1470330573539007,-0.199153,0.0849711,0.380722
1470330573551024,-0.199773,0.0852038,0.379449
1470330573573575,-0.200187,0.0857941,0.378383
1470330573596080,-0.200171,0.0866726,0.377295
1470330573611064,-0.199393,0.0876405,0.376098
1470330573633677,-0.197336,0.0887646,0.37518
1470330573656104,-0.194788,0.0897263,0.374778
1470330573671155,-0.193551,0.090976,0.374688
1470330573693650,-0.193267,0.092459,0.375067
1470330573716192,-0.19221,0.0939851,0.3761
1470330573731171,-0.193391,0.094275,0.376666
1470330573753215,-0.195557,0.0940545,0.376487
1470330573777268,-0.19665,0.0936175,0.376253
1470330573790755,-0.196453,0.0934031,0.375776
1470330573816272,-0.197015,0.093196,0.375163
1470330573835795,-0.199167,0.0931514,0.374347
1470330573852318,-0.20156,0.093796,0.373709
1470330573873800,-0.203596,0.0943866,0.37323
1470330573895877,-0.204874,0.0949703,0.372888
1470330573912335,-0.205426,0.0954316,0.372714
1470330573933887,-0.2062,0.0959762,0.372896
1470330573955887,-0.207825,0.0965704,0.373152
1470330573972389,-0.210035,0.0967969,0.373585
1470330573993410,-0.21139,0.0968479,0.373912
1470330574015927,-0.212251,0.0969155,0.374135
1470330574032443,-0.213139,0.0968359,0.374112
1470330574053485,-0.214146,0.0967935,0.374215
1470330574075983,-0.215033,0.0966332,0.374566
1470330574092496,-0.216158,0.0965481,0.375169
1470330574113545,-0.216867,0.0960291,0.375966
1470330574136060,-0.217068,0.0955223,0.376636
1470330574152552,-0.217459,0.0953787,0.376884
1470330574173656,-0.218568,0.0954811,0.376974
1470330574196101,-0.219853,0.0953253,0.376699
1470330574213605,-0.221197,0.0955511,0.376388
1470330574233624,-0.222927,0.0957418,0.376207
1470330574256143,-0.224265,0.095996,0.376153
1470330574273659,-0.225631,0.0961016,0.375853
1470330574293685,-0.227247,0.0961457,0.375666
1470330574316202,-0.227847,0.0963525,0.375383
1470330574333713,-0.227847,0.0963525,0.375383
1470330574353731,-0.227847,0.0963525,0.375383
1470330574376255,-0.227847,0.0963525,0.375383
1470330574393766,-0.227847,0.0963525,0.375383
1470330574413317,-0.227616,0.0962159,0.375657
1470330574436309,-0.227344,0.0962249,0.376154
1470330574453821,-0.227437,0.096319,0.376771
1470330574473338,-0.228004,0.0966116,0.377236
1470330574496371,-0.227636,0.0971426,0.378073
1470330574513875,-0.227214,0.0977849,0.379894
1470330574533423,-0.228483,0.0987529,0.381629
1470330574555912,-0.230248,0.0991865,0.383306
1470330574573944,-0.229541,0.0993741,0.384937
1470330574593447,-0.22446,0.0994329,0.386568
1470330574615989,-0.220334,0.0998591,0.387643
1470330574633983,-0.22044,0.100479,0.388451
1470330574653517,-0.223966,0.100444,0.38849
1470330574676021,-0.226549,0.100782,0.388005
1470330574694036,-0.226751,0.101177,0.386818
1470330574713569,-0.225028,0.10191,0.385422
1470330574736104,-0.223239,0.102924,0.38437
1470330574753590,-0.223335,0.103114,0.383702
1470330574773616,-0.22485,0.102497,0.383356
1470330574796127,-0.225783,0.102277,0.383109
1470330574814230,-0.225544,0.102199,0.382859
1470330574835163,-0.225101,0.101929,0.38239
1470330574856201,-0.22509,0.101387,0.382074
1470330574873697,-0.225711,0.100859,0.381882
1470330574895217,-0.226792,0.100435,0.381762
1470330574916236,-0.227688,0.100329,0.381483
1470330574941260,-0.228294,0.0998906,0.381024
1470330574954770,-0.228365,0.0995957,0.380555
1470330574975790,-0.228343,0.0997151,0.380543
1470330574993839,-0.228375,0.0995511,0.380169
1470330575014826,-0.228353,0.0996705,0.380158
1470330575035872,-0.228769,0.0994879,0.380043
1470330575053860,-0.228892,0.0995116,0.38004
1470330575074882,-0.228892,0.0995116,0.38004
1470330575095945,-0.228892,0.0995116,0.38004
1470330575113917,-0.229307,0.0993289,0.379925
1470330575136435,-0.230363,0.0990374,0.379924
1470330575155951,-0.231715,0.0985245,0.379685
1470330575173968,-0.232232,0.0984847,0.379556
1470330575196489,-0.232583,0.0986599,0.379407
1470330575216035,-0.233618,0.0991972,0.379066
1470330575234027,-0.235298,0.0996102,0.378712
1470330575256541,-0.236222,0.100142,0.378524
1470330575276075,-0.236245,0.100732,0.378205
1470330575294077,-0.235855,0.101489,0.377872
1470330575316595,-0.235629,0.102048,0.377688
1470330575336113,-0.235752,0.102071,0.377685
1470330575353631,-0.235731,0.102191,0.377673
1470330575375650,-0.235478,0.102174,0.377936
1470330575396703,-0.234894,0.101863,0.37836
1470330575413186,-0.234495,0.101233,0.378945
1470330575435702,-0.234596,0.100574,0.379507
1470330575456740,-0.23503,0.0995777,0.379863
1470330575473239,-0.235547,0.0987366,0.380312
1470330575495756,-0.235566,0.0979233,0.380783
1470330575516780,-0.234781,0.0974177,0.380989
1470330575533293,-0.233728,0.0969838,0.381189
1470330575555810,-0.232776,0.0966928,0.381374
1470330575576829,-0.232776,0.0966928,0.381374
1470330575592843,-0.232675,0.0965497,0.381388
1470330575615363,-0.233196,0.0964029,0.381378
1470330575636978,-0.233196,0.0964029,0.381378
1470330575652948,-0.233073,0.0963792,0.381381
1470330575675418,-0.233935,0.0964532,0.381608
1470330575696971,-0.234924,0.0965361,0.381703
1470330575712956,-0.235836,0.0963415,0.381697
1470330575735499,-0.236376,0.0960909,0.381828
1470330575756495,-0.236561,0.0957721,0.38199
1470330575773006,-0.236298,0.0951196,0.382186
1470330575795529,-0.235981,0.0948432,0.382497
1470330575816575,-0.235361,0.0946629,0.383015
1470330575833064,-0.234983,0.094637,0.383408
1470330575855580,-0.234649,0.0943724,0.383825
1470330575878600,-0.234399,0.0942631,0.384334
1470330575893120,-0.233748,0.0943385,0.384978
1470330575915634,-0.233097,0.0944135,0.385623
1470330575936678,-0.232182,0.0944522,0.386379
1470330575953200,-0.231332,0.0942248,0.386924
1470330575975687,-0.230502,0.0938926,0.387609
1470330575996784,-0.230009,0.0931162,0.388206
1470330576013224,-0.229787,0.0922538,0.388682
1470330576035240,-0.229271,0.0916886,0.38902
1470330576056795,-0.228478,0.091162,0.389073
1470330576073274,-0.228478,0.091162,0.389073
1470330576095795,-0.228456,0.0912812,0.389062
1470330576117815,-0.228975,0.0912289,0.388806
1470330576133328,-0.229268,0.0911014,0.38832
1470330576155348,-0.228924,0.0909727,0.387836
1470330576177871,-0.228374,0.0905871,0.387637
1470330576192882,-0.227925,0.0903449,0.387423
1470330576215402,-0.227259,0.0905852,0.387424
1470330576237922,-0.227259,0.0905852,0.387424
1470330576252438,-0.227125,0.0912228,0.387729
1470330576275456,-0.227201,0.0914222,0.388208
1470330576297976,-0.226593,0.0919514,0.388418
1470330576312503,-0.226314,0.092081,0.388926
1470330576335527,-0.226135,0.0915968,0.389341
1470330576358031,-0.226135,0.0915968,0.389341
1470330576372545,-0.225803,0.0914079,0.389382
1470330576395564,-0.225912,0.0914293,0.389357
1470330576418085,-0.225912,0.0914293,0.389357
1470330576432597,-0.225912,0.0914293,0.389357
1470330576455618,-0.225912,0.0914293,0.389357
1470330576478138,-0.225912,0.0914293,0.389357
1470330576492699,-0.226068,0.0919546,0.389307
1470330576515672,-0.226398,0.0922363,0.389019
1470330576538192,-0.22652,0.0922604,0.389016
1470330576552710,-0.226853,0.0925273,0.388599
1470330576575726,-0.227182,0.0928088,0.388311
1470330576598263,-0.227682,0.092861,0.387915
1470330576626772,-0.228157,0.093047,0.387635
1470330576635781,-0.228757,0.0932422,0.387225
1470330576658301,-0.229132,0.0932847,0.386959
1470330576679319,-0.229132,0.0932847,0.386959
1470330576695834,-0.229654,0.093217,0.386575
1470330576717855,-0.229922,0.0932233,0.386206
1470330576740874,-0.229922,0.0932233,0.386206
1470330576755387,-0.230405,0.0932866,0.385916
1470330576777910,-0.230922,0.0932483,0.385788
1470330576799427,-0.230922,0.0932483,0.385788
1470330576815460,-0.230922,0.0932483,0.385788
1470330576837965,-0.230922,0.0932483,0.385788
1470330576866516,-0.230922,0.0932483,0.385788
1470330576875494,-0.231023,0.0933915,0.385774
1470330576898030,-0.231045,0.0932722,0.385786
1470330576919090,-0.231045,0.0932722,0.385786
1470330576935549,-0.231023,0.0933915,0.385774
1470330576958069,-0.231353,0.093672,0.385486
1470330576979171,-0.231561,0.0939285,0.3852
1470330576995603,-0.231599,0.0944146,0.385022
1470330577018146,-0.232235,0.0951095,0.384561
1470330577040689,-0.233043,0.0955744,0.383993
1470330577055657,-0.233445,0.0954663,0.383482
1470330577078177,-0.233465,0.0960564,0.383164
1470330577100698,-0.233392,0.097154,0.383055
1470330577114713,-0.233089,0.0981149,0.383221
1470330577138230,-0.233267,0.0990608,0.383472
1470330577160752,-0.23408,0.0994049,0.383932
1470330577175764,-0.233972,0.0999093,0.38412
1470330577198313,-0.233509,0.100345,0.384339
1470330577220329,-0.232898,0.100891,0.384679
1470330577234820,-0.232898,0.100891,0.384679
1470330577257884,-0.232898,0.100891,0.384679
1470330577280360,-0.233021,0.100915,0.384676
1470330577294873,-0.233021,0.100915,0.384676
1470330577317892,-0.233144,0.100939,0.384673
1470330577340413,-0.233107,0.101055,0.38464
1470330577354928,-0.233107,0.101055,0.38464
1470330577377946,-0.233231,0.101079,0.384636
1470330577400469,-0.233209,0.101199,0.384625
1470330577421520,-0.233274,0.100841,0.38466
1470330577438038,-0.233481,0.100403,0.384832
1470330577460623,-0.232813,0.100567,0.385209
1470330577475127,-0.232096,0.10029,0.386151
1470330577498143,-0.231015,0.100527,0.386762
1470330577520662,-0.230567,0.100873,0.387252
1470330577541710,-0.230567,0.100873,0.387252
1470330577558199,-0.23069,0.100897,0.387249
1470330577580714,-0.230466,0.100729,0.387266
1470330577601779,-0.229721,0.100707,0.387295
1470330577618249,-0.230141,0.100418,0.387298
1470330577640743,-0.23134,0.100051,0.387434
1470330577661770,-0.233147,0.0992455,0.387113
1470330577678276,-0.23368,0.0991315,0.386341
1470330577700796,-0.234894,0.0987794,0.38559
1470330577721816,-0.235575,0.0979368,0.384783
1470330577740333,-0.235575,0.0979368,0.384783
1470330577760352,-0.23612,0.0983532,0.385237
1470330577781369,-0.236407,0.098178,0.385384
1470330577797885,-0.235547,0.0980866,0.385029
1470330577820410,-0.234224,0.0985233,0.384646
1470330577841425,-0.234293,0.0994487,0.384921
1470330577857939,-0.234877,0.100259,0.385444
1470330577880459,-0.234694,0.101075,0.386229
1470330577902006,-0.233899,0.10123,0.386739
1470330577917994,-0.232219,0.10152,0.386766
1470330577940512,-0.232197,0.101639,0.386754
1470330577961531,-0.232954,0.100906,0.386669
1470330577978045,-0.233077,0.10093,0.386665
1470330578000567,-0.23309,0.100856,0.387063
1470330578023642,-0.232898,0.101113,0.387407
1470330578038101,-0.233737,0.10072,0.38692
1470330578060620,-0.235132,0.100774,0.386126
1470330578083140,-0.236793,0.100771,0.385468
1470330578098153,-0.237946,0.100668,0.384799
1470330578120690,-0.237441,0.10012,0.384251
1470330578150701,-0.235589,0.100052,0.383685
1470330578157207,-0.234392,0.100498,0.383172
1470330578180728,-0.234857,0.101361,0.383321
1470330578203247,-0.235118,0.101845,0.383747
1470330578217267,-0.234359,0.102502,0.384207
1470330578240782,-0.233009,0.102905,0.384567
1470330578262826,-0.231572,0.10326,0.384718
1470330578277315,-0.231558,0.103256,0.384696
1470330578300335,-0.232079,0.102586,0.384519
1470330578323358,-0.232233,0.102537,0.383895
1470330578337389,-0.232692,0.102826,0.383474
1470330578360404,-0.232692,0.102826,0.383474
1470330578382911,-0.233115,0.102614,0.383102
1470330578397424,-0.234084,0.102212,0.382355
1470330578420447,-0.23499,0.101536,0.381528
1470330578442963,-0.235622,0.100961,0.380954
1470330578457476,-0.235631,0.100915,0.380569
1470330578480497,-0.235631,0.100915,0.380569
1470330578503017,-0.236596,0.101132,0.380779
1470330578524536,-0.236703,0.100627,0.380592
1470330578540550,-0.236605,0.100469,0.380478
1470330578563070,-0.236559,0.101432,0.380252
1470330578584092,-0.23704,0.102731,0.380832
1470330578600604,-0.237881,0.102308,0.381129
1470330578623128,-0.236972,0.102487,0.381009
1470330578644159,-0.235049,0.102627,0.38116
1470330578660660,-0.234374,0.102218,0.380967
1470330578690685,-0.23459,0.101826,0.380507
1470330578704258,-0.235512,0.101677,0.379867
1470330578720731,-0.236825,0.101479,0.379229
1470330578743232,-0.237602,0.101425,0.37858
1470330578764251,-0.237523,0.101963,0.378029
1470330578780766,-0.237593,0.10239,0.377359
1470330578803286,-0.238067,0.102615,0.376424
1470330578824322,-0.23907,0.102817,0.37551
1470330578848326,-0.239746,0.103342,0.374674
1470330578863340,-0.239905,0.103908,0.373966
1470330578884359,-0.239701,0.104439,0.373547
1470330578900388,-0.239379,0.10493,0.373003
1470330578922927,-0.239358,0.10505,0.372991
1470330578945419,-0.239837,0.105231,0.372709
1470330578966933,-0.239901,0.105597,0.372542
1470330578982949,-0.239901,0.105597,0.372542
1470330579005472,-0.239898,0.105613,0.37267
1470330579020483,-0.240166,0.106173,0.372719
1470330579049009,-0.240846,0.106564,0.372781
1470330579065536,-0.240987,0.107116,0.372961
1470330579080038,-0.240879,0.107729,0.37303
1470330579103061,-0.240735,0.108457,0.373065
1470330579125576,-0.240714,0.108577,0.373053
1470330579140089,-0.241208,0.10867,0.373039
1470330579163123,-0.241208,0.10867,0.373039
1470330579185680,-0.241232,0.108535,0.372923
1470330579208155,-0.241356,0.107926,0.372876
1470330579223209,-0.242073,0.107394,0.372512
1470330579245685,-0.242616,0.106584,0.372223
1470330579260197,-0.242732,0.106031,0.371652
1470330579283233,-0.242827,0.105598,0.371069
1470330579305737,-0.243748,0.105458,0.370558
1470330579319751,-0.244803,0.105902,0.370482
1470330579343275,-0.245193,0.107134,0.370696
1470330579365793,-0.245392,0.108084,0.370963
1470330579379818,-0.245795,0.109228,0.371446
1470330579403349,-0.245856,0.109609,0.371406
1470330579425845,-0.245502,0.110176,0.37148
1470330579446864,-0.245874,0.110879,0.371512
1470330579463379,-0.2463,0.111255,0.371836
1470330579485399,-0.2463,0.111255,0.371836
1470330579506919,-0.245987,0.111583,0.371935
1470330579523433,-0.245264,0.111431,0.37185
1470330579545453,-0.244834,0.111071,0.371654
1470330579566972,-0.245113,0.11095,0.371274
1470330579583033,-0.245113,0.11095,0.371274
1470330579605512,-0.245237,0.110973,0.371271
1470330579626554,-0.245237,0.110973,0.371271
1470330579643043,-0.245237,0.110973,0.371271
1470330579665561,-0.245463,0.111139,0.371252
1470330579686616,-0.246334,0.111179,0.371217
1470330579703094,-0.246458,0.111202,0.371213
1470330579725615,-0.246458,0.111202,0.371213
1470330579746675,-0.246458,0.111202,0.371213
1470330579762648,-0.246437,0.111322,0.371201
1470330579785672,-0.246437,0.111322,0.371201
1470330579806721,-0.246458,0.111202,0.371213
1470330579823202,-0.246458,0.111202,0.371213
1470330579845723,-0.246422,0.111318,0.371179
1470330579868243,-0.246545,0.111341,0.371176
1470330579883256,-0.246545,0.111341,0.371176
1470330579905777,-0.24704,0.111434,0.371161
1470330579927796,-0.247539,0.111511,0.371018
1470330579943310,-0.247518,0.111631,0.371006
1470330579965841,-0.247518,0.111631,0.371006
1470330579988350,-0.247518,0.111631,0.371006
1470330580003364,-0.247626,0.11165,0.370981
1470330580025433,-0.247626,0.11165,0.370981
1470330580048441,-0.248146,0.111607,0.37085
1470330580062417,-0.248269,0.111631,0.370847
1470330580085938,-0.248249,0.11175,0.370834
1470330580107958,-0.248372,0.111773,0.370831
1470330580122471,-0.248372,0.111773,0.370831
1470330580145494,-0.248372,0.111773,0.370831
1470330580168012,-0.248496,0.111797,0.370827
1470330580182525,-0.248496,0.111797,0.370827
1470330580205547,-0.248496,0.111797,0.370827
1470330580228067,-0.24862,0.11182,0.370824
1470330580242578,-0.248604,0.111816,0.370802
1470330580265601,-0.248728,0.111839,0.370798
1470330580288121,-0.248728,0.111839,0.370798
1470330580302633,-0.248707,0.111959,0.370786
1470330580325655,-0.248707,0.111959,0.370786
1470330580348173,-0.248707,0.111959,0.370786
1470330580370703,-0.248831,0.111982,0.370782
1470330580385709,-0.248831,0.111982,0.370782
1470330580408227,-0.248976,0.111886,0.370791
1470330580429292,-0.248955,0.112005,0.370779
1470330580445763,-0.248955,0.112005,0.370779
1470330580468288,-0.249099,0.111909,0.370787
1470330580473295,-0.249079,0.112029,0.370775
1470330580496306,-0.249598,0.111986,0.370645
1470330580510861,-0.249706,0.112005,0.370619
1470330580533357,-0.249706,0.112005,0.370619
1470330580555860,-0.249706,0.112005,0.370619
1470330580570876,-0.249706,0.112005,0.370619
1470330580593910,-0.24983,0.112029,0.370616
1470330580616433,-0.24983,0.112029,0.370616
1470330580631443,-0.249954,0.112052,0.370612
1470330580653462,-0.249954,0.112052,0.370612
1470330580676042,-0.249954,0.112052,0.370612
1470330580691007,-0.250078,0.112075,0.370609
1470330580713524,-0.250078,0.112075,0.370609
1470330580736053,-0.250201,0.112098,0.370605
1470330580751039,-0.250646,0.111761,0.370247
1470330580773557,-0.250646,0.111761,0.370247
1470330580796076,-0.250625,0.11188,0.370234
1470330580811117,-0.250963,0.111416,0.37002
1470330580833641,-0.251087,0.11144,0.370017
1470330580856130,-0.251107,0.11132,0.370029
1470330580871147,-0.251231,0.111343,0.370026
1470330580893670,-0.251231,0.111343,0.370026
1470330580916183,-0.251231,0.111343,0.370026
1470330580931250,-0.251231,0.111343,0.370026
1470330580953761,-0.251771,0.111181,0.369908
1470330580975741,-0.251916,0.111085,0.369917
1470330580991250,-0.251916,0.111085,0.369917
1470330581013831,-0.252039,0.111108,0.369914
1470330581036292,-0.252153,0.110462,0.369592
1470330581050837,-0.252277,0.110485,0.369588
1470330581073946,-0.252277,0.110485,0.369588
1470330581095844,-0.252298,0.110366,0.369601
1470330581111482,-0.252298,0.110366,0.369601
1470330581133414,-0.252298,0.110366,0.369601
1470330581155899,-0.252442,0.110269,0.36961
1470330581170968,-0.252422,0.110389,0.369598
1470330581193435,-0.252566,0.110293,0.369607
1470330581215968,-0.25257,0.110276,0.369479
1470330581230976,-0.252714,0.11018,0.369488
1470330581253518,-0.252714,0.11018,0.369488
1470330581276267,-0.252838,0.110203,0.369484
1470330581291249,-0.252838,0.110203,0.369484
1470330581313723,-0.252838,0.110203,0.369484
1470330581336253,-0.252962,0.110226,0.369481
1470330581351243,-0.252962,0.110226,0.369481
1470330581373766,-0.252962,0.110226,0.369481
1470330581396283,-0.253106,0.11013,0.36949
1470330581411297,-0.253106,0.11013,0.36949
1470330581433817,-0.25323,0.110153,0.369486
1470330581456338,-0.25323,0.110153,0.369486
1470330581478869,-0.253354,0.110176,0.369483
1470330581493927,-0.253358,0.110053,0.369474
1470330581516434,-0.253482,0.110076,0.36947
1470330581532408,-0.253482,0.110076,0.36947
1470330581553483,-0.253674,0.109815,0.369129
1470330581575969,-0.253974,0.109573,0.368764
1470330581592459,-0.254118,0.109477,0.368773
1470330581613520,-0.254118,0.109477,0.368773
1470330581636000,-0.254242,0.1095,0.368769
1470330581652513,-0.254242,0.1095,0.368769
1470330581673531,-0.254242,0.1095,0.368769
1470330581696087,-0.254386,0.109404,0.368779
1470330581712567,-0.254386,0.109404,0.368779
1470330581733614,-0.254386,0.109404,0.368779
1470330581756135,-0.254514,0.10941,0.368647
1470330581774123,-0.254534,0.109291,0.36866
1470330581793673,-0.254534,0.109291,0.36866
1470330581816160,-0.254658,0.109314,0.368657
1470330581834262,-0.254658,0.109314,0.368657
1470330581853693,-0.254658,0.109314,0.368657
1470330581876213,-0.254803,0.109218,0.368666
1470330581894275,-0.254803,0.109218,0.368666
1470330581913757,-0.254926,0.109241,0.368662
1470330581936268,-0.254926,0.109241,0.368662
1470330581954290,-0.254911,0.109237,0.368641
1470330581973802,-0.255034,0.10926,0.368637
1470330581996322,-0.255034,0.10926,0.368637
1470330582018950,-0.255158,0.109283,0.368634
1470330582036860,-0.255179,0.109164,0.368647
1470330582055889,-0.255303,0.109187,0.368643
1470330582073892,-0.255303,0.109187,0.368643
1470330582093411,-0.255427,0.10921,0.36864
1470330582116473,-0.255447,0.109091,0.368653
1470330582134479,-0.255447,0.109091,0.368653
1470330582153483,-0.256108,0.108968,0.368661
1470330582176000,-0.256092,0.108964,0.36864
1470330582194024,-0.256216,0.108987,0.368636
1470330582213595,-0.256236,0.108868,0.368649
1470330582236039,-0.256236,0.108868,0.368649
1470330582254085,-0.256113,0.109584,0.368572
1470330582273596,-0.255819,0.110443,0.368848
1470330582296118,-0.255809,0.111126,0.369272
1470330582314107,-0.255824,0.111673,0.36958
1470330582333695,-0.25559,0.11228,0.369776
1470330582356145,-0.255373,0.112784,0.370113
1470330582374176,-0.255497,0.112807,0.37011
1470330582395181,-0.255481,0.112804,0.370088
1470330582416218,-0.255605,0.112827,0.370084
1470330582434339,-0.255605,0.112827,0.370084
1470330582455234,-0.255749,0.112731,0.370093
1470330582476253,-0.255753,0.112714,0.369965
1470330582493768,-0.255877,0.112737,0.369962
1470330582514787,-0.255877,0.112737,0.369962
1470330582536307,-0.255877,0.112737,0.369962
1470330582554337,-0.25598,0.11288,0.369945
1470330582574853,-0.25598,0.11288,0.369945
1470330582596454,-0.256001,0.11276,0.369958
1470330582613876,-0.256125,0.112784,0.369954
1470330582634907,-0.256773,0.112641,0.369812
1470330582655913,-0.256773,0.112641,0.369812
1470330582673930,-0.256897,0.112664,0.369808
1470330582694949,-0.256897,0.112664,0.369808
1470330582715968,-0.257021,0.112687,0.369805
1470330582734021,-0.257021,0.112687,0.369805
1470330582756504,-0.257021,0.112687,0.369805
1470330582776035,-0.257021,0.112687,0.369805
1470330582794052,-0.257125,0.11283,0.369788
1470330582816620,-0.257125,0.11283,0.369788
1470330582836101,-0.257125,0.11283,0.369788
1470330582854093,-0.257249,0.112853,0.369785
1470330582876618,-0.257249,0.112853,0.369785
1470330582896171,-0.257393,0.112757,0.369794
1470330582914146,-0.257517,0.11278,0.36979
1470330582935666,-0.257517,0.11278,0.36979
1470330582956687,-0.257517,0.11278,0.36979
1470330582973199,-0.257641,0.112803,0.369787
1470330582995723,-0.257641,0.112803,0.369787
1470330583016771,-0.257625,0.112799,0.369765
1470330583033258,-0.257749,0.112823,0.369762
1470330583055773,-0.257749,0.112823,0.369762
1470330583076850,-0.257749,0.112823,0.369762
1470330583093307,-0.257873,0.112846,0.369758
1470330583115844,-0.257873,0.112846,0.369758
1470330583136871,-0.257997,0.112869,0.369754
1470330583153411,-0.257997,0.112869,0.369754
1470330583175881,-0.257997,0.112869,0.369754
1470330583196900,-0.258121,0.112892,0.369751
1470330583213414,-0.258121,0.112892,0.369751
1470330583235456,-0.258121,0.112892,0.369751
1470330583256963,-0.258141,0.112773,0.369764
1470330583272968,-0.258265,0.112796,0.36976
1470330583295509,-0.258265,0.112796,0.36976
1470330583317010,-0.258389,0.112819,0.369757
1470330583333021,-0.258393,0.112803,0.369628
1470330583355544,-0.258538,0.112706,0.369638
1470330583377061,-0.258538,0.112706,0.369638
1470330583393076,-0.258662,0.11273,0.369634
1470330583423104,-0.258662,0.11273,0.369634
1470330583436614,-0.258662,0.11273,0.369634
1470330583453140,-0.258786,0.112753,0.369631
1470330583475650,-0.258769,0.112749,0.369609
1470330583496747,-0.258769,0.112749,0.369609
1470330583513184,-0.258769,0.112749,0.369609
1470330583535704,-0.258745,0.112885,0.369724
1470330583556770,-0.258389,0.112819,0.369757
1470330583573238,-0.25789,0.112743,0.369899
1470330583595760,-0.256675,0.112445,0.370354
1470330583616777,-0.254707,0.112057,0.371214
1470330583633323,-0.252072,0.111822,0.372324
1470330583655842,-0.249875,0.11128,0.373333
1470330583678332,-0.248688,0.110714,0.374572
1470330583693345,-0.248167,0.109903,0.375809
1470330583715908,-0.247896,0.109138,0.377038
1470330583738386,-0.247728,0.108516,0.378252
1470330583753399,-0.2475,0.108236,0.379301
1470330583775936,-0.248838,0.108329,0.379865
1470330583797941,-0.250979,0.107612,0.379751
1470330583812453,-0.252195,0.106544,0.379337
1470330583835476,-0.251413,0.10682,0.378837
1470330583857994,-0.250778,0.106895,0.378465
1470330583872506,-0.251043,0.107562,0.378393
1470330583895553,-0.252083,0.108007,0.378294
1470330583918069,-0.252083,0.108007,0.378294
1470330583932560,-0.251194,0.108067,0.378185
1470330583955581,-0.250278,0.107646,0.378281
1470330583978101,-0.249308,0.106721,0.378407
1470330583992617,-0.248869,0.105684,0.378802
1470330584015637,-0.248581,0.104428,0.379196
1470330584038156,-0.247998,0.103396,0.379828
1470330584052695,-0.246894,0.10251,0.380469
1470330584075689,-0.2461,0.101947,0.381182
1470330584098211,-0.245016,0.101573,0.381876
1470330584112721,-0.243717,0.101684,0.38278
1470330584135743,-0.242039,0.101769,0.38408
1470330584158264,-0.241422,0.101549,0.385254
1470330584179299,-0.241605,0.101064,0.386038
1470330584195879,-0.241662,0.100662,0.386708
1470330584218318,-0.241757,0.100054,0.387658
1470330584239336,-0.240862,0.0994491,0.388267
1470330584255850,-0.239911,0.0991551,0.388453
1470330584278371,-0.23955,0.0990359,0.388076
1470330584299389,-0.239991,0.0988109,0.387599
1470330584315921,-0.241112,0.0989657,0.387059
1470330584337924,-0.24205,0.0993312,0.386475
1470330584359443,-0.24236,0.0998206,0.385926
1470330584375961,-0.24251,0.100402,0.385345
1470330584397978,-0.242484,0.101245,0.385128
1470330584418999,-0.242175,0.10163,0.384722
1470330584435528,-0.242097,0.10206,0.384288
1470330584458032,-0.24243,0.102339,0.383997
1470330584479053,-0.24309,0.102837,0.38392
1470330584495566,-0.243506,0.103363,0.383474
1470330584518086,-0.244195,0.103801,0.382904
1470330584539121,-0.244318,0.103825,0.382901
1470330584555621,-0.244677,0.103968,0.382494
1470330584578140,-0.245141,0.104238,0.381943
1470330584599725,-0.245852,0.104556,0.381386
1470330584615676,-0.246415,0.104985,0.380948
1470330584638193,-0.246538,0.105009,0.380945
1470330584660716,-0.246538,0.105009,0.380945
1470330584675727,-0.246538,0.105009,0.380945
1470330584698248,-0.24656,0.10489,0.380957
1470330584720768,-0.24656,0.10489,0.380957
1470330584741820,-0.24656,0.10489,0.380957
1470330584757802,-0.24689,0.105093,0.381041
1470330584780861,-0.24689,0.105093,0.381041
1470330584794836,-0.24737,0.105366,0.380512
1470330584818355,-0.248146,0.105325,0.379992
1470330584840876,-0.248569,0.105109,0.379622
1470330584854888,-0.248569,0.105109,0.379622
1470330584877909,-0.248693,0.105133,0.379619
1470330584900954,-0.248816,0.105157,0.379616
1470330584914943,-0.248262,0.105404,0.379463
1470330584937963,-0.247994,0.105566,0.37921
1470330584960988,-0.247973,0.105685,0.379197
1470330584974999,-0.247973,0.105685,0.379197
1470330584998017,-0.24872,0.105705,0.379168
1470330585020537,-0.248847,0.105713,0.379037
1470330585035051,-0.248822,0.105848,0.379153
1470330585058071,-0.248699,0.105824,0.379156
1470330585086610,-0.248822,0.105848,0.379153
1470330585095104,-0.249446,0.105844,0.379127
1470330585118125,-0.249446,0.105844,0.379127
1470330585140645,-0.249446,0.105844,0.379127
1470330585162170,-0.249446,0.105844,0.379127
1470330585178179,-0.250088,0.105827,0.378995
1470330585201199,-0.250212,0.105851,0.378992
1470330585221717,-0.249999,0.10623,0.379321
1470330585238234,-0.24922,0.107628,0.379676
1470330585260753,-0.247907,0.109131,0.380676
1470330585281789,-0.247399,0.110418,0.381695
1470330585298286,-0.251526,0.108006,0.384603
1470330585320819,-0.26359,0.101486,0.388702
1470330585341865,-0.28149,0.0953433,0.396282
1470330585358352,-0.292265,0.0911,0.404736
1470330585380872,-0.289942,0.0894432,0.413459
1470330585401925,-0.276653,0.09114,0.424664
1470330585417943,-0.260992,0.0957816,0.440166
1470330585440951,-0.249447,0.102631,0.459857
1470330585461955,-0.24575,0.108793,0.485634
1470330585477959,-0.250276,0.114318,0.516013
1470330585500487,-0.255062,0.120664,0.544886
1470330585522001,-0.253197,0.129795,0.57273
1470330585537513,-0.245754,0.140555,0.598921
1470330585561034,-0.233773,0.150438,0.624827
1470330585583054,-0.222158,0.158454,0.649174
1470330585597573,-0.217644,0.16241,0.671478
1470330585620624,-0.215709,0.160928,0.692424
1470330585643108,-0.214028,0.155488,0.710809
1470330585657656,-0.208235,0.147602,0.725221
1470330585680642,-0.196171,0.137681,0.735584
1470330585703179,-0.181008,0.127311,0.743769
1470330585717693,-0.167212,0.116405,0.750508
1470330585740696,-0.157963,0.102603,0.755905
1470330585763216,-0.152985,0.0862585,0.760108
1470330585777729,-0.14887,0.0726,0.7644
1470330585800751,-0.143307,0.0620576,0.76771
1470330585823269,-0.136527,0.0542861,0.770956
1470330585844321,-0.131712,0.0479121,0.773692
1470330585860820,-0.128644,0.0421436,0.776883
1470330585883325,-0.125711,0.0370854,0.780333
1470330585904343,-0.121152,0.0318131,0.782971
1470330585920862,-0.115731,0.0263894,0.784922
1470330585943378,-0.10998,0.0214504,0.786426
1470330585964398,-0.104092,0.0181324,0.787472
1470330585980913,-0.0965584,0.0177766,0.787386
1470330586003431,-0.0920933,0.0195742,0.786315
1470330586024451,-0.0915012,0.0209949,0.785357
1470330586040965,-0.0948139,0.0212793,0.78469
1470330586063488,-0.0985959,0.0204473,0.784376
1470330586084504,-0.0982112,0.0188144,0.784064
1470330586101019,-0.0922295,0.017913,0.783762
1470330586123039,-0.0875669,0.0176567,0.782809
1470330586144687,-0.0878686,0.0172352,0.782427
1470330586160572,-0.0911419,0.0169831,0.782075
1470330586183092,-0.0935093,0.0163578,0.78172
1470330586204113,-0.0924029,0.0161399,0.781184
1470330586220630,-0.0896306,0.0170766,0.780452
1470330586243147,-0.0881803,0.018011,0.779349
1470330586264167,-0.0882247,0.0191655,0.778241
1470330586280680,-0.088724,0.0205049,0.777135
1470330586303202,-0.0890144,0.0226746,0.77585
1470330586324234,-0.0882587,0.0238662,0.774244
1470330586340734,-0.0889716,0.0243625,0.77303
1470330586363788,-0.0900653,0.0255574,0.772201
1470330586384304,-0.0906616,0.0253904,0.77196
1470330586400835,-0.0932894,0.0237784,0.771121
1470330586423318,-0.0950844,0.0225689,0.769337
1470330586444329,-0.0964351,0.0224235,0.766186
1470330586460842,-0.0977669,0.023947,0.762422
1470330586483362,-0.099664,0.0267008,0.757966
1470330586504382,-0.103225,0.0305859,0.752812
1470330586519895,-0.108953,0.035351,0.746465
1470330586543422,-0.118253,0.040743,0.739119
1470330586565958,-0.129298,0.0474717,0.731311
1470330586579961,-0.142384,0.0533902,0.724563
1470330586602989,-0.152929,0.0591335,0.717369
1470330586626027,-0.161089,0.0639816,0.708257
1470330586640009,-0.165264,0.0676816,0.697943
1470330586663025,-0.165967,0.0713179,0.68698
1470330586685545,-0.165189,0.0741485,0.674683
1470330586700057,-0.165193,0.0763773,0.661419
1470330586723077,-0.164994,0.0781367,0.648062
1470330586745597,-0.164751,0.0785739,0.634589
1470330586760135,-0.163551,0.0776386,0.620749
1470330586783132,-0.160281,0.0763694,0.605956
1470330586805653,-0.155488,0.0742467,0.590506
1470330586826684,-0.151069,0.070833,0.575556
1470330586843186,-0.14961,0.0654538,0.56085
1470330586871715,-0.14925,0.0586504,0.546139
1470330586886787,-0.149071,0.0517969,0.531344
1470330586903239,-0.148774,0.0445781,0.516751
1470330586925760,-0.151212,0.0376646,0.503053
1470330586946781,-0.157237,0.0321748,0.489675
1470330586963293,-0.167072,0.0288766,0.477107
1470330586985817,-0.180156,0.0292246,0.465573
1470330587006833,-0.195857,0.0324271,0.456575
1470330587023347,-0.210128,0.0353778,0.449576
1470330587045867,-0.218821,0.039696,0.443383
1470330587066952,-0.222162,0.0449402,0.435401
1470330587082900,-0.22204,0.0507245,0.428122
1470330587105921,-0.221368,0.0569229,0.42333
1470330587126996,-0.223695,0.061469,0.420321
1470330587142954,-0.227243,0.0638346,0.416888
1470330587165975,-0.230097,0.064771,0.413374
1470330587186535,-0.231712,0.0655479,0.41075
1470330587203514,-0.232047,0.0671056,0.408573
1470330587225530,-0.232336,0.0682813,0.406436
1470330587246547,-0.233372,0.0688054,0.404852
1470330587263062,-0.234796,0.0686484,0.404233
1470330587285631,-0.236106,0.0683606,0.403735
1470330587306602,-0.237062,0.0680139,0.403393
1470330587324119,-0.237296,0.0675194,0.40308
1470330587345637,-0.237661,0.0669597,0.403013
1470330587366657,-0.238937,0.0662459,0.403215
1470330587383171,-0.240069,0.0655961,0.403148
1470330587405690,-0.240927,0.0650899,0.402694
1470330587426710,-0.241608,0.0648703,0.401838
1470330587443224,-0.242274,0.0646645,0.401088
1470330587465744,-0.243329,0.0644592,0.400736
1470330587488265,-0.243769,0.0641459,0.400517
1470330587503278,-0.243992,0.0642986,0.400373
1470330587525799,-0.244069,0.0645302,0.400088
1470330587548319,-0.244369,0.0649296,0.399788
1470330587562331,-0.245036,0.0654181,0.399614
1470330587585873,-0.24495,0.0657891,0.399679
1470330587608401,-0.244586,0.066365,0.399871
1470330587622885,-0.243772,0.0666785,0.399717
1470330587651984,-0.243649,0.0666539,0.399718
1470330587668426,-0.244088,0.0663557,0.399627
1470330587682444,-0.24498,0.0662736,0.399496
1470330587705960,-0.245513,0.0662076,0.399143
1470330587728481,-0.245885,0.0662193,0.398626
1470330587742495,-0.24648,0.0663986,0.398094
1470330587765514,-0.247592,0.0665097,0.397186
1470330587788036,-0.248927,0.0667876,0.396263
1470330587802548,-0.25024,0.0671831,0.395326
1470330587825569,-0.251177,0.0676246,0.394401
1470330587848088,-0.251408,0.0684196,0.393425
1470330587862608,-0.251448,0.069547,0.392409
1470330587885623,-0.251189,0.0702294,0.391309
1470330587908163,-0.251791,0.0711123,0.390459
1470330587922655,-0.25317,0.0717797,0.389597
1470330587945675,-0.253927,0.0724462,0.38875
1470330587968197,-0.254351,0.0729389,0.388071
1470330587989227,-0.254905,0.073351,0.38751
1470330588005728,-0.255726,0.073724,0.387217
1470330588028249,-0.256721,0.0737625,0.386942
1470330588033779,-0.25734,0.0738494,0.38668
1470330588051771,-0.257217,0.0738255,0.386681
1470330588071287,-0.257217,0.0738255,0.386681
1470330588093831,-0.257217,0.0738255,0.386681
1470330588111937,-0.257217,0.0738255,0.386681
1470330588138851,-0.257217,0.0738255,0.386681
1470330588153861,-0.257217,0.0738255,0.386681
1470330588171378,-0.25767,0.0740712,0.386896
1470330588191396,-0.258293,0.0740703,0.386881
1470330588213951,-0.258293,0.0740703,0.386881
1470330588231491,-0.258293,0.0740703,0.386881
1470330588251576,-0.258416,0.0740942,0.38688
1470330588273970,-0.258293,0.0740703,0.386881
1470330588291516,-0.257842,0.0737695,0.387171
1470330588311059,-0.257307,0.0733108,0.38737
1470330588334028,-0.25779,0.0727716,0.387308
1470330588351539,-0.25815,0.0722086,0.387248
1470330588371557,-0.258392,0.0715341,0.387438
1470330588393579,-0.258894,0.070925,0.387776
1470330588411594,-0.258861,0.0704255,0.387834
1470330588431111,-0.259052,0.0700927,0.387876
1470330588453659,-0.26004,0.0694422,0.388052
1470330588471649,-0.261902,0.0682553,0.388568
1470330588491165,-0.263221,0.0673146,0.388939
1470330588513738,-0.263441,0.06676,0.389118
1470330588531740,-0.262707,0.0659991,0.389219
1470330588551274,-0.263497,0.0645173,0.38915
1470330588573739,-0.265133,0.0632522,0.389442
1470330588591755,-0.265892,0.0625565,0.389649
1470330588611274,-0.265512,0.0618834,0.389854
1470330588633795,-0.26427,0.0618292,0.390379
1470330588651815,-0.262759,0.0618451,0.39089
1470330588671326,-0.262142,0.0617578,0.391149
1470330588695348,-0.262142,0.0617578,0.391149
1470330588711365,-0.262142,0.0617578,0.391149
1470330588731380,-0.262688,0.0614971,0.391169
1470330588753901,-0.263249,0.0612369,0.391211
1470330588775920,-0.26379,0.061046,0.390855
1470330588791469,-0.264432,0.0609647,0.390227
1470330588813454,-0.265151,0.0611444,0.389569
1470330588831471,-0.266656,0.0612296,0.388938
1470330588852489,-0.268477,0.0615201,0.388375
1470330588874508,-0.270066,0.0617793,0.387962
1470330588891525,-0.27074,0.0622448,0.387658
1470330588911041,-0.271319,0.0624653,0.38749
1470330588933592,-0.272145,0.0627333,0.387321
1470330588952082,-0.273488,0.0629777,0.387166
1470330588972615,-0.274786,0.0634595,0.386979
1470330588993620,-0.275129,0.0642666,0.386862
1470330589011652,-0.27568,0.0647074,0.386557
1470330589032652,-0.276631,0.0649985,0.386387
1470330589053671,-0.277621,0.0656689,0.386147
1470330589071721,-0.277571,0.0660084,0.385995
1470330589092705,-0.275981,0.0670192,0.385598
1470330589113754,-0.27532,0.0679601,0.38525
1470330589131741,-0.274984,0.0683533,0.384935
1470330589152760,-0.275666,0.0687151,0.384749
1470330589173861,-0.275972,0.0691079,0.384445
1470330589191294,-0.276173,0.0694433,0.383907
1470330589212820,-0.276063,0.0700026,0.383575
1470330589233833,-0.27597,0.0705629,0.383264
1470330589251349,-0.276113,0.0710671,0.383051
1470330589272868,-0.276396,0.0716133,0.382987
1470330589293886,-0.276455,0.0719586,0.382684
1470330589311404,-0.276863,0.072511,0.382491
1470330589332427,-0.277169,0.0729209,0.382314
1470330589354061,-0.277482,0.0731933,0.382003
1470330589371461,-0.277413,0.0736348,0.381708
1470330589394012,-0.277372,0.0738201,0.381294
1470330589413549,-0.27735,0.073939,0.381278
1470330589431509,-0.277824,0.0741346,0.381131
1470330589454567,-0.27857,0.0742409,0.380868
1470330589473548,-0.279198,0.074186,0.380473
1470330589491563,-0.279821,0.0742508,0.380084
1470330589514083,-0.280422,0.0744342,0.37968
1470330589533619,-0.280626,0.0747682,0.379142
1470330589551644,-0.280666,0.0752141,0.378695
1470330589574158,-0.28137,0.0755392,0.378274
1470330589593659,-0.282222,0.0757509,0.377739
1470330589611701,-0.283034,0.0760797,0.377167
1470330589634193,-0.283761,0.076285,0.376761
1470330589653738,-0.284195,0.0766991,0.376454
1470330589671725,-0.284675,0.0768395,0.375923
1470330589694246,-0.285132,0.0771165,0.375504
1470330589713763,-0.286112,0.0772472,0.375089
1470330589731836,-0.286611,0.0773041,0.374829
1470330589754318,-0.28757,0.0775531,0.374399
1470330589773817,-0.28836,0.0780344,0.374065
1470330589791837,-0.289191,0.0783798,0.373642
1470330589813867,-0.290004,0.0787417,0.373324
1470330589833871,-0.290587,0.0790403,0.372903
1470330589851887,-0.291297,0.0792598,0.372603
1470330589873907,-0.292026,0.0794621,0.372196
1470330589893925,-0.292882,0.0795855,0.37191
1470330589911442,-0.293361,0.0797597,0.371634
1470330589933985,-0.293361,0.0797597,0.371634
1470330589953487,-0.293361,0.0797597,0.371634
1470330589971496,-0.293361,0.0797597,0.371634
1470330589994520,-0.293361,0.0797597,0.371634
1470330590015036,-0.293361,0.0797597,0.371634
1470330590031565,-0.29334,0.0798785,0.371618
1470330590054068,-0.293839,0.0799523,0.371485
1470330590075124,-0.293839,0.0799523,0.371485
1470330590091608,-0.293963,0.0799754,0.371483
1470330590114122,-0.293963,0.0799754,0.371483
1470330590136643,-0.293963,0.0799754,0.371483
1470330590151656,-0.293963,0.0799754,0.371483
1470330590174210,-0.293963,0.0799754,0.371483
1470330590195199,-0.294088,0.0799984,0.371482
1470330590211714,-0.294088,0.0799984,0.371482
1470330590234229,-0.294653,0.0803128,0.371166
1470330590255253,-0.295341,0.0806687,0.370977
1470330590271854,-0.295341,0.0806687,0.370977
1470330590294296,-0.295341,0.0806687,0.370977
1470330590316820,-0.295465,0.0806917,0.370975
1470330590331833,-0.295923,0.0810028,0.37081
1470330590353838,-0.296488,0.0813168,0.370494
1470330590376858,-0.297071,0.0816321,0.370199
1470330590391372,-0.297781,0.0818687,0.370026
1470330590414430,-0.298619,0.0820905,0.369595
1470330590436927,-0.299326,0.0824471,0.369427
1470330590451425,-0.299893,0.0827602,0.36911
1470330590473946,-0.299893,0.0827602,0.36911
1470330590495507,-0.299893,0.0827602,0.36911
1470330590516985,-0.30027,0.0827912,0.368851
1470330590533521,-0.300874,0.0830058,0.3687
1470330590555519,-0.301503,0.0829621,0.368433
1470330590577038,-0.301628,0.082985,0.368431
1470330590593052,-0.301628,0.082985,0.368431
1470330590623080,-0.301605,0.0831228,0.368542
1470330590637141,-0.301605,0.0831228,0.368542
1470330590653106,-0.30173,0.0831457,0.368541
1470330590675627,-0.30173,0.0831457,0.368541
1470330590690140,-0.30173,0.0831457,0.368541
1470330590713160,-0.30173,0.0831457,0.368541
1470330590735685,-0.301709,0.0832645,0.368524
1470330590756715,-0.301709,0.0832645,0.368524
1470330590773215,-0.301709,0.0832645,0.368524
1470330590795734,-0.301709,0.0832645,0.368524
1470330590810248,-0.301834,0.0832874,0.368523
1470330590833268,-0.301816,0.0832858,0.368501
1470330590855788,-0.301795,0.0834046,0.368485
1470330590876807,-0.301919,0.0834276,0.368483
1470330590893322,-0.301919,0.0834276,0.368483
1470330590915845,-0.302044,0.0834505,0.368482
1470330590944372,-0.302023,0.0835693,0.368465
1470330590953391,-0.302023,0.0835693,0.368465
1470330590975935,-0.302148,0.0835922,0.368464
1470330590996915,-0.302148,0.0835922,0.368464
1470330591013430,-0.302148,0.0835922,0.368464
1470330591035951,-0.302273,0.0836151,0.368462
1470330591056969,-0.302252,0.0837339,0.368446
1470330591072983,-0.302252,0.0837339,0.368446
1470330591096004,-0.302377,0.0837569,0.368444
1470330591117023,-0.302377,0.0837569,0.368444
1470330591133038,-0.302398,0.0842725,0.368482
1470330591155557,-0.302585,0.0846747,0.368429
1470330591177167,-0.302856,0.0852362,0.368464
1470330591193091,-0.303106,0.0859165,0.368482
1470330591215611,-0.303186,0.0868497,0.368724
1470330591237130,-0.303475,0.087413,0.36878
1470330591253162,-0.303475,0.087413,0.36878
1470330591275665,-0.303455,0.0875318,0.368763
1470330591298185,-0.303455,0.0875318,0.368763
1470330591312699,-0.303579,0.0875548,0.368761
1470330591335720,-0.303561,0.087553,0.36874
1470330591358295,-0.304187,0.0876487,0.368604
1470330591373254,-0.304187,0.0876487,0.368604
1470330591395792,-0.304187,0.0876487,0.368604
1470330591418295,-0.304312,0.0876717,0.368602
1470330591432810,-0.304291,0.0877905,0.368586
1470330591455827,-0.304291,0.0877905,0.368586
1470330591478347,-0.304398,0.0878116,0.368563
1470330591492860,-0.304398,0.0878116,0.368563
1470330591515881,-0.304398,0.0878116,0.368563
1470330591538443,-0.304398,0.0878116,0.368563
1470330591552466,-0.304502,0.0879534,0.368544
1470330591575942,-0.3045,0.0879726,0.368672
1470330591598454,-0.3045,0.0879726,0.368672
1470330591612488,-0.304625,0.0879956,0.36867
1470330591635989,-0.304625,0.0879956,0.36867
1470330591658011,-0.304604,0.0881144,0.368653
1470330591672522,-0.304604,0.0881144,0.368653
1470330591695542,-0.304604,0.0881144,0.368653
1470330591718096,-0.304729,0.0881374,0.368652
1470330591732575,-0.304729,0.0881374,0.368652
1470330591755596,-0.304729,0.0881374,0.368652
1470330591778116,-0.304854,0.0881604,0.36865
1470330591799636,-0.304854,0.0881604,0.36865
1470330591815652,-0.304854,0.0881604,0.36865
1470330591838172,-0.304979,0.0881834,0.368648
1470330591859249,-0.304979,0.0881834,0.368648
1470330591875706,-0.304979,0.0881834,0.368648
1470330591898225,-0.304958,0.0883022,0.368632
1470330591919245,-0.304939,0.0883003,0.36861
1470330591935761,-0.304939,0.0883003,0.36861
1470330591958278,-0.304939,0.0883003,0.36861
1470330591979345,-0.305064,0.0883233,0.368608
1470330591995814,-0.305189,0.0883463,0.368607
1470330592018334,-0.305189,0.0883463,0.368607
1470330592039367,-0.305293,0.0884881,0.368588
1470330592055866,-0.305293,0.0884881,0.368588
1470330592078401,-0.305882,0.0886813,0.368287
1470330592099404,-0.305882,0.0886813,0.368287
1470330592115920,-0.306007,0.0887043,0.368285
1470330592138439,-0.306007,0.0887043,0.368285
1470330592159458,-0.306111,0.0888461,0.368267
1470330592175973,-0.306111,0.0888461,0.368267
1470330592197998,-0.306091,0.0889649,0.36825
1470330592221016,-0.306091,0.0889649,0.36825
1470330592236029,-0.306215,0.0889878,0.368248
1470330592258047,-0.306215,0.0889878,0.368248
1470330592280569,-0.30634,0.0890108,0.368246
1470330592295581,-0.306506,0.08945,0.368426
1470330592318101,-0.307236,0.0902399,0.368542
1470330592341124,-0.30826,0.0909201,0.368437
1470330592355635,-0.309246,0.0917988,0.368043
1470330592378157,-0.309837,0.0927271,0.367638
1470330592400675,-0.310091,0.0934892,0.367404
1470330592415188,-0.310618,0.0940575,0.367178
1470330592438209,-0.310999,0.0947216,0.366937
1470330592460845,-0.310999,0.0947216,0.366937
1470330592475260,-0.310978,0.0948404,0.36692
1470330592498263,-0.311103,0.0948633,0.366918
1470330592520783,-0.311083,0.0949821,0.366902
1470330592535297,-0.311083,0.0949821,0.366902
1470330592558316,-0.311208,0.0950051,0.366899
1470330592580839,-0.311208,0.0950051,0.366899
1470330592595351,-0.311187,0.0951239,0.366883
1470330592618371,-0.311187,0.0951239,0.366883
1470330592640894,-0.311983,0.0956388,0.366796
1470330592655410,-0.312425,0.0959661,0.366733
1470330592678426,-0.313139,0.0962006,0.366554
1470330592700945,-0.313187,0.096659,0.36623
1470330592721966,-0.31313,0.097077,0.365802
1470330592738519,-0.31311,0.0971958,0.365785
1470330592760998,-0.31309,0.0973146,0.365768
1470330592782018,-0.31309,0.0973146,0.365768
1470330592798032,-0.31309,0.0973146,0.365768
1470330592820581,-0.313215,0.0973376,0.365766
1470330592842071,-0.313215,0.0973376,0.365766
1470330592858586,-0.313321,0.0973582,0.365742
1470330592880619,-0.313638,0.0984179,0.365704
1470330592902131,-0.313893,0.100509,0.36589
1470330592918140,-0.31462,0.102114,0.366407
1470330592940660,-0.314936,0.103073,0.366492
1470330592962179,-0.315062,0.103096,0.366489
1470330592978193,-0.314458,0.103065,0.366273
1470330593000715,-0.314566,0.102411,0.365975
1470330593021761,-0.315069,0.101727,0.365814
1470330593038256,-0.315033,0.10127,0.365378
1470330593060787,-0.314974,0.100952,0.365054
1470330593081787,-0.314916,0.100634,0.364729
1470330593098303,-0.314691,0.10053,0.364373
1470330593120823,-0.314449,0.100526,0.363873
1470330593141934,-0.314476,0.100347,0.363508
1470330593158356,-0.314566,0.100015,0.362948
1470330593180879,-0.314741,0.09972,0.36247
1470330593203396,-0.315059,0.0993489,0.362135
1470330593218412,-0.315059,0.0993489,0.362135
1470330593240930,-0.315123,0.0990737,0.361935
1470330593263451,-0.315562,0.0987653,0.361852
1470330593278463,-0.315768,0.0983126,0.361918
1470330593300599,-0.315685,0.0980322,0.361827
1470330593323504,-0.31537,0.0977088,0.361762
1470330593338019,-0.31537,0.0977088,0.361762
1470330593360571,-0.31537,0.0977088,0.361762
1470330593383558,-0.315016,0.0975019,0.361658
1470330593397570,-0.314996,0.0976208,0.361641
1470330593421091,-0.314871,0.0975981,0.361644
1470330593443113,-0.314996,0.0976208,0.361641
1470330593457624,-0.314996,0.0976208,0.361641
1470330593480645,-0.314617,0.0976939,0.361779
1470330593503167,-0.314198,0.0978834,0.361879
1470330593517678,-0.313678,0.0980128,0.361749
1470330593540698,-0.313803,0.0980355,0.361746
1470330593563219,-0.313655,0.0981516,0.361859
1470330593577732,-0.313636,0.0981492,0.361838
1470330593600756,-0.313425,0.0979873,0.36188
1470330593623774,-0.313425,0.0979873,0.36188
1470330593638287,-0.313425,0.0979873,0.36188
1470330593660807,-0.313425,0.0979873,0.36188
1470330593683327,-0.312963,0.0977801,0.361927
1470330593704405,-0.312963,0.0977801,0.361927
1470330593720861,-0.312963,0.0977801,0.361927
1470330593743408,-0.312942,0.0978989,0.36191
1470330593764400,-0.312942,0.0978989,0.36191
1470330593780942,-0.312924,0.0978965,0.361889
1470330593803481,-0.312334,0.0976864,0.362066
1470330593824492,-0.311953,0.0976578,0.362327
1470330593840969,-0.311736,0.097434,0.362747
1470330593863490,-0.31139,0.0972268,0.363423
1470330593884508,-0.309953,0.0966156,0.364408
1470330593900522,-0.308556,0.0958866,0.36543
1470330593923543,-0.307386,0.0946045,0.36666
1470330593944562,-0.306454,0.0933262,0.367608
1470330593967121,-0.305734,0.0923115,0.368392
1470330593983596,-0.305371,0.0915666,0.368902
1470330594004615,-0.305076,0.0910608,0.369229
1470330594020629,-0.305053,0.090463,0.369441
1470330594043150,-0.305053,0.090463,0.369441
1470330594064669,-0.305178,0.090486,0.369439
1470330594080683,-0.305178,0.090486,0.369439
1470330594103204,-0.305053,0.090463,0.369441
1470330594125727,-0.305053,0.090463,0.369441
1470330594140738,-0.305053,0.090463,0.369441
1470330594163267,-0.305053,0.090463,0.369441
1470330594185797,-0.305053,0.090463,0.369441
1470330594200807,-0.305053,0.090463,0.369441
1470330594223312,-0.305053,0.090463,0.369441
1470330594245833,-0.305053,0.090463,0.369441
1470330594260858,-0.305053,0.090463,0.369441
1470330594283367,-0.305053,0.090463,0.369441
1470330594306402,-0.305178,0.090486,0.369439
1470330594319899,-0.305178,0.090486,0.369439
1470330594343420,-0.305178,0.090486,0.369439
1470330594365939,-0.305178,0.090486,0.369439
1470330594379955,-0.305178,0.090486,0.369439
1470330594403490,-0.305178,0.090486,0.369439
1470330594425996,-0.305178,0.090486,0.369439
1470330594440007,-0.305178,0.090486,0.369439
1470330594463027,-0.305178,0.090486,0.369439
1470330594486048,-0.305178,0.090486,0.369439
1470330594500094,-0.30518,0.0904667,0.369312
1470330594523581,-0.30518,0.0904667,0.369312
1470330594546101,-0.305325,0.090371,0.369327
1470330594560114,-0.305325,0.090371,0.369327
1470330594583138,-0.305325,0.090371,0.369327
1470330594605655,-0.305325,0.090371,0.369327
1470330594627179,-0.305325,0.090371,0.369327
1470330594643189,-0.305305,0.0904898,0.36931
1470330594665712,-0.305305,0.0904898,0.36931
1470330594686799,-0.305411,0.0905109,0.369287
1470330594703243,-0.305411,0.0905109,0.369287
1470330594725763,-0.305432,0.0903921,0.369303
1470330594747286,-0.305388,0.0907504,0.369275
1470330594763297,-0.305388,0.0907504,0.369275
1470330594785822,-0.305496,0.0907522,0.369124
1470330594806836,-0.305494,0.0907715,0.369252
1470330594823890,-0.305494,0.0907715,0.369252
1470330594845870,-0.305494,0.0907715,0.369252
1470330594866908,-0.305494,0.0907715,0.369252
1470330594883404,-0.305474,0.0908903,0.369235
1470330594905924,-0.305599,0.0909134,0.369233
1470330594926988,-0.305599,0.0909134,0.369233
1470330594943959,-0.305599,0.0909134,0.369233
1470330594965981,-0.305599,0.0909134,0.369233
1470330594987063,-0.305724,0.0909364,0.369231
1470330595003028,-0.305724,0.0909364,0.369231
1470330595026044,-0.305724,0.0909364,0.369231
1470330595047078,-0.305724,0.0909364,0.369231
1470330595063566,-0.305724,0.0909364,0.369231
1470330595086086,-0.305724,0.0909364,0.369231
1470330595108625,-0.305724,0.0909364,0.369231
1470330595123620,-0.305828,0.0910783,0.369213
1470330595145668,-0.305828,0.0910783,0.369213
1470330595168161,-0.305828,0.0910783,0.369213
1470330595183174,-0.305828,0.0910783,0.369213
1470330595205693,-0.305828,0.0910783,0.369213
1470330595228241,-0.305828,0.0910783,0.369213
1470330595242727,-0.305807,0.0911971,0.369196
1470330595265750,-0.305932,0.0912201,0.369195
1470330595288268,-0.305932,0.0912201,0.369195
1470330595302782,-0.305932,0.0912201,0.369195
1470330595325801,-0.305932,0.0912201,0.369195
1470330595348322,-0.305932,0.0912201,0.369195
1470330595362839,-0.305932,0.0912201,0.369195
1470330595385857,-0.305911,0.0913389,0.369178
1470330595408378,-0.305911,0.0913389,0.369178
1470330595422890,-0.306018,0.09136,0.369155
1470330595445912,-0.306018,0.09136,0.369155
1470330595468430,-0.306018,0.09136,0.369155
1470330595482942,-0.306018,0.09136,0.369155
1470330595505963,-0.306018,0.09136,0.369155
1470330595528486,-0.306143,0.091383,0.369153
1470330595542997,-0.306143,0.091383,0.369153
1470330595566055,-0.306143,0.091383,0.369153
1470330595588538,-0.305745,0.0915535,0.369147
1470330595594042,-0.305745,0.0915535,0.369147
1470330595616144,-0.305745,0.0915535,0.369147
1470330595631650,-0.305745,0.0915535,0.369147
1470330595653651,-0.305745,0.0915535,0.369147
1470330595671667,-0.305078,0.0916759,0.369123
1470330595698686,-0.304677,0.091885,0.369372
1470330595713694,-0.304658,0.0918829,0.369351
1470330595731681,-0.305577,0.0916859,0.369365
1470330595751271,-0.308666,0.0913007,0.369495
1470330595773749,-0.314533,0.0902479,0.369952
1470330595796281,-0.32296,0.0882283,0.370646
1470330595811238,-0.330746,0.0869181,0.371753
1470330595833790,-0.334011,0.0869481,0.37259
1470330595856309,-0.332726,0.0877718,0.372985
1470330595871320,-0.329241,0.0887947,0.373358
1470330595893855,-0.326676,0.0896639,0.374013
1470330595916384,-0.326228,0.0900522,0.374601
1470330595931378,-0.32568,0.0902573,0.374954
1470330595953892,-0.323626,0.0903809,0.375078
1470330595971961,-0.321174,0.0907729,0.375072
1470330595991451,-0.319372,0.0909433,0.375196
1470330596013921,-0.318741,0.0908865,0.375587
1470330596031936,-0.318111,0.0908095,0.37585
1470330596051453,-0.317376,0.0907106,0.376137
1470330596073974,-0.316266,0.0906216,0.376178
1470330596091990,-0.314846,0.0907012,0.376039
1470330596111508,-0.313758,0.0912092,0.375866
1470330596134027,-0.312859,0.0919998,0.375635
1470330596151571,-0.312166,0.0930947,0.375494
1470330596171611,-0.311227,0.0941036,0.375103
1470330596193644,-0.310143,0.0952082,0.374699
1470330596216132,-0.308871,0.0960311,0.374355
1470330596231186,-0.30789,0.0965625,0.374164
1470330596255164,-0.306721,0.096812,0.374033
1470330596271680,-0.305841,0.0967886,0.374181
1470330596291221,-0.305089,0.0966676,0.374321
1470330596313790,-0.304333,0.0966869,0.374595
1470330596331799,-0.30347,0.096583,0.375015
1470330596351250,-0.302594,0.0964381,0.375158
1470330596373797,-0.302254,0.0962896,0.375458
1470330596391814,-0.30192,0.0960007,0.375624
1470330596411323,-0.30192,0.0960007,0.375624
1470330596433864,-0.302024,0.096143,0.375606
1470330596451950,-0.302045,0.0960242,0.375622
1470330596471359,-0.302024,0.096143,0.375606
1470330596493968,-0.302024,0.096143,0.375606
1470330596516430,-0.302024,0.096143,0.375606
1470330596531459,-0.302024,0.096143,0.375606
1470330596553933,-0.302024,0.096143,0.375606
1470330596571949,-0.302024,0.096143,0.375606
1470330596591466,-0.302024,0.096143,0.375606
1470330596613987,-0.302024,0.096143,0.375606
1470330596631501,-0.302003,0.0962618,0.37559
1470330596653146,-0.302003,0.0962618,0.37559
1470330596674041,-0.302003,0.0962618,0.37559
1470330596691557,-0.302003,0.0962618,0.37559
1470330596712575,-0.302127,0.0962853,0.375588
1470330596733609,-0.303948,0.0959769,0.37534
1470330596751610,-0.307319,0.0954507,0.374964
1470330596778639,-0.313063,0.0943898,0.375409
1470330596794149,-0.321742,0.0923593,0.376328
1470330596816248,-0.332173,0.089778,0.377851
1470330596832683,-0.341367,0.0877703,0.378941
1470330596853746,-0.348447,0.0862932,0.380371
1470330596876278,-0.353542,0.0867279,0.382664
1470330596892738,-0.356605,0.0892199,0.385255
1470330596913785,-0.357859,0.0938616,0.387736
1470330596936276,-0.359591,0.101291,0.390363
1470330596954292,-0.364347,0.111404,0.393739
1470330596973811,-0.371165,0.124012,0.397768
1470330596996347,-0.376677,0.138554,0.401791
1470330597020351,-0.381371,0.155609,0.407531
1470330597033956,-0.388345,0.175939,0.415762
1470330597056410,-0.398593,0.198634,0.42489
1470330597073899,-0.407122,0.222052,0.433111
1470330597093917,-0.409826,0.248544,0.442441
1470330597116460,-0.410268,0.276223,0.452784
1470330597134530,-0.41129,0.304659,0.464111
1470330597153973,-0.414166,0.333512,0.476093
1470330597176492,-0.419275,0.362161,0.489168
1470330597194007,-0.424945,0.391387,0.502416
1470330597214079,-0.429313,0.420253,0.514851
1470330597236652,-0.431471,0.449027,0.526759
1470330597254061,-0.43072,0.478345,0.538612
1470330597274135,-0.428893,0.50852,0.550472
1470330597297619,-0.426443,0.538864,0.56266
1470330597314143,-0.424506,0.568702,0.575596
1470330597334148,-0.423244,0.597571,0.588819
1470330597356198,-0.422572,0.626163,0.601535
1470330597374169,-0.421276,0.654493,0.614005
1470330597393723,-0.418712,0.682793,0.626868
1470330597416206,-0.416364,0.710414,0.640157
1470330597434298,-0.415647,0.737955,0.653504
1470330597453764,-0.416102,0.765229,0.666037
1470330597476292,-0.41696,0.792461,0.678428
1470330597494321,-0.418056,0.819097,0.690516
1470330597513829,-0.417834,0.844725,0.702722
1470330597536342,-0.416798,0.868904,0.715181
1470330597561893,-0.414856,0.891837,0.727988
1470330597577852,-0.412868,0.913915,0.741101
1470330597596368,-0.412678,0.93526,0.753289
1470330597613884,-0.412606,0.955573,0.766001
1470330597635404,-0.412924,0.975221,0.778898
1470330597656422,-0.415951,0.986486,0.78978
1470330597674438,-0.422607,1.00551,0.792729
1470330597695457,-0.429944,1.02127,0.795953
1470330597716476,-0.43049,1.03049,0.806323
1470330597733992,-0.437774,1.04284,0.811134
1470330597755511,-0.448257,1.05423,0.810863
1470330597776532,-0.459912,1.06399,0.809174
1470330597794049,-0.472296,1.07266,0.808395
1470330597815065,-0.485251,1.08069,0.808362
1470330597839089,-0.499429,1.08785,0.805341
1470330597854674,-0.512166,1.09401,0.800925
1470330597879125,-0.524213,1.09855,0.796752
1470330597896137,-0.535921,1.10234,0.792942
1470330597914156,-0.542088,1.10495,0.792584
1470330597936676,-0.541478,1.10866,0.794361
1470330597956207,-0.54068,1.11349,0.797343
1470330597974224,-0.542184,1.11479,0.799166
1470330598004739,-0.547791,1.11442,0.797658
1470330598016259,-0.550968,1.1145,0.795516
1470330598034294,-0.551087,1.11591,0.795176
1470330598056782,-0.552439,1.11784,0.793368
1470330598076803,-0.553616,1.11971,0.792767
1470330598093332,-0.555783,1.12254,0.790903
1470330598115836,-0.556674,1.12586,0.788459
1470330598136854,-0.555116,1.13153,0.787014
1470330598153368,-0.552489,1.13666,0.786007
1470330598175899,-0.550768,1.14271,0.78543
1470330598197419,-0.551824,1.14864,0.783118
1470330598213422,-0.555351,1.15591,0.779239
1470330598235956,-0.559198,1.16323,0.774246
1470330598256961,-0.563607,1.1709,0.768715
1470330598273476,-0.569695,1.17918,0.760799
1470330598295996,-0.575393,1.18752,0.751995
1470330598317016,-0.579784,1.19674,0.743887
1470330598333530,-0.582441,1.20527,0.737462
1470330598356050,-0.586374,1.21229,0.730295
1470330598377070,-0.591834,1.21767,0.723116
1470330598393602,-0.597227,1.22224,0.716326
1470330598415626,-0.600778,1.22716,0.711448
1470330598437212,-0.603018,1.23203,0.707534
1470330598453137,-0.604889,1.2363,0.703474
1470330598475658,-0.60661,1.24022,0.7001
1470330598497177,-0.60808,1.24419,0.697893
1470330598513214,-0.608284,1.2478,0.697459
1470330598535734,-0.606703,1.25097,0.698919
1470330598556762,-0.605463,1.25375,0.699616
1470330598573245,-0.60436,1.25634,0.700904
1470330598595770,-0.603202,1.25832,0.702045
1470330598618286,-0.601363,1.26014,0.704088
1470330598634301,-0.599266,1.26166,0.705331
1470330598655822,-0.596675,1.2631,0.707186
1470330598676838,-0.593508,1.26415,0.709578
1470330598706865,-0.590779,1.26561,0.712982
1470330598715875,-0.588244,1.2658,0.715738
1470330598737421,-0.587261,1.26557,0.71746
1470330598753427,-0.586575,1.26538,0.718372
1470330598775934,-0.584173,1.26495,0.720342
1470330598797450,-0.582837,1.26463,0.721117
1470330598813467,-0.582377,1.26356,0.721403
1470330598835981,-0.581679,1.26246,0.722921
1470330598858501,-0.582351,1.26076,0.722838
1470330598873515,-0.582231,1.25933,0.72323
1470330598896035,-0.580496,1.25854,0.724965
1470330598918555,-0.578233,1.25741,0.726695
1470330598933123,-0.576897,1.25678,0.728317
1470330598963096,-0.576394,1.25578,0.729063
1470330598978110,-0.574855,1.25504,0.731023
1470330598993122,-0.573122,1.25483,0.733004
1470330599015642,-0.572048,1.25479,0.734598
1470330599038176,-0.570282,1.2546,0.736126
1470330599052678,-0.568308,1.25406,0.737808
1470330599075703,-0.567333,1.25393,0.739409
1470330599098217,-0.566713,1.25398,0.740436
1470330599112730,-0.56509,1.25396,0.742087
1470330599135752,-0.562885,1.25367,0.744172
1470330599158271,-0.562674,1.25328,0.744849
1470330599172783,-0.562771,1.2532,0.744858
1470330599195808,-0.562771,1.2532,0.744858
1470330599225835,-0.561134,1.2532,0.746021
1470330599232851,-0.5599,1.25362,0.74722
1470330599255874,-0.558505,1.25395,0.748682
1470330599278380,-0.557326,1.25402,0.749777
1470330599292891,-0.556341,1.25444,0.750732
1470330599315913,-0.554911,1.25475,0.752248
1470330599338433,-0.554207,1.25518,0.75291
1470330599352945,-0.554207,1.25518,0.75291
1470330599375968,-0.554207,1.25518,0.75291
1470330599398510,-0.554245,1.25544,0.75303
1470330599427054,-0.554107,1.25527,0.752905
1470330599436021,-0.554825,1.25457,0.752559
1470330599458541,-0.555234,1.25389,0.752032
1470330599479615,-0.555602,1.25352,0.752103
1470330599496073,-0.555286,1.25273,0.752432
1470330599518595,-0.555878,1.25215,0.751607
1470330599539645,-0.555878,1.25215,0.751607
1470330599555627,-0.555878,1.25215,0.751607
1470330599578147,-0.555878,1.25215,0.751607
1470330599599667,-0.555878,1.25215,0.751607
1470330599615682,-0.555878,1.25215,0.751607
1470330599638213,-0.556268,1.25232,0.751481
1470330599659723,-0.554803,1.25213,0.752702
1470330599675737,-0.553655,1.2516,0.75356
1470330599698256,-0.552637,1.25157,0.755085
1470330599719775,-0.552413,1.25096,0.755101
1470330599743297,-0.551692,1.25061,0.755781
1470330599758311,-0.550438,1.25025,0.757004
1470330599779330,-0.549394,1.24996,0.7584
1470330599795843,-0.548465,1.24925,0.759255
1470330599818364,-0.547644,1.2487,0.760281
1470330599840886,-0.546785,1.24823,0.761725
1470330599855898,-0.545484,1.24735,0.762694
1470330599878418,-0.544737,1.24732,0.763951
1470330599900938,-0.543754,1.24696,0.764911
1470330599915953,-0.542393,1.24614,0.766343
1470330599938472,-0.541229,1.24625,0.768306
1470330599966998,-0.540486,1.24646,0.769732
1470330599975005,-0.540601,1.24605,0.769194
1470330599998525,-0.540456,1.24621,0.769611
1470330600021045,-0.540601,1.24605,0.769194
1470330600035076,-0.540075,1.24604,0.769732
1470330600058579,-0.540075,1.24604,0.769732
1470330600080637,-0.539092,1.2462,0.770513
1470330600095114,-0.539092,1.2462,0.770513
1470330600118133,-0.539121,1.24646,0.770635
1470330600140653,-0.538103,1.24641,0.772181
1470330600155166,-0.537722,1.24624,0.772301
1470330600179688,-0.538248,1.24625,0.771763
1470330600201208,-0.536861,1.24575,0.772366
1470330600215219,-0.537269,1.24617,0.772368
1470330600238240,-0.536651,1.24572,0.773076
1470330600262278,-0.536395,1.24491,0.773886
1470330600275273,-0.53697,1.24436,0.773986
1470330600298294,-0.536806,1.24402,0.774102
1470330600320814,-0.536672,1.24386,0.773982
1470330600341834,-0.536966,1.24334,0.773855
1470330600358348,-0.536383,1.24315,0.77468
1470330600380871,-0.536383,1.24315,0.77468
1470330600401889,-0.536006,1.24298,0.774798
1470330600418403,-0.535173,1.24303,0.776038
1470330600440923,-0.535173,1.24303,0.776038
1470330600463442,-0.535173,1.24303,0.776038
1470330600478458,-0.534796,1.24286,0.776157
1470330600500977,-0.534653,1.24302,0.776571
1470330600521998,-0.534653,1.24302,0.776571
1470330600538510,-0.534653,1.24302,0.776571
1470330600561030,-0.534796,1.24286,0.776157
1470330600582078,-0.534653,1.24302,0.776571
1470330600598063,-0.534653,1.24302,0.776571
1470330600621086,-0.534679,1.24327,0.776693
1470330600642104,-0.534302,1.24311,0.776811
1470330600658641,-0.534302,1.24311,0.776811
1470330600680640,-0.533491,1.24337,0.777296
1470330600702157,-0.53314,1.24345,0.777538
1470330600718689,-0.532997,1.24361,0.777952
1470330600740691,-0.532862,1.24344,0.777834
1470330600763712,-0.532862,1.24344,0.777834
1470330600778726,-0.532888,1.2437,0.777956
1470330600800747,-0.532888,1.2437,0.777956
1470330600823265,-0.532888,1.2437,0.777956
1470330600838279,-0.532511,1.24353,0.778075
1470330600860815,-0.532367,1.24368,0.77849
1470330600890826,-0.532367,1.24368,0.77849
1470330600897847,-0.53199,1.24352,0.778609
1470330600920871,-0.53199,1.24352,0.778609
1470330600943374,-0.53199,1.24352,0.778609
1470330600957886,-0.53199,1.24352,0.778609
1470330600980907,-0.53199,1.24352,0.778609
1470330601003428,-0.53199,1.24352,0.778609
1470330601018441,-0.53199,1.24352,0.778609
1470330601040963,-0.531737,1.24376,0.779028
1470330601063483,-0.531737,1.24376,0.779028
1470330601077495,-0.53136,1.24359,0.779147
1470330601101017,-0.53136,1.24359,0.779147
1470330601123535,-0.53136,1.24359,0.779147
1470330601137548,-0.531762,1.24401,0.779151
1470330601160591,-0.531385,1.24385,0.77927
1470330601183629,-0.531385,1.24385,0.77927
1470330601205611,-0.531385,1.24385,0.77927
1470330601221123,-0.531385,1.24385,0.77927
1470330601243644,-0.531385,1.24385,0.77927
1470330601264662,-0.531106,1.24384,0.779567
1470330601281177,-0.530754,1.24392,0.779809
1470330601303698,-0.530754,1.24392,0.779809
1470330601324716,-0.530754,1.24392,0.779809
1470330601340730,-0.530754,1.24392,0.779809
1470330601363283,-0.530754,1.24392,0.779809
1470330601384789,-0.530644,1.24401,0.779814
1470330601400786,-0.530644,1.24401,0.779814
1470330601423305,-0.530644,1.24401,0.779814
1470330601444823,-0.530644,1.24401,0.779814
1470330601460840,-0.530644,1.24401,0.779814
1470330601483365,-0.5305,1.24417,0.78023
1470330601504379,-0.530122,1.244,0.780349
1470330601527399,-0.530122,1.244,0.780349
1470330601543415,-0.530122,1.244,0.780349
1470330601564454,-0.530122,1.244,0.780349
1470330601580946,-0.530122,1.244,0.780349
1470330601603466,-0.530122,1.244,0.780349
1470330601624987,-0.529746,1.24383,0.780467
1470330601640999,-0.529601,1.24399,0.780883
1470330601663524,-0.529601,1.24399,0.780883
1470330601686040,-0.529601,1.24399,0.780883
1470330601701054,-0.529601,1.24399,0.780883
1470330601723576,-0.529601,1.24399,0.780883
1470330601745596,-0.529736,1.24415,0.781002
1470330601761110,-0.528119,1.24439,0.782326
1470330601790634,-0.526275,1.24435,0.784229
1470330601806149,-0.524788,1.24475,0.785678
1470330601821195,-0.522588,1.24479,0.787828
1470330601843682,-0.520242,1.24499,0.790398
1470330601866243,-0.517971,1.24459,0.792701
1470330601888226,-0.516252,1.24392,0.794795
1470330601911244,-0.514257,1.24307,0.797392
1470330601925757,-0.51083,1.24184,0.801428
1470330601940269,-0.507244,1.24075,0.805925
1470330601963289,-0.50384,1.23905,0.810569
1470330601985816,-0.499225,1.23708,0.816323
1470330602000352,-0.493771,1.23481,0.823303
1470330602023343,-0.488098,1.23192,0.830875
1470330602045864,-0.481367,1.22898,0.840108
1470330602060377,-0.472934,1.22583,0.850929
1470330602083399,-0.462654,1.22204,0.863599
1470330602105935,-0.450313,1.2182,0.879434
1470330602126939,-0.434879,1.21373,0.89896
1470330602143455,-0.416822,1.20828,0.921714
1470330602165971,-0.396504,1.20234,0.94772
1470330602187022,-0.373395,1.1944,0.977057
1470330602203548,-0.348616,1.18491,1.00942
1470330602226026,-0.321709,1.17274,1.04568
1470330602247061,-0.293478,1.15725,1.0852
1470330602263563,-0.267053,1.13796,1.12462
1470330602286104,-0.243017,1.11607,1.16299
1470330602314607,-0.219379,1.09131,1.20165
1470330602323651,-0.196694,1.0638,1.24056
1470330602346133,-0.174394,1.03023,1.28031
1470330602367190,-0.154582,0.993015,1.31866
1470330602383186,-0.137655,0.9523,1.35484
1470330602406186,-0.122641,0.90845,1.38855
1470330602427208,-0.109332,0.860647,1.41968
1470330602451229,-0.0978499,0.808996,1.44673
1470330602465741,-0.0893942,0.755271,1.47074
1470330602487259,-0.0833903,0.701266,1.49441
1470330602503274,-0.0791211,0.64699,1.51644
1470330602525819,-0.0750892,0.592384,1.53586
1470330602547313,-0.0699003,0.538285,1.55368
1470330602563328,-0.0645723,0.486198,1.5703
1470330602585848,-0.0582882,0.437318,1.58585
1470330602606882,-0.0511531,0.391907,1.59995
1470330602622886,-0.0441771,0.348905,1.61404
1470330602645904,-0.0402761,0.306683,1.62778
1470330602668447,-0.0376844,0.267182,1.63977
1470330602682936,-0.0349841,0.230147,1.65023
1470330602705976,-0.0293516,0.197768,1.65984
1470330602728496,-0.0210823,0.168799,1.66887
1470330602743037,-0.0130504,0.142048,1.67703
1470330602766010,-0.00632735,0.118781,1.6841
1470330602788545,0.00089102,0.0994225,1.68939
1470330602802543,0.00772146,0.0819592,1.6934
1470330602826064,0.0118481,0.0655964,1.69687
1470330602848083,0.0139729,0.0497807,1.70077
1470330602862636,0.016416,0.0359319,1.70409
1470330602886142,0.0213862,0.0245057,1.70596
1470330602908648,0.0270225,0.0143293,1.70735
1470330602929658,0.0298926,0.00695224,1.70743
1470330602946171,0.0310218,-0.00307999,1.70767
1470330602968691,0.0280719,-0.0131221,1.71012
1470330602989711,0.0274123,-0.0211449,1.71157
1470330603006225,0.0334088,-0.0269325,1.71142
1470330603028250,0.0407416,-0.0309216,1.71183
1470330603049266,0.0437663,-0.0344514,1.71296
1470330603066279,0.0456486,-0.038159,1.71391
1470330603088299,0.0505174,-0.040094,1.71487
1470330603109332,0.055446,-0.0411689,1.71567
1470330603125835,0.0576471,-0.0429822,1.71589
1470330603148353,0.0588327,-0.0456782,1.71626
1470330603170401,0.0618391,-0.0482518,1.71667
1470330603171891,0.0656411,-0.0506312,1.71726
1470330603191424,0.0683228,-0.0528499,1.71803
1470330603213927,0.0698963,-0.0558619,1.71898
1470330603231936,0.0721506,-0.0590936,1.71976
1470330603251495,0.0770192,-0.062174,1.72038
1470330603273966,0.0814395,-0.0653266,1.72137
1470330603292049,0.0834503,-0.069423,1.72232
1470330603311506,0.0846178,-0.074238,1.72328
1470330603334055,0.0870175,-0.0787982,1.72408
1470330603352036,0.091827,-0.0824336,1.72508
1470330603372555,0.0965662,-0.0856476,1.72629
1470330603394074,0.100371,-0.0885417,1.72766
1470330603411612,0.104628,-0.091372,1.72867
1470330603431607,0.110336,-0.0936026,1.72916
1470330603454128,0.118004,-0.095617,1.72911
1470330603476676,0.125983,-0.0963822,1.72815
1470330603491662,0.131786,-0.095103,1.72663
1470330603514187,0.132363,-0.094762,1.72607
1470330603536215,0.131711,-0.0956246,1.72548
1470330603551305,0.132874,-0.0965616,1.72513
1470330603573749,0.134754,-0.0973691,1.7246
1470330603591753,0.136051,-0.098361,1.72483
1470330603611788,0.135875,-0.0985171,1.72481
1470330603633803,0.134376,-0.0988275,1.72477
1470330603651819,0.133297,-0.0992612,1.72474
1470330603671325,0.133585,-0.0998326,1.72512
1470330603693849,0.13476,-0.100279,1.72516
1470330603711916,0.136402,-0.10034,1.72539
1470330603731419,0.137214,-0.0999722,1.72541
1470330603753926,0.137691,-0.099404,1.72543
1470330603771966,0.138272,-0.0985844,1.72546
1470330603791462,0.13876,-0.097844,1.72548
1470330603813982,0.139756,-0.0973077,1.72534
1470330603831991,0.14054,-0.0971275,1.72556
1470330603851569,0.140458,-0.0970344,1.72556
1470330603874005,0.140551,-0.0969553,1.72557
1470330603891521,0.141001,-0.0965852,1.72596
1470330603911538,0.141084,-0.0963723,1.72653
1470330603934059,0.139629,-0.0958452,1.72687
1470330603958080,0.137286,-0.0954319,1.72737
1470330603971603,0.134754,-0.0953456,1.72786
1470330603994215,0.132054,-0.095402,1.72813
1470330604012139,0.129607,-0.0955561,1.72825
1470330604031709,0.128216,-0.095443,1.72823
1470330604053722,0.12728,-0.0951164,1.72839
1470330604071728,0.12728,-0.0951164,1.72839
1470330604091199,0.127199,-0.0950232,1.72839
1470330604113720,0.127119,-0.09493,1.72839
1470330604132259,0.127507,-0.0945999,1.7282
1470330604151312,0.128139,-0.0943697,1.72786
1470330604173776,0.128518,-0.0940416,1.72768
1470330604191795,0.128437,-0.0939484,1.72768
1470330604212809,0.12853,-0.0938693,1.72768
1470330604236850,0.128542,-0.093697,1.72769
1470330604251860,0.128542,-0.093697,1.72769
1470330604272897,0.128552,-0.0936948,1.72767
1470330604293899,0.128471,-0.0936016,1.72767
1470330604311903,0.12839,-0.0935085,1.72767
1470330604332918,0.128583,-0.0933385,1.72749
1470330604353935,0.12931,-0.0930384,1.72733
1470330604371952,0.130153,-0.0923146,1.72717
1470330604392973,0.130976,-0.0917654,1.72702
1470330604414017,0.131069,-0.0916863,1.72703
1470330604432059,0.131069,-0.0916863,1.72703
1470330604453024,0.131078,-0.0916838,1.72701
1470330604474048,0.130997,-0.0915907,1.72701
1470330604492059,0.130916,-0.0914976,1.72701
1470330604513116,0.131462,-0.0911952,1.72703
1470330604534097,0.131381,-0.091102,1.72703
1470330604551613,0.132005,-0.0908832,1.72687
1470330604574134,0.132703,-0.0907696,1.72691
1470330604594268,0.133342,-0.0903881,1.72693
1470330604611672,0.133261,-0.090295,1.72693
1470330604634697,0.133261,-0.090295,1.72693
1470330604653732,0.133261,-0.090295,1.72693
1470330604672244,0.133273,-0.0901228,1.72693
1470330604694268,0.133273,-0.0901228,1.72693
1470330604713759,0.133273,-0.0901228,1.72693
1470330604731843,0.132914,-0.0901284,1.72747
1470330604754296,0.132914,-0.0901284,1.72747
1470330604773812,0.132834,-0.0900353,1.72747
1470330604791928,0.132834,-0.0900353,1.72747
1470330604814384,0.132834,-0.0900353,1.72747
1470330604833894,0.132753,-0.0899422,1.72747
1470330604851891,0.133165,-0.0900781,1.72768
1470330604874403,0.13404,-0.0899884,1.72788
1470330604893949,0.133959,-0.0898952,1.72788
1470330604911937,0.133959,-0.0898952,1.72788
1470330604934474,0.134052,-0.0898162,1.72789
1470330604953978,0.134052,-0.0898162,1.72789
1470330604971991,0.134145,-0.0897371,1.72789
1470330604994012,0.134145,-0.0897371,1.72789
1470330605015536,0.134145,-0.0897371,1.72789
1470330605032044,0.134064,-0.089644,1.72789
1470330605054588,0.134064,-0.089644,1.72789
1470330605074082,0.134064,-0.089644,1.72789
1470330605091600,0.134064,-0.089644,1.72789
1470330605114636,0.134064,-0.089644,1.72789
1470330605133636,0.134064,-0.089644,1.72789
1470330605151653,0.134064,-0.089644,1.72789
1470330605174178,0.134076,-0.0894718,1.7279
1470330605195692,0.134076,-0.0894718,1.7279
1470330605211708,0.133983,-0.0895509,1.72789
1470330605234746,0.133983,-0.0895509,1.72789
1470330605255255,0.134076,-0.0894718,1.7279
1470330605271813,0.134076,-0.0894718,1.7279
1470330605294280,0.134076,-0.0894718,1.7279
1470330605315303,0.133636,-0.0895227,1.72789
1470330605331816,0.133543,-0.0896018,1.72788
1470330605354383,0.133543,-0.0896018,1.72788
1470330605375353,0.133462,-0.0895086,1.72788
1470330605391870,0.133369,-0.0895877,1.72788
1470330605414388,0.133835,-0.0893403,1.72752
1470330605435407,0.13478,-0.0886729,1.72681
1470330605451922,0.13581,-0.0879382,1.72629
1470330605474475,0.136357,-0.0877832,1.72594
1470330605495460,0.136357,-0.0877832,1.72594
1470330605512063,0.136357,-0.0877832,1.72594
1470330605533499,0.136449,-0.0880208,1.72554
1470330605557017,0.135876,-0.087994,1.72458
1470330605572030,0.135578,-0.0869088,1.72309
1470330605594550,0.135972,-0.0857307,1.72198
1470330605623576,0.134704,-0.0861165,1.72024
1470330605637088,0.134399,-0.0846061,1.71517
1470330605653603,0.134642,-0.0786986,1.70987
1470330605676123,0.121627,-0.0727509,1.70336
1470330605697142,0.0966735,-0.0682667,1.69811
1470330605713658,0.0660933,-0.062381,1.69327
1470330605735682,0.0406718,-0.0486387,1.68707
1470330605757195,0.0204863,-0.0272143,1.67873
1470330605773715,0.00636367,-0.00576587,1.67157
1470330605795733,0.0155657,0.0258812,1.66494
1470330605817308,0.0410555,0.0705493,1.64897
1470330605833264,0.0495024,0.114497,1.62699
1470330605855784,0.0368258,0.157223,1.60838
1470330605877303,0.010876,0.201096,1.58993
1470330605893317,-0.0162018,0.247994,1.56775
1470330605915853,-0.037952,0.29704,1.54226
1470330605936857,-0.0558604,0.346652,1.5145
1470330605953372,-0.0733331,0.395167,1.48486
1470330605975892,-0.0914823,0.441732,1.45342
1470330605996950,-0.1119,0.486552,1.41975
1470330606013438,-0.135846,0.529194,1.38381
1470330606035946,-0.160913,0.569621,1.34616
1470330606056981,-0.186196,0.608028,1.30679
1470330606073480,-0.210769,0.64452,1.26523
1470330606096000,-0.236224,0.679692,1.22067
1470330606126027,-0.263823,0.713635,1.17234
1470330606133573,-0.294408,0.746162,1.12166
1470330606163563,-0.32823,0.776743,1.06829
1470330606177075,-0.366386,0.805942,1.01204
1470330606201094,-0.410553,0.834638,0.951113
1470330606216223,-0.457673,0.86214,0.887163
1470330606237155,-0.504757,0.886862,0.823765
1470330606254642,-0.551292,0.908628,0.76281
1470330606276161,-0.599904,0.927979,0.702973
1470330606297180,-0.652945,0.946084,0.640585
1470330606319738,-0.71079,0.964133,0.573702
1470330606336230,-0.758145,0.971156,0.517609
1470330606357234,-0.811022,0.983946,0.455154
1470330606372749,-0.846696,0.983471,0.412048
1470330606395769,-0.887092,0.989111,0.364261
1470330606416788,-0.923184,0.991837,0.323935
1470330606432802,-0.953987,0.992956,0.290743
1470330606455823,-0.97985,0.993001,0.262809
1470330606478342,-0.998519,0.992352,0.241773
1470330606492856,-1.01143,0.991376,0.226694
1470330606515877,-1.02105,0.990495,0.215944
1470330606538397,-1.02819,0.989672,0.208069
1470330606559973,-1.03184,0.989019,0.204084
1470330606575942,-1.03212,0.987891,0.203812
1470330606598452,-1.02951,0.987217,0.20646
1470330606612964,-1.02596,0.986397,0.211025
1470330606641990,-1.02185,0.985342,0.216404
1470330606658506,-1.01715,0.984499,0.222465
1470330606681027,-1.01083,0.983436,0.229557
1470330606696040,-1.00345,0.98252,0.237147
1470330606718559,-0.996715,0.981507,0.244914
1470330606733074,-0.990265,0.980555,0.252388
1470330606756093,-0.984431,0.979492,0.259006
1470330606778613,-0.978455,0.978708,0.265157
1470330606792626,-0.971273,0.978054,0.271642
1470330606816146,-0.96384,0.97745,0.278689
1470330606838666,-0.958297,0.977175,0.284739
1470330606852682,-0.953884,0.977014,0.290212
1470330606876200,-0.949345,0.976618,0.295129
1470330606898720,-0.944454,0.976595,0.299629
1470330606920802,-0.939741,0.976529,0.303685
1470330606935773,-0.93592,0.976558,0.307007
1470330606964780,-0.932275,0.976765,0.310271
1470330606979793,-0.928757,0.977032,0.313291
1470330606995808,-0.925811,0.977196,0.316005
1470330607018328,-0.923445,0.977489,0.318261
1470330607039360,-0.921646,0.977554,0.320201
1470330607055863,-0.919836,0.977442,0.321871
1470330607085893,-0.919532,0.977469,0.322145
1470330607099963,-0.919336,0.977473,0.322287
1470330607115915,-0.919032,0.9775,0.322561
1470330607138436,-0.918711,0.97744,0.322949
1470330607159955,-0.918208,0.977023,0.323121
1470330607175970,-0.917945,0.976593,0.323335
1470330607198490,-0.917842,0.976399,0.323075
1470330607219539,-0.918231,0.975817,0.322542
1470330607236039,-0.918584,0.975476,0.321677
1470330607258543,-0.919238,0.975109,0.320541
1470330607279579,-0.919818,0.975025,0.319691
1470330607296101,-0.920188,0.974484,0.319284
1470330607318597,-0.921209,0.973823,0.318933
1470330607339632,-0.922759,0.972858,0.317706
1470330607356131,-0.923711,0.971962,0.316486
1470330607378651,-0.924394,0.971139,0.315305
1470330607400671,-0.924424,0.970239,0.315016
1470330607416185,-0.924482,0.968869,0.315213
1470330607438205,-0.924297,0.967375,0.315898
1470330607460725,-0.923805,0.966051,0.316812
1470330607476239,-0.922569,0.964247,0.317965
1470330607498259,-0.920946,0.962722,0.319358
1470330607521280,-0.918485,0.961038,0.321873
1470330607536327,-0.915316,0.959469,0.325646
1470330607558332,-0.911816,0.957922,0.330514
1470330607588340,-0.907453,0.956137,0.336417
1470330607595346,-0.901917,0.9541,0.343788
1470330607618367,-0.894694,0.951366,0.352818
1470330607641387,-0.883054,0.948799,0.365253
1470330607655400,-0.865866,0.945419,0.381864
1470330607684975,-0.844087,0.939416,0.40204
1470330607700941,-0.820248,0.930434,0.424912
1470330607721960,-0.794232,0.918588,0.450862
1470330607738474,-0.766203,0.903991,0.479822
1470330607760995,-0.73849,0.886896,0.510172
1470330607790022,-0.711769,0.867237,0.539707
1470330607798528,-0.686024,0.843806,0.566991
1470330607821053,-0.659744,0.816041,0.591093
1470330607842086,-0.635703,0.78562,0.609982
1470330607858582,-0.614272,0.753799,0.624485
1470330607881102,-0.596404,0.720102,0.636153
1470330607902122,-0.585179,0.681152,0.64577
1470330607918637,-0.578013,0.639459,0.654926
1470330607940658,-0.572313,0.595956,0.662098
1470330607962180,-0.564709,0.551549,0.665427
1470330607978704,-0.552468,0.507959,0.664946
1470330608001213,-0.536208,0.465625,0.663412
1470330608022229,-0.519083,0.426706,0.664945
1470330608038245,-0.509588,0.389873,0.668512
1470330608061264,-0.507525,0.355085,0.672148
1470330608082283,-0.50563,0.323674,0.675234
1470330608097797,-0.498342,0.295703,0.678402
1470330608120818,-0.48601,0.269695,0.68258
1470330608142337,-0.473279,0.245344,0.687066
1470330608158352,-0.46293,0.223163,0.690839
1470330608180875,-0.453057,0.202615,0.694161
1470330608201903,-0.442369,0.182124,0.69842
1470330608218406,-0.430485,0.162524,0.703461
1470330608240926,-0.419139,0.144183,0.70758
1470330608261970,-0.408592,0.126135,0.710539
1470330608277961,-0.397703,0.107178,0.713674
1470330608300981,-0.387433,0.0884159,0.716841
1470330608323500,-0.377199,0.0711131,0.718658
1470330608338013,-0.368769,0.0544879,0.7198
1470330608361034,-0.360521,0.037889,0.720747
1470330608383554,-0.348065,0.0227411,0.721656
1470330608397567,-0.334656,0.00779184,0.724368
1470330608421088,-0.335339,-0.00901135,0.724477
1470330608443607,-0.329912,-0.0248759,0.720029
1470330608466130,-0.31033,-0.0332207,0.716008
1470330608481145,-0.303605,-0.035876,0.71671
1470330608503666,-0.311417,-0.035094,0.719294
1470330608517674,-0.313507,-0.0337764,0.722023
1470330608541196,-0.306838,-0.0309464,0.723162
1470330608563217,-0.302311,-0.0279537,0.723688
1470330608577728,-0.300861,-0.025766,0.724293
1470330608601249,-0.300048,-0.02486,0.72526
1470330608623769,-0.297881,-0.0248885,0.726175
1470330608637783,-0.295511,-0.0258646,0.726562
1470330608660802,-0.2942,-0.0279354,0.726661
1470330608683323,-0.291738,-0.0304654,0.726622
1470330608697836,-0.289663,-0.0333858,0.72637
1470330608720860,-0.288448,-0.0361756,0.72579
1470330608743377,-0.287141,-0.0387386,0.725164
1470330608757890,-0.286459,-0.0411777,0.724701
1470330608780910,-0.286367,-0.0431029,0.724309
1470330608803462,-0.286788,-0.0438835,0.724194
1470330608817946,-0.287196,-0.0442667,0.724159
1470330608840965,-0.288366,-0.0442309,0.724114
1470330608863484,-0.289752,-0.0436884,0.724269
1470330608884505,-0.29103,-0.0431726,0.72456
1470330608901019,-0.291784,-0.042729,0.72466
1470330608923539,-0.291656,-0.0423739,0.724731
1470330608944559,-0.291292,-0.0421038,0.724789
1470330608961073,-0.290387,-0.0423813,0.725301
1470330608983599,-0.289695,-0.0432163,0.725898
1470330609004627,-0.288349,-0.0440317,0.726588
1470330609021159,-0.287049,-0.0442862,0.727309
1470330609043646,-0.285349,-0.044144,0.728207
1470330609064740,-0.284,-0.0438751,0.729127
1470330609081197,-0.282282,-0.043315,0.730217
1470330609103701,-0.280592,-0.0431241,0.731513
1470330609124719,-0.280372,-0.0433034,0.732859
1470330609141235,-0.279853,-0.0436483,0.734711
1470330609163754,-0.279814,-0.0437295,0.737235
1470330609184776,-0.282835,-0.0432118,0.741355
1470330609200792,-0.287731,-0.0403807,0.747254
1470330609223312,-0.291028,-0.0348935,0.756479
1470330609244827,-0.289008,-0.0245776,0.771225
1470330609260358,-0.278471,-0.0121836,0.791602
1470330609283405,-0.260261,0.00253296,0.81529
1470330609305882,-0.240552,0.0173732,0.844721
1470330609320395,-0.219108,0.0271008,0.878491
1470330609343415,-0.195859,0.0338838,0.915291
1470330609365936,-0.163803,0.0364781,0.955854
1470330609380451,-0.121227,0.0341816,0.998973
1470330609403472,-0.0721941,0.029042,1.0449
1470330609426010,-0.0253001,0.0206605,1.09206
1470330609440503,0.0136884,0.00891508,1.13989
1470330609463523,0.0451581,-0.00751326,1.18776
1470330609486044,0.0718662,-0.0255253,1.23355
1470330609500556,0.103058,-0.0402806,1.2763
1470330609523577,0.139125,-0.0524996,1.3164
1470330609546099,0.171641,-0.0629613,1.35406
1470330609567118,0.187791,-0.0762496,1.3906
1470330609583633,0.190775,-0.0887779,1.42436
1470330609606156,0.191591,-0.0973131,1.45308
1470330609627201,0.198888,-0.10242,1.47748
1470330609643690,0.210719,-0.105132,1.49832
1470330609666212,0.220687,-0.106215,1.51501
1470330609687225,0.224285,-0.106771,1.52849
1470330609703741,0.220791,-0.107771,1.53872
1470330609726260,0.214072,-0.109939,1.54619
1470330609747278,0.207468,-0.113714,1.55035
1470330609769798,0.202966,-0.117801,1.551
1470330609785813,0.200992,-0.122077,1.55022
1470330609807331,0.20038,-0.126022,1.54883
1470330609823348,0.198469,-0.130205,1.54705
1470330609845869,0.192972,-0.134208,1.54589
1470330609866919,0.192315,-0.137712,1.54525
1470330609883402,0.191488,-0.140159,1.54533
1470330609905925,0.189752,-0.14176,1.54559
1470330609926975,0.189941,-0.143352,1.5459
1470330609943487,0.191919,-0.144712,1.5466
1470330609965975,0.193945,-0.145673,1.54766
1470330609986994,0.196802,-0.146324,1.54909
1470330610003508,0.19908,-0.14762,1.55258
1470330610026030,0.20415,-0.148915,1.55598
1470330610047047,0.212396,-0.14913,1.55882
1470330610063564,0.212452,-0.146259,1.55962
1470330610086124,0.211432,-0.144893,1.56155
1470330610107114,0.216947,-0.144293,1.56229
1470330610123616,0.223579,-0.142027,1.56281
1470330610146136,0.226927,-0.138952,1.56168
1470330610167181,0.231666,-0.136964,1.56094
1470330610183672,0.235144,-0.135509,1.55961
1470330610206191,0.237057,-0.134352,1.55785
1470330610228710,0.239718,-0.133555,1.55698
1470330610243724,0.241915,-0.132362,1.55647
1470330610266244,0.241387,-0.131124,1.55633
1470330610288789,0.24206,-0.129917,1.55644
1470330610303819,0.244702,-0.128683,1.55701
1470330610326299,0.246366,-0.127699,1.55682
1470330610348819,0.248116,-0.127307,1.55642
1470330610363336,0.248283,-0.126807,1.55664
1470330610385852,0.248084,-0.126483,1.55682
1470330610408373,0.24788,-0.125988,1.55701
1470330610422886,0.247352,-0.124959,1.55722
1470330610445906,0.247757,-0.123823,1.55714
1470330610468425,0.248442,-0.12244,1.55727
1470330610482939,0.249385,-0.121478,1.55722
1470330610505959,0.250333,-0.120321,1.55701
1470330610528498,0.251439,-0.119574,1.55731
1470330610543015,0.251774,-0.118886,1.55738
1470330610566014,0.251836,-0.118149,1.55778
1470330610588536,0.252941,-0.117559,1.55789
1470330610602585,0.253556,-0.116936,1.5578
1470330610626067,0.253449,-0.116333,1.55784
1470330610648588,0.253435,-0.115661,1.55806
1470330610669630,0.253502,-0.114886,1.55812
1470330610686121,0.253843,-0.11437,1.55818
1470330610708641,0.254797,-0.113753,1.55812
1470330610723154,0.255213,-0.113329,1.55818
1470330610730186,0.255736,-0.112986,1.55824
1470330610751698,0.255645,-0.1129,1.55824
1470330610773721,0.255115,-0.112221,1.55842
1470330610790214,0.254833,-0.111462,1.55863
1470330610811803,0.25514,-0.110631,1.55889
1470330610833753,0.256526,-0.109951,1.55904
1470330610850268,0.257212,-0.109248,1.55897
1470330610871878,0.258253,-0.108545,1.55893
1470330610894309,0.259294,-0.107843,1.55889
1470330610910322,0.260426,-0.107226,1.55885
1470330610931871,0.260513,-0.10714,1.55886
1470330610953893,0.260513,-0.10714,1.55886
1470330610970424,0.261121,-0.106867,1.55875
1470330610998906,0.261121,-0.106867,1.55875
1470330611014000,0.261121,-0.106867,1.55875
1470330611030432,0.261121,-0.106867,1.55875
1470330611051451,0.26103,-0.106781,1.55875
1470330611073984,0.26103,-0.106781,1.55875
1470330611091985,0.26103,-0.106781,1.55875
1470330611111509,0.26103,-0.106781,1.55875
1470330611134027,0.260146,-0.106835,1.5592
1470330611152040,0.259244,-0.10705,1.55947
1470330611172624,0.258531,-0.107087,1.55976
1470330611194080,0.257644,-0.107296,1.56003
1470330611212094,0.256773,-0.107498,1.5603
1470330611231657,0.256773,-0.107498,1.5603
1470330611254157,0.256596,-0.107498,1.56028
1470330611271647,0.256596,-0.107498,1.56028
1470330611291665,0.256596,-0.107498,1.56028
1470330611314193,0.256505,-0.107412,1.56028
1470330611332202,0.256505,-0.107412,1.56028
1470330611351746,0.256505,-0.107412,1.56028
1470330611373738,0.255725,-0.107334,1.5604
1470330611392256,0.255634,-0.107248,1.5604
1470330611411774,0.255634,-0.107248,1.5604
1470330611433794,0.255634,-0.107248,1.5604
1470330611451810,0.255543,-0.107161,1.5604
1470330611471328,0.255543,-0.107161,1.5604
1470330611493846,0.254748,-0.10709,1.56053
1470330611511864,0.254657,-0.107004,1.56053
1470330611531393,0.255008,-0.106832,1.56056
1470330611553900,0.254917,-0.106746,1.56056
1470330611571917,0.255348,-0.106473,1.56044
1470330611591434,0.255958,-0.106044,1.56052
1470330611613955,0.255958,-0.106044,1.56052
1470330611631971,0.255958,-0.106044,1.56052
1470330611651487,0.255958,-0.106044,1.56052
1470330611674008,0.255781,-0.106044,1.56051
1470330611692024,0.255781,-0.106044,1.56051
1470330611711542,0.256227,-0.105765,1.56039
1470330611734063,0.256313,-0.105679,1.5604
1470330611752079,0.256222,-0.105593,1.5604
1470330611771595,0.256744,-0.105406,1.56028
1470330611794115,0.256744,-0.105406,1.56028
1470330611811632,0.257017,-0.105298,1.56013
1470330611833151,0.25729,-0.105191,1.55999
1470330611854169,0.258254,-0.104918,1.55991
1470330611871715,0.258254,-0.104918,1.55991
1470330611892705,0.258254,-0.104918,1.55991
1470330611914224,0.258254,-0.104918,1.55991
1470330611931739,0.258254,-0.104918,1.55991
1470330611954260,0.258163,-0.104832,1.55991
1470330611973778,0.258163,-0.104832,1.55991
1470330611991793,0.258163,-0.104832,1.55991
1470330612012813,0.258163,-0.104832,1.55991
1470330612033831,0.258072,-0.104746,1.55991
1470330612051860,0.258072,-0.104746,1.55991
1470330612072866,0.258072,-0.104746,1.55991
1470330612093884,0.257981,-0.10466,1.55991
1470330612111902,0.25878,-0.104537,1.55963
1470330612132920,0.258689,-0.104451,1.55963
1470330612153940,0.258689,-0.104451,1.55963
1470330612171955,0.259053,-0.104429,1.55948
1470330612194475,0.259762,-0.10422,1.55921
1470330612213993,0.260552,-0.104119,1.5591
1470330612232009,0.261159,-0.104002,1.55881
1470330612254530,0.261245,-0.103917,1.55882
1470330612274047,0.261154,-0.103831,1.55882
1470330612292063,0.261154,-0.103831,1.55882
1470330612314083,0.261154,-0.103831,1.55882
1470330612334100,0.261154,-0.103831,1.55882
1470330612352116,0.261154,-0.103831,1.55882
1470330612374637,0.261154,-0.103831,1.55882
