timestamp,x,y,z,w
1470330559008287,-0.181152,0.00323486,0.151855,0.971619
1470330559015793,-0.180969,0.00323486,0.151917,0.971619
1470330559031807,-0.180969,0.00323486,0.151917,0.971619
1470330559053327,-0.180969,0.00323486,0.151917,0.971619
1470330559077348,-0.181274,0.0032959,0.152039,0.971558
1470330559092362,-0.181274,0.0032959,0.152039,0.971558
1470330559113381,-0.181274,0.0032959,0.152039,0.971558
1470330559136901,-0.181274,0.0032959,0.152039,0.971558
1470330559183944,-0.181274,0.0032959,0.152039,0.971558
1470330559185946,-0.181335,0.0032959,0.152039,0.971558
1470330559197956,-0.181213,0.00335693,0.1521,0.971558
1470330559211970,-0.181213,0.00335693,0.1521,0.971558
1470330559233988,-0.181213,0.00335693,0.1521,0.971558
1470330559258511,-0.181274,0.00335693,0.1521,0.971558
1470330559286536,-0.181274,0.00335693,0.1521,0.971558
1470330559297045,-0.181274,0.00335693,0.1521,0.971558
1470330559316562,-0.181274,0.00335693,0.1521,0.971558
1470330559330575,-0.181274,0.00335693,0.1521,0.971558
1470330559353095,-0.181335,0.00335693,0.1521,0.971558
1470330559375617,-0.181335,0.00335693,0.1521,0.971558
1470330559390630,-0.181152,0.00341797,0.152161,0.971558
1470330559413151,-0.181152,0.00341797,0.152161,0.971558
1470330559435670,-0.181152,0.00341797,0.152161,0.971558
1470330559450683,-0.181152,0.00341797,0.1521,0.971558
1470330559473204,-0.181152,0.00341797,0.1521,0.971558
1470330559495724,-0.181152,0.00341797,0.1521,0.971558
1470330559510737,-0.181213,0.00341797,0.1521,0.971558
1470330559533258,-0.181213,0.00341797,0.1521,0.971558
1470330559555779,-0.181213,0.00341797,0.1521,0.971558
1470330559570792,-0.18103,0.00354004,0.152161,0.971619
1470330559593313,-0.18103,0.00354004,0.152161,0.971619
1470330559615832,-0.18103,0.00354004,0.152161,0.971619
1470330559630845,-0.181213,0.00354004,0.152161,0.971558
1470330559653365,-0.181213,0.00354004,0.152161,0.971558
1470330559678888,-0.18103,0.00360107,0.152222,0.971558
1470330559698406,-0.180847,0.00372314,0.152283,0.971619
1470330559713419,-0.180847,0.00372314,0.152283,0.971619
1470330559735939,-0.180847,0.00372314,0.152283,0.971619
1470330559750953,-0.180847,0.00372314,0.152283,0.971619
1470330559773473,-0.180847,0.00366211,0.152283,0.971619
1470330559795993,-0.180847,0.00366211,0.152283,0.971619
1470330559811007,-0.180908,0.00372314,0.152283,0.971619
1470330559833527,-0.180908,0.00372314,0.152283,0.971619
1470330559856047,-0.180908,0.00372314,0.152283,0.971619
1470330559871060,-0.180908,0.00372314,0.152283,0.971619
1470330559900588,-0.180908,0.00366211,0.152283,0.971619
1470330559915603,-0.181213,0.00372314,0.152283,0.971558
1470330559931115,-0.181213,0.00366211,0.152283,0.971558
1470330559953135,-0.181213,0.00366211,0.152283,0.971558
1470330559975654,-0.181213,0.00366211,0.152283,0.971558
1470330559992170,-0.181274,0.00366211,0.152283,0.971558
1470330560013190,-0.181274,0.00366211,0.152283,0.971558
1470330560035709,-0.181274,0.00372314,0.152283,0.971558
1470330560052224,-0.181274,0.00372314,0.152283,0.971558
1470330560073243,-0.181274,0.00372314,0.152283,0.971558
1470330560095763,-0.181274,0.00372314,0.152283,0.971558
1470330560112279,-0.181274,0.00366211,0.152283,0.971558
1470330560133297,-0.181274,0.00366211,0.152283,0.971558
1470330560155817,-0.181274,0.00372314,0.152283,0.971558
1470330560172331,-0.181274,0.00366211,0.152283,0.971558
1470330560193351,-0.181274,0.00366211,0.152283,0.971558
1470330560215870,-0.181335,0.00372314,0.152283,0.971558
1470330560232387,-0.181335,0.00366211,0.152222,0.971558
1470330560253403,-0.181335,0.00366211,0.152222,0.971497
1470330560275925,-0.181335,0.00366211,0.152222,0.971497
1470330560292939,-0.181335,0.00372314,0.152283,0.971497
1470330560315461,-0.181335,0.00372314,0.152283,0.971497
1470330560336479,-0.181335,0.00372314,0.152283,0.971497
1470330560352995,-0.181396,0.00372314,0.152283,0.971497
1470330560375514,-0.181396,0.00372314,0.152283,0.971497
1470330560396532,-0.181396,0.00372314,0.152283,0.971497
1470330560413049,-0.181335,0.00372314,0.152283,0.971497
1470330560435567,-0.181396,0.00372314,0.152283,0.971497
1470330560456586,-0.181213,0.00384521,0.152405,0.971558
1470330560472601,-0.181213,0.00384521,0.152405,0.971558
1470330560495121,-0.181213,0.00378418,0.152405,0.971558
1470330560516641,-0.181213,0.00378418,0.152405,0.971558
1470330560532656,-0.181213,0.00384521,0.152405,0.971558
1470330560555675,-0.181213,0.00378418,0.152405,0.971558
1470330560576694,-0.181213,0.00378418,0.152405,0.971558
1470330560592709,-0.181213,0.00378418,0.152405,0.971558
1470330560615229,-0.181213,0.00378418,0.152405,0.971497
1470330560636249,-0.181213,0.00378418,0.152405,0.971497
1470330560652765,-0.181274,0.00378418,0.152405,0.971497
1470330560675283,-0.181274,0.00378418,0.152405,0.971497
1470330560696306,-0.181274,0.00378418,0.152405,0.971497
1470330560712832,-0.181274,0.00378418,0.152405,0.971497
1470330560735341,-0.181274,0.00384521,0.152405,0.971497
1470330560756358,-0.181274,0.00384521,0.152405,0.971497
1470330560772875,-0.181335,0.00384521,0.152405,0.971497
1470330560795393,-0.181335,0.00384521,0.152405,0.971497
1470330560816409,-0.181335,0.00384521,0.152405,0.971497
1470330560832925,-0.181335,0.00384521,0.152405,0.971497
1470330560855446,-0.181335,0.00384521,0.152405,0.971497
1470330560876482,-0.181396,0.00384521,0.152405,0.971497
1470330560892978,-0.181396,0.00384521,0.152405,0.971497
1470330560915500,-0.181396,0.00384521,0.152405,0.971497
1470330560938019,-0.181396,0.00384521,0.152405,0.971497
1470330560953035,-0.181458,0.00384521,0.152405,0.971497
1470330560975553,-0.181458,0.00384521,0.152405,0.971497
1470330560998073,-0.181458,0.00384521,0.152405,0.971497
1470330561013129,-0.181458,0.00384521,0.152405,0.971497
1470330561035606,-0.181519,0.00384521,0.152405,0.971497
1470330561058127,-0.181519,0.00384521,0.152405,0.971497
1470330561072140,-0.181519,0.00384521,0.152405,0.971497
1470330561095164,-0.18158,0.00384521,0.152405,0.971497
1470330561117681,-0.18158,0.00384521,0.152405,0.971436
1470330561132197,-0.18158,0.00384521,0.152405,0.971436
1470330561155215,-0.18158,0.00384521,0.152405,0.971436
1470330561177735,-0.181824,0.00384521,0.152466,0.971436
1470330561192248,-0.181824,0.00384521,0.152466,0.971375
1470330561215270,-0.181824,0.00384521,0.152466,0.971375
1470330561237790,-0.181824,0.00384521,0.152466,0.971375
1470330561252302,-0.181885,0.00384521,0.152466,0.971375
1470330561275323,-0.181885,0.00384521,0.152466,0.971375
1470330561297842,-0.181885,0.00378418,0.152466,0.971375
1470330561312355,-0.181946,0.00378418,0.152466,0.971375
1470330561335403,-0.181946,0.00378418,0.152405,0.971375
1470330561357896,-0.181946,0.00384521,0.152466,0.971375
1470330561372408,-0.181946,0.00384521,0.152466,0.971375
1470330561395430,-0.182007,0.00378418,0.152405,0.971375
1470330561417957,-0.182007,0.00378418,0.152405,0.971375
1470330561439015,-0.182007,0.00384521,0.152405,0.971375
1470330561455535,-0.182007,0.00378418,0.152405,0.971375
1470330561478046,-0.182068,0.00384521,0.152405,0.971375
1470330561499067,-0.182068,0.00384521,0.152405,0.971375
1470330561515549,-0.182068,0.00384521,0.152405,0.971375
1470330561538057,-0.182129,0.00384521,0.152405,0.971375
1470330561559077,-0.182129,0.00384521,0.152405,0.971375
1470330561575591,-0.182129,0.00384521,0.152405,0.971375
1470330561605618,-0.182129,0.00384521,0.152405,0.971375
1470330561619131,-0.18219,0.00384521,0.152466,0.971313
1470330561642669,-0.18219,0.00384521,0.152466,0.971313
1470330561657665,-0.18219,0.00384521,0.152466,0.971313
1470330561679237,-0.18219,0.00384521,0.152466,0.971313
1470330561695199,-0.182251,0.00390625,0.152466,0.971313
1470330561717719,-0.182251,0.00390625,0.152466,0.971313
1470330561739242,-0.182251,0.00390625,0.152466,0.971313
1470330561755253,-0.182251,0.00390625,0.152466,0.971313
1470330561777776,-0.182251,0.00390625,0.152466,0.971313
1470330561798792,-0.182312,0.00390625,0.152466,0.971313
1470330561815311,-0.182312,0.00396729,0.152466,0.971313
1470330561837827,-0.182312,0.00396729,0.152466,0.971313
1470330561860348,-0.182312,0.00396729,0.152466,0.971313
1470330561875361,-0.182373,0.00396729,0.152466,0.971313
1470330561897882,-0.182373,0.00396729,0.152466,0.971313
1470330561920401,-0.182373,0.00396729,0.152466,0.971313
1470330561935418,-0.182373,0.00396729,0.152466,0.971313
1470330561957968,-0.182373,0.00396729,0.152466,0.971313
1470330561980457,-0.182373,0.00396729,0.152466,0.971313
1470330562002977,-0.182373,0.00396729,0.152466,0.971313
1470330562018018,-0.182434,0.00402832,0.152466,0.971313
1470330562040509,-0.182434,0.00402832,0.152466,0.971313
1470330562055023,-0.182434,0.00402832,0.152466,0.971313
1470330562078042,-0.182495,0.00402832,0.152466,0.971252
1470330562100563,-0.182495,0.00402832,0.152466,0.971252
1470330562114576,-0.182495,0.00402832,0.152466,0.971252
1470330562137644,-0.182495,0.00408936,0.152466,0.971252
1470330562160617,-0.182495,0.00408936,0.152466,0.971252
1470330562174630,-0.182556,0.00408936,0.152466,0.971252
1470330562197654,-0.182556,0.00408936,0.152466,0.971252
1470330562220170,-0.182556,0.00408936,0.152466,0.971252
1470330562234687,-0.182556,0.00415039,0.152466,0.971252
1470330562257704,-0.182556,0.00415039,0.152466,0.971252
1470330562280224,-0.182617,0.00415039,0.152466,0.971252
1470330562294737,-0.182617,0.00415039,0.152466,0.971252
1470330562317761,-0.182617,0.00415039,0.152466,0.971252
1470330562340278,-0.182678,0.00415039,0.152466,0.971252
1470330562361298,-0.182678,0.00421143,0.152466,0.971252
1470330562377811,-0.182678,0.00421143,0.152466,0.971252
1470330562400332,-0.182739,0.00421143,0.152466,0.971252
1470330562421353,-0.182739,0.00421143,0.152466,0.971252
1470330562437866,-0.182739,0.00421143,0.152466,0.971252
1470330562460405,-0.1828,0.00427246,0.152466,0.971191
1470330562481409,-0.1828,0.00427246,0.152466,0.971191
1470330562497919,-0.1828,0.00427246,0.152466,0.971191
1470330562520439,-0.1828,0.00427246,0.152466,0.971191
1470330562541491,-0.182861,0.00427246,0.152466,0.971191
1470330562557976,-0.182861,0.00427246,0.152466,0.971191
1470330562580495,-0.182861,0.00427246,0.152466,0.971191
1470330562609050,-0.182861,0.00427246,0.152466,0.971191
1470330562618045,-0.182861,0.0043335,0.152527,0.971191
1470330562640547,-0.182861,0.0043335,0.152527,0.971191
1470330562661632,-0.182922,0.0043335,0.152466,0.971191
1470330562678081,-0.182983,0.0043335,0.152466,0.971191
1470330562700603,-0.182983,0.0043335,0.152466,0.971191
1470330562721620,-0.182983,0.0043335,0.152527,0.971191
1470330562737670,-0.182983,0.0043335,0.152527,0.971191
1470330562760155,-0.182983,0.0043335,0.152527,0.971191
1470330562781776,-0.183044,0.00439453,0.152527,0.971191
1470330562797690,-0.183044,0.00439453,0.152527,0.971191
1470330562820211,-0.183044,0.00439453,0.152527,0.97113
1470330562842732,-0.183105,0.00439453,0.152527,0.97113
1470330562857742,-0.183105,0.00439453,0.152527,0.97113
1470330562880276,-0.183105,0.00439453,0.152527,0.97113
1470330562910290,-0.183105,0.00445557,0.152527,0.97113
1470330562923845,-0.183167,0.00445557,0.152527,0.97113
1470330562940317,-0.183167,0.00445557,0.152527,0.97113
1470330562962841,-0.183167,0.00445557,0.152527,0.97113
1470330562977350,-0.183167,0.00445557,0.152527,0.97113
1470330563000374,-0.183228,0.0045166,0.152527,0.97113
1470330563022893,-0.183228,0.0045166,0.152527,0.97113
1470330563037404,-0.183228,0.0045166,0.152527,0.97113
1470330563060425,-0.183289,0.0045166,0.152527,0.97113
1470330563082946,-0.183289,0.00457764,0.152527,0.97113
1470330563097458,-0.183289,0.00457764,0.152527,0.97113
1470330563120479,-0.183289,0.00457764,0.152527,0.97113
1470330563143000,-0.18335,0.00457764,0.152527,0.97113
1470330563157013,-0.18335,0.00457764,0.152527,0.97113
1470330563180532,-0.18335,0.00457764,0.152527,0.971069
1470330563203053,-0.18335,0.00463867,0.152527,0.971069
1470330563217115,-0.183411,0.00463867,0.152527,0.971069
1470330563240631,-0.183411,0.00463867,0.152527,0.971069
1470330563270613,-0.183472,0.00463867,0.152527,0.971069
1470330563277119,-0.183472,0.00469971,0.152527,0.971069
1470330563306669,-0.183472,0.00469971,0.152527,0.971069
1470330563322684,-0.183472,0.00469971,0.152527,0.971069
1470330563344179,-0.183472,0.00469971,0.152527,0.971069
1470330563360193,-0.183472,0.00469971,0.152527,0.971069
1470330563382714,-0.183472,0.00476074,0.152527,0.971069
1470330563404232,-0.183777,0.00482178,0.152527,0.971008
1470330563420248,-0.184265,0.00494385,0.152466,0.970947
1470330563442770,-0.184631,0.00518799,0.152344,0.970886
1470330563463792,-0.184692,0.00549316,0.152222,0.970886
1470330563480302,-0.184692,0.0055542,0.152283,0.970886
1470330563502859,-0.184692,0.0055542,0.152283,0.970886
1470330563523896,-0.184875,0.00561523,0.152344,0.970825
1470330563540401,-0.184875,0.00567627,0.152344,0.970825
1470330563562877,-0.184692,0.00585938,0.152344,0.970886
1470330563583919,-0.184387,0.00610352,0.152405,0.970886
1470330563600410,-0.184387,0.00610352,0.152405,0.970886
1470330563622930,-0.184448,0.00610352,0.152405,0.970886
1470330563643974,-0.184448,0.00610352,0.152405,0.970886
1470330563660471,-0.184937,0.00610352,0.152283,0.970825
1470330563683037,-0.185913,0.00579834,0.151978,0.970703
1470330563704022,-0.187561,0.00524902,0.15155,0.970459
1470330563720517,-0.190063,0.00463867,0.151184,0.970032
1470330563743038,-0.192627,0.00408936,0.150818,0.969543
1470330563765557,-0.194641,0.00378418,0.150635,0.969238
1470330563780571,-0.196045,0.00354004,0.150513,0.968933
1470330563803091,-0.197693,0.00305176,0.150635,0.968567
1470330563825112,-0.199585,0.00219727,0.150818,0.968201
1470330563840124,-0.201965,0.0010376,0.151184,0.967651
1470330563862644,-0.204529,-6.10352e-05,0.151794,0.96698
1470330563885165,-0.206055,-0.000793457,0.152344,0.966553
1470330563899678,-0.206238,-0.000915527,0.152832,0.966431
1470330563922698,-0.205505,-0.000854492,0.153259,0.966553
1470330563945226,-0.204773,-0.000610352,0.153625,0.966675
1470330563959732,-0.204285,-0.000366211,0.153931,0.966675
1470330563982791,-0.203918,0,0.154175,0.966736
1470330564005273,-0.20343,0.000366211,0.154236,0.966858
1470330564019788,-0.202637,0.000793457,0.154236,0.96698
1470330564042842,-0.201965,0.0012207,0.154114,0.967163
1470330564065328,-0.201538,0.00146484,0.153931,0.967285
1470330564079842,-0.201355,0.00158691,0.153748,0.967346
1470330564110367,-0.20105,0.00170898,0.153564,0.967468
1470330564125399,-0.200623,0.00189209,0.15332,0.967529
1470330564139894,-0.200317,0.00213623,0.153137,0.967651
1470330564162915,-0.199829,0.00231934,0.152954,0.967773
1470330564185435,-0.199158,0.00268555,0.15271,0.967957
1470330564206458,-0.198547,0.00311279,0.152527,0.96814
1470330564222970,-0.197937,0.00341797,0.152344,0.968262
1470330564245489,-0.197388,0.00360107,0.1521,0.968384
1470330564266507,-0.196838,0.00366211,0.151917,0.968567
1470330564283023,-0.196167,0.00384521,0.151733,0.96875
1470330564305542,-0.195435,0.00390625,0.151672,0.968872
1470330564326561,-0.194702,0.00402832,0.151733,0.969055
1470330564342587,-0.194092,0.00415039,0.151733,0.969116
1470330564365621,-0.193542,0.00415039,0.151794,0.969238
1470330564387116,-0.193054,0.00402832,0.151855,0.969299
1470330564403130,-0.192688,0.00396729,0.151855,0.969421
1470330564425650,-0.192322,0.00396729,0.151917,0.969482
1470330564446668,-0.192017,0.00390625,0.151978,0.969482
1470330564462684,-0.191895,0.00390625,0.152039,0.969543
1470330564485203,-0.191956,0.00390625,0.152039,0.969543
1470330564506723,-0.191956,0.00390625,0.152039,0.969543
1470330564522737,-0.191956,0.00390625,0.152039,0.969543
1470330564545262,-0.191956,0.00396729,0.152039,0.969543
1470330564566293,-0.191956,0.00396729,0.152039,0.969543
1470330564582825,-0.1922,0.00396729,0.151978,0.969482
1470330564605362,-0.192566,0.00390625,0.151978,0.969421
1470330564626831,-0.193359,0.00366211,0.152039,0.969238
1470330564642847,-0.194275,0.00335693,0.152161,0.969055
1470330564665366,-0.195251,0.00286865,0.152283,0.968811
1470330564686385,-0.195923,0.00238037,0.152405,0.968689
1470330564702900,-0.195984,0.00238037,0.152405,0.968689
1470330564725421,-0.19574,0.00244141,0.152405,0.968689
1470330564747939,-0.195557,0.00262451,0.152405,0.96875
1470330564762955,-0.195557,0.00262451,0.152405,0.96875
1470330564785473,-0.195618,0.00292969,0.152344,0.96875
1470330564815500,-0.195618,0.00292969,0.152344,0.96875
1470330564829054,-0.195618,0.00292969,0.152344,0.96875
1470330564845528,-0.195801,0.00299072,0.152283,0.968689
1470330564868087,-0.196289,0.00286865,0.152283,0.968628
1470330564882060,-0.197205,0.00262451,0.152344,0.968445
1470330564905081,-0.198547,0.00183105,0.152588,0.968079
1470330564928101,-0.200867,0.000305176,0.153076,0.967529
1470330564942114,-0.20459,-0.00201416,0.153687,0.966675
1470330564965135,-0.210327,-0.00476074,0.153992,0.965393
1470330564988155,-0.216675,-0.0065918,0.153809,0.963989
1470330565009195,-0.221069,-0.00683594,0.154297,0.962952
1470330565025188,-0.223816,-0.00543213,0.15564,0.962097
1470330565047750,-0.226135,-0.00274658,0.157715,0.961243
1470330565069228,-0.229309,0.0012207,0.160645,0.959961
1470330565085271,-0.233826,0.00665283,0.164795,0.958191
1470330565107764,-0.23822,0.0133057,0.169861,0.956116
1470330565129283,-0.242126,0.0216064,0.17627,0.953857
1470330565145296,-0.245483,0.0318604,0.183777,0.951233
1470330565167818,-0.24939,0.0439453,0.192383,0.948059
1470330565188836,-0.25415,0.0570068,0.201904,0.944092
1470330565205351,-0.258484,0.0717163,0.212402,0.939636
1470330565227871,-0.262085,0.0873413,0.223206,0.934753
1470330565248932,-0.265137,0.104248,0.234436,0.929443
1470330565265404,-0.267761,0.122009,0.245911,0.923523
1470330565287925,-0.270386,0.140076,0.257629,0.916992
1470330565308972,-0.272949,0.15802,0.269165,0.909912
1470330565325474,-0.275757,0.175781,0.280579,0.902344
1470330565347978,-0.278992,0.193237,0.29187,0.894165
1470330565353513,-0.282532,0.210266,0.303101,0.885437
1470330565376066,-0.286255,0.226685,0.314026,0.876343
1470330565391053,-0.290283,0.241943,0.324524,0.867065
1470330565413608,-0.294861,0.256104,0.334778,0.857544
1470330565438604,-0.299805,0.269775,0.344238,0.847778
1470330565461624,-0.30426,0.283386,0.353027,0.838074
1470330565473603,-0.308899,0.296204,0.361328,0.828369
1470330565496111,-0.313965,0.307617,0.369202,0.818787
1470330565511154,-0.319153,0.318298,0.376648,0.809265
1470330565536153,-0.324097,0.328125,0.383972,0.799866
1470330565557166,-0.329529,0.337036,0.390869,0.790588
1470330565570692,-0.335632,0.34552,0.397095,0.781189
1470330565593200,-0.342285,0.353821,0.403076,0.771484
1470330565615718,-0.349426,0.360229,0.408752,0.762268
1470330565631237,-0.357117,0.36731,0.413208,0.752808
1470330565660774,-0.362671,0.372803,0.417786,0.744934
1470330565676283,-0.370361,0.38031,0.420349,0.735779
1470330565691791,-0.375183,0.383057,0.424927,0.729248
1470330565713809,-0.381714,0.388428,0.427124,0.721741
1470330565735861,-0.387268,0.392883,0.429138,0.715149
1470330565753843,-0.392578,0.396667,0.43042,0.709412
1470330565773362,-0.397827,0.399719,0.431458,0.704102
1470330565795883,-0.403137,0.402039,0.433044,0.69873
1470330565810912,-0.40863,0.403381,0.435181,0.69342
1470330565840937,-0.413818,0.404602,0.436768,0.68866
1470330565855939,-0.417969,0.406372,0.437256,0.684753
1470330565870949,-0.421326,0.408203,0.437744,0.681274
1470330565893468,-0.424133,0.409424,0.438477,0.678345
1470330565925035,-0.427002,0.40979,0.439087,0.675964
1470330565931001,-0.429565,0.409912,0.439392,0.674011
1470330565961040,-0.431763,0.409973,0.439636,0.672424
1470330565976042,-0.433533,0.40918,0.440186,0.671448
1470330565991055,-0.433289,0.411072,0.440796,0.669983
1470330566013576,-0.434265,0.414307,0.441589,0.66687
1470330566036115,-0.43512,0.413086,0.442444,0.666443
1470330566051111,-0.434875,0.413086,0.442444,0.666626
1470330566073641,-0.434204,0.414917,0.441833,0.666382
1470330566097151,-0.434631,0.416138,0.441711,0.665405
1470330566111269,-0.435974,0.416809,0.441467,0.664246
1470330566133213,-0.437073,0.417114,0.441101,0.663574
1470330566156204,-0.437805,0.417542,0.440125,0.663452
1470330566170772,-0.437988,0.41748,0.438965,0.664185
1470330566193272,-0.437866,0.418152,0.437683,0.664673
1470330566215772,-0.437805,0.418274,0.436707,0.665283
1470330566232272,-0.437378,0.418823,0.436157,0.665527
1470330566253291,-0.437012,0.41925,0.435852,0.66571
1470330566275813,-0.436462,0.419434,0.435913,0.665955
1470330566292329,-0.436157,0.419434,0.435791,0.66626
1470330566313400,-0.435791,0.419556,0.435486,0.666626
1470330566335869,-0.435425,0.419922,0.435059,0.66687
1470330566352411,-0.43512,0.420532,0.434631,0.666992
1470330566373425,-0.434692,0.421509,0.434204,0.666931
1470330566395963,-0.434265,0.422668,0.433838,0.666687
1470330566412434,-0.433899,0.424011,0.433594,0.66626
1470330566433454,-0.433777,0.425293,0.433289,0.66571
1470330566455973,-0.433533,0.426697,0.432983,0.665161
1470330566471987,-0.433228,0.428101,0.432556,0.664734
1470330566493507,-0.433044,0.429199,0.432251,0.664368
1470330566516058,-0.4328,0.430359,0.431946,0.66394
1470330566534162,-0.432556,0.43158,0.431702,0.663513
1470330566553580,-0.43219,0.432556,0.431519,0.663208
1470330566576081,-0.432007,0.433167,0.431519,0.662903
1470330566594097,-0.431763,0.433533,0.431824,0.662659
1470330566613614,-0.431396,0.433594,0.432312,0.662537
1470330566636135,-0.430969,0.433533,0.433105,0.662354
1470330566653651,-0.430542,0.433472,0.43396,0.662109
1470330566673173,-0.429993,0.433594,0.434631,0.661926
1470330566696198,-0.429504,0.433716,0.435242,0.661743
1470330566721212,-0.429016,0.433899,0.435547,0.661743
1470330566733223,-0.428711,0.434021,0.435669,0.661743
1470330566755745,-0.428711,0.434021,0.435669,0.661743
1470330566773825,-0.428589,0.434204,0.435547,0.661804
1470330566793294,-0.428406,0.434631,0.435486,0.661682
1470330566815806,-0.428223,0.43512,0.435425,0.661499
1470330566841319,-0.428223,0.43573,0.43512,0.661316
1470330566853344,-0.428223,0.436523,0.43457,0.661194
1470330566875881,-0.428162,0.437683,0.433716,0.661011
1470330566893946,-0.428101,0.438904,0.4328,0.660828
1470330566913384,-0.428223,0.440186,0.431824,0.660522
1470330566935905,-0.428528,0.441223,0.430786,0.660339
1470330566953920,-0.428894,0.442017,0.429626,0.660278
1470330566973537,-0.429321,0.442566,0.42865,0.660339
1470330566995991,-0.429565,0.442993,0.427734,0.660461
1470330567014015,-0.429749,0.44342,0.426941,0.660583
1470330567035002,-0.429871,0.443481,0.426208,0.660889
1470330567056012,-0.430176,0.443237,0.42572,0.661194
1470330567073529,-0.430603,0.442932,0.425354,0.661377
1470330567093546,-0.430786,0.442749,0.425049,0.66156
1470330567116066,-0.430847,0.442505,0.424744,0.661865
1470330567134082,-0.430969,0.442383,0.4245,0.662048
1470330567156102,-0.43103,0.442017,0.424377,0.662292
1470330567176119,-0.43103,0.441711,0.424316,0.662598
1470330567194143,-0.430908,0.441406,0.424377,0.662781
1470330567220702,-0.430725,0.441223,0.424438,0.662964
1470330567236210,-0.430542,0.441101,0.4245,0.663208
1470330567253705,-0.430298,0.440918,0.424622,0.663391
1470330567276211,-0.430054,0.440674,0.424805,0.663513
1470330567295761,-0.429932,0.440247,0.42511,0.663757
1470330567313773,-0.429688,0.439758,0.425598,0.66394
1470330567334764,-0.429443,0.439392,0.425903,0.664124
1470330567355782,-0.429138,0.439209,0.426208,0.664246
1470330567373836,-0.428772,0.439026,0.426514,0.664368
1470330567394816,-0.428406,0.439026,0.42688,0.664429
1470330567415835,-0.428162,0.438843,0.427185,0.66449
1470330567433854,-0.427917,0.438843,0.427429,0.66449
1470330567454870,-0.427551,0.438843,0.427795,0.66449
1470330567475948,-0.427307,0.438843,0.428162,0.664429
1470330567493905,-0.427002,0.438843,0.428589,0.664368
1470330567514924,-0.426697,0.438965,0.429016,0.664185
1470330567535961,-0.426392,0.438904,0.429443,0.664124
1470330567554058,-0.42627,0.438904,0.429749,0.664001
1470330567576588,-0.426208,0.43866,0.430054,0.664001
1470330567596058,-0.426147,0.438538,0.430237,0.664001
1470330567614113,-0.426025,0.43866,0.43042,0.663879
1470330567636614,-0.425903,0.438721,0.430603,0.663818
1470330567656052,-0.425781,0.438843,0.430725,0.663696
1470330567674067,-0.425781,0.438843,0.430725,0.663696
1470330567696088,-0.425781,0.438843,0.430725,0.663696
1470330567716105,-0.425781,0.438843,0.430786,0.663696
1470330567734121,-0.425781,0.438843,0.430786,0.663696
1470330567756155,-0.425781,0.438904,0.430786,0.663696
1470330567776159,-0.425781,0.438904,0.430786,0.663696
1470330567794237,-0.425781,0.438904,0.430786,0.663635
1470330567816195,-0.425781,0.438904,0.430786,0.663635
1470330567836716,-0.425659,0.438721,0.430786,0.663879
1470330567853235,-0.425537,0.438354,0.430847,0.664124
1470330567881814,-0.425476,0.437866,0.43103,0.664368
1470330567896842,-0.425415,0.437317,0.431335,0.664551
1470330567912802,-0.425293,0.436829,0.431641,0.664734
1470330567935303,-0.425232,0.43634,0.431763,0.665039
1470330567956321,-0.425049,0.435974,0.431824,0.665344
1470330567972835,-0.424866,0.43573,0.431824,0.665649
1470330567995355,-0.424744,0.435486,0.431946,0.665833
1470330568016879,-0.424622,0.435303,0.432007,0.665955
1470330568032889,-0.4245,0.43512,0.43219,0.666077
1470330568055410,-0.424316,0.434937,0.432312,0.666199
1470330568076429,-0.424072,0.434692,0.432617,0.666321
1470330568092947,-0.423706,0.434265,0.433228,0.666443
1470330568115494,-0.423096,0.433716,0.434143,0.666565
1470330568136528,-0.422363,0.4328,0.435486,0.666748
1470330568152998,-0.421509,0.431396,0.437317,0.667053
1470330568175518,-0.420593,0.429504,0.439575,0.667358
1470330568196579,-0.419617,0.427124,0.442322,0.667664
1470330568213053,-0.418335,0.424072,0.445557,0.668274
1470330568235572,-0.41687,0.420471,0.44928,0.668945
1470330568256633,-0.415161,0.41626,0.453552,0.6698
1470330568273107,-0.412903,0.411682,0.458191,0.670776
1470330568303139,-0.410156,0.406799,0.463379,0.671936
1470330568318145,-0.406921,0.401184,0.469177,0.673279
1470330568333172,-0.403564,0.394836,0.475586,0.6745
1470330568355679,-0.399841,0.387756,0.482544,0.675903
1470330568376698,-0.395752,0.380188,0.489929,0.677307
1470330568392712,-0.391113,0.372192,0.497681,0.678833
1470330568415734,-0.385742,0.363831,0.505737,0.68042
1470330568436802,-0.3797,0.354675,0.514038,0.682434
1470330568452298,-0.373291,0.345093,0.522461,0.684448
1470330568475288,-0.366699,0.334961,0.531311,0.686218
1470330568505318,-0.359131,0.324158,0.540833,0.688049
1470330568512320,-0.350891,0.312988,0.550659,0.689697
1470330568535341,-0.341858,0.301819,0.560608,0.691101
1470330568557860,-0.331787,0.291077,0.570679,0.692383
1470330568580381,-0.32074,0.28009,0.581482,0.693176
1470330568595428,-0.309143,0.268066,0.592712,0.693665
1470330568617915,-0.29718,0.255798,0.603943,0.693848
1470330568632429,-0.284485,0.243958,0.615356,0.69342
1470330568655448,-0.270935,0.232605,0.626648,0.692627
1470330568677968,-0.256531,0.221436,0.637451,0.691895
1470330568692481,-0.241638,0.21051,0.647705,0.691162
1470330568715503,-0.226807,0.199646,0.657776,0.689941
1470330568738023,-0.21228,0.18866,0.667847,0.687988
1470330568759071,-0.198914,0.177307,0.677795,0.685242
1470330568783099,-0.186157,0.166504,0.686829,0.682495
1470330568798076,-0.173401,0.156555,0.694946,0.679993
1470330568819126,-0.160339,0.147949,0.702393,0.67749
1470330568835610,-0.148071,0.139771,0.709656,0.674438
1470330568858135,-0.136963,0.131897,0.716553,0.671021
1470330568879148,-0.126587,0.124023,0.7229,0.667786
1470330568895663,-0.116882,0.116882,0.728149,0.6651
1470330568917715,-0.107605,0.111328,0.732544,0.662842
1470330568939202,-0.098877,0.107117,0.736023,0.661011
1470330568955218,-0.0907593,0.103149,0.738892,0.659607
1470330568977747,-0.0830688,0.0980225,0.74176,0.658142
1470330568999346,-0.0760498,0.0912476,0.744751,0.656616
1470330569015774,-0.0692749,0.083374,0.74762,0.655151
1470330569037792,-0.0622559,0.0757446,0.750183,0.65387
1470330569059334,-0.0551758,0.0697021,0.752197,0.652832
1470330569075325,-0.0484009,0.0650635,0.753784,0.652039
1470330569097847,-0.0422974,0.0609741,0.755249,0.651184
1470330569118895,-0.0367432,0.0568237,0.756714,0.650146
1470330569135381,-0.0316772,0.0527344,0.758667,0.648499
1470330569157899,-0.0270996,0.048584,0.76123,0.645996
1470330569178946,-0.0224609,0.0454102,0.763062,0.644287
1470330569195433,-0.0175171,0.0436401,0.764404,0.642944
1470330569217966,-0.0123901,0.0426636,0.765991,0.641235
1470330569238972,-0.00762939,0.0411987,0.7677,0.639343
1470330569255487,-0.00292969,0.0394897,0.769653,0.637207
1470330569278007,0.00170898,0.0377808,0.771484,0.63501
1470330569299026,0.00634766,0.0360718,0.773193,0.633057
1470330569315540,0.00939941,0.0338135,0.773743,0.632507
1470330569338061,0.0130615,0.0302124,0.774658,0.631409
1470330569359113,0.0163574,0.0267944,0.775696,0.630249
1470330569374594,0.0197754,0.0255127,0.775879,0.629944
1470330569398153,0.0236816,0.0258789,0.77594,0.629761
1470330569419167,0.0266724,0.0264893,0.775635,0.630005
1470330569434681,0.0274048,0.024353,0.775085,0.630737
1470330569458179,0.0269775,0.0205688,0.774658,0.631409
1470330569480707,0.0272217,0.0183716,0.77417,0.632019
1470330569494704,0.0281982,0.017334,0.773865,0.632385
1470330569517722,0.0291138,0.0161743,0.773621,0.63269
1470330569540245,0.0299683,0.0145874,0.773376,0.632996
1470330569555261,0.031311,0.0143433,0.773132,0.633301
1470330569577778,0.0327148,0.0140991,0.772583,0.63385
1470330569600822,0.0333252,0.0130615,0.772278,0.634216
1470330569614809,0.0331421,0.0119629,0.772156,0.634338
1470330569637830,0.0332031,0.0114136,0.772278,0.634277
1470330569660350,0.0338745,0.012207,0.7724,0.634094
1470330569674863,0.0360107,0.0147705,0.772156,0.634155
1470330569697886,0.0389404,0.0181274,0.771667,0.63446
1470330569720404,0.041687,0.020752,0.771179,0.634827
1470330569741423,0.0437012,0.0219727,0.770874,0.635071
1470330569757940,0.0452271,0.0220947,0.770569,0.635315
1470330569780467,0.0466309,0.0219727,0.770386,0.635437
1470330569794971,0.0482788,0.0222168,0.770142,0.635559
1470330569817992,0.0501099,0.0227661,0.769958,0.635681
1470330569840525,0.0515137,0.0230713,0.769775,0.635742
1470330569855025,0.0524902,0.0231934,0.769653,0.635803
1470330569878047,0.0533447,0.0234985,0.76947,0.635925
1470330569900567,0.0541992,0.0238647,0.769348,0.636047
1470330569915079,0.0552368,0.0240479,0.769226,0.636108
1470330569938101,0.0563965,0.0241699,0.769165,0.635986
1470330569960620,0.0574951,0.0240479,0.769165,0.635925
1470330569981639,0.0585938,0.0237427,0.769104,0.635864
1470330569998154,0.0596924,0.0233765,0.769226,0.63562
1470330570020674,0.0603027,0.0222778,0.769653,0.635132
1470330570041725,0.0608521,0.0206909,0.770081,0.634644
1470330570057707,0.0615845,0.0194092,0.770325,0.634277
1470330570080227,0.0625,0.0189209,0.770569,0.633911
1470330570101253,0.0633545,0.0188599,0.770752,0.633606
1470330570117761,0.0640259,0.0186768,0.770935,0.633362
1470330570140282,0.0647583,0.0183716,0.770996,0.633179
1470330570161313,0.0656738,0.0185547,0.770935,0.633179
1470330570177815,0.0667114,0.019104,0.770813,0.63324
1470330570207842,0.0675659,0.0196533,0.770691,0.633301
1470330570221354,0.0680542,0.0202026,0.77063,0.63324
1470330570245376,0.0680542,0.0202026,0.77063,0.63324
1470330570260389,0.0679321,0.0200195,0.770691,0.633179
1470330570281409,0.0679932,0.0198364,0.770752,0.633118
1470330570297922,0.0681763,0.0196533,0.770813,0.633057
1470330570320447,0.0682983,0.0194702,0.770813,0.632996
1470330570341974,0.0684814,0.0194092,0.770874,0.632935
1470330570357979,0.0684204,0.0194092,0.770874,0.632935
1470330570380499,0.0685425,0.0194702,0.770813,0.632935
1470330570403016,0.0686035,0.0196533,0.770752,0.633057
1470330570418031,0.0687866,0.0200806,0.770691,0.633057
1470330570440551,0.0689697,0.0205688,0.77063,0.633118
1470330570463071,0.0689087,0.0206299,0.77063,0.633118
1470330570478087,0.0689087,0.0206299,0.77063,0.633118
1470330570500605,0.0689697,0.020813,0.770569,0.633179
1470330570523124,0.0691528,0.0210571,0.770508,0.63324
1470330570537142,0.0692139,0.0213623,0.770569,0.633179
1470330570560658,0.0692139,0.0214233,0.770508,0.633179
1470330570582696,0.0692139,0.0214233,0.770508,0.633179
1470330570597224,0.0692139,0.0214233,0.770508,0.633179
1470330570620713,0.0691528,0.0214233,0.770508,0.633179
1470330570642743,0.0691528,0.0214844,0.770508,0.633179
1470330570657245,0.0690918,0.0214844,0.770508,0.633179
1470330570680266,0.0690918,0.0214844,0.770569,0.633179
1470330570702820,0.0690308,0.0214844,0.770569,0.633179
1470330570717299,0.0690308,0.0214844,0.770569,0.633179
1470330570740341,0.0690308,0.0214844,0.770569,0.633179
1470330570762840,0.0689697,0.0215454,0.770569,0.63324
1470330570777354,0.0689697,0.0215454,0.770569,0.63324
1470330570800384,0.0689697,0.0215454,0.770569,0.63324
1470330570822894,0.0689087,0.0215454,0.770569,0.63324
1470330570837421,0.0689087,0.0215454,0.770569,0.63324
1470330570860427,0.0689087,0.0216064,0.770569,0.63324
1470330570882948,0.0688477,0.0216064,0.770569,0.63324
1470330570904503,0.0688477,0.0216064,0.770569,0.63324
1470330570920501,0.0687866,0.0216064,0.770569,0.63324
1470330570943014,0.0687866,0.0216064,0.770569,0.63324
1470330570964033,0.0687866,0.0216064,0.770569,0.63324
1470330570980548,0.0687256,0.0216064,0.770569,0.63324
1470330571003068,0.0687256,0.0216675,0.770569,0.63324
1470330571024118,0.0687256,0.0217285,0.770569,0.63324
1470330571040638,0.0687256,0.0217285,0.770508,0.63324
1470330571063133,0.0684204,0.0214844,0.770569,0.63324
1470330571084205,0.0681152,0.0211182,0.77063,0.633179
1470330571100659,0.0681152,0.0211182,0.77063,0.633179
1470330571123175,0.0681152,0.0211182,0.77063,0.633179
1470330571144240,0.0678711,0.0210571,0.77063,0.633179
1470330571160209,0.067627,0.020813,0.77063,0.63324
1470330571182729,0.067627,0.020813,0.77063,0.63324
1470330571203748,0.067749,0.0209961,0.770569,0.633362
1470330571220763,0.0678711,0.0213013,0.770447,0.633423
1470330571242831,0.0678711,0.0213013,0.770447,0.633423
1470330571263804,0.0678101,0.0213623,0.770447,0.633423
1470330571280317,0.0678101,0.0213623,0.770447,0.633423
1470330571302837,0.0678101,0.0213623,0.770447,0.633423
1470330571325418,0.0678101,0.0214233,0.770447,0.633423
1470330571340379,0.0678101,0.0214233,0.770447,0.633423
1470330571362910,0.0678101,0.0214233,0.770447,0.633484
1470330571385412,0.0678101,0.0214844,0.770447,0.633484
1470330571400426,0.0678101,0.0214844,0.770447,0.633484
1470330571422946,0.0678101,0.0214844,0.770447,0.633484
1470330571445465,0.0675659,0.0213013,0.770508,0.633423
1470330571460480,0.0674438,0.0211182,0.770508,0.633423
1470330571489504,0.0673828,0.0211182,0.770508,0.633423
1470330571505519,0.0673828,0.0210571,0.770508,0.633423
1470330571520032,0.0673828,0.0210571,0.770508,0.633423
1470330571543053,0.0673828,0.0211182,0.770508,0.633423
1470330571565573,0.0673828,0.0211182,0.770508,0.633423
1470330571580118,0.0673218,0.0211792,0.770508,0.633423
1470330571603108,0.0673218,0.0211792,0.770508,0.633423
1470330571625626,0.0673218,0.0211792,0.770508,0.633423
1470330571640141,0.0673218,0.0211792,0.770508,0.633423
1470330571663160,0.0672607,0.0211792,0.770508,0.633423
1470330571685681,0.0672607,0.0211792,0.770508,0.633423
1470330571699693,0.0672607,0.0211792,0.770508,0.633423
1470330571723215,0.0672607,0.0212402,0.770508,0.633423
1470330571745235,0.0672607,0.0212402,0.770508,0.633423
1470330571759747,0.0672607,0.0212402,0.770508,0.633423
1470330571783269,0.0671997,0.0212402,0.770508,0.633423
1470330571805289,0.0671997,0.0212402,0.770508,0.633423
1470330571826808,0.0671997,0.0212402,0.770508,0.633423
1470330571843323,0.0671997,0.0212402,0.770508,0.633423
1470330571865342,0.0671997,0.0212402,0.770508,0.633423
1470330571886886,0.0671387,0.0212402,0.770508,0.633423
1470330571902876,0.0671387,0.0212402,0.770508,0.633423
1470330571925399,0.0671387,0.0212402,0.770508,0.633423
1470330571946915,0.0671387,0.0213013,0.770508,0.633484
1470330571962930,0.0670166,0.0211792,0.770569,0.633423
1470330571985450,0.0668335,0.0209961,0.770569,0.633362
1470330572006970,0.0667725,0.0209351,0.77063,0.633362
1470330572022984,0.0667725,0.0209351,0.77063,0.633362
1470330572045539,0.0667725,0.0209351,0.77063,0.633362
1470330572066552,0.0667725,0.0209351,0.77063,0.633362
1470330572083039,0.0667725,0.0209351,0.77063,0.633423
1470330572105559,0.0668945,0.0211792,0.770569,0.633423
1470330572126578,0.0670166,0.0215454,0.770508,0.633423
1470330572143092,0.0670166,0.0215454,0.770508,0.633484
1470330572165631,0.0668335,0.0213623,0.770508,0.633484
1470330572186633,0.0668335,0.0213623,0.770508,0.633484
1470330572203146,0.0669556,0.0216064,0.770447,0.633545
1470330572225669,0.0669556,0.0216064,0.770447,0.633545
1470330572246688,0.0668945,0.0216064,0.770447,0.633545
1470330572263199,0.0668335,0.0214233,0.770447,0.633545
1470330572285721,0.0668335,0.0214233,0.770447,0.633545
1470330572307740,0.0667725,0.0214233,0.770447,0.633545
1470330572322754,0.0667725,0.0211792,0.770447,0.633606
1470330572345773,0.0667114,0.0205078,0.770386,0.633667
1470330572367816,0.0666504,0.0195313,0.770325,0.633789
1470330572382807,0.0668945,0.0189209,0.770203,0.633911
1470330572405327,0.067627,0.0194092,0.769897,0.634155
1470330572427848,0.0679932,0.0203857,0.769348,0.634827
1470330572442515,0.0668335,0.020752,0.768372,0.636108
1470330572465574,0.0635376,0.0178833,0.767151,0.637939
1470330572488056,0.0579224,0.0120239,0.765564,0.640564
1470330572502072,0.053772,0.00787354,0.763489,0.643433
1470330572525590,0.0472412,0.00158691,0.76123,0.646667
1470330572548110,0.0397339,-0.00439453,0.758484,0.650391
1470330572569128,0.0344849,-0.00469971,0.755615,0.654053
1470330572585643,0.03302,0.00195313,0.753235,0.65686
1470330572608163,0.0354614,0.0153198,0.750244,0.659973
1470330572629238,0.0346069,0.0269165,0.744629,0.665955
1470330572645701,0.0296631,0.0322266,0.738464,0.672852
1470330572667721,0.0206299,0.0325317,0.732666,0.679382
1470330572689236,0.0108032,0.0325317,0.726196,0.686584
1470330572705751,0.00274658,0.0348511,0.717834,0.695313
1470330572728288,-0.00360107,0.0391235,0.707397,0.705627
1470330572749290,-0.00952148,0.0440063,0.69519,0.717346
1470330572765805,-0.0164185,0.0496826,0.681091,0.730225
1470330572787829,-0.0236816,0.0543213,0.665161,0.744324
1470330572809418,-0.0305176,0.0588989,0.64679,0.759705
1470330572825407,-0.0365601,0.0629883,0.626282,0.776123
1470330572847881,-0.0424194,0.0650635,0.60376,0.793335
1470330572869403,-0.0483398,0.0657349,0.579651,0.81073
1470330572885413,-0.0532837,0.0652466,0.554749,0.827698
1470330572907943,-0.0570679,0.0637817,0.529236,0.844116
1470330572913454,-0.0591431,0.0620728,0.50293,0.859985
1470330572935958,-0.0598755,0.0600586,0.476196,0.875183
1470330572950975,-0.0605469,0.0568848,0.449768,0.889221
1470330572973508,-0.0597534,0.0535278,0.424805,0.901672
1470330572996039,-0.057373,0.0507202,0.401184,0.912781
1470330573011068,-0.0563965,0.0462646,0.378784,0.922546
1470330573033563,-0.0582886,0.0401001,0.357666,0.931091
1470330573056132,-0.0646362,0.0300903,0.337708,0.938477
1470330573071084,-0.0802002,0.015686,0.317871,0.94458
1470330573093664,-0.102173,0.00262451,0.296875,0.949402
1470330573116161,-0.118774,-0.00366211,0.28125,0.952209
1470330573131160,-0.132507,-0.00457764,0.270203,0.953613
1470330573153654,-0.138123,-0.00189209,0.259827,0.955688
1470330573176174,-0.138916,0.00183105,0.249573,0.958313
1470330573191188,-0.138611,0.00396729,0.240906,0.960571
1470330573220767,-0.137573,0.0055542,0.23291,0.962646
1470330573235775,-0.136475,0.00616455,0.224609,0.964783
1470330573258748,-0.135498,0.00585938,0.216797,0.966736
1470330573273261,-0.135132,0.00378418,0.210144,0.968262
1470330573298831,-0.132813,0.00292969,0.205078,0.969666
1470330573311320,-0.128662,0.0057373,0.200989,0.971069
1470330573333824,-0.125244,0.0110474,0.197571,0.972168
1470330573355838,-0.123291,0.0147705,0.194946,0.9729
1470330573370873,-0.121643,0.0158691,0.193665,0.973328
1470330573393397,-0.118591,0.0172119,0.193787,0.973633
1470330573415919,-0.11554,0.019165,0.193909,0.973999
1470330573433924,-0.11322,0.0204468,0.193848,0.974243
1470330573453456,-0.110596,0.020874,0.193787,0.974548
1470330573475976,-0.108032,0.0216675,0.193726,0.974792
1470330573490991,-0.106445,0.022522,0.193604,0.974976
1470330573513531,-0.105591,0.0228271,0.193054,0.975159
1470330573539007,-0.10553,0.0227051,0.192261,0.975342
1470330573551024,-0.105835,0.0228271,0.19165,0.975464
1470330573573575,-0.106079,0.0231323,0.191162,0.975525
1470330573596080,-0.10614,0.0236206,0.190674,0.975586
1470330573611064,-0.105835,0.024231,0.190125,0.975708
1470330573633677,-0.104919,0.0250244,0.189697,0.975891
1470330573656104,-0.10376,0.0257568,0.189514,0.976013
1470330573671155,-0.103271,0.0264893,0.189514,0.976013
1470330573693650,-0.103271,0.0272217,0.189758,0.975952
1470330573716192,-0.102905,0.0280151,0.190308,0.975891
1470330573731171,-0.103516,0.0280151,0.190613,0.975769
1470330573753215,-0.104553,0.02771,0.190552,0.975647
1470330573777268,-0.105042,0.0274048,0.19043,0.975647
1470330573790755,-0.104919,0.0273438,0.190186,0.975708
1470330573816272,-0.105164,0.0272217,0.18988,0.975769
1470330573835795,-0.106201,0.0270386,0.189514,0.975708
1470330573852318,-0.107422,0.0271606,0.18927,0.975586
1470330573873800,-0.108459,0.0272827,0.189087,0.975525
1470330573895877,-0.109131,0.0274658,0.188965,0.975464
1470330573912335,-0.109436,0.0276489,0.188904,0.975464
1470330573933887,-0.109863,0.027832,0.189026,0.975403
1470330573955887,-0.110718,0.0279541,0.189209,0.97522
1470330573972389,-0.111816,0.027832,0.189453,0.975098
1470330573993410,-0.112488,0.02771,0.189636,0.974976
1470330574015927,-0.112915,0.0276489,0.189758,0.974915
1470330574032443,-0.113342,0.0275269,0.189758,0.974854
1470330574053485,-0.113831,0.0274048,0.189819,0.974792
1470330574075983,-0.114258,0.0272217,0.190002,0.97467
1470330574092496,-0.114807,0.0270386,0.190308,0.974548
1470330574113545,-0.115112,0.0266724,0.190674,0.974487
1470330574136060,-0.115173,0.0263672,0.190979,0.974426
1470330574152552,-0.115356,0.0262451,0.191101,0.974365
1470330574173656,-0.115906,0.0261841,0.191162,0.974304
1470330574196101,-0.116516,0.026001,0.19104,0.974243
1470330574213605,-0.117188,0.026001,0.190918,0.974182
1470330574233624,-0.118042,0.0259399,0.190857,0.974121
1470330574256143,-0.118713,0.0259399,0.190857,0.97406
1470330574273659,-0.119385,0.0258789,0.190735,0.973999
1470330574293685,-0.120178,0.0257568,0.190674,0.973877
1470330574316202,-0.120483,0.0258179,0.190552,0.973877
1470330574333713,-0.120483,0.0258179,0.190552,0.973877
1470330574353731,-0.120483,0.0258179,0.190552,0.973877
1470330574376255,-0.120483,0.0258179,0.190552,0.973877
1470330574393766,-0.120483,0.0258179,0.190552,0.973877
1470330574413317,-0.120361,0.0257568,0.190674,0.973877
1470330574436309,-0.120239,0.0257568,0.190918,0.973816
1470330574453821,-0.1203,0.0257568,0.191223,0.973755
1470330574473338,-0.120605,0.0258179,0.191467,0.973694
1470330574496371,-0.120483,0.026062,0.191895,0.973633
1470330574513875,-0.120361,0.0263062,0.19281,0.97345
1470330574533423,-0.121094,0.0265503,0.193726,0.973145
1470330574555912,-0.122009,0.0264893,0.19458,0.9729
1470330574573944,-0.121704,0.0265503,0.195374,0.972778
1470330574593447,-0.119263,0.0269775,0.196106,0.9729
1470330574615989,-0.11731,0.0275269,0.196594,0.973022
1470330574633983,-0.117432,0.027771,0.197021,0.9729
1470330574653517,-0.119141,0.0274048,0.197083,0.972717
1470330574676021,-0.120422,0.0273438,0.196899,0.972595
1470330574694036,-0.120544,0.0275879,0.19635,0.972656
1470330574713569,-0.119751,0.0281982,0.195679,0.9729
1470330574736104,-0.118958,0.0289307,0.19519,0.973083
1470330574753590,-0.119019,0.0290527,0.194885,0.973083
1470330574773616,-0.11969,0.0286255,0.194702,0.973083
1470330574796127,-0.120117,0.0284424,0.19458,0.973083
1470330574814230,-0.119995,0.0284424,0.194458,0.973083
1470330574835163,-0.119751,0.0283813,0.194214,0.973145
1470330574856201,-0.11969,0.0281372,0.194031,0.973206
1470330574873697,-0.119934,0.027832,0.193909,0.973267
1470330574895217,-0.120422,0.0275269,0.193848,0.973206
1470330574916236,-0.12085,0.0274048,0.193726,0.973145
1470330574941260,-0.121094,0.0271606,0.193481,0.973206
1470330574954770,-0.121094,0.0270386,0.193237,0.973267
1470330574975790,-0.121094,0.0270996,0.193237,0.973267
1470330574993839,-0.121094,0.0270386,0.193054,0.973267
1470330575014826,-0.121094,0.0270996,0.193054,0.973267
1470330575035872,-0.121277,0.0269775,0.192993,0.973267
1470330575053860,-0.121338,0.0269775,0.192993,0.973267
1470330575074882,-0.121338,0.0269775,0.192993,0.973267
1470330575095945,-0.121338,0.0269775,0.192993,0.973267
1470330575113917,-0.121521,0.0268555,0.192932,0.973267
1470330575136435,-0.122009,0.0266113,0.192932,0.973206
1470330575155951,-0.12262,0.0262451,0.19281,0.973145
1470330575173968,-0.122864,0.0261841,0.192749,0.973145
1470330575196489,-0.123047,0.0262451,0.192688,0.973145
1470330575216035,-0.123596,0.0264282,0.192566,0.973083
1470330575234027,-0.124451,0.0264893,0.192444,0.972961
1470330575256541,-0.124939,0.0266724,0.192383,0.972961
1470330575276075,-0.125,0.0269775,0.192261,0.972961
1470330575294077,-0.124878,0.0274048,0.192139,0.972961
1470330575316595,-0.124817,0.02771,0.192078,0.972961
1470330575336113,-0.124878,0.02771,0.192078,0.972961
1470330575353631,-0.124878,0.027771,0.192078,0.972961
1470330575375650,-0.124756,0.027771,0.1922,0.972961
1470330575396703,-0.124451,0.0276489,0.192383,0.972961
1470330575413186,-0.124207,0.0273438,0.192627,0.972961
1470330575435702,-0.124207,0.0269775,0.192871,0.9729
1470330575456740,-0.124329,0.0264282,0.192993,0.9729
1470330575473239,-0.124512,0.0259399,0.193176,0.972839
1470330575495756,-0.124451,0.0255127,0.193359,0.972839
1470330575516780,-0.124023,0.0253296,0.19342,0.9729
1470330575533293,-0.123474,0.0252075,0.193481,0.972961
1470330575555810,-0.122986,0.0251465,0.193542,0.973022
1470330575576829,-0.122986,0.0251465,0.193542,0.973022
1470330575592843,-0.122925,0.0250854,0.193542,0.973022
1470330575615363,-0.123169,0.0249634,0.193542,0.972961
1470330575636978,-0.123169,0.0249634,0.193542,0.972961
1470330575652948,-0.123108,0.0249634,0.193542,0.972961
1470330575675418,-0.123535,0.0249023,0.193665,0.9729
1470330575696971,-0.124023,0.0248413,0.193726,0.972839
1470330575712956,-0.124451,0.0246582,0.193726,0.972778
1470330575735499,-0.124695,0.0244751,0.193787,0.972717
1470330575756495,-0.124756,0.024292,0.193848,0.972717
1470330575773006,-0.124573,0.0239868,0.193909,0.972717
1470330575795529,-0.12439,0.0238647,0.194031,0.972778
1470330575816575,-0.124084,0.0238037,0.194275,0.972717
1470330575833064,-0.123901,0.0238037,0.194458,0.972717
1470330575855580,-0.123718,0.0236816,0.194641,0.972717
1470330575878600,-0.123596,0.0236206,0.194885,0.972656
1470330575893120,-0.123291,0.0236816,0.19519,0.972656
1470330575915634,-0.122986,0.0237427,0.195496,0.972656
1470330575936678,-0.122559,0.0238037,0.195862,0.972595
1470330575953200,-0.122131,0.0237427,0.196106,0.972595
1470330575975687,-0.121704,0.0236206,0.196411,0.972595
1470330575996784,-0.121399,0.0232544,0.196655,0.972595
1470330576013224,-0.121216,0.0228271,0.196838,0.972595
1470330576035240,-0.120911,0.022583,0.19696,0.972656
1470330576056795,-0.120483,0.0223999,0.19696,0.972656
1470330576073274,-0.120483,0.0223999,0.19696,0.972656
1470330576095795,-0.120483,0.0224609,0.19696,0.972656
1470330576117815,-0.120728,0.0223999,0.196838,0.972656
1470330576133328,-0.12085,0.0223389,0.196594,0.972717
1470330576155348,-0.120667,0.0223389,0.19635,0.972778
1470330576177871,-0.120361,0.0222168,0.196228,0.972839
1470330576192882,-0.120117,0.0221558,0.196106,0.9729
1470330576215402,-0.119812,0.0223389,0.196106,0.972961
1470330576237922,-0.119812,0.0223389,0.196106,0.972961
1470330576252438,-0.119812,0.022644,0.196289,0.9729
1470330576275456,-0.119873,0.0227051,0.196533,0.972839
1470330576297976,-0.119629,0.0230103,0.196655,0.972839
1470330576312503,-0.119507,0.0230713,0.196899,0.972839
1470330576335527,-0.119385,0.0228271,0.197083,0.972778
1470330576358031,-0.119385,0.0228271,0.197083,0.972778
1470330576372545,-0.119202,0.0227661,0.197083,0.972839
1470330576395564,-0.119263,0.0227661,0.197083,0.972778
1470330576418085,-0.119263,0.0227661,0.197083,0.972778
1470330576432597,-0.119263,0.0227661,0.197083,0.972778
1470330576455618,-0.119263,0.0227661,0.197083,0.972778
1470330576478138,-0.119263,0.0227661,0.197083,0.972778
1470330576492699,-0.119385,0.0230103,0.197083,0.972778
1470330576515672,-0.119568,0.0231323,0.19696,0.972778
1470330576538192,-0.119629,0.0231323,0.19696,0.972778
1470330576552710,-0.119812,0.0232544,0.196777,0.972778
1470330576575726,-0.119995,0.0233765,0.196655,0.972778
1470330576598263,-0.120239,0.0233765,0.196472,0.972778
1470330576626772,-0.120483,0.0234375,0.19635,0.972778
1470330576635781,-0.120789,0.0234985,0.196167,0.972778
1470330576658301,-0.120972,0.0234985,0.196045,0.972778
1470330576679319,-0.120972,0.0234985,0.196045,0.972778
1470330576695834,-0.121216,0.0234375,0.195862,0.972778
1470330576717855,-0.121338,0.0234375,0.195679,0.972839
1470330576740874,-0.121338,0.0234375,0.195679,0.972839
1470330576755387,-0.121582,0.0234375,0.195557,0.972778
1470330576777910,-0.121826,0.0233765,0.195496,0.972778
1470330576799427,-0.121826,0.0233765,0.195496,0.972778
1470330576815460,-0.121826,0.0233765,0.195496,0.972778
1470330576837965,-0.121826,0.0233765,0.195496,0.972778
1470330576866516,-0.121826,0.0233765,0.195496,0.972778
1470330576875494,-0.121887,0.0234375,0.195496,0.972778
1470330576898030,-0.121887,0.0233765,0.195496,0.972778
1470330576919090,-0.121887,0.0233765,0.195496,0.972778
1470330576935549,-0.121887,0.0234375,0.195496,0.972778
1470330576958069,-0.12207,0.0235596,0.195374,0.972778
1470330576979171,-0.122192,0.0236816,0.195251,0.972778
1470330576995603,-0.122253,0.0239258,0.19519,0.972778
1470330577018146,-0.12262,0.024231,0.195007,0.972778
1470330577040689,-0.123047,0.0244141,0.194763,0.972778
1470330577055657,-0.12323,0.024353,0.194519,0.972778
1470330577078177,-0.123291,0.0246582,0.194397,0.972778
1470330577100698,-0.123352,0.0252075,0.194397,0.972778
1470330577114713,-0.123291,0.0256958,0.194519,0.972778
1470330577138230,-0.123474,0.026123,0.194702,0.972656
1470330577160752,-0.123901,0.0261841,0.194946,0.972595
1470330577175764,-0.123901,0.0264282,0.195068,0.972534
1470330577198313,-0.123718,0.0266724,0.19519,0.972534
1470330577220329,-0.123474,0.0269775,0.195374,0.972534
1470330577234820,-0.123474,0.0269775,0.195374,0.972534
1470330577257884,-0.123474,0.0269775,0.195374,0.972534
1470330577280360,-0.123535,0.0269775,0.195374,0.972534
1470330577294873,-0.123535,0.0269775,0.195374,0.972534
1470330577317892,-0.123596,0.0269775,0.195374,0.972534
1470330577340413,-0.123596,0.0270386,0.195374,0.972473
1470330577354928,-0.123596,0.0270386,0.195374,0.972473
1470330577377946,-0.123657,0.0270386,0.195374,0.972473
1470330577400469,-0.123657,0.0270996,0.195374,0.972473
1470330577421520,-0.123657,0.0269165,0.195374,0.972473
1470330577438038,-0.123718,0.0266724,0.195435,0.972473
1470330577460623,-0.123413,0.0267944,0.195618,0.972473
1470330577475127,-0.123047,0.0266724,0.196045,0.972473
1470330577498143,-0.122559,0.0268555,0.19635,0.972412
1470330577520662,-0.122375,0.0270386,0.196594,0.972412
1470330577541710,-0.122375,0.0270386,0.196594,0.972412
1470330577558199,-0.122437,0.0270386,0.196594,0.972412
1470330577580714,-0.122314,0.0269775,0.196594,0.972412
1470330577601779,-0.121948,0.0270386,0.196594,0.972473
1470330577618249,-0.122131,0.0268555,0.196594,0.972412
1470330577640743,-0.122681,0.0265503,0.196655,0.972351
1470330577661770,-0.123474,0.026001,0.196472,0.972351
1470330577678276,-0.123718,0.0259399,0.196106,0.972351
1470330577700796,-0.124268,0.0256958,0.19574,0.972351
1470330577721816,-0.124512,0.0252686,0.195313,0.972412
1470330577740333,-0.124512,0.0252686,0.195313,0.972412
1470330577760352,-0.124817,0.0253906,0.195557,0.972351
1470330577781369,-0.124939,0.0252686,0.195618,0.972351
1470330577797885,-0.124512,0.0253296,0.195435,0.972412
1470330577820410,-0.123901,0.0256958,0.195251,0.972534
1470330577841425,-0.124023,0.026123,0.195435,0.972473
1470330577857939,-0.12439,0.0264282,0.19574,0.972351
1470330577880459,-0.12439,0.0267944,0.196167,0.972229
1470330577902006,-0.124023,0.0269165,0.196411,0.972229
1470330577917994,-0.12323,0.0272217,0.196411,0.972351
1470330577940512,-0.12323,0.0272827,0.196411,0.972351
1470330577961531,-0.123535,0.0268555,0.19635,0.97229
1470330577978045,-0.123596,0.0268555,0.19635,0.97229
1470330578000567,-0.123596,0.0267944,0.196533,0.97229
1470330578023642,-0.123535,0.0269165,0.196716,0.972229
1470330578038101,-0.123901,0.0266724,0.196472,0.972229
1470330578060620,-0.124573,0.0266113,0.196106,0.972229
1470330578083140,-0.125366,0.0264893,0.195801,0.972229
1470330578098153,-0.125916,0.0263672,0.195496,0.972168
1470330578120690,-0.12561,0.0261841,0.19519,0.97229
1470330578150701,-0.124695,0.0263672,0.194885,0.972473
1470330578157207,-0.124146,0.0267334,0.194641,0.972595
1470330578180728,-0.124451,0.0270996,0.194763,0.972534
1470330578203247,-0.124634,0.0272827,0.195007,0.972412
1470330578217267,-0.124329,0.0276489,0.195251,0.972412
1470330578240782,-0.123718,0.0279541,0.195435,0.972412
1470330578262826,-0.123047,0.0282593,0.195496,0.972534
1470330578277315,-0.123047,0.0282593,0.195496,0.972473
1470330578300335,-0.12323,0.0278931,0.195374,0.972534
1470330578323358,-0.123291,0.0278931,0.195068,0.972595
1470330578337389,-0.123535,0.0280151,0.194885,0.972595
1470330578360404,-0.123535,0.0280151,0.194885,0.972595
1470330578382911,-0.123718,0.0278931,0.194702,0.972595
1470330578397424,-0.124146,0.0276489,0.194336,0.972595
1470330578420447,-0.124512,0.0272827,0.193909,0.972656
1470330578442963,-0.124756,0.0269775,0.193604,0.972717
1470330578457476,-0.124756,0.0269775,0.19342,0.972717
1470330578480497,-0.124756,0.0269775,0.19342,0.972717
1470330578503017,-0.125244,0.0269775,0.193542,0.972656
1470330578524536,-0.125244,0.0267334,0.19342,0.972717
1470330578540550,-0.125183,0.0266724,0.193359,0.972717
1470330578563070,-0.125244,0.0271606,0.193298,0.972717
1470330578584092,-0.12561,0.02771,0.193665,0.972534
1470330578600604,-0.125977,0.0274048,0.193787,0.972534
1470330578623128,-0.125549,0.0275879,0.193726,0.972595
1470330578644159,-0.124634,0.027832,0.193787,0.972656
1470330578660660,-0.124268,0.02771,0.193665,0.972717
1470330578690685,-0.124329,0.0275269,0.19342,0.972778
1470330578704258,-0.124756,0.0274048,0.193115,0.972778
1470330578720731,-0.125366,0.0272217,0.19281,0.972778
1470330578743232,-0.125732,0.0271606,0.192505,0.972778
1470330578764251,-0.125732,0.0274658,0.192261,0.972839
1470330578780766,-0.125793,0.02771,0.191956,0.9729
1470330578803286,-0.126038,0.027832,0.191528,0.9729
1470330578824322,-0.126526,0.0278931,0.191101,0.972961
1470330578848326,-0.126892,0.0281372,0.190735,0.972961
1470330578863340,-0.127014,0.0284424,0.19043,0.972961
1470330578884359,-0.126953,0.0287476,0.190247,0.973022
1470330578900388,-0.126831,0.0290527,0.190002,0.973083
1470330578922927,-0.126831,0.0291138,0.190002,0.973083
1470330578945419,-0.127075,0.0291748,0.18988,0.973083
1470330578966933,-0.127136,0.0293579,0.189819,0.973083
1470330578982949,-0.127136,0.0293579,0.189819,0.973083
1470330579005472,-0.127136,0.0293579,0.18988,0.973083
1470330579020483,-0.127319,0.0296021,0.189941,0.973022
1470330579049009,-0.127686,0.0297241,0.190002,0.972961
1470330579065536,-0.127808,0.0299683,0.190125,0.9729
1470330579080038,-0.127808,0.0302734,0.190186,0.9729
1470330579103061,-0.127808,0.0306396,0.190247,0.972839
1470330579125576,-0.127808,0.0307007,0.190247,0.972839
1470330579140089,-0.128052,0.0307007,0.190247,0.972839
1470330579163123,-0.128052,0.0307007,0.190247,0.972839
1470330579185680,-0.128052,0.0306396,0.190186,0.972839
1470330579208155,-0.128052,0.0303345,0.190125,0.9729
1470330579223209,-0.128357,0.0300293,0.189941,0.972839
1470330579245685,-0.12854,0.0296021,0.189758,0.9729
1470330579260197,-0.12854,0.0293579,0.189453,0.972961
1470330579283233,-0.12854,0.0291748,0.189148,0.973022
1470330579305737,-0.128967,0.0290527,0.188904,0.973022
1470330579319751,-0.129517,0.0291748,0.188904,0.972961
1470330579343275,-0.129822,0.0297241,0.189087,0.972839
1470330579365793,-0.130005,0.0301514,0.18927,0.972778
1470330579379818,-0.13031,0.0306396,0.189575,0.972656
1470330579403349,-0.130371,0.0308228,0.189575,0.972656
1470330579425845,-0.130249,0.0311279,0.189636,0.972656
1470330579446864,-0.130493,0.0314331,0.189697,0.972595
1470330579463379,-0.130737,0.0315552,0.18988,0.972534
1470330579485399,-0.130737,0.0315552,0.18988,0.972534
1470330579506919,-0.130615,0.0317383,0.189941,0.972534
1470330579523433,-0.130249,0.0317383,0.18988,0.972595
1470330579545453,-0.130005,0.0316162,0.189758,0.972656
1470330579566972,-0.130127,0.0315552,0.189575,0.972656
1470330579583033,-0.130127,0.0315552,0.189575,0.972656
1470330579605512,-0.130188,0.0315552,0.189575,0.972656
1470330579626554,-0.130188,0.0315552,0.189575,0.972656
1470330579643043,-0.130188,0.0315552,0.189575,0.972656
1470330579665561,-0.13031,0.0316162,0.189575,0.972656
1470330579686616,-0.130737,0.0315552,0.189575,0.972595
1470330579703094,-0.130798,0.0315552,0.189575,0.972595
1470330579725615,-0.130798,0.0315552,0.189575,0.972595
1470330579746675,-0.130798,0.0315552,0.189575,0.972595
1470330579762648,-0.130798,0.0316162,0.189575,0.972595
1470330579785672,-0.130798,0.0316162,0.189575,0.972595
1470330579806721,-0.130798,0.0315552,0.189575,0.972595
1470330579823202,-0.130798,0.0315552,0.189575,0.972595
1470330579845723,-0.130798,0.0316162,0.189575,0.972534
1470330579868243,-0.130859,0.0316162,0.189575,0.972534
1470330579883256,-0.130859,0.0316162,0.189575,0.972534
1470330579905777,-0.131104,0.0316162,0.189575,0.972534
1470330579927796,-0.131348,0.0316162,0.189514,0.972534
1470330579943310,-0.131348,0.0316772,0.189514,0.972534
1470330579965841,-0.131348,0.0316772,0.189514,0.972534
1470330579988350,-0.131348,0.0316772,0.189514,0.972534
1470330580003364,-0.131409,0.0316772,0.189514,0.972473
1470330580025433,-0.131409,0.0316772,0.189514,0.972473
1470330580048441,-0.131653,0.0316162,0.189453,0.972473
1470330580062417,-0.131714,0.0316162,0.189453,0.972473
1470330580085938,-0.131714,0.0316772,0.189453,0.972473
1470330580107958,-0.131775,0.0316772,0.189453,0.972473
1470330580122471,-0.131775,0.0316772,0.189453,0.972473
1470330580145494,-0.131775,0.0316772,0.189453,0.972473
1470330580168012,-0.131836,0.0316772,0.189453,0.972473
1470330580182525,-0.131836,0.0316772,0.189453,0.972473
1470330580205547,-0.131836,0.0316772,0.189453,0.972473
1470330580228067,-0.131897,0.0316772,0.189453,0.972473
1470330580242578,-0.131897,0.0316772,0.189453,0.972412
1470330580265601,-0.131958,0.0316772,0.189453,0.972412
1470330580288121,-0.131958,0.0316772,0.189453,0.972412
1470330580302633,-0.131958,0.0317383,0.189453,0.972412
1470330580325655,-0.131958,0.0317383,0.189453,0.972412
1470330580348173,-0.131958,0.0317383,0.189453,0.972412
1470330580370703,-0.132019,0.0317383,0.189453,0.972412
1470330580385709,-0.132019,0.0317383,0.189453,0.972412
1470330580408227,-0.13208,0.0316772,0.189453,0.972412
1470330580429292,-0.13208,0.0317383,0.189453,0.972412
1470330580445763,-0.13208,0.0317383,0.189453,0.972412
1470330580468288,-0.132141,0.0316772,0.189453,0.972412
1470330580473295,-0.132141,0.0317383,0.189453,0.972412
1470330580496306,-0.132385,0.0316772,0.189392,0.972412
1470330580510861,-0.132446,0.0316772,0.189392,0.972351
1470330580533357,-0.132446,0.0316772,0.189392,0.972351
1470330580555860,-0.132446,0.0316772,0.189392,0.972351
1470330580570876,-0.132446,0.0316772,0.189392,0.972351
1470330580593910,-0.132507,0.0316772,0.189392,0.972351
1470330580616433,-0.132507,0.0316772,0.189392,0.972351
1470330580631443,-0.132568,0.0316772,0.189392,0.972351
1470330580653462,-0.132568,0.0316772,0.189392,0.972351
1470330580676042,-0.132568,0.0316772,0.189392,0.972351
1470330580691007,-0.132629,0.0316772,0.189392,0.972351
1470330580713524,-0.132629,0.0316772,0.189392,0.972351
1470330580736053,-0.13269,0.0316772,0.189392,0.972351
1470330580751039,-0.132874,0.0314941,0.189209,0.972351
1470330580773557,-0.132874,0.0314941,0.189209,0.972351
1470330580796076,-0.132874,0.0315552,0.189209,0.972351
1470330580811117,-0.132996,0.031311,0.189087,0.972351
1470330580833641,-0.133057,0.031311,0.189087,0.972351
1470330580856130,-0.133057,0.03125,0.189087,0.972351
1470330580871147,-0.133118,0.03125,0.189087,0.972351
1470330580893670,-0.133118,0.03125,0.189087,0.972351
1470330580916183,-0.133118,0.03125,0.189087,0.972351
1470330580931250,-0.133118,0.03125,0.189087,0.972351
1470330580953761,-0.133362,0.0311279,0.189026,0.972351
1470330580975741,-0.133423,0.0310669,0.189026,0.972351
1470330580991250,-0.133423,0.0310669,0.189026,0.972351
1470330581013831,-0.133484,0.0310669,0.189026,0.972351
1470330581036292,-0.133484,0.0307617,0.188843,0.972351
1470330581050837,-0.133545,0.0307617,0.188843,0.972351
1470330581073946,-0.133545,0.0307617,0.188843,0.972351
1470330581095844,-0.133545,0.0307007,0.188843,0.972351
1470330581111482,-0.133545,0.0307007,0.188843,0.972351
1470330581133414,-0.133545,0.0307007,0.188843,0.972351
1470330581155899,-0.133606,0.0306396,0.188843,0.972351
1470330581170968,-0.133606,0.0307007,0.188843,0.972351
1470330581193435,-0.133667,0.0306396,0.188843,0.972351
1470330581215968,-0.133667,0.0306396,0.188782,0.972351
1470330581230976,-0.133728,0.0305786,0.188782,0.972351
1470330581253518,-0.133728,0.0305786,0.188782,0.972351
1470330581276267,-0.133789,0.0305786,0.188782,0.972351
1470330581291249,-0.133789,0.0305786,0.188782,0.972351
1470330581313723,-0.133789,0.0305786,0.188782,0.972351
1470330581336253,-0.13385,0.0305786,0.188782,0.972351
1470330581351243,-0.13385,0.0305786,0.188782,0.972351
1470330581373766,-0.13385,0.0305786,0.188782,0.972351
1470330581396283,-0.133911,0.0305176,0.188782,0.972351
1470330581411297,-0.133911,0.0305176,0.188782,0.972351
1470330581433817,-0.133972,0.0305176,0.188782,0.972351
1470330581456338,-0.133972,0.0305176,0.188782,0.972351
1470330581478869,-0.134033,0.0305176,0.188782,0.972351
1470330581493927,-0.134033,0.0304565,0.188782,0.97229
1470330581516434,-0.134094,0.0304565,0.188782,0.97229
1470330581532408,-0.134094,0.0304565,0.188782,0.97229
1470330581553483,-0.134155,0.0303345,0.188599,0.972351
1470330581575969,-0.134277,0.0302124,0.188416,0.972351
1470330581592459,-0.134338,0.0301514,0.188416,0.972351
1470330581613520,-0.134338,0.0301514,0.188416,0.972351
1470330581636000,-0.134399,0.0301514,0.188416,0.972351
1470330581652513,-0.134399,0.0301514,0.188416,0.972351
1470330581673531,-0.134399,0.0301514,0.188416,0.972351
1470330581696087,-0.13446,0.0300903,0.188416,0.972351
1470330581712567,-0.13446,0.0300903,0.188416,0.972351
1470330581733614,-0.13446,0.0300903,0.188416,0.972351
1470330581756135,-0.134521,0.0300903,0.188354,0.972351
1470330581774123,-0.134521,0.0300293,0.188354,0.972351
1470330581793673,-0.134521,0.0300293,0.188354,0.972351
1470330581816160,-0.134583,0.0300293,0.188354,0.972351
1470330581834262,-0.134583,0.0300293,0.188354,0.972351
1470330581853693,-0.134583,0.0300293,0.188354,0.972351
1470330581876213,-0.134644,0.0299683,0.188354,0.972351
1470330581894275,-0.134644,0.0299683,0.188354,0.972351
1470330581913757,-0.134705,0.0299683,0.188354,0.972351
1470330581936268,-0.134705,0.0299683,0.188354,0.972351
1470330581954290,-0.134705,0.0299683,0.188354,0.97229
1470330581973802,-0.134766,0.0299683,0.188354,0.97229
1470330581996322,-0.134766,0.0299683,0.188354,0.97229
1470330582018950,-0.134827,0.0299683,0.188354,0.97229
1470330582036860,-0.134827,0.0299072,0.188354,0.97229
1470330582055889,-0.134888,0.0299072,0.188354,0.97229
1470330582073892,-0.134888,0.0299072,0.188354,0.97229
1470330582093411,-0.134949,0.0299072,0.188354,0.97229
1470330582116473,-0.134949,0.0298462,0.188354,0.97229
1470330582134479,-0.134949,0.0298462,0.188354,0.97229
1470330582153483,-0.135254,0.0297241,0.188354,0.97229
1470330582176000,-0.135254,0.0297241,0.188354,0.972229
1470330582194024,-0.135315,0.0297241,0.188354,0.972229
1470330582213595,-0.135315,0.0296631,0.188354,0.972229
1470330582236039,-0.135315,0.0296631,0.188354,0.972229
1470330582254085,-0.135315,0.0300293,0.188354,0.972229
1470330582273596,-0.135254,0.0304565,0.188538,0.972168
1470330582296118,-0.135315,0.0307617,0.188782,0.972107
1470330582314107,-0.135376,0.0310059,0.188965,0.972046
1470330582333695,-0.135315,0.031311,0.189087,0.972046
1470330582356145,-0.135254,0.0315552,0.18927,0.972046
1470330582374176,-0.135315,0.0315552,0.18927,0.972046
1470330582395181,-0.135315,0.0315552,0.18927,0.971985
1470330582416218,-0.135376,0.0315552,0.18927,0.971985
1470330582434339,-0.135376,0.0315552,0.18927,0.971985
1470330582455234,-0.135437,0.0314941,0.18927,0.971985
1470330582476253,-0.135437,0.0314941,0.189209,0.971985
1470330582493768,-0.135498,0.0314941,0.189209,0.971985
1470330582514787,-0.135498,0.0314941,0.189209,0.971985
1470330582536307,-0.135498,0.0314941,0.189209,0.971985
1470330582554337,-0.135559,0.0315552,0.189209,0.971985
1470330582574853,-0.135559,0.0315552,0.189209,0.971985
1470330582596454,-0.135559,0.0314941,0.189209,0.971985
1470330582613876,-0.13562,0.0314941,0.189209,0.971985
1470330582634907,-0.135925,0.0313721,0.189148,0.971924
1470330582655913,-0.135925,0.0313721,0.189148,0.971924
1470330582673930,-0.135986,0.0313721,0.189148,0.971924
1470330582694949,-0.135986,0.0313721,0.189148,0.971924
1470330582715968,-0.136047,0.0313721,0.189148,0.971924
1470330582734021,-0.136047,0.0313721,0.189148,0.971924
1470330582756504,-0.136047,0.0313721,0.189148,0.971924
1470330582776035,-0.136047,0.0313721,0.189148,0.971924
1470330582794052,-0.136108,0.0314331,0.189148,0.971924
1470330582816620,-0.136108,0.0314331,0.189148,0.971924
1470330582836101,-0.136108,0.0314331,0.189148,0.971924
1470330582854093,-0.136169,0.0314331,0.189148,0.971924
1470330582876618,-0.136169,0.0314331,0.189148,0.971924
1470330582896171,-0.13623,0.0313721,0.189148,0.971924
1470330582914146,-0.136292,0.0313721,0.189148,0.971924
1470330582935666,-0.136292,0.0313721,0.189148,0.971924
1470330582956687,-0.136292,0.0313721,0.189148,0.971924
1470330582973199,-0.136353,0.0313721,0.189148,0.971924
1470330582995723,-0.136353,0.0313721,0.189148,0.971924
1470330583016771,-0.136353,0.0313721,0.189148,0.971863
1470330583033258,-0.136414,0.0313721,0.189148,0.971863
1470330583055773,-0.136414,0.0313721,0.189148,0.971863
1470330583076850,-0.136414,0.0313721,0.189148,0.971863
1470330583093307,-0.136475,0.0313721,0.189148,0.971863
1470330583115844,-0.136475,0.0313721,0.189148,0.971863
1470330583136871,-0.136536,0.0313721,0.189148,0.971863
1470330583153411,-0.136536,0.0313721,0.189148,0.971863
1470330583175881,-0.136536,0.0313721,0.189148,0.971863
1470330583196900,-0.136597,0.0313721,0.189148,0.971863
1470330583213414,-0.136597,0.0313721,0.189148,0.971863
1470330583235456,-0.136597,0.0313721,0.189148,0.971863
1470330583256963,-0.136597,0.031311,0.189148,0.971863
1470330583272968,-0.136658,0.031311,0.189148,0.971863
1470330583295509,-0.136658,0.031311,0.189148,0.971863
1470330583317010,-0.136719,0.031311,0.189148,0.971863
1470330583333021,-0.136719,0.031311,0.189087,0.971863
1470330583355544,-0.13678,0.03125,0.189087,0.971863
1470330583377061,-0.13678,0.03125,0.189087,0.971863
1470330583393076,-0.136841,0.03125,0.189087,0.971863
1470330583423104,-0.136841,0.03125,0.189087,0.971863
1470330583436614,-0.136841,0.03125,0.189087,0.971863
1470330583453140,-0.136902,0.03125,0.189087,0.971863
1470330583475650,-0.136902,0.03125,0.189087,0.971802
1470330583496747,-0.136902,0.03125,0.189087,0.971802
1470330583513184,-0.136902,0.03125,0.189087,0.971802
1470330583535704,-0.136902,0.031311,0.189148,0.971802
1470330583556770,-0.136719,0.031311,0.189148,0.971863
1470330583573238,-0.136475,0.031311,0.189209,0.971863
1470330583595760,-0.135864,0.03125,0.189392,0.971924
1470330583616777,-0.134888,0.031189,0.189758,0.971985
1470330583633323,-0.133606,0.03125,0.190247,0.972046
1470330583655842,-0.132507,0.0311279,0.190674,0.972107
1470330583678332,-0.131897,0.0308838,0.191223,0.972107
1470330583693345,-0.131592,0.0304565,0.191772,0.972046
1470330583715908,-0.131409,0.0300293,0.192322,0.971985
1470330583738386,-0.131287,0.0296631,0.192871,0.971924
1470330583753399,-0.131165,0.02948,0.193359,0.971863
1470330583775936,-0.131836,0.0293579,0.193665,0.97168
1470330583797941,-0.132813,0.0288086,0.193604,0.971558
1470330583812453,-0.133301,0.0281982,0.193359,0.971558
1470330583835476,-0.132935,0.0284424,0.193115,0.97168
1470330583857994,-0.132629,0.0285645,0.192932,0.971741
1470330583872506,-0.132813,0.0288696,0.192932,0.971741
1470330583895553,-0.133362,0.0289917,0.192932,0.971619
1470330583918069,-0.133362,0.0289917,0.192932,0.971619
1470330583932560,-0.132935,0.0291138,0.192871,0.97168
1470330583955581,-0.132446,0.0289917,0.192871,0.971802
1470330583978101,-0.131897,0.0286255,0.192871,0.971863
1470330583992617,-0.131592,0.0281372,0.192993,0.971924
1470330584015637,-0.131348,0.0275269,0.193115,0.971924
1470330584038156,-0.130981,0.0270386,0.193359,0.971924
1470330584052695,-0.130371,0.0266724,0.193604,0.971985
1470330584075689,-0.129944,0.0264282,0.193909,0.971985
1470330584098211,-0.129395,0.0263062,0.194214,0.971985
1470330584112721,-0.128784,0.0264282,0.194641,0.971985
1470330584135743,-0.127991,0.0265503,0.195251,0.971985
1470330584158264,-0.127686,0.0264282,0.195801,0.971924
1470330584179299,-0.127747,0.026123,0.196167,0.971802
1470330584195879,-0.127747,0.0258789,0.196472,0.971741
1470330584218318,-0.127747,0.0255127,0.196899,0.97168
1470330584239336,-0.127258,0.0252686,0.197144,0.971741
1470330584255850,-0.12677,0.0252075,0.197205,0.971802
1470330584278371,-0.126587,0.0252075,0.197021,0.971802
1470330584299389,-0.12677,0.0250854,0.196777,0.971863
1470330584315921,-0.127319,0.0250854,0.196533,0.971863
1470330584337924,-0.127808,0.0252075,0.196289,0.971802
1470330584359443,-0.127991,0.0254517,0.196045,0.971863
1470330584375961,-0.128113,0.0257568,0.195801,0.971863
1470330584397978,-0.128174,0.0261841,0.19574,0.971863
1470330584418999,-0.128052,0.0264282,0.195557,0.971924
1470330584435528,-0.128052,0.0266724,0.195374,0.971924
1470330584458032,-0.128235,0.0267944,0.195251,0.971924
1470330584479053,-0.128601,0.0269775,0.195251,0.971863
1470330584495566,-0.128845,0.0272217,0.195068,0.971863
1470330584518086,-0.129211,0.0274048,0.194824,0.971863
1470330584539121,-0.129272,0.0274048,0.194824,0.971863
1470330584555621,-0.129456,0.0274658,0.194641,0.971863
1470330584578140,-0.1297,0.0275879,0.194397,0.971863
1470330584599725,-0.130066,0.02771,0.194153,0.971863
1470330584615676,-0.130371,0.0278931,0.19397,0.971863
1470330584638193,-0.130432,0.0278931,0.19397,0.971863
1470330584660716,-0.130432,0.0278931,0.19397,0.971863
1470330584675727,-0.130432,0.0278931,0.19397,0.971863
1470330584698248,-0.130432,0.027832,0.19397,0.971863
1470330584720768,-0.130432,0.027832,0.19397,0.971863
1470330584741820,-0.130432,0.027832,0.19397,0.971863
1470330584757802,-0.130615,0.0278931,0.194031,0.971802
1470330584780861,-0.130615,0.0278931,0.194031,0.971802
1470330584794836,-0.130859,0.0280151,0.193787,0.971863
1470330584818355,-0.131226,0.0279541,0.193542,0.971863
1470330584840876,-0.131409,0.027832,0.193359,0.971863
1470330584854888,-0.131409,0.027832,0.193359,0.971863
1470330584877909,-0.13147,0.027832,0.193359,0.971863
1470330584900954,-0.131531,0.027832,0.193359,0.971863
1470330584914943,-0.131287,0.0280151,0.193298,0.971863
1470330584937963,-0.131165,0.0281372,0.193176,0.971924
1470330584960988,-0.131165,0.0281982,0.193176,0.971924
1470330584974999,-0.131165,0.0281982,0.193176,0.971924
1470330584998017,-0.131531,0.0281372,0.193176,0.971863
1470330585020537,-0.131592,0.0281372,0.193115,0.971863
1470330585035051,-0.131592,0.0281982,0.193176,0.971863
1470330585058071,-0.131531,0.0281982,0.193176,0.971863
1470330585086610,-0.131592,0.0281982,0.193176,0.971863
1470330585095104,-0.131897,0.0281372,0.193176,0.971802
1470330585118125,-0.131897,0.0281372,0.193176,0.971802
1470330585140645,-0.131897,0.0281372,0.193176,0.971802
1470330585162170,-0.131897,0.0281372,0.193176,0.971802
1470330585178179,-0.132202,0.0280762,0.193115,0.971802
1470330585201199,-0.132263,0.0280762,0.193115,0.971802
1470330585221717,-0.132202,0.0282593,0.193298,0.971741
1470330585238234,-0.131958,0.0289917,0.193542,0.97168
1470330585260753,-0.13147,0.0297852,0.194092,0.971619
1470330585281789,-0.131348,0.0303955,0.194641,0.971558
1470330585298286,-0.133179,0.0286255,0.195984,0.971069
1470330585320819,-0.138489,0.0239868,0.197754,0.970093
1470330585341865,-0.146667,0.0186768,0.201233,0.968323
1470330585358352,-0.15155,0.0148926,0.205139,0.966797
1470330585380872,-0.15033,0.0136719,0.209229,0.966125
1470330585401925,-0.144165,0.0150757,0.214661,0.96582
1470330585417943,-0.137207,0.0179443,0.22229,0.965088
1470330585440951,-0.132568,0.0212402,0.232056,0.963379
1470330585461955,-0.131775,0.0229492,0.244751,0.960266
1470330585477959,-0.134949,0.0230103,0.259644,0.955933
1470330585500487,-0.138367,0.0234375,0.273804,0.951477
1470330585522001,-0.139038,0.026123,0.287476,0.947266
1470330585537513,-0.13739,0.0305176,0.300293,0.943359
1470330585561034,-0.133606,0.0352783,0.312744,0.939697
1470330585583054,-0.129822,0.0393066,0.32428,0.936157
1470330585597573,-0.128784,0.0404663,0.334778,0.932495
1470330585620624,-0.128052,0.0387573,0.344421,0.929199
1470330585643108,-0.126709,0.0353394,0.352722,0.926392
1470330585657656,-0.122925,0.0317993,0.359009,0.924622
1470330585680642,-0.115784,0.0287476,0.363281,0.92395
1470330585703179,-0.107056,0.0262451,0.366516,0.923828
1470330585717693,-0.0988159,0.0233765,0.369141,0.923767
1470330585740696,-0.0921021,0.0184326,0.371155,0.923767
1470330585763216,-0.086853,0.0115967,0.37262,0.923767
1470330585777729,-0.0824585,0.00585938,0.374207,0.923584
1470330585800751,-0.0779419,0.00189209,0.375427,0.923523
1470330585823269,-0.0733643,-0.000549316,0.376709,0.923401
1470330585844321,-0.0699463,-0.00268555,0.377808,0.923218
1470330585860820,-0.0674438,-0.00488281,0.37915,0.922791
1470330585883325,-0.0651245,-0.0067749,0.380615,0.922363
1470330585904343,-0.0620117,-0.00842285,0.381714,0.922119
1470330585920862,-0.0584717,-0.00994873,0.382507,0.921997
1470330585943378,-0.0548706,-0.0111694,0.383118,0.921936
1470330585964398,-0.0515137,-0.0115967,0.383545,0.921997
1470330585980913,-0.0479736,-0.0103149,0.383545,0.92218
1470330586003431,-0.0462646,-0.00860596,0.383118,0.922424
1470330586024451,-0.0462646,-0.0078125,0.38269,0.922668
1470330586040965,-0.0478516,-0.00830078,0.382385,0.922668
1470330586063488,-0.0494385,-0.00939941,0.382202,0.922668
1470330586084504,-0.0489502,-0.0100708,0.382019,0.922791
1470330586101019,-0.0460205,-0.00933838,0.381897,0.922974
1470330586123039,-0.0438232,-0.00854492,0.38147,0.923279
1470330586144687,-0.0438843,-0.00878906,0.381287,0.92334
1470330586160572,-0.0453491,-0.00952148,0.381104,0.92334
1470330586183092,-0.0463257,-0.0102539,0.38092,0.92334
1470330586204113,-0.0457764,-0.0101318,0.380676,0.923462
1470330586220630,-0.0446777,-0.00915527,0.380371,0.923645
1470330586243147,-0.0441895,-0.00842285,0.379883,0.923889
1470330586264167,-0.0444336,-0.00787354,0.379395,0.924072
1470330586280680,-0.0449219,-0.00732422,0.378906,0.924255
1470330586303202,-0.0454712,-0.00634766,0.378357,0.924438
1470330586324234,-0.0453491,-0.00561523,0.377625,0.924805
1470330586340734,-0.0457764,-0.00549316,0.377075,0.924988
1470330586363788,-0.0465088,-0.00512695,0.376709,0.92511
1470330586384304,-0.0467529,-0.00531006,0.376587,0.925171
1470330586400835,-0.0476685,-0.00653076,0.37616,0.925293
1470330586423318,-0.0482788,-0.00738525,0.375305,0.925598
1470330586444329,-0.0488892,-0.00762939,0.37384,0.926147
1470330586460842,-0.0498047,-0.00708008,0.372131,0.926758
1470330586483362,-0.0512085,-0.00604248,0.370117,0.92749
1470330586504382,-0.0535889,-0.00476074,0.367798,0.928284
1470330586519895,-0.0571289,-0.00341797,0.364929,0.92926
1470330586543422,-0.062439,-0.00238037,0.361633,0.930176
1470330586565958,-0.0687866,-0.000976563,0.358154,0.931091
1470330586579961,-0.0759277,-0.000305176,0.355164,0.931702
1470330586602989,-0.0818481,0.000793457,0.35199,0.932373
1470330586626027,-0.0864868,0.00201416,0.3479,0.933472
1470330586640009,-0.0890503,0.003479,0.343201,0.934998
1470330586663025,-0.0899658,0.0055542,0.338196,0.936707
1470330586685545,-0.0900269,0.00756836,0.33252,0.938721
1470330586700057,-0.090332,0.00921631,0.326355,0.940857
1470330586723077,-0.0904541,0.0106812,0.320129,0.942932
1470330586745597,-0.090332,0.0115356,0.313782,0.945068
1470330586760135,-0.0895386,0.0119019,0.30719,0.947327
1470330586783132,-0.0877075,0.0124512,0.30011,0.949768
1470330586805653,-0.085022,0.0128174,0.292664,0.952332
1470330586826684,-0.0823364,0.0124512,0.2854,0.954773
1470330586843186,-0.0808105,0.0106812,0.278198,0.957031
1470330586871715,-0.0796509,0.00805664,0.270935,0.959229
1470330586886787,-0.0786133,0.00537109,0.263611,0.961365
1470330586903239,-0.0775146,0.00250244,0.256348,0.96344
1470330586925760,-0.0778198,-0.000610352,0.249512,0.96521
1470330586946781,-0.0800781,-0.003479,0.242859,0.966675
1470330586963293,-0.0844727,-0.0057373,0.236633,0.967834
1470330586985817,-0.0908813,-0.0065918,0.231018,0.968628
1470330587006833,-0.098877,-0.00640869,0.226746,0.968872
1470330587023347,-0.10614,-0.00622559,0.22345,0.968872
1470330587045867,-0.11084,-0.00476074,0.220642,0.968994
1470330587066952,-0.113037,-0.00213623,0.217041,0.969543
1470330587082900,-0.113586,0.00109863,0.213806,0.970215
1470330587105921,-0.113892,0.00445557,0.211792,0.970642
1470330587126996,-0.115479,0.0065918,0.210571,0.970703
1470330587142954,-0.117432,0.00756836,0.209045,0.970764
1470330587165975,-0.118896,0.00793457,0.207397,0.970947
1470330587186535,-0.119751,0.00830078,0.206177,0.971069
1470330587203514,-0.120056,0.00915527,0.2052,0.971252
1470330587225530,-0.1203,0.00982666,0.204224,0.971436
1470330587246547,-0.12085,0.0100708,0.203491,0.971497
1470330587263062,-0.121521,0.0098877,0.203186,0.971497
1470330587285631,-0.122131,0.00964355,0.202942,0.971436
1470330587306602,-0.122559,0.00939941,0.202759,0.971436
1470330587324119,-0.12262,0.00915527,0.202576,0.971497
1470330587345637,-0.122742,0.0088501,0.202515,0.971497
1470330587366657,-0.123291,0.00836182,0.202576,0.971436
1470330587383171,-0.123779,0.00793457,0.202515,0.971375
1470330587405690,-0.124146,0.00762939,0.202271,0.971375
1470330587426710,-0.124451,0.00750732,0.201843,0.971436
1470330587443224,-0.124756,0.00738525,0.201477,0.971436
1470330587465744,-0.125244,0.00720215,0.201294,0.971436
1470330587488265,-0.125427,0.00701904,0.201172,0.971436
1470330587503278,-0.125549,0.00708008,0.201111,0.971436
1470330587525799,-0.12561,0.00720215,0.200989,0.971436
1470330587548319,-0.125793,0.00738525,0.200867,0.971436
1470330587562331,-0.12616,0.00756836,0.200806,0.971436
1470330587585873,-0.12616,0.00775146,0.200867,0.971375
1470330587608401,-0.126038,0.00805664,0.200989,0.971375
1470330587622885,-0.125671,0.00830078,0.200928,0.971436
1470330587651984,-0.12561,0.00830078,0.200928,0.971436
1470330587668426,-0.125793,0.00811768,0.200867,0.971436
1470330587682444,-0.126221,0.00799561,0.200806,0.971375
1470330587705960,-0.126465,0.00793457,0.200623,0.971436
1470330587728481,-0.126648,0.00793457,0.200378,0.971436
1470330587742495,-0.126953,0.00799561,0.200134,0.971436
1470330587765514,-0.127502,0.00799561,0.199707,0.971436
1470330587788036,-0.128174,0.00805664,0.19928,0.971436
1470330587802548,-0.128845,0.00817871,0.198853,0.971436
1470330587825569,-0.129333,0.00836182,0.198425,0.971497
1470330587848088,-0.129517,0.00878906,0.197998,0.971558
1470330587862608,-0.129639,0.00939941,0.197571,0.971619
1470330587885623,-0.129578,0.00982666,0.197083,0.97168
1470330587908163,-0.129944,0.0102539,0.196716,0.971741
1470330587922655,-0.130676,0.010498,0.19635,0.97168
1470330587945675,-0.131104,0.0108032,0.195984,0.97168
1470330587968197,-0.131348,0.0110474,0.195679,0.971741
1470330587989227,-0.131653,0.0112305,0.195435,0.971741
1470330588005728,-0.13208,0.0113525,0.195313,0.971741
1470330588028249,-0.132568,0.0112915,0.19519,0.97168
1470330588033779,-0.132874,0.0112915,0.195068,0.97168
1470330588051771,-0.132813,0.0112915,0.195068,0.97168
1470330588071287,-0.132813,0.0112915,0.195068,0.97168
1470330588093831,-0.132813,0.0112915,0.195068,0.97168
1470330588111937,-0.132813,0.0112915,0.195068,0.97168
1470330588138851,-0.132813,0.0112915,0.195068,0.97168
1470330588153861,-0.132813,0.0112915,0.195068,0.97168
1470330588171378,-0.133057,0.0113525,0.19519,0.971619
1470330588191396,-0.133362,0.0112915,0.19519,0.971558
1470330588213951,-0.133362,0.0112915,0.19519,0.971558
1470330588231491,-0.133362,0.0112915,0.19519,0.971558
1470330588251576,-0.133423,0.0112915,0.19519,0.971558
1470330588273970,-0.133362,0.0112915,0.19519,0.971558
1470330588291516,-0.133118,0.0111694,0.195313,0.971558
1470330588311059,-0.132813,0.0109863,0.195374,0.971619
1470330588334028,-0.132996,0.0106812,0.195313,0.971619
1470330588351539,-0.133118,0.010376,0.195251,0.971619
1470330588371557,-0.133179,0.0100098,0.195313,0.971558
1470330588393579,-0.133362,0.00964355,0.195435,0.971558
1470330588411594,-0.133301,0.00939941,0.195435,0.971558
1470330588431111,-0.133362,0.00921631,0.195435,0.971558
1470330588453659,-0.133789,0.00878906,0.195496,0.971436
1470330588471649,-0.134583,0.00799561,0.195679,0.971313
1470330588491165,-0.135132,0.00738525,0.195801,0.971252
1470330588513738,-0.135193,0.00708008,0.195862,0.971191
1470330588531740,-0.134766,0.0067749,0.195862,0.971252
1470330588551274,-0.13501,0.00598145,0.19574,0.971252
1470330588573739,-0.135681,0.00518799,0.195801,0.971191
1470330588591755,-0.135986,0.00476074,0.195862,0.97113
1470330588611274,-0.135742,0.00445557,0.195923,0.97113
1470330588633795,-0.135132,0.0045166,0.196167,0.971191
1470330588651815,-0.134399,0.00463867,0.196411,0.971252
1470330588671326,-0.134094,0.00463867,0.196533,0.971252
1470330588695348,-0.134094,0.00463867,0.196533,0.971252
1470330588711365,-0.134094,0.00463867,0.196533,0.971252
1470330588731380,-0.134338,0.00445557,0.196533,0.971191
1470330588753901,-0.134583,0.00427246,0.196533,0.971191
1470330588775920,-0.134827,0.00415039,0.19635,0.971191
1470330588791469,-0.135132,0.00408936,0.196045,0.971191
1470330588813454,-0.135498,0.00415039,0.19574,0.971191
1470330588831471,-0.13623,0.00408936,0.195435,0.971191
1470330588852489,-0.137146,0.00408936,0.19519,0.971069
1470330588874508,-0.137939,0.00408936,0.195007,0.971008
1470330588891525,-0.138306,0.00427246,0.194885,0.971008
1470330588911041,-0.138611,0.0043335,0.194824,0.970947
1470330588933592,-0.139038,0.00439453,0.194763,0.970886
1470330588952082,-0.139709,0.00439453,0.194702,0.970825
1470330588972615,-0.140381,0.0045166,0.194641,0.970764
1470330588993620,-0.140625,0.00488281,0.194641,0.970703
1470330589011652,-0.14093,0.00506592,0.194519,0.970703
1470330589032652,-0.141418,0.00512695,0.194458,0.970642
1470330589053671,-0.141968,0.00537109,0.194397,0.97052
1470330589071721,-0.141968,0.0055542,0.194336,0.970581
1470330589092705,-0.141296,0.00622559,0.194214,0.970642
1470330589113754,-0.141052,0.0067749,0.194092,0.970764
1470330589131741,-0.14093,0.00701904,0.19397,0.970764
1470330589152760,-0.141296,0.00714111,0.193909,0.970703
1470330589173861,-0.141479,0.00732422,0.193787,0.970703
1470330589191294,-0.141602,0.00750732,0.193542,0.970764
1470330589212820,-0.141602,0.0078125,0.19342,0.970764
1470330589233833,-0.141602,0.00811768,0.193298,0.970825
1470330589251349,-0.141724,0.00836182,0.193237,0.970764
1470330589272868,-0.141907,0.00860596,0.193237,0.970764
1470330589293886,-0.141968,0.00878906,0.193115,0.970764
1470330589311404,-0.142212,0.0090332,0.193054,0.970764
1470330589332427,-0.142395,0.00921631,0.192993,0.970764
1470330589354061,-0.142578,0.00933838,0.192871,0.970703
1470330589371461,-0.142578,0.00958252,0.192749,0.970764
1470330589394012,-0.142578,0.00970459,0.192566,0.970764
1470330589413549,-0.142578,0.00976563,0.192566,0.970764
1470330589431509,-0.142822,0.00982666,0.192505,0.970764
1470330589454567,-0.143188,0.00982666,0.192383,0.970764
1470330589473548,-0.143494,0.00976563,0.1922,0.970703
1470330589491563,-0.143799,0.00976563,0.192017,0.970703
1470330589514083,-0.144104,0.00982666,0.191833,0.970703
1470330589533619,-0.144226,0.0100098,0.191589,0.970764
1470330589551644,-0.144287,0.0102539,0.191406,0.970764
1470330589574158,-0.144653,0.010376,0.191223,0.970764
1470330589593659,-0.145081,0.010437,0.190979,0.970764
1470330589611701,-0.145508,0.0105591,0.190735,0.970703
1470330589634193,-0.145874,0.0106201,0.190552,0.970703
1470330589653738,-0.146118,0.0108032,0.19043,0.970703
1470330589671725,-0.146362,0.0108643,0.190186,0.970703
1470330589694246,-0.146606,0.0109863,0.190002,0.970703
1470330589713763,-0.147095,0.0109863,0.189819,0.970642
1470330589731836,-0.147339,0.0109863,0.189697,0.970642
1470330589754318,-0.147827,0.0110474,0.189514,0.970581
1470330589773817,-0.148254,0.0112305,0.189392,0.97052
1470330589791837,-0.148682,0.0113525,0.189209,0.97052
1470330589813867,-0.149109,0.0114746,0.189087,0.970459
1470330589833871,-0.149414,0.0115967,0.188904,0.970459
1470330589851887,-0.14978,0.0116577,0.188782,0.970398
1470330589873907,-0.150146,0.0117188,0.188599,0.970398
1470330589893925,-0.150574,0.0117188,0.188477,0.970337
1470330589911442,-0.150818,0.0117798,0.188354,0.970337
1470330589933985,-0.150818,0.0117798,0.188354,0.970337
1470330589953487,-0.150818,0.0117798,0.188354,0.970337
1470330589971496,-0.150818,0.0117798,0.188354,0.970337
1470330589994520,-0.150818,0.0117798,0.188354,0.970337
1470330590015036,-0.150818,0.0117798,0.188354,0.970337
1470330590031565,-0.150818,0.0118408,0.188354,0.970337
1470330590054068,-0.151062,0.0118408,0.188293,0.970337
1470330590075124,-0.151062,0.0118408,0.188293,0.970337
1470330590091608,-0.151123,0.0118408,0.188293,0.970337
1470330590114122,-0.151123,0.0118408,0.188293,0.970337
1470330590136643,-0.151123,0.0118408,0.188293,0.970337
1470330590151656,-0.151123,0.0118408,0.188293,0.970337
1470330590174210,-0.151123,0.0118408,0.188293,0.970337
1470330590195199,-0.151184,0.0118408,0.188293,0.970337
1470330590211714,-0.151184,0.0118408,0.188293,0.970337
1470330590234229,-0.151489,0.0119629,0.188171,0.970276
1470330590255253,-0.151855,0.012085,0.18811,0.970215
1470330590271854,-0.151855,0.012085,0.18811,0.970215
1470330590294296,-0.151855,0.012085,0.18811,0.970215
1470330590316820,-0.151917,0.012085,0.18811,0.970215
1470330590331833,-0.152161,0.012207,0.188049,0.970215
1470330590353838,-0.152466,0.0123291,0.187927,0.970154
1470330590376858,-0.152771,0.0124512,0.187805,0.970154
1470330590391372,-0.153137,0.0125122,0.187744,0.970093
1470330590414430,-0.153564,0.0125732,0.187561,0.970032
1470330590436927,-0.153931,0.0126953,0.1875,0.970032
1470330590451425,-0.154236,0.0128174,0.187378,0.969971
1470330590473946,-0.154236,0.0128174,0.187378,0.969971
1470330590495507,-0.154236,0.0128174,0.187378,0.969971
1470330590516985,-0.154419,0.0128174,0.187256,0.969971
1470330590533521,-0.154724,0.0128784,0.187195,0.969971
1470330590555519,-0.155029,0.0128174,0.187073,0.96991
1470330590577038,-0.15509,0.0128174,0.187073,0.96991
1470330590593052,-0.15509,0.0128174,0.187073,0.96991
1470330590623080,-0.15509,0.0128784,0.187134,0.96991
1470330590637141,-0.15509,0.0128784,0.187134,0.96991
1470330590653106,-0.155151,0.0128784,0.187134,0.96991
1470330590675627,-0.155151,0.0128784,0.187134,0.96991
1470330590690140,-0.155151,0.0128784,0.187134,0.96991
1470330590713160,-0.155151,0.0128784,0.187134,0.96991
1470330590735685,-0.155151,0.0129395,0.187134,0.96991
1470330590756715,-0.155151,0.0129395,0.187134,0.96991
1470330590773215,-0.155151,0.0129395,0.187134,0.96991
1470330590795734,-0.155151,0.0129395,0.187134,0.96991
1470330590810248,-0.155212,0.0129395,0.187134,0.96991
1470330590833268,-0.155212,0.0129395,0.187134,0.969849
1470330590855788,-0.155212,0.0130005,0.187134,0.969849
1470330590876807,-0.155273,0.0130005,0.187134,0.969849
1470330590893322,-0.155273,0.0130005,0.187134,0.969849
1470330590915845,-0.155334,0.0130005,0.187134,0.969849
1470330590944372,-0.155334,0.0130615,0.187134,0.969849
1470330590953391,-0.155334,0.0130615,0.187134,0.969849
1470330590975935,-0.155396,0.0130615,0.187134,0.969849
1470330590996915,-0.155396,0.0130615,0.187134,0.969849
1470330591013430,-0.155396,0.0130615,0.187134,0.969849
1470330591035951,-0.155457,0.0130615,0.187134,0.969849
1470330591056969,-0.155457,0.0131226,0.187134,0.969849
1470330591072983,-0.155457,0.0131226,0.187134,0.969849
1470330591096004,-0.155518,0.0131226,0.187134,0.969849
1470330591117023,-0.155518,0.0131226,0.187134,0.969849
1470330591133038,-0.155579,0.0133667,0.187195,0.969788
1470330591155557,-0.155701,0.0135498,0.187195,0.969788
1470330591177167,-0.155884,0.0137939,0.187256,0.969727
1470330591193091,-0.156067,0.0140991,0.187317,0.969666
1470330591215611,-0.156189,0.0145264,0.1875,0.969604
1470330591237130,-0.156372,0.0147705,0.187561,0.969604
1470330591253162,-0.156372,0.0147705,0.187561,0.969604
1470330591275665,-0.156372,0.0148315,0.187561,0.969604
1470330591298185,-0.156372,0.0148315,0.187561,0.969604
1470330591312699,-0.156433,0.0148315,0.187561,0.969604
1470330591335720,-0.156433,0.0148315,0.187561,0.969543
1470330591358295,-0.156738,0.0148315,0.1875,0.969543
1470330591373254,-0.156738,0.0148315,0.1875,0.969543
1470330591395792,-0.156738,0.0148315,0.1875,0.969543
1470330591418295,-0.156799,0.0148315,0.1875,0.969543
1470330591432810,-0.156799,0.0148926,0.1875,0.969543
1470330591455827,-0.156799,0.0148926,0.1875,0.969543
1470330591478347,-0.15686,0.0148926,0.1875,0.969482
1470330591492860,-0.15686,0.0148926,0.1875,0.969482
1470330591515881,-0.15686,0.0148926,0.1875,0.969482
1470330591538443,-0.15686,0.0148926,0.1875,0.969482
1470330591552466,-0.156921,0.0149536,0.1875,0.969482
1470330591575942,-0.156921,0.0149536,0.187561,0.969482
1470330591598454,-0.156921,0.0149536,0.187561,0.969482
1470330591612488,-0.156982,0.0149536,0.187561,0.969482
1470330591635989,-0.156982,0.0149536,0.187561,0.969482
1470330591658011,-0.156982,0.0150146,0.187561,0.969482
1470330591672522,-0.156982,0.0150146,0.187561,0.969482
1470330591695542,-0.156982,0.0150146,0.187561,0.969482
1470330591718096,-0.157043,0.0150146,0.187561,0.969482
1470330591732575,-0.157043,0.0150146,0.187561,0.969482
1470330591755596,-0.157043,0.0150146,0.187561,0.969482
1470330591778116,-0.157104,0.0150146,0.187561,0.969482
1470330591799636,-0.157104,0.0150146,0.187561,0.969482
1470330591815652,-0.157104,0.0150146,0.187561,0.969482
1470330591838172,-0.157166,0.0150146,0.187561,0.969482
1470330591859249,-0.157166,0.0150146,0.187561,0.969482
1470330591875706,-0.157166,0.0150146,0.187561,0.969482
1470330591898225,-0.157166,0.0150757,0.187561,0.969482
1470330591919245,-0.157166,0.0150757,0.187561,0.969421
1470330591935761,-0.157166,0.0150757,0.187561,0.969421
1470330591958278,-0.157166,0.0150757,0.187561,0.969421
1470330591979345,-0.157227,0.0150757,0.187561,0.969421
1470330591995814,-0.157288,0.0150757,0.187561,0.969421
1470330592018334,-0.157288,0.0150757,0.187561,0.969421
1470330592039367,-0.157349,0.0151367,0.187561,0.969421
1470330592055866,-0.157349,0.0151367,0.187561,0.969421
1470330592078401,-0.157654,0.0151978,0.187439,0.96936
1470330592099404,-0.157654,0.0151978,0.187439,0.96936
1470330592115920,-0.157715,0.0151978,0.187439,0.96936
1470330592138439,-0.157715,0.0151978,0.187439,0.96936
1470330592159458,-0.157776,0.0152588,0.187439,0.96936
1470330592175973,-0.157776,0.0152588,0.187439,0.96936
1470330592197998,-0.157776,0.0153198,0.187439,0.96936
1470330592221016,-0.157776,0.0153198,0.187439,0.96936
1470330592236029,-0.157837,0.0153198,0.187439,0.96936
1470330592258047,-0.157837,0.0153198,0.187439,0.96936
1470330592280569,-0.157898,0.0153198,0.187439,0.96936
1470330592295581,-0.15802,0.0155029,0.187561,0.969299
1470330592318101,-0.158447,0.0158081,0.187683,0.969177
1470330592341124,-0.158997,0.0160522,0.187683,0.969116
1470330592355635,-0.159546,0.0164185,0.187561,0.969055
1470330592378157,-0.159912,0.0168457,0.187439,0.968994
1470330592400675,-0.160095,0.0172119,0.187378,0.968994
1470330592415188,-0.1604,0.0174561,0.187317,0.968933
1470330592438209,-0.160645,0.0177612,0.187256,0.968872
1470330592460845,-0.160645,0.0177612,0.187256,0.968872
1470330592475260,-0.160645,0.0178223,0.187256,0.968872
1470330592498263,-0.160706,0.0178223,0.187256,0.968872
1470330592520783,-0.160706,0.0178833,0.187256,0.968872
1470330592535297,-0.160706,0.0178833,0.187256,0.968872
1470330592558316,-0.160767,0.0178833,0.187256,0.968872
1470330592580839,-0.160767,0.0178833,0.187256,0.968872
1470330592595351,-0.160767,0.0179443,0.187256,0.968872
1470330592618371,-0.160767,0.0179443,0.187256,0.968872
1470330592640894,-0.161194,0.0181274,0.187256,0.968811
1470330592655410,-0.161438,0.0182495,0.187256,0.96875
1470330592678426,-0.161804,0.0183105,0.187195,0.968689
1470330592700945,-0.161865,0.0185547,0.187073,0.968689
1470330592721966,-0.161865,0.0187988,0.18689,0.96875
1470330592738519,-0.161865,0.0188599,0.18689,0.96875
1470330592760998,-0.161865,0.0189209,0.18689,0.96875
1470330592782018,-0.161865,0.0189209,0.18689,0.96875
1470330592798032,-0.161865,0.0189209,0.18689,0.96875
1470330592820581,-0.161926,0.0189209,0.18689,0.96875
1470330592842071,-0.161926,0.0189209,0.18689,0.96875
1470330592858586,-0.161987,0.0189209,0.18689,0.968689
1470330592880619,-0.162231,0.0194092,0.186951,0.968628
1470330592902131,-0.162537,0.0203857,0.187195,0.968506
1470330592918140,-0.163025,0.0210571,0.187561,0.968384
1470330592940660,-0.163269,0.0214844,0.187683,0.968262
1470330592962179,-0.16333,0.0214844,0.187683,0.968262
1470330592978193,-0.163025,0.0215454,0.187561,0.968384
1470330593000715,-0.163025,0.0212402,0.187378,0.968384
1470330593021761,-0.163208,0.020874,0.187256,0.968384
1470330593038256,-0.163147,0.0206909,0.187012,0.968445
1470330593060787,-0.163086,0.0205688,0.186829,0.968506
1470330593081787,-0.163025,0.0204468,0.186646,0.968567
1470330593098303,-0.162903,0.0204468,0.186462,0.968628
1470330593120823,-0.162781,0.0205078,0.186218,0.968689
1470330593141934,-0.162781,0.0204468,0.186035,0.968689
1470330593158356,-0.162781,0.0203247,0.18573,0.968811
1470330593180879,-0.162842,0.0202026,0.185486,0.968811
1470330593203396,-0.162964,0.0200195,0.185303,0.968811
1470330593218412,-0.162964,0.0200195,0.185303,0.968811
1470330593240930,-0.162964,0.0198975,0.185181,0.968872
1470330593263451,-0.163147,0.0197144,0.18512,0.968872
1470330593278463,-0.163208,0.0194702,0.18512,0.968872
1470330593300599,-0.163147,0.0193481,0.185059,0.968872
1470330593323504,-0.162964,0.0192261,0.184998,0.968933
1470330593338019,-0.162964,0.0192261,0.184998,0.968933
1470330593360571,-0.162964,0.0192261,0.184998,0.968933
1470330593383558,-0.162781,0.019165,0.184937,0.968933
1470330593397570,-0.162781,0.0192261,0.184937,0.968933
1470330593421091,-0.16272,0.0192261,0.184937,0.968933
1470330593443113,-0.162781,0.0192261,0.184937,0.968933
1470330593457624,-0.162781,0.0192261,0.184937,0.968933
1470330593480645,-0.162598,0.0192871,0.184998,0.968994
1470330593503167,-0.162415,0.0194092,0.185059,0.968994
1470330593517678,-0.16217,0.0195313,0.184998,0.969055
1470330593540698,-0.162231,0.0195313,0.184998,0.969055
1470330593563219,-0.16217,0.0195923,0.185059,0.969055
1470330593577732,-0.16217,0.0195923,0.185059,0.968994
1470330593600756,-0.162048,0.0195313,0.185059,0.969055
1470330593623774,-0.162048,0.0195313,0.185059,0.969055
1470330593638287,-0.162048,0.0195313,0.185059,0.969055
1470330593660807,-0.162048,0.0195313,0.185059,0.969055
1470330593683327,-0.161804,0.0194702,0.185059,0.969116
1470330593704405,-0.161804,0.0194702,0.185059,0.969116
1470330593720861,-0.161804,0.0194702,0.185059,0.969116
1470330593743408,-0.161804,0.0195313,0.185059,0.969116
1470330593764400,-0.161804,0.0195313,0.185059,0.969116
1470330593780942,-0.161804,0.0195313,0.185059,0.969055
1470330593803481,-0.161499,0.0194702,0.18512,0.969116
1470330593824492,-0.161316,0.0194702,0.185242,0.969116
1470330593840969,-0.161194,0.0193481,0.185425,0.969116
1470330593863490,-0.161011,0.0192261,0.18573,0.969116
1470330593884508,-0.160278,0.0189819,0.186157,0.969116
1470330593900522,-0.159546,0.0186768,0.186584,0.969177
1470330593923543,-0.158875,0.0180664,0.187073,0.969238
1470330593944562,-0.158325,0.0174561,0.187439,0.969238
1470330593967121,-0.157898,0.0169678,0.187744,0.969238
1470330593983596,-0.157654,0.0166016,0.187927,0.969299
1470330594004615,-0.157471,0.0163574,0.188049,0.969299
1470330594020629,-0.15741,0.0160522,0.18811,0.969299
1470330594043150,-0.15741,0.0160522,0.18811,0.969299
1470330594064669,-0.157471,0.0160522,0.18811,0.969299
1470330594080683,-0.157471,0.0160522,0.18811,0.969299
1470330594103204,-0.15741,0.0160522,0.18811,0.969299
1470330594125727,-0.15741,0.0160522,0.18811,0.969299
1470330594140738,-0.15741,0.0160522,0.18811,0.969299
1470330594163267,-0.15741,0.0160522,0.18811,0.969299
1470330594185797,-0.15741,0.0160522,0.18811,0.969299
1470330594200807,-0.15741,0.0160522,0.18811,0.969299
1470330594223312,-0.15741,0.0160522,0.18811,0.969299
1470330594245833,-0.15741,0.0160522,0.18811,0.969299
1470330594260858,-0.15741,0.0160522,0.18811,0.969299
1470330594283367,-0.15741,0.0160522,0.18811,0.969299
1470330594306402,-0.157471,0.0160522,0.18811,0.969299
1470330594319899,-0.157471,0.0160522,0.18811,0.969299
1470330594343420,-0.157471,0.0160522,0.18811,0.969299
1470330594365939,-0.157471,0.0160522,0.18811,0.969299
1470330594379955,-0.157471,0.0160522,0.18811,0.969299
1470330594403490,-0.157471,0.0160522,0.18811,0.969299
1470330594425996,-0.157471,0.0160522,0.18811,0.969299
1470330594440007,-0.157471,0.0160522,0.18811,0.969299
1470330594463027,-0.157471,0.0160522,0.18811,0.969299
1470330594486048,-0.157471,0.0160522,0.18811,0.969299
1470330594500094,-0.157471,0.0160522,0.188049,0.969299
1470330594523581,-0.157471,0.0160522,0.188049,0.969299
1470330594546101,-0.157532,0.0159912,0.188049,0.969299
1470330594560114,-0.157532,0.0159912,0.188049,0.969299
1470330594583138,-0.157532,0.0159912,0.188049,0.969299
1470330594605655,-0.157532,0.0159912,0.188049,0.969299
1470330594627179,-0.157532,0.0159912,0.188049,0.969299
1470330594643189,-0.157532,0.0160522,0.188049,0.969299
1470330594665712,-0.157532,0.0160522,0.188049,0.969299
1470330594686799,-0.157593,0.0160522,0.188049,0.969238
1470330594703243,-0.157593,0.0160522,0.188049,0.969238
1470330594725763,-0.157593,0.0159912,0.188049,0.969238
1470330594747286,-0.157593,0.0161743,0.188049,0.969299
1470330594763297,-0.157593,0.0161743,0.188049,0.969299
1470330594785822,-0.157654,0.0161743,0.187988,0.969238
1470330594806836,-0.157654,0.0161743,0.188049,0.969238
1470330594823890,-0.157654,0.0161743,0.188049,0.969238
1470330594845870,-0.157654,0.0161743,0.188049,0.969238
1470330594866908,-0.157654,0.0161743,0.188049,0.969238
1470330594883404,-0.157654,0.0162354,0.188049,0.969238
1470330594905924,-0.157715,0.0162354,0.188049,0.969238
1470330594926988,-0.157715,0.0162354,0.188049,0.969238
1470330594943959,-0.157715,0.0162354,0.188049,0.969238
1470330594965981,-0.157715,0.0162354,0.188049,0.969238
1470330594987063,-0.157776,0.0162354,0.188049,0.969238
1470330595003028,-0.157776,0.0162354,0.188049,0.969238
1470330595026044,-0.157776,0.0162354,0.188049,0.969238
1470330595047078,-0.157776,0.0162354,0.188049,0.969238
1470330595063566,-0.157776,0.0162354,0.188049,0.969238
1470330595086086,-0.157776,0.0162354,0.188049,0.969238
1470330595108625,-0.157776,0.0162354,0.188049,0.969238
1470330595123620,-0.157837,0.0162964,0.188049,0.969238
1470330595145668,-0.157837,0.0162964,0.188049,0.969238
1470330595168161,-0.157837,0.0162964,0.188049,0.969238
1470330595183174,-0.157837,0.0162964,0.188049,0.969238
1470330595205693,-0.157837,0.0162964,0.188049,0.969238
1470330595228241,-0.157837,0.0162964,0.188049,0.969238
1470330595242727,-0.157837,0.0163574,0.188049,0.969238
1470330595265750,-0.157898,0.0163574,0.188049,0.969238
1470330595288268,-0.157898,0.0163574,0.188049,0.969238
1470330595302782,-0.157898,0.0163574,0.188049,0.969238
1470330595325801,-0.157898,0.0163574,0.188049,0.969238
1470330595348322,-0.157898,0.0163574,0.188049,0.969238
1470330595362839,-0.157898,0.0163574,0.188049,0.969238
1470330595385857,-0.157898,0.0164185,0.188049,0.969238
1470330595408378,-0.157898,0.0164185,0.188049,0.969238
1470330595422890,-0.157959,0.0164185,0.188049,0.969177
1470330595445912,-0.157959,0.0164185,0.188049,0.969177
1470330595468430,-0.157959,0.0164185,0.188049,0.969177
1470330595482942,-0.157959,0.0164185,0.188049,0.969177
1470330595505963,-0.157959,0.0164185,0.188049,0.969177
1470330595528486,-0.15802,0.0164185,0.188049,0.969177
1470330595542997,-0.15802,0.0164185,0.188049,0.969177
1470330595566055,-0.15802,0.0164185,0.188049,0.969177
1470330595588538,-0.157837,0.0165405,0.188049,0.969238
1470330595594042,-0.157837,0.0165405,0.188049,0.969238
1470330595616144,-0.157837,0.0165405,0.188049,0.969238
1470330595631650,-0.157837,0.0165405,0.188049,0.969238
1470330595653651,-0.157837,0.0165405,0.188049,0.969238
1470330595671667,-0.157532,0.0166626,0.188049,0.969238
1470330595698686,-0.157349,0.0167847,0.188171,0.969299
1470330595713694,-0.157349,0.0167847,0.188171,0.969238
1470330595731681,-0.157776,0.0166016,0.188171,0.969177
1470330595751271,-0.159241,0.0161133,0.188232,0.968933
1470330595773749,-0.161987,0.0150146,0.188416,0.968506
1470330595796281,-0.165894,0.0131836,0.18866,0.967834
1470330595811238,-0.169556,0.0117188,0.189148,0.967102
1470330595833790,-0.171143,0.0113525,0.189575,0.966736
1470330595856309,-0.170593,0.0118408,0.189819,0.966797
1470330595871320,-0.169006,0.0126343,0.190063,0.96698
1470330595893855,-0.167847,0.0132446,0.19043,0.967102
1470330595916384,-0.167664,0.0134277,0.190735,0.967102
1470330595931378,-0.167419,0.0135498,0.190918,0.967102
1470330595953892,-0.166443,0.0137939,0.190979,0.967224
1470330595971961,-0.165283,0.0142212,0.190979,0.967468
1470330595991451,-0.164429,0.0144653,0.19104,0.96759
1470330596013921,-0.164124,0.0144653,0.191223,0.96759
1470330596031936,-0.163818,0.0144653,0.191345,0.96759
1470330596051453,-0.163452,0.0144653,0.191467,0.967651
1470330596073974,-0.162903,0.0145264,0.191467,0.967773
1470330596091990,-0.162231,0.0147095,0.191406,0.967834
1470330596111508,-0.161743,0.0150757,0.191345,0.967957
1470330596134027,-0.161377,0.015564,0.191284,0.968018
1470330596151571,-0.161133,0.0161743,0.191284,0.968079
1470330596171611,-0.160767,0.0167847,0.191162,0.96814
1470330596193644,-0.160339,0.0174561,0.19104,0.968201
1470330596216132,-0.15979,0.0180054,0.190918,0.968323
1470330596231186,-0.159363,0.0183716,0.190857,0.968384
1470330596255164,-0.158813,0.0186157,0.190796,0.968506
1470330596271680,-0.158386,0.0186768,0.190857,0.968567
1470330596291221,-0.15802,0.0186768,0.190918,0.968567
1470330596313790,-0.157654,0.0187378,0.19104,0.968628
1470330596331799,-0.157227,0.0187378,0.191223,0.968689
1470330596351250,-0.156799,0.0187378,0.191284,0.968689
1470330596373797,-0.156616,0.0186768,0.191406,0.96875
1470330596391814,-0.156433,0.0185547,0.191467,0.96875
1470330596411323,-0.156433,0.0185547,0.191467,0.96875
1470330596433864,-0.156494,0.0186157,0.191467,0.96875
1470330596451950,-0.156494,0.0185547,0.191467,0.96875
1470330596471359,-0.156494,0.0186157,0.191467,0.96875
1470330596493968,-0.156494,0.0186157,0.191467,0.96875
1470330596516430,-0.156494,0.0186157,0.191467,0.96875
1470330596531459,-0.156494,0.0186157,0.191467,0.96875
1470330596553933,-0.156494,0.0186157,0.191467,0.96875
1470330596571949,-0.156494,0.0186157,0.191467,0.96875
1470330596591466,-0.156494,0.0186157,0.191467,0.96875
1470330596613987,-0.156494,0.0186157,0.191467,0.96875
1470330596631501,-0.156494,0.0186768,0.191467,0.96875
1470330596653146,-0.156494,0.0186768,0.191467,0.96875
1470330596674041,-0.156494,0.0186768,0.191467,0.96875
1470330596691557,-0.156494,0.0186768,0.191467,0.96875
1470330596712575,-0.156555,0.0186768,0.191467,0.96875
1470330596733609,-0.15741,0.0183716,0.191345,0.968628
1470330596751610,-0.158997,0.0178223,0.191162,0.968384
1470330596778639,-0.161682,0.0167236,0.191345,0.967957
1470330596794149,-0.16571,0.0148315,0.191711,0.967224
1470330596816248,-0.170532,0.0124512,0.192322,0.966309
1470330596832683,-0.174805,0.010498,0.192749,0.965454
1470330596853746,-0.178101,0.00897217,0.193359,0.964722
1470330596876278,-0.180603,0.00848389,0.194519,0.96405
1470330596892738,-0.182312,0.00915527,0.195984,0.96344
1470330596913785,-0.18335,0.0110474,0.197571,0.962891
1470330596936276,-0.184875,0.0142212,0.199463,0.962158
1470330596954292,-0.18811,0.0183105,0.201965,0.960938
1470330596973811,-0.192566,0.0233154,0.205017,0.959351
1470330596996347,-0.196594,0.0293579,0.208252,0.957642
1470330597020351,-0.2005,0.036499,0.212524,0.955627
1470330597033956,-0.205872,0.0446777,0.218323,0.95282
1470330597056410,-0.213074,0.0534668,0.224854,0.94928
1470330597073899,-0.219543,0.0628052,0.231018,0.94574
1470330597093917,-0.223633,0.0740967,0.237793,0.942261
1470330597116460,-0.226868,0.0860596,0.244995,0.93866
1470330597134530,-0.230591,0.0981445,0.252686,0.934509
1470330597153973,-0.235352,0.110046,0.260742,0.929749
1470330597176492,-0.241272,0.121338,0.269348,0.924377
1470330597194007,-0.24762,0.13269,0.278076,0.918518
1470330597214079,-0.253357,0.144043,0.286255,0.91272
1470330597236652,-0.258118,0.15564,0.293945,0.907043
1470330597254061,-0.261719,0.167847,0.301331,0.901367
1470330597274135,-0.265015,0.180542,0.308533,0.895508
1470330597297619,-0.268188,0.193298,0.315674,0.889404
1470330597314143,-0.271729,0.205566,0.322998,0.882935
1470330597334148,-0.275635,0.217163,0.330322,0.87616
1470330597356198,-0.279785,0.228516,0.33728,0.869324
1470330597374169,-0.283752,0.239807,0.343933,0.862305
1470330597393723,-0.287292,0.25116,0.350403,0.855286
1470330597416206,-0.291016,0.262024,0.356873,0.848083
1470330597434298,-0.295532,0.272461,0.363403,0.840454
1470330597453764,-0.300537,0.282593,0.369629,0.83252
1470330597476292,-0.305725,0.292542,0.375671,0.824463
1470330597494321,-0.310974,0.302124,0.38147,0.816345
1470330597513829,-0.315674,0.311401,0.386963,0.808411
1470330597536342,-0.319946,0.320068,0.392212,0.800842
1470330597561893,-0.323914,0.328247,0.397339,0.793335
1470330597577852,-0.327881,0.335938,0.402405,0.785889
1470330597596368,-0.332336,0.343018,0.407227,0.778503
1470330597613884,-0.336975,0.349487,0.412231,0.770874
1470330597635404,-0.341675,0.355469,0.417175,0.763428
1470330597656422,-0.34613,0.357666,0.421814,0.757813
1470330597674438,-0.35144,0.363647,0.424011,0.751282
1470330597695457,-0.356628,0.368042,0.426453,0.7453
1470330597716476,-0.359863,0.369873,0.430359,0.74054
1470330597733992,-0.364868,0.372498,0.43335,0.735046
1470330597755511,-0.369995,0.374939,0.43512,0.730164
1470330597776532,-0.375061,0.376709,0.436646,0.725708
1470330597794049,-0.380371,0.377686,0.43866,0.721191
1470330597815065,-0.385864,0.378113,0.44104,0.716614
1470330597839089,-0.391113,0.378479,0.442627,0.712585
1470330597854674,-0.395447,0.379028,0.443481,0.709351
1470330597879125,-0.399414,0.379028,0.444336,0.706543
1470330597896137,-0.403137,0.378723,0.44519,0.704102
1470330597914156,-0.405457,0.378479,0.446228,0.702271
1470330597936676,-0.405945,0.379761,0.446777,0.700928
1470330597956207,-0.406677,0.381287,0.447693,0.699097
1470330597974224,-0.407654,0.381104,0.448608,0.698059
1470330598004739,-0.409302,0.380005,0.449158,0.697327
1470330598016259,-0.410034,0.379761,0.449036,0.697083
1470330598034294,-0.410095,0.380371,0.448914,0.696838
1470330598056782,-0.410461,0.381226,0.448608,0.696289
1470330598076803,-0.410889,0.381836,0.448608,0.69574
1470330598093332,-0.411499,0.382874,0.448364,0.695007
1470330598115836,-0.411682,0.384521,0.447754,0.694336
1470330598136854,-0.411316,0.387451,0.44696,0.693481
1470330598153368,-0.410767,0.39032,0.446228,0.692566
1470330598175899,-0.410522,0.39325,0.445679,0.691467
1470330598197419,-0.41095,0.395874,0.445129,0.690063
1470330598213422,-0.411987,0.398804,0.444519,0.688171
1470330598235956,-0.412964,0.401917,0.443665,0.686279
1470330598256961,-0.41394,0.405151,0.442688,0.684448
1470330598273476,-0.415039,0.408752,0.441284,0.682556
1470330598295996,-0.415833,0.412659,0.439575,0.680786
1470330598317016,-0.41626,0.417053,0.437805,0.679016
1470330598333530,-0.416382,0.421204,0.436279,0.677368
1470330598356050,-0.416626,0.424622,0.434753,0.676086
1470330598377070,-0.417236,0.427063,0.433533,0.674988
1470330598393602,-0.417969,0.429138,0.432556,0.673767
1470330598415626,-0.418396,0.431335,0.431763,0.672607
1470330598437212,-0.418518,0.433594,0.430969,0.671631
1470330598453137,-0.418518,0.43573,0.430115,0.670776
1470330598475658,-0.41864,0.437622,0.429504,0.6698
1470330598497177,-0.418823,0.439331,0.429138,0.668823
1470330598513214,-0.418945,0.440796,0.429077,0.667847
1470330598535734,-0.418884,0.442078,0.42926,0.666931
1470330598556762,-0.418823,0.443298,0.429321,0.666077
1470330598573245,-0.418823,0.444275,0.429504,0.665344
1470330598595770,-0.418823,0.445068,0.429688,0.664673
1470330598618286,-0.418701,0.44574,0.429932,0.664185
1470330598634301,-0.418396,0.446533,0.429932,0.663818
1470330598655822,-0.41803,0.447266,0.429993,0.663513
1470330598676838,-0.417664,0.447876,0.430176,0.663147
1470330598706865,-0.41748,0.448303,0.430603,0.662781
1470330598715875,-0.417358,0.448364,0.43103,0.662476
1470330598737421,-0.417358,0.44812,0.431335,0.662476
1470330598753427,-0.417297,0.447998,0.431458,0.662537
1470330598775934,-0.416931,0.447937,0.43158,0.66272
1470330598797450,-0.416626,0.447937,0.431519,0.662964
1470330598813467,-0.416565,0.447571,0.43158,0.663147
1470330598835981,-0.416504,0.44696,0.431824,0.663513
1470330598858501,-0.416626,0.446167,0.431946,0.663879
1470330598873515,-0.416626,0.445557,0.432068,0.664185
1470330598896035,-0.416321,0.445251,0.43219,0.664551
1470330598918555,-0.415955,0.444946,0.432312,0.664856
1470330598933123,-0.415771,0.444641,0.432495,0.6651
1470330598963096,-0.415771,0.444214,0.432678,0.665222
1470330598978110,-0.415649,0.443848,0.432983,0.665344
1470330598993122,-0.415466,0.443726,0.433228,0.665405
1470330599015642,-0.415405,0.443604,0.433472,0.665405
1470330599038176,-0.415222,0.443604,0.433655,0.665344
1470330599052678,-0.414978,0.443481,0.433838,0.665405
1470330599075703,-0.414917,0.443298,0.434082,0.665466
1470330599098217,-0.414917,0.443237,0.434265,0.665405
1470330599112730,-0.414734,0.443237,0.434448,0.665405
1470330599135752,-0.41449,0.443176,0.434692,0.665405
1470330599158271,-0.414551,0.442932,0.434875,0.665405
1470330599172783,-0.414551,0.442871,0.434875,0.665466
1470330599195808,-0.414551,0.442871,0.434875,0.665466
1470330599225835,-0.414307,0.442993,0.434937,0.665466
1470330599232851,-0.414185,0.443176,0.435059,0.665344
1470330599255874,-0.414001,0.443298,0.435181,0.665344
1470330599278380,-0.413879,0.443359,0.435303,0.665283
1470330599292891,-0.413818,0.443542,0.435425,0.6651
1470330599315913,-0.413696,0.443665,0.435608,0.664978
1470330599338433,-0.413635,0.443848,0.435669,0.664856
1470330599352945,-0.413635,0.443848,0.435669,0.664856
1470330599375968,-0.413635,0.443848,0.435669,0.664856
1470330599398510,-0.413635,0.443909,0.435669,0.664856
1470330599427054,-0.413635,0.443909,0.435669,0.664795
1470330599436021,-0.413696,0.443542,0.435669,0.665039
1470330599458541,-0.413696,0.443298,0.435608,0.665222
1470330599479615,-0.413757,0.443054,0.435669,0.665344
1470330599496073,-0.413696,0.442749,0.43573,0.665527
1470330599518595,-0.413696,0.442566,0.435608,0.66571
1470330599539645,-0.413696,0.442566,0.435608,0.66571
1470330599555627,-0.413696,0.442566,0.435608,0.66571
1470330599578147,-0.413696,0.442566,0.435608,0.66571
1470330599599667,-0.413696,0.442566,0.435608,0.66571
1470330599615682,-0.413696,0.442566,0.435608,0.66571
1470330599638213,-0.413757,0.442566,0.435608,0.66571
1470330599659723,-0.413574,0.442566,0.43573,0.66571
1470330599675737,-0.413452,0.442444,0.435852,0.66571
1470330599698256,-0.41333,0.442322,0.436035,0.665833
1470330599719775,-0.413269,0.442139,0.436035,0.665955
1470330599743297,-0.413147,0.442017,0.436096,0.666077
1470330599758311,-0.412964,0.441895,0.436218,0.666199
1470330599779330,-0.412842,0.441711,0.436401,0.666321
1470330599795843,-0.41272,0.441467,0.436523,0.666443
1470330599818364,-0.412659,0.441223,0.436707,0.666504
1470330599840886,-0.412598,0.440918,0.436951,0.666626
1470330599855898,-0.412415,0.440674,0.437073,0.666748
1470330599878418,-0.412354,0.440552,0.437256,0.666809
1470330599900938,-0.412231,0.44043,0.437378,0.66687
1470330599915953,-0.412109,0.440125,0.437622,0.666931
1470330599938472,-0.412048,0.440002,0.437927,0.666931
1470330599966998,-0.412048,0.439941,0.438171,0.66687
1470330599975005,-0.412048,0.43988,0.43811,0.66687
1470330599998525,-0.412048,0.43988,0.438171,0.66687
1470330600021045,-0.412048,0.43988,0.43811,0.66687
1470330600035076,-0.411987,0.43988,0.438171,0.66687
1470330600058579,-0.411987,0.43988,0.438171,0.66687
1470330600080637,-0.411865,0.440002,0.438232,0.666809
1470330600095114,-0.411865,0.440002,0.438232,0.666809
1470330600118133,-0.411865,0.440063,0.438232,0.666809
1470330600140653,-0.411804,0.439941,0.438477,0.666809
1470330600155166,-0.411743,0.439941,0.438477,0.666809
1470330600179688,-0.411804,0.439941,0.438416,0.666809
1470330600201208,-0.41156,0.439941,0.438416,0.66687
1470330600215219,-0.411621,0.440002,0.438416,0.66687
1470330600238240,-0.41156,0.439819,0.438538,0.666931
1470330600262278,-0.411621,0.439392,0.438782,0.666992
1470330600275273,-0.411743,0.439026,0.438904,0.667114
1470330600298294,-0.411682,0.438904,0.438904,0.667236
1470330600320814,-0.411682,0.438904,0.438904,0.667175
1470330600341834,-0.411682,0.43866,0.438904,0.667358
1470330600358348,-0.411621,0.438538,0.439026,0.667419
1470330600380871,-0.411621,0.438538,0.439026,0.667419
1470330600401889,-0.41156,0.438538,0.439026,0.667419
1470330600418403,-0.411499,0.438477,0.439209,0.667419
1470330600440923,-0.411499,0.438477,0.439209,0.667419
1470330600463442,-0.411499,0.438477,0.439209,0.667419
1470330600478458,-0.411438,0.438477,0.439209,0.667419
1470330600500977,-0.411438,0.438477,0.43927,0.667419
1470330600521998,-0.411438,0.438477,0.43927,0.667419
1470330600538510,-0.411438,0.438477,0.43927,0.667419
1470330600561030,-0.411438,0.438477,0.439209,0.667419
1470330600582078,-0.411438,0.438477,0.43927,0.667419
1470330600598063,-0.411438,0.438477,0.43927,0.667419
1470330600621086,-0.411438,0.438538,0.43927,0.667419
1470330600642104,-0.411377,0.438538,0.43927,0.667419
1470330600658641,-0.411377,0.438538,0.43927,0.667419
1470330600680640,-0.411255,0.438721,0.43927,0.667358
1470330600702157,-0.411194,0.438782,0.43927,0.667358
1470330600718689,-0.411194,0.438782,0.439331,0.667358
1470330600740691,-0.411194,0.438782,0.439331,0.667297
1470330600763712,-0.411194,0.438782,0.439331,0.667297
1470330600778726,-0.411194,0.438843,0.439331,0.667297
1470330600800747,-0.411194,0.438843,0.439331,0.667297
1470330600823265,-0.411194,0.438843,0.439331,0.667297
1470330600838279,-0.411133,0.438843,0.439331,0.667297
1470330600860815,-0.411133,0.438843,0.439392,0.667297
1470330600890826,-0.411133,0.438843,0.439392,0.667297
1470330600897847,-0.411072,0.438843,0.439392,0.667297
1470330600920871,-0.411072,0.438843,0.439392,0.667297
1470330600943374,-0.411072,0.438843,0.439392,0.667297
1470330600957886,-0.411072,0.438843,0.439392,0.667297
1470330600980907,-0.411072,0.438843,0.439392,0.667297
1470330601003428,-0.411072,0.438843,0.439392,0.667297
1470330601018441,-0.411072,0.438843,0.439392,0.667297
1470330601040963,-0.411072,0.438904,0.439453,0.667236
1470330601063483,-0.411072,0.438904,0.439453,0.667236
1470330601077495,-0.411011,0.438904,0.439453,0.667236
1470330601101017,-0.411011,0.438904,0.439453,0.667236
1470330601123535,-0.411011,0.438904,0.439453,0.667236
1470330601137548,-0.411072,0.438965,0.439453,0.667236
1470330601160591,-0.411011,0.438965,0.439453,0.667236
1470330601183629,-0.411011,0.438965,0.439453,0.667236
1470330601205611,-0.411011,0.438965,0.439453,0.667236
1470330601221123,-0.411011,0.438965,0.439453,0.667236
1470330601243644,-0.411011,0.438965,0.439453,0.667236
1470330601264662,-0.411011,0.438965,0.439514,0.667175
1470330601281177,-0.41095,0.439026,0.439514,0.667175
1470330601303698,-0.41095,0.439026,0.439514,0.667175
1470330601324716,-0.41095,0.439026,0.439514,0.667175
1470330601340730,-0.41095,0.439026,0.439514,0.667175
1470330601363283,-0.41095,0.439026,0.439514,0.667175
1470330601384789,-0.41095,0.439087,0.439514,0.667114
1470330601400786,-0.41095,0.439087,0.439514,0.667114
1470330601423305,-0.41095,0.439087,0.439514,0.667114
1470330601444823,-0.41095,0.439087,0.439514,0.667114
1470330601460840,-0.41095,0.439087,0.439514,0.667114
1470330601483365,-0.41095,0.439087,0.439575,0.667114
1470330601504379,-0.410889,0.439087,0.439575,0.667114
1470330601527399,-0.410889,0.439087,0.439575,0.667114
1470330601543415,-0.410889,0.439087,0.439575,0.667114
1470330601564454,-0.410889,0.439087,0.439575,0.667114
1470330601580946,-0.410889,0.439087,0.439575,0.667114
1470330601603466,-0.410889,0.439087,0.439575,0.667114
1470330601624987,-0.410828,0.439087,0.439575,0.667114
1470330601640999,-0.410828,0.439087,0.439636,0.667114
1470330601663524,-0.410828,0.439087,0.439636,0.667114
1470330601686040,-0.410828,0.439087,0.439636,0.667114
1470330601701054,-0.410828,0.439087,0.439636,0.667114
1470330601723576,-0.410828,0.439087,0.439636,0.667114
1470330601745596,-0.410828,0.439087,0.439636,0.667175
1470330601761110,-0.410645,0.43927,0.439758,0.667053
1470330601790634,-0.410461,0.43927,0.440002,0.666992
1470330601806149,-0.410278,0.439453,0.440125,0.666931
1470330601821195,-0.410034,0.439514,0.440369,0.66687
1470330601843682,-0.40979,0.439575,0.440674,0.666809
1470330601866243,-0.409546,0.439453,0.440979,0.666809
1470330601888226,-0.409424,0.439148,0.441345,0.666809
1470330601911244,-0.409241,0.438721,0.441772,0.666931
1470330601925757,-0.408875,0.438171,0.442383,0.667114
1470330601940269,-0.408569,0.437622,0.443115,0.667175
1470330601963289,-0.408325,0.436768,0.44397,0.667297
1470330601985816,-0.407898,0.435852,0.444946,0.66748
1470330602000352,-0.407349,0.434753,0.446106,0.667786
1470330602023343,-0.406799,0.43335,0.447449,0.668152
1470330602045864,-0.406189,0.431824,0.449097,0.668457
1470330602060377,-0.405396,0.430298,0.450989,0.66864
1470330602083399,-0.404358,0.428589,0.453186,0.668823
1470330602105935,-0.403137,0.426697,0.455933,0.668945
1470330602126939,-0.401611,0.424561,0.459351,0.668884
1470330602143455,-0.399719,0.422058,0.463379,0.668823
1470330602165971,-0.397583,0.419312,0.468079,0.668579
1470330602187022,-0.394958,0.415894,0.473572,0.668335
1470330602203548,-0.391907,0.411804,0.479858,0.668213
1470330602226026,-0.388367,0.406616,0.487366,0.66803
1470330602247061,-0.384216,0.400085,0.496155,0.667908
1470330602263563,-0.379639,0.391968,0.505859,0.66803
1470330602286104,-0.374695,0.382751,0.516174,0.668274
1470330602314607,-0.368896,0.37262,0.527222,0.668579
1470330602323651,-0.362244,0.361511,0.539063,0.668945
1470330602346133,-0.353943,0.348328,0.552246,0.669617
1470330602367190,-0.344666,0.333801,0.566101,0.670227
1470330602383186,-0.33429,0.317993,0.580322,0.671021
1470330602406186,-0.322571,0.301331,0.594543,0.671997
1470330602427208,-0.309143,0.283569,0.608704,0.673401
1470330602451229,-0.293884,0.264893,0.622192,0.675537
1470330602465741,-0.277954,0.2453,0.635193,0.67749
1470330602487259,-0.261963,0.225159,0.648193,0.678589
1470330602503274,-0.245667,0.204834,0.660583,0.679138
1470330602525819,-0.228455,0.184875,0.671814,0.679871
1470330602547313,-0.210327,0.165894,0.682007,0.680481
1470330602563328,-0.192261,0.14801,0.691284,0.680542
1470330602585848,-0.174438,0.131897,0.699585,0.680237
1470330602606882,-0.157104,0.117615,0.706848,0.679565
1470330602622886,-0.140381,0.104309,0.713745,0.678162
1470330602645904,-0.124695,0.0903931,0.720398,0.676147
1470330602668447,-0.110107,0.0772095,0.726135,0.674194
1470330602682936,-0.0961304,0.0651245,0.731018,0.672363
1470330602705976,-0.0827026,0.0558472,0.735168,0.67041
1470330602728496,-0.069519,0.0488281,0.738831,0.668396
1470330602743037,-0.0571289,0.0426025,0.742065,0.666443
1470330602766010,-0.0463867,0.0371704,0.744812,0.664551
1470330602788545,-0.0368652,0.0333252,0.746826,0.663086
1470330602802543,-0.0281372,0.0300293,0.748352,0.661926
1470330602826064,-0.0206909,0.026123,0.749695,0.660828
1470330602848083,-0.0140991,0.0216675,0.75116,0.659485
1470330602862636,-0.00811768,0.0180054,0.75238,0.658386
1470330602886142,-0.00219727,0.0161133,0.753052,0.657654
