timestamp,x,y,z,w
1470345119091311,-0.222778,0.0756226,-0.456909,0.857788
1470345119114332,-0.222839,0.0756226,-0.456909,0.857788
1470345119135351,-0.222961,0.0758057,-0.45697,0.857727
1470345119151365,-0.223267,0.0760498,-0.457031,0.857605
1470345119173886,-0.223511,0.0762329,-0.45697,0.857544
1470345119195906,-0.223572,0.0762939,-0.45697,0.857544
1470345119211419,-0.223572,0.0762939,-0.45697,0.857544
1470345119233940,-0.223633,0.0762939,-0.45697,0.857544
1470345119254687,-0.223633,0.0762939,-0.456909,0.857544
1470345119271699,-0.223633,0.0762939,-0.456909,0.857544
1470345119293719,-0.223633,0.0762939,-0.456909,0.857544
1470345119322744,-0.223572,0.0762939,-0.45697,0.857544
1470345119331257,-0.223267,0.0762939,-0.456848,0.857666
1470345119353283,-0.222778,0.076355,-0.456726,0.857849
1470345119376304,-0.222534,0.076416,-0.456726,0.85791
1470345119391317,-0.222595,0.076416,-0.456726,0.85791
1470345119413337,-0.222778,0.0766602,-0.456726,0.857849
1470345119436365,-0.222839,0.0766602,-0.456726,0.857849
1470345119451384,-0.222839,0.0767822,-0.456848,0.857727
1470345119473402,-0.222839,0.0767822,-0.456848,0.857727
1470345119496425,-0.222839,0.0767822,-0.456848,0.857727
1470345119510437,-0.223145,0.0768433,-0.456909,0.857605
1470345119533963,-0.223206,0.0769043,-0.456909,0.857605
1470345119556487,-0.223145,0.0766602,-0.45697,0.857605
1470345119570498,-0.223145,0.076416,-0.457031,0.857605
1470345119593519,-0.223145,0.076416,-0.457031,0.857605
1470345119616540,-0.223083,0.076355,-0.456909,0.857666
1470345119631058,-0.2229,0.076355,-0.456787,0.857788
1470345119653585,-0.222534,0.0762939,-0.456726,0.857971
1470345119676607,-0.222351,0.0762939,-0.456665,0.857971
1470345119690619,-0.222412,0.0762939,-0.456665,0.857971
1470345119713641,-0.222412,0.0762939,-0.456665,0.857971
1470345119736670,-0.222412,0.0762939,-0.456665,0.857971
1470345119750689,-0.222412,0.0762939,-0.456665,0.857971
1470345119773709,-0.222473,0.0762939,-0.456665,0.857971
1470345119796731,-0.222473,0.0762939,-0.456665,0.857971
1470345119810743,-0.222717,0.0762939,-0.456787,0.857849
1470345119841274,-0.2229,0.0762329,-0.45697,0.857727
1470345119856788,-0.223206,0.0761719,-0.457092,0.857544
1470345119877807,-0.223206,0.0761719,-0.457092,0.857544
1470345119893822,-0.223206,0.0761719,-0.457092,0.857544
1470345119916341,-0.223206,0.0761719,-0.457092,0.857544
1470345119937361,-0.223206,0.0762329,-0.457092,0.857544
1470345119953875,-0.223022,0.0761108,-0.457031,0.857666
1470345119975900,-0.222961,0.0759888,-0.457031,0.857666
1470345119996921,-0.223022,0.0759888,-0.457031,0.857666
1470345120013935,-0.223022,0.0759888,-0.457031,0.857666
1470345120035956,-0.223083,0.0759888,-0.457031,0.857666
1470345120057479,-0.223083,0.0759888,-0.457031,0.857666
1470345120073994,-0.223145,0.0759888,-0.457031,0.857605
1470345120096515,-0.223206,0.0759888,-0.457031,0.857605
1470345120116999,-0.223206,0.0759888,-0.457031,0.857605
1470345120134014,-0.223206,0.0759888,-0.457031,0.857605
1470345120156033,-0.223206,0.0759888,-0.457031,0.857605
1470345120177054,-0.223267,0.0759888,-0.457031,0.857605
1470345120194076,-0.223267,0.0759888,-0.457031,0.857605
1470345120216098,-0.223267,0.0759888,-0.457031,0.857605
1470345120237119,-0.223083,0.0759888,-0.456848,0.857727
1470345120254133,-0.222839,0.0758057,-0.456787,0.857849
1470345120276152,-0.222717,0.0756836,-0.456787,0.85791
1470345120297693,-0.222778,0.0756836,-0.456787,0.85791
1470345120314078,-0.222778,0.0756836,-0.456787,0.85791
1470345120336103,-0.222839,0.0756836,-0.456787,0.85791
1470345120359119,-0.222839,0.0756836,-0.456787,0.85791
1470345120380190,-0.223083,0.0757446,-0.456726,0.857849
1470345120396657,-0.223083,0.0757446,-0.456726,0.857849
1470345120419269,-0.2229,0.0759277,-0.456665,0.85791
1470345120433283,-0.2229,0.0759277,-0.456665,0.85791
1470345120456302,-0.223694,0.0761108,-0.456726,0.857666
1470345120478321,-0.223999,0.0761108,-0.456482,0.857727
1470345120493347,-0.223816,0.0759277,-0.456421,0.857788
1470345120516369,-0.223145,0.0762329,-0.456177,0.858093
1470345120538388,-0.222229,0.0766602,-0.455627,0.858582
1470345120553402,-0.221985,0.0770874,-0.455017,0.858887
1470345120576422,-0.221619,0.0772095,-0.454773,0.859131
1470345120598962,-0.221497,0.0774536,-0.454712,0.859131
1470345120613479,-0.221863,0.0776978,-0.454651,0.85907
1470345120636498,-0.222351,0.0779419,-0.45459,0.858948
1470345120658517,-0.222961,0.0783081,-0.454529,0.858826
1470345120673532,-0.22345,0.0785522,-0.454529,0.858643
1470345120696591,-0.223694,0.0789795,-0.454651,0.858521
1470345120718616,-0.22406,0.0795288,-0.454712,0.858337
1470345120733629,-0.224854,0.0801392,-0.454773,0.858032
1470345120762658,-0.226013,0.0803833,-0.455017,0.857544
1470345120778670,-0.226135,0.0801392,-0.455017,0.857544
1470345120793231,-0.225281,0.0797729,-0.455017,0.857849
1470345120822775,-0.224792,0.0794678,-0.455078,0.85791
1470345120838787,-0.22467,0.0795288,-0.454834,0.858093
1470345120859809,-0.224365,0.0796509,-0.454651,0.858276
1470345120875822,-0.223816,0.079834,-0.454651,0.858398
1470345120899350,-0.223389,0.0799561,-0.454712,0.858459
1470345120919578,-0.223389,0.0800171,-0.454712,0.858459
1470345120936580,-0.223633,0.0802612,-0.454834,0.858276
1470345120958598,-0.223877,0.0805054,-0.454956,0.858154
1470345120964602,-0.224121,0.0806274,-0.455078,0.858032
1470345120987145,-0.224121,0.0805664,-0.455078,0.858032
1470345121001176,-0.224121,0.0805054,-0.455078,0.858032
1470345121024224,-0.224365,0.0805054,-0.455261,0.857849
1470345121046215,-0.224487,0.0805664,-0.455322,0.857788
1470345121062231,-0.224792,0.0805664,-0.455322,0.857727
1470345121084258,-0.22467,0.0803223,-0.455078,0.857849
1470345121106963,-0.22406,0.0800171,-0.454956,0.858154
1470345121121887,-0.223572,0.079895,-0.454895,0.858337
1470345121143907,-0.223572,0.079895,-0.454895,0.858337
1470345121167005,-0.223816,0.079834,-0.454651,0.858398
1470345121181940,-0.223816,0.079834,-0.454651,0.858337
1470345121204514,-0.223877,0.079834,-0.454651,0.858337
1470345121226571,-0.224304,0.0800781,-0.45459,0.858276
1470345121241571,-0.224854,0.0800781,-0.45459,0.858093
1470345121264583,-0.224915,0.0800781,-0.45459,0.858093
1470345121287104,-0.224731,0.079834,-0.454712,0.858093
1470345121302156,-0.224976,0.0799561,-0.454834,0.857971
1470345121324176,-0.225525,0.0802002,-0.455017,0.857727
1470345121347195,-0.226135,0.0804443,-0.455139,0.857483
1470345121362212,-0.226135,0.0804443,-0.455139,0.857483
1470345121384255,-0.226135,0.0804443,-0.455139,0.857483
1470345121406518,-0.226135,0.0804443,-0.455139,0.857483
1470345121421497,-0.226135,0.0804443,-0.455139,0.857483
1470345121444559,-0.225769,0.0803223,-0.455017,0.857605
1470345121466558,-0.225403,0.0800781,-0.454895,0.857788
1470345121481592,-0.225098,0.079895,-0.454895,0.85791
1470345121504713,-0.225098,0.0799561,-0.454895,0.85791
1470345121526726,-0.225708,0.0800171,-0.454895,0.857727
1470345121542738,-0.226074,0.0801392,-0.454956,0.857605
1470345121563756,-0.226074,0.0801392,-0.454956,0.857605
1470345121587416,-0.226135,0.0801392,-0.454956,0.857605
1470345121601853,-0.226135,0.0801392,-0.454956,0.857544
1470345121624058,-0.226196,0.0801392,-0.454956,0.857544
1470345121647076,-0.226196,0.0799561,-0.455017,0.857544
1470345121662103,-0.225891,0.0795288,-0.455139,0.857605
1470345121684165,-0.225891,0.0795288,-0.4552,0.857605
1470345121707065,-0.226135,0.0794067,-0.455017,0.857605
1470345121722072,-0.226135,0.0791626,-0.454956,0.857666
1470345121747068,-0.225708,0.0787354,-0.454834,0.85791
1470345121767086,-0.225342,0.0783691,-0.454529,0.858154
1470345121782102,-0.225159,0.078125,-0.454285,0.858337
1470345121804281,-0.225281,0.0778198,-0.454102,0.858459
1470345121827307,-0.225708,0.0778198,-0.453979,0.858398
1470345121842256,-0.226318,0.0778198,-0.453918,0.858337
1470345121864366,-0.226318,0.0778809,-0.453918,0.858276
1470345121886888,-0.226379,0.0778809,-0.453918,0.858276
1470345121903420,-0.22644,0.0778809,-0.453918,0.858276
1470345121924497,-0.226685,0.0780029,-0.453857,0.858215
1470345121946459,-0.227112,0.078125,-0.453918,0.858093
1470345121963475,-0.227295,0.078125,-0.454041,0.857971
1470345121984505,-0.227295,0.078125,-0.454041,0.85791
1470345122006571,-0.227295,0.078125,-0.454041,0.857971
1470345122023581,-0.227234,0.078125,-0.454041,0.857971
1470345122044600,-0.226929,0.0779419,-0.453918,0.858154
1470345122066652,-0.226501,0.0777588,-0.453674,0.858337
1470345122082635,-0.226074,0.0775146,-0.453491,0.858582
1470345122103855,-0.225708,0.0773926,-0.453308,0.858826
1470345122126828,-0.225891,0.0775146,-0.453125,0.858826
1470345122142840,-0.226013,0.078064,-0.452698,0.859009
1470345122163852,-0.225769,0.078186,-0.452148,0.859375
1470345122186873,-0.225098,0.0779419,-0.451843,0.85968
1470345122204575,-0.22467,0.0775757,-0.451721,0.859924
1470345122224592,-0.224731,0.0772095,-0.451721,0.859924
1470345122246636,-0.224792,0.0767822,-0.451843,0.859863
1470345122264630,-0.224915,0.0762329,-0.452087,0.859741
1470345122284651,-0.225098,0.0756836,-0.452332,0.859619
1470345122306327,-0.225159,0.0753174,-0.452515,0.859558
1470345122325283,-0.225159,0.0753174,-0.452515,0.859558
1470345122344355,-0.224854,0.0752563,-0.452515,0.85968
1470345122367317,-0.224548,0.0753174,-0.452332,0.859802
1470345122384332,-0.224304,0.0753174,-0.452271,0.859924
1470345122405128,-0.224304,0.0753174,-0.452209,0.859924
1470345122427186,-0.224304,0.0753174,-0.452209,0.859924
1470345122445171,-0.224731,0.0753174,-0.452148,0.859863
1470345122464197,-0.225037,0.0751343,-0.452026,0.859863
1470345122487201,-0.225159,0.0750732,-0.451904,0.859863
1470345122504871,-0.22522,0.0750732,-0.451904,0.859863
1470345122523929,-0.22522,0.0750122,-0.451965,0.859863
1470345122546950,-0.225281,0.0750122,-0.451965,0.859863
1470345122564952,-0.225342,0.0750122,-0.451965,0.859863
1470345122583930,-0.225525,0.0749512,-0.452148,0.85968
1470345122606508,-0.225525,0.0748901,-0.452148,0.85968
1470345122624490,-0.225525,0.0748901,-0.452148,0.85968
1470345122644510,-0.225403,0.0748291,-0.451904,0.859863
1470345122666527,-0.225037,0.074585,-0.45166,0.860107
1470345122684544,-0.224731,0.0742188,-0.451233,0.860413
1470345122705603,-0.224609,0.0737305,-0.450806,0.860718
1470345122726622,-0.22467,0.0734253,-0.450562,0.860901
1470345122744639,-0.225159,0.0733032,-0.450317,0.860901
1470345122764656,-0.226074,0.0731812,-0.449951,0.86084
1470345122786677,-0.227234,0.0730591,-0.449463,0.860779
1470345122804712,-0.228088,0.0727539,-0.448975,0.86084
1470345122825730,-0.228577,0.0722046,-0.448547,0.861023
1470345122846749,-0.228577,0.0714111,-0.448242,0.861206
1470345122864766,-0.228577,0.0707397,-0.447876,0.86145
1470345122885784,-0.228882,0.0701904,-0.447449,0.861694
1470345122906866,-0.229309,0.0693359,-0.447144,0.861755
1470345122924911,-0.229431,0.0683594,-0.446899,0.861938
1470345122945901,-0.229126,0.0671387,-0.446533,0.862305
1470345122966978,-0.228516,0.065979,-0.446106,0.862793
1470345122985002,-0.227966,0.0651245,-0.44574,0.863159
1470345123006090,-0.2276,0.0645142,-0.445496,0.863464
1470345123027165,-0.227661,0.06427,-0.445251,0.863586
1470345123045127,-0.228149,0.0643311,-0.445129,0.863525
1470345123066146,-0.228882,0.06427,-0.445007,0.863403
1470345123087163,-0.229553,0.064209,-0.444946,0.863281
1470345123104901,-0.230225,0.0640869,-0.444824,0.863159
1470345123125929,-0.230347,0.0637817,-0.444702,0.86322
1470345123146978,-0.230103,0.0636597,-0.44458,0.863342
1470345123164958,-0.230347,0.0637207,-0.444275,0.863403
1470345123186974,-0.230469,0.0635986,-0.444031,0.863525
1470345123207032,-0.230469,0.0635986,-0.443787,0.863647
1470345123225038,-0.230713,0.0634766,-0.443542,0.863708
1470345123248057,-0.231079,0.0631104,-0.443298,0.86377
1470345123267074,-0.231201,0.0628662,-0.443054,0.863892
1470345123285088,-0.231445,0.0628662,-0.442688,0.864014
1470345123307121,-0.231323,0.0628662,-0.442383,0.864197
1470345123326153,-0.231262,0.0627441,-0.442078,0.86438
1470345123344155,-0.231689,0.0627441,-0.441711,0.864441
1470345123367176,-0.232178,0.062561,-0.441284,0.864563
1470345123387196,-0.232178,0.0628662,-0.440979,0.864685
1470345123405093,-0.231812,0.0627441,-0.44104,0.864746
1470345123427111,-0.231812,0.0630493,-0.441101,0.864685
1470345123447132,-0.231384,0.0635986,-0.440613,0.865051
1470345123464146,-0.231262,0.0645142,-0.440552,0.865051
1470345123486167,-0.23175,0.0649414,-0.440857,0.864685
1470345123507248,-0.231384,0.0648804,-0.441101,0.864685
1470345123523279,-0.231079,0.0654907,-0.440918,0.864807
1470345123546280,-0.23114,0.0661011,-0.440613,0.864868
1470345123567328,-0.231262,0.0664063,-0.440735,0.864807
1470345123583314,-0.230713,0.0666504,-0.440674,0.864929
1470345123606387,-0.229858,0.0671387,-0.44043,0.865234
1470345123627406,-0.22937,0.0678711,-0.440308,0.865417
1470345123643469,-0.229309,0.0682373,-0.440063,0.865479
1470345123666441,-0.229431,0.0686035,-0.439758,0.865601
1470345123687511,-0.229187,0.0686035,-0.439636,0.865723
1470345123703979,-0.229065,0.0686035,-0.439514,0.865845
1470345123726156,-0.229065,0.0687866,-0.439148,0.865967
1470345123747177,-0.229126,0.0691528,-0.438904,0.866089
1470345123764189,-0.229431,0.0695801,-0.438904,0.865967
1470345123786211,-0.229736,0.0697632,-0.439087,0.865723
1470345123807841,-0.230042,0.0700684,-0.439026,0.865723
1470345123823835,-0.230042,0.0701294,-0.438965,0.865723
1470345123846831,-0.230042,0.0701294,-0.438965,0.865723
1470345123867854,-0.230042,0.0701904,-0.439026,0.865662
1470345123883869,-0.229919,0.0704346,-0.438904,0.865723
1470345123906621,-0.22937,0.0708618,-0.438782,0.865906
1470345123927640,-0.228882,0.071167,-0.43866,0.866089
1470345123943654,-0.228699,0.0715942,-0.438538,0.86615
1470345123966675,-0.228516,0.0718384,-0.438477,0.866211
1470345123987693,-0.228638,0.0720825,-0.438477,0.86615
1470345124004214,-0.229126,0.0723877,-0.438416,0.866028
1470345124026112,-0.229126,0.0723877,-0.438416,0.866028
1470345124048139,-0.229004,0.0726929,-0.438354,0.866089
1470345124064112,-0.229004,0.072937,-0.438416,0.866028
1470345124086133,-0.229126,0.0732422,-0.438416,0.865967
1470345124108326,-0.229309,0.0736084,-0.438354,0.865906
1470345124124322,-0.22937,0.0738525,-0.438538,0.865784
1470345124146312,-0.22937,0.0740356,-0.43866,0.865723
1470345124169331,-0.229248,0.0744019,-0.43866,0.865723
1470345124183425,-0.228943,0.0747681,-0.438599,0.865845
1470345124206401,-0.228455,0.0751343,-0.438599,0.865906
1470345124228462,-0.227844,0.0755005,-0.438538,0.866028
1470345124243448,-0.227295,0.0759888,-0.438538,0.86615
1470345124266453,-0.226929,0.0765381,-0.438599,0.866211
1470345124288472,-0.226746,0.0769653,-0.438721,0.86615
1470345124303492,-0.226929,0.0773315,-0.438782,0.866028
1470345124326571,-0.227051,0.0776978,-0.438782,0.865967
1470345124348589,-0.227295,0.0779419,-0.438782,0.865845
1470345124371611,-0.227478,0.078186,-0.438843,0.865784
1470345124386646,-0.227844,0.0784302,-0.438843,0.865601
1470345124408664,-0.22821,0.0787964,-0.438904,0.865479
1470345124422677,-0.228333,0.0790405,-0.438965,0.865417
1470345124446697,-0.228333,0.0790405,-0.438965,0.865417
1470345124468716,-0.227905,0.0789795,-0.439087,0.865479
1470345124482747,-0.227112,0.0787354,-0.439209,0.865601
1470345124506368,-0.226257,0.0784912,-0.439392,0.865784
1470345124528461,-0.225403,0.0783081,-0.439514,0.865967
1470345124543386,-0.224487,0.078125,-0.439758,0.866089
1470345124566450,-0.223633,0.0779419,-0.440125,0.86615
1470345124595071,-0.223022,0.0778198,-0.440613,0.866028
1470345124609736,-0.222778,0.0778809,-0.44104,0.865906
1470345124626751,-0.222778,0.078064,-0.441467,0.865662
1470345124648794,-0.222839,0.0782471,-0.441833,0.865417
1470345124669835,-0.222717,0.0783691,-0.442261,0.865234
1470345124686813,-0.222473,0.0784912,-0.442627,0.865112
1470345124710442,-0.222534,0.0784912,-0.442993,0.864929
1470345124730400,-0.222778,0.0785522,-0.443359,0.864685
1470345124746387,-0.2229,0.0784912,-0.443665,0.864441
1470345124768410,-0.222717,0.0783691,-0.444031,0.864319
1470345124790428,-0.222351,0.0783081,-0.444336,0.864258
1470345124814093,-0.221741,0.078064,-0.444519,0.86438
1470345124829108,-0.221008,0.0779419,-0.444641,0.864502
1470345124850158,-0.220459,0.0778198,-0.444763,0.864563
1470345124866186,-0.220032,0.0776978,-0.445007,0.864563
1470345124889184,-0.220032,0.0776978,-0.44519,0.864502
1470345124910383,-0.219971,0.0775146,-0.445435,0.86438
1470345124926398,-0.219971,0.0773315,-0.445679,0.864319
1470345124948424,-0.220154,0.0772095,-0.445801,0.864197
1470345124969503,-0.220337,0.0770264,-0.445923,0.864075
1470345124987453,-0.220398,0.0768433,-0.445984,0.864075
1470345125009045,-0.220642,0.0765991,-0.446045,0.863953
1470345125030064,-0.220947,0.0764771,-0.446228,0.863831
1470345125046079,-0.221252,0.0764771,-0.446533,0.863586
1470345125069099,-0.221436,0.0765381,-0.446716,0.863464
1470345125091685,-0.221436,0.0765991,-0.446899,0.863342
1470345125106698,-0.221008,0.0765381,-0.447083,0.863342
1470345125129132,-0.220398,0.0765991,-0.447144,0.863525
1470345125151201,-0.219971,0.0767212,-0.447083,0.863586
1470345125166166,-0.219666,0.0769043,-0.447083,0.863647
1470345125189187,-0.219666,0.0769043,-0.447083,0.863647
1470345125211305,-0.219727,0.0769043,-0.447083,0.863647
1470345125226270,-0.220032,0.0770264,-0.447266,0.863464
1470345125249292,-0.22052,0.0772705,-0.447266,0.863342
1470345125271356,-0.221313,0.0775757,-0.447205,0.863159
1470345125285338,-0.221497,0.0783081,-0.447083,0.863098
1470345125308460,-0.221985,0.0787964,-0.447205,0.862854
1470345125331471,-0.223022,0.0795288,-0.447205,0.862549
1470345125345518,-0.222839,0.0801392,-0.446716,0.862732
1470345125368500,-0.223083,0.0806885,-0.446838,0.86261
1470345125392026,-0.223328,0.0809937,-0.446777,0.862549
1470345125407073,-0.223206,0.0811157,-0.446411,0.862732
1470345125429195,-0.222778,0.0813599,-0.445984,0.863037
1470345125451214,-0.22229,0.0814819,-0.44574,0.863281
1470345125466229,-0.22229,0.081604,-0.445496,0.863342
1470345125489250,-0.222229,0.0817261,-0.44519,0.863525
1470345125510958,-0.221802,0.0819702,-0.444946,0.86377
1470345125525973,-0.221497,0.0822144,-0.444824,0.863892
1470345125548991,-0.221375,0.0823975,-0.44458,0.864014
1470345125571012,-0.221069,0.0827026,-0.444397,0.864197
1470345125592621,-0.220581,0.0830078,-0.444275,0.864319
1470345125608813,-0.220215,0.083252,-0.444397,0.864319
1470345125631791,-0.220154,0.0834351,-0.444336,0.864319
1470345125653841,-0.220215,0.0834961,-0.444336,0.864319
1470345125668827,-0.220154,0.0835571,-0.44458,0.864197
1470345125691846,-0.220093,0.083374,-0.444824,0.864136
1470345125712376,-0.219666,0.083313,-0.444763,0.864258
1470345125728473,-0.219116,0.083313,-0.44458,0.864502
1470345125751411,-0.21875,0.083313,-0.444458,0.864685
1470345125772523,-0.218567,0.083252,-0.444336,0.864807
1470345125788444,-0.218262,0.083313,-0.444214,0.864929
1470345125811218,-0.217896,0.0834351,-0.444092,0.865051
1470345125832292,-0.217896,0.0834961,-0.444092,0.865051
1470345125849255,-0.217957,0.0836792,-0.444031,0.865051
1470345125871313,-0.218018,0.0839844,-0.44397,0.865051
1470345125892820,-0.217957,0.0841675,-0.444031,0.86499
1470345125908368,-0.217957,0.0842285,-0.444031,0.86499
1470345125931688,-0.218018,0.0842285,-0.44397,0.86499
1470345125953727,-0.217896,0.0842896,-0.444092,0.86499
1470345125968741,-0.217773,0.0841675,-0.444336,0.864868
1470345125991739,-0.21759,0.0840454,-0.444641,0.864807
1470345126013805,-0.217041,0.0837402,-0.444641,0.864929
1470345126028810,-0.216431,0.0835571,-0.444641,0.865173
1470345126051832,-0.216064,0.083252,-0.444519,0.865295
1470345126073852,-0.215698,0.0829468,-0.444336,0.86554
1470345126088866,-0.215393,0.0826416,-0.444092,0.865723
1470345126111919,-0.21521,0.0824585,-0.44397,0.865906
1470345126133940,-0.215454,0.0823364,-0.443909,0.865906
1470345126147952,-0.215698,0.0821533,-0.443848,0.865845
1470345126170972,-0.215698,0.0820313,-0.443848,0.865845
1470345126194088,-0.215698,0.0819092,-0.443909,0.865845
1470345126208157,-0.215759,0.0819092,-0.443909,0.865845
1470345126231186,-0.21582,0.0817871,-0.444031,0.865784
1470345126254147,-0.215942,0.0817871,-0.444275,0.865601
1470345126268199,-0.216003,0.081665,-0.44458,0.865417
1470345126291180,-0.215759,0.081543,-0.444946,0.865356
1470345126314265,-0.215454,0.081543,-0.44519,0.865295
1470345126328278,-0.215027,0.0814819,-0.445313,0.865295
1470345126351342,-0.2146,0.0812988,-0.445435,0.865356
1470345126374320,-0.214294,0.0810547,-0.445374,0.86554
1470345126388333,-0.213989,0.0809326,-0.445313,0.865662
1470345126411017,-0.213745,0.0807495,-0.445313,0.865723
1470345126434036,-0.213928,0.0806885,-0.445374,0.865662
1470345126448052,-0.214294,0.0805054,-0.445435,0.86554
1470345126471085,-0.214539,0.0804443,-0.445679,0.865356
1470345126494090,-0.215088,0.0805054,-0.445801,0.865173
1470345126514738,-0.215515,0.0807495,-0.445801,0.865051
1470345126531690,-0.215515,0.0807495,-0.445801,0.865051
1470345126553708,-0.215515,0.0807495,-0.445801,0.865051
1470345126574784,-0.215515,0.0807495,-0.445801,0.865051
1470345126591742,-0.21521,0.0808105,-0.445801,0.865112
1470345126613601,-0.214844,0.0807495,-0.445801,0.865173
1470345126634612,-0.214417,0.0806274,-0.445801,0.865295
1470345126651627,-0.213623,0.0803223,-0.445618,0.865601
1470345126673696,-0.212891,0.0802612,-0.445374,0.865967
1470345126702722,-0.21228,0.0803833,-0.445251,0.86615
1470345126711736,-0.211975,0.0803223,-0.44519,0.866272
1470345126733777,-0.21167,0.0805054,-0.445007,0.866394
1470345126754793,-0.211548,0.0807495,-0.445007,0.866394
1470345126771789,-0.211792,0.0809326,-0.445251,0.866211
1470345126794313,-0.211853,0.0809937,-0.445496,0.866089
1470345126814932,-0.21167,0.0811157,-0.445557,0.866089
1470345126830918,-0.21167,0.0811768,-0.445557,0.866089
1470345126853954,-0.212036,0.0813599,-0.445435,0.866028
1470345126874974,-0.213806,0.0820923,-0.445618,0.865417
1470345126890945,-0.215576,0.0825806,-0.445923,0.864746
1470345126914032,-0.21582,0.0820923,-0.446472,0.864502
1470345126935050,-0.214905,0.0812378,-0.446716,0.864685
1470345126951062,-0.214844,0.0811768,-0.446716,0.864685
1470345126974085,-0.215027,0.081665,-0.446472,0.864685
1470345126996613,-0.215088,0.0820313,-0.446106,0.864868
1470345127011142,-0.214844,0.0822754,-0.44574,0.865051
1470345127034164,-0.214355,0.0823975,-0.445618,0.865234
1470345127056183,-0.213867,0.0823364,-0.44574,0.865295
1470345127071195,-0.213928,0.0822754,-0.445984,0.865173
1470345127094218,-0.214478,0.0822754,-0.445984,0.865051
1470345127116765,-0.215088,0.0824585,-0.445984,0.864868
1470345127130779,-0.215454,0.0825806,-0.445984,0.864807
1470345127153797,-0.215454,0.0825806,-0.445984,0.864746
1470345127176823,-0.215454,0.0825806,-0.445984,0.864746
1470345127190867,-0.215393,0.0826416,-0.446106,0.864746
1470345127213983,-0.21521,0.0827026,-0.446289,0.864685
1470345127236001,-0.215515,0.0828857,-0.446533,0.864441
1470345127251016,-0.216064,0.0831909,-0.446655,0.864197
1470345127274035,-0.216309,0.083252,-0.446655,0.864136
1470345127296617,-0.216309,0.0830688,-0.446533,0.864258
1470345127310156,-0.215942,0.0826416,-0.44635,0.864441
1470345127334322,-0.21521,0.0820923,-0.446228,0.864746
1470345127356342,-0.2146,0.081543,-0.446228,0.86499
1470345127370354,-0.214478,0.0811768,-0.44635,0.86499
1470345127393379,-0.214966,0.0811157,-0.446472,0.864807
1470345127416489,-0.215515,0.0809937,-0.446594,0.864563
1470345127430501,-0.21582,0.0807495,-0.446899,0.86438
1470345127453521,-0.215698,0.0805664,-0.447205,0.864258
1470345127483552,-0.215393,0.0803223,-0.447571,0.864197
1470345127497584,-0.21521,0.0800781,-0.447876,0.864075
1470345127514116,-0.215393,0.079895,-0.447998,0.864014
1470345127536139,-0.215393,0.0795288,-0.44812,0.863953
1470345127557170,-0.214905,0.0789795,-0.448364,0.864014
1470345127574169,-0.21405,0.0784302,-0.448486,0.864258
1470345127596710,-0.213379,0.0778809,-0.448486,0.864441
1470345127617372,-0.213013,0.0774536,-0.448425,0.864563
1470345127633385,-0.212646,0.0770874,-0.448425,0.864746
1470345127656354,-0.212097,0.0765991,-0.448486,0.864868
1470345127677428,-0.211365,0.0759277,-0.448608,0.865051
1470345127701457,-0.21051,0.0753784,-0.448853,0.865173
1470345127716472,-0.210144,0.0751343,-0.449097,0.865173
1470345127737491,-0.210327,0.0749512,-0.44928,0.86499
1470345127753505,-0.210693,0.0748291,-0.449524,0.864807
1470345127776526,-0.210938,0.074646,-0.449829,0.864624
1470345127797672,-0.210876,0.0743408,-0.450256,0.864441
1470345127813543,-0.210632,0.0739136,-0.450623,0.86438
1470345127836562,-0.210266,0.0736084,-0.450745,0.86438
1470345127864589,-0.210083,0.0731812,-0.450928,0.86438
1470345127873596,-0.209839,0.072876,-0.450989,0.864441
1470345127897129,-0.209595,0.0726929,-0.450928,0.864563
1470345127918651,-0.209351,0.0722046,-0.450806,0.864685
1470345127933664,-0.208984,0.0719604,-0.450806,0.864807
1470345127956687,-0.208862,0.0717163,-0.450684,0.864929
1470345127978703,-0.208862,0.0715332,-0.450684,0.864929
1470345127993717,-0.208862,0.0715942,-0.450684,0.864929
1470345128016749,-0.209351,0.0717773,-0.450684,0.864807
1470345128038767,-0.209717,0.0719604,-0.450806,0.864624
1470345128052780,-0.209717,0.0719604,-0.450989,0.864502
1470345128076801,-0.209778,0.0720825,-0.451233,0.86438
1470345128099348,-0.209961,0.0723267,-0.451355,0.864258
1470345128113893,-0.210205,0.0725098,-0.451416,0.864136
1470345128135911,-0.210205,0.0725708,-0.451416,0.864136
1470345128158930,-0.210144,0.0727539,-0.451599,0.864075
1470345128173046,-0.209961,0.0728149,-0.451721,0.864075
1470345128196469,-0.209717,0.072998,-0.451721,0.864075
1470345128219034,-0.209473,0.0731812,-0.451721,0.864136
1470345128233053,-0.209412,0.0731812,-0.451721,0.864136
1470345128256067,-0.209412,0.0731812,-0.451721,0.864136
1470345128279088,-0.209351,0.0731812,-0.451599,0.864197
1470345128293120,-0.209045,0.0731812,-0.451477,0.86438
1470345128315911,-0.209106,0.0731812,-0.451477,0.864319
1470345128338932,-0.209106,0.0731812,-0.451477,0.864319
1470345128352959,-0.209106,0.0732422,-0.451477,0.864319
1470345128376020,-0.209106,0.0732422,-0.451416,0.864319
1470345128399049,-0.209167,0.0732422,-0.451416,0.864319
1470345128420083,-0.209717,0.0733643,-0.451477,0.864136
1470345128436084,-0.210449,0.0735474,-0.451538,0.863953
1470345128459105,-0.210999,0.0737915,-0.45166,0.863708
1470345128480157,-0.210999,0.0738525,-0.451843,0.863647
1470345128496746,-0.210632,0.0737915,-0.451965,0.863647
1470345128519123,-0.210144,0.0737915,-0.452026,0.86377
1470345128540186,-0.209595,0.0737915,-0.452026,0.863892
1470345128556156,-0.209167,0.0737915,-0.451904,0.864014
1470345128579181,-0.208618,0.0739136,-0.451843,0.864197
1470345128600222,-0.208069,0.0739746,-0.451782,0.86438
1470345128616283,-0.207825,0.0740356,-0.451782,0.864441
1470345128638307,-0.20752,0.0742188,-0.451782,0.864441
1470345128660351,-0.20752,0.0744629,-0.451782,0.864441
1470345128676307,-0.20752,0.074646,-0.451843,0.864441
1470345128698867,-0.20752,0.074646,-0.451843,0.864441
1470345128720022,-0.20752,0.074646,-0.451843,0.864441
1470345128736036,-0.20752,0.074646,-0.451843,0.86438
1470345128759055,-0.20752,0.074646,-0.451843,0.86438
1470345128764059,-0.20752,0.074646,-0.451843,0.86438
1470345128787137,-0.20752,0.074646,-0.451843,0.86438
1470345128809672,-0.207336,0.0747681,-0.451721,0.864502
1470345128824694,-0.20697,0.0748291,-0.451599,0.864624
1470345128846686,-0.206604,0.0749512,-0.451416,0.864807
1470345128861712,-0.20636,0.0751343,-0.451172,0.86499
1470345128885704,-0.206116,0.0751953,-0.450989,0.865112
1470345128907271,-0.205994,0.0751953,-0.450928,0.865173
1470345128929593,-0.205994,0.0752563,-0.450928,0.865173
1470345128944593,-0.206177,0.0755005,-0.450745,0.865234
1470345128966569,-0.206543,0.0756836,-0.450745,0.865112
1470345128981589,-0.206909,0.0756836,-0.450806,0.86499
1470345129004608,-0.206909,0.0756836,-0.450806,0.86499
1470345129036079,-0.20697,0.0756836,-0.450806,0.86499
1470345129042104,-0.207153,0.0759277,-0.450745,0.864929
1470345129064194,-0.207397,0.0761108,-0.450745,0.864868
1470345129087205,-0.207336,0.076416,-0.450745,0.864868
1470345129102177,-0.207031,0.0765381,-0.450745,0.864929
1470345129131898,-0.206787,0.0767822,-0.450684,0.86499
1470345129146889,-0.206543,0.0768433,-0.450562,0.865112
1470345129161925,-0.206238,0.0769653,-0.450378,0.865295
1470345129184894,-0.205933,0.0770874,-0.450256,0.865417
1470345129206929,-0.205627,0.0770874,-0.450134,0.86554
1470345129222094,-0.205566,0.0772095,-0.450073,0.86554
1470345129244124,-0.205566,0.0772095,-0.450073,0.86554
1470345129267106,-0.205566,0.0772095,-0.450073,0.86554
1470345129282160,-0.205627,0.0772095,-0.450073,0.86554
1470345129304700,-0.205627,0.0772095,-0.450073,0.86554
1470345129326711,-0.205688,0.0772705,-0.450073,0.86554
1470345129341814,-0.205688,0.0772705,-0.450073,0.86554
1470345129367747,-0.20575,0.0772705,-0.450073,0.86554
1470345129386814,-0.205688,0.0772705,-0.450073,0.86554
1470345129402282,-0.205688,0.0772705,-0.450073,0.86554
1470345129423809,-0.205688,0.0772705,-0.450073,0.86554
1470345129446830,-0.205505,0.0772705,-0.44989,0.865662
1470345129462859,-0.205139,0.0771484,-0.449707,0.865845
1470345129484867,-0.204834,0.0770874,-0.449585,0.866028
1470345129507010,-0.204834,0.0770874,-0.449402,0.866089
1470345129523004,-0.204895,0.0770874,-0.449402,0.866089
1470345129544040,-0.204895,0.0771484,-0.449402,0.866089
1470345129567085,-0.2052,0.0772095,-0.449463,0.865967
1470345129583069,-0.205505,0.0773315,-0.449524,0.865845
1470345129604586,-0.205505,0.0773926,-0.449524,0.865845
1470345129627114,-0.205811,0.0776367,-0.449585,0.865723
1470345129643128,-0.205811,0.0776367,-0.449585,0.865723
1470345129664151,-0.205994,0.0777588,-0.449707,0.865601
1470345129687183,-0.205994,0.0777588,-0.449707,0.865601
1470345129703234,-0.206055,0.0777588,-0.449707,0.865601
1470345129724118,-0.206055,0.0777588,-0.449707,0.865601
1470345129747146,-0.206055,0.0777588,-0.449707,0.865601
1470345129765123,-0.205688,0.0777588,-0.449585,0.865723
1470345129784178,-0.2052,0.0776978,-0.449341,0.865967
1470345129813768,-0.205017,0.0776978,-0.449219,0.866089
1470345129824931,-0.204895,0.0776978,-0.449158,0.86615
1470345129843947,-0.204834,0.0775757,-0.449158,0.86615
1470345129869972,-0.204895,0.0775757,-0.449158,0.86615
1470345129884985,-0.204895,0.0775757,-0.449158,0.86615
1470345129904565,-0.2052,0.0776367,-0.449158,0.866089
1470345129926605,-0.205505,0.0776978,-0.44928,0.865906
1470345129944565,-0.205566,0.0776978,-0.44928,0.865906
1470345129964583,-0.205566,0.0776978,-0.44928,0.865906
1470345129986631,-0.205505,0.0776978,-0.449463,0.865845
1470345130005223,-0.205505,0.0776367,-0.449707,0.865723
1470345130024399,-0.205505,0.0776367,-0.449707,0.865723
1470345130046348,-0.205322,0.0774536,-0.449707,0.865784
1470345130064360,-0.204895,0.0772095,-0.449646,0.865906
1470345130084436,-0.204407,0.0770264,-0.449524,0.86615
1470345130107014,-0.204163,0.0769043,-0.449341,0.866333
1470345130125034,-0.204041,0.0768433,-0.449158,0.866394
1470345130144095,-0.203979,0.0766602,-0.449158,0.866455
1470345130167075,-0.203918,0.0765991,-0.449158,0.866455
1470345130185088,-0.203918,0.0765991,-0.449158,0.866455
1470345130204641,-0.203979,0.0765991,-0.449158,0.866455
1470345130227220,-0.204041,0.0765991,-0.449158,0.866455
1470345130245205,-0.204041,0.0765991,-0.449158,0.866455
1470345130264277,-0.204102,0.0765991,-0.449158,0.866455
1470345130287244,-0.204102,0.0765991,-0.449158,0.866455
1470345130305264,-0.204224,0.0767822,-0.449341,0.866272
1470345130324182,-0.204224,0.0767212,-0.449402,0.866272
1470345130347156,-0.204224,0.0767212,-0.449402,0.866272
1470345130365173,-0.204163,0.0767212,-0.449402,0.866272
1470345130384279,-0.203979,0.0767212,-0.449158,0.866455
1470345130406815,-0.203857,0.0765991,-0.448914,0.866638
1470345130424301,-0.203796,0.0764771,-0.448608,0.866821
1470345130445318,-0.203796,0.076355,-0.448425,0.866882
1470345130467338,-0.203796,0.076355,-0.448425,0.866882
1470345130484353,-0.204102,0.0764771,-0.448425,0.866821
1470345130505877,-0.20459,0.0765991,-0.448486,0.866638
1470345130537413,-0.204895,0.0767212,-0.448486,0.866577
1470345130544418,-0.204895,0.0767212,-0.448486,0.866577
1470345130565436,-0.204895,0.0767822,-0.448486,0.866577
1470345130586456,-0.204895,0.0767212,-0.448486,0.866577
1470345130604979,-0.204956,0.0767822,-0.448486,0.866577
1470345130625499,-0.204773,0.0768433,-0.448669,0.866516
1470345130646532,-0.204956,0.0765991,-0.449097,0.866272
1470345130664535,-0.2052,0.0761108,-0.449097,0.866272
1470345130685572,-0.204956,0.0759888,-0.448547,0.866577
1470345130707082,-0.204346,0.0759277,-0.448303,0.866882
1470345130724551,-0.204346,0.0758667,-0.448303,0.866882
1470345130752579,-0.204529,0.0755615,-0.448181,0.866943
1470345130766589,-0.204041,0.0753784,-0.447937,0.867188
1470345130784604,-0.203735,0.0753174,-0.447876,0.86731
1470345130807691,-0.204224,0.0751953,-0.447876,0.867188
1470345130826749,-0.204224,0.0751343,-0.447876,0.867188
1470345130844768,-0.204285,0.0751343,-0.447876,0.867188
1470345130866786,-0.204346,0.0751953,-0.447876,0.867188
1470345130886847,-0.204346,0.0751953,-0.447876,0.867188
1470345130904902,-0.204407,0.0751953,-0.447876,0.867126
1470345130926873,-0.20459,0.0752563,-0.448059,0.867004
1470345130946892,-0.20459,0.0751953,-0.448303,0.866882
1470345130964907,-0.20459,0.0751953,-0.448303,0.866882
1470345130986926,-0.204346,0.0752563,-0.448242,0.867004
1470345131006977,-0.203918,0.0751953,-0.448181,0.867126
1470345131025035,-0.203674,0.0751343,-0.448059,0.867249
1470345131047029,-0.20343,0.0751953,-0.447998,0.86731
1470345131067095,-0.203186,0.0752563,-0.447998,0.867371
1470345131085063,-0.203186,0.0752563,-0.447998,0.867371
1470345131107644,-0.203247,0.0752563,-0.447998,0.867371
1470345131126836,-0.203308,0.0752563,-0.447998,0.867371
1470345131144809,-0.203308,0.0752563,-0.447998,0.86731
1470345131166829,-0.203308,0.0752563,-0.447998,0.86731
1470345131186882,-0.203369,0.0752563,-0.447998,0.86731
1470345131204900,-0.203369,0.0753174,-0.447998,0.86731
1470345131227451,-0.203491,0.0753784,-0.448242,0.867188
1470345131246526,-0.203552,0.0753784,-0.448486,0.867004
1470345131270489,-0.203491,0.0753784,-0.448486,0.867004
1470345131287504,-0.203491,0.0753784,-0.448486,0.867004
1470345131308037,-0.203308,0.0751953,-0.448425,0.867126
1470345131323586,-0.203003,0.0750732,-0.448242,0.86731
1470345131346515,-0.202759,0.0749512,-0.448059,0.867432
1470345131367594,-0.202515,0.074707,-0.447998,0.867554
1470345131383550,-0.202454,0.0745239,-0.448059,0.867554
1470345131406575,-0.202515,0.0745239,-0.448059,0.867554
1470345131427654,-0.202515,0.0745239,-0.448059,0.867554
1470345131443614,-0.202576,0.0745239,-0.448059,0.867554
1470345131472681,-0.202515,0.0745239,-0.448059,0.867554
1470345131487697,-0.202576,0.074585,-0.448059,0.867554
1470345131504217,-0.202576,0.074585,-0.448059,0.867554
1470345131526548,-0.202637,0.0744629,-0.448303,0.867432
1470345131547598,-0.202576,0.0744019,-0.448547,0.86731
1470345131563563,-0.202576,0.0744019,-0.448547,0.86731
1470345131586585,-0.202637,0.074585,-0.448608,0.867249
1470345131607710,-0.202637,0.074585,-0.448608,0.867249
1470345131624267,-0.202637,0.074585,-0.448608,0.867249
1470345131646322,-0.202637,0.074646,-0.448608,0.867249
1470345131667361,-0.202576,0.074646,-0.448608,0.867249
1470345131684321,-0.202515,0.074646,-0.448547,0.86731
1470345131706894,-0.202515,0.074707,-0.448547,0.86731
1470345131728721,-0.202881,0.0750732,-0.448486,0.867188
1470345131743727,-0.203247,0.0753174,-0.448547,0.867065
1470345131766747,-0.20343,0.0755615,-0.448547,0.867004
1470345131788769,-0.203613,0.0758667,-0.448547,0.866943
1470345131804315,-0.203613,0.0759277,-0.448547,0.866943
1470345131826840,-0.203857,0.0761108,-0.448486,0.866882
1470345131848861,-0.203918,0.0761719,-0.448486,0.866882
1470345131863873,-0.203918,0.0761719,-0.448486,0.866882
1470345131886893,-0.203735,0.0761108,-0.448486,0.866943
1470345131909452,-0.203552,0.0759888,-0.448364,0.867065
1470345131923030,-0.203369,0.0760498,-0.44812,0.867188
1470345131946095,-0.203186,0.0760498,-0.447998,0.86731
1470345131969057,-0.203125,0.0759277,-0.447937,0.867371
1470345131983070,-0.203125,0.0757446,-0.447937,0.867371
1470345132006597,-0.203125,0.0756226,-0.447937,0.867371
1470345132028703,-0.203369,0.0754395,-0.447937,0.867371
1470345132042730,-0.203735,0.0753174,-0.447937,0.867249
1470345132066704,-0.203735,0.0753174,-0.447937,0.867249
1470345132088766,-0.203796,0.0753174,-0.447937,0.867249
1470345132103746,-0.203796,0.0753174,-0.447937,0.867249
1470345132126272,-0.203857,0.0753784,-0.447937,0.867249
1470345132149292,-0.203918,0.0753784,-0.447937,0.867249
1470345132163305,-0.203918,0.0753174,-0.447937,0.867188
1470345132186326,-0.203796,0.0753784,-0.448059,0.867188
1470345132209407,-0.203491,0.0755005,-0.448059,0.867249
1470345132230140,-0.203003,0.0755615,-0.447998,0.867371
1470345132246157,-0.202637,0.0756836,-0.447876,0.867493
1470345132269174,-0.202332,0.0756836,-0.447815,0.867615
1470345132290260,-0.202148,0.0756226,-0.447815,0.867676
1470345132306782,-0.202026,0.0755615,-0.447754,0.867737
1470345132329097,-0.202087,0.0755615,-0.447754,0.867737
1470345132350173,-0.202087,0.0755615,-0.447754,0.867737
1470345132366131,-0.202454,0.0755615,-0.447815,0.867615
1470345132389186,-0.202454,0.0755615,-0.447815,0.867615
1470345132410225,-0.202454,0.0755615,-0.447815,0.867615
1470345132426294,-0.202515,0.0755615,-0.447815,0.867615
1470345132449315,-0.202515,0.0756226,-0.447815,0.867615
1470345132470331,-0.202515,0.0756226,-0.447815,0.867615
1470345132486380,-0.202576,0.0755615,-0.447815,0.867615
1470345132509438,-0.202576,0.0755615,-0.447815,0.867615
1470345132530527,-0.202576,0.0755615,-0.447815,0.867615
1470345132546544,-0.202271,0.0756226,-0.447693,0.867737
1470345132568562,-0.202026,0.0756836,-0.447571,0.867798
1470345132589636,-0.201782,0.0757446,-0.447449,0.86792
1470345132606638,-0.201538,0.0756836,-0.447327,0.868042
1470345132628722,-0.201416,0.0756226,-0.447205,0.868164
1470345132651722,-0.201416,0.0755615,-0.447144,0.868164
1470345132665735,-0.201599,0.0754395,-0.447144,0.868164
1470345132688760,-0.201843,0.0752563,-0.447205,0.868103
1470345132713284,-0.202087,0.0750732,-0.447327,0.867981
1470345132726801,-0.202209,0.0748901,-0.447388,0.86792
1470345132748820,-0.202332,0.0747681,-0.447571,0.867798
1470345132771841,-0.202393,0.074707,-0.447754,0.867737
1470345132786855,-0.202393,0.074707,-0.447754,0.867737
1470345132809423,-0.202209,0.0748291,-0.447815,0.867737
1470345132831574,-0.201904,0.0748901,-0.447876,0.867737
1470345132845631,-0.201294,0.0749512,-0.447937,0.867859
1470345132868607,-0.200745,0.0750122,-0.447998,0.867981
1470345132891629,-0.200317,0.0750732,-0.447998,0.868042
1470345132906147,-0.199951,0.0750122,-0.447998,0.868164
1470345132928923,-0.199585,0.0749512,-0.447937,0.868286
1470345132951946,-0.199402,0.0748901,-0.447937,0.868347
1470345132965956,-0.199402,0.0749512,-0.447937,0.868347
1470345132988977,-0.199402,0.0749512,-0.447876,0.868347
1470345133011522,-0.199524,0.0748291,-0.447937,0.868286
1470345133026050,-0.199646,0.074646,-0.448059,0.868225
1470345133049095,-0.19989,0.0744019,-0.448181,0.868103
1470345133071091,-0.200256,0.0740356,-0.448303,0.867981
1470345133086105,-0.2005,0.0736084,-0.448364,0.86792
1470345133109162,-0.200806,0.0733643,-0.448486,0.867859
1470345133131187,-0.201111,0.0731812,-0.448608,0.867737
1470345133152272,-0.201233,0.0731201,-0.44873,0.867615
1470345133169230,-0.201294,0.0731201,-0.44873,0.867615
1470345133191249,-0.20105,0.0731201,-0.448914,0.867554
1470345133212848,-0.200745,0.0732422,-0.448975,0.867615
1470345133228955,-0.200317,0.0733643,-0.448975,0.867676
1470345133251063,-0.199768,0.0734863,-0.448914,0.867798
1470345133273026,-0.199402,0.0736694,-0.448914,0.86792
1470345133289047,-0.198975,0.0738525,-0.448792,0.868042
1470345133312037,-0.198425,0.0739136,-0.448669,0.868225
1470345133332562,-0.198303,0.0740356,-0.448486,0.868347
1470345133348576,-0.198303,0.0740967,-0.448486,0.868347
1470345133371596,-0.198303,0.0740967,-0.448486,0.868347
1470345133392650,-0.198486,0.0739136,-0.448486,0.868347
1470345133409155,-0.198792,0.0737305,-0.448486,0.868286
1470345133431692,-0.199097,0.0734863,-0.448486,0.868225
1470345133452710,-0.199463,0.0732422,-0.448608,0.868103
1470345133468724,-0.199829,0.0731812,-0.448669,0.867981
1470345133491745,-0.199829,0.0731812,-0.448669,0.867981
1470345133512826,-0.199829,0.0731812,-0.448669,0.867981
1470345133528514,-0.19989,0.0731812,-0.448669,0.867981
1470345133551537,-0.19989,0.0731812,-0.448669,0.867981
1470345133572620,-0.19989,0.0731812,-0.448669,0.867981
1470345133588568,-0.19989,0.0731812,-0.448669,0.867981
1470345133611655,-0.199524,0.0732422,-0.448547,0.868103
1470345133634176,-0.199158,0.0734253,-0.448425,0.868286
1470345133649189,-0.198792,0.0735474,-0.448181,0.868408
1470345133671209,-0.198547,0.0736694,-0.447937,0.868591
1470345133694229,-0.198425,0.0737915,-0.447571,0.868835
1470345133709248,-0.198486,0.0739746,-0.447266,0.868958
1470345133731280,-0.198792,0.0742188,-0.447083,0.868958
1470345133754294,-0.199402,0.0745239,-0.44696,0.868835
1470345133768305,-0.200623,0.0748901,-0.446899,0.868591
1470345133791325,-0.202271,0.0756226,-0.446838,0.868164
1470345133814352,-0.203552,0.0761719,-0.446899,0.867737
1470345133828367,-0.20459,0.0765381,-0.446655,0.867615
1470345133851389,-0.205078,0.0768433,-0.445984,0.867859
1470345133874408,-0.204163,0.0769043,-0.445251,0.868408
1470345133888447,-0.203186,0.0768433,-0.44458,0.868958
1470345133911511,-0.203003,0.0767822,-0.44397,0.869324
1470345133933590,-0.203125,0.0764771,-0.443726,0.869446
1470345133948605,-0.203064,0.0760498,-0.443848,0.869507
1470345133971626,-0.20282,0.0756226,-0.444031,0.869446
1470345133993644,-0.202515,0.0751953,-0.444214,0.869507
1470345134008678,-0.202332,0.0751343,-0.444092,0.869568
1470345134031730,-0.202026,0.0753174,-0.443909,0.869751
1470345134053751,-0.201477,0.0753784,-0.443848,0.869873
1470345134068762,-0.200745,0.0752563,-0.44397,0.869995
1470345134091849,-0.200195,0.0750732,-0.44397,0.870178
1470345134114391,-0.199951,0.0750732,-0.44397,0.870178
1470345134135011,-0.200012,0.0750122,-0.44397,0.870178
1470345134151959,-0.200073,0.0750122,-0.44397,0.870178
1470345134173980,-0.200134,0.0750732,-0.44397,0.870178
1470345134195000,-0.200317,0.0751953,-0.444153,0.870056
1470345134211522,-0.200439,0.0752563,-0.444336,0.869873
1470345134234080,-0.2005,0.0753174,-0.44458,0.869751
1470345134255119,-0.200256,0.0750732,-0.444946,0.869629
1470345134271116,-0.19989,0.0749512,-0.445068,0.869629
1470345134294122,-0.199524,0.0748901,-0.445068,0.869751
1470345134315767,-0.199036,0.0747681,-0.445068,0.869873
1470345134331179,-0.198547,0.074646,-0.444885,0.870117
1470345134354202,-0.198303,0.0744019,-0.444763,0.870239
1470345134375244,-0.198242,0.0741577,-0.444702,0.8703
1470345134391233,-0.198242,0.0740356,-0.444641,0.8703
1470345134414262,-0.198303,0.0740356,-0.444641,0.8703
1470345134435289,-0.198608,0.0740967,-0.444763,0.870178
1470345134451301,-0.199036,0.0742798,-0.444763,0.870056
1470345134474321,-0.199402,0.0744629,-0.444824,0.869934
1470345134495340,-0.199768,0.074646,-0.444885,0.869812
1470345134511860,-0.2005,0.0750732,-0.444946,0.869568
1470345134534387,-0.201416,0.0755615,-0.445068,0.869263
1470345134556408,-0.202026,0.0759888,-0.445129,0.869019
1470345134571436,-0.201965,0.0759277,-0.445129,0.86908
1470345134594441,-0.201538,0.0758667,-0.444824,0.869324
1470345134616467,-0.200867,0.0756836,-0.444519,0.86969
1470345134631202,-0.200317,0.0755005,-0.444092,0.870056
1470345134654224,-0.200073,0.0753174,-0.443726,0.8703
1470345134676242,-0.199829,0.0749512,-0.443665,0.870361
1470345134691256,-0.199646,0.0745239,-0.443787,0.870422
1470345134714283,-0.199646,0.0740967,-0.444031,0.8703
1470345134742814,-0.199951,0.0740356,-0.444214,0.870178
1470345134750820,-0.200378,0.0741577,-0.444336,0.869995
1470345134773841,-0.2005,0.0742188,-0.444641,0.869812
1470345134796862,-0.200317,0.0742188,-0.444946,0.86969
1470345134810904,-0.199951,0.0741577,-0.44519,0.869629
1470345134833950,-0.199829,0.0740356,-0.445313,0.869629
1470345134855994,-0.199829,0.0740356,-0.445313,0.869629
1470345134877988,-0.199707,0.0740967,-0.445374,0.869629
1470345134894006,-0.199402,0.0741577,-0.445435,0.86969
1470345134916577,-0.198853,0.0740967,-0.445496,0.869751
1470345134930642,-0.198242,0.0738525,-0.445557,0.869873
1470345134953662,-0.197754,0.0735474,-0.445618,0.869995
1470345134976682,-0.197632,0.0731812,-0.44574,0.869995
1470345134990694,-0.197693,0.0728149,-0.445862,0.869934
1470345135014306,-0.197693,0.0725098,-0.445984,0.869934
1470345135036407,-0.197571,0.0722046,-0.446045,0.869934
1470345135057382,-0.197449,0.0719604,-0.446045,0.869995
1470345135074396,-0.197449,0.0718384,-0.445984,0.870056
1470345135096431,-0.197449,0.0718384,-0.445862,0.870056
1470345135118035,-0.19751,0.0718384,-0.445862,0.870056
1470345135133632,-0.197388,0.0718994,-0.446045,0.869995
1470345135156642,-0.197266,0.0718384,-0.446228,0.869934
1470345135177661,-0.19696,0.0717773,-0.446472,0.869873
1470345135193631,-0.196716,0.0717163,-0.446655,0.869873
1470345135216662,-0.196716,0.0717163,-0.446655,0.869873
1470345135237740,-0.19635,0.0715332,-0.446716,0.869934
1470345135253754,-0.195923,0.0712891,-0.446716,0.870056
1470345135276773,-0.195618,0.071106,-0.446655,0.870117
1470345135297795,-0.195496,0.0709839,-0.446716,0.870178
1470345135314319,-0.195496,0.0709839,-0.446716,0.870178
1470345135336616,-0.19574,0.071106,-0.446777,0.870056
1470345135357637,-0.195862,0.0710449,-0.44696,0.869934
1470345135381657,-0.195862,0.0710449,-0.44696,0.869934
1470345135396672,-0.195923,0.0710449,-0.44696,0.869934
1470345135417730,-0.195862,0.0709839,-0.447021,0.869934
1470345135434252,-0.195862,0.0709839,-0.447021,0.869934
1470345135456278,-0.195862,0.0709839,-0.447021,0.869873
1470345135477322,-0.19574,0.0708618,-0.447205,0.869873
1470345135493305,-0.195496,0.0707397,-0.447327,0.869873
1470345135516835,-0.19519,0.0705566,-0.447266,0.869995
1470345135539359,-0.19519,0.0705566,-0.447266,0.869995
1470345135554372,-0.19519,0.0705566,-0.447266,0.869995
1470345135576394,-0.195007,0.0704956,-0.447205,0.870056
1470345135599414,-0.194824,0.0704346,-0.447144,0.870117
1470345135614432,-0.194885,0.0704346,-0.447144,0.870117
1470345135636461,-0.194885,0.0704346,-0.447144,0.870117
1470345135658547,-0.194885,0.0704956,-0.447144,0.870117
1470345135673492,-0.195251,0.0705566,-0.447144,0.870056
1470345135696576,-0.195618,0.0704956,-0.447144,0.869934
1470345135719039,-0.195801,0.0704346,-0.447144,0.869934
1470345135733559,-0.196167,0.0703735,-0.447144,0.869812
1470345135756578,-0.196167,0.0703735,-0.447144,0.869812
1470345135778598,-0.196228,0.0703735,-0.447144,0.869812
1470345135793636,-0.195862,0.0704346,-0.447205,0.869873
1470345135816720,-0.195496,0.0704346,-0.447205,0.869934
1470345135844673,-0.19519,0.0705566,-0.447205,0.869995
1470345135853639,-0.194885,0.0706787,-0.447083,0.870117
1470345135876661,-0.194519,0.0706787,-0.44696,0.870239
1470345135898680,-0.194214,0.0705566,-0.44696,0.870361
1470345135913701,-0.19397,0.0706177,-0.446899,0.870422
1470345135936612,-0.19397,0.0706177,-0.446899,0.870422
1470345135958631,-0.19397,0.0706177,-0.446899,0.870422
1470345135973643,-0.194031,0.0706177,-0.446899,0.870422
1470345135996664,-0.194031,0.0706177,-0.446899,0.870422
1470345136019214,-0.194092,0.0706177,-0.446899,0.870422
1470345136039769,-0.194336,0.0707397,-0.44696,0.8703
1470345136056769,-0.194702,0.0709839,-0.447083,0.870117
1470345136078787,-0.194702,0.0709839,-0.447083,0.870117
1470345136099862,-0.194702,0.0709229,-0.447083,0.870117
1470345136116883,-0.194336,0.0709839,-0.447021,0.870239
1470345136138552,-0.193909,0.071106,-0.446899,0.870422
1470345136160543,-0.193542,0.071167,-0.446777,0.870544
1470345136176592,-0.193298,0.071106,-0.446655,0.870667
1470345136198575,-0.192932,0.0710449,-0.446533,0.87085
1470345136220713,-0.192749,0.0709229,-0.446472,0.870911
1470345136236217,-0.19281,0.0709229,-0.446472,0.870911
1470345136259237,-0.193115,0.0709229,-0.446411,0.87085
1470345136280256,-0.19342,0.0710449,-0.44635,0.870789
1470345136296285,-0.193481,0.0710449,-0.44635,0.870789
1470345136319369,-0.193481,0.0709839,-0.44635,0.870789
1470345136340241,-0.193481,0.0710449,-0.44635,0.870789
1470345136356255,-0.193787,0.071228,-0.446289,0.870728
1470345136379277,-0.194031,0.0714111,-0.446289,0.870667
1470345136400296,-0.194031,0.0714111,-0.446289,0.870667
1470345136416813,-0.193726,0.0713501,-0.446167,0.870789
1470345136439339,-0.193481,0.0714111,-0.445862,0.871033
1470345136462360,-0.193604,0.0717773,-0.445496,0.871155
1470345136476375,-0.19342,0.0718994,-0.445313,0.871277
1470345136499392,-0.192993,0.0718994,-0.445251,0.871399
1470345136521917,-0.19281,0.0719604,-0.445251,0.871399
1470345136536179,-0.19281,0.0719604,-0.445251,0.871399
1470345136559199,-0.193237,0.0720825,-0.44519,0.871338
1470345136581220,-0.193481,0.0721436,-0.445251,0.871277
1470345136587227,-0.193787,0.0722046,-0.445313,0.871155
1470345136603240,-0.19397,0.0723267,-0.445251,0.871094
1470345136624317,-0.19397,0.0723877,-0.445251,0.871094
1470345136647338,-0.194214,0.0726929,-0.44519,0.871094
1470345136663370,-0.194275,0.0726929,-0.44519,0.871094
1470345136684372,-0.194214,0.0726318,-0.445313,0.871033
1470345136706391,-0.19397,0.0726318,-0.445374,0.871033
1470345136723412,-0.193848,0.0726929,-0.445313,0.871094
1470345136744437,-0.193481,0.0727539,-0.445313,0.871216
1470345136766457,-0.193054,0.0727539,-0.445251,0.871277
1470345136783472,-0.19281,0.0727539,-0.445251,0.871338
1470345136804492,-0.192444,0.0726929,-0.445251,0.87146
1470345136827146,-0.192139,0.0724487,-0.445251,0.871521
1470345136843152,-0.192139,0.0725098,-0.445251,0.871521
1470345136865165,-0.192505,0.0725098,-0.445251,0.87146
1470345136887207,-0.192932,0.0725098,-0.445374,0.871277
1470345136903211,-0.192993,0.0725098,-0.445374,0.871277
1470345136924426,-0.192993,0.0725098,-0.445374,0.871277
1470345136946424,-0.193054,0.0725708,-0.445374,0.871277
1470345136963407,-0.193054,0.0725708,-0.445374,0.871277
1470345136984426,-0.193054,0.0725708,-0.445374,0.871277
1470345137006447,-0.193054,0.0725708,-0.445374,0.871277
1470345137023465,-0.19281,0.0725098,-0.445374,0.871338
1470345137045545,-0.19281,0.0725098,-0.445374,0.871338
1470345137066552,-0.192688,0.0725708,-0.44519,0.87146
1470345137083523,-0.192505,0.0725708,-0.444946,0.871582
1470345137104632,-0.192383,0.0723877,-0.444885,0.871643
1470345137126646,-0.192383,0.0724487,-0.444885,0.871643
1470345137143644,-0.192383,0.0724487,-0.444885,0.871643
1470345137164705,-0.19281,0.0724487,-0.444885,0.871582
1470345137186738,-0.193115,0.0724487,-0.444885,0.871521
1470345137203698,-0.193115,0.0724487,-0.444885,0.871521
1470345137224787,-0.193176,0.0724487,-0.444885,0.871521
1470345137248809,-0.193176,0.0725098,-0.444885,0.87146
1470345137262867,-0.193237,0.0725098,-0.444885,0.87146
1470345137284893,-0.193237,0.0725098,-0.444885,0.87146
1470345137306904,-0.193237,0.0725098,-0.444885,0.87146
1470345137323422,-0.192993,0.0725098,-0.444763,0.871582
1470345137344648,-0.192505,0.0725098,-0.444641,0.871765
1470345137366660,-0.192139,0.0726318,-0.444458,0.871887
1470345137384628,-0.191956,0.0726929,-0.444336,0.872009
1470345137404649,-0.191772,0.0726318,-0.444275,0.87207
1470345137427184,-0.19165,0.0725708,-0.444275,0.872131
1470345137445201,-0.191711,0.0725708,-0.444275,0.872131
1470345137464216,-0.191956,0.0726929,-0.444336,0.872009
1470345137487237,-0.192383,0.072876,-0.444458,0.871826
1470345137505291,-0.192688,0.072998,-0.444519,0.871704
1470345137523903,-0.192749,0.072998,-0.444519,0.871704
1470345137547140,-0.192749,0.072998,-0.444519,0.871704
1470345137565124,-0.192749,0.072998,-0.444519,0.871704
1470345137584181,-0.192749,0.072998,-0.444519,0.871704
1470345137607200,-0.192505,0.072937,-0.44458,0.871765
1470345137624681,-0.192139,0.072876,-0.444519,0.871887
1470345137644704,-0.191833,0.072876,-0.444458,0.872009
1470345137666724,-0.191528,0.072876,-0.444336,0.87207
1470345137684739,-0.191223,0.072876,-0.444214,0.872192
1470345137704758,-0.19104,0.072876,-0.444092,0.872314
1470345137726818,-0.190796,0.0726929,-0.444092,0.872375
1470345137744835,-0.190796,0.0726929,-0.444092,0.872375
1470345137764893,-0.191223,0.0726929,-0.444153,0.872253
1470345137786890,-0.19165,0.0726318,-0.444214,0.872131
1470345137810980,-0.19165,0.0726318,-0.444214,0.872131
1470345137824511,-0.191711,0.0726318,-0.444214,0.872131
1470345137846672,-0.192078,0.0726929,-0.444214,0.87207
1470345137864690,-0.192322,0.0728149,-0.444214,0.872009
1470345137884724,-0.192383,0.0728149,-0.444214,0.872009
1470345137906810,-0.192383,0.0728149,-0.444214,0.872009
1470345137924793,-0.192383,0.0728149,-0.444214,0.872009
1470345137944333,-0.192383,0.0728149,-0.444214,0.872009
1470345137970340,-0.192139,0.0728149,-0.444092,0.87207
1470345137984335,-0.191956,0.072876,-0.443909,0.872192
1470345138005358,-0.191956,0.072937,-0.443909,0.872192
1470345138027473,-0.191956,0.072937,-0.443909,0.872192
1470345138044473,-0.192017,0.072937,-0.443909,0.872192
1470345138065543,-0.192078,0.072937,-0.443909,0.872192
1470345138087512,-0.192078,0.072937,-0.443909,0.872192
1470345138104527,-0.192688,0.0730591,-0.443909,0.872009
1470345138125150,-0.192688,0.0731812,-0.443909,0.872009
1470345138146593,-0.192871,0.0734253,-0.444031,0.871887
1470345138164566,-0.193176,0.0737305,-0.444336,0.871643
1470345138185584,-0.193481,0.0738525,-0.444641,0.871399
1470345138206661,-0.193542,0.0737915,-0.444641,0.871399
1470345138225125,-0.192993,0.0736084,-0.444641,0.871582
1470345138246259,-0.192444,0.0733032,-0.444702,0.871704
1470345138267279,-0.192261,0.0731812,-0.444519,0.871826
1470345138285295,-0.192017,0.0730591,-0.444397,0.871948
1470345138305317,-0.191711,0.0731201,-0.444214,0.87207
1470345138327431,-0.191833,0.0728149,-0.444214,0.872131
1470345138344446,-0.191833,0.0727539,-0.444214,0.87207
1470345138367468,-0.191895,0.0727539,-0.444214,0.87207
1470345138386486,-0.1922,0.0726929,-0.444153,0.87207
1470345138404501,-0.192871,0.072937,-0.44397,0.872009
1470345138427055,-0.192932,0.072937,-0.44397,0.871948
1470345138447168,-0.192993,0.072937,-0.44397,0.871948
1470345138465091,-0.192993,0.072937,-0.44397,0.871948
1470345138487110,-0.19342,0.072937,-0.444031,0.871826
1470345138507188,-0.193726,0.072876,-0.444092,0.871704
1470345138525151,-0.194092,0.072937,-0.444153,0.871582
1470345138547114,-0.194092,0.072876,-0.444214,0.871582
1470345138567132,-0.19397,0.0726929,-0.444092,0.871704
1470345138585175,-0.19397,0.0726318,-0.443848,0.871826
1470345138607211,-0.194214,0.0726318,-0.443665,0.871887
1470345138627424,-0.194214,0.0726318,-0.443665,0.871826
1470345138645391,-0.194275,0.0726318,-0.443665,0.871826
1470345138667399,-0.194336,0.0725708,-0.443665,0.871887
1470345138687436,-0.194336,0.0725708,-0.443665,0.871826
1470345138704432,-0.194824,0.0725708,-0.443665,0.871704
1470345138727150,-0.194824,0.0726318,-0.443665,0.871704
1470345138747168,-0.194885,0.0726318,-0.443665,0.871704
1470345138765186,-0.194946,0.0726318,-0.443665,0.871704
1470345138787204,-0.194885,0.0725708,-0.443848,0.871643
1470345138807239,-0.194885,0.0725098,-0.443848,0.871643
1470345138825241,-0.194885,0.0725098,-0.443848,0.871643
1470345138854815,-0.194519,0.0726929,-0.443787,0.871704
1470345138866916,-0.194153,0.0728149,-0.443787,0.871826
1470345138884843,-0.194031,0.072998,-0.443726,0.871826
1470345138906863,-0.19397,0.0730591,-0.443726,0.871887
1470345138926947,-0.194031,0.0730591,-0.443726,0.871887
1470345138944965,-0.194031,0.0730591,-0.443665,0.871826
1470345138966982,-0.194031,0.0730591,-0.443665,0.871887
1470345138988001,-0.194458,0.0730591,-0.443787,0.871704
1470345139005017,-0.194641,0.072876,-0.443665,0.871704
1470345139027042,-0.194702,0.072876,-0.443665,0.871704
1470345139048066,-0.194702,0.072937,-0.443665,0.871704
1470345139065082,-0.194702,0.072937,-0.443665,0.871704
1470345139087102,-0.194885,0.0730591,-0.443787,0.871582
1470345139108138,-0.194458,0.0732422,-0.443787,0.871704
1470345139124187,-0.194214,0.0732422,-0.443909,0.871704
1470345139146198,-0.193909,0.0730591,-0.443848,0.871826
1470345139167268,-0.193298,0.072937,-0.443726,0.872009
1470345139184232,-0.193298,0.072998,-0.443726,0.872009
1470345139206252,-0.193237,0.072937,-0.443481,0.872131
1470345139227360,-0.193054,0.0728149,-0.443359,0.872253
1470345139250423,-0.193115,0.0728149,-0.443359,0.872253
1470345139266397,-0.193359,0.0728149,-0.443237,0.872253
1470345139288415,-0.193787,0.072937,-0.443237,0.872192
1470345139304428,-0.193848,0.072937,-0.443237,0.872131
1470345139327013,-0.19397,0.0731201,-0.443237,0.87207
1470345139349193,-0.194031,0.0733643,-0.443237,0.87207
1470345139364200,-0.194153,0.0733643,-0.443237,0.872009
1470345139386219,-0.193848,0.0738525,-0.443176,0.87207
1470345139409242,-0.194336,0.0744019,-0.443359,0.871826
1470345139424263,-0.194885,0.0743408,-0.443604,0.871582
1470345139446787,-0.194397,0.0742798,-0.443604,0.871704
1470345139468807,-0.193359,0.0744629,-0.443298,0.87207
1470345139483822,-0.192871,0.074646,-0.443054,0.872314
1470345139506842,-0.19281,0.074707,-0.442688,0.872498
1470345139528928,-0.192749,0.074707,-0.442322,0.872681
1470345139542945,-0.192627,0.0745239,-0.442078,0.872864
1470345139566952,-0.192993,0.0744629,-0.442017,0.872803
1470345139588970,-0.193359,0.0745239,-0.442017,0.872742
1470345139603001,-0.194031,0.0747681,-0.442078,0.872559
1470345139627022,-0.194763,0.0750122,-0.442139,0.872314
1470345139649051,-0.194824,0.0750732,-0.442322,0.872192
1470345139663060,-0.194763,0.0751953,-0.442505,0.872131
1470345139686085,-0.194641,0.0751953,-0.442749,0.872009
1470345139709102,-0.194641,0.0751953,-0.442749,0.872009
1470345139723715,-0.194641,0.0751343,-0.442749,0.872009
1470345139746359,-0.194153,0.0750122,-0.442688,0.872192
1470345139769281,-0.193542,0.0748291,-0.442627,0.872375
1470345139790354,-0.193298,0.0748291,-0.442505,0.872498
1470345139806342,-0.193298,0.074707,-0.442383,0.872559
1470345139829477,-0.193054,0.0744629,-0.442322,0.872681
1470345139850495,-0.192871,0.0742798,-0.442383,0.872681
1470345139866547,-0.192871,0.0742798,-0.442383,0.872681
1470345139889531,-0.193237,0.0742798,-0.442444,0.872559
1470345139910551,-0.193237,0.0742798,-0.442444,0.872559
1470345139926685,-0.193298,0.0742798,-0.442444,0.872559
1470345139949310,-0.193115,0.0741577,-0.442566,0.872498
1470345139970327,-0.192993,0.0741577,-0.442749,0.872498
1470345139986342,-0.192993,0.0742798,-0.442932,0.872375
1470345140009363,-0.192932,0.0743408,-0.443115,0.872314
1470345140030618,-0.192505,0.0742798,-0.443237,0.872314
1470345140046495,-0.192078,0.0743408,-0.443359,0.872314
1470345140069517,-0.19165,0.0743408,-0.443481,0.872375
1470345140090539,-0.191162,0.0742798,-0.443481,0.872498
1470345140106554,-0.190857,0.0742188,-0.443481,0.872559
1470345140129225,-0.190796,0.0741577,-0.44342,0.87262
1470345140150287,-0.190796,0.0740356,-0.44342,0.87262
1470345140166287,-0.190796,0.0740356,-0.44342,0.87262
1470345140189280,-0.190796,0.0737915,-0.443665,0.872559
1470345140210340,-0.190979,0.0737305,-0.443848,0.872375
1470345140226907,-0.191345,0.0737915,-0.44397,0.872253
1470345140249033,-0.191589,0.0739136,-0.444092,0.872131
1470345140272007,-0.191711,0.0740356,-0.444397,0.871948
1470345140287021,-0.191528,0.0740967,-0.444641,0.871826
1470345140309041,-0.191345,0.0741577,-0.444885,0.871765
1470345140331098,-0.191162,0.0742798,-0.445007,0.871704
1470345140347114,-0.190979,0.0742798,-0.445068,0.871704
1470345140369168,-0.190552,0.0742798,-0.44519,0.871765
1470345140391152,-0.189941,0.0741577,-0.44519,0.871887
1470345140406167,-0.18927,0.0740356,-0.445251,0.872009
1470345140428694,-0.188782,0.0738525,-0.445313,0.872131
1470345140451783,-0.188782,0.0738525,-0.445313,0.87207
1470345140465796,-0.189087,0.0738525,-0.445313,0.87207
1470345140488816,-0.189453,0.0739136,-0.445313,0.871948
1470345140511837,-0.189514,0.0739136,-0.445313,0.871948
1470345140526356,-0.189514,0.0739136,-0.445313,0.871948
1470345140549424,-0.189575,0.0739136,-0.445313,0.871948
1470345140571476,-0.189575,0.0739136,-0.445313,0.871948
1470345140585546,-0.189819,0.0740967,-0.445374,0.871826
1470345140609476,-0.189819,0.0740356,-0.445374,0.871826
1470345140631408,-0.189819,0.0740356,-0.445374,0.871826
1470345140654427,-0.189575,0.0739746,-0.445313,0.871948
1470345140669440,-0.189453,0.0739136,-0.44519,0.872009
1470345140691459,-0.189331,0.0739136,-0.445007,0.872131
1470345140705473,-0.189392,0.0739746,-0.445007,0.872131
1470345140729530,-0.189392,0.0739746,-0.445007,0.872131
1470345140751555,-0.189453,0.0739746,-0.445007,0.872131
1470345140772599,-0.189453,0.0739746,-0.445007,0.872131
1470345140788639,-0.18988,0.0740967,-0.445007,0.872009
1470345140811608,-0.190308,0.0742798,-0.445007,0.871887
1470345140832752,-0.190735,0.0744629,-0.445129,0.871765
1470345140848711,-0.191101,0.074707,-0.445251,0.871582
1470345140871755,-0.191406,0.0750122,-0.445374,0.871399
1470345140892793,-0.191406,0.0750122,-0.445374,0.871399
1470345140908765,-0.191528,0.0751343,-0.445435,0.871338
1470345140931796,-0.191528,0.0751343,-0.445435,0.871338
1470345140952827,-0.191528,0.0751343,-0.445435,0.871338
1470345140968829,-0.191528,0.0751953,-0.445435,0.871338
1470345140991850,-0.191528,0.0754395,-0.445251,0.871399
1470345141012929,-0.191589,0.0754395,-0.445251,0.871399
1470345141029391,-0.191833,0.0756836,-0.44519,0.871399
1470345141051819,-0.1922,0.0759888,-0.445068,0.871338
1470345141072845,-0.192749,0.0762939,-0.444946,0.871216
1470345141088846,-0.193176,0.0765381,-0.444763,0.871155
1470345141111837,-0.193665,0.0767822,-0.44458,0.871155
1470345141132574,-0.194092,0.0770874,-0.444458,0.871094
1470345141149573,-0.194458,0.0774536,-0.444275,0.871094
1470345141171591,-0.195068,0.0778198,-0.444153,0.870972
1470345141193620,-0.195557,0.078186,-0.444031,0.870911
1470345141208625,-0.195862,0.0784912,-0.44397,0.87085
1470345141231725,-0.195923,0.0787964,-0.443787,0.870911
1470345141253823,-0.196045,0.0791016,-0.443604,0.870911
1470345141268830,-0.196045,0.0792847,-0.443359,0.871033
1470345141291780,-0.195801,0.0794678,-0.443054,0.871216
1470345141314335,-0.19574,0.0796509,-0.442627,0.871399
1470345141329348,-0.195862,0.0797729,-0.442322,0.871521
1470345141351876,-0.195984,0.0799561,-0.442139,0.871582
1470345141373910,-0.19635,0.0800781,-0.442078,0.871521
1470345141388907,-0.196838,0.0802002,-0.442139,0.871399
1470345141411930,-0.197449,0.0805054,-0.442078,0.871216
1470345141434043,-0.197998,0.0807495,-0.442017,0.871155
1470345141448028,-0.198242,0.0809937,-0.442078,0.871033
1470345141472046,-0.198547,0.0813599,-0.442017,0.870911
1470345141494086,-0.198914,0.0817261,-0.442017,0.87085
1470345141508170,-0.199097,0.0819092,-0.442078,0.870728
1470345141531790,-0.199097,0.0819702,-0.442078,0.870728
1470345141553832,-0.199097,0.0819702,-0.442078,0.870728
1470345141568825,-0.198914,0.0820313,-0.441956,0.87085
1470345141591843,-0.198792,0.0821533,-0.441711,0.870972
1470345141614370,-0.198914,0.0822754,-0.441467,0.871094
1470345141628883,-0.198914,0.0822754,-0.441467,0.871033
1470345141651443,-0.198975,0.0822754,-0.441467,0.871033
1470345141674427,-0.198975,0.0823364,-0.441467,0.871033
1470345141695487,-0.199402,0.0825195,-0.441406,0.870972
1470345141713481,-0.199951,0.0826416,-0.441467,0.870789
1470345141734445,-0.2005,0.0827637,-0.441528,0.870605
1470345141755508,-0.201111,0.0828857,-0.441528,0.870483
1470345141771478,-0.20166,0.0830078,-0.441467,0.870361
1470345141794499,-0.202026,0.0830688,-0.441406,0.8703
1470345141815577,-0.202271,0.0831299,-0.441345,0.870239
1470345141831454,-0.202271,0.0831299,-0.441345,0.8703
1470345141854473,-0.202209,0.0830688,-0.441101,0.870422
1470345141875515,-0.202209,0.0830078,-0.440857,0.870544
1470345141891522,-0.202087,0.0829468,-0.440674,0.870667
1470345141914527,-0.201904,0.0828247,-0.44043,0.87085
1470345141935435,-0.201965,0.0828857,-0.44043,0.87085
1470345141951486,-0.201965,0.0828857,-0.44043,0.87085
1470345141974470,-0.202454,0.0829468,-0.44043,0.870728
1470345141995490,-0.202942,0.0830078,-0.44043,0.870605
1470345142011506,-0.203491,0.0830688,-0.440369,0.870483
1470345142034481,-0.204102,0.0831299,-0.440247,0.870361
1470345142055500,-0.204407,0.0831299,-0.440186,0.870361
1470345142071517,-0.204468,0.0831299,-0.440186,0.870361
1470345142094535,-0.204468,0.0831909,-0.440186,0.870361
1470345142115639,-0.204468,0.0831909,-0.440186,0.870361
1470345142131537,-0.204529,0.0831909,-0.440186,0.8703
1470345142154515,-0.204468,0.083313,-0.440186,0.8703
1470345142176578,-0.204224,0.0834351,-0.440186,0.870361
1470345142191549,-0.203796,0.0836182,-0.440063,0.870544
1470345142213573,-0.203674,0.0837402,-0.43988,0.870605
1470345142236508,-0.203674,0.0837402,-0.43988,0.870605
1470345142251520,-0.203674,0.0837402,-0.43988,0.870605
1470345142273563,-0.203918,0.0838623,-0.439819,0.870605
1470345142296596,-0.204346,0.0839844,-0.439697,0.870544
1470345142310622,-0.204834,0.0839844,-0.439575,0.870483
1470345142334492,-0.205261,0.0839233,-0.439453,0.870483
1470345142356538,-0.205261,0.0839233,-0.439453,0.870483
1470345142370565,-0.205261,0.0839844,-0.439453,0.870483
1470345142393601,-0.205322,0.0839844,-0.439392,0.870483
1470345142417073,-0.205322,0.0839844,-0.439392,0.870422
1470345142430084,-0.205322,0.0839844,-0.439392,0.870422
1470345142454478,-0.205383,0.0839844,-0.439392,0.870422
1470345142476535,-0.205383,0.0839844,-0.439392,0.870422
1470345142490515,-0.205139,0.0839844,-0.43927,0.870544
1470345142514534,-0.204956,0.0841064,-0.439087,0.870667
1470345142536542,-0.204956,0.0841064,-0.439087,0.870667
1470345142550556,-0.205017,0.0841675,-0.439087,0.870667
1470345142574533,-0.205017,0.0841675,-0.439087,0.870667
1470345142596604,-0.205383,0.0844116,-0.439026,0.870605
1470345142610566,-0.205872,0.0845947,-0.438965,0.870483
1470345142634564,-0.206421,0.0847778,-0.438843,0.870422
1470345142656594,-0.206787,0.0849609,-0.438721,0.870361
1470345142677607,-0.20697,0.085144,-0.438538,0.870422
1470345142694619,-0.207031,0.085144,-0.438477,0.870422
1470345142717145,-0.207031,0.0852051,-0.438477,0.870422
1470345142738358,-0.207031,0.0852051,-0.438477,0.870422
1470345142753399,-0.207214,0.0853271,-0.438416,0.870361
1470345142776393,-0.207275,0.0853271,-0.438416,0.870361
1470345142797455,-0.207153,0.0853882,-0.438171,0.870544
1470345142814428,-0.207153,0.0853882,-0.437927,0.870667
1470345142836714,-0.207214,0.0853882,-0.437683,0.870728
1470345142857789,-0.207458,0.0855103,-0.437439,0.870789
1470345142873773,-0.207886,0.0856323,-0.437256,0.870789
1470345142896778,-0.208435,0.0858154,-0.437073,0.870667
1470345142917879,-0.208801,0.0858154,-0.436951,0.870667
1470345142934518,-0.208801,0.0858154,-0.436951,0.870667
1470345142956538,-0.208862,0.0858154,-0.436951,0.870667
1470345142977557,-0.209045,0.0861206,-0.436829,0.870667
1470345142993573,-0.209351,0.0863647,-0.436707,0.870605
1470345143017129,-0.209351,0.0863647,-0.436707,0.870605
1470345143038209,-0.209412,0.0863647,-0.436707,0.870605
1470345143054225,-0.209167,0.0863037,-0.436584,0.870728
1470345143076244,-0.208984,0.0862427,-0.436462,0.87085
1470345143099266,-0.208923,0.0863647,-0.436218,0.870972
1470345143114279,-0.208923,0.0864258,-0.436218,0.870972
1470345143136364,-0.208862,0.0864868,-0.436096,0.871033
1470345143159386,-0.208679,0.0864258,-0.436096,0.871094
1470345143174398,-0.208862,0.0864258,-0.436035,0.871094
1470345143202471,-0.209351,0.0864868,-0.435974,0.870972
1470345143225547,-0.209961,0.0864868,-0.435852,0.87085
1470345143233533,-0.210022,0.0864868,-0.435913,0.87085
1470345143256558,-0.210022,0.0864868,-0.435913,0.87085
1470345143278629,-0.210083,0.0864868,-0.435852,0.87085
1470345143293587,-0.210083,0.0865479,-0.435852,0.87085
1470345143317149,-0.21051,0.0866089,-0.435852,0.870728
1470345143338715,-0.210571,0.0866089,-0.435852,0.870728
1470345143353686,-0.210449,0.0864258,-0.435913,0.870728
1470345143376734,-0.210205,0.0863037,-0.435913,0.87085
1470345143398813,-0.210205,0.0863647,-0.435913,0.87085
1470345143413740,-0.210205,0.0863647,-0.435913,0.87085
1470345143436644,-0.210205,0.0863647,-0.435913,0.87085
1470345143458662,-0.210449,0.0863037,-0.43573,0.87085
1470345143473669,-0.210449,0.0863647,-0.43573,0.87085
1470345143496690,-0.210693,0.0863647,-0.435669,0.870789
1470345143519219,-0.211426,0.0866089,-0.435852,0.870544
1470345143533736,-0.212463,0.0869141,-0.435913,0.870239
1470345143556758,-0.213318,0.0870972,-0.435913,0.869995
1470345143578776,-0.213867,0.0874023,-0.435974,0.869812
1470345143600802,-0.213867,0.0874023,-0.435974,0.869751
1470345143616843,-0.21405,0.0875244,-0.436096,0.86969
1470345143638990,-0.214417,0.0876465,-0.436218,0.869507
1470345143659937,-0.214661,0.0877075,-0.436401,0.869324
1470345143676902,-0.214783,0.0878296,-0.436523,0.869263
1470345143698923,-0.214478,0.0880737,-0.436523,0.869263
1470345143720447,-0.215149,0.0882568,-0.436401,0.869202
1470345143736969,-0.216248,0.0884399,-0.436157,0.869019
1470345143758989,-0.217102,0.088501,-0.435974,0.868896
1470345143780036,-0.217285,0.0882568,-0.435913,0.868896
1470345143797026,-0.21698,0.0880127,-0.435974,0.868958
1470345143819580,-0.216797,0.0876465,-0.436218,0.868896
1470345143840134,-0.217285,0.0876465,-0.43634,0.868713
1470345143857135,-0.217651,0.0876465,-0.436462,0.868591
1470345143879211,-0.217712,0.0875854,-0.436768,0.868408
1470345143900256,-0.217651,0.0875244,-0.437073,0.868286
1470345143916780,-0.217468,0.0874023,-0.437439,0.868164
1470345143939307,-0.217285,0.0872803,-0.437744,0.868103
1470345143960329,-0.217041,0.0872803,-0.438049,0.867981
1470345143976340,-0.216797,0.0872803,-0.438354,0.867859
1470345143999362,-0.216797,0.0872803,-0.438354,0.867859
1470345144020446,-0.216675,0.0872803,-0.438354,0.86792
1470345144037023,-0.216431,0.0872192,-0.438354,0.867981
1470345144059064,-0.216125,0.0871582,-0.438416,0.868042
1470345144082061,-0.216187,0.0871582,-0.438416,0.868042
1470345144097074,-0.216187,0.0871582,-0.438416,0.868042
1470345144119645,-0.216187,0.0871582,-0.438416,0.868042
1470345144141724,-0.216248,0.0871582,-0.438416,0.867981
1470345144156737,-0.216125,0.086853,-0.438416,0.868042
1470345144178791,-0.215942,0.0866699,-0.438477,0.868103
1470345144201813,-0.216064,0.0865479,-0.438477,0.868103
1470345144222856,-0.216064,0.0865479,-0.438477,0.868103
1470345144239579,-0.215881,0.0863037,-0.438477,0.868164
1470345144261639,-0.215576,0.0861206,-0.438538,0.868225
1470345144275613,-0.215393,0.0859985,-0.438538,0.868225
1470345144299635,-0.215088,0.0859985,-0.438538,0.868347
1470345144321716,-0.214539,0.0859985,-0.438477,0.868469
1470345144336257,-0.214172,0.0860596,-0.438538,0.868591
1470345144359277,-0.213989,0.0861206,-0.438599,0.868591
1470345144381297,-0.213989,0.0861206,-0.438599,0.868591
1470345144387304,-0.21405,0.0861206,-0.438599,0.868591
1470345144403317,-0.21405,0.0861206,-0.438599,0.86853
1470345144424840,-0.213745,0.0861816,-0.43866,0.868591
1470345144447370,-0.213501,0.0861206,-0.438782,0.868591
1470345144463401,-0.213501,0.0861206,-0.438782,0.868591
1470345144484437,-0.213562,0.0861206,-0.438782,0.868591
1470345144507455,-0.213562,0.0859375,-0.438782,0.868591
1470345144523474,-0.213501,0.0857544,-0.438782,0.868652
1470345144545119,-0.213318,0.0856934,-0.438721,0.868713
1470345144567174,-0.213196,0.0856934,-0.438599,0.868774
1470345144583153,-0.212952,0.0855713,-0.438538,0.868896
1470345144604188,-0.212708,0.0855713,-0.438416,0.869019
1470345144627204,-0.212708,0.0856323,-0.438416,0.869019
1470345144643724,-0.212891,0.0854492,-0.438293,0.86908
1470345144664744,-0.213013,0.0852661,-0.43811,0.869141
1470345144686803,-0.212952,0.085022,-0.437988,0.869263
1470345144703779,-0.21283,0.0847168,-0.437927,0.869324
1470345144725306,-0.21283,0.0847168,-0.437927,0.869324
1470345144747581,-0.21283,0.0847168,-0.437927,0.869324
1470345144763519,-0.212891,0.0847168,-0.437927,0.869324
1470345144784590,-0.212891,0.0847168,-0.437927,0.869324
1470345144807561,-0.21283,0.0845337,-0.437927,0.869324
1470345144823583,-0.212646,0.0844116,-0.437927,0.869385
1470345144844924,-0.212463,0.0842896,-0.437927,0.869446
1470345144867971,-0.211792,0.0840454,-0.437988,0.869629
1470345144883024,-0.211365,0.0839233,-0.437927,0.869751
1470345144904075,-0.211365,0.0839844,-0.437927,0.869751
1470345144927126,-0.211243,0.0838623,-0.437866,0.869812
1470345144943098,-0.211182,0.0837402,-0.437744,0.869934
1470345144964118,-0.211243,0.0836182,-0.437683,0.869934
1470345144987138,-0.211304,0.0835571,-0.437683,0.869934
1470345145005156,-0.211304,0.0836182,-0.437683,0.869934
1470345145024681,-0.211609,0.0837402,-0.437744,0.869812
1470345145047210,-0.211731,0.0838623,-0.437988,0.869629
1470345145065223,-0.211731,0.0838623,-0.437988,0.869629
1470345145084254,-0.212097,0.0841064,-0.437988,0.869568
1470345145107289,-0.212097,0.0841064,-0.437988,0.869507
1470345145125296,-0.212097,0.0841064,-0.437988,0.869568
1470345145144423,-0.212097,0.0840454,-0.437988,0.869568
1470345145167396,-0.211914,0.0841064,-0.437866,0.869629
1470345145185406,-0.21167,0.0842285,-0.437622,0.869812
1470345145204457,-0.211426,0.0843506,-0.437317,0.869995
1470345145227504,-0.211365,0.0844727,-0.437073,0.870117
1470345145244564,-0.211487,0.0845337,-0.43689,0.870178
1470345145264586,-0.211487,0.0845947,-0.43689,0.870178
1470345145287632,-0.211548,0.0845947,-0.43689,0.870178
1470345145304619,-0.211853,0.0849609,-0.436707,0.870117
1470345145324682,-0.21228,0.0853882,-0.436646,0.870056
1470345145346713,-0.212769,0.0858154,-0.436523,0.869934
1470345145364683,-0.213074,0.0861816,-0.436523,0.869812
1470345145384720,-0.21344,0.0865479,-0.436523,0.86969
1470345145406723,-0.21344,0.0865479,-0.436523,0.86969
1470345145425243,-0.213379,0.0865479,-0.436523,0.86969
1470345145444386,-0.213562,0.086792,-0.436279,0.869751
1470345145467483,-0.213684,0.0869751,-0.436035,0.869873
1470345145484425,-0.213684,0.0870972,-0.435669,0.869995
1470345145507443,-0.213745,0.0873413,-0.435303,0.870117
1470345145527496,-0.213867,0.0875854,-0.435059,0.870239
1470345145544991,-0.21405,0.0877686,-0.434875,0.8703
1470345145565009,-0.214294,0.0880127,-0.434692,0.870239
1470345145587084,-0.214539,0.0881958,-0.434509,0.8703
1470345145605045,-0.214905,0.0883179,-0.434265,0.8703
1470345145626067,-0.215332,0.0883789,-0.434021,0.8703
1470345145646954,-0.215576,0.0884399,-0.433838,0.8703
1470345145664916,-0.215576,0.088501,-0.433838,0.8703
1470345145685933,-0.215637,0.088501,-0.433838,0.8703
1470345145706953,-0.215698,0.088501,-0.433838,0.8703
1470345145725503,-0.215698,0.088501,-0.433838,0.8703
1470345145746000,-0.21582,0.0886841,-0.433899,0.870239
1470345145767019,-0.21582,0.0886841,-0.433899,0.870239
1470345145785035,-0.215759,0.0889893,-0.433716,0.8703
1470345145806053,-0.215698,0.0891724,-0.433533,0.870361
1470345145827610,-0.215515,0.0892944,-0.433411,0.870483
1470345145852148,-0.215515,0.0893555,-0.433411,0.870483
1470345145866159,-0.215515,0.0893555,-0.433411,0.870483
1470345145887237,-0.215576,0.0893555,-0.433411,0.870422
1470345145909223,-0.215576,0.0893555,-0.433411,0.870422
1470345145927828,-0.215576,0.0894165,-0.433411,0.870422
1470345145947103,-0.215637,0.0894165,-0.433411,0.870422
1470345145965094,-0.215637,0.0894165,-0.433411,0.870422
1470345145987108,-0.215698,0.0894165,-0.433411,0.870422
1470345146007187,-0.215759,0.0894165,-0.433411,0.870422
1470345146025209,-0.215759,0.0894165,-0.433411,0.870422
1470345146047251,-0.215759,0.0894165,-0.433411,0.870422
1470345146067353,-0.215454,0.0895386,-0.43335,0.870483
1470345146085283,-0.214966,0.0895996,-0.433228,0.870667
1470345146107304,-0.2146,0.0896606,-0.433228,0.870728
1470345146127344,-0.214355,0.0897217,-0.433228,0.870789
1470345146145364,-0.214111,0.0897217,-0.43335,0.870789
1470345146167383,-0.214172,0.0897827,-0.43335,0.870789
1470345146187459,-0.214355,0.0898438,-0.433472,0.870667
1470345146205418,-0.214417,0.0896606,-0.433716,0.870544
1470345146227500,-0.214539,0.0895996,-0.433838,0.870483
1470345146247177,-0.214539,0.0895996,-0.433838,0.870483
1470345146265165,-0.214539,0.0895996,-0.433838,0.870483
1470345146287182,-0.2146,0.0896606,-0.433838,0.870422
1470345146307244,-0.214478,0.0894775,-0.433838,0.870483
1470345146325308,-0.214294,0.0893555,-0.433838,0.870544
1470345146347509,-0.214294,0.0893555,-0.433838,0.870544
1470345146367528,-0.214294,0.0893555,-0.433838,0.870544
1470345146385593,-0.214294,0.0894165,-0.433838,0.870544
1470345146408563,-0.214355,0.0894165,-0.433838,0.870544
1470345146427630,-0.214233,0.0893555,-0.433777,0.870605
1470345146445149,-0.214233,0.0893555,-0.433777,0.870605
1470345146467169,-0.214233,0.0894165,-0.433777,0.870605
1470345146487243,-0.214478,0.0894165,-0.433777,0.870544
1470345146505267,-0.214539,0.0894165,-0.433777,0.870544
1470345146527828,-0.215027,0.0894775,-0.433716,0.870422
1470345146550149,-0.215088,0.0894775,-0.433716,0.870422
1470345146565162,-0.215088,0.0894775,-0.433716,0.870422
1470345146587186,-0.215393,0.0895996,-0.433838,0.870239
1470345146608200,-0.215454,0.0895996,-0.433838,0.870239
1470345146625268,-0.215454,0.0895996,-0.433838,0.870239
1470345146647344,-0.215454,0.0895996,-0.433838,0.870239
1470345146668363,-0.215454,0.0895996,-0.433838,0.870239
1470345146685391,-0.215454,0.0895996,-0.433838,0.870239
1470345146707399,-0.215149,0.0895996,-0.433594,0.870422
1470345146728932,-0.215027,0.0896606,-0.433472,0.870544
1470345146745588,-0.215027,0.0896606,-0.433472,0.870544
1470345146767470,-0.215088,0.0897217,-0.433472,0.870544
1470345146788489,-0.215088,0.0897217,-0.433411,0.870544
1470345146805504,-0.215088,0.0897217,-0.433411,0.870483
1470345146827548,-0.215576,0.0897217,-0.433533,0.870361
1470345146849629,-0.215942,0.0895996,-0.433655,0.870239
1470345146864641,-0.215942,0.0896606,-0.433655,0.870178
1470345146887709,-0.215942,0.0896606,-0.433655,0.870178
1470345146909678,-0.215942,0.0896606,-0.433655,0.870178
1470345146930760,-0.215942,0.0896606,-0.433655,0.870178
1470345146946473,-0.215698,0.0896606,-0.433655,0.870239
1470345146969494,-0.215393,0.0895996,-0.433655,0.870361
1470345146990516,-0.215088,0.0895996,-0.433472,0.870483
1470345147014536,-0.214905,0.0895996,-0.433289,0.870667
1470345147029553,-0.214661,0.0895386,-0.433167,0.870789
1470345147043138,-0.214478,0.0894165,-0.432983,0.870911
1470345147067116,-0.214478,0.0894165,-0.432983,0.870911
1470345147089174,-0.214539,0.0894775,-0.432983,0.870911
1470345147103174,-0.214539,0.0894775,-0.432983,0.870911
1470345147126758,-0.2146,0.0894775,-0.432983,0.870911
1470345147148999,-0.214661,0.0894775,-0.432983,0.87085
1470345147163964,-0.214661,0.0894775,-0.432983,0.87085
1470345147186985,-0.214722,0.0894775,-0.432983,0.87085
1470345147209015,-0.214722,0.0897217,-0.433044,0.870789
1470345147223580,-0.214661,0.0898438,-0.433105,0.870728
1470345147246620,-0.214661,0.0900269,-0.433228,0.870728
1470345147269626,-0.214478,0.0900269,-0.433289,0.870728
1470345147283642,-0.214417,0.0900269,-0.433289,0.870728
1470345147306705,-0.214478,0.0900269,-0.433289,0.870728
1470345147329244,-0.214478,0.0900879,-0.433289,0.870728
1470345147343822,-0.214478,0.0900879,-0.433228,0.870728
1470345147366830,-0.214661,0.0899658,-0.433105,0.870728
1470345147388900,-0.214966,0.0897827,-0.433044,0.870728
1470345147409871,-0.215454,0.0897827,-0.432922,0.870667
1470345147426889,-0.216003,0.0899048,-0.4328,0.870605
1470345147448807,-0.216003,0.0899048,-0.4328,0.870605
1470345147469846,-0.216003,0.0899048,-0.4328,0.870544
1470345147486841,-0.216064,0.0899048,-0.4328,0.870544
1470345147508900,-0.216125,0.0899048,-0.4328,0.870544
1470345147530435,-0.216248,0.0901489,-0.432861,0.870422
1470345147546935,-0.216431,0.0903931,-0.432983,0.8703
1470345147568998,-0.216492,0.0905151,-0.433228,0.870178
1470345147590002,-0.216492,0.0905151,-0.433228,0.870178
1470345147606988,-0.216492,0.0905151,-0.433228,0.870178
1470345147629544,-0.216492,0.0905151,-0.433228,0.870178
1470345147650067,-0.21637,0.0904541,-0.433044,0.8703
1470345147667082,-0.216125,0.090332,-0.432861,0.870483
1470345147689106,-0.216003,0.09021,-0.4328,0.870605
1470345147710122,-0.215881,0.09021,-0.432617,0.870667
1470345147727184,-0.216003,0.090271,-0.432617,0.870667
1470345147749207,-0.216064,0.090271,-0.432617,0.870605
1470345147770225,-0.216064,0.09021,-0.432617,0.870605
1470345147786258,-0.216064,0.090271,-0.432617,0.870605
1470345147809308,-0.216125,0.090271,-0.432617,0.870605
1470345147831879,-0.216125,0.090271,-0.432617,0.870605
1470345147847399,-0.216125,0.090271,-0.432617,0.870605
1470345147869418,-0.216125,0.090271,-0.432617,0.870605
1470345147891438,-0.216187,0.090271,-0.432617,0.870605
1470345147906500,-0.216187,0.090271,-0.432617,0.870605
1470345147929524,-0.216187,0.090332,-0.432617,0.870605
1470345147951577,-0.216187,0.090332,-0.432617,0.870605
1470345147966590,-0.216248,0.090332,-0.432617,0.870605
1470345147989611,-0.216187,0.09021,-0.432495,0.870667
1470345148011632,-0.216248,0.090271,-0.432495,0.870667
1470345148026206,-0.216614,0.0903931,-0.432434,0.870544
1470345148048812,-0.21698,0.0904541,-0.432495,0.870422
1470345148071778,-0.217041,0.0904541,-0.432495,0.870422
1470345148085796,-0.217041,0.0904541,-0.432495,0.870422
1470345148108856,-0.217102,0.0904541,-0.432434,0.870422
1470345148131880,-0.217102,0.0905151,-0.432434,0.870422
1470345148145993,-0.217102,0.0905151,-0.432434,0.870422
1470345148169022,-0.217163,0.0904541,-0.432434,0.870422
1470345148191993,-0.216919,0.0905762,-0.432495,0.870483
1470345148206003,-0.216919,0.0906372,-0.432434,0.870483
1470345148229585,-0.216919,0.0906372,-0.432434,0.870483
1470345148252150,-0.216736,0.0905762,-0.432373,0.870544
1470345148266190,-0.216736,0.0905151,-0.432251,0.870605
1470345148289184,-0.216736,0.090332,-0.43219,0.870667
1470345148311238,-0.216675,0.09021,-0.432129,0.870728
1470345148333230,-0.216736,0.090271,-0.432129,0.870728
1470345148349275,-0.216736,0.090271,-0.432129,0.870728
1470345148371294,-0.216736,0.090271,-0.432129,0.870728
1470345148392400,-0.216797,0.090271,-0.432129,0.870728
1470345148409330,-0.216797,0.090271,-0.432129,0.870667
1470345148431977,-0.216797,0.090271,-0.432129,0.870667
1470345148452560,-0.216858,0.090271,-0.432129,0.870667
1470345148469570,-0.216736,0.090271,-0.432129,0.870667
1470345148491540,-0.216553,0.090332,-0.43219,0.870728
1470345148514562,-0.216492,0.090332,-0.43219,0.870728
1470345148529639,-0.216553,0.090332,-0.43219,0.870728
1470345148551667,-0.216309,0.090332,-0.432068,0.87085
1470345148572685,-0.216309,0.090332,-0.432068,0.87085
1470345148588745,-0.21637,0.090332,-0.432068,0.87085
1470345148611720,-0.216431,0.090332,-0.432068,0.870789
1470345148633248,-0.216431,0.0903931,-0.432068,0.870789
1470345148648772,-0.216492,0.0903931,-0.432007,0.870789
1470345148671788,-0.216492,0.0904541,-0.432007,0.870789
1470345148692865,-0.216553,0.0903931,-0.432007,0.870789
1470345148708823,-0.216553,0.0903931,-0.432007,0.870789
1470345148731849,-0.216492,0.0905151,-0.432007,0.870789
1470345148753875,-0.216492,0.0905762,-0.432007,0.870789
1470345148768892,-0.216553,0.0905151,-0.432007,0.870789
1470345148791908,-0.216553,0.0905762,-0.432007,0.870789
1470345148813928,-0.216553,0.0905762,-0.432007,0.870789
1470345148828951,-0.216553,0.0905762,-0.432007,0.870789
1470345148859020,-0.21637,0.0906372,-0.431824,0.870911
1470345148874041,-0.216248,0.0906982,-0.431641,0.871033
1470345148889070,-0.216187,0.0906982,-0.431458,0.871155
1470345148912068,-0.216125,0.0906982,-0.431274,0.871216
1470345148934183,-0.216064,0.0906982,-0.431152,0.871277
1470345148948206,-0.216125,0.0907593,-0.431152,0.871277
1470345148971260,-0.216187,0.0907593,-0.431152,0.871277
1470345148994249,-0.216553,0.0908813,-0.431274,0.871094
1470345149008260,-0.216614,0.0908813,-0.431274,0.871094
1470345149031812,-0.216614,0.0908813,-0.431274,0.871094
1470345149054405,-0.216614,0.0908813,-0.431274,0.871094
1470345149068438,-0.216614,0.0908813,-0.431274,0.871094
1470345149091488,-0.216492,0.0908813,-0.431335,0.871094
1470345149114460,-0.216125,0.0907593,-0.431396,0.871155
1470345149128613,-0.215881,0.0906982,-0.431458,0.871216
1470345149151269,-0.215637,0.0906982,-0.431335,0.871277
1470345149174291,-0.215454,0.0907593,-0.431213,0.871399
1470345149188305,-0.215454,0.0907593,-0.43103,0.871521
1470345149211323,-0.215149,0.0906982,-0.430908,0.871643
1470345149234350,-0.215027,0.0906982,-0.430786,0.871765
1470345149248922,-0.215027,0.0906982,-0.430786,0.871765
1470345149271913,-0.215088,0.0906982,-0.430786,0.871765
1470345149293933,-0.215576,0.0906982,-0.430847,0.871582
1470345149314997,-0.215881,0.0906982,-0.430908,0.87146
1470345149332018,-0.216187,0.0906982,-0.430969,0.871338
1470345149354155,-0.216614,0.0908203,-0.43103,0.871216
1470345149375167,-0.216919,0.0910034,-0.43103,0.871155
1470345149392131,-0.216919,0.0910034,-0.43103,0.871155
1470345149414152,-0.21698,0.0912476,-0.43103,0.871094
1470345149435677,-0.217041,0.0914307,-0.431091,0.871033
1470345149451797,-0.216858,0.0914307,-0.431091,0.871033
1470345149473874,-0.216858,0.0914917,-0.431091,0.871094
1470345149494835,-0.216858,0.0915527,-0.430847,0.871155
1470345149511850,-0.216797,0.0914917,-0.430664,0.871277
1470345149534404,-0.216797,0.0913696,-0.43042,0.871399
1470345149556520,-0.216736,0.0913086,-0.430298,0.871521
1470345149571473,-0.216797,0.0913696,-0.430298,0.871521
1470345149594494,-0.216797,0.0913696,-0.430298,0.87146
1470345149615527,-0.217224,0.0915527,-0.430237,0.871399
1470345149632034,-0.217224,0.0915527,-0.430237,0.871399
1470345149654469,-0.217285,0.0915527,-0.430237,0.871399
1470345149675530,-0.217285,0.0915527,-0.430237,0.871338
1470345149691502,-0.217285,0.0916138,-0.430237,0.871338
1470345149714522,-0.217346,0.0916138,-0.430237,0.871338
1470345149737080,-0.217163,0.0914917,-0.43042,0.871338
1470345149751693,-0.216919,0.0913696,-0.430542,0.871338
1470345149773738,-0.216919,0.0913696,-0.430542,0.871338
1470345149796763,-0.216736,0.0913086,-0.430481,0.871399
1470345149811726,-0.216553,0.0911255,-0.43042,0.871521
1470345149834269,-0.216431,0.0910034,-0.430298,0.871582
1470345149856793,-0.21637,0.0908813,-0.430237,0.871643
1470345149871806,-0.216553,0.0907593,-0.430176,0.871643
1470345149893878,-0.216553,0.0907593,-0.430176,0.871643
1470345149916901,-0.216553,0.0907593,-0.430176,0.871643
1470345149931364,-0.216614,0.0907593,-0.430176,0.871643
1470345149954494,-0.216614,0.0908203,-0.430176,0.871643
1470345149976513,-0.216675,0.0908203,-0.430176,0.871643
1470345149990526,-0.216736,0.0908813,-0.430176,0.871582
1470345150014548,-0.216858,0.0907593,-0.43042,0.87146
1470345150037074,-0.216858,0.0907593,-0.43042,0.87146
1470345150051090,-0.216858,0.0907593,-0.43042,0.87146
1470345150074110,-0.21698,0.0908813,-0.430359,0.87146
1470345150097132,-0.21698,0.0908813,-0.430359,0.87146
1470345150111144,-0.21698,0.0908813,-0.430359,0.87146
1470345150134176,-0.216919,0.0908813,-0.430176,0.871582
1470345150156203,-0.21698,0.0908203,-0.429993,0.871643
1470345150171218,-0.21698,0.0908203,-0.429993,0.871643
1470345150194238,-0.217041,0.0908813,-0.429993,0.871643
1470345150216272,-0.217407,0.0910034,-0.429993,0.871521
1470345150238283,-0.217712,0.0911255,-0.429993,0.87146
1470345150254314,-0.217773,0.0911255,-0.429993,0.87146
1470345150277337,-0.217773,0.0911255,-0.429993,0.871399
1470345150298354,-0.217773,0.0911255,-0.429993,0.871399
1470345150314370,-0.217834,0.0911255,-0.429993,0.871399
1470345150336896,-0.217834,0.0911255,-0.429993,0.871399
1470345150357419,-0.217834,0.0911255,-0.429993,0.871399
1470345150374435,-0.217957,0.0912476,-0.429993,0.871338
1470345150396453,-0.218323,0.0914307,-0.429932,0.871277
1470345150417531,-0.218567,0.0915527,-0.429749,0.871277
1470345150434504,-0.218567,0.0916138,-0.429565,0.871338
1470345150456585,-0.218384,0.0916748,-0.429382,0.871521
1470345150477608,-0.218445,0.0915527,-0.429199,0.871582
1470345150494619,-0.218445,0.0916138,-0.429199,0.871582
1470345150516688,-0.218506,0.0916138,-0.429199,0.871582
1470345150538241,-0.218506,0.0916138,-0.429199,0.871582
1470345150553893,-0.218567,0.0916138,-0.429199,0.871582
1470345150576827,-0.218628,0.0916138,-0.429199,0.871582
1470345150597885,-0.218628,0.0916138,-0.429199,0.871521
1470345150613861,-0.218689,0.0916138,-0.429199,0.871521
1470345150636901,-0.218628,0.0918579,-0.429199,0.871521
1470345150658963,-0.218445,0.0919189,-0.42926,0.871521
1470345150673975,-0.21814,0.0919189,-0.429321,0.871582
1470345150696998,-0.21814,0.0919189,-0.429382,0.871582
1470345150719019,-0.218018,0.092041,-0.429199,0.871643
1470345150734567,-0.217896,0.0921021,-0.429016,0.871765
1470345150757106,-0.217712,0.0921631,-0.428894,0.871887
1470345150779128,-0.21759,0.0922241,-0.428772,0.871948
1470345150794190,-0.217651,0.0922241,-0.428772,0.871948
1470345150816249,-0.217651,0.0922241,-0.428772,0.871948
1470345150839247,-0.218018,0.0924683,-0.428772,0.871826
1470345150853928,-0.218262,0.0927124,-0.428833,0.871704
1470345150876985,-0.218323,0.0928955,-0.428894,0.871643
1470345150898968,-0.218323,0.0928955,-0.428894,0.871643
1470345150913982,-0.218323,0.0928955,-0.428894,0.871643
1470345150937012,-0.218384,0.0929565,-0.428894,0.871643
1470345150959551,-0.218384,0.0929565,-0.428894,0.871643
1470345150973564,-0.218262,0.0930176,-0.429016,0.871582
1470345150996583,-0.217957,0.0930176,-0.429138,0.871582
1470345151019604,-0.217957,0.0930176,-0.429138,0.871582
1470345151033652,-0.217773,0.0932617,-0.428833,0.871765
1470345151071372,-0.217529,0.0932007,-0.42865,0.871887
1470345151079323,-0.217285,0.0932007,-0.428467,0.87207
1470345151093397,-0.217102,0.0933838,-0.428345,0.872131
1470345151116359,-0.217468,0.093689,-0.428223,0.872131
1470345151139409,-0.217957,0.0939941,-0.428101,0.872009
1470345151159934,-0.218201,0.0942993,-0.428101,0.871887
1470345151176950,-0.218201,0.0942993,-0.428101,0.871887
1470345151198966,-0.218201,0.0942993,-0.428101,0.871887
1470345151220000,-0.218201,0.0942993,-0.428101,0.871887
1470345151237020,-0.218201,0.0942993,-0.428101,0.871887
1470345151259674,-0.218262,0.0942993,-0.428101,0.871887
1470345151280725,-0.218018,0.0942383,-0.428162,0.871948
1470345151296708,-0.217773,0.0939941,-0.428284,0.871948
1470345151318721,-0.217773,0.0939941,-0.428284,0.871948
1470345151340763,-0.21759,0.093811,-0.428284,0.872009
1470345151357034,-0.217712,0.093689,-0.428223,0.872009
1470345151379057,-0.217712,0.0935059,-0.42804,0.872131
1470345151400100,-0.217651,0.0933838,-0.427856,0.872253
1470345151417088,-0.217651,0.0934448,-0.427856,0.872253
1470345151439611,-0.217712,0.0934448,-0.427856,0.872253
1470345151460135,-0.218079,0.093689,-0.427795,0.872131
1470345151477151,-0.218384,0.09375,-0.427917,0.872009
1470345151499170,-0.218445,0.093811,-0.427917,0.872009
1470345151520188,-0.218689,0.0939941,-0.427979,0.871826
1470345151537223,-0.218689,0.0939941,-0.427979,0.871826
1470345151559271,-0.218689,0.0939941,-0.427979,0.871826
1470345151580305,-0.218689,0.0939941,-0.428284,0.871704
1470345151596332,-0.218872,0.0939331,-0.428528,0.871582
1470345151619324,-0.219177,0.0940552,-0.42865,0.871399
1470345151641858,-0.219482,0.0942383,-0.428589,0.871338
1470345151655940,-0.219543,0.0942383,-0.428589,0.871338
1470345151678964,-0.219604,0.0942383,-0.428406,0.871399
1470345151701981,-0.219604,0.0942383,-0.428467,0.871399
1470345151716994,-0.219666,0.0942993,-0.428406,0.871399
1470345151739610,-0.219849,0.0943604,-0.428589,0.871216
1470345151761691,-0.220032,0.0945435,-0.428772,0.871094
1470345151775705,-0.219971,0.0947876,-0.429016,0.870972
1470345151799727,-0.219971,0.0949707,-0.429077,0.870911
1470345151822746,-0.219971,0.0949707,-0.429077,0.870911
1470345151836319,-0.220032,0.0949707,-0.429077,0.87085
1470345151858869,-0.21991,0.0949707,-0.429138,0.87085
1470345151881882,-0.219666,0.0949097,-0.42926,0.870911
1470345151895938,-0.219666,0.0949097,-0.42926,0.870911
1470345151918914,-0.219666,0.0949097,-0.42926,0.870911
1470345151942001,-0.219177,0.0949097,-0.429199,0.871033
1470345151956054,-0.217896,0.0949097,-0.428711,0.871582
1470345151979041,-0.217834,0.0952148,-0.427979,0.871948
1470345152002060,-0.218018,0.0955811,-0.427429,0.872131
1470345152016074,-0.218018,0.0956421,-0.427429,0.872131
1470345152039600,-0.21814,0.0957642,-0.427612,0.872009
1470345152061691,-0.218384,0.0957642,-0.427856,0.871826
1470345152075722,-0.218811,0.0957031,-0.42804,0.871643
1470345152098721,-0.218872,0.0953369,-0.428345,0.871521
1470345152121739,-0.218689,0.0948486,-0.428528,0.871521
1470345152143261,-0.218262,0.0943604,-0.428528,0.871704
1470345152159315,-0.218201,0.0942993,-0.428345,0.871765
1470345152182337,-0.217834,0.0941162,-0.428345,0.871887
1470345152203353,-0.217041,0.0939331,-0.428223,0.872131
1470345152205357,-0.216187,0.0935059,-0.428406,0.872314
1470345152224375,-0.215271,0.0930176,-0.428772,0.872437
1470345152248411,-0.214783,0.0929565,-0.428711,0.872559
1470345152265422,-0.214722,0.0928955,-0.428528,0.872681
1470345152284438,-0.214783,0.0927124,-0.428345,0.872803
1470345152307457,-0.214661,0.0925293,-0.428284,0.872864
1470345152325473,-0.214661,0.0924072,-0.428223,0.872925
1470345152345001,-0.214722,0.0924683,-0.428223,0.872925
1470345152367526,-0.214722,0.0924683,-0.428223,0.872864
1470345152385540,-0.214722,0.0925293,-0.428223,0.872864
1470345152404558,-0.214722,0.0925903,-0.428223,0.872864
1470345152427576,-0.214783,0.0925293,-0.428223,0.872864
1470345152445116,-0.214783,0.0924683,-0.428223,0.872864
1470345152464224,-0.215088,0.0924683,-0.428345,0.872742
1470345152487244,-0.215454,0.0925903,-0.428406,0.87262
1470345152505260,-0.215454,0.0925293,-0.428406,0.87262
1470345152525280,-0.215515,0.0925293,-0.428406,0.87262
1470345152547519,-0.215149,0.0923462,-0.428162,0.872864
1470345152569512,-0.214722,0.0922852,-0.427979,0.873047
1470345152584528,-0.214722,0.0923462,-0.427917,0.873047
1470345152607573,-0.214966,0.0927734,-0.427795,0.873047
1470345152624558,-0.215332,0.0930176,-0.427673,0.872925
1470345152645080,-0.215393,0.0930176,-0.427673,0.872925
1470345152667105,-0.215576,0.0929565,-0.427856,0.872803
1470345152690128,-0.21582,0.0928955,-0.42804,0.872681
1470345152705139,-0.216125,0.0928345,-0.428223,0.872559
1470345152727184,-0.216431,0.0927734,-0.428345,0.872375
1470345152749259,-0.216492,0.0927734,-0.428345,0.872375
1470345152765221,-0.216492,0.0927734,-0.428345,0.872375
1470345152787302,-0.216492,0.0927734,-0.428284,0.872375
1470345152810283,-0.216431,0.0927124,-0.428284,0.872437
1470345152825289,-0.216064,0.0926514,-0.428162,0.872559
1470345152847087,-0.216003,0.0925293,-0.427979,0.872681
1470345152870008,-0.216003,0.0925293,-0.427979,0.872681
1470345152885053,-0.216003,0.0925903,-0.427979,0.872681
1470345152907098,-0.216064,0.0926514,-0.427979,0.872681
1470345152930076,-0.216309,0.0926514,-0.427979,0.87262
1470345152945115,-0.216614,0.0925293,-0.427979,0.872559
1470345152967346,-0.216858,0.0924683,-0.427917,0.872498
1470345152990311,-0.217102,0.0924072,-0.427979,0.872437
1470345153005313,-0.217102,0.0924072,-0.427979,0.872437
1470345153027356,-0.217163,0.0923462,-0.427979,0.872437
1470345153049951,-0.217163,0.0924072,-0.427979,0.872437
1470345153064941,-0.217224,0.0924072,-0.427979,0.872437
1470345153086962,-0.216675,0.0924072,-0.427917,0.872559
1470345153109978,-0.215942,0.0924683,-0.427673,0.872864
1470345153125043,-0.215515,0.0924072,-0.427307,0.873169
1470345153147150,-0.215271,0.0922241,-0.427124,0.873291
1470345153169168,-0.214966,0.0919189,-0.427124,0.873474
1470345153186184,-0.214722,0.0917358,-0.427185,0.873474
1470345153207202,-0.214661,0.0917969,-0.427246,0.873474
1470345153229242,-0.215088,0.0918579,-0.427246,0.873352
1470345153246252,-0.215637,0.0919189,-0.427429,0.873108
1470345153266945,-0.216003,0.0919189,-0.427612,0.872925
1470345153289966,-0.216064,0.0918579,-0.427856,0.872803
1470345153305981,-0.216125,0.0918579,-0.427856,0.872803
1470345153327042,-0.215942,0.0916138,-0.427979,0.872803
1470345153350070,-0.215942,0.0913696,-0.428162,0.872742
1470345153366131,-0.216248,0.0913086,-0.428101,0.872681
1470345153387161,-0.216309,0.0913086,-0.427856,0.872803
1470345153410146,-0.216248,0.0914307,-0.42749,0.872986
1470345153426135,-0.216248,0.0916138,-0.427063,0.873169
1470345153447186,-0.216797,0.0917969,-0.427002,0.873047
1470345153470211,-0.217102,0.0918579,-0.427002,0.872986
1470345153486225,-0.217041,0.0921021,-0.426941,0.872986
1470345153507299,-0.217102,0.0921631,-0.426941,0.872986
1470345153529263,-0.217163,0.0921631,-0.42688,0.872986
1470345153547883,-0.217041,0.0924072,-0.427002,0.872925
1470345153566902,-0.217102,0.0927124,-0.427185,0.872803
1470345153589922,-0.217346,0.0928345,-0.427307,0.872681
1470345153607991,-0.217346,0.0928345,-0.427307,0.872681
1470345153626974,-0.217163,0.0925903,-0.427429,0.872681
1470345153650194,-0.216675,0.0923462,-0.42749,0.872803
1470345153667213,-0.216675,0.0923462,-0.42749,0.872803
1470345153687310,-0.216858,0.0922852,-0.427368,0.872803
1470345153709246,-0.216736,0.0921631,-0.427246,0.872925
1470345153727263,-0.216492,0.0919189,-0.427307,0.872986
1470345153747291,-0.216492,0.0919189,-0.427246,0.872986
1470345153769471,-0.216553,0.0919189,-0.427246,0.872986
1470345153787486,-0.216553,0.09198,-0.427246,0.872986
1470345153807507,-0.216614,0.09198,-0.427246,0.872986
1470345153837536,-0.216675,0.09198,-0.427429,0.872864
1470345153847544,-0.216736,0.09198,-0.427429,0.872864
1470345153867084,-0.216553,0.0918579,-0.427551,0.872864
1470345153890104,-0.21637,0.0918579,-0.427612,0.872864
1470345153908170,-0.216431,0.0917358,-0.427612,0.872864
1470345153927125,-0.216248,0.0915527,-0.427795,0.872864
1470345153957167,-0.216248,0.0915527,-0.427734,0.872864
1470345153968223,-0.216187,0.0918579,-0.427856,0.872803
1470345153987194,-0.215881,0.0921631,-0.427856,0.872803
1470345154010308,-0.215637,0.0925903,-0.427673,0.872925
1470345154028309,-0.215088,0.0930786,-0.427307,0.873169
1470345154047326,-0.214661,0.0933838,-0.426758,0.873535
1470345154070073,-0.214233,0.0935059,-0.426575,0.873718
1470345154088146,-0.214233,0.0932007,-0.426575,0.873779
1470345154107145,-0.214294,0.0925903,-0.426636,0.873779
1470345154130126,-0.213989,0.0917969,-0.42688,0.873779
1470345154147677,-0.213745,0.0911865,-0.427002,0.873901
1470345154168705,-0.213928,0.0906982,-0.427124,0.873779
1470345154189723,-0.214355,0.09021,-0.427368,0.873657
1470345154207738,-0.214783,0.0899048,-0.427551,0.873474
1470345154228756,-0.214905,0.0897217,-0.427734,0.873352
1470345154249786,-0.214905,0.0894775,-0.427856,0.873352
1470345154267816,-0.214661,0.0891724,-0.427979,0.873352
1470345154288821,-0.213684,0.0888672,-0.427979,0.873657
1470345154309840,-0.213074,0.088501,-0.427917,0.87384
1470345154327857,-0.212891,0.0880127,-0.427734,0.874084
1470345154348448,-0.212524,0.0874634,-0.427368,0.87439
1470345154369615,-0.212036,0.086792,-0.427124,0.874695
1470345154387627,-0.211548,0.0861816,-0.426941,0.874939
1470345154416653,-0.211121,0.0858154,-0.426819,0.875122
1470345154429667,-0.210632,0.0856323,-0.426636,0.875366
1470345154455199,-0.210327,0.0856323,-0.426392,0.875549
1470345154468211,-0.210327,0.0855713,-0.42627,0.87561
1470345154489231,-0.210388,0.0855713,-0.42627,0.87561
1470345154508280,-0.210388,0.0855103,-0.42627,0.87561
1470345154530381,-0.210449,0.0855103,-0.42627,0.87561
1470345154549944,-0.210388,0.0855103,-0.426331,0.875549
1470345154568016,-0.210022,0.0855713,-0.426514,0.875549
1470345154589979,-0.209778,0.0856934,-0.426697,0.875549
1470345154609997,-0.209778,0.0856934,-0.426697,0.875549
1470345154628047,-0.209778,0.0856934,-0.426697,0.875549
1470345154650486,-0.210083,0.0861206,-0.426453,0.875549
1470345154669523,-0.210205,0.0865479,-0.426147,0.87561
1470345154687518,-0.209961,0.086792,-0.426025,0.875732
1470345154712637,-0.209717,0.086731,-0.425964,0.875793
1470345154730557,-0.209351,0.0866699,-0.426025,0.875916
1470345154747109,-0.20929,0.0866699,-0.426025,0.875916
1470345154769414,-0.209106,0.0864868,-0.425781,0.876038
1470345154790432,-0.208557,0.0857544,-0.425415,0.876404
1470345154806446,-0.208557,0.0854492,-0.424805,0.87677
1470345154829468,-0.209106,0.085083,-0.424072,0.877014
1470345154850502,-0.209595,0.0844727,-0.423584,0.877197
1470345154866515,-0.209656,0.0835571,-0.423279,0.877441
1470345154889535,-0.209778,0.0827026,-0.422974,0.877625
1470345154910587,-0.210144,0.0820923,-0.422729,0.877747
1470345154926570,-0.210815,0.0818481,-0.422424,0.877747
1470345154949126,-0.211182,0.0819092,-0.422241,0.877747
1470345154970186,-0.211365,0.0821533,-0.422119,0.877686
1470345154987199,-0.211121,0.0825195,-0.42218,0.877686
1470345155009252,-0.210938,0.0830688,-0.422241,0.877686
1470345155030262,-0.211243,0.0837402,-0.422241,0.877502
1470345155047257,-0.211792,0.0844116,-0.42218,0.87738
1470345155068798,-0.212402,0.0849609,-0.422241,0.877136
1470345155090801,-0.213013,0.0853271,-0.422241,0.876953
1470345155106817,-0.213745,0.0856934,-0.42218,0.87677
1470345155128838,-0.214111,0.0858765,-0.422058,0.876709
1470345155150660,-0.214355,0.0859375,-0.422058,0.876648
1470345155166625,-0.2146,0.0860596,-0.421936,0.876648
1470345155189680,-0.214905,0.0861816,-0.421814,0.876587
1470345155210663,-0.214966,0.0861816,-0.421814,0.876587
1470345155226678,-0.215027,0.0861206,-0.421814,0.876587
1470345155249284,-0.215027,0.0856934,-0.421692,0.876709
1470345155270468,-0.214783,0.0856323,-0.421448,0.876831
1470345155286480,-0.214783,0.0857544,-0.421448,0.876892
1470345155309500,-0.215088,0.0858765,-0.421265,0.876831
1470345155330532,-0.215088,0.0859375,-0.421265,0.876831
1470345155347037,-0.214966,0.0858154,-0.421204,0.876892
1470345155368877,-0.215027,0.0858154,-0.421204,0.876892
1470345155389899,-0.215088,0.0858765,-0.421204,0.876892
1470345155406868,-0.215576,0.0856934,-0.421265,0.87677
1470345155428889,-0.216125,0.0856323,-0.421265,0.876648
1470345155451938,-0.216187,0.0856323,-0.421204,0.876648
1470345155466950,-0.216064,0.0854492,-0.421509,0.876526
1470345155489975,-0.216064,0.0855713,-0.421753,0.876404
1470345155511991,-0.216309,0.0856323,-0.421997,0.876221
1470345155527005,-0.21637,0.0855103,-0.422241,0.876099
1470345155549535,-0.216248,0.0854492,-0.422424,0.876038
1470345155572062,-0.215881,0.0852661,-0.422607,0.876099
1470345155586074,-0.215454,0.085022,-0.422729,0.87616
1470345155609163,-0.215393,0.085022,-0.422729,0.87616
1470345155632117,-0.215637,0.0849609,-0.422485,0.876221
1470345155646233,-0.215637,0.0848389,-0.422241,0.876343
1470345155669295,-0.215454,0.0847168,-0.422119,0.876465
1470345155691336,-0.215393,0.0846558,-0.421997,0.876526
1470345155706316,-0.215454,0.0846558,-0.421997,0.876526
1470345155729339,-0.215637,0.0845337,-0.421875,0.876587
1470345155752370,-0.215637,0.0843506,-0.421753,0.876648
1470345155766381,-0.215576,0.0842285,-0.421753,0.876648
1470345155789401,-0.215454,0.0840454,-0.421753,0.876709
1470345155811499,-0.215271,0.0839233,-0.421692,0.87677
1470345155826435,-0.215027,0.0837402,-0.421692,0.876892
1470345155849524,-0.214539,0.0837402,-0.421692,0.876953
1470345155871273,-0.214294,0.0838013,-0.421814,0.877014
1470345155886242,-0.214233,0.0840454,-0.421814,0.876953
1470345155909291,-0.213989,0.0842285,-0.421753,0.877014
1470345155931283,-0.213684,0.0843506,-0.421753,0.877075
1470345155953475,-0.213745,0.0843506,-0.421753,0.877075
1470345155969489,-0.213745,0.0843506,-0.421753,0.877075
1470345155991512,-0.213745,0.0844116,-0.421753,0.877075
1470345156012552,-0.213806,0.0844116,-0.421753,0.877075
1470345156029542,-0.213745,0.0841675,-0.421692,0.877136
1470345156051606,-0.213745,0.0839844,-0.421631,0.877197
1470345156072669,-0.213745,0.0839844,-0.421631,0.877197
1470345156089640,-0.213989,0.0838013,-0.421509,0.877197
1470345156111662,-0.214111,0.0835571,-0.421265,0.877319
1470345156132710,-0.213989,0.083374,-0.421082,0.877441
1470345156149740,-0.21405,0.083374,-0.421082,0.877441
1470345156171801,-0.21405,0.083374,-0.421082,0.877441
1470345156192853,-0.214417,0.0837402,-0.420837,0.877441
1470345156208868,-0.214783,0.0842285,-0.420654,0.87738
1470345156231859,-0.215149,0.0845947,-0.42041,0.87738
1470345156253039,-0.215149,0.0847168,-0.420166,0.877502
1470345156269019,-0.21521,0.0848999,-0.419922,0.877563
1470345156292061,-0.215576,0.085083,-0.419617,0.877563
1470345156313101,-0.216248,0.0853271,-0.419373,0.877502
1470345156329122,-0.216797,0.0855103,-0.419067,0.877502
1470345156351914,-0.217102,0.0854492,-0.418823,0.877563
1470345156373874,-0.217224,0.0854492,-0.418579,0.877625
1470345156388886,-0.217712,0.0856323,-0.418396,0.877625
1470345156411908,-0.218384,0.0859375,-0.418152,0.877563
1470345156433942,-0.218811,0.0860596,-0.417908,0.877563
1470345156449464,-0.218933,0.0861206,-0.417725,0.877563
1470345156471502,-0.219116,0.0863647,-0.417603,0.877563
1470345156501531,-0.220093,0.0869751,-0.417419,0.87738
1470345156509536,-0.221191,0.0875854,-0.417114,0.877136
1470345156531565,-0.221863,0.0878906,-0.416992,0.877014
1470345156554298,-0.222046,0.0880737,-0.417053,0.876953
1470345156568313,-0.222229,0.088562,-0.417114,0.87677
1470345156591333,-0.222656,0.0889893,-0.416992,0.876709
1470345156614349,-0.223206,0.0894165,-0.416809,0.876587
1470345156628406,-0.223633,0.0895996,-0.416504,0.876587
1470345156651420,-0.223816,0.0897217,-0.416321,0.876648
1470345156673916,-0.224121,0.0898438,-0.416138,0.876648
1470345156688873,-0.224609,0.0900879,-0.415955,0.876587
1470345156711898,-0.22467,0.0900879,-0.415955,0.876587
1470345156733995,-0.22522,0.0901489,-0.415344,0.876709
1470345156748933,-0.22583,0.0896606,-0.414795,0.876892
1470345156771984,-0.225525,0.088501,-0.41449,0.877197
1470345156794005,-0.224609,0.0891724,-0.414001,0.877563
1470345156809019,-0.224792,0.09021,-0.41394,0.877502
1470345156832038,-0.226257,0.0906372,-0.414368,0.876892
1470345156854138,-0.227356,0.0908813,-0.414429,0.876526
1470345156876124,-0.227051,0.0909424,-0.414551,0.876526
1470345156892132,-0.225891,0.090332,-0.414673,0.876831
1470345156914215,-0.225647,0.0898438,-0.414246,0.877136
1470345156935215,-0.224915,0.0898438,-0.413696,0.877563
1470345156951719,-0.223938,0.0900269,-0.414185,0.877625
1470345156973988,-0.224487,0.0904541,-0.414551,0.877197
1470345156996009,-0.227234,0.0910645,-0.414734,0.876404
1470345157012023,-0.231445,0.0916748,-0.414856,0.875183
1470345157034071,-0.237854,0.0921631,-0.4151,0.873291
1470345157055655,-0.247498,0.0929565,-0.414795,0.870667
1470345157071671,-0.259705,0.0933228,-0.412781,0.867981
1470345157094690,-0.269897,0.0932007,-0.409485,0.866455
1470345157116731,-0.272034,0.0897827,-0.405762,0.86792
1470345157131724,-0.27002,0.0842896,-0.400024,0.871765
1470345157154595,-0.261108,0.0770264,-0.390442,0.879456
1470345157175664,-0.255554,0.0708008,-0.376221,0.887756
1470345157191629,-0.262756,0.0686035,-0.356689,0.89386
1470345157214649,-0.272461,0.0683594,-0.335449,0.89917
1470345157235668,-0.279968,0.0696411,-0.317139,0.903381
1470345157251187,-0.281189,0.0698242,-0.300964,0.908569
1470345157274236,-0.279663,0.0682373,-0.287476,0.913513
1470345157295321,-0.276855,0.0648804,-0.2771,0.917786
1470345157311295,-0.277893,0.0614624,-0.269043,0.920105
1470345157334291,-0.280518,0.0593872,-0.26355,0.921021
1470345157356377,-0.281921,0.0587158,-0.259766,0.921753
1470345157371361,-0.279541,0.0584717,-0.257751,0.923035
1470345157394427,-0.27594,0.0584106,-0.257019,0.924316
1470345157416493,-0.273376,0.0586548,-0.256714,0.925171
1470345157431415,-0.272522,0.0594482,-0.256531,0.925415
1470345157454447,-0.27356,0.059082,-0.257019,0.924988
1470345157476478,-0.275513,0.0601196,-0.256409,0.9245
1470345157491479,-0.27594,0.0618286,-0.256958,0.924072
1470345157514501,-0.272034,0.0628662,-0.259583,0.924438
1470345157537024,-0.269592,0.0643311,-0.262329,0.924316
1470345157551536,-0.266052,0.0657349,-0.267151,0.923828
1470345157574592,-0.261292,0.067627,-0.273987,0.923096
1470345157596612,-0.255432,0.0692749,-0.283142,0.921814
1470345157617686,-0.250183,0.069397,-0.294556,0.919678
1470345157634663,-0.247375,0.0682983,-0.308472,0.915955
1470345157658264,-0.24585,0.0667114,-0.323792,0.911194
1470345157678282,-0.243835,0.0653687,-0.33905,0.90625
1470345157694296,-0.242188,0.0629883,-0.352783,0.901611
1470345157716331,-0.243469,0.0595093,-0.364136,0.896973
1470345157737974,-0.24707,0.0552368,-0.373169,0.892517
1470345157753987,-0.250854,0.0526733,-0.378845,0.889221
1470345157777004,-0.253174,0.0518188,-0.380981,0.887756
1470345157798023,-0.254517,0.0508423,-0.381348,0.887268
1470345157814040,-0.253601,0.0493164,-0.381165,0.887634
1470345157837058,-0.249451,0.0478516,-0.380981,0.888977
1470345157858110,-0.244934,0.046875,-0.381592,0.890076
1470345157874109,-0.241272,0.0455322,-0.382813,0.890564
1470345157897125,-0.238708,0.0447998,-0.383789,0.890869
1470345157918169,-0.235596,0.0447998,-0.384644,0.891357
1470345157934159,-0.233582,0.0448608,-0.386414,0.891113
1470345157957204,-0.233154,0.0455322,-0.38855,0.890259
1470345157978226,-0.233582,0.0465088,-0.389648,0.889648
1470345157994275,-0.231873,0.0462036,-0.390137,0.889893
1470345158016292,-0.228516,0.0456543,-0.390564,0.890564
1470345158038418,-0.225342,0.045166,-0.391174,0.891174
1470345158054213,-0.223328,0.0447388,-0.391357,0.891602
1470345158077234,-0.22168,0.0441895,-0.391663,0.891907
1470345158098257,-0.220337,0.0436401,-0.391968,0.892151
1470345158114267,-0.219116,0.0435181,-0.392334,0.892273
1470345158137288,-0.21814,0.0438232,-0.392761,0.892334
1470345158158203,-0.217834,0.0442505,-0.393311,0.892151
1470345158174213,-0.217957,0.0447388,-0.393799,0.891846
1470345158197234,-0.218079,0.0453491,-0.39386,0.891724
1470345158218254,-0.217712,0.0455322,-0.394165,0.891724
1470345158234267,-0.216858,0.0455322,-0.394592,0.891724
1470345158257170,-0.216797,0.0458374,-0.394958,0.891541
1470345158279191,-0.216797,0.0461426,-0.395325,0.891357
1470345158294204,-0.216797,0.0465088,-0.395813,0.891174
1470345158317225,-0.216736,0.046875,-0.396179,0.890991
1470345158339751,-0.21637,0.046936,-0.396301,0.890991
1470345158354268,-0.215637,0.0467529,-0.396362,0.891174
1470345158377290,-0.215332,0.0465698,-0.396301,0.891296
1470345158399309,-0.215088,0.0460205,-0.39624,0.891418
1470345158414323,-0.214905,0.0456543,-0.396606,0.891296
1470345158436360,-0.215332,0.0456543,-0.396912,0.891052
1470345158459378,-0.216125,0.0460815,-0.396851,0.890869
1470345158473394,-0.216553,0.0462646,-0.396851,0.890747
1470345158497413,-0.216614,0.0463257,-0.396851,0.890747
1470345158519433,-0.216064,0.0463867,-0.396667,0.890991
1470345158533446,-0.215027,0.0461426,-0.396606,0.891235
1470345158557324,-0.214417,0.0458374,-0.396606,0.891418
1470345158579345,-0.213928,0.0455322,-0.396484,0.891602
1470345158600365,-0.213928,0.0454712,-0.396484,0.891602
1470345158616378,-0.214355,0.0455322,-0.396729,0.891357
1470345158639405,-0.214905,0.0458984,-0.396667,0.891235
1470345158652919,-0.214905,0.0459595,-0.396423,0.891357
1470345158676299,-0.215027,0.0459595,-0.396118,0.891479
1470345158699318,-0.215637,0.0464478,-0.395691,0.891479
1470345158713331,-0.216248,0.0467529,-0.39502,0.891602
1470345158737353,-0.216553,0.0471802,-0.394714,0.891663
1470345158759385,-0.216797,0.0478516,-0.394409,0.891663
1470345158773398,-0.217346,0.0483398,-0.394165,0.891663
1470345158796417,-0.218018,0.0485229,-0.394226,0.891418
1470345158819440,-0.218872,0.0485229,-0.394348,0.891174
1470345158840462,-0.219788,0.048584,-0.39447,0.89093
1470345158856481,-0.22113,0.0488281,-0.394348,0.890625
1470345158879501,-0.22229,0.0489502,-0.394165,0.890381
1470345158900522,-0.2229,0.0491333,-0.393921,0.89032
1470345158916534,-0.223816,0.0492554,-0.393799,0.890137
1470345158939575,-0.224792,0.0496216,-0.393677,0.889954
1470345158960330,-0.226074,0.0502319,-0.393311,0.889771
1470345158976345,-0.227539,0.0507813,-0.3927,0.889587
1470345158999363,-0.228943,0.0513306,-0.391968,0.889526
1470345159020382,-0.230225,0.0517578,-0.391174,0.889526
1470345159036396,-0.231384,0.0522461,-0.39032,0.889587
1470345159059424,-0.233032,0.0528564,-0.38916,0.889587
1470345159080443,-0.234314,0.0532227,-0.388062,0.889771
1470345159096457,-0.235168,0.0537109,-0.386902,0.890015
1470345159119479,-0.235779,0.0543213,-0.385803,0.890259
1470345159140501,-0.236633,0.0552368,-0.384583,0.890503
1470345159157092,-0.23761,0.0563354,-0.383423,0.890686
1470345159179111,-0.238647,0.057312,-0.382385,0.890808
1470345159200130,-0.239563,0.0584106,-0.381592,0.890808
1470345159217146,-0.240845,0.0595703,-0.380798,0.890747
1470345159239671,-0.242188,0.0608521,-0.379883,0.890686
1470345159261692,-0.243347,0.0620117,-0.37915,0.890625
1470345159276705,-0.244385,0.0629883,-0.378479,0.890503
1470345159299727,-0.244995,0.0638428,-0.378052,0.890503
1470345159321747,-0.245972,0.0648804,-0.377502,0.890381
1470345159336759,-0.247192,0.065918,-0.376892,0.890198
1470345159359825,-0.248413,0.0667725,-0.376282,0.890076
1470345159381842,-0.249268,0.0675049,-0.37561,0.890076
1470345159395853,-0.249756,0.0682983,-0.374817,0.890198
1470345159419875,-0.249878,0.0689087,-0.374084,0.890442
1470345159441901,-0.250183,0.0695801,-0.373413,0.890564
1470345159456448,-0.250366,0.0702515,-0.372925,0.890686
1470345159480480,-0.250549,0.0708618,-0.372559,0.890747
1470345159508500,-0.250671,0.0714111,-0.372192,0.890808
1470345159516502,-0.250793,0.0718994,-0.371887,0.890869
1470345159539545,-0.250854,0.0723267,-0.371643,0.890869
1470345159561934,-0.250916,0.0726318,-0.371521,0.890869
1470345159575947,-0.25116,0.072937,-0.37146,0.890808
1470345159599969,-0.251343,0.0731812,-0.371521,0.890747
1470345159621990,-0.251465,0.0734253,-0.371582,0.890686
1470345159636001,-0.251465,0.0736694,-0.371643,0.890625
1470345159659731,-0.251526,0.0736694,-0.371643,0.890625
1470345159681750,-0.251465,0.0737305,-0.371643,0.890625
1470345159695763,-0.251587,0.0736694,-0.371765,0.890503
1470345159719785,-0.251526,0.0734253,-0.371826,0.890564
1470345159742338,-0.251282,0.0731201,-0.371887,0.890625
1470345159780413,-0.251221,0.0727539,-0.371948,0.890625
1470345159782411,-0.251221,0.0727539,-0.371948,0.890625
1470345159801430,-0.251221,0.0728149,-0.371948,0.890625
1470345159822448,-0.251038,0.0728149,-0.37207,0.890625
1470345159839480,-0.250793,0.0727539,-0.372375,0.890564
1470345159861531,-0.250549,0.0726318,-0.372742,0.890503
1470345159882550,-0.250366,0.0724487,-0.373047,0.890442
1470345159899565,-0.250549,0.0722656,-0.373352,0.890259
1470345159921584,-0.250549,0.0718994,-0.373718,0.890137
1470345159943109,-0.250549,0.0717163,-0.374268,0.889954
1470345159959643,-0.250671,0.0716553,-0.374573,0.889771
1470345159981667,-0.250793,0.0712891,-0.374817,0.889648
1470345160002759,-0.250244,0.071106,-0.374939,0.889771
1470345160009691,-0.249573,0.0709229,-0.375122,0.889893
1470345160024701,-0.249268,0.0706787,-0.375183,0.890015
1470345160047731,-0.249268,0.0705566,-0.375,0.890076
1470345160069770,-0.249451,0.0703735,-0.375,0.890015
1470345160084794,-0.249329,0.0699463,-0.375122,0.890076
1470345160107792,-0.249268,0.069458,-0.375244,0.890076
1470345160129823,-0.249329,0.0689697,-0.375488,0.889954
1470345160145427,-0.249451,0.0684814,-0.375793,0.889832
1470345160167936,-0.249512,0.0680542,-0.376282,0.889648
1470345160189875,-0.249634,0.0678711,-0.376709,0.889465
1470345160204900,-0.249817,0.0679932,-0.377014,0.889282
1470345160226906,-0.249878,0.0681152,-0.377197,0.88916
1470345160249931,-0.249817,0.0682373,-0.377441,0.889099
1470345160264950,-0.249573,0.0683594,-0.377625,0.889038
1470345160286989,-0.249084,0.0685425,-0.377869,0.889038
1470345160309991,-0.248535,0.0687256,-0.378113,0.889099
1470345160325060,-0.248169,0.0687866,-0.378235,0.88916
1470345160347555,-0.248047,0.0687256,-0.378357,0.88916
1470345160370177,-0.247986,0.0684814,-0.378296,0.889221
1470345160392239,-0.247986,0.0681152,-0.378235,0.889282
1470345160407229,-0.247681,0.067688,-0.378235,0.889404
1470345160430217,-0.247681,0.0672607,-0.378113,0.889465
1470345160445239,-0.24762,0.0668945,-0.377991,0.889526
1470345160467219,-0.247437,0.0665894,-0.378052,0.889587
1470345160490237,-0.247375,0.0664063,-0.378174,0.889587
1470345160506253,-0.247375,0.0664063,-0.378174,0.889587
1470345160527270,-0.247314,0.0662231,-0.378296,0.889587
1470345160549855,-0.247192,0.0661621,-0.378357,0.889587
1470345160564372,-0.247009,0.0661621,-0.378418,0.889587
1470345160587408,-0.246521,0.0661011,-0.378418,0.889771
1470345160609442,-0.246033,0.0664063,-0.378296,0.889893
1470345160624447,-0.245483,0.0671387,-0.378113,0.890076
1470345160647492,-0.244873,0.0673218,-0.377563,0.890442
1470345160669604,-0.244263,0.067627,-0.377014,0.890869
1470345160684532,-0.244446,0.0684204,-0.376892,0.890808
1470345160707550,-0.245544,0.069397,-0.377136,0.89032
1470345160729569,-0.246704,0.0700073,-0.377319,0.889832
1470345160746604,-0.247009,0.0701294,-0.377563,0.889648
1470345160767661,-0.247253,0.0700073,-0.378113,0.889343
1470345160789686,-0.247559,0.0698242,-0.37854,0.889099
1470345160806688,-0.24762,0.0697632,-0.378845,0.888977
1470345160834713,-0.247681,0.0696411,-0.379028,0.888916
1470345160850232,-0.24762,0.0695801,-0.379211,0.888855
1470345160866755,-0.247681,0.0693359,-0.379395,0.888733
1470345160887769,-0.247681,0.0693359,-0.379395,0.888733
1470345160909803,-0.247437,0.0691528,-0.379578,0.888733
1470345160925804,-0.246948,0.0689697,-0.379761,0.888855
1470345160947403,-0.246948,0.0690308,-0.379761,0.888855
1470345160969969,-0.246887,0.0690308,-0.379761,0.888855
1470345160986023,-0.24707,0.0689697,-0.379822,0.888794
1470345161007049,-0.247314,0.0688477,-0.379822,0.888733
1470345161030062,-0.247498,0.0686035,-0.379822,0.888672
1470345161046580,-0.247498,0.0682983,-0.379822,0.888672
1470345161066997,-0.247559,0.0682983,-0.379822,0.888672
1470345161090033,-0.247559,0.0682983,-0.379822,0.888672
1470345161107997,-0.247559,0.0682983,-0.379822,0.888672
1470345161127012,-0.247559,0.0682983,-0.379822,0.888672
1470345161150094,-0.24762,0.0682983,-0.379822,0.888672
1470345161168089,-0.247681,0.0683594,-0.379822,0.888672
1470345161187108,-0.247681,0.0683594,-0.379822,0.888672
1470345161210126,-0.24762,0.0684204,-0.379883,0.888611
1470345161228143,-0.247498,0.0684814,-0.379944,0.888672
1470345161247729,-0.247253,0.0687866,-0.379944,0.888672
1470345161270316,-0.247253,0.0687866,-0.379944,0.888672
1470345161287316,-0.247253,0.0687866,-0.379944,0.888672
1470345161307390,-0.247253,0.0687866,-0.379944,0.888672
1470345161330358,-0.24707,0.0687866,-0.379944,0.888733
1470345161347901,-0.24707,0.0687866,-0.379944,0.888733
1470345161367426,-0.246948,0.0684814,-0.380005,0.888794
1470345161389461,-0.246887,0.0682373,-0.380005,0.888794
1470345161407460,-0.246887,0.0682373,-0.380005,0.888794
1470345161427537,-0.246826,0.0680542,-0.380127,0.888794
1470345161450001,-0.246826,0.0680542,-0.380127,0.888794
1470345161467576,-0.246887,0.0680542,-0.380066,0.888794
1470345161487594,-0.246887,0.0680542,-0.380066,0.888794
1470345161509614,-0.246887,0.0680542,-0.380066,0.888794
1470345161527630,-0.246948,0.0681152,-0.380066,0.888794
1470345161547688,-0.246887,0.0681152,-0.380127,0.888733
1470345161569728,-0.246826,0.0681152,-0.38031,0.888672
1470345161587742,-0.247009,0.0680542,-0.380493,0.88855
1470345161607760,-0.247375,0.0678711,-0.380859,0.888367
1470345161629801,-0.247437,0.0678101,-0.380798,0.888306
1470345161648397,-0.247498,0.067749,-0.381042,0.888245
1470345161668901,-0.247681,0.0675049,-0.381226,0.888123
1470345161689963,-0.248047,0.0674438,-0.381348,0.887939
1470345161709939,-0.248047,0.0675049,-0.381348,0.887939
1470345161728955,-0.24823,0.0673828,-0.381531,0.887817
1470345161750081,-0.248657,0.0675049,-0.381592,0.887695
1470345161773780,-0.248718,0.0675659,-0.381592,0.887695
1470345161788736,-0.248962,0.067627,-0.381775,0.887512
1470345161809760,-0.248962,0.067627,-0.381775,0.887512
1470345161827769,-0.248718,0.0674438,-0.381958,0.887512
1470345161848794,-0.248718,0.0674438,-0.381958,0.887512
1470345161870169,-0.249329,0.0675659,-0.382019,0.887268
1470345161888236,-0.249939,0.067749,-0.38208,0.887085
1470345161909201,-0.250305,0.0678101,-0.382141,0.886963
1470345161930219,-0.250427,0.0678101,-0.382385,0.886841
1470345161948253,-0.251099,0.067749,-0.382751,0.886475
1470345161969282,-0.251404,0.067627,-0.382935,0.886353
1470345161990303,-0.251343,0.0675659,-0.383057,0.886292
1470345162008331,-0.251587,0.0673218,-0.383423,0.886047
1470345162028332,-0.251648,0.0669556,-0.383789,0.885925
1470345162049998,-0.25177,0.0665894,-0.384033,0.885803
1470345162067496,-0.25177,0.0662842,-0.384338,0.885742
1470345162090575,-0.251587,0.065979,-0.384583,0.885681
1470345162109534,-0.251648,0.0658569,-0.38501,0.885498
1470345162127548,-0.251892,0.0661011,-0.385193,0.885315
1470345162150620,-0.251953,0.0662231,-0.385376,0.885193
1470345162169712,-0.25177,0.0663452,-0.38562,0.885132
1470345162187710,-0.251892,0.0662231,-0.385864,0.88501
1470345162210731,-0.25238,0.0661011,-0.386108,0.884766
1470345162229780,-0.252625,0.0657959,-0.386353,0.884644
