timestamp,roll,pitch,yaw
1470247047296676,-0.0861062,-0.134413,-0.520948
1470247047317695,-0.0789892,-0.136024,-0.520576
1470247047334209,-0.0725826,-0.137813,-0.520003
1470247047356729,-0.0666338,-0.139355,-0.519457
1470247047385254,-0.0609858,-0.14073,-0.518911
1470247047394263,-0.0555576,-0.141779,-0.518233
1470247047416783,-0.0505906,-0.142458,-0.517778
1470247047437801,-0.0464686,-0.143245,-0.517524
1470247047453816,-0.0428982,-0.143927,-0.517135
1470247047476336,-0.0397013,-0.144696,-0.516463
1470247047497856,-0.0353029,-0.145272,-0.515628
1470247047513870,-0.0297811,-0.145688,-0.515112
1470247047536390,-0.0251076,-0.146713,-0.51467
1470247047557409,-0.0213338,-0.147732,-0.514204
1470247047581430,-0.0177377,-0.148539,-0.5137
1470247047596444,-0.0139035,-0.149286,-0.513217
1470247047617462,-0.01014,-0.150192,-0.513009
1470247047633978,-0.00703564,-0.150899,-0.513126
1470247047664005,-0.0051844,-0.15168,-0.513157
1470247047677517,-0.00484843,-0.152086,-0.512795
1470247047695035,-0.00459968,-0.152147,-0.512575
1470247047716552,-0.00460515,-0.151639,-0.512557
1470247047737572,-0.00532534,-0.151319,-0.512492
1470247047754085,-0.00633704,-0.150826,-0.512534
1470247047776606,-0.00795238,-0.14999,-0.512548
1470247047797625,-0.00958225,-0.14914,-0.512268
1470247047814140,-0.0100978,-0.148647,-0.512242
1470247047837160,-0.00997866,-0.148616,-0.51225
1470247047857678,-0.0100978,-0.148647,-0.512242
1470247047874193,-0.0100978,-0.148647,-0.512242
1470247047896715,-0.0101288,-0.148528,-0.512236
1470247047919234,-0.0102169,-0.148678,-0.512235
1470247047941754,-0.0107438,-0.148559,-0.5123
1470247047956767,-0.0108629,-0.148591,-0.512292
1470247047979289,-0.0108629,-0.148591,-0.512292
1470247047993801,-0.0108939,-0.148472,-0.512286
1470247048016321,-0.011662,-0.148424,-0.512363
1470247048038842,-0.0125492,-0.148408,-0.512433
1470247048053355,-0.0125492,-0.148408,-0.512433
1470247048076375,-0.0119313,-0.148367,-0.512342
1470247048098895,-0.0107778,-0.148449,-0.512321
1470247048113408,-0.0100408,-0.148378,-0.512238
1470247048136431,-0.00981124,-0.148312,-0.512119
1470247048158949,-0.00993035,-0.148344,-0.512111
1470247048173462,-0.00993035,-0.148344,-0.512111
1470247048196483,-0.0100495,-0.148375,-0.512104
1470247048219003,-0.00951093,-0.148488,-0.512146
1470247048233517,-0.00951093,-0.148488,-0.512146
1470247048256537,-0.00954198,-0.148369,-0.51214
1470247048279060,-0.0104602,-0.148233,-0.512203
1470247048293570,-0.0105793,-0.148265,-0.512196
1470247048316591,-0.0101512,-0.148412,-0.512365
1470247048339111,-0.00951588,-0.148378,-0.512543
1470247048353624,-0.00954695,-0.148259,-0.512537
1470247048384152,-0.00954695,-0.148259,-0.512537
1470247048399165,-0.00967475,-0.148287,-0.512395
1470247048420183,-0.00922135,-0.148542,-0.512409
1470247048436699,-0.00903137,-0.148751,-0.512563
1470247048459218,-0.00903137,-0.148751,-0.512563
1470247048480237,-0.00964053,-0.148794,-0.512788
1470247048496752,-0.00964053,-0.148794,-0.512788
1470247048519273,-0.0091783,-0.149052,-0.512936
1470247048524778,-0.00816328,-0.14904,-0.513009
1470247048546798,-0.00816328,-0.14904,-0.513009
1470247048561811,-0.00875878,-0.149196,-0.512971
1470247048584331,-0.00875878,-0.149196,-0.512971
1470247048606852,-0.00887788,-0.149228,-0.512963
1470247048621865,-0.00887788,-0.149228,-0.512963
1470247048644385,-0.00887788,-0.149228,-0.512963
1470247048666906,-0.00887788,-0.149228,-0.512963
1470247048681918,-0.00887788,-0.149228,-0.512963
1470247048704439,-0.00887788,-0.149228,-0.512963
1470247048726960,-0.00899698,-0.149259,-0.512956
1470247048741974,-0.00969455,-0.149055,-0.512765
1470247048764493,-0.00981366,-0.149086,-0.512757
1470247048787014,-0.00979944,-0.148704,-0.512639
1470247048802028,-0.00979944,-0.148704,-0.512639
1470247048824547,-0.00979944,-0.148704,-0.512639
1470247048847067,-0.00994962,-0.148616,-0.512626
1470247048862080,-0.00994962,-0.148616,-0.512626
1470247048884600,-0.0100687,-0.148647,-0.512618
1470247048907121,-0.0100998,-0.148528,-0.512612
1470247048922134,-0.0102189,-0.148559,-0.512605
1470247048944654,-0.0102189,-0.148559,-0.512605
1470247048967286,-0.0103467,-0.148588,-0.512463
1470247048982188,-0.0103467,-0.148588,-0.512463
1470247049004727,-0.0104969,-0.1485,-0.512449
1470247049027229,-0.0103778,-0.148469,-0.512457
1470247049042245,-0.0113103,-0.148716,-0.512638
1470247049064262,-0.0113133,-0.148725,-0.512665
1470247049087331,-0.0109527,-0.149019,-0.513074
1470247049101851,-0.010504,-0.149164,-0.513485
1470247049124371,-0.0105352,-0.149045,-0.513479
1470247049147373,-0.010663,-0.149073,-0.513337
1470247049161866,-0.0105093,-0.149549,-0.513737
1470247049184413,-0.0105093,-0.149549,-0.513737
1470247049206918,-0.0105093,-0.149549,-0.513737
1470247049221937,-0.0105093,-0.149549,-0.513737
1470247049244424,-0.0103866,-0.149907,-0.514131
1470247049266970,-0.0103916,-0.150292,-0.514383
1470247049281990,-0.0104845,-0.150829,-0.514634
1470247049304503,-0.0103732,-0.151192,-0.514921
1470247049326999,-0.00983901,-0.15169,-0.515217
1470247049342028,-0.00945501,-0.1521,-0.515499
1470247049364543,-0.00945501,-0.1521,-0.515499
1470247049387095,-0.00942375,-0.152219,-0.515505
1470247049403567,-0.00942375,-0.152219,-0.515505
1470247049424605,-0.00945501,-0.1521,-0.515499
1470247049447106,-0.00945501,-0.1521,-0.515499
1470247049463620,-0.00945501,-0.1521,-0.515499
1470247049492146,-0.00945501,-0.1521,-0.515499
1470247049507159,-0.00945501,-0.1521,-0.515499
1470247049523174,-0.00897859,-0.151974,-0.51553
1470247049544693,-0.00897859,-0.151974,-0.51553
1470247049566714,-0.00897859,-0.151974,-0.51553
1470247049583229,-0.00897859,-0.151974,-0.51553
1470247049604247,-0.0090977,-0.152006,-0.515522
1470247049626769,-0.0092168,-0.152037,-0.515515
1470247049643282,-0.0092168,-0.152037,-0.515515
1470247049664302,-0.00936717,-0.15195,-0.515501
1470247049686834,-0.00936717,-0.15195,-0.515501
1470247049703336,-0.00936717,-0.15195,-0.515501
1470247049724871,-0.00948627,-0.151981,-0.515493
1470247049746903,-0.00948627,-0.151981,-0.515493
1470247049763396,-0.00960538,-0.152013,-0.515485
1470247049784408,-0.00960538,-0.152013,-0.515485
1470247049806951,-0.0100252,-0.151869,-0.51545
1470247049825041,-0.0100565,-0.15175,-0.515443
1470247049844464,-0.0100565,-0.15175,-0.515443
1470247049867026,-0.0101756,-0.151781,-0.515436
1470247049884999,-0.0101756,-0.151781,-0.515436
1470247049904532,-0.0101667,-0.151784,-0.51557
1470247049927092,-0.00967538,-0.152169,-0.515753
1470247049945053,-0.00957859,-0.152517,-0.515744
1470247049964621,-0.00936564,-0.152843,-0.515771
1470247049987104,-0.00879533,-0.153074,-0.515821
1470247050005118,-0.00806264,-0.153387,-0.515993
1470247050024636,-0.00765876,-0.153923,-0.516175
1470247050054663,-0.0072074,-0.154185,-0.516218
1470247050065172,-0.00717606,-0.154304,-0.516225
1470247050084690,-0.00717606,-0.154304,-0.516225
1470247050107210,-0.00679646,-0.154326,-0.51612
1470247050124726,-0.00691558,-0.154358,-0.516112
1470247050144745,-0.00691558,-0.154358,-0.516112
1470247050166766,-0.00706603,-0.15427,-0.516098
1470247050184781,-0.00706603,-0.15427,-0.516098
1470247050204314,-0.00695094,-0.154624,-0.516359
1470247050226876,-0.00693264,-0.155125,-0.516485
1470247050244836,-0.00693264,-0.155125,-0.516485
1470247050264411,-0.00655056,-0.155545,-0.516796
1470247050286877,-0.00655056,-0.155545,-0.516796
1470247050304890,-0.00655427,-0.15593,-0.51705
1470247050331914,-0.00654865,-0.156318,-0.517439
1470247050346951,-0.00668422,-0.156622,-0.517947
1470247050364944,-0.00694802,-0.156954,-0.518314
1470247050385961,-0.00697348,-0.157223,-0.518696
1470247050407005,-0.00650013,-0.157482,-0.518982
1470247050424998,-0.00638101,-0.15745,-0.51899
1470247050446016,-0.00634948,-0.157569,-0.518997
1470247050467089,-0.00634948,-0.157569,-0.518997
1470247050486052,-0.00638101,-0.15745,-0.51899
1470247050506069,-0.00590456,-0.157324,-0.519022
1470247050527091,-0.00521439,-0.157523,-0.519083
1470247050545103,-0.00521439,-0.157523,-0.519083
1470247050566122,-0.00521439,-0.157523,-0.519083
1470247050587142,-0.00471573,-0.157512,-0.518987
1470247050605158,-0.00471573,-0.157512,-0.518987
1470247050625677,-0.00523302,-0.157517,-0.518814
1470247050647195,-0.00581617,-0.157293,-0.518654
1470247050664712,-0.00598537,-0.1572,-0.518369
1470247050685730,-0.00592596,-0.156545,-0.51811
1470247050707275,-0.00586637,-0.15589,-0.51785
1470247050724765,-0.00611023,-0.155565,-0.517446
1470247050747285,-0.00607515,-0.155299,-0.517198
1470247050766803,-0.00657536,-0.154535,-0.516652
1470247050784819,-0.00735504,-0.153593,-0.516321
1470247050807339,-0.00772762,-0.153177,-0.516144
1470247050826858,-0.00734374,-0.152813,-0.515787
1470247050844873,-0.00783809,-0.152437,-0.51563
1470247050867419,-0.00908877,-0.152009,-0.515657
1470247050889944,-0.0100222,-0.151364,-0.515567
1470247050904962,-0.0101413,-0.151396,-0.515559
1470247050927478,-0.0100222,-0.151364,-0.515567
1470247050947481,-0.0106625,-0.151289,-0.515786
1470247050965000,-0.0116659,-0.151297,-0.515819
1470247050995007,-0.011785,-0.151328,-0.515811
1470247051007019,-0.011785,-0.151328,-0.515811
1470247051025035,-0.0126428,-0.151314,-0.516257
1470247051047555,-0.0153605,-0.150919,-0.516958
1470247051067572,-0.0173414,-0.149431,-0.517656
1470247051084136,-0.0148536,-0.147726,-0.516312
1470247051106607,0.000442612,-0.148677,-0.512642
1470247051127626,0.0228686,-0.150607,-0.506569
1470247051144141,0.0405393,-0.157055,-0.498232
1470247051166661,0.0538899,-0.168146,-0.491571
1470247051187736,0.0695795,-0.179964,-0.488361
1470247051204196,0.0926542,-0.178945,-0.484285
1470247051226715,0.12914,-0.166105,-0.477366
1470247051247762,0.159202,-0.131789,-0.466819
1470247051264250,0.17096,-0.0814128,-0.45256
1470247051286296,0.164286,-0.0145185,-0.435251
1470247051307788,0.142456,0.0733401,-0.416961
1470247051323815,0.110567,0.187642,-0.403279
1470247051346324,0.075884,0.324066,-0.396034
1470247051367884,0.0437054,0.479372,-0.394909
1470247051383905,0.0133704,0.649686,-0.400519
1470247051406877,-0.00759076,0.828292,-0.411635
1470247051435403,-0.0155211,1.0052,-0.427081
1470247051443410,-0.015567,1.17753,-0.44729
1470247051466431,-0.00704431,1.34259,-0.466521
1470247051490453,0.049149,1.49323,-0.448269
1470247051503464,-3.1291,1.51123,2.61949
1470247051526485,-3.07823,1.391,2.65166
1470247051547503,-3.07183,1.28103,2.64138
1470247051563518,-3.07472,1.18596,2.62322
1470247051586538,-3.06688,1.10198,2.61298
1470247051607557,-3.06214,1.0319,2.60117
1470247051623573,-3.05703,0.969904,2.5862
1470247051646593,-3.05873,0.915413,2.56739
1470247051668111,-3.06565,0.865846,2.54813
1470247051683626,-3.08197,0.821693,2.52727
1470247051706647,-3.10052,0.781533,2.50495
1470247051729166,-3.10946,0.739367,2.4838
1470247051750213,-3.11939,0.701122,2.46018
1470247051767201,-3.12541,0.667206,2.43687
1470247051789220,-3.13523,0.640357,2.4119
1470247051810240,3.1355,0.619923,2.38737
1470247051832759,3.12272,0.603984,2.36379
1470247051849275,3.10808,0.592472,2.34
1470247051870294,3.09353,0.58465,2.317
1470247051886808,3.07885,0.579617,2.29603
1470247051909330,3.06553,0.576734,2.27674
1470247051930347,3.05164,0.575127,2.25855
1470247051952867,3.03581,0.574435,2.23984
1470247051968883,3.02013,0.574269,2.2223
1470247051990405,3.00424,0.57383,2.20574
1470247052006415,2.98661,0.573241,2.18909
1470247052029436,2.96813,0.572119,2.17238
1470247052050455,2.95012,0.569648,2.15681
1470247052066970,2.93335,0.566214,2.14225
1470247052088991,2.91805,0.561229,2.12863
1470247052110510,2.90422,0.554983,2.11598
1470247052126535,2.89095,0.547504,2.10394
1470247052156587,2.87825,0.538607,2.09283
1470247052170593,2.86653,0.528094,2.08309
1470247052186620,2.85572,0.516249,2.07475
1470247052209097,2.84654,0.503219,2.06756
1470247052230207,2.83888,0.489124,2.06192
1470247052246633,2.83062,0.474457,2.05622
1470247052269151,2.82231,0.459657,2.04982
1470247052290171,2.81412,0.445297,2.04401
1470247052314198,2.80749,0.431637,2.03846
1470247052329206,2.80388,0.420046,2.03433
1470247052350268,2.80239,0.410671,2.03171
1470247052366739,2.80277,0.403688,2.03023
1470247052388758,2.80455,0.399242,2.02917
1470247052410278,2.80697,0.398419,2.02954
1470247052425792,2.81061,0.401772,2.03192
1470247052449315,2.81542,0.40943,2.03803
1470247052470332,2.82313,0.421017,2.04929
1470247052486849,2.83283,0.436901,2.06608
1470247052509367,2.84307,0.457069,2.08773
1470247052530386,2.85294,0.481294,2.11597
1470247052554407,2.8617,0.512251,2.15125
1470247052568921,2.8725,0.546136,2.19516
1470247052590440,2.8861,0.582609,2.24788
1470247052605954,2.9036,0.62053,2.31074
1470247052628975,2.93012,0.659167,2.38725
1470247052651495,2.96708,0.699726,2.47536
1470247052666008,3.01696,0.741572,2.57677
1470247052689030,3.07618,0.784938,2.6941
1470247052719055,-3.13592,0.829467,2.83226
1470247052732613,-3.0477,0.874479,2.9953
1470247052749082,-2.93589,0.919781,-3.09113
1470247052771602,-2.78985,0.952354,-2.85049
1470247052792623,-2.60142,0.958807,-2.57063
1470247052809137,-2.36325,0.949113,-2.26084
1470247052831657,-2.04995,0.963059,-1.88693
1470247052852676,-1.68301,0.967878,-1.47736
1470247052869190,-1.28779,0.928642,-1.02342
1470247052891711,-0.936959,0.826999,-0.620371
1470247052914230,-0.665028,0.673189,-0.292425
1470247052929245,-0.467039,0.499343,-0.02664
1470247052951765,-0.336171,0.340059,0.187104
1470247052972783,-0.24716,0.215894,0.355589
1470247052989298,-0.175834,0.115827,0.506111
1470247053011821,-0.128255,0.044183,0.635737
1470247053032837,-0.0989579,-0.00520884,0.740578
1470247053055371,-0.0715247,-0.0437567,0.835421
1470247053071872,-0.0409418,-0.069081,0.932758
1470247053109906,0.0111866,-0.0801528,0.995836
1470247053111909,0.0532295,-0.075983,1.0323
1470247053137931,0.0788249,-0.0749055,1.05485
1470247053153012,0.0832238,-0.0569982,1.07221
1470247053168960,0.0809728,-0.0383338,1.08054
1470247053191479,0.0792674,-0.0228227,1.07829
1470247053221506,0.0742666,-0.00862025,1.07201
1470247053229013,0.0535818,-0.00311146,1.06562
1470247053251535,0.0174242,-0.00455073,1.06005
1470247053272554,-0.0174139,-0.00404327,1.04683
1470247053289079,-0.0357985,-0.00209666,1.02689
1470247053311588,-0.0328406,-0.000299551,0.998736
1470247053332633,-0.0225802,0.0110823,0.960907
1470247053348620,-0.0165814,0.0222333,0.909062
1470247053371641,-0.021611,0.0437745,0.841424
1470247053392660,-0.0446236,0.0654205,0.759898
1470247053408674,-0.0859966,0.0879148,0.661096
1470247053431695,-0.140067,0.115428,0.534517
1470247053454216,-0.198317,0.152159,0.372803
1470247053468728,-0.26052,0.199423,0.179391
1470247053491749,-0.310187,0.260433,-0.0353414
1470247053514269,-0.343318,0.320935,-0.263475
1470247053528283,-0.354363,0.378552,-0.505119
1470247053551803,-0.324706,0.421475,-0.720631
1470247053574323,-0.28275,0.439591,-0.870871
1470247053588336,-0.236558,0.432354,-0.984389
1470247053611857,-0.188684,0.41678,-1.07411
1470247053633877,-0.143374,0.40068,-1.13651
1470247053648390,-0.103988,0.388875,-1.17185
1470247053671410,-0.0822781,0.385049,-1.18456
1470247053694431,-0.0807079,0.386724,-1.18795
1470247053715450,-0.113542,0.413742,-1.19434
1470247053731464,-0.145606,0.428163,-1.19145
1470247053753984,-0.174608,0.429031,-1.17659
1470247053776505,-0.200106,0.420707,-1.14993
1470247053791519,-0.224419,0.405685,-1.11579
1470247053814041,-0.248157,0.382924,-1.07709
1470247053835603,-0.269233,0.353263,-1.03441
1470247053851573,-0.281978,0.323739,-0.985032
1470247053874124,-0.287364,0.294523,-0.93332
1470247053895144,-0.284861,0.267117,-0.880372
1470247053912127,-0.270444,0.242867,-0.828842
1470247053941653,-0.251524,0.218624,-0.776843
1470247053955165,-0.234787,0.190874,-0.721478
1470247053971687,-0.226782,0.159014,-0.669087
1470247053994201,-0.226112,0.124879,-0.625185
1470247054015232,-0.226089,0.0880659,-0.585554
1470247054031736,-0.221879,0.046517,-0.546434
1470247054054254,-0.217256,-0.00492914,-0.50508
1470247054075361,-0.218904,-0.0685422,-0.462718
1470247054091289,-0.227092,-0.137426,-0.422006
1470247054114308,-0.230672,-0.205029,-0.384021
1470247054135387,-0.226407,-0.273268,-0.349344
1470247054151359,-0.22449,-0.344043,-0.318394
1470247054174361,-0.230773,-0.41606,-0.28866
1470247054195381,-0.242611,-0.485807,-0.260333
1470247054211896,-0.258051,-0.555329,-0.238522
1470247054233915,-0.276928,-0.623175,-0.223196
1470247054255437,-0.279539,-0.686874,-0.215756
1470247054270949,-0.280189,-0.74511,-0.211761
1470247054294470,-0.288617,-0.795616,-0.216433
1470247054315572,-0.294321,-0.793445,-0.240787
1470247054331005,-0.272976,-0.79041,-0.217597
1470247054354024,-0.264565,-0.798926,-0.233149
1470247054375098,-0.301485,-0.813053,-0.253639
1470247054391057,-0.336409,-0.828491,-0.251659
1470247054414078,-0.325767,-0.835519,-0.242166
1470247054435150,-0.303018,-0.84755,-0.232982
1470247054451110,-0.286108,-0.86554,-0.229365
1470247054474134,-0.277543,-0.888039,-0.227002
1470247054495182,-0.287252,-0.91702,-0.220573
1470247054511165,-0.301167,-0.950097,-0.214362
1470247054534185,-0.302797,-0.985969,-0.212634
1470247054556705,-0.297185,-1.02271,-0.214558
1470247054571219,-0.300682,-1.05683,-0.204889
1470247054601746,-0.311253,-1.0905,-0.194687
1470247054616759,-0.302314,-1.12244,-0.212196
1470247054630788,-0.281017,-1.15448,-0.237584
1470247054654293,-0.246954,-1.19051,-0.27025
1470247054676813,-0.21143,-1.2305,-0.296059
1470247054697831,-0.171856,-1.27026,-0.321362
1470247054714346,-0.14683,-1.30849,-0.341741
1470247054736867,-0.142269,-1.34335,-0.349427
1470247054757888,-0.121751,-1.37212,-0.371147
1470247054773900,-0.121455,-1.3965,-0.371909
1470247054802930,-0.11148,-1.42166,-0.38435
1470247054817957,-0.109632,-1.437,-0.382699
1470247054833954,-0.07953,-1.44431,-0.413721
1470247054856476,-0.053464,-1.45219,-0.443574
1470247054877994,-0.0673688,-1.45594,-0.434494
1470247054894010,-0.132139,-1.45809,-0.37445
1470247054916529,-0.0597012,-1.46493,-0.457059
1470247054937547,0.0714023,-1.48048,-0.602604
1470247054954062,-0.0878598,-1.49583,-0.441231
1470247054976602,-0.514947,-1.49689,0.00221739
1470247054997646,-0.376195,-1.49973,-0.131301
1470247055014118,-0.348198,-1.48068,-0.151085
1470247055036639,-0.30929,-1.45061,-0.184577
1470247055057696,-0.228605,-1.43719,-0.276406
1470247055073669,-0.210013,-1.42705,-0.318271
1470247055096690,-0.293,-1.39975,-0.252564
1470247055119211,-0.389921,-1.34545,-0.169321
1470247055134224,-0.460349,-1.28285,-0.0986824
1470247055156744,-0.51202,-1.19695,-0.0193591
1470247055177764,-0.580181,-1.09246,0.0764042
1470247055194278,-0.646119,-0.974631,0.157061
1470247055216798,-0.684843,-0.850182,0.209131
1470247055237866,-0.699164,-0.720062,0.24759
1470247055253340,-0.695395,-0.593898,0.280424
1470247055276852,-0.684836,-0.475963,0.312932
1470247055297871,-0.677269,-0.367819,0.348013
1470247055313887,-0.668865,-0.267725,0.38502
1470247055336907,-0.657721,-0.184448,0.423676
1470247055357925,-0.646737,-0.118477,0.463517
1470247055373439,-0.631204,-0.0748823,0.504074
1470247055396460,-0.608437,-0.0490376,0.541682
1470247055417980,-0.570875,-0.0354522,0.578072
1470247055433513,-0.527561,-0.0339395,0.612099
1470247055456514,-0.492192,-0.0471271,0.640126
1470247055479034,-0.461472,-0.0956924,0.652321
1470247055493546,-0.424987,-0.106801,0.646729
1470247055516567,-0.390661,-0.112841,0.626709
1470247055545093,-0.371618,-0.115656,0.586205
1470247055553600,-0.361644,-0.115236,0.519022
1470247055576624,-0.348027,-0.111026,0.420661
1470247055599642,-0.33092,-0.108681,0.292426
1470247055620713,-0.313328,-0.120159,0.132093
1470247055644182,-0.306072,-0.135946,-0.0604738
1470247055659197,-0.297673,-0.147987,-0.274536
1470247055680217,-0.266874,-0.149294,-0.491336
1470247055696729,-0.19678,-0.129102,-0.69387
1470247055719249,-0.102916,-0.0990843,-0.855763
1470247055740324,-0.0202444,-0.0748868,-0.980639
1470247055756783,0.0358407,-0.0586684,-1.0788
1470247055779305,0.0826754,-0.0427997,-1.15475
1470247055800321,0.123596,-0.0308372,-1.20169
1470247055815836,0.123994,-0.010976,-1.2249
1470247055839356,0.116129,0.00520096,-1.23046
1470247055860377,0.0968251,0.0172507,-1.22418
1470247055876397,0.0683502,0.0211861,-1.21095
1470247055898950,0.0389527,0.0178068,-1.1896
1470247055920470,0.00793039,0.0088372,-1.159
1470247055936444,-0.0202197,-0.0121027,-1.1201
1470247055958967,-0.0517749,-0.0343008,-1.07179
1470247055979985,-0.0888995,-0.0555716,-1.01441
1470247055996498,-0.133495,-0.0727311,-0.950165
1470247056019018,-0.18328,-0.0857055,-0.879172
1470247056040538,-0.23496,-0.0941278,-0.79619
1470247056056051,-0.287116,-0.0959118,-0.696261
1470247056079105,-0.33891,-0.0931627,-0.576726
1470247056100144,-0.389265,-0.0887436,-0.438754
1470247056116621,-0.432652,-0.0826331,-0.285705
1470247056139138,-0.464144,-0.0759206,-0.119598
1470247056161648,-0.477748,-0.0663035,0.0503449
1470247056176660,-0.475063,-0.0521674,0.20578
1470247056199181,-0.466751,-0.0341635,0.337626
1470247056220199,-0.450312,-0.0216182,0.445844
1470247056236213,-0.440561,-0.0208413,0.530359
1470247056259234,-0.43702,-0.0278409,0.592013
1470247056280281,-0.453763,-0.0335378,0.607728
1470247056295767,-0.483623,-0.0526464,0.620436
1470247056303774,-0.498252,-0.0591527,0.616695
1470247056324793,-0.486214,-0.0756039,0.601747
1470247056347313,-0.488332,-0.0880217,0.591836
1470247056363332,-0.505758,-0.100335,0.582703
1470247056384348,-0.515938,-0.115813,0.56194
1470247056407366,-0.507675,-0.126879,0.527457
1470247056423382,-0.495652,-0.126739,0.473684
1470247056444400,-0.481648,-0.12607,0.393263
1470247056467475,-0.462666,-0.128265,0.292235
1470247056483942,-0.439251,-0.134107,0.166582
1470247056504470,-0.409106,-0.141521,0.011912
1470247056527007,-0.374026,-0.145541,-0.168905
1470247056544991,-0.32987,-0.141128,-0.359763
1470247056564564,-0.280494,-0.12657,-0.542558
1470247056587063,-0.224797,-0.0997582,-0.7071
1470247056611050,-0.166995,-0.072752,-0.837784
1470247056624562,-0.120089,-0.0547015,-0.931904
1470247056647107,-0.0883202,-0.048797,-0.997011
1470247056663599,-0.0616018,-0.0487745,-1.03658
1470247056684650,-0.0303111,-0.0537814,-1.05342
1470247056707192,-0.0148139,-0.0549306,-1.05319
1470247056723718,-0.008874,-0.0573359,-1.04303
1470247056744671,-0.0147663,-0.058978,-1.02915
1470247056767204,-0.0308443,-0.0583604,-1.01491
1470247056783704,-0.0511959,-0.0568108,-1.00087
1470247056804751,-0.0744314,-0.0570918,-0.98671
1470247056827243,-0.100003,-0.0594784,-0.97181
1470247056843759,-0.127478,-0.0627178,-0.954931
1470247056864802,-0.153753,-0.0672322,-0.937016
1470247056887437,-0.176827,-0.0721913,-0.918588
1470247056903370,-0.194194,-0.0772223,-0.899335
1470247056924932,-0.20854,-0.0837349,-0.880374
1470247056947352,-0.21928,-0.0893395,-0.861498
1470247056963368,-0.223846,-0.0928215,-0.842394
1470247056984929,-0.223994,-0.0941947,-0.823927
1470247057007409,-0.222813,-0.0943675,-0.806834
1470247057023420,-0.221491,-0.0956497,-0.792559
1470247057044439,-0.220554,-0.0983078,-0.780289
1470247057066959,-0.220675,-0.101792,-0.770153
1470247057083490,-0.220212,-0.105758,-0.762483
1470247057104492,-0.217499,-0.110081,-0.757488
1470247057127013,-0.212665,-0.114773,-0.75371
1470247057143581,-0.208306,-0.121005,-0.750075
1470247057164578,-0.206775,-0.129218,-0.746918
1470247057187072,-0.209041,-0.139571,-0.745648
1470247057203583,-0.208993,-0.150742,-0.745601
1470247057224634,-0.202738,-0.161913,-0.745315
1470247057247203,-0.188223,-0.173584,-0.741618
1470247057263636,-0.163506,-0.186856,-0.731718
1470247057284691,-0.134371,-0.203759,-0.711911
1470247057307177,-0.104358,-0.224252,-0.686745
1470247057323689,-0.0686824,-0.231311,-0.666239
1470247057344708,-0.00934583,-0.194026,-0.655433
1470247057374736,0.0640894,-0.11634,-0.654888
1470247057385245,0.118237,0.00555514,-0.671319
1470247057404763,0.133986,0.163017,-0.69923
1470247057427369,0.121685,0.337551,-0.732671
1470247057444799,0.107718,0.511657,-0.769547
1470247057464821,0.122495,0.6769,-0.79728
1470247057487337,0.164329,0.823509,-0.803506
1470247057504857,0.217413,0.940169,-0.789393
1470247057524369,0.288097,1.01904,-0.745891
1470247057550393,0.363568,1.06025,-0.685633
1470247057564907,0.422582,1.07282,-0.634582
1470247057584924,0.476454,1.05593,-0.589757
1470247057607587,0.528414,1.01384,-0.547257
1470247057624960,0.565071,0.957889,-0.513557
1470247057644477,0.575217,0.893408,-0.496219
1470247057667055,0.551741,0.824413,-0.497044
1470247057685016,0.505638,0.752479,-0.510628
1470247057704565,0.442209,0.676756,-0.534096
1470247057736060,0.37011,0.602534,-0.562908
1470247057745069,0.300064,0.531421,-0.587846
1470247057764588,0.233854,0.46278,-0.607809
1470247057790158,0.177019,0.398758,-0.623654
1470247057811127,0.133649,0.342606,-0.634859
1470247057824666,0.0981325,0.289677,-0.641183
1470247057847365,0.064292,0.240344,-0.647264
1470247057864879,0.0279386,0.198867,-0.656631
1470247057884951,-0.00716008,0.164358,-0.666892
1470247057906916,-0.0399932,0.13217,-0.675375
1470247057924934,-0.0782418,0.102015,-0.683907
1470247057944476,-0.119638,0.0805967,-0.69251
1470247057967473,-0.159123,0.0653312,-0.699296
1470247057984988,-0.193604,0.0513238,-0.7076
1470247058006009,-0.213932,0.0380996,-0.716648
1470247058027024,-0.227104,0.0305887,-0.721263
1470247058045042,-0.246312,0.025431,-0.721617
1470247058066062,-0.265612,0.0191261,-0.721419
1470247058087122,-0.274491,0.0123804,-0.723258
1470247058105181,-0.276006,0.00504076,-0.727292
1470247058126113,-0.276414,-0.00349992,-0.731681
1470247058147132,-0.280614,-0.0118779,-0.734688
1470247058165157,-0.286063,-0.0217545,-0.737276
1470247058186168,-0.289159,-0.0322845,-0.740449
1470247058207235,-0.290528,-0.0445713,-0.74463
1470247058225274,-0.28818,-0.0574378,-0.749028
1470247058246221,-0.281764,-0.0707767,-0.754159
1470247058267296,-0.274535,-0.0830022,-0.760357
1470247058291263,-0.27243,-0.0925816,-0.767864
1470247058305777,-0.27554,-0.103205,-0.772335
1470247058327379,-0.273773,-0.116304,-0.775773
1470247058345311,-0.271337,-0.127631,-0.778923
1470247058367330,-0.272991,-0.136729,-0.782331
1470247058387348,-0.277746,-0.146815,-0.784533
1470247058405458,-0.279078,-0.157711,-0.785723
1470247058427939,-0.275483,-0.168193,-0.786578
1470247058447402,-0.272751,-0.178169,-0.787793
1470247058465468,-0.273769,-0.188872,-0.788568
1470247058488015,-0.274385,-0.197988,-0.788872
1470247058507456,-0.271042,-0.199154,-0.789998
1470247058524974,-0.259005,-0.192432,-0.788581
1470247058547492,-0.251491,-0.189111,-0.787835
1470247058567514,-0.259138,-0.190187,-0.787548
1470247058585058,-0.268435,-0.191242,-0.786942
1470247058607592,-0.265851,-0.191888,-0.787797
1470247058627586,-0.261259,-0.191093,-0.789119
1470247058645080,-0.262904,-0.190311,-0.789812
1470247058667602,-0.267629,-0.18995,-0.789929
1470247058687118,-0.270191,-0.188995,-0.789665
1470247058705134,-0.268411,-0.18601,-0.789853
1470247058732191,-0.266909,-0.181059,-0.790396
1470247058747203,-0.267554,-0.175448,-0.791052
1470247058765187,-0.269813,-0.169874,-0.79182
1470247058787707,-0.272019,-0.164782,-0.792426
1470247058807728,-0.272774,-0.161233,-0.793167
1470247058824241,-0.268642,-0.159426,-0.794536
1470247058846761,-0.258863,-0.159563,-0.795694
1470247058867835,-0.244896,-0.162341,-0.797157
1470247058884334,-0.230726,-0.170079,-0.799524
1470247058906815,-0.220496,-0.182367,-0.803315
1470247058927872,-0.215517,-0.193738,-0.808154
1470247058944349,-0.219043,-0.197,-0.812461
1470247058966869,-0.218684,-0.19336,-0.809753
1470247058987919,-0.225396,-0.192277,-0.80884
1470247059003402,-0.235551,-0.193893,-0.813768
1470247059026922,-0.230951,-0.193013,-0.815933
1470247059047983,-0.222021,-0.189882,-0.818612
1470247059063458,-0.222051,-0.186612,-0.82167
1470247059086976,-0.227492,-0.183771,-0.824078
1470247059107995,-0.233577,-0.180715,-0.826644
1470247059123509,-0.238397,-0.178331,-0.830169
1470247059146533,-0.244433,-0.176344,-0.833519
1470247059168049,-0.2588,-0.178207,-0.833938
1470247059183565,-0.28436,-0.186228,-0.832947
1470247059206587,-0.315598,-0.195892,-0.830535
1470247059228103,-0.337414,-0.198356,-0.813936
1470247059243617,-0.337964,-0.187875,-0.772362
1470247059266638,-0.329109,-0.17387,-0.695595
1470247059289158,-0.32965,-0.16209,-0.593272
1470247059303672,-0.336188,-0.153168,-0.477791
1470247059326692,-0.344089,-0.145776,-0.360461
1470247059349238,-0.351257,-0.137922,-0.254613
1470247059363752,-0.350366,-0.131422,-0.174539
1470247059386746,-0.338069,-0.121607,-0.124747
1470247059409266,-0.317573,-0.111287,-0.104063
1470247059430317,-0.319324,-0.108004,-0.109839
1470247059446800,-0.359005,-0.11453,-0.137411
1470247059469320,-0.409526,-0.11555,-0.174475
1470247059490338,-0.447286,-0.114957,-0.217283
1470247059506855,-0.459026,-0.112678,-0.26176
1470247059529374,-0.45745,-0.113091,-0.299174
1470247059550396,-0.459465,-0.113168,-0.325354
1470247059566408,-0.467663,-0.114541,-0.342023
1470247059590429,-0.471838,-0.115333,-0.352774
1470247059610570,-0.470825,-0.117026,-0.359323
1470247059626962,-0.466886,-0.120955,-0.36335
1470247059649482,-0.461563,-0.127248,-0.364721
1470247059670501,-0.458397,-0.13545,-0.364384
1470247059687017,-0.458952,-0.145878,-0.363846
1470247059709036,-0.46044,-0.157716,-0.364142
1470247059730554,-0.46108,-0.168379,-0.364978
1470247059753104,-0.461236,-0.172851,-0.36488
1470247059768591,-0.471838,-0.115333,-0.352774
1470247059780099,-0.461236,-0.172851,-0.36488
1470247059785103,-0.456568,-0.16855,-0.36421
1470247059795114,-0.448981,-0.161661,-0.364733
1470247059806123,-0.448293,-0.160482,-0.364105
1470247059827141,-0.460203,-0.145686,-0.362065
1470247059843656,-0.470342,-0.138262,-0.359986
1470247059866177,-0.45996,-0.149147,-0.359771
1470247059887196,-0.452424,-0.148458,-0.358366
1470247059903709,-0.456784,-0.137367,-0.354775
1470247059926231,-0.446094,-0.148736,-0.355197
1470247059947267,-0.441674,-0.160995,-0.354792
1470247059963764,-0.441101,-0.161788,-0.355915
1470247059985784,-0.441249,-0.161693,-0.355934
1470247060007368,-0.442081,-0.161324,-0.356382
1470247060023318,-0.441626,-0.160942,-0.356214
1470247060045897,-0.440373,-0.160689,-0.356176
1470247060067357,-0.439526,-0.160601,-0.355996
1470247060083873,-0.435981,-0.173152,-0.355054
1470247060105892,-0.440334,-0.163966,-0.353968
1470247060127411,-0.440988,-0.163899,-0.354223
1470247060143926,-0.440306,-0.163767,-0.355286
1470247060165946,-0.438976,-0.163098,-0.356258
1470247060188025,-0.438393,-0.162469,-0.357308
1470247060202984,-0.437589,-0.161713,-0.358007
1470247060225503,-0.436761,-0.161137,-0.358407
1470247060248021,-0.435937,-0.160526,-0.35921
1470247060263104,-0.435549,-0.160415,-0.360158
1470247060285052,-0.436096,-0.159988,-0.361123
1470247060307573,-0.436137,-0.159539,-0.36132
1470247060323086,-0.435069,-0.159132,-0.361598
1470247060345108,-0.433746,-0.158464,-0.362036
1470247060367627,-0.432456,-0.157587,-0.362645
1470247060383148,-0.430939,-0.156611,-0.36303
1470247060405173,-0.429207,-0.155474,-0.363467
1470247060428184,-0.427415,-0.154569,-0.363836
1470247060442737,-0.426809,-0.154328,-0.364432
1470247060465229,-0.426439,-0.154129,-0.364999
1470247060487736,-0.425849,-0.15362,-0.36549
1470247060512257,-0.425021,-0.153094,-0.36614
1470247060525270,-0.423925,-0.152575,-0.367051
1470247060547788,-0.422835,-0.152027,-0.367835
1470247060564303,-0.421852,-0.151648,-0.36872
1470247060585324,-0.421593,-0.151458,-0.369791
1470247060607842,-0.421139,-0.150961,-0.370809
1470247060623857,-0.420824,-0.150433,-0.371568
1470247060645877,-0.420269,-0.149739,-0.372358
1470247060669400,-0.419692,-0.14919,-0.373252
1470247060691919,-0.419613,-0.148706,-0.373981
1470247060712937,-0.419864,-0.147985,-0.374514
1470247060729451,-0.420053,-0.147497,-0.374981
1470247060751971,-0.420015,-0.14691,-0.375222
1470247060772990,-0.420039,-0.146091,-0.375531
1470247060789005,-0.419613,-0.145431,-0.375784
1470247060811525,-0.419471,-0.144824,-0.376051
1470247060833044,-0.41949,-0.144706,-0.376074
1470247060849061,-0.41949,-0.144706,-0.376074
1470247060871579,-0.420074,-0.145059,-0.375989
1470247060893207,-0.420499,-0.145571,-0.375608
1470247060909113,-0.420578,-0.145895,-0.375283
1470247060931667,-0.420559,-0.146013,-0.375261
1470247060952687,-0.420138,-0.146297,-0.375228
1470247060969167,-0.420271,-0.146295,-0.375097
1470247060991689,-0.42029,-0.146177,-0.375119
1470247061013265,-0.420395,-0.146197,-0.375093
1470247061029221,-0.420578,-0.145895,-0.375283
1470247061051741,-0.421011,-0.145546,-0.375594
1470247061072804,-0.421248,-0.144917,-0.375979
1470247061089281,-0.421309,-0.144405,-0.37645
1470247061111795,-0.421414,-0.143779,-0.376966
1470247061132857,-0.421748,-0.143251,-0.377708
1470247061149328,-0.422085,-0.142697,-0.378323
1470247061171849,-0.42221,-0.142469,-0.378851
1470247061194372,-0.422509,-0.142151,-0.379421
1470247061215475,-0.422299,-0.14183,-0.379878
1470247061231902,-0.422328,-0.141675,-0.380305
1470247061254423,-0.422313,-0.141634,-0.380687
1470247061269436,-0.422773,-0.141807,-0.381011
1470247061291957,-0.423515,-0.142031,-0.381352
1470247061314008,-0.423491,-0.142028,-0.381329
1470247061328990,-0.42351,-0.14191,-0.381351
1470247061352011,-0.423535,-0.141914,-0.381374
1470247061374035,-0.423535,-0.141914,-0.381374
1470247061388543,-0.423535,-0.141914,-0.381374
1470247061411565,-0.423202,-0.141514,-0.381579
1470247061434635,-0.423073,-0.141489,-0.381582
1470247061448598,-0.423073,-0.141489,-0.381582
1470247061471618,-0.423222,-0.141396,-0.381601
1470247061494138,-0.423222,-0.141396,-0.381601
1470247061508653,-0.423241,-0.141278,-0.381624
1470247061531716,-0.423244,-0.141251,-0.381496
1470247061554198,-0.423244,-0.141251,-0.381496
1470247061568705,-0.423244,-0.141251,-0.381496
1470247061591726,-0.423244,-0.141251,-0.381496
1470247061614246,-0.423046,-0.140997,-0.381698
1470247061628759,-0.423046,-0.140997,-0.381698
1470247061651779,-0.423336,-0.140717,-0.381864
1470247061674300,-0.423336,-0.140717,-0.381864
1470247061695319,-0.423359,-0.140572,-0.381759
1470247061711833,-0.423488,-0.140597,-0.381755
1470247061734354,-0.423488,-0.140597,-0.381755
1470247061755429,-0.423488,-0.140597,-0.381755
1470247061771887,-0.423508,-0.140479,-0.381778
1470247061794407,-0.423508,-0.140479,-0.381778
1470247061815452,-0.423508,-0.140479,-0.381778
1470247061831941,-0.423528,-0.140361,-0.3818
1470247061854461,-0.423657,-0.140386,-0.381797
1470247061875480,-0.423657,-0.140386,-0.381797
1470247061899001,-0.423657,-0.140386,-0.381797
1470247061914015,-0.423677,-0.140268,-0.38182
1470247061935534,-0.423677,-0.140268,-0.38182
1470247061951603,-0.423677,-0.140268,-0.38182
1470247061974068,-0.423829,-0.140148,-0.381712
1470247061995588,-0.423829,-0.140148,-0.381712
1470247062011603,-0.423829,-0.140148,-0.381712
1470247062034123,-0.42442,-0.139655,-0.381789
1470247062055657,-0.42504,-0.139138,-0.381762
1470247062071711,-0.42504,-0.139138,-0.381762
1470247062094182,-0.425135,-0.138576,-0.382003
1470247062116699,-0.425231,-0.138015,-0.382244
1470247062131736,-0.42531,-0.137544,-0.382335
1470247062154233,-0.425144,-0.136961,-0.382709
1470247062176750,-0.425114,-0.136348,-0.382826
1470247062191765,-0.425061,-0.13588,-0.383047
1470247062214285,-0.425284,-0.135371,-0.383413
1470247062236806,-0.425179,-0.135098,-0.383971
1470247062252319,-0.425088,-0.13652,-0.383058
1470247062274340,-0.424619,-0.135513,-0.383532
1470247062296859,-0.422649,-0.149435,-0.382819
1470247062310871,-0.42107,-0.162737,-0.382396
1470247062334393,-0.419187,-0.173434,-0.382549
1470247062356913,-0.417463,-0.18326,-0.382634
1470247062370925,-0.415545,-0.193418,-0.382676
1470247062394446,-0.413484,-0.204464,-0.382854
1470247062416966,-0.411773,-0.216048,-0.38285
1470247062430979,-0.409976,-0.228081,-0.382639
1470247062454501,-0.408331,-0.240093,-0.382184
1470247062476520,-0.406735,-0.252224,-0.381652
1470247062498048,-0.404898,-0.264037,-0.38161
1470247062514054,-0.403566,-0.275254,-0.38125
1470247062536574,-0.403731,-0.283478,-0.380286
1470247062551087,-0.404576,-0.279619,-0.379326
1470247062574108,-0.404902,-0.278652,-0.379238
1470247062596630,-0.405018,-0.277782,-0.379226
1470247062617683,-0.405196,-0.276908,-0.379132
1470247062634162,-0.406177,-0.273277,-0.379033
1470247062656682,-0.406452,-0.272447,-0.379037
1470247062678201,-0.406605,-0.271562,-0.37892
1470247062700221,-0.406747,-0.270704,-0.378936
1470247062716736,-0.406916,-0.269699,-0.378838
1470247062738259,-0.407059,-0.268843,-0.378853
1470247062754269,-0.407201,-0.267986,-0.37887
1470247062776796,-0.407291,-0.264409,-0.378741
1470247062798326,-0.4075,-0.260822,-0.378451
1470247062814323,-0.407643,-0.259966,-0.378469
1470247062836843,-0.40793,-0.259109,-0.378347
1470247062857876,-0.408058,-0.258373,-0.378348
1470247062874378,-0.408212,-0.257489,-0.378236
1470247062896919,-0.408357,-0.256634,-0.378255
1470247062917945,-0.408486,-0.255898,-0.378257
1470247062934431,-0.408746,-0.25503,-0.378112
1470247062964458,-0.408875,-0.254295,-0.378114
1470247062979472,-0.408872,-0.253533,-0.378126
1470247062994028,-0.409017,-0.252678,-0.378147
1470247063017010,-0.409156,-0.251915,-0.378019
1470247063038113,-0.409285,-0.251179,-0.378022
1470247063054077,-0.409389,-0.250434,-0.378001
1470247063076559,-0.40966,-0.249697,-0.377865
1470247063099581,-0.409783,-0.246678,-0.377909
1470247063114097,-0.409922,-0.245916,-0.377782
1470247063136613,-0.410011,-0.24529,-0.377744
1470247063159183,-0.410141,-0.244556,-0.377749
1470247063174146,-0.410403,-0.243847,-0.377745
1470247063196671,-0.410533,-0.243112,-0.37775
1470247063219187,-0.410647,-0.24234,-0.377601
1470247063233739,-0.410777,-0.241605,-0.377606
1470247063256724,-0.410892,-0.24099,-0.377593
1470247063279241,-0.410997,-0.240246,-0.377575
1470247063293755,-0.411127,-0.239511,-0.377581
1470247063316776,-0.411258,-0.238777,-0.377587
1470247063339295,-0.411066,-0.23594,-0.377597
1470247063353807,-0.411009,-0.233349,-0.377455
1470247063376853,-0.410969,-0.230641,-0.377333
1470247063399349,-0.411044,-0.227858,-0.377329
1470247063413362,-0.411168,-0.227216,-0.377188
1470247063436885,-0.411259,-0.226593,-0.377154
1470247063459403,-0.411374,-0.225978,-0.377144
1470247063473916,-0.411465,-0.225355,-0.37711
1470247063496936,-0.411581,-0.224741,-0.3771
1470247063519456,-0.411696,-0.224126,-0.37709
1470247063533470,-0.411787,-0.223503,-0.377057
1470247063556990,-0.411903,-0.222889,-0.377047
1470247063579510,-0.411994,-0.222266,-0.377014
1470247063600529,-0.412093,-0.221771,-0.376985
1470247063616556,-0.412184,-0.221148,-0.376953
1470247063655080,-0.412169,-0.220509,-0.376951
1470247063660675,-0.412286,-0.219894,-0.376943
1470247063676600,-0.41236,-0.219391,-0.376891
1470247063699163,-0.412469,-0.218804,-0.377011
1470247063728146,-0.412543,-0.218301,-0.37696
1470247063736652,-0.41266,-0.217687,-0.376951
1470247063759172,-0.412751,-0.217064,-0.376919
1470247063780205,-0.412851,-0.216569,-0.376892
1470247063796706,-0.412942,-0.215947,-0.37686
1470247063819226,-0.413042,-0.215452,-0.376833
1470247063840246,-0.413133,-0.21483,-0.376801
1470247063856760,-0.413233,-0.214335,-0.376774
1470247063879279,-0.413325,-0.213713,-0.376743
1470247063900804,-0.413294,-0.213193,-0.376723
1470247063916815,-0.413369,-0.21269,-0.376673
1470247063939344,-0.413485,-0.212076,-0.376665
1470247063960378,-0.413684,-0.211626,-0.376737
1470247063976867,-0.413653,-0.211105,-0.376718
1470247063999387,-0.413876,-0.210509,-0.37668
1470247064021907,-0.413976,-0.210014,-0.376653
1470247064035922,-0.414051,-0.209511,-0.376603
1470247064059441,-0.414151,-0.209017,-0.376577
1470247064064947,-0.414243,-0.208395,-0.376547
1470247064087467,-0.414213,-0.207875,-0.376528
1470247064102480,-0.414281,-0.2074,-0.376608
1470247064124515,-0.414381,-0.206905,-0.376582
1470247064147020,-0.41434,-0.204834,-0.376453
1470247064162534,-0.41431,-0.204314,-0.376435
1470247064184554,-0.414378,-0.203839,-0.376514
1470247064207099,-0.414479,-0.203344,-0.376489
1470247064222115,-0.413828,-0.201291,-0.375887
1470247064244636,-0.41235,-0.199825,-0.374715
1470247064267160,-0.410117,-0.199101,-0.373589
1470247064282142,-0.407428,-0.198819,-0.371998
1470247064304720,-0.405304,-0.198634,-0.369741
1470247064327181,-0.402163,-0.199176,-0.367678
1470247064342248,-0.397532,-0.200451,-0.364521
1470247064364715,-0.39287,-0.203382,-0.36021
1470247064387236,-0.38726,-0.2072,-0.354934
1470247064403752,-0.381255,-0.21132,-0.349533
1470247064424769,-0.375988,-0.215059,-0.343917
1470247064447318,-0.372582,-0.218437,-0.338376
1470247064463804,-0.369444,-0.221709,-0.333232
1470247064487826,-0.36679,-0.225182,-0.328559
1470247064507376,-0.363637,-0.228261,-0.324223
1470247064523358,-0.360694,-0.23086,-0.32038
1470247064544877,-0.357817,-0.23338,-0.317299
1470247064567398,-0.355058,-0.235559,-0.314904
1470247064583412,-0.353115,-0.237018,-0.313202
1470247064604931,-0.352489,-0.237805,-0.311997
1470247064626979,-0.352763,-0.238091,-0.311286
1470247064643467,-0.352964,-0.237581,-0.311083
1470247064664984,-0.352924,-0.236773,-0.311482
1470247064687519,-0.352511,-0.235681,-0.312073
1470247064703521,-0.352136,-0.234227,-0.312712
1470247064724571,-0.351824,-0.233228,-0.313677
1470247064747058,-0.352014,-0.232054,-0.314592
1470247064763573,-0.352496,-0.23091,-0.315379
1470247064784613,-0.352692,-0.229639,-0.316438
1470247064807115,-0.352435,-0.228255,-0.317323
1470247064823628,-0.352529,-0.227144,-0.317997
1470247064844682,-0.353166,-0.225976,-0.31852
1470247064867166,-0.353522,-0.22491,-0.319175
1470247064883681,-0.353795,-0.223533,-0.319617
1470247064904742,-0.354166,-0.222347,-0.32029
1470247064927294,-0.35419,-0.221057,-0.320756
1470247064943735,-0.354341,-0.219563,-0.321353
1470247064964785,-0.354966,-0.218292,-0.322004
1470247064987319,-0.35524,-0.216844,-0.322721
1470247065005290,-0.355366,-0.215746,-0.323419
1470247065024808,-0.355708,-0.214673,-0.324058
1470247065047335,-0.356182,-0.213849,-0.324548
1470247065065344,-0.356893,-0.213059,-0.325
1470247065084862,-0.357818,-0.21245,-0.325525
1470247065107472,-0.358454,-0.211964,-0.326308
1470247065125399,-0.359089,-0.211633,-0.327224
1470247065144915,-0.359596,-0.211127,-0.328016
1470247065167436,-0.360121,-0.210727,-0.328685
1470247065184952,-0.360959,-0.210769,-0.329385
1470247065204469,-0.362307,-0.211722,-0.329753
1470247065227004,-0.364753,-0.215057,-0.329653
1470247065245006,-0.369093,-0.223142,-0.328835
1470247065265024,-0.380434,-0.237293,-0.328369
1470247065287543,-0.396198,-0.255285,-0.327567
1470247065313068,-0.410167,-0.274722,-0.32377
1470247065324602,-0.416125,-0.296097,-0.314108
1470247065347097,-0.409848,-0.316259,-0.295961
1470247065365140,-0.395081,-0.337934,-0.271378
1470247065385159,-0.378204,-0.365808,-0.243149
1470247065407152,-0.362882,-0.397456,-0.21509
1470247065425170,-0.342765,-0.434408,-0.18975
1470247065444685,-0.320948,-0.477305,-0.171055
1470247065467207,-0.295079,-0.52429,-0.159723
1470247065486242,-0.272692,-0.577113,-0.155822
1470247065504753,-0.252597,-0.634846,-0.160906
1470247065527273,-0.236278,-0.694559,-0.173601
1470247065545276,-0.219262,-0.753098,-0.194943
1470247065564796,-0.201664,-0.809564,-0.223041
1470247065587313,-0.176212,-0.86568,-0.262982
1470247065605330,-0.138929,-0.918021,-0.317929
1470247065626348,-0.088755,-0.964731,-0.384287
1470247065647367,-0.0309086,-1.00573,-0.455804
1470247065673891,0.0297706,-1.04483,-0.534526
1470247065686402,0.0983475,-1.08097,-0.623449
1470247065707423,0.170138,-1.11366,-0.717044
1470247065724937,0.23946,-1.14202,-0.811773
1470247065745955,0.310533,-1.16632,-0.907554
1470247065767089,0.381228,-1.18927,-1.0026
1470247065785105,0.435515,-1.20846,-1.08445
1470247065806124,0.482174,-1.22514,-1.15794
1470247065827159,0.520505,-1.23674,-1.21797
1470247065845660,0.537121,-1.23373,-1.25001
1470247065873685,0.530787,-1.23986,-1.2588
1470247065887233,0.516453,-1.24186,-1.27243
1470247065905213,0.548072,-1.24385,-1.34633
1470247065927734,0.596156,-1.25055,-1.41614
1470247065947280,0.659685,-1.25503,-1.47282
1470247065966768,0.732783,-1.25579,-1.52337
1470247065987788,0.798145,-1.25627,-1.57228
1470247066007305,0.84571,-1.26033,-1.61691
1470247066025334,0.889173,-1.26703,-1.66441
1470247066047843,0.932847,-1.27519,-1.70964
1470247066067393,0.984491,-1.28517,-1.75465
1470247066085375,1.05084,-1.29393,-1.80596
1470247066107900,1.12955,-1.30125,-1.86649
1470247066127455,1.21778,-1.30691,-1.93606
1470247066144928,1.30177,-1.31044,-2.00372
1470247066167448,1.36862,-1.3135,-2.05865
1470247066187466,1.4208,-1.31571,-2.10382
1470247066204985,1.46169,-1.31658,-2.14087
1470247066227502,1.49118,-1.31616,-2.16734
1470247066247520,1.51232,-1.31524,-2.185
1470247066265036,1.52706,-1.31381,-2.19657
1470247066287556,1.53562,-1.31274,-2.20369
1470247066307574,1.54022,-1.31183,-2.20876
1470247066325092,1.54331,-1.31087,-2.21274
1470247066347610,1.54508,-1.31051,-2.2147
1470247066367162,1.54636,-1.31051,-2.2149
1470247066385144,1.54983,-1.31079,-2.21635
1470247066407706,1.55325,-1.31016,-2.21844
1470247066430252,1.55637,-1.3102,-2.22026
1470247066446200,1.56079,-1.31097,-2.22258
1470247066467718,1.5651,-1.31146,-2.22462
1470247066487237,1.56733,-1.31228,-2.22562
1470247066505254,1.56746,-1.3134,-2.22562
1470247066527771,1.56852,-1.31532,-2.22606
1470247066548791,1.56959,-1.31707,-2.22557
1470247066564305,1.5708,-1.31913,-2.22461
1470247066586825,1.57107,-1.32046,-2.22291
1470247066609346,1.57038,-1.32239,-2.22053
1470247066624359,1.56748,-1.32429,-2.21636
1470247066646878,1.56229,-1.32648,-2.21011
1470247066667912,1.55773,-1.32834,-2.20378
1470247066684413,1.55187,-1.32889,-2.1956
1470247066707435,1.53719,-1.32872,-2.17699
1470247066727981,1.51274,-1.32895,-2.14544
1470247066743465,1.48405,-1.3265,-2.10908
1470247066766986,1.44428,-1.32053,-2.06389
1470247066788008,1.37778,-1.30788,-1.99884
1470247066803519,1.28775,-1.28923,-1.91899
1470247066827044,1.20701,-1.27138,-1.85049
1470247066848060,1.13487,-1.25071,-1.79014
1470247066863573,1.0256,-1.22204,-1.69958
1470247066887094,0.898128,-1.18245,-1.59714
1470247066909614,0.791827,-1.14179,-1.50812
1470247066923631,0.70344,-1.09974,-1.42517
1470247066946661,0.62166,-1.04635,-1.34469
1470247066969669,0.548676,-0.981519,-1.27017
1470247066983681,0.494557,-0.912507,-1.20424
1470247067006702,0.45823,-0.847549,-1.14652
1470247067029222,0.412326,-0.781179,-1.09318
1470247067050253,0.350598,-0.704799,-1.04314
1470247067066758,0.296627,-0.603281,-0.99244
1470247067089276,0.249867,-0.46555,-0.938488
1470247067110322,0.228964,-0.281487,-0.896787
1470247067126810,0.245123,-0.0631937,-0.86556
1470247067149330,0.283408,0.167047,-0.837936
1470247067171850,0.329704,0.379037,-0.814911
1470247067187365,0.384155,0.557798,-0.785767
1470247067217391,0.434987,0.693216,-0.751221
1470247067230431,0.502037,0.775509,-0.710393
1470247067246918,0.553848,0.803558,-0.672692
1470247067270939,0.542508,0.766918,-0.646703
1470247067290458,0.501357,0.692986,-0.627581
1470247067306971,0.454093,0.60183,-0.618109
1470247067329992,0.410011,0.509666,-0.621068
1470247067350510,0.36667,0.424092,-0.628378
1470247067367025,0.323096,0.344841,-0.636295
1470247067389546,0.273476,0.271903,-0.650806
1470247067410565,0.227608,0.214132,-0.666208
1470247067427080,0.182934,0.159314,-0.670701
1470247067449119,0.149038,0.114889,-0.672093
1470247067470619,0.119958,0.0803111,-0.672488
1470247067493139,0.0920165,0.0525326,-0.672993
1470247067509153,0.0685998,0.0320975,-0.671524
1470247067537679,0.0495798,0.0116728,-0.668813
1470247067546686,0.0345392,-0.0091106,-0.665929
1470247067569207,0.0240727,-0.0260574,-0.662835
1470247067590728,0.0132234,-0.0428298,-0.658759
1470247067614248,0.000143783,-0.0621215,-0.656839
1470247067629261,-0.0110063,-0.0791847,-0.655326
1470247067650781,-0.0168245,-0.092341,-0.653258
1470247067666294,-0.0149278,-0.100927,-0.650935
1470247067689316,-0.00973634,-0.107395,-0.649352
1470247067710334,-0.00997534,-0.118728,-0.650647
1470247067726349,-0.0169838,-0.131393,-0.654015
1470247067750870,-0.0246139,-0.142024,-0.65821
1470247067770387,-0.022866,-0.150274,-0.663222
1470247067786402,-0.0141719,-0.158085,-0.668917
1470247067809423,-0.00951407,-0.17128,-0.677498
1470247067831942,-0.0112403,-0.18609,-0.688433
1470247067846456,-0.0109544,-0.19843,-0.699518
1470247067869477,-0.00233795,-0.208513,-0.710517
1470247067891997,0.0133464,-0.216355,-0.723045
1470247067906011,0.0241043,-0.227583,-0.741289
1470247067929533,0.0263942,-0.243273,-0.766155
1470247067952050,0.0259462,-0.25731,-0.790664
1470247067973069,0.0311916,-0.266598,-0.812775
1470247067989084,0.0438438,-0.272886,-0.834807
1470247068011604,0.0626497,-0.276625,-0.860645
1470247068033126,0.0824978,-0.282719,-0.893359
1470247068049139,0.100363,-0.290471,-0.932322
1470247068071659,0.115645,-0.297957,-0.972655
1470247068093177,0.129389,-0.305327,-1.01321
1470247068109192,0.145152,-0.311539,-1.05718
1470247068131739,0.164335,-0.316627,-1.10659
1470247068153282,0.185732,-0.321221,-1.1612
1470247068169247,0.205512,-0.32605,-1.22061
1470247068192266,0.218827,-0.331414,-1.28445
1470247068212819,0.226915,-0.337181,-1.35106
1470247068229300,0.233894,-0.345568,-1.4204
1470247068251819,0.243738,-0.35744,-1.4939
1470247068272840,0.256247,-0.371211,-1.56877
1470247068289353,0.269005,-0.387427,-1.64407
1470247068311875,0.280618,-0.404948,-1.721
1470247068332894,0.289643,-0.422713,-1.79847
1470247068349408,0.299401,-0.438231,-1.87447
1470247068371928,0.309948,-0.45241,-1.94658
1470247068392965,0.319025,-0.466478,-2.01401
1470247068409461,0.324322,-0.48018,-2.07809
1470247068432482,0.328635,-0.493622,-2.14052
1470247068453033,0.340813,-0.506271,-2.20207
1470247068475520,0.362992,-0.517334,-2.26183
1470247068492035,0.391447,-0.528257,-2.31867
1470247068513054,0.416208,-0.539522,-2.37245
1470247068529069,0.433558,-0.549209,-2.4243
1470247068552089,0.440678,-0.559533,-2.47137
1470247068573108,0.442221,-0.569544,-2.5123
1470247068588622,0.443873,-0.578874,-2.54933
1470247068611643,0.448297,-0.58705,-2.5824
1470247068640672,0.45022,-0.594005,-2.60826
1470247068648676,0.452838,-0.599282,-2.62785
1470247068671697,0.453399,-0.602434,-2.64114
1470247068692715,0.451444,-0.604147,-2.64757
1470247068708730,0.445436,-0.604346,-2.64531
1470247068737756,0.434225,-0.603197,-2.63575
1470247068752771,0.418596,-0.603005,-2.62095
1470247068768784,0.396853,-0.602761,-2.60004
1470247068797827,0.367656,-0.600698,-2.57172
1470247068814326,0.332923,-0.596873,-2.53561
1470247068829339,0.296272,-0.590023,-2.49106
1470247068851859,0.263465,-0.579223,-2.4388
1470247068881890,0.228983,-0.563546,-2.37502
1470247068895398,0.193793,-0.5437,-2.30135
1470247068911912,0.160297,-0.520837,-2.2201
1470247068934433,0.13042,-0.494171,-2.13398
1470247068955452,0.104082,-0.464742,-2.04265
1470247068971966,0.0817712,-0.432812,-1.94598
1470247069000521,0.0676148,-0.398275,-1.84473
1470247069015560,0.0561094,-0.361801,-1.73956
1470247069032020,0.041083,-0.323124,-1.6323
1470247069054541,0.0229399,-0.284072,-1.52568
1470247069076060,0.00440793,-0.24761,-1.41798
1470247069091573,-0.0117171,-0.214785,-1.30922
1470247069114098,-0.0274666,-0.187322,-1.1982
1470247069135616,-0.0452996,-0.16584,-1.0849
1470247069151627,-0.0661058,-0.151321,-0.970593
1470247069174648,-0.0926725,-0.144957,-0.854495
1470247069195170,-0.12482,-0.145758,-0.7379
1470247069211682,-0.160556,-0.146068,-0.621405
1470247069234204,-0.188994,-0.141285,-0.505593
1470247069255756,-0.210254,-0.13712,-0.382312
1470247069271828,-0.244245,-0.141493,-0.255044
1470247069294255,-0.296266,-0.150112,-0.131546
1470247069315775,-0.34423,-0.153927,-0.0150684
1470247069331790,-0.373469,-0.154422,0.0967713
1470247069354309,-0.395335,-0.155719,0.197621
1470247069375358,-0.418621,-0.150782,0.281246
1470247069391844,-0.436132,-0.146086,0.348742
1470247069414364,-0.4544,-0.14779,0.39684
1470247069435416,-0.458163,-0.148325,0.381348
1470247069451897,-0.468206,-0.154426,0.366339
1470247069474417,-0.508299,-0.151949,0.34921
1470247069495436,-0.510535,-0.161331,0.32046
1470247069511451,-0.488753,-0.180852,0.297074
1470247069534471,-0.466963,-0.1895,0.267546
1470247069555490,-0.445711,-0.199262,0.228025
1470247069571005,-0.412949,-0.199082,0.178403
1470247069594525,-0.378449,-0.198714,0.117124
1470247069615545,-0.350906,-0.198984,0.0449803
1470247069631559,-0.326579,-0.196668,-0.0376139
1470247069654579,-0.299973,-0.191016,-0.131061
1470247069675599,-0.268419,-0.182241,-0.234421
1470247069691112,-0.237118,-0.171135,-0.34532
1470247069714133,-0.210313,-0.158275,-0.460339
1470247069736653,-0.186551,-0.142139,-0.577458
1470247069759173,-0.163643,-0.124401,-0.69404
1470247069774187,-0.138849,-0.106657,-0.807927
1470247069797207,-0.108526,-0.0916453,-0.918911
1470247069818226,-0.0743611,-0.0826962,-1.03069
1470247069834241,-0.0478436,-0.0834639,-1.14858
1470247069856761,-0.0284132,-0.0922827,-1.26818
1470247069877788,-0.0105519,-0.106135,-1.38418
1470247069894320,0.00946296,-0.127144,-1.49788
1470247069916814,0.0263065,-0.158822,-1.61406
1470247069937834,0.0339973,-0.199181,-1.73639
1470247069954350,0.0463831,-0.236716,-1.85051
1470247069977370,0.0624252,-0.274306,-1.95723
1470247069997913,0.0785719,-0.317077,-2.06673
1470247070014402,0.0928839,-0.36171,-2.17811
1470247070038424,0.112077,-0.401212,-2.28254
1470247070057942,0.128689,-0.437147,-2.38166
1470247070074459,0.141145,-0.4706,-2.47696
1470247070096977,0.153815,-0.498068,-2.56406
1470247070118078,0.172496,-0.518415,-2.63883
1470247070142016,0.185923,-0.533211,-2.69731
1470247070157030,0.182292,-0.546404,-2.7336
1470247070178061,0.166929,-0.552883,-2.74604
1470247070194564,0.151302,-0.554599,-2.74004
1470247070224091,0.138663,-0.556166,-2.72291
1470247070238195,0.128004,-0.55961,-2.69885
1470247070260623,0.114811,-0.564171,-2.6679
1470247070276748,0.0927957,-0.565949,-2.62866
1470247070298157,0.0743793,-0.562413,-2.58498
1470247070314672,0.0545678,-0.555304,-2.53308
1470247070343199,0.0356116,-0.545444,-2.47305
1470247070358215,0.0177761,-0.533901,-2.40449
1470247070374226,-0.000843532,-0.520368,-2.32625
1470247070396745,-0.024389,-0.507094,-2.23489
1470247070417783,-0.0490701,-0.490956,-2.12263
1470247070434295,-0.0870984,-0.463889,-1.99426
1470247070456801,-0.131863,-0.417405,-1.86093
1470247070478319,-0.172388,-0.356866,-1.71955
1470247070493833,-0.207126,-0.288146,-1.56391
1470247070516854,-0.229731,-0.213822,-1.40201
1470247070537872,-0.240087,-0.145403,-1.23083
1470247070553887,-0.23589,-0.08957,-1.04212
1470247070576908,-0.214745,-0.0509075,-0.838653
1470247070597927,-0.190998,-0.0371893,-0.631699
1470247070620447,-0.175,-0.0387489,-0.441609
1470247070636961,-0.183118,-0.0564926,-0.271366
1470247070657981,-0.222311,-0.0919657,-0.128899
1470247070673494,-0.284994,-0.143406,-0.0316898
1470247070697015,-0.346962,-0.178971,0.0311977
1470247070727043,-0.38631,-0.19191,0.075756
1470247070742056,-0.414313,-0.209784,0.103568
1470247070757071,-0.449121,-0.223637,0.115157
1470247070779269,-0.471013,-0.235665,0.116578
1470247070793782,-0.477765,-0.2461,0.114008
1470247070816805,-0.473014,-0.25015,0.108157
1470247070839325,-0.464161,-0.251533,0.0991801
1470247070868350,-0.459371,-0.252989,0.0910335
1470247070876905,-0.461341,-0.255203,0.0840028
1470247070899423,-0.464069,-0.256646,0.0765124
1470247070920459,-0.465483,-0.257131,0.0689811
1470247070936958,-0.465401,-0.25563,0.0617857
1470247070959478,-0.465787,-0.253073,0.0554051
1470247070980499,-0.469223,-0.250723,0.0498557
1470247070997011,-0.474233,-0.247252,0.0470095
1470247071019531,-0.478794,-0.24283,0.0460075
1470247071040579,-0.48037,-0.238011,0.0455245
1470247071057067,-0.480008,-0.233167,0.0466851
1470247071079585,-0.480067,-0.229413,0.049679
1470247071093599,-0.483105,-0.22811,0.054532
1470247071117119,-0.485509,-0.227389,0.0600831
1470247071146646,-0.485203,-0.226028,0.066666
1470247071160658,-0.484085,-0.225316,0.0733049
1470247071176673,-0.486179,-0.227732,0.0778424
1470247071199693,-0.488242,-0.230854,0.0805359
1470247071220716,-0.490124,-0.234354,0.0833056
1470247071236729,-0.489416,-0.237674,0.0858345
1470247071259248,-0.486534,-0.24045,0.0855302
1470247071280767,-0.481792,-0.243618,0.079498
1470247071304305,-0.470558,-0.246249,0.0650084
1470247071319301,-0.455289,-0.250141,0.0432198
1470247071340319,-0.442639,-0.255155,0.0130686
1470247071356836,-0.430615,-0.258984,-0.0251982
1470247071379355,-0.419872,-0.257891,-0.0698887
1470247071400374,-0.409074,-0.256429,-0.120396
1470247071416388,-0.397998,-0.255537,-0.176116
1470247071439408,-0.385997,-0.255164,-0.237054
1470247071460429,-0.370745,-0.253663,-0.299643
1470247071483467,-0.351602,-0.249105,-0.361024
1470247071499462,-0.329277,-0.24407,-0.42309
1470247071520486,-0.305735,-0.238818,-0.486905
1470247071535995,-0.283589,-0.234713,-0.550243
1470247071559519,-0.266468,-0.23363,-0.614668
1470247071580581,-0.245614,-0.229831,-0.679074
1470247071596049,-0.220373,-0.225271,-0.740103
1470247071619571,-0.195426,-0.220747,-0.798753
1470247071642090,-0.169107,-0.216503,-0.856773
1470247071656103,-0.146888,-0.216138,-0.917395
1470247071679124,-0.128751,-0.217512,-0.978544
1470247071702147,-0.109958,-0.217455,-1.03498
1470247071716180,-0.0899799,-0.218735,-1.08737
1470247071739182,-0.0694308,-0.222103,-1.1383
1470247071761741,-0.0550718,-0.229779,-1.19235
1470247071783217,-0.0448882,-0.239208,-1.24774
1470247071799732,-0.0345223,-0.247589,-1.29926
1470247071804739,-0.0237533,-0.255962,-1.34428
1470247071827774,-0.0140984,-0.266667,-1.38801
1470247071845273,-0.00736908,-0.27961,-1.43358
1470247071865295,0.000839483,-0.292801,-1.47823
1470247071887366,0.0112113,-0.303767,-1.51794
1470247071905332,0.0161321,-0.314013,-1.55294
1470247071924877,0.0155662,-0.325805,-1.58731
1470247071947365,0.0131436,-0.33882,-1.61945
1470247071965453,0.0133053,-0.349397,-1.64717
1470247071984942,0.0143485,-0.357723,-1.67104
1470247072007435,0.0133365,-0.365926,-1.69266
1470247072025434,0.00979786,-0.375179,-1.71226
1470247072044966,0.0076724,-0.384308,-1.72955
1470247072067564,0.00803092,-0.39312,-1.74381
1470247072085489,0.007534,-0.402853,-1.75365
1470247072105089,0.00430862,-0.411338,-1.75727
1470247072127589,0.00111321,-0.417557,-1.75582
1470247072145542,-0.000735428,-0.421299,-1.74879
1470247072165070,-0.0043318,-0.423405,-1.73653
1470247072187580,-0.0130954,-0.423135,-1.7194
1470247072205134,-0.0267519,-0.420364,-1.69692
1470247072225115,-0.0408832,-0.41574,-1.67003
1470247072254641,-0.0549111,-0.409685,-1.63988
1470247072270231,-0.0700768,-0.399624,-1.60494
1470247072285167,-0.0842437,-0.385964,-1.56642
1470247072307688,-0.0982197,-0.370402,-1.52498
1470247072330225,-0.110067,-0.354261,-1.48043
1470247072344721,-0.120756,-0.338115,-1.43302
1470247072367270,-0.131445,-0.321557,-1.38273
1470247072385258,-0.142028,-0.306373,-1.33034
1470247072404856,-0.150505,-0.292526,-1.27758
1470247072427295,-0.156667,-0.279027,-1.22376
1470247072445311,-0.162899,-0.265578,-1.16731
1470247072464845,-0.17109,-0.253148,-1.10792
1470247072487383,-0.183043,-0.243504,-1.04537
1470247072505365,-0.198006,-0.23798,-0.980796
1470247072524896,-0.213356,-0.232249,-0.916729
1470247072547463,-0.221446,-0.224354,-0.850723
1470247072569928,-0.225583,-0.219088,-0.781893
1470247072584972,-0.234863,-0.217848,-0.71187
1470247072607457,-0.252,-0.216463,-0.641415
1470247072625474,-0.27113,-0.213544,-0.569385
1470247072645020,-0.288315,-0.212072,-0.497515
1470247072667524,-0.304683,-0.210532,-0.430626
1470247072685027,-0.317952,-0.205852,-0.36873
1470247072705044,-0.330092,-0.200541,-0.306493
1470247072727565,-0.347461,-0.197466,-0.243939
1470247072745081,-0.368503,-0.193108,-0.185747
1470247072765100,-0.384663,-0.187085,-0.131516
1470247072787619,-0.396033,-0.181101,-0.0776174
1470247072805652,-0.406597,-0.176582,-0.0241892
1470247072825225,-0.417752,-0.173603,0.0263673
1470247072847677,-0.428433,-0.171024,0.071771
1470247072865191,-0.438913,-0.170272,0.112255
1470247072885206,-0.444712,-0.177127,0.147602
1470247072907242,-0.450321,-0.186315,0.177694
1470247072925245,-0.453823,-0.193751,0.200184
1470247072944760,-0.455289,-0.198015,0.21705
1470247072967280,-0.456386,-0.201578,0.228036
1470247072985305,-0.458087,-0.205649,0.234814
1470247073004814,-0.460131,-0.210074,0.236927
1470247073027334,-0.458075,-0.213338,0.232265
1470247073049945,-0.452221,-0.214523,0.222285
1470247073064895,-0.447063,-0.215169,0.207358
1470247073087413,-0.443281,-0.21497,0.187258
1470247073109912,-0.438563,-0.214459,0.160451
1470247073124941,-0.432144,-0.213416,0.126577
1470247073147442,-0.424244,-0.211038,0.0866652
1470247073169963,-0.416282,-0.205529,0.0426795
1470247073186478,-0.4089,-0.199831,-0.00502945
1470247073207532,-0.400488,-0.19422,-0.0574677
1470247073230018,-0.391279,-0.188508,-0.11428
1470247073246531,-0.381946,-0.182975,-0.174
1470247073267576,-0.374074,-0.178076,-0.236165
1470247073290070,-0.366396,-0.172361,-0.301072
1470247073306103,-0.355895,-0.164829,-0.366843
1470247073327603,-0.342146,-0.156376,-0.433846
1470247073357645,-0.327735,-0.147979,-0.502999
1470247073367642,-0.312536,-0.140325,-0.574813
1470247073387662,-0.297754,-0.133228,-0.647567
1470247073410181,-0.285203,-0.126177,-0.719464
1470247073426193,-0.274525,-0.11967,-0.790542
1470247073447712,-0.265114,-0.115278,-0.86269
1470247073472766,-0.253451,-0.112941,-0.935128
1470247073487286,-0.241081,-0.112971,-1.00716
1470247073507316,-0.225859,-0.113504,-1.07737
1470247073529821,-0.207871,-0.116229,-1.14633
1470247073547838,-0.190252,-0.124169,-1.21419
1470247073567355,-0.176831,-0.137236,-1.28278
1470247073592907,-0.164644,-0.15349,-1.34996
1470247073607932,-0.152353,-0.172939,-1.41487
1470247073627435,-0.14036,-0.196994,-1.47994
1470247073650028,-0.125656,-0.224519,-1.54639
1470247073667973,-0.108382,-0.256602,-1.61511
1470247073687476,-0.0894918,-0.291933,-1.68625
1470247073710049,-0.0717265,-0.330014,-1.75672
1470247073727999,-0.0592946,-0.370649,-1.82612
1470247073747557,-0.0481428,-0.412313,-1.89547
1470247073770036,-0.0337757,-0.454055,-1.96622
1470247073794058,-0.0109269,-0.495369,-2.04015
1470247073807570,0.0202591,-0.535167,-2.11692
1470247073837619,0.0563462,-0.575455,-2.19518
1470247073847607,0.0930506,-0.615321,-2.27503
1470247073867624,0.126783,-0.651703,-2.35597
1470247073890144,0.161631,-0.683386,-2.43777
1470247073907689,0.198633,-0.709936,-2.5164
1470247073935188,0.235007,-0.730206,-2.58857
1470247073949698,0.264891,-0.745101,-2.65001
1470247073967714,0.280163,-0.755211,-2.69468
1470247073988734,0.280932,-0.759031,-2.72143
1470247074009762,0.272096,-0.759688,-2.73037
1470247074027768,0.259735,-0.758129,-2.72563
1470247074050289,0.246242,-0.756231,-2.71216
1470247074077312,0.23056,-0.753455,-2.69086
1470247074087822,0.211015,-0.749572,-2.66321
1470247074108842,0.184367,-0.743671,-2.62931
1470247074129875,0.150784,-0.73532,-2.58818
1470247074155382,0.113026,-0.723075,-2.53963
1470247074168895,0.0793943,-0.706322,-2.48703
1470247074189944,0.0448782,-0.686182,-2.42721
1470247074207932,0.00772267,-0.662985,-2.36106
1470247074228949,-0.0298953,-0.636503,-2.28771
1470247074249985,-0.0621846,-0.607555,-2.20909
1470247074275515,-0.0867054,-0.575237,-2.12686
1470247074289003,-0.103003,-0.540007,-2.0422
1470247074310540,-0.114311,-0.503404,-1.95457
1470247074328037,-0.121126,-0.464663,-1.86365
1470247074349056,-0.122643,-0.425043,-1.76871
1470247074370591,-0.123798,-0.382523,-1.66992
1470247074387091,-0.128122,-0.33731,-1.56975
1470247074408148,-0.13609,-0.294025,-1.46776
1470247074430630,-0.141853,-0.254014,-1.36402
1470247074447145,-0.147833,-0.218069,-1.2561
1470247074469665,-0.153267,-0.186484,-1.14596
1470247074490683,-0.160678,-0.160103,-1.03447
1470247074508700,-0.170658,-0.140242,-0.920541
1470247074529219,-0.182511,-0.129031,-0.805188
1470247074550737,-0.19567,-0.123177,-0.68703
1470247074566753,-0.210691,-0.121068,-0.568393
1470247074589273,-0.230095,-0.121599,-0.451139
1470247074610291,-0.251985,-0.125914,-0.336602
1470247074626806,-0.276966,-0.138075,-0.223328
1470247074649326,-0.299706,-0.139864,-0.118923
1470247074670374,-0.311458,-0.140742,-0.0213434
1470247074686861,-0.313609,-0.138408,0.0678787
1470247074709381,-0.313189,-0.139399,0.145998
1470247074730399,-0.31339,-0.141624,0.20913
1470247074746914,-0.316961,-0.14297,0.25814
1470247074776941,-0.325689,-0.143806,0.296349
1470247074790453,-0.33298,-0.15724,0.322423
1470247074806968,-0.340584,-0.172299,0.334945
1470247074829489,-0.34255,-0.185159,0.33481
1470247074850523,-0.338254,-0.194762,0.324511
1470247074867023,-0.32996,-0.20325,0.304795
1470247074889542,-0.322985,-0.211594,0.27693
1470247074910591,-0.318993,-0.22015,0.241007
1470247074927079,-0.313799,-0.222419,0.197391
1470247074949597,-0.305721,-0.223384,0.146951
1470247074970638,-0.297763,-0.223873,0.0902334
1470247074987129,-0.290146,-0.222476,0.02755
1470247075009649,-0.282281,-0.219231,-0.0411736
1470247075030668,-0.275469,-0.214216,-0.115448
1470247075046684,-0.270418,-0.20632,-0.19333
1470247075069705,-0.266587,-0.194943,-0.274471
1470247075090731,-0.262776,-0.181318,-0.359217
1470247075106797,-0.260508,-0.167092,-0.446071
1470247075129758,-0.260256,-0.152416,-0.533754
1470247075150777,-0.261884,-0.138424,-0.619837
1470247075166791,-0.266263,-0.125752,-0.701882
1470247075189314,-0.274008,-0.116062,-0.777822
1470247075210386,-0.280336,-0.109308,-0.845085
1470247075226344,-0.285716,-0.107238,-0.904345
1470247075249865,-0.289398,-0.107977,-0.95652
1470247075270885,-0.291021,-0.110662,-1.0021
1470247075286430,-0.288294,-0.114164,-1.03859
1470247075309420,-0.290049,-0.116319,-1.06479
1470247075330438,-0.293902,-0.119215,-1.08221
1470247075346452,-0.300005,-0.121689,-1.09259
1470247075369475,-0.305044,-0.123267,-1.09753
1470247075390507,-0.308291,-0.124199,-1.09797
1470247075406506,-0.311693,-0.125353,-1.09387
1470247075429527,-0.316019,-0.126906,-1.08593
1470247075452068,-0.320133,-0.128748,-1.0761
1470247075466560,-0.323665,-0.130334,-1.06559
1470247075489581,-0.32784,-0.131787,-1.05483
1470247075512103,-0.332791,-0.133335,-1.04322
1470247075526114,-0.337559,-0.135732,-1.03056
1470247075549634,-0.342871,-0.138956,-1.01794
1470247075572155,-0.347844,-0.141313,-1.00589
1470247075593177,-0.353813,-0.143719,-0.994434
1470247075609693,-0.359019,-0.146789,-0.983162
1470247075631709,-0.362705,-0.150148,-0.972821
1470247075653228,-0.364654,-0.152865,-0.96341
1470247075669243,-0.366037,-0.155089,-0.954488
1470247075691762,-0.367785,-0.158339,-0.946277
1470247075713283,-0.370228,-0.161967,-0.938869
1470247075729296,-0.371537,-0.165689,-0.93214
1470247075751821,-0.371613,-0.170028,-0.926179
1470247075773335,-0.370362,-0.175699,-0.92112
1470247075789350,-0.370035,-0.182787,-0.917315
1470247075811870,-0.371082,-0.190858,-0.914767
1470247075826383,-0.372073,-0.198769,-0.912216
1470247075849403,-0.371725,-0.206065,-0.910665
1470247075871925,-0.370636,-0.212481,-0.909764
1470247075886437,-0.369818,-0.217809,-0.909639
1470247075909458,-0.369768,-0.222684,-0.909411
1470247075931978,-0.370459,-0.225683,-0.909563
1470247075952997,-0.368769,-0.225934,-0.910113
1470247075969511,-0.363971,-0.223008,-0.91033
1470247075992032,-0.356208,-0.21775,-0.910469
1470247076013053,-0.347385,-0.21158,-0.910192
1470247076029566,-0.337835,-0.204,-0.910046
1470247076052085,-0.325519,-0.193812,-0.909236
1470247076073123,-0.310354,-0.181014,-0.907906
1470247076088618,-0.293185,-0.165258,-0.90596
1470247076112139,-0.275298,-0.146875,-0.903919
1470247076133159,-0.255986,-0.125007,-0.901773
1470247076148692,-0.235135,-0.10026,-0.899291
1470247076172194,-0.212745,-0.0723623,-0.897224
1470247076193212,-0.189506,-0.0413288,-0.895236
1470247076208727,-0.16548,-0.00760835,-0.893516
1470247076231758,-0.139989,0.0294068,-0.891985
1470247076253267,-0.112888,0.0685617,-0.890985
1470247076268780,-0.0826523,0.109981,-0.889543
1470247076291802,-0.0505493,0.152344,-0.887072
1470247076312820,-0.0186834,0.195752,-0.885088
1470247076328834,0.0153331,0.240282,-0.883143
1470247076351855,0.0516719,0.285272,-0.880128
1470247076374376,0.0857512,0.330202,-0.87659
1470247076388889,0.115687,0.376759,-0.874426
1470247076413411,0.143352,0.425553,-0.873459
1470247076434429,0.169918,0.475011,-0.873355
1470247076448942,0.195427,0.524817,-0.87278
1470247076471962,0.214494,0.573142,-0.873372
1470247076494484,0.226411,0.619842,-0.875275
1470247076515502,0.234958,0.662107,-0.874589
1470247076532016,0.241207,0.702441,-0.880772
1470247076554537,0.240884,0.735115,-0.890835
1470247076575557,0.237566,0.763123,-0.900979
1470247076592071,0.232933,0.782999,-0.908301
1470247076614591,0.228252,0.796471,-0.911093
1470247076635610,0.219019,0.804292,-0.916379
1470247076652126,0.215407,0.805877,-0.920085
1470247076674644,0.218893,0.805397,-0.918704
1470247076695664,0.226463,0.799251,-0.914166
1470247076712178,0.232277,0.785744,-0.906108
1470247076734200,0.233357,0.762637,-0.895671
1470247076755718,0.23596,0.731697,-0.890728
1470247076771750,0.241546,0.699314,-0.885555
1470247076794256,0.253489,0.666195,-0.874717
1470247076815771,0.254966,0.631137,-0.866147
1470247076831787,0.244772,0.595012,-0.861992
1470247076854309,0.219473,0.553885,-0.861096
1470247076875825,0.195377,0.502934,-0.859844
1470247076891842,0.176374,0.446547,-0.855788
1470247076914362,0.165662,0.397887,-0.850754
1470247076936901,0.164434,0.360088,-0.849239
1470247076951895,0.162484,0.323838,-0.846789
1470247076974416,0.151063,0.287836,-0.841509
1470247076995432,0.131997,0.254712,-0.836647
1470247077011948,0.11001,0.222828,-0.830725
1470247077040473,0.0911453,0.193505,-0.825953
1470247077055988,0.0794643,0.164806,-0.824044
1470247077072004,0.0723122,0.134594,-0.820501
1470247077094522,0.0582516,0.106356,-0.813432
1470247077115568,0.0377919,0.0827239,-0.805247
1470247077131555,0.0177627,0.0562466,-0.797984
1470247077154575,0.00304629,0.0253452,-0.790707
1470247077175616,-0.00345558,-0.00314434,-0.783397
1470247077191109,-0.00765721,-0.026842,-0.773254
1470247077214629,-0.0136929,-0.0476702,-0.760158
1470247077243157,-0.0304253,-0.0691573,-0.744384
1470247077251162,-0.0528471,-0.0899952,-0.726532
1470247077274184,-0.0749084,-0.11002,-0.705812
1470247077295717,-0.0896433,-0.131012,-0.685314
1470247077311216,-0.100539,-0.148723,-0.665217
1470247077334240,-0.11775,-0.159387,-0.642521
1470247077356759,-0.139439,-0.16425,-0.617109
1470247077371278,-0.159335,-0.163132,-0.591652
1470247077394317,-0.186101,-0.156868,-0.56552
1470247077416815,-0.218138,-0.148832,-0.539607
1470247077431326,-0.245332,-0.139904,-0.513925
1470247077454345,-0.263412,-0.131342,-0.484238
1470247077476866,-0.275999,-0.123348,-0.45011
1470247077497887,-0.290957,-0.117085,-0.412351
1470247077514401,-0.305074,-0.113178,-0.371573
1470247077536919,-0.316018,-0.111674,-0.32845
1470247077557938,-0.322704,-0.112498,-0.283315
1470247077575453,-0.328598,-0.115169,-0.235142
1470247077596973,-0.336458,-0.118277,-0.184761
1470247077617994,-0.343885,-0.122674,-0.133977
1470247077634507,-0.348352,-0.127598,-0.0832471
1470247077657027,-0.34775,-0.130532,-0.0320628
1470247077678045,-0.344233,-0.132111,0.0167921
1470247077694560,-0.338687,-0.134677,0.0622844
1470247077717080,-0.338631,-0.138897,0.10598
1470247077738100,-0.34119,-0.142587,0.14786
1470247077754616,-0.343123,-0.144225,0.185793
1470247077777134,-0.34303,-0.148217,0.216809
1470247077798189,-0.341783,-0.15075,0.242493
1470247077814670,-0.342721,-0.153354,0.263569
1470247077836688,-0.346588,-0.157229,0.279948
1470247077858207,-0.3503,-0.161946,0.290369
1470247077874723,-0.352902,-0.165976,0.294429
1470247077896758,-0.353777,-0.169215,0.293127
1470247077918288,-0.354067,-0.172948,0.287982
1470247077934276,-0.355644,-0.178274,0.279014
1470247077957309,-0.357462,-0.183923,0.264384
1470247077978315,-0.358277,-0.188748,0.244974
1470247077994329,-0.357642,-0.192485,0.221203
1470247078016897,-0.357278,-0.195989,0.192811
1470247078038396,-0.359549,-0.199161,0.159684
1470247078054386,-0.362774,-0.19956,0.121543
1470247078076914,-0.363708,-0.195013,0.0776203
1470247078098437,-0.365239,-0.187286,0.0280796
1470247078113937,-0.367581,-0.177062,-0.0262113
1470247078136960,-0.372161,-0.164394,-0.0859417
1470247078159480,-0.377036,-0.148657,-0.152128
1470247078173997,-0.378595,-0.129837,-0.224321
1470247078197018,-0.379894,-0.109911,-0.299532
1470247078218086,-0.383247,-0.0902511,-0.37736
1470247078234045,-0.38901,-0.0722868,-0.456952
1470247078257068,-0.396967,-0.0570237,-0.537495
1470247078279586,-0.404186,-0.0427513,-0.616681
1470247078293599,-0.41122,-0.0311809,-0.69255
1470247078317120,-0.417771,-0.0238199,-0.763205
1470247078339639,-0.422983,-0.0203324,-0.828293
1470247078354152,-0.426193,-0.0199102,-0.887099
1470247078377173,-0.427708,-0.0227233,-0.939034
1470247078399235,-0.427206,-0.0287537,-0.984852
1470247078420778,-0.422777,-0.0373155,-1.02504
1470247078437227,-0.416811,-0.0476257,-1.06133
1470247078459747,-0.414192,-0.0592508,-1.09411
1470247078480766,-0.408813,-0.0705284,-1.12374
1470247078497281,-0.401398,-0.0810916,-1.1495
1470247078519350,-0.397456,-0.0910928,-1.16958
1470247078540820,-0.397405,-0.100408,-1.18429
1470247078557335,-0.400083,-0.110405,-1.19482
1470247078579355,-0.401842,-0.119335,-1.20264
1470247078600878,-0.401028,-0.126329,-1.20829
1470247078616893,-0.39758,-0.131799,-1.21221
1470247078639909,-0.393824,-0.135894,-1.21392
1470247078660483,-0.393023,-0.139737,-1.21403
1470247078676944,-0.393519,-0.142859,-1.21437
1470247078699504,-0.393331,-0.144433,-1.21397
1470247078720527,-0.39208,-0.144314,-1.21223
1470247078736996,-0.389749,-0.142949,-1.2095
1470247078759517,-0.387447,-0.141609,-1.20696
1470247078780536,-0.385343,-0.140241,-1.20489
1470247078797051,-0.382927,-0.138639,-1.20267
1470247078819570,-0.379788,-0.136627,-1.19896
1470247078840624,-0.376038,-0.134309,-1.19434
1470247078857104,-0.372902,-0.132157,-1.18914
1470247078879625,-0.368993,-0.129903,-1.18455
1470247078900671,-0.362851,-0.128096,-1.18051
1470247078916157,-0.355341,-0.126369,-1.17685
1470247078939679,-0.349299,-0.125894,-1.17356
1470247078960710,-0.346597,-0.12751,-1.17095
1470247078977212,-0.345229,-0.129916,-1.16921
1470247078999259,-0.343663,-0.131969,-1.16781
1470247079020751,-0.341736,-0.134872,-1.16733
1470247079037267,-0.339061,-0.138584,-1.16825
1470247079059795,-0.337688,-0.143251,-1.16939
1470247079080807,-0.337237,-0.146999,-1.17042
1470247079096820,-0.336914,-0.150061,-1.17124
1470247079119341,-0.335221,-0.152444,-1.17179
1470247079140881,-0.332426,-0.154673,-1.17234
1470247079156875,-0.328716,-0.155545,-1.17286
1470247079179393,-0.325225,-0.153289,-1.17255
1470247079200417,-0.328611,-0.148527,-1.17141
1470247079216427,-0.362479,-0.142819,-1.17254
1470247079239452,-0.412857,-0.12022,-1.18448
1470247079261970,-0.424949,-0.0621257,-1.1857
1470247079276481,-0.43017,0.00967494,-1.17456
1470247079299502,-0.4184,0.0831627,-1.16295
1470247079322023,-0.384364,0.155235,-1.15586
1470247079343041,-0.33585,0.221736,-1.14258
1470247079359556,-0.270384,0.283322,-1.11912
1470247079382076,-0.226562,0.320693,-1.09631
1470247079403096,-0.207662,0.334838,-1.08123
1470247079419609,-0.206298,0.328073,-1.06866
1470247079442140,-0.210867,0.313043,-1.05643
1470247079463148,-0.211756,0.295993,-1.04775
1470247079479663,-0.206682,0.277297,-1.04395
1470247079501683,-0.199235,0.260068,-1.04356
1470247079523204,-0.193386,0.245276,-1.04322
1470247079539717,-0.194398,0.231662,-1.04343
1470247079569745,-0.20115,0.217434,-1.04536
1470247079583292,-0.210731,0.203213,-1.04915
1470247079590371,-0.220104,0.190417,-1.05363
1470247079604775,-0.228396,0.178898,-1.05843
1470247079627873,-0.236533,0.167291,-1.06275
1470247079649871,-0.244038,0.156437,-1.06661
1470247079664833,-0.250218,0.146023,-1.07048
1470247079687349,-0.254132,0.135976,-1.07508
1470247079709898,-0.256167,0.125849,-1.08112
1470247079732894,-0.256083,0.116418,-1.08672
1470247079747432,-0.254924,0.107409,-1.09127
1470247079769931,-0.252103,0.0995876,-1.09541
1470247079784952,-0.251615,0.0910471,-1.10137
1470247079807474,-0.251874,0.0822721,-1.10915
1470247079829977,-0.249167,0.0752788,-1.11718
1470247079844992,-0.243928,0.0702344,-1.12455
1470247079867540,-0.239022,0.0660239,-1.13328
1470247079890083,-0.229454,0.062466,-1.14692
1470247079908048,-0.202824,0.0527036,-1.16879
1470247079927565,-0.178968,0.0208145,-1.2092
1470247079950151,-0.177507,-0.022526,-1.2787
1470247079965165,-0.200148,-0.0599879,-1.36806
1470247079987656,-0.212759,-0.10082,-1.44173
1470247080011140,-0.223057,-0.142405,-1.49215
1470247080025154,-0.230234,-0.182525,-1.54018
1470247080047673,-0.222146,-0.21771,-1.58853
1470247080070193,-0.188524,-0.244987,-1.62847
1470247080085206,-0.151218,-0.273728,-1.65557
1470247080107727,-0.134826,-0.298968,-1.67709
1470247080129747,-0.133783,-0.323974,-1.69559
1470247080144761,-0.132018,-0.34766,-1.7116
1470247080167280,-0.127777,-0.367314,-1.72534
1470247080190301,-0.124086,-0.382859,-1.73667
1470247080215326,-0.120058,-0.396579,-1.74645
1470247080230338,-0.115689,-0.4099,-1.7551
1470247080249855,-0.111599,-0.423173,-1.76274
1470247080264870,-0.109405,-0.436961,-1.76863
1470247080287389,-0.108804,-0.451163,-1.77374
1470247080309958,-0.109044,-0.462839,-1.77907
1470247080324923,-0.10779,-0.47333,-1.78489
1470247080347495,-0.101551,-0.484173,-1.79044
1470247080381974,-0.0924998,-0.496396,-1.79728
1470247080386478,-0.0869574,-0.510938,-1.80461
1470247080407523,-0.0860926,-0.526885,-1.81245
1470247080430016,-0.0869463,-0.540053,-1.81952
1470247080445031,-0.0884532,-0.549538,-1.82472
1470247080467552,-0.091744,-0.556056,-1.8293
1470247080490071,-0.106564,-0.559246,-1.83187
1470247080505084,-0.131958,-0.556319,-1.83106
1470247080529106,-0.162768,-0.545319,-1.82484
1470247080550134,-0.192613,-0.529503,-1.81427
1470247080565159,-0.220634,-0.510203,-1.79869
1470247080587668,-0.245783,-0.486337,-1.77745
1470247080610178,-0.266912,-0.459787,-1.75079
1470247080625198,-0.280559,-0.430686,-1.71941
1470247080647712,-0.282702,-0.398216,-1.68748
1470247080670349,-0.280711,-0.364823,-1.6544
1470247080684772,-0.281665,-0.331803,-1.61726
1470247080707265,-0.287293,-0.298464,-1.57656
1470247080729800,-0.297435,-0.264798,-1.53348
1470247080745317,-0.310217,-0.229592,-1.48632
1470247080770322,-0.315503,-0.19149,-1.43693
1470247080789852,-0.311012,-0.151732,-1.38408
1470247080806355,-0.297023,-0.108907,-1.32278
1470247080827402,-0.277934,-0.0686226,-1.25024
1470247080850396,-0.261954,-0.0337839,-1.16415
1470247080866408,-0.254043,-0.00682761,-1.0617
1470247080887483,-0.25266,0.00961243,-0.946072
1470247080909950,-0.255549,0.0149431,-0.822679
1470247080929466,-0.263201,0.00849691,-0.694893
1470247080947481,-0.279856,-0.00874356,-0.569605
1470247080970028,-0.304612,-0.0297309,-0.453336
1470247080986515,-0.327887,-0.0501041,-0.345046
1470247081007568,-0.357472,-0.0728012,-0.246115
1470247081030057,-0.393083,-0.0903774,-0.164393
1470247081046570,-0.416985,-0.0964018,-0.101204
1470247081067673,-0.424163,-0.0964716,-0.0528561
1470247081090135,-0.41756,-0.103677,-0.0214987
1470247081108137,-0.410234,-0.112584,-0.00689764
1470247081127643,-0.399136,-0.120696,-0.00774579
1470247081150162,-0.385738,-0.130586,-0.0236944
1470247081167679,-0.366669,-0.137828,-0.0543096
1470247081187697,-0.346743,-0.131761,-0.0980424
1470247081210217,-0.325587,-0.124751,-0.153961
1470247081227769,-0.306539,-0.1155,-0.220603
1470247081247751,-0.286299,-0.104328,-0.294424
1470247081270368,-0.26515,-0.0943083,-0.373965
1470247081287821,-0.251641,-0.0879985,-0.459838
1470247081307890,-0.24388,-0.0813463,-0.549702
1470247081330324,-0.238114,-0.0726628,-0.638156
1470247081347841,-0.234854,-0.0624123,-0.724318
1470247081367358,-0.231753,-0.0506945,-0.809949
1470247081389922,-0.226303,-0.0372272,-0.893608
1470247081407946,-0.22028,-0.0226323,-0.972974
1470247081427469,-0.221114,-0.00922226,-1.0449
1470247081449991,-0.223457,-0.000721686,-1.10926
1470247081468040,-0.222346,0.000343859,-1.16187
1470247081487499,-0.215054,-0.00452115,-1.20209
1470247081510519,-0.210629,-0.0176458,-1.23367
1470247081528043,-0.199016,-0.0335002,-1.25429
1470247081547552,-0.186809,-0.048969,-1.26231
1470247081570042,-0.180908,-0.0602477,-1.25943
1470247081588057,-0.182132,-0.0652593,-1.25048
1470247081607588,-0.189824,-0.0639028,-1.23919
1470247081630093,-0.201947,-0.0581553,-1.22578
1470247081647610,-0.216281,-0.0486354,-1.20793
1470247081667660,-0.232744,-0.036503,-1.18414
1470247081690149,-0.251229,-0.022751,-1.15425
1470247081708164,-0.265349,-0.012001,-1.11821
1470247081728682,-0.27741,-0.000325061,-1.07538
1470247081750202,-0.289057,0.0121033,-1.02729
1470247081767717,-0.30006,0.0260662,-0.974345
1470247081788737,-0.309199,0.0414718,-0.917428
1470247081809755,-0.315149,0.0571186,-0.857847
1470247081828317,-0.317033,0.0728011,-0.796463
1470247081848791,-0.317306,0.088239,-0.734938
1470247081870327,-0.316076,0.104918,-0.674773
1470247081888374,-0.310216,0.125382,-0.620455
1470247081908844,-0.296999,0.151422,-0.57221
1470247081929865,-0.280099,0.182968,-0.528873
1470247081947918,-0.263448,0.220551,-0.491273
1470247081968898,-0.245151,0.263575,-0.457989
1470247081989917,-0.2285,0.308697,-0.427341
1470247082006933,-0.213056,0.353821,-0.400688
1470247082028952,-0.196019,0.397312,-0.378072
1470247082049996,-0.177115,0.437655,-0.357503
1470247082068006,-0.158581,0.473697,-0.337964
1470247082091008,-0.141097,0.496014,-0.319065
1470247082110560,-0.122046,0.511476,-0.299805
1470247082127040,-0.100494,0.517748,-0.280545
1470247082149561,-0.0785813,0.513473,-0.261556
1470247082170633,-0.0581982,0.497587,-0.241436
1470247082194633,-0.0444253,0.468007,-0.220467
1470247082209615,-0.0394569,0.427354,-0.199117
1470247082230633,-0.0440247,0.371911,-0.179198
1470247082247649,-0.0588214,0.302634,-0.161188
1470247082269694,-0.0833555,0.225519,-0.144059
1470247082290732,-0.106366,0.149546,-0.12732
1470247082307202,-0.124208,0.0769512,-0.110093
1470247082329722,-0.137066,0.0146818,-0.0947697
1470247082350784,-0.142348,-0.0324839,-0.0827718
1470247082367256,-0.149019,-0.0702763,-0.0764673
1470247082389276,-0.164464,-0.0955117,-0.0816619
1470247082410796,-0.185475,-0.109459,-0.100734
1470247082433315,-0.205137,-0.11314,-0.132023
1470247082449331,-0.224101,-0.109032,-0.178065
1470247082470849,-0.237147,-0.0988003,-0.239847
1470247082486864,-0.245464,-0.0833366,-0.31177
1470247082510885,-0.255659,-0.0653538,-0.391239
1470247082530903,-0.263294,-0.0441619,-0.478331
1470247082546917,-0.265468,-0.0205301,-0.568441
1470247082569437,-0.264681,0.0034212,-0.65814
1470247082590957,-0.264823,0.0270053,-0.746583
1470247082606971,-0.263258,0.0508084,-0.833009
1470247082629492,-0.260381,0.0733741,-0.912009
1470247082650524,-0.256972,0.0936078,-0.981798
1470247082667025,-0.247412,0.109447,-1.03877
1470247082689545,-0.231147,0.117823,-1.07892
1470247082710595,-0.221511,0.120192,-1.10659
1470247082727080,-0.213305,0.114107,-1.12215
1470247082749601,-0.2085,0.101567,-1.12531
1470247082770673,-0.208803,0.0858979,-1.11818
1470247082787133,-0.211883,0.0689006,-1.10261
1470247082809653,-0.219143,0.0518451,-1.08023
1470247082830707,-0.230321,0.0358909,-1.05241
1470247082846687,-0.247172,0.0207851,-1.01838
1470247082877213,-0.271181,0.0053749,-0.981139
1470247082890725,-0.296985,-0.00639206,-0.941184
1470247082906240,-0.317637,-0.0156151,-0.898115
1470247082929762,-0.335505,-0.0197134,-0.851632
1470247082950836,-0.352435,-0.0188301,-0.80321
1470247082966297,-0.368835,-0.0128612,-0.754931
1470247082989815,-0.382101,-0.0025439,-0.710529
1470247083011881,-0.389569,0.0120589,-0.671889
1470247083033365,-0.391668,0.0322299,-0.638968
1470247083049421,-0.389103,0.0573664,-0.610954
1470247083071889,-0.377946,0.0847694,-0.586013
1470247083086402,-0.3648,0.113867,-0.563739
1470247083109422,-0.351026,0.14002,-0.542631
1470247083131944,-0.336677,0.161446,-0.522412
1470247083153468,-0.323665,0.176657,-0.503917
1470247083169479,-0.311947,0.187417,-0.48711
1470247083191996,-0.299741,0.196185,-0.471141
1470247083213516,-0.287055,0.203122,-0.45551
1470247083229530,-0.273219,0.209517,-0.439226
1470247083252052,-0.258464,0.216506,-0.421895
1470247083273125,-0.243582,0.223173,-0.402695
1470247083289621,-0.23008,0.226797,-0.381991
1470247083312105,-0.217172,0.22674,-0.358908
1470247083333126,-0.205899,0.221695,-0.332526
1470247083349689,-0.198538,0.210118,-0.303294
1470247083372160,-0.193818,0.191516,-0.270925
1470247083393226,-0.192764,0.16474,-0.235308
1470247083409695,-0.19643,0.131672,-0.196775
1470247083432212,-0.199747,0.0984265,-0.156413
1470247083453270,-0.202665,0.0636173,-0.115287
1470247083469745,-0.211889,0.0246516,-0.0731019
1470247083492266,-0.234808,-0.0156735,-0.0349066
1470247083513285,-0.267301,-0.0518418,-0.00719722
1470247083529800,-0.280801,-0.0834986,0.0139051
1470247083551820,-0.282049,-0.104012,0.0320638
1470247083573339,-0.279561,-0.117061,0.0387155
1470247083589854,-0.279592,-0.126903,0.0275148
1470247083611877,-0.280515,-0.132487,0.000942917
1470247083633396,-0.286698,-0.13191,-0.0390293
1470247083649411,-0.292527,-0.130056,-0.0925196
1470247083671930,-0.29847,-0.128105,-0.157195
1470247083693447,-0.302257,-0.124376,-0.229592
1470247083709465,-0.300816,-0.117958,-0.306924
1470247083732014,-0.292382,-0.109298,-0.387472
1470247083753000,-0.279277,-0.0997489,-0.467763
1470247083769015,-0.267749,-0.0901788,-0.544919
1470247083792035,-0.256584,-0.0792198,-0.618942
1470247083820614,-0.239315,-0.0669725,-0.686464
1470247083829105,-0.219531,-0.0551078,-0.74819
1470247083852089,-0.197944,-0.0431274,-0.804313
1470247083873135,-0.17598,-0.0330691,-0.854553
1470247083889122,-0.1541,-0.0257412,-0.899679
1470247083912168,-0.131813,-0.0205055,-0.939503
1470247083933164,-0.119659,-0.0141884,-0.974201
1470247083948676,-0.112344,-0.00956106,-1.00386
1470247083979704,-0.109832,-0.00621435,-1.02834
1470247083994717,-0.108723,-0.00270009,-1.0472
1470247084008732,-0.10978,0.00206266,-1.06009
1470247084032252,-0.113583,0.00737048,-1.06731
1470247084054771,-0.120368,0.0125625,-1.0679
1470247084068810,-0.132003,0.0168807,-1.06164
1470247084092305,-0.145833,0.0198561,-1.04866
1470247084114345,-0.159524,0.0204427,-1.02958
1470247084135891,-0.174003,0.0183296,-1.00387
1470247084151900,-0.190984,0.0140138,-0.969329
1470247084174400,-0.205511,0.00435662,-0.925478
1470247084195897,-0.215847,-0.00741686,-0.872558
1470247084211912,-0.223749,-0.0229402,-0.812263
1470247084234439,-0.232883,-0.0409998,-0.745037
1470247084255951,-0.23894,-0.0577926,-0.670082
1470247084271985,-0.242516,-0.07319,-0.587578
1470247084294533,-0.248595,-0.0842484,-0.502079
1470247084315518,-0.256342,-0.0910916,-0.417708
1470247084332020,-0.260042,-0.0952549,-0.333972
1470247084354540,-0.263212,-0.0970342,-0.249853
1470247084376082,-0.270501,-0.0953104,-0.168438
1470247084392076,-0.275564,-0.0900811,-0.0942551
1470247084415094,-0.275625,-0.0830521,-0.0246153
1470247084435658,-0.276166,-0.0756884,0.0427133
1470247084452168,-0.279871,-0.0695516,0.108394
1470247084474648,-0.282132,-0.0655547,0.169849
1470247084495701,-0.279299,-0.060524,0.222513
1470247084512184,-0.272477,-0.053666,0.266293
1470247084534702,-0.267928,-0.0475635,0.304067
1470247084563228,-0.271698,-0.0524424,0.335487
1470247084571240,-0.278446,-0.0584133,0.358085
1470247084594755,-0.278911,-0.0631675,0.370575
1470247084615775,-0.274979,-0.0670711,0.374047
1470247084632290,-0.27013,-0.070323,0.368458
1470247084654327,-0.267128,-0.0735539,0.35434
1470247084675911,-0.266496,-0.0768941,0.330029
1470247084692343,-0.265955,-0.0793709,0.293685
1470247084714863,-0.267439,-0.0737884,0.245763
1470247084735884,-0.268161,-0.0666881,0.186702
1470247084751396,-0.271345,-0.0579884,0.116677
1470247084774422,-0.275768,-0.0465122,0.0370279
1470247084795953,-0.28334,-0.0325925,-0.049493
1470247084819457,-0.290389,-0.0164225,-0.140829
1470247084834471,-0.296146,0.00153056,-0.23527
1470247084855491,-0.299477,0.0202635,-0.329691
1470247084871505,-0.301273,0.0369664,-0.422298
1470247084895051,-0.300348,0.051548,-0.511682
1470247084917045,-0.297975,0.0632684,-0.59634
1470247084931558,-0.293199,0.0728284,-0.674163
1470247084954581,-0.287422,0.0788605,-0.745306
1470247084977101,-0.279444,0.0819594,-0.810727
1470247084991612,-0.269331,0.0824032,-0.870422
1470247085014635,-0.25826,0.0803133,-0.92446
1470247085051166,-0.248313,0.0746739,-0.9751
1470247085058172,-0.238291,0.0662005,-1.02126
1470247085074689,-0.231483,0.0549929,-1.06252
1470247085097206,-0.227887,0.0424363,-1.09877
1470247085118256,-0.23214,0.0321371,-1.13053
1470247085134740,-0.236337,0.0227617,-1.15688
1470247085157262,-0.240702,0.0146269,-1.17715
1470247085178335,-0.247061,0.00800343,-1.19064
1470247085194296,-0.255168,0.00373964,-1.19735
1470247085217315,-0.263627,0.00219926,-1.19704
1470247085238386,-0.273414,0.00241526,-1.19022
1470247085254848,-0.284445,0.00360013,-1.17765
1470247085277368,-0.293797,0.00683927,-1.15938
1470247085298387,-0.302526,0.0129405,-1.13565
1470247085314902,-0.31064,0.0204784,-1.10681
1470247085336922,-0.318376,0.0286014,-1.07274
1470247085358442,-0.322396,0.0348574,-1.03441
1470247085374538,-0.32663,0.0405804,-0.991089
1470247085397058,-0.331255,0.0449355,-0.942979
1470247085418121,-0.335808,0.0472521,-0.889283
1470247085434594,-0.339142,0.0471124,-0.830298
1470247085457117,-0.339991,0.0444266,-0.766527
1470247085485638,-0.338379,0.0396217,-0.697313
1470247085494646,-0.338251,0.0312741,-0.621799
1470247085517166,-0.343048,0.0194284,-0.540674
1470247085539687,-0.350797,0.00449516,-0.455589
1470247085554725,-0.358516,-0.0107963,-0.367353
1470247085583225,-0.362405,-0.0259737,-0.276787
1470247085598295,-0.366843,-0.0417064,-0.18466
1470247085614753,-0.376959,-0.0535758,-0.0968625
1470247085637274,-0.387712,-0.0598613,-0.0133852
1470247085658358,-0.395966,-0.0637824,0.0671156
1470247085673806,-0.405101,-0.0654503,0.141081
1470247085697328,-0.413227,-0.0618252,0.203284
1470247085718346,-0.41775,-0.0554718,0.255147
1470247085733863,-0.421959,-0.0480201,0.29823
1470247085757382,-0.428309,-0.041962,0.334042
1470247085778401,-0.4351,-0.0487221,0.360942
1470247085793916,-0.430174,-0.0577835,0.366073
1470247085816939,-0.430617,-0.0632516,0.359216
1470247085845961,-0.447301,-0.0747301,0.350001
1470247085860975,-0.452739,-0.0851976,0.333848
1470247085876989,-0.452413,-0.0925531,0.314259
1470247085899511,-0.460293,-0.0985714,0.290508
1470247085914023,-0.462328,-0.106289,0.260025
1470247085937043,-0.460511,-0.114415,0.223689
1470247085959565,-0.46625,-0.120477,0.184133
1470247085974077,-0.477045,-0.127757,0.141042
1470247085997097,-0.484287,-0.134984,0.0941329
1470247086019617,-0.48689,-0.142744,0.0448427
1470247086040681,-0.489626,-0.152111,-0.00545613
1470247086057151,-0.495291,-0.163932,-0.0549947
1470247086081173,-0.500235,-0.177704,-0.101938
1470247086100742,-0.504998,-0.194507,-0.145622
1470247086117205,-0.507892,-0.214025,-0.185739
1470247086139725,-0.509417,-0.235787,-0.220753
1470247086160815,-0.510396,-0.260144,-0.250895
1470247086177262,-0.513445,-0.282627,-0.27425
1470247086199779,-0.516626,-0.304615,-0.290156
1470247086220889,-0.518874,-0.324555,-0.298189
1470247086237312,-0.523573,-0.345679,-0.298206
1470247086259833,-0.526129,-0.364792,-0.291351
1470247086288383,-0.535521,-0.379529,-0.280516
1470247086297366,-0.54449,-0.388586,-0.268844
1470247086319887,-0.549096,-0.393678,-0.255113
1470247086340991,-0.554436,-0.39497,-0.239699
1470247086356984,-0.560834,-0.39143,-0.224603
1470247086379505,-0.563545,-0.382276,-0.214439
1470247086401024,-0.558958,-0.366785,-0.210587
1470247086417043,-0.549268,-0.34423,-0.213101
1470247086439561,-0.536714,-0.315921,-0.220912
1470247086460624,-0.522655,-0.283799,-0.232623
1470247086477091,-0.505453,-0.246547,-0.246963
1470247086499612,-0.490122,-0.209729,-0.261071
1470247086520686,-0.472034,-0.169691,-0.2765
1470247086537145,-0.450759,-0.125804,-0.290163
1470247086559669,-0.43154,-0.0788856,-0.299554
1470247086580688,-0.414732,-0.0256488,-0.305483
1470247086596699,-0.389372,0.0384069,-0.305973
1470247086619719,-0.357776,0.106457,-0.300553
1470247086640769,-0.330987,0.175852,-0.292695
1470247086656252,-0.307533,0.243835,-0.282335
1470247086679773,-0.283573,0.308186,-0.269244
1470247086700813,-0.258232,0.369103,-0.254884
1470247086716308,-0.232736,0.425142,-0.239515
1470247086739827,-0.208202,0.475117,-0.222864
1470247086760882,-0.184439,0.517983,-0.205603
1470247086776385,-0.165224,0.547601,-0.190863
1470247086799881,-0.150559,0.56747,-0.17832
1470247086821902,-0.145594,0.574673,-0.169372
1470247086844422,-0.150316,0.568402,-0.163012
1470247086859483,-0.164749,0.548476,-0.158316
1470247086881957,-0.1862,0.518091,-0.154256
1470247086903474,-0.209486,0.479016,-0.150904
1470247086919489,-0.229327,0.435963,-0.145783
1470247086949543,-0.250937,0.384994,-0.138789
1470247086963029,-0.273959,0.327785,-0.129019
1470247086980043,-0.299904,0.266987,-0.11843
1470247087002063,-0.327921,0.205498,-0.107882
1470247087023134,-0.357968,0.14186,-0.0967276
1470247087039597,-0.392196,0.079202,-0.0848796
1470247087062117,-0.43004,0.023818,-0.0746916
1470247087083188,-0.467842,-0.0250538,-0.0650739
1470247087099672,-0.503264,-0.0687001,-0.0577631
1470247087122173,-0.538219,-0.106547,-0.0513803
1470247087143238,-0.574017,-0.13894,-0.046461
1470247087159705,-0.597688,-0.164235,-0.0461919
1470247087182226,-0.610067,-0.18465,-0.0499379
1470247087204745,-0.611208,-0.198261,-0.0578018
1470247087219758,-0.612042,-0.207217,-0.0671705
1470247087248286,-0.608788,-0.211878,-0.0796897
1470247087263311,-0.598402,-0.211664,-0.0957968
1470247087279815,-0.580862,-0.206101,-0.114976
1470247087302332,-0.560674,-0.196241,-0.136553
1470247087330902,-0.544074,-0.184334,-0.158891
1470247087339866,-0.529089,-0.169328,-0.181014
1470247087362387,-0.514727,-0.152855,-0.202162
1470247087367392,-0.503527,-0.135542,-0.221439
1470247087390454,-0.493768,-0.116222,-0.23586
1470247087404939,-0.485509,-0.0966414,-0.243359
1470247087427478,-0.482175,-0.0787091,-0.243293
1470247087449965,-0.484298,-0.0634717,-0.235937
1470247087464979,-0.49017,-0.0514762,-0.221647
1470247087487499,-0.498174,-0.0415312,-0.199448
1470247087510019,-0.50767,-0.0326768,-0.169467
1470247087525055,-0.512647,-0.0257982,-0.131536
1470247087547555,-0.520852,-0.0212919,-0.0869603
1470247087570075,-0.52965,-0.0176916,-0.0363125
1470247087585087,-0.535332,-0.0142759,0.0194845
1470247087607634,-0.53906,-0.0106395,0.0784371
1470247087630129,-0.543963,-0.00752192,0.136787
1470247087646642,-0.548919,-0.00487194,0.189337
1470247087669163,-0.552999,-0.00215913,0.234872
1470247087690189,-0.555037,0.000838339,0.272862
1470247087705194,-0.553913,-0.00376815,0.303241
1470247087727714,-0.548069,-0.0104103,0.320245
1470247087750234,-0.545329,-0.0147577,0.323245
1470247087765248,-0.543514,-0.0169537,0.315942
1470247087787787,-0.539067,-0.018589,0.301813
1470247087810319,-0.535274,-0.0205629,0.284005
1470247087825302,-0.530634,-0.0250865,0.25974
1470247087847823,-0.521632,-0.0302276,0.227859
1470247087869842,-0.510014,-0.0348934,0.188367
1470247087884858,-0.499209,-0.0338876,0.143299
1470247087907376,-0.492659,-0.0330706,0.0934404
1470247087929897,-0.4884,-0.0325458,0.0390627
1470247087946412,-0.482839,-0.0318778,-0.0196854
1470247087967930,-0.474959,-0.0313645,-0.0812398
1470247087989951,-0.468238,-0.0320716,-0.14373
1470247088004964,-0.463109,-0.0346779,-0.205717
1470247088027485,-0.460111,-0.0392969,-0.26615
1470247088050004,-0.4556,-0.0453327,-0.324199
1470247088065020,-0.44968,-0.0536819,-0.378517
1470247088087537,-0.444432,-0.0650614,-0.428273
1470247088110059,-0.44033,-0.0796716,-0.473159
1470247088125101,-0.437573,-0.0977518,-0.511735
1470247088147593,-0.436323,-0.119351,-0.543931
1470247088170117,-0.442228,-0.141333,-0.56861
1470247088185153,-0.451627,-0.164464,-0.585345
1470247088207680,-0.466952,-0.191044,-0.59371
1470247088230166,-0.48249,-0.217628,-0.592279
1470247088245210,-0.497717,-0.238618,-0.583373
1470247088267732,-0.509649,-0.253169,-0.570851
1470247088290251,-0.518962,-0.261814,-0.555972
1470247088305233,-0.530431,-0.26713,-0.536123
1470247088327753,-0.545638,-0.269747,-0.513567
1470247088350273,-0.557425,-0.268612,-0.489903
1470247088366321,-0.5615,-0.262537,-0.466278
1470247088387896,-0.558804,-0.250669,-0.443306
1470247088410469,-0.554028,-0.233028,-0.42086
1470247088426345,-0.548984,-0.21144,-0.40026
1470247088447361,-0.541639,-0.185673,-0.383037
1470247088470390,-0.528956,-0.15487,-0.368176
1470247088487396,-0.512768,-0.119195,-0.355382
1470247088507417,-0.495232,-0.0792183,-0.343969
1470247088529935,-0.476155,-0.0329201,-0.335151
1470247088546950,-0.453363,0.0173177,-0.32826
1470247088567470,-0.431347,0.0707472,-0.324064
1470247088590024,-0.409634,0.127023,-0.322551
1470247088606507,-0.388612,0.184492,-0.322957
1470247088627586,-0.369351,0.242116,-0.324617
1470247088650045,-0.352893,0.29782,-0.326812
1470247088666559,-0.336961,0.351274,-0.328643
1470247088687604,-0.320524,0.401432,-0.329219
1470247088710146,-0.30484,0.447109,-0.329014
1470247088728211,-0.289288,0.487064,-0.327471
1470247088747652,-0.276936,0.514515,-0.326006
1470247088770152,-0.265858,0.535216,-0.324074
1470247088788185,-0.256894,0.547685,-0.322831
1470247088815194,-0.252157,0.551677,-0.322868
1470247088830216,-0.25188,0.546626,-0.322687
1470247088848221,-0.255851,0.53231,-0.321276
1470247088867744,-0.265736,0.50782,-0.318709
1470247088890264,-0.281216,0.473482,-0.31632
1470247088908274,-0.296521,0.431573,-0.313228
1470247088927805,-0.317302,0.381667,-0.310738
1470247088950318,-0.341449,0.326614,-0.306928
1470247088967828,-0.367683,0.267685,-0.301456
1470247088987359,-0.393103,0.206594,-0.294544
1470247089010367,-0.418893,0.146797,-0.287571
1470247089027882,-0.442981,0.0901897,-0.281577
1470247089047418,-0.463553,0.0373344,-0.276306
1470247089070019,-0.483031,-0.00969543,-0.272029
1470247089088474,-0.503314,-0.0491397,-0.269189
1470247089107513,-0.520573,-0.081959,-0.26843
1470247089129974,-0.532682,-0.107388,-0.268631
1470247089147990,-0.542036,-0.125835,-0.268364
1470247089167563,-0.549932,-0.1394,-0.269073
1470247089190044,-0.552112,-0.148742,-0.271857
1470247089208044,-0.547781,-0.153524,-0.276116
1470247089227563,-0.545037,-0.154725,-0.280013
1470247089250112,-0.541259,-0.152428,-0.285279
1470247089268127,-0.531688,-0.145935,-0.291843
1470247089287670,-0.519682,-0.134773,-0.299342
1470247089310178,-0.50746,-0.119486,-0.307995
1470247089328206,-0.496427,-0.101645,-0.317576
1470247089349170,-0.486328,-0.0819481,-0.328064
1470247089370239,-0.477666,-0.0605956,-0.339397
1470247089388283,-0.468927,-0.0380077,-0.351371
1470247089409224,-0.460969,-0.0143389,-0.36343
1470247089430243,-0.454823,0.00958229,-0.374619
1470247089448260,-0.451302,0.032653,-0.38438
1470247089468778,-0.450064,0.0541914,-0.392512
1470247089490296,-0.450665,0.0732879,-0.398696
1470247089507813,-0.452526,0.0891204,-0.401987
1470247089528834,-0.45722,0.0999942,-0.40146
1470247089550420,-0.464288,0.105398,-0.396581
1470247089568455,-0.473918,0.104249,-0.386526
1470247089588885,-0.48502,0.0974373,-0.370407
1470247089609910,-0.497965,0.0850064,-0.348051
1470247089627920,-0.510766,0.0679489,-0.3197
1470247089648940,-0.52326,0.0469987,-0.285061
1470247089669987,-0.534507,0.0241488,-0.244488
1470247089687976,-0.547627,-0.00100524,-0.200257
1470247089709995,-0.561477,-0.0271543,-0.15485
1470247089730012,-0.575594,-0.0534661,-0.111603
1470247089748028,-0.589097,-0.0757646,-0.075075
1470247089770553,-0.599182,-0.0963028,-0.0460888
1470247089790566,-0.608557,-0.113239,-0.0259161
1470247089808108,-0.616096,-0.125824,-0.0167706
1470247089830603,-0.621498,-0.132794,-0.0199915
1470247089851622,-0.624856,-0.134524,-0.0345294
1470247089867135,-0.627939,-0.133268,-0.0586939
1470247089889661,-0.627615,-0.1299,-0.0917359
1470247089911176,-0.622453,-0.124343,-0.133062
1470247089927231,-0.61399,-0.114285,-0.182823
1470247089949709,-0.599116,-0.102616,-0.240419
1470247089970784,-0.58019,-0.0893372,-0.302759
1470247089987243,-0.561796,-0.0755329,-0.367508
1470247090009764,-0.546017,-0.0621054,-0.432014
1470247090030783,-0.530481,-0.0504754,-0.496405
1470247090047302,-0.513182,-0.0400495,-0.560031
1470247090069818,-0.496462,-0.0303007,-0.621122
1470247090090906,-0.486386,-0.0235823,-0.677908
1470247090107350,-0.47511,-0.0168084,-0.727167
1470247090129871,-0.46448,-0.0122706,-0.766301
1470247090150946,-0.455452,-0.0116297,-0.797102
1470247090167404,-0.45453,-0.019043,-0.821645
1470247090189925,-0.453729,-0.0318614,-0.840346
1470247090210994,-0.448687,-0.0454056,-0.852221
1470247090226963,-0.438907,-0.0557504,-0.857502
1470247090249979,-0.430587,-0.0630073,-0.858184
1470247090270999,-0.423954,-0.0683549,-0.85486
1470247090287013,-0.42043,-0.0748798,-0.847412
1470247090310033,-0.412906,-0.0841332,-0.839725
1470247090331053,-0.403918,-0.0934235,-0.834382
1470247090347067,-0.400537,-0.101602,-0.83218
1470247090369588,-0.400475,-0.107992,-0.831166
1470247090391107,-0.40116,-0.112316,-0.829726
1470247090406212,-0.404958,-0.115713,-0.827052
1470247090430072,-0.410661,-0.119234,-0.825361
1470247090451202,-0.41581,-0.123228,-0.825073
1470247090467120,-0.416651,-0.124499,-0.825413
1470247090489625,-0.412405,-0.121526,-0.824854
1470247090510675,-0.402248,-0.115376,-0.823202
1470247090526659,-0.393492,-0.109429,-0.820699
1470247090549679,-0.393249,-0.104288,-0.8175
1470247090571198,-0.396694,-0.10041,-0.814493
1470247090586712,-0.395422,-0.0970558,-0.811653
1470247090609733,-0.390012,-0.0951121,-0.809194
1470247090632255,-0.386448,-0.0959806,-0.807277
1470247090647267,-0.386645,-0.0989339,-0.805025
1470247090669787,-0.387117,-0.101922,-0.803566
1470247090692307,-0.385307,-0.104272,-0.803097
1470247090707320,-0.38284,-0.106592,-0.803153
1470247090729842,-0.38146,-0.109242,-0.803192
1470247090758385,-0.379343,-0.110829,-0.804241
1470247090766374,-0.375661,-0.109622,-0.805428
1470247090789897,-0.372469,-0.107899,-0.806968
1470247090811919,-0.369528,-0.106316,-0.808804
1470247090826438,-0.36505,-0.104151,-0.810401
1470247090849949,-0.359358,-0.101307,-0.811914
1470247090872001,-0.353588,-0.0980504,-0.813627
1470247090886482,-0.349064,-0.0953921,-0.815014
1470247090910003,-0.346202,-0.0932217,-0.815796
1470247090932523,-0.344122,-0.09148,-0.816426
1470247090946536,-0.340965,-0.0900302,-0.816843
1470247090969556,-0.337646,-0.0889141,-0.817169
1470247090992076,-0.334859,-0.0881968,-0.817749
1470247091006590,-0.332854,-0.087533,-0.818199
1470247091030111,-0.33143,-0.0870509,-0.818221
1470247091052131,-0.329553,-0.0863499,-0.81812
1470247091066643,-0.327003,-0.0857073,-0.818559
1470247091089664,-0.324927,-0.0852394,-0.819513
1470247091112184,-0.3246,-0.0850895,-0.820193
1470247091133721,-0.32501,-0.0851463,-0.821018
1470247091150218,-0.324617,-0.084857,-0.821861
1470247091172239,-0.323541,-0.08429,-0.822871
1470247091193292,-0.322754,-0.084003,-0.823984
1470247091209771,-0.322252,-0.0839763,-0.825052
1470247091232293,-0.322168,-0.0842364,-0.825964
1470247091253337,-0.321862,-0.0843547,-0.826611
1470247091269827,-0.320952,-0.0842903,-0.827001
1470247091292346,-0.319049,-0.0843381,-0.827484
1470247091313365,-0.317212,-0.0845252,-0.827806
1470247091329879,-0.31671,-0.0850829,-0.828382
1470247091351899,-0.316489,-0.0856092,-0.828834
1470247091373420,-0.31644,-0.0857195,-0.828816
1470247091389934,-0.315554,-0.0855487,-0.828538
1470247091412453,-0.314417,-0.0853446,-0.828011
1470247091433473,-0.313037,-0.085693,-0.827396
1470247091449988,-0.312923,-0.0862523,-0.827049
1470247091472012,-0.312367,-0.0866073,-0.827382
1470247091493526,-0.31218,-0.0867912,-0.828181
1470247091510041,-0.312573,-0.0868671,-0.82912
1470247091532063,-0.313888,-0.0864575,-0.831109
1470247091553652,-0.317409,-0.086541,-0.832533
1470247091569595,-0.321642,-0.0874321,-0.832922
1470247091592115,-0.322943,-0.087288,-0.833392
1470247091614635,-0.321229,-0.0866591,-0.834936
1470247091629648,-0.324361,-0.0888291,-0.83538
1470247091652169,-0.330289,-0.0920327,-0.83469
1470247091674691,-0.333428,-0.0943855,-0.833191
1470247091689702,-0.330611,-0.0958449,-0.832646
1470247091712223,-0.324762,-0.0967636,-0.832749
1470247091734745,-0.320659,-0.097155,-0.832487
1470247091748757,-0.320129,-0.0974239,-0.832298
1470247091772277,-0.321939,-0.0976007,-0.831767
1470247091794798,-0.321988,-0.0974905,-0.831784
1470247091809310,-0.321265,-0.0966695,-0.832021
1470247091832332,-0.320151,-0.0948861,-0.832386
1470247091854851,-0.318875,-0.0941447,-0.83368
1470247091868864,-0.321794,-0.0943661,-0.834416
1470247091892385,-0.324838,-0.0945349,-0.834452
1470247091914905,-0.326191,-0.0936111,-0.834219
1470247091928918,-0.325415,-0.092859,-0.834143
1470247091951938,-0.323102,-0.0922751,-0.834448
1470247091974958,-0.321289,-0.0917828,-0.834746
1470247091988973,-0.320555,-0.0915911,-0.83475
1470247092012494,-0.319923,-0.0911992,-0.834938
1470247092034512,-0.319874,-0.0913094,-0.83492
1470247092049211,-0.319735,-0.0909694,-0.834804
1470247092072232,-0.318852,-0.0908152,-0.834674
1470247092094753,-0.317406,-0.0904293,-0.834716
1470247092115770,-0.316126,-0.0899409,-0.835139
1470247092132286,-0.316029,-0.089573,-0.835597
1470247092154807,-0.316146,-0.0896228,-0.835599
1470247092175853,-0.315846,-0.0893829,-0.835759
1470247092192340,-0.314968,-0.0889331,-0.836205
1470247092214860,-0.314588,-0.0885753,-0.836642
1470247092235878,-0.315006,-0.0882769,-0.836978
1470247092252397,-0.316003,-0.0881887,-0.837029
1470247092274913,-0.316003,-0.0881887,-0.837029
1470247092295933,-0.316003,-0.0881887,-0.837029
1470247092312446,-0.316421,-0.0878906,-0.837366
1470247092334967,-0.316802,-0.0873255,-0.837703
1470247092355987,-0.317801,-0.0869233,-0.838183
1470247092372500,-0.319152,-0.0866715,-0.838671
1470247092394546,-0.320223,-0.0864505,-0.839285
1470247092416053,-0.321345,-0.0864134,-0.839999
1470247092432055,-0.322955,-0.0862411,-0.841037
1470247092454575,-0.325225,-0.0860643,-0.841796
1470247092475595,-0.327127,-0.0858016,-0.842302
1470247092492108,-0.327915,-0.0853011,-0.842819
1470247092514629,-0.327975,-0.0849202,-0.843565
1470247092537149,-0.328317,-0.0848034,-0.844266
1470247092552163,-0.329393,-0.0848824,-0.844967
1470247092574682,-0.330317,-0.0849977,-0.845533
1470247092597203,-0.330727,-0.0850423,-0.846218
1470247092612216,-0.331185,-0.0852509,-0.846854
1470247092634736,-0.332466,-0.0858335,-0.847655
1470247092657257,-0.33367,-0.086195,-0.848028
1470247092671271,-0.334327,-0.0862974,-0.848456
1470247092694790,-0.334327,-0.0862974,-0.848456
1470247092717312,-0.333802,-0.0862915,-0.848987
1470247092731824,-0.334025,-0.0867316,-0.849334
1470247092754845,-0.334226,-0.0872121,-0.849284
1470247092777367,-0.33429,-0.0876456,-0.849198
1470247092791877,-0.334428,-0.0882809,-0.849392
1470247092814403,-0.33468,-0.0886518,-0.849361
1470247092837450,-0.334797,-0.0887024,-0.849364
1470247092851935,-0.334777,-0.0887059,-0.84933
1470247092874951,-0.334067,-0.0888199,-0.849592
1470247092897474,-0.333492,-0.0889233,-0.850105
1470247092911493,-0.334893,-0.0894523,-0.8502
1470247092935008,-0.33501,-0.0895029,-0.850202
1470247092957025,-0.333413,-0.0897272,-0.85026
1470247092971539,-0.333592,-0.0911098,-0.849903
1470247092994559,-0.334825,-0.0929272,-0.849418
1470247093017081,-0.334616,-0.0942387,-0.848261
1470247093038158,-0.332644,-0.0949378,-0.84742
1470247093054613,-0.331422,-0.0954792,-0.846748
1470247093077134,-0.331736,-0.0959689,-0.846404
1470247093098152,-0.333102,-0.096871,-0.845781
1470247093114667,-0.335382,-0.0975323,-0.845196
1470247093137187,-0.336963,-0.0979324,-0.844895
1470247093158234,-0.336963,-0.0979324,-0.844895
1470247093174721,-0.337149,-0.098143,-0.844881
1470247093197241,-0.338783,-0.0981446,-0.845179
1470247093218295,-0.341806,-0.0981308,-0.845676
1470247093234775,-0.344394,-0.0978675,-0.845937
1470247093257296,-0.344739,-0.097373,-0.846002
1470247093278314,-0.344319,-0.0964939,-0.846003
1470247093294829,-0.344282,-0.0956599,-0.845997
1470247093317349,-0.345595,-0.0951468,-0.84584
1470247093338372,-0.347129,-0.0944864,-0.845874
1470247093354883,-0.347257,-0.0938664,-0.845821
1470247093377403,-0.346773,-0.0931436,-0.846067
1470247093398456,-0.346938,-0.0924608,-0.846297
1470247093421006,-0.347505,-0.0918198,-0.846555
1470247093437457,-0.348456,-0.0912244,-0.846807
1470247093458476,-0.348642,-0.0905383,-0.847072
1470247093474492,-0.348257,-0.0898696,-0.847287
1470247093497511,-0.347824,-0.089037,-0.847553
1470247093519531,-0.347011,-0.0884534,-0.847903
1470247093534544,-0.346383,-0.0877516,-0.848524
1470247093557064,-0.346359,-0.0869483,-0.84933
1470247093579585,-0.346236,-0.0863639,-0.850097
1470247093594098,-0.34626,-0.0854299,-0.850776
1470247093617118,-0.345924,-0.0847402,-0.851571
1470247093639639,-0.345451,-0.0840038,-0.85233
1470247093654152,-0.345049,-0.0831536,-0.853143
1470247093677173,-0.345198,-0.0825862,-0.854051
1470247093699693,-0.345735,-0.0820874,-0.855104
1470247093714206,-0.346456,-0.0815052,-0.856065
1470247093737227,-0.347291,-0.0812484,-0.856959
1470247093759746,-0.348692,-0.0812512,-0.857835
1470247093774260,-0.350211,-0.0816016,-0.858791
1470247093797280,-0.352519,-0.082658,-0.860076
1470247093819801,-0.355163,-0.0838973,-0.861486
1470247093834313,-0.358336,-0.0851664,-0.862517
1470247093857336,-0.361168,-0.0859187,-0.863051
1470247093879854,-0.362679,-0.0862645,-0.863347
1470247093893866,-0.363218,-0.0863051,-0.863633
1470247093917388,-0.363767,-0.0859785,-0.863429
1470247093939908,-0.364682,-0.0857563,-0.862972
1470247093953923,-0.36558,-0.0855607,-0.86263
1470247093977442,-0.365972,-0.085242,-0.86214
1470247093999965,-0.366415,-0.0848143,-0.861671
1470247094020982,-0.366774,-0.0842811,-0.86097
1470247094037009,-0.367162,-0.0836434,-0.860258
1470247094059519,-0.36705,-0.0826097,-0.85947
1470247094081035,-0.366482,-0.0813453,-0.858556
1470247094097550,-0.366195,-0.0800519,-0.857522
1470247094119596,-0.366026,-0.0788097,-0.856493
1470247094141097,-0.366407,-0.0778534,-0.855562
1470247094157109,-0.366962,-0.0768606,-0.854805
1470247094179624,-0.367719,-0.0757271,-0.854213
1470247094200644,-0.368809,-0.0744539,-0.853527
1470247094217157,-0.369746,-0.0735073,-0.852775
1470247094239677,-0.370564,-0.0725097,-0.852021
1470247094260738,-0.371219,-0.0715927,-0.851391
1470247094277211,-0.371894,-0.0709664,-0.850867
1470247094299731,-0.372948,-0.0703644,-0.850197
1470247094320767,-0.373709,-0.0698434,-0.849907
1470247094337265,-0.374301,-0.0690845,-0.84952
1470247094359785,-0.375078,-0.068535,-0.849117
1470247094380805,-0.375788,-0.0678259,-0.848735
1470247094397320,-0.37655,-0.0673041,-0.848449
1470247094419840,-0.37752,-0.0663681,-0.848405
1470247094442359,-0.37869,-0.0655666,-0.848451
1470247094457373,-0.379662,-0.0649275,-0.848481
1470247094479893,-0.38046,-0.0644214,-0.848893
1470247094502414,-0.381207,-0.0640248,-0.849281
1470247094517426,-0.381971,-0.0638968,-0.849626
1470247094539947,-0.382679,-0.0638553,-0.8498
1470247094562468,-0.383217,-0.0638728,-0.849945
1470247094583489,-0.383065,-0.064,-0.850359
1470247094600001,-0.382783,-0.0643286,-0.850544
1470247094622021,-0.382738,-0.0647575,-0.850737
1470247094645043,-0.382124,-0.0649292,-0.850944
1470247094659556,-0.381576,-0.064963,-0.85106
1470247094682074,-0.380719,-0.0650114,-0.851112
1470247094697089,-0.379935,-0.0649446,-0.851221
1470247094719608,-0.37909,-0.064741,-0.851498
1470247094742128,-0.378281,-0.0644567,-0.851913
1470247094756642,-0.377405,-0.0640128,-0.852347
1470247094779700,-0.377052,-0.0636608,-0.852822
1470247094802184,-0.376833,-0.0632844,-0.853405
1470247094816695,-0.376532,-0.0631199,-0.853975
1470247094839716,-0.376462,-0.0630337,-0.854404
1470247094862239,-0.37608,-0.0627379,-0.855108
1470247094876749,-0.375994,-0.06268,-0.855652
1470247094899770,-0.376108,-0.0628036,-0.856066
1470247094922310,-0.376038,-0.0630141,-0.856567
1470247094943492,-0.375803,-0.0633053,-0.857188
1470247094959507,-0.375334,-0.0634951,-0.857802
1470247094982074,-0.375218,-0.0635398,-0.858356
1470247095003546,-0.374763,-0.063701,-0.858855
1470247095019570,-0.374303,-0.0638396,-0.859207
1470247095042082,-0.373608,-0.0638766,-0.85955
1470247095063600,-0.373168,-0.0640089,-0.859936
1470247095087625,-0.372981,-0.0638711,-0.860362
1470247095102135,-0.372981,-0.0638711,-0.860362
1470247095123209,-0.372962,-0.0636752,-0.860816
1470247095130162,-0.373336,-0.063775,-0.861081
1470247095145215,-0.373777,-0.0640347,-0.861327
1470247095170712,-0.374303,-0.0644482,-0.861585
1470247095190216,-0.374588,-0.0650346,-0.86176
1470247095205273,-0.37494,-0.065484,-0.861843
1470247095227803,-0.375123,-0.0659913,-0.861899
1470247095250285,-0.375577,-0.0665199,-0.862101
1470247095265282,-0.37575,-0.0670781,-0.86242
1470247095287802,-0.37599,-0.0674992,-0.862648
1470247095310342,-0.376157,-0.068035,-0.862819
1470247095325335,-0.376043,-0.0683034,-0.863035
1470247095347855,-0.376043,-0.0683034,-0.863035
1470247095370499,-0.376043,-0.0683034,-0.863035
1470247095385389,-0.376161,-0.0683544,-0.863039
1470247095407909,-0.376043,-0.0683034,-0.863035
1470247095429955,-0.376157,-0.0684277,-0.86345
1470247095445567,-0.376202,-0.068689,-0.863957
1470247095467964,-0.376146,-0.0688711,-0.864345
1470247095489984,-0.376135,-0.0692188,-0.86468
1470247095504996,-0.376186,-0.06911,-0.864704
1470247095528017,-0.376069,-0.069059,-0.8647
1470247095550555,-0.376186,-0.06911,-0.864704
1470247095565055,-0.376186,-0.06911,-0.864704
1470247095587598,-0.376069,-0.069059,-0.8647
1470247095610093,-0.376069,-0.069059,-0.8647
1470247095625138,-0.376186,-0.06911,-0.864704
1470247095647658,-0.376186,-0.06911,-0.864704
1470247095670178,-0.376186,-0.06911,-0.864704
1470247095685160,-0.376181,-0.0690875,-0.864556
1470247095707679,-0.376181,-0.0690875,-0.864556
1470247095730199,-0.376181,-0.0690875,-0.864556
1470247095745242,-0.376181,-0.0690875,-0.864556
1470247095767732,-0.376181,-0.0690875,-0.864556
1470247095790280,-0.376299,-0.0691386,-0.864559
1470247095805266,-0.376299,-0.0691386,-0.864559
1470247095827788,-0.376299,-0.0691386,-0.864559
1470247095850341,-0.376299,-0.0691386,-0.864559
1470247095868322,-0.376416,-0.0691896,-0.864563
1470247095887841,-0.376468,-0.0690809,-0.864587
1470247095910375,-0.376468,-0.0690809,-0.864587
1470247095925374,-0.376468,-0.0690809,-0.864587
1470247095947895,-0.376904,-0.0690224,-0.864612
1470247095970420,-0.377671,-0.0691229,-0.864615
1470247095986431,-0.378134,-0.0690811,-0.864822
1470247096007950,-0.378251,-0.0691322,-0.864826
1470247096029968,-0.37823,-0.0691381,-0.864793
1470247096046483,-0.37823,-0.0691381,-0.864793
1470247096067525,-0.378784,-0.0691307,-0.864822
1470247096090557,-0.379512,-0.0690884,-0.865027
1470247096106536,-0.379512,-0.0690884,-0.865027
1470247096127557,-0.37963,-0.0691395,-0.865031
1470247096150090,-0.37963,-0.0691395,-0.865031
1470247096166590,-0.379748,-0.0691906,-0.865035
1470247096187665,-0.379585,-0.0689282,-0.865305
1470247096210220,-0.379684,-0.0687848,-0.865764
1470247096226647,-0.379802,-0.0688359,-0.865768
1470247096247694,-0.379854,-0.0687273,-0.865792
1470247096270191,-0.379854,-0.0687273,-0.865792
1470247096286698,-0.379971,-0.0687784,-0.865795
1470247096307732,-0.379971,-0.0687784,-0.865795
1470247096330237,-0.380089,-0.0688295,-0.865799
1470247096348254,-0.380089,-0.0688295,-0.865799
1470247096367771,-0.380068,-0.0688354,-0.865766
1470247096393295,-0.380186,-0.0688865,-0.86577
1470247096408311,-0.380238,-0.0687778,-0.865794
1470247096427852,-0.380232,-0.0687551,-0.865646
1470247096450345,-0.380232,-0.0687551,-0.865646
1470247096468361,-0.38035,-0.0688062,-0.865649
1470247096487914,-0.380402,-0.0686975,-0.865673
1470247096510400,-0.380402,-0.0686975,-0.865673
1470247096528417,-0.38052,-0.0687486,-0.865677
1470247096547933,-0.38052,-0.0687486,-0.865677
1470247096570500,-0.38052,-0.0687486,-0.865677
1470247096587969,-0.380571,-0.0686399,-0.865701
1470247096607989,-0.380689,-0.068691,-0.865705
1470247096630042,-0.380689,-0.068691,-0.865705
1470247096648023,-0.380689,-0.068691,-0.865705
1470247096667540,-0.380689,-0.068691,-0.865705
1470247096690560,-0.380689,-0.068691,-0.865705
1470247096708116,-0.380689,-0.068691,-0.865705
1470247096728191,-0.380859,-0.0686334,-0.865732
1470247096750170,-0.380859,-0.0686334,-0.865732
1470247096768131,-0.380859,-0.0686334,-0.865732
1470247096790651,-0.380859,-0.0686334,-0.865732
1470247096810184,-0.380859,-0.0686334,-0.865732
1470247096828203,-0.381028,-0.0685759,-0.86576
1470247096847704,-0.381028,-0.0685759,-0.86576
1470247096870257,-0.381023,-0.0685531,-0.865612
1470247096888273,-0.381023,-0.0685531,-0.865612
1470247096909300,-0.381075,-0.0684445,-0.865636
1470247096930279,-0.381075,-0.0684445,-0.865636
1470247096948311,-0.380705,-0.0686623,-0.86559
1470247096969311,-0.380249,-0.0684294,-0.865459
1470247096990330,-0.380136,-0.0683042,-0.865044
1470247097008355,-0.380188,-0.0681955,-0.865067
1470247097029365,-0.380188,-0.0681955,-0.865067
1470247097050384,-0.379616,-0.0676146,-0.864861
1470247097068400,-0.378071,-0.0655179,-0.8642
1470247097088923,-0.377603,-0.0636373,-0.86271
1470247097109938,-0.378345,-0.0627791,-0.861542
1470247097127956,-0.378822,-0.0622693,-0.861226
1470247097150975,-0.378504,-0.0615164,-0.861622
1470247097170564,-0.379095,-0.0611311,-0.861722
1470247097188008,-0.380734,-0.0611577,-0.861563
1470247097209026,-0.381797,-0.0617931,-0.861481
1470247097230548,-0.381915,-0.0618439,-0.861485
1470247097248063,-0.381915,-0.0618439,-0.861485
1470247097270581,-0.381967,-0.0617351,-0.86151
1470247097290134,-0.38292,-0.0617479,-0.861431
1470247097308116,-0.384006,-0.0620796,-0.861311
1470247097330638,-0.383789,-0.0625664,-0.861476
1470247097350181,-0.384555,-0.0636025,-0.861473
1470247097368169,-0.386076,-0.0653314,-0.8611
1470247097390721,-0.389821,-0.0678881,-0.860432
1470247097410260,-0.394903,-0.0707984,-0.85924
1470247097428223,-0.398637,-0.0732737,-0.857608
1470247097450745,-0.40158,-0.075944,-0.855488
1470247097470291,-0.410386,-0.0813236,-0.851672
1470247097488277,-0.428464,-0.090355,-0.845366
1470247097510798,-0.451389,-0.0994193,-0.83798
1470247097530315,-0.469818,-0.108939,-0.828217
1470247097548331,-0.475169,-0.117038,-0.816217
1470247097570852,-0.469179,-0.120945,-0.797787
1470247097590394,-0.473403,-0.119398,-0.767621
1470247097608385,-0.489292,-0.115481,-0.730873
1470247097630405,-0.501683,-0.112706,-0.691923
1470247097650923,-0.50539,-0.109597,-0.652072
1470247097667438,-0.505827,-0.105692,-0.613262
1470247097689959,-0.506352,-0.0994913,-0.576466
1470247097711036,-0.507578,-0.0937917,-0.543097
1470247097727029,-0.508372,-0.0895454,-0.514128
1470247097750013,-0.514216,-0.0863568,-0.489952
1470247097778591,-0.521333,-0.0858832,-0.470261
1470247097787045,-0.52694,-0.0862405,-0.454907
1470247097810066,-0.528885,-0.085321,-0.443475
1470247097831084,-0.529778,-0.0847109,-0.435457
1470247097847600,-0.531307,-0.0843963,-0.429849
1470247097869620,-0.53479,-0.0858739,-0.424433
1470247097891139,-0.538671,-0.0876112,-0.419758
1470247097906653,-0.538667,-0.0879053,-0.415768
1470247097929673,-0.536663,-0.0867264,-0.412304
1470247097950751,-0.534578,-0.0844999,-0.408326
1470247097967208,-0.532881,-0.0821946,-0.402828
1470247097989736,-0.529519,-0.0796437,-0.396715
1470247098010746,-0.525394,-0.077019,-0.390359
1470247098026761,-0.521982,-0.0753524,-0.384018
1470247098049782,-0.518753,-0.0749823,-0.378015
1470247098070830,-0.515983,-0.0741684,-0.372767
1470247098086814,-0.514547,-0.0726584,-0.368264
1470247098109853,-0.512671,-0.0713415,-0.364715
1470247098130855,-0.511921,-0.0695163,-0.361317
1470247098147371,-0.512813,-0.0677342,-0.358301
1470247098169889,-0.513449,-0.0660832,-0.355524
1470247098190937,-0.512001,-0.0645524,-0.351796
1470247098207423,-0.510374,-0.061469,-0.346137
1470247098229944,-0.509121,-0.0576868,-0.340925
1470247098252464,-0.507471,-0.0539652,-0.335701
1470247098267477,-0.507605,-0.0501423,-0.330779
1470247098289997,-0.506726,-0.0451949,-0.32371
1470247098312518,-0.503825,-0.0398692,-0.315937
1470247098335037,-0.501219,-0.0337987,-0.306439
1470247098350051,-0.5011,-0.0287568,-0.296369
1470247098372571,-0.496865,-0.0236144,-0.286222
1470247098393592,-0.492157,-0.0183019,-0.276506
1470247098409604,-0.48932,-0.0148854,-0.267493
1470247098432137,-0.487768,-0.012646,-0.259887
1470247098453644,-0.483675,-0.010484,-0.252331
1470247098469658,-0.476358,-0.00856198,-0.244627
1470247098492178,-0.470376,-0.00726949,-0.23757
1470247098513698,-0.468857,-0.00712182,-0.230878
1470247098529712,-0.467996,-0.00780158,-0.22513
1470247098552233,-0.466261,-0.00902102,-0.221017
1470247098573279,-0.466119,-0.0108561,-0.218177
1470247098589766,-0.466902,-0.0138514,-0.216099
1470247098612287,-0.467051,-0.0169499,-0.214735
1470247098626800,-0.468579,-0.0203375,-0.213957
1470247098649820,-0.470109,-0.0237782,-0.213917
1470247098672343,-0.469975,-0.0262058,-0.214091
1470247098693417,-0.468855,-0.0274206,-0.214426
1470247098709875,-0.467683,-0.0277073,-0.215095
1470247098732396,-0.467428,-0.0266288,-0.215978
1470247098753413,-0.467341,-0.0251527,-0.216706
