timestamp,roll,pitch,yaw
1470242759059073,-0.439866,0.0654397,-2.67722
1470242759083095,-0.439868,0.0654666,-2.67712
1470242759111621,-0.439868,0.0654666,-2.67712
1470242759120128,-0.439868,0.0654666,-2.67712
1470242759141647,-0.439741,0.0654383,-2.6771
1470242759165670,-0.439766,0.0652955,-2.67718
1470242759180182,-0.439766,0.0652955,-2.67718
1470242759231728,-0.439766,0.0652955,-2.67718
1470242759241737,-0.439766,0.0652955,-2.67718
1470242759248243,-0.439766,0.0652955,-2.67718
1470242759262256,-0.439766,0.0652955,-2.67718
1470242759284776,-0.439766,0.0652955,-2.67718
1470242759299289,-0.439792,0.06532,-2.67715
1470242759322810,-0.439665,0.0652917,-2.67713
1470242759368852,-0.439663,0.0652648,-2.67723
1470242759369852,-0.439663,0.0652648,-2.67723
1470242759382864,-0.439663,0.0652648,-2.67723
1470242759405384,-0.439663,0.0652648,-2.67723
1470242759420398,-0.439663,0.0652648,-2.67723
1470242759444420,-0.439535,0.0652365,-2.67721
1470242759465438,-0.439663,0.0652648,-2.67723
1470242759480452,-0.439663,0.0652648,-2.67723
1470242759503473,-0.439663,0.0652648,-2.67723
1470242759524491,-0.439535,0.0652365,-2.67721
1470242759547011,-0.439535,0.0652365,-2.67721
1470242759563527,-0.439535,0.0652365,-2.67721
1470242759584545,-0.439535,0.0652365,-2.67721
1470242759600560,-0.439535,0.0652365,-2.67721
1470242759623581,-0.439535,0.0652365,-2.67721
1470242759646101,-0.439535,0.0652365,-2.67721
1470242759660613,-0.439562,0.0651206,-2.67719
1470242759683634,-0.439562,0.0651206,-2.67719
1470242759706154,-0.439435,0.0650923,-2.67717
1470242759720167,-0.439435,0.0650923,-2.67717
1470242759743688,-0.439435,0.0650923,-2.67717
1470242759766207,-0.439435,0.0650923,-2.67717
1470242759780221,-0.439435,0.0650923,-2.67717
1470242759803742,-0.439307,0.065064,-2.67714
1470242759826262,-0.439307,0.065064,-2.67714
1470242759840275,-0.439307,0.065064,-2.67714
1470242759864296,-0.439307,0.065064,-2.67714
1470242759885815,-0.439307,0.065064,-2.67714
1470242759900329,-0.439179,0.0650357,-2.67712
1470242759923349,-0.439307,0.065064,-2.67714
1470242759945870,-0.439203,0.0650333,-2.6772
1470242759960383,-0.439307,0.065064,-2.67714
1470242759983404,-0.439203,0.0650333,-2.6772
1470242760005923,-0.439203,0.0650333,-2.6772
1470242760020437,-0.439203,0.0650333,-2.6772
1470242760043458,-0.439203,0.0650333,-2.6772
1470242760065977,-0.439178,0.0651761,-2.67712
1470242760080492,-0.439178,0.0651761,-2.67712
1470242760111018,-0.439176,0.0651493,-2.67723
1470242760126031,-0.43905,0.0651478,-2.6771
1470242760147051,-0.439203,0.0650333,-2.6772
1470242760163565,-0.439203,0.0650333,-2.6772
1470242760186085,-0.439076,0.065005,-2.67718
1470242760207105,-0.43905,0.0651478,-2.6771
1470242760223619,-0.438923,0.0651195,-2.67708
1470242760246139,-0.43905,0.0651478,-2.6771
1470242760267158,-0.439076,0.065005,-2.67718
1470242760283673,-0.439076,0.065005,-2.67718
1470242760312198,-0.43895,0.0650035,-2.67705
1470242760327211,-0.438923,0.0651195,-2.67708
1470242760351233,-0.43895,0.0650035,-2.67705
1470242760365247,-0.438923,0.0651195,-2.67708
1470242760388768,-0.438923,0.0651195,-2.67708
1470242760410787,-0.438923,0.0651195,-2.67708
1470242760425300,-0.438795,0.0650911,-2.67706
1470242760448320,-0.438795,0.0650911,-2.67706
1470242760470840,-0.438795,0.0650911,-2.67706
1470242760485354,-0.438795,0.0650911,-2.67706
1470242760508375,-0.438795,0.0650911,-2.67706
1470242760530895,-0.438795,0.0650911,-2.67706
1470242760545408,-0.438795,0.0650911,-2.67706
1470242760568430,-0.438795,0.0650911,-2.67706
1470242760591449,-0.438667,0.0650628,-2.67703
1470242760612469,-0.438667,0.0650628,-2.67703
1470242760635991,-0.438667,0.0650628,-2.67703
1470242760651003,-0.438667,0.0650628,-2.67703
1470242760672022,-0.438691,0.0650605,-2.67711
1470242760688537,-0.438691,0.0650605,-2.67711
1470242760711056,-0.438564,0.0650322,-2.67709
1470242760732080,-0.438564,0.0650322,-2.67709
1470242760748590,-0.438564,0.0650322,-2.67709
1470242760771110,-0.438564,0.0650322,-2.67709
1470242760792131,-0.438436,0.0650039,-2.67707
1470242760808644,-0.438564,0.0650322,-2.67709
1470242760831165,-0.438564,0.0650322,-2.67709
1470242760852184,-0.438436,0.0650039,-2.67707
1470242760868697,-0.438436,0.0650039,-2.67707
1470242760891218,-0.438408,0.0651198,-2.67709
1470242760912238,-0.438436,0.0650039,-2.67707
1470242760928752,-0.438436,0.0650039,-2.67707
1470242760950771,-0.438436,0.0650039,-2.67707
1470242760973292,-0.438308,0.0649756,-2.67705
1470242760988305,-0.438308,0.0649756,-2.67705
1470242761011326,-0.438308,0.0649756,-2.67705
1470242761032345,-0.438308,0.0649756,-2.67705
1470242761048361,-0.438308,0.0649756,-2.67705
1470242761070879,-0.438308,0.0649756,-2.67705
1470242761093417,-0.438308,0.0649756,-2.67705
1470242761107930,-0.438308,0.0649756,-2.67705
1470242761130934,-0.438181,0.0649472,-2.67703
1470242761153479,-0.438181,0.0649472,-2.67703
1470242761168467,-0.438181,0.0649472,-2.67703
1470242761190989,-0.438181,0.0649472,-2.67703
1470242761213507,-0.438181,0.0649472,-2.67703
1470242761228025,-0.438181,0.0649472,-2.67703
1470242761251042,-0.438181,0.0649472,-2.67703
1470242761273565,-0.438153,0.0650632,-2.67705
1470242761288074,-0.438053,0.0649189,-2.677
1470242761311095,-0.438068,0.0653842,-2.67722
1470242761333616,-0.438855,0.0659325,-2.67737
1470242761347629,-0.439701,0.0661352,-2.67737
1470242761371151,-0.439701,0.0661352,-2.67737
1470242761393671,-0.439701,0.0661352,-2.67737
1470242761407682,-0.4389,0.0663086,-2.67746
1470242761431204,-0.438872,0.0664246,-2.67749
1470242761453723,-0.439312,0.0661371,-2.67751
1470242761467736,-0.439312,0.0661371,-2.67751
1470242761490758,-0.439312,0.0661371,-2.67751
1470242761513777,-0.439312,0.0661371,-2.67751
1470242761527789,-0.439312,0.0661371,-2.67751
1470242761550810,-0.439312,0.0661371,-2.67751
1470242761573357,-0.439312,0.0661371,-2.67751
1470242761594872,-0.439312,0.0661371,-2.67751
1470242761611365,-0.439312,0.0661371,-2.67751
1470242761633385,-0.439209,0.0661065,-2.67756
1470242761654904,-0.439209,0.0661065,-2.67756
1470242761670918,-0.439181,0.0662225,-2.67759
1470242761693439,-0.439181,0.0662225,-2.67759
1470242761714957,-0.439181,0.0662225,-2.67759
1470242761730972,-0.439181,0.0662225,-2.67759
1470242761753534,-0.439181,0.0662225,-2.67759
1470242761774511,-0.439181,0.0662225,-2.67759
1470242761791027,-0.439181,0.0662225,-2.67759
1470242761813546,-0.439153,0.0663384,-2.67761
1470242761834599,-0.439153,0.0663384,-2.67761
1470242761851082,-0.439153,0.0663384,-2.67761
1470242761873602,-0.439153,0.0663384,-2.67761
1470242761894624,-0.439153,0.0663384,-2.67761
1470242761911134,-0.439026,0.0663101,-2.67759
1470242761933656,-0.439026,0.0663101,-2.67759
1470242761954729,-0.439026,0.0663101,-2.67759
1470242761978695,-0.439026,0.0663101,-2.67759
1470242761993752,-0.439028,0.0663369,-2.67749
1470242762016233,-0.439026,0.0663101,-2.67759
1470242762031277,-0.439028,0.0663369,-2.67749
1470242762053761,-0.439026,0.0663101,-2.67759
1470242762076314,-0.439028,0.0663369,-2.67749
1470242762091311,-0.438898,0.0662818,-2.67757
1470242762113316,-0.4389,0.0663086,-2.67746
1470242762136353,-0.4389,0.0663086,-2.67746
1470242762150349,-0.4389,0.0663086,-2.67746
1470242762173369,-0.438872,0.0664246,-2.67749
1470242762196390,-0.438745,0.0663963,-2.67747
1470242762218410,-0.438745,0.0663963,-2.67747
1470242762233423,-0.438745,0.0663963,-2.67747
1470242762256444,-0.438662,0.0667441,-2.67754
1470242762270459,-0.438662,0.0667441,-2.67754
1470242762293477,-0.438662,0.0667441,-2.67754
1470242762315999,-0.438507,0.0668317,-2.67754
1470242762330520,-0.438507,0.0668317,-2.67754
1470242762353531,-0.439068,0.0672342,-2.67752
1470242762376052,-0.439663,0.067434,-2.67726
1470242762390590,-0.439665,0.0674609,-2.67716
1470242762413586,-0.440254,0.0671726,-2.67738
1470242762436128,-0.441057,0.0670263,-2.67718
1470242762450629,-0.44181,0.0665907,-2.67709
1470242762473639,-0.44181,0.0665907,-2.67709
1470242762496162,-0.441619,0.0668538,-2.67743
1470242762517230,-0.443395,0.0669117,-2.67735
1470242762533696,-0.445981,0.0663301,-2.67704
1470242762556251,-0.448033,0.0659473,-2.67645
1470242762577275,-0.44703,0.0658314,-2.67645
1470242762593761,-0.44693,0.0656873,-2.67641
1470242762616267,-0.448036,0.0642411,-2.67604
1470242762637292,-0.447871,0.0627343,-2.67514
1470242762653802,-0.44581,0.0616883,-2.67473
1470242762675820,-0.442556,0.0607603,-2.67477
1470242762697352,-0.441298,0.0595145,-2.67437
1470242762713355,-0.442006,0.0586772,-2.67429
1470242762736380,-0.444277,0.0572882,-2.67381
1470242762757393,-0.444013,0.0562185,-2.67372
1470242762773908,-0.443009,0.0560745,-2.67383
1470242762795928,-0.44243,0.0552924,-2.67384
1470242762817448,-0.443205,0.0541649,-2.6734
1470242762833462,-0.442511,0.0533221,-2.67298
1470242762855982,-0.441932,0.0520159,-2.67246
1470242762877591,-0.440434,0.0513165,-2.67225
1470242762893516,-0.438543,0.050641,-2.67148
1470242762916085,-0.436901,0.0495822,-2.67044
1470242762937107,-0.435946,0.0487891,-2.66949
1470242762953573,-0.436472,0.0478198,-2.6681
1470242762976103,-0.435208,0.0468133,-2.66663
1470242762998612,-0.434277,0.0465885,-2.66549
1470242763013625,-0.432522,0.0459337,-2.66476
1470242763036144,-0.432226,0.0445081,-2.66388
1470242763058664,-0.432238,0.0434345,-2.66353
1470242763072677,-0.43197,0.0430449,-2.66268
1470242763096249,-0.431323,0.0431465,-2.66208
1470242763118718,-0.431961,0.0427389,-2.66176
1470242763133733,-0.431575,0.0417723,-2.66107
1470242763156296,-0.431123,0.0405449,-2.6603
1470242763178773,-0.430957,0.0397214,-2.65917
1470242763192786,-0.430454,0.0393763,-2.65787
1470242763216307,-0.430105,0.0393583,-2.65699
1470242763238833,-0.42902,0.039161,-2.65606
1470242763252838,-0.428978,0.0389176,-2.65538
1470242763260351,-0.429222,0.0384796,-2.65472
1470242763281911,-0.429226,0.0380649,-2.6543
1470242763303940,-0.429441,0.0377428,-2.65365
1470242763320399,-0.430199,0.0379145,-2.65318
1470242763341476,-0.430637,0.0377672,-2.6526
1470242763363988,-0.430995,0.0374193,-2.65226
1470242763380475,-0.431122,0.0374487,-2.65228
1470242763401475,-0.431845,0.0370853,-2.65242
1470242763423993,-0.431845,0.0370853,-2.65242
1470242763440508,-0.432294,0.0372966,-2.65254
1470242763461616,-0.432678,0.0374107,-2.6525
1470242763484099,-0.433519,0.0376246,-2.65248
1470242763500562,-0.433559,0.0380268,-2.65247
1470242763521580,-0.433559,0.0380268,-2.65247
1470242763544158,-0.434746,0.0384183,-2.65264
1470242763560618,-0.437517,0.0390681,-2.65342
1470242763581634,-0.4421,0.0401459,-2.6549
1470242763604154,-0.444575,0.041892,-2.65673
1470242763620672,-0.444325,0.0438883,-2.65788
1470242763641688,-0.449656,0.0440632,-2.65898
1470242763664208,-0.459482,0.045539,-2.6599
1470242763686727,-0.468373,0.0502897,-2.66174
1470242763701741,-0.469816,0.054799,-2.66376
1470242763724293,-0.462651,0.0564782,-2.66542
1470242763746782,-0.467434,0.0553231,-2.66605
1470242763761796,-0.477561,0.0538765,-2.66745
1470242763784316,-0.484733,0.0546906,-2.6682
1470242763806844,-0.48462,0.0555669,-2.66974
1470242763821855,-0.480627,0.0557379,-2.67128
1470242763844462,-0.477587,0.0558907,-2.67233
1470242763861945,-0.478401,0.0562657,-2.67267
1470242763881404,-0.483232,0.056083,-2.67245
1470242763903923,-0.486069,0.0556307,-2.67242
1470242763921941,-0.483975,0.0557145,-2.67208
1470242763941491,-0.479253,0.0559859,-2.67203
1470242763964022,-0.47516,0.0563202,-2.67182
1470242763982038,-0.473165,0.0561421,-2.6711
1470242764001524,-0.473766,0.0552824,-2.67047
1470242764024052,-0.474354,0.0538408,-2.67062
1470242764042132,-0.474249,0.0532007,-2.67105
1470242764061609,-0.474101,0.0532332,-2.67074
1470242764084085,-0.473124,0.0536061,-2.67035
1470242764102127,-0.472247,0.0541226,-2.67001
1470242764121644,-0.472247,0.0541226,-2.67001
1470242764144181,-0.472279,0.0539442,-2.67078
1470242764162156,-0.471486,0.054462,-2.671
1470242764181763,-0.47167,0.0548387,-2.67071
1470242764204255,-0.47079,0.0553267,-2.67047
1470242764222236,-0.46985,0.0560168,-2.67039
1470242764241727,-0.469865,0.0565069,-2.67051
1470242764264246,-0.469993,0.0565354,-2.67054
1470242764282264,-0.468868,0.0574278,-2.67048
1470242764301780,-0.466745,0.0582856,-2.67011
1470242764324397,-0.465264,0.0591171,-2.66996
1470242764341816,-0.464522,0.0595768,-2.66943
1470242764361962,-0.463702,0.0598608,-2.66904
1470242764386859,-0.461949,0.0601434,-2.66872
1470242764401872,-0.460034,0.0605969,-2.66861
1470242764421430,-0.458816,0.0613999,-2.66829
1470242764443920,-0.458163,0.0620309,-2.66822
1470242764461969,-0.458156,0.0625525,-2.66816
1470242764482943,-0.458481,0.062842,-2.66838
1470242764504021,-0.459007,0.0632794,-2.6687
1470242764521978,-0.459007,0.0632794,-2.6687
1470242764542997,-0.458257,0.0631889,-2.66885
1470242764564025,-0.457265,0.063532,-2.66907
1470242764582077,-0.456769,0.0634715,-2.66937
1470242764603051,-0.456761,0.0633881,-2.66968
1470242764624072,-0.456761,0.0633881,-2.66968
1470242764642153,-0.456761,0.0633881,-2.66968
1470242764663144,-0.456378,0.0634704,-2.66951
1470242764684182,-0.455803,0.0636718,-2.66968
1470242764702172,-0.455233,0.0639287,-2.66964
1470242764723159,-0.45463,0.0642459,-2.66983
1470242764744184,-0.453876,0.0647055,-2.66981
1470242764762194,-0.453876,0.0647055,-2.66981
1470242764783212,-0.453876,0.0647055,-2.66981
1470242764804232,-0.453876,0.0647055,-2.66981
1470242764822323,-0.453819,0.0649367,-2.66986
1470242764844768,-0.453321,0.0654537,-2.66989
1470242764864286,-0.452381,0.0660883,-2.67001
1470242764881803,-0.452243,0.0666941,-2.67003
1470242764904367,-0.452002,0.067128,-2.6701
1470242764924367,-0.451787,0.0675594,-2.67026
1470242764941855,-0.451915,0.0675882,-2.67028
1470242764964376,-0.452198,0.0679658,-2.67003
1470242764984465,-0.452947,0.068196,-2.66989
1470242765001914,-0.453309,0.0683124,-2.66977
1470242765031979,-0.453302,0.0688339,-2.66971
1470242765044470,-0.453834,0.0693271,-2.66982
1470242765062010,-0.454738,0.0693021,-2.66977
1470242765084508,-0.455287,0.069244,-2.66953
1470242765104026,-0.455287,0.069244,-2.66953
1470242765122045,-0.455406,0.0697665,-2.6696
1470242765144571,-0.456194,0.0702894,-2.66986
1470242765164055,-0.456939,0.0704645,-2.66992
1470242765182074,-0.4566,0.0707816,-2.66984
1470242765204593,-0.455582,0.0722558,-2.67067
1470242765224148,-0.455796,0.0729801,-2.6711
1470242765242180,-0.455587,0.0733262,-2.67104
1470242765264664,-0.454574,0.0738422,-2.67108
1470242765284252,-0.452431,0.0740972,-2.67099
1470242765309718,-0.450313,0.0743226,-2.67109
1470242765324199,-0.448592,0.0740548,-2.671
1470242765344217,-0.447623,0.0737615,-2.67067
1470242765361766,-0.447687,0.0734986,-2.6702
1470242765384753,-0.447906,0.0731215,-2.66984
1470242765404270,-0.448326,0.073061,-2.66948
1470242765421787,-0.448442,0.0731157,-2.6688
1470242765444819,-0.448198,0.0732226,-2.66814
1470242765465325,-0.447516,0.0733602,-2.66735
1470242765482471,-0.448043,0.0733588,-2.66682
1470242765504862,-0.449581,0.0734478,-2.66588
1470242765525379,-0.451767,0.0735982,-2.66485
1470242765541919,-0.452599,0.0739473,-2.66426
1470242765564441,-0.451827,0.0745177,-2.66375
1470242765585434,-0.450831,0.074969,-2.66297
1470242765601985,-0.450535,0.0752215,-2.66215
1470242765624578,-0.450268,0.0753581,-2.6613
1470242765645487,-0.450384,0.0754142,-2.66063
1470242765662029,-0.450504,0.0755256,-2.65975
1470242765684553,-0.450391,0.0755483,-2.65901
1470242765705543,-0.450015,0.0755701,-2.65852
1470242765720554,-0.449738,0.0755684,-2.65819
1470242765743577,-0.449827,0.0752769,-2.65791
1470242765764595,-0.449978,0.074641,-2.65748
1470242765780610,-0.449866,0.0740318,-2.65721
1470242765803631,-0.449467,0.0735922,-2.65702
1470242765826151,-0.449467,0.0735922,-2.65702
1470242765840662,-0.449467,0.0735922,-2.65702
1470242765863683,-0.449496,0.0734767,-2.657
1470242765886205,-0.449624,0.0735063,-2.65702
1470242765900734,-0.449622,0.0734787,-2.65712
1470242765923745,-0.449419,0.0733018,-2.65713
1470242765946258,-0.448802,0.0731241,-2.6572
1470242765960272,-0.448468,0.0728627,-2.65739
1470242765983790,-0.447646,0.0724809,-2.65757
1470242766006310,-0.446663,0.0722713,-2.65796
1470242766020324,-0.445813,0.0720055,-2.65816
1470242766043846,-0.444017,0.0713567,-2.65842
1470242766066364,-0.441936,0.0709057,-2.65866
1470242766080377,-0.440682,0.0707491,-2.65852
1470242766103913,-0.44071,0.0706334,-2.65849
1470242766125932,-0.440559,0.0701444,-2.65876
1470242766140431,-0.43968,0.0699686,-2.6591
1470242766163482,-0.43897,0.0701991,-2.65955
1470242766186479,-0.439762,0.0702329,-2.65976
1470242766200488,-0.439314,0.0693089,-2.65989
1470242766223506,-0.439514,0.068997,-2.66036
1470242766246027,-0.438932,0.0692573,-2.66083
1470242766260553,-0.438704,0.0695544,-2.6615
1470242766283585,-0.438492,0.0694108,-2.66192
1470242766306080,-0.438485,0.0693303,-2.66223
1470242766328639,-0.438327,0.0689285,-2.66271
1470242766343614,-0.438266,0.0691064,-2.66297
1470242766366138,-0.438434,0.0694852,-2.66318
1470242766387653,-0.438406,0.069601,-2.66321
1470242766403689,-0.438378,0.0697167,-2.66323
1470242766426222,-0.437944,0.0699411,-2.6629
1470242766447206,-0.437487,0.0703346,-2.66239
1470242766463722,-0.437339,0.0709895,-2.66161
1470242766486244,-0.437658,0.071385,-2.66082
1470242766507277,-0.437927,0.0719257,-2.65987
1470242766523776,-0.437942,0.0724344,-2.65878
1470242766546298,-0.437953,0.0730569,-2.65779
1470242766567317,-0.437706,0.0735933,-2.65685
1470242766583829,-0.437381,0.0739284,-2.65616
1470242766606351,-0.437908,0.0739273,-2.65563
1470242766627393,-0.438755,0.0736949,-2.65479
1470242766643444,-0.439477,0.0734605,-2.65383
1470242766665903,-0.439627,0.072796,-2.6535
1470242766687426,-0.440295,0.0723317,-2.65296
1470242766703438,-0.440108,0.0720084,-2.65246
1470242766725957,-0.439981,0.0719786,-2.65243
1470242766748477,-0.441327,0.0718733,-2.6522
1470242766763026,-0.442883,0.07186,-2.65175
1470242766786511,-0.443973,0.0716688,-2.65158
1470242766808533,-0.444324,0.0713232,-2.65124
1470242766823559,-0.44406,0.0707987,-2.65097
1470242766846065,-0.443823,0.0701315,-2.65078
1470242766868585,-0.444613,0.0696178,-2.65057
1470242766883098,-0.445924,0.0689981,-2.65024
1470242766906118,-0.447003,0.0682891,-2.65005
1470242766928639,-0.447032,0.0681737,-2.65002
1470242766943191,-0.446499,0.0677607,-2.65013
1470242766966174,-0.446766,0.0671316,-2.65033
1470242766988714,-0.44814,0.0668587,-2.65028
1470242767003208,-0.449259,0.0665262,-2.65018
1470242767026231,-0.448599,0.0649028,-2.6503
1470242767048749,-0.445742,0.0639385,-2.6502
1470242767063278,-0.442392,0.0634005,-2.64992
1470242767086282,-0.440077,0.0639425,-2.64946
1470242767108803,-0.438834,0.0643494,-2.64853
1470242767122816,-0.438088,0.0648455,-2.6472
1470242767146335,-0.435845,0.0651196,-2.64628
1470242767168854,-0.432604,0.0652344,-2.64547
1470242767182893,-0.429971,0.0650605,-2.64438
1470242767206390,-0.429308,0.0647104,-2.64287
1470242767228909,-0.429899,0.0645793,-2.64129
1470242767249958,-0.430211,0.0645563,-2.63949
1470242767265942,-0.43014,0.0649949,-2.63804
1470242767288499,-0.429201,0.0647496,-2.63631
1470242767309536,-0.429157,0.0651192,-2.63404
1470242767325997,-0.428465,0.0655332,-2.63198
1470242767348516,-0.427542,0.0656901,-2.63015
1470242767370035,-0.425966,0.0660277,-2.62853
1470242767386052,-0.42344,0.065882,-2.62669
1470242767408576,-0.419693,0.0660368,-2.62431
1470242767429593,-0.415651,0.0669969,-2.62145
1470242767446104,-0.411568,0.0679354,-2.61911
1470242767468624,-0.406825,0.069009,-2.61648
1470242767489668,-0.403051,0.0712446,-2.61318
1470242767506192,-0.400772,0.0728072,-2.60954
1470242767528678,-0.40009,0.0737134,-2.60559
1470242767549697,-0.40009,0.0744527,-2.60212
1470242767566214,-0.399374,0.074867,-2.59919
1470242767588760,-0.399528,0.075438,-2.59672
1470242767609806,-0.400968,0.0759909,-2.59484
1470242767626316,-0.403346,0.0759569,-2.59338
1470242767654801,-0.406807,0.076207,-2.59206
1470242767669823,-0.410507,0.0760223,-2.59128
1470242767686319,-0.414118,0.0756753,-2.59115
1470242767716349,-0.417887,0.0751966,-2.59122
1470242767731359,-0.421718,0.0749812,-2.59136
1470242767746387,-0.426312,0.0753208,-2.59176
1470242767768894,-0.429756,0.076456,-2.59228
1470242767790913,-0.431974,0.077829,-2.59306
1470242767806445,-0.433933,0.0781816,-2.59397
1470242767828448,-0.43647,0.0769327,-2.59468
1470242767851467,-0.439765,0.075388,-2.59484
1470242767865532,-0.443138,0.0754928,-2.5941
1470242767888531,-0.443988,0.0767659,-2.59304
1470242767911103,-0.441464,0.078011,-2.59182
1470242767933570,-0.436682,0.0798779,-2.59008
1470242767948603,-0.431301,0.0811008,-2.5881
1470242767971105,-0.42698,0.0813198,-2.58614
1470242767985617,-0.42491,0.0814553,-2.58403
1470242768008652,-0.425029,0.08125,-2.58168
1470242768031180,-0.426324,0.080883,-2.5798
1470242768045670,-0.427533,0.0809455,-2.57829
1470242768076239,-0.427776,0.0816033,-2.57688
1470242768091213,-0.427923,0.08206,-2.57561
1470242768105726,-0.427453,0.0824538,-2.57442
1470242768128747,-0.426953,0.0833686,-2.57316
1470242768158772,-0.425953,0.0837683,-2.57239
1470242768172284,-0.42592,0.0839568,-2.57153
1470242768188798,-0.426577,0.0844137,-2.57034
1470242768211320,-0.426359,0.0839234,-2.56939
1470242768231837,-0.425557,0.0835819,-2.56868
1470242768248862,-0.425176,0.0831182,-2.56791
1470242768271373,-0.425046,0.0826979,-2.56729
1470242768299911,-0.424593,0.0830075,-2.56649
1470242768308949,-0.423685,0.0829555,-2.56604
1470242768331427,-0.423551,0.0821017,-2.56561
1470242768352476,-0.423968,0.0821918,-2.56469
1470242768368460,-0.422333,0.0833363,-2.56371
1470242768391480,-0.418587,0.0836482,-2.5636
1470242768412499,-0.415988,0.0836387,-2.56299
1470242768428514,-0.41511,0.0840575,-2.56165
1470242768451034,-0.41424,0.0835063,-2.56119
1470242768472553,-0.413057,0.0821623,-2.5609
1470242768488568,-0.41246,0.0820773,-2.55989
1470242768511589,-0.409766,0.0842699,-2.55858
1470242768532614,-0.407229,0.086844,-2.55569
1470242768548660,-0.407644,0.0877824,-2.55378
1470242768571142,-0.409239,0.0881901,-2.55362
1470242768592211,-0.409507,0.08859,-2.55395
1470242768608680,-0.408924,0.0891692,-2.554
1470242768631197,-0.407137,0.090397,-2.5542
1470242768653721,-0.404517,0.0917672,-2.55371
1470242768668730,-0.40311,0.0926131,-2.55259
1470242768691250,-0.403373,0.0922558,-2.55165
1470242768713774,-0.404107,0.0915379,-2.5512
1470242768728785,-0.40486,0.0907682,-2.55104
1470242768751321,-0.405249,0.0907888,-2.55091
1470242768773826,-0.404843,0.0908456,-2.55066
1470242768787836,-0.403603,0.0905711,-2.55071
1470242768811410,-0.404253,0.0901448,-2.55061
1470242768833378,-0.408243,0.0899529,-2.55068
1470242768847891,-0.413029,0.0900808,-2.55096
1470242768871411,-0.416257,0.0907184,-2.55151
1470242768893436,-0.418136,0.0918491,-2.55138
1470242768907944,-0.417949,0.0933658,-2.55071
1470242768931465,-0.416905,0.0952056,-2.55038
1470242768953485,-0.41723,0.0963474,-2.54981
1470242768967998,-0.41863,0.0969724,-2.54898
1470242768991040,-0.419498,0.0972395,-2.54789
1470242769014065,-0.41829,0.0973779,-2.54674
1470242769028052,-0.41584,0.097236,-2.54562
1470242769051073,-0.414674,0.0972644,-2.54504
1470242769074094,-0.413661,0.0971811,-2.54397
1470242769088106,-0.412813,0.0974335,-2.54339
1470242769111127,-0.41087,0.0982532,-2.54278
1470242769133650,-0.408064,0.0989522,-2.5421
1470242769154802,-0.404598,0.098692,-2.54179
1470242769171180,-0.401647,0.0984903,-2.54139
1470242769193702,-0.400872,0.0985351,-2.54068
1470242769214827,-0.400005,0.097947,-2.54031
1470242769231235,-0.401326,0.0974552,-2.54031
1470242769253755,-0.402878,0.0974804,-2.54065
1470242769274775,-0.403071,0.0976948,-2.54053
1470242769298797,-0.404155,0.0984952,-2.54088
1470242769313810,-0.405005,0.100023,-2.54048
1470242769334828,-0.405252,0.101367,-2.54003
1470242769351343,-0.402097,0.102316,-2.54005
1470242769381371,-0.398817,0.103179,-2.54023
1470242769394914,-0.397283,0.103052,-2.54035
1470242769411397,-0.39643,0.101969,-2.53988
1470242769433421,-0.396693,0.10241,-2.53942
1470242769454969,-0.395777,0.103366,-2.5385
1470242769471453,-0.395119,0.103751,-2.53809
1470242769493975,-0.393499,0.103546,-2.53789
1470242769514989,-0.392954,0.103626,-2.53792
1470242769531504,-0.392988,0.103487,-2.538
1470242769553525,-0.393285,0.103358,-2.53782
1470242769576044,-0.39325,0.103928,-2.53754
1470242769590557,-0.392917,0.104147,-2.53784
1470242769613578,-0.392917,0.104147,-2.53784
1470242769636098,-0.393443,0.104142,-2.53743
1470242769651134,-0.393442,0.104117,-2.53752
1470242769673632,-0.393464,0.104116,-2.53762
1470242769696152,-0.393375,0.103965,-2.53757
1470242769711166,-0.393375,0.103965,-2.53757
1470242769733686,-0.393375,0.103965,-2.53757
1470242769756206,-0.393693,0.104241,-2.53739
1470242769770720,-0.393728,0.104126,-2.53737
1470242769793759,-0.392858,0.103917,-2.53699
1470242769816303,-0.393267,0.103914,-2.53705
1470242769830276,-0.39367,0.105153,-2.5367
1470242769853793,-0.393829,0.105076,-2.53671
1470242769876316,-0.392911,0.105524,-2.53627
1470242769890332,-0.392486,0.104311,-2.53642
1470242769913850,-0.392097,0.10563,-2.53577
1470242769936367,-0.390258,0.106981,-2.5346
1470242769950380,-0.389591,0.108353,-2.5345
1470242769973934,-0.389092,0.108659,-2.5341
1470242769996421,-0.389389,0.10901,-2.53353
1470242770010434,-0.388,0.109707,-2.53179
1470242770033955,-0.390146,0.110492,-2.53082
1470242770056475,-0.394318,0.110564,-2.53012
1470242770077494,-0.396504,0.110278,-2.5299
1470242770093509,-0.395429,0.110789,-2.53014
1470242770116074,-0.393105,0.111077,-2.53073
1470242770137549,-0.392436,0.110662,-2.53103
1470242770153563,-0.393392,0.110101,-2.53145
1470242770176089,-0.395566,0.109471,-2.53164
1470242770197603,-0.3974,0.109045,-2.53154
1470242770213619,-0.3974,0.109045,-2.53154
1470242770236142,-0.397469,0.108791,-2.53159
1470242770257156,-0.396623,0.108123,-2.5316
1470242770273671,-0.396024,0.107504,-2.53176
1470242770296192,-0.395458,0.107658,-2.53141
1470242770317227,-0.397271,0.107284,-2.53102
1470242770333727,-0.397889,0.107827,-2.53124
1470242770356245,-0.398014,0.107864,-2.53127
1470242770377277,-0.39782,0.10808,-2.53119
1470242770393792,-0.39694,0.1084,-2.53142
1470242770416301,-0.395418,0.108634,-2.53104
1470242770437334,-0.394443,0.109296,-2.53014
1470242770453837,-0.392743,0.109755,-2.52909
1470242770476357,-0.39062,0.110254,-2.52838
1470242770497389,-0.388461,0.110495,-2.52701
1470242770513889,-0.389624,0.109261,-2.52662
1470242770536461,-0.391238,0.111262,-2.52643
1470242770558926,-0.390702,0.110897,-2.52735
1470242770573940,-0.390718,0.110377,-2.52733
1470242770596461,-0.39224,0.108446,-2.52714
1470242770618481,-0.394455,0.103864,-2.52576
1470242770633494,-0.398251,0.098689,-2.52705
1470242770656016,-0.401493,0.0947737,-2.53071
1470242770678536,-0.403106,0.0910316,-2.53476
1470242770693047,-0.401419,0.0889569,-2.53879
1470242770716097,-0.39988,0.0886597,-2.54275
1470242770738594,-0.402644,0.0887515,-2.54756
1470242770759662,-0.408578,0.0873126,-2.55371
1470242770776131,-0.415971,0.0848534,-2.55987
1470242770798642,-0.425619,0.0828483,-2.56341
1470242770819661,-0.434536,0.0790464,-2.56521
1470242770836179,-0.438181,0.0742627,-2.56754
1470242770858730,-0.437073,0.0696266,-2.57096
1470242770864253,-0.436726,0.0649262,-2.57451
1470242770886722,-0.438505,0.0609433,-2.57886
1470242770904774,-0.444077,0.0577148,-2.58357
1470242770924256,-0.45126,0.0546797,-2.58879
1470242770946775,-0.458256,0.0531072,-2.59455
1470242770961856,-0.464161,0.0529292,-2.60114
1470242770984350,-0.469602,0.0536457,-2.60767
1470242771015370,-0.473411,0.0541776,-2.61293
1470242771021843,-0.478228,0.0556511,-2.61706
1470242771046865,-0.485304,0.0565251,-2.62023
1470242771066889,-0.490366,0.0576721,-2.62316
1470242771081896,-0.492174,0.0584508,-2.62612
1470242771104417,-0.489823,0.0585193,-2.62892
1470242771126937,-0.486417,0.0593017,-2.6309
1470242771141955,-0.483048,0.0611737,-2.63173
1470242771164556,-0.476664,0.0643521,-2.63084
1470242771186991,-0.466654,0.0681361,-2.62876
1470242771202004,-0.457162,0.0674358,-2.62644
1470242771224025,-0.454733,0.065169,-2.62291
1470242771246544,-0.457718,0.0641794,-2.61857
1470242771261616,-0.457967,0.0636083,-2.6153
1470242771284144,-0.454739,0.0648046,-2.61253
1470242771302153,-0.451258,0.0669379,-2.60984
1470242771324615,-0.448732,0.0688938,-2.60737
1470242771344160,-0.447377,0.0698184,-2.60514
1470242771360646,-0.446818,0.0695902,-2.60378
1470242771381665,-0.447592,0.0692654,-2.60281
1470242771404203,-0.448776,0.06977,-2.60152
1470242771420700,-0.44978,0.070526,-2.60065
1470242771441737,-0.449719,0.0713576,-2.59982
1470242771464240,-0.449044,0.0719942,-2.59906
1470242771482255,-0.448656,0.0720628,-2.59831
1470242771501794,-0.449142,0.0717625,-2.59741
1470242771524293,-0.450951,0.0714833,-2.59641
1470242771542310,-0.452919,0.0714494,-2.59563
1470242771561841,-0.454823,0.0712631,-2.59548
1470242771584348,-0.455931,0.0709345,-2.59599
1470242771602408,-0.455964,0.07082,-2.59596
1470242771621881,-0.455964,0.07082,-2.59596
1470242771644401,-0.455931,0.0709345,-2.59599
1470242771661917,-0.455807,0.0709292,-2.59586
1470242771681934,-0.455853,0.0707591,-2.59553
1470242771703972,-0.456504,0.0703503,-2.59533
1470242771722004,-0.457475,0.070131,-2.59523
1470242771741544,-0.458119,0.0701854,-2.59525
1470242771764011,-0.458247,0.0702184,-2.59527
1470242771782068,-0.458247,0.0702184,-2.59527
1470242771802063,-0.458133,0.0706488,-2.59496
1470242771824107,-0.45835,0.0708334,-2.59444
1470242771842079,-0.457882,0.0711887,-2.59404
1470242771861597,-0.457124,0.0715641,-2.59372
1470242771884143,-0.456747,0.0720389,-2.59347
1470242771902138,-0.456793,0.0723877,-2.59316
1470242771921676,-0.457159,0.0725743,-2.59285
1470242771944188,-0.457594,0.072912,-2.5925
1470242771962228,-0.457683,0.0730635,-2.59196
1470242771981720,-0.457697,0.0730083,-2.59165
1470242772004285,-0.457637,0.0732928,-2.5915
1470242772022242,-0.45765,0.0737562,-2.59121
1470242772041845,-0.459076,0.073818,-2.59106
1470242772064303,-0.460082,0.0734866,-2.59095
1470242772081794,-0.459819,0.0735308,-2.59101
1470242772102815,-0.459008,0.0731482,-2.59108
1470242772124332,-0.457864,0.0730427,-2.59066
1470242772142378,-0.457704,0.0731237,-2.59066
1470242772163367,-0.458284,0.0728896,-2.5907
1470242772184388,-0.458284,0.0728896,-2.5907
1470242772209910,-0.458284,0.0728896,-2.5907
1470242772222925,-0.458284,0.0728896,-2.5907
1470242772244564,-0.458284,0.0728896,-2.5907
1470242772262459,-0.458284,0.0728896,-2.5907
1470242772282976,-0.458284,0.0728896,-2.5907
1470242772304572,-0.458251,0.0730039,-2.59073
1470242772322066,-0.458251,0.0730039,-2.59073
1470242772343030,-0.458251,0.0730039,-2.59073
1470242772364059,-0.45827,0.0729447,-2.59101
1470242772382098,-0.459098,0.0727213,-2.5913
1470242772403084,-0.46022,0.072506,-2.59142
1470242772424134,-0.461051,0.0723102,-2.59161
1470242772442209,-0.461084,0.0721959,-2.59159
1470242772464673,-0.460603,0.072439,-2.59158
1470242772484188,-0.460501,0.0724022,-2.59165
1470242772502172,-0.460468,0.0725166,-2.59167
1470242772524693,-0.460468,0.0725166,-2.59167
1470242772544253,-0.460438,0.0726589,-2.5916
1470242772562308,-0.460438,0.0726589,-2.5916
1470242772584757,-0.460541,0.0726957,-2.59153
1470242772604354,-0.460538,0.0726676,-2.59163
1470242772622279,-0.460468,0.0725166,-2.59167
1470242772645301,-0.460435,0.0726309,-2.59169
1470242772664329,-0.460861,0.0725336,-2.59154
1470242772682350,-0.461441,0.0722993,-2.59158
1470242772704356,-0.461441,0.0722993,-2.59158
1470242772724372,-0.461441,0.0722993,-2.59158
1470242772742387,-0.461441,0.0722993,-2.59158
1470242772764408,-0.461441,0.0722993,-2.59158
1470242772784425,-0.461441,0.0722993,-2.59158
1470242772801941,-0.461441,0.0722993,-2.59158
1470242772825088,-0.461441,0.0722993,-2.59158
1470242772843978,-0.461441,0.0722993,-2.59158
1470242772862004,-0.461441,0.0722993,-2.59158
1470242772884515,-0.461568,0.0723326,-2.5916
1470242772904032,-0.461568,0.0723326,-2.5916
1470242772922049,-0.461248,0.0724946,-2.5916
1470242772944569,-0.461121,0.0724613,-2.59157
1470242772964087,-0.461121,0.0724613,-2.59157
1470242772982172,-0.461121,0.0724613,-2.59157
1470242773004639,-0.461121,0.0724613,-2.59157
1470242773025643,-0.461121,0.0724613,-2.59157
1470242773042191,-0.461121,0.0724613,-2.59157
1470242773064679,-0.460698,0.0725866,-2.59163
1470242773085696,-0.460053,0.072531,-2.59161
1470242773102237,-0.460053,0.072531,-2.59161
1470242773124744,-0.460053,0.072531,-2.59161
1470242773145752,-0.460053,0.072531,-2.59161
1470242773162266,-0.460053,0.072531,-2.59161
1470242773184843,-0.460053,0.072531,-2.59161
1470242773205803,-0.460053,0.072531,-2.59161
1470242773222317,-0.460053,0.072531,-2.59161
1470242773244838,-0.460053,0.072531,-2.59161
1470242773265857,-0.460053,0.072531,-2.59161
1470242773282373,-0.459211,0.0728097,-2.59164
1470242773304892,-0.458759,0.0730774,-2.59162
1470242773324910,-0.458759,0.0730774,-2.59162
1470242773340424,-0.458632,0.073044,-2.5916
1470242773363945,-0.458629,0.0730161,-2.59169
1470242773386466,-0.458759,0.0730774,-2.59162
1470242773400478,-0.458632,0.073044,-2.5916
1470242773423999,-0.458632,0.073044,-2.5916
1470242773446019,-0.459024,0.073061,-2.59146
1470242773460532,-0.459024,0.073061,-2.59146
1470242773484054,-0.459024,0.073061,-2.59146
1470242773506075,-0.459024,0.073061,-2.59146
1470242773520587,-0.459024,0.073061,-2.59146
1470242773543649,-0.458507,0.0730387,-2.59147
1470242773566129,-0.458507,0.0730387,-2.59147
1470242773580641,-0.458507,0.0730387,-2.59147
1470242773603661,-0.458897,0.0730277,-2.59144
1470242773626204,-0.45893,0.0729133,-2.59141
1470242773640707,-0.45893,0.0729133,-2.59141
1470242773663729,-0.458897,0.0730277,-2.59144
1470242773686241,-0.45877,0.0729943,-2.59141
1470242773700749,-0.459065,0.0728357,-2.59132
1470242773723768,-0.45948,0.0728213,-2.59138
1470242773746289,-0.45948,0.0728213,-2.59138
1470242773760802,-0.459447,0.0729357,-2.5914
1470242773791329,-0.459447,0.0729357,-2.5914
1470242773806343,-0.459607,0.0728546,-2.59141
1470242773820870,-0.459316,0.0728743,-2.59147
1470242773843919,-0.458564,0.0727261,-2.59172
1470242773866397,-0.458567,0.0727541,-2.59162
1470242773887440,-0.458567,0.0727541,-2.59162
1470242773903930,-0.458564,0.0727261,-2.59172
1470242773926451,-0.458554,0.0722905,-2.59191
1470242773947487,-0.458403,0.0718767,-2.59238
1470242773963983,-0.458325,0.0716419,-2.59271
1470242773986504,-0.458197,0.0716087,-2.59268
1470242774007546,-0.458197,0.0716087,-2.59268
1470242774023538,-0.458197,0.0716087,-2.59268
1470242774046058,-0.457772,0.0717065,-2.59284
1470242774067579,-0.45696,0.0718435,-2.59294
1470242774083593,-0.456345,0.0721648,-2.59302
1470242774106113,-0.456315,0.0723071,-2.59295
1470242774127189,-0.456188,0.0722738,-2.59292
1470242774143645,-0.456188,0.0722738,-2.59292
1470242774166167,-0.456315,0.0723071,-2.59295
1470242774187238,-0.456315,0.0723071,-2.59295
1470242774209739,-0.455793,0.0722296,-2.59315
1470242774226219,-0.455243,0.0723223,-2.59319
1470242774247251,-0.455243,0.0723223,-2.59319
1470242774263253,-0.45537,0.0723555,-2.59321
1470242774286327,-0.45537,0.0723555,-2.59321
1470242774314871,-0.45537,0.0723555,-2.59321
1470242774323846,-0.45521,0.0724367,-2.59321
1470242774346330,-0.45521,0.0724367,-2.59321
1470242774368850,-0.45521,0.0724367,-2.59321
1470242774383871,-0.45521,0.0724367,-2.59321
1470242774406383,-0.45521,0.0724367,-2.59321
1470242774428901,-0.45521,0.0724367,-2.59321
1470242774443919,-0.455083,0.0724035,-2.59318
1470242774466435,-0.454989,0.0722558,-2.59313
1470242774488955,-0.454981,0.0723669,-2.59325
1470242774503468,-0.455606,0.0724808,-2.59298
1470242774526489,-0.456715,0.0727312,-2.59272
1470242774548510,-0.457591,0.0728841,-2.5926
1470242774563022,-0.457271,0.0730464,-2.5926
1470242774586063,-0.45607,0.0731947,-2.59273
1470242774608562,-0.454454,0.0733578,-2.59281
1470242774623114,-0.453716,0.0736737,-2.59276
1470242774646097,-0.453883,0.0734813,-2.59265
1470242774668618,-0.45401,0.0735146,-2.59268
1470242774683132,-0.45401,0.0735146,-2.59268
1470242774706175,-0.454043,0.0734002,-2.59265
1470242774728670,-0.454043,0.0734002,-2.59265
1470242774743188,-0.453916,0.0733669,-2.59263
1470242774766204,-0.453883,0.0734813,-2.59265
1470242774788725,-0.453908,0.0734781,-2.59274
1470242774803262,-0.453781,0.0734448,-2.59272
1470242774826265,-0.453748,0.0735593,-2.59274
1470242774848817,-0.453748,0.0735593,-2.59274
1470242774870297,-0.453781,0.0734448,-2.59272
1470242774886312,-0.453624,0.0735537,-2.59262
1470242774908841,-0.453624,0.0735537,-2.59262
1470242774929853,-0.453624,0.0735537,-2.59262
1470242774946367,-0.454049,0.0734555,-2.59246
1470242774968886,-0.454631,0.0732486,-2.5924
1470242774989974,-0.454733,0.0732852,-2.59234
1470242775006421,-0.454314,0.0734386,-2.5923
1470242775028940,-0.453641,0.0735254,-2.59221
1470242775050001,-0.453641,0.0735254,-2.59221
1470242775066474,-0.453514,0.0734921,-2.59218
1470242775088495,-0.453873,0.073623,-2.59207
1470242775110013,-0.453873,0.073623,-2.59207
1470242775126027,-0.453873,0.073623,-2.59207
1470242775148547,-0.453873,0.073623,-2.59207
1470242775170067,-0.453873,0.073623,-2.59207
1470242775186125,-0.453873,0.073623,-2.59207
1470242775208656,-0.454,0.0736563,-2.5921
1470242775230150,-0.454,0.0736563,-2.5921
1470242775246135,-0.45384,0.0737374,-2.5921
1470242775268656,-0.45384,0.0737374,-2.5921
1470242775291175,-0.453418,0.0738631,-2.59216
1470242775306207,-0.452996,0.0739889,-2.59222
1470242775329277,-0.452869,0.0739556,-2.59219
1470242775351229,-0.452869,0.0739556,-2.59219
1470242775366244,-0.452869,0.0739556,-2.59219
1470242775388763,-0.452869,0.0739556,-2.59219
1470242775411283,-0.452353,0.0739336,-2.5922
1470242775425797,-0.452353,0.0739336,-2.5922
1470242775448817,-0.452353,0.0739336,-2.5922
1470242775471337,-0.452226,0.0739003,-2.59217
1470242775485350,-0.452226,0.0739003,-2.59217
1470242775508874,-0.452226,0.0739003,-2.59217
1470242775531392,-0.452226,0.0739003,-2.59217
1470242775545404,-0.452226,0.0739003,-2.59217
1470242775568925,-0.451614,0.0742493,-2.59216
1470242775591445,-0.451581,0.0743637,-2.59218
1470242775605458,-0.451581,0.0743637,-2.59218
1470242775628479,-0.451581,0.0743637,-2.59218
1470242775650999,-0.451425,0.0744724,-2.59208
1470242775665513,-0.451784,0.0746032,-2.59197
1470242775689035,-0.451784,0.0746032,-2.59197
1470242775711054,-0.451751,0.0747176,-2.59199
1470242775725569,-0.451751,0.0747176,-2.59199
1470242775748586,-0.451751,0.0747176,-2.59199
1470242775771107,-0.451751,0.0747176,-2.59199
1470242775792552,-0.451751,0.0747176,-2.59199
1470242775808545,-0.451878,0.074751,-2.59202
1470242775831566,-0.451845,0.0748654,-2.59204
1470242775852584,-0.451307,0.0748741,-2.59186
1470242775869099,-0.45011,0.0750501,-2.5919
1470242775891119,-0.448475,0.0752436,-2.59179
1470242775912639,-0.447212,0.0751025,-2.59195
1470242775928654,-0.447212,0.0751025,-2.59195
1470242775951176,-0.447179,0.0752171,-2.59197
1470242775972211,-0.447179,0.0752171,-2.59197
1470242775989208,-0.447052,0.0751837,-2.59194
1470242776011270,-0.447052,0.0751837,-2.59194
1470242776032274,-0.446925,0.0751503,-2.59192
1470242776048761,-0.446925,0.0751503,-2.59192
1470242776071283,-0.446892,0.0752649,-2.59194
1470242776092341,-0.447182,0.0752444,-2.59187
1470242776108815,-0.447573,0.0752603,-2.59174
1470242776131335,-0.447573,0.0752603,-2.59174
1470242776152367,-0.448116,0.0751131,-2.5919
1470242776168871,-0.448719,0.0748755,-2.59203
1470242776191410,-0.449105,0.0748367,-2.59209
1470242776212908,-0.449781,0.0747775,-2.59208
1470242776228925,-0.450137,0.0748806,-2.59207
1470242776251442,-0.450137,0.0748806,-2.59207
1470242776273963,-0.450137,0.0748806,-2.59207
1470242776289008,-0.450137,0.0748806,-2.59207
1470242776311521,-0.450264,0.0749139,-2.5921
1470242776334039,-0.450264,0.0749139,-2.5921
1470242776349036,-0.450264,0.0749139,-2.5921
1470242776371050,-0.450264,0.0749139,-2.5921
1470242776394070,-0.450264,0.0749139,-2.5921
1470242776408084,-0.450232,0.0750284,-2.59212
1470242776431106,-0.450232,0.0750284,-2.59212
1470242776453627,-0.450232,0.0750284,-2.59212
1470242776468139,-0.450105,0.0749951,-2.59209
1470242776491673,-0.450232,0.0750284,-2.59212
1470242776513678,-0.450105,0.0749951,-2.59209
1470242776528191,-0.450072,0.0751096,-2.59212
1470242776551214,-0.450075,0.0751371,-2.59202
1470242776573732,-0.450075,0.0751371,-2.59202
1470242776588262,-0.44965,0.0752355,-2.59218
1470242776611272,-0.449523,0.0752021,-2.59215
1470242776633786,-0.449523,0.0752021,-2.59215
1470242776648301,-0.449523,0.0752021,-2.59215
1470242776671322,-0.449396,0.0751688,-2.59213
1470242776693840,-0.449396,0.0751688,-2.59213
1470242776708358,-0.449363,0.0752833,-2.59215
1470242776731389,-0.449363,0.0752833,-2.59215
1470242776753896,-0.449363,0.0752833,-2.59215
1470242776774978,-0.449363,0.0752833,-2.59215
1470242776791447,-0.449683,0.075121,-2.59215
1470242776813948,-0.449945,0.0750762,-2.59209
1470242776834983,-0.449945,0.0750762,-2.59209
1470242776851484,-0.449945,0.0750762,-2.59209
1470242776873541,-0.450072,0.0751096,-2.59212
1470242776895070,-0.450072,0.0751096,-2.59212
1470242776911535,-0.449945,0.0750762,-2.59209
1470242776934055,-0.449912,0.0751907,-2.59212
1470242776962582,-0.449912,0.0751907,-2.59212
1470242776971142,-0.449912,0.0751907,-2.59212
1470242776994139,-0.449912,0.0751907,-2.59212
1470242777015128,-0.449912,0.0751907,-2.59212
1470242777031645,-0.449912,0.0751907,-2.59212
1470242777053665,-0.449912,0.0751907,-2.59212
1470242777075269,-0.449912,0.0751907,-2.59212
1470242777091197,-0.449879,0.0753052,-2.59214
1470242777113719,-0.449879,0.0753052,-2.59214
1470242777134747,-0.449879,0.0753052,-2.59214
1470242777151251,-0.449879,0.0753052,-2.59214
1470242777173771,-0.449879,0.0753052,-2.59214
1470242777196292,-0.449752,0.0752719,-2.59211
1470242777211304,-0.449752,0.0752719,-2.59211
1470242777233826,-0.449752,0.0752719,-2.59211
1470242777256345,-0.449777,0.0752688,-2.5922
1470242777271359,-0.449777,0.0752688,-2.5922
1470242777293879,-0.449777,0.0752688,-2.5922
1470242777316401,-0.449777,0.0752688,-2.5922
1470242777330412,-0.449777,0.0752688,-2.5922
1470242777353935,-0.449744,0.0753833,-2.59223
1470242777376468,-0.449617,0.07535,-2.5922
1470242777390498,-0.449617,0.07535,-2.5922
1470242777413986,-0.449617,0.07535,-2.5922
1470242777436533,-0.44962,0.0753775,-2.5921
1470242777450519,-0.44962,0.0753775,-2.5921
1470242777474040,-0.449493,0.0753441,-2.59208
1470242777496561,-0.449493,0.0753441,-2.59208
1470242777510573,-0.449493,0.0753441,-2.59208
1470242777534094,-0.449461,0.0754586,-2.5921
1470242777563623,-0.449461,0.0754586,-2.5921
1470242777570627,-0.449461,0.0754586,-2.5921
1470242777594148,-0.449461,0.0754586,-2.5921
1470242777616223,-0.449461,0.0754586,-2.5921
1470242777630734,-0.449461,0.0754586,-2.5921
1470242777653719,-0.449461,0.0754586,-2.5921
1470242777676724,-0.449334,0.0754253,-2.59207
1470242777697242,-0.449301,0.0755398,-2.5921
1470242777713756,-0.449301,0.0755398,-2.5921
1470242777736276,-0.449301,0.0755398,-2.5921
1470242777757803,-0.449301,0.0755398,-2.5921
1470242777773810,-0.449301,0.0755398,-2.5921
1470242777796337,-0.449301,0.0755398,-2.5921
1470242777817405,-0.449268,0.0756543,-2.59212
1470242777833363,-0.449268,0.0756543,-2.59212
1470242777856434,-0.449268,0.0756543,-2.59212
1470242777877420,-0.449268,0.0756543,-2.59212
1470242777893918,-0.449268,0.0756543,-2.59212
1470242777916442,-0.449235,0.0757688,-2.59214
1470242777937501,-0.449235,0.0757688,-2.59214
1470242777953974,-0.449238,0.0757962,-2.59205
1470242777984048,-0.449238,0.0757962,-2.59205
1470242777997569,-0.449238,0.0757962,-2.59205
1470242778014029,-0.449205,0.0759107,-2.59207
1470242778036563,-0.449205,0.0759107,-2.59207
1470242778057584,-0.449205,0.0759107,-2.59207
1470242778074599,-0.449205,0.0759107,-2.59207
1470242778096599,-0.449079,0.0758774,-2.59204
1470242778118620,-0.449046,0.0759919,-2.59207
1470242778133633,-0.449046,0.0759919,-2.59207
1470242778156153,-0.449046,0.0759919,-2.59207
1470242778178673,-0.449013,0.0761064,-2.59209
1470242778193721,-0.449013,0.0761064,-2.59209
1470242778216209,-0.449013,0.0761064,-2.59209
1470242778238747,-0.449013,0.0761064,-2.59209
1470242778253745,-0.449013,0.0761064,-2.59209
1470242778276277,-0.449013,0.0761064,-2.59209
1470242778298813,-0.449013,0.0761064,-2.59209
1470242778319800,-0.449013,0.0761064,-2.59209
1470242778336317,-0.449013,0.0761064,-2.59209
1470242778358845,-0.44898,0.0762209,-2.59211
1470242778373353,-0.44898,0.0762209,-2.59211
1470242778396369,-0.448983,0.0762484,-2.59202
1470242778418902,-0.448951,0.0763629,-2.59204
1470242778433402,-0.448951,0.0763629,-2.59204
1470242778456437,-0.448951,0.0763629,-2.59204
1470242778461961,-0.448951,0.0763629,-2.59204
1470242778484449,-0.448951,0.0763629,-2.59204
1470242778500962,-0.448918,0.0764774,-2.59206
1470242778522084,-0.449245,0.0762036,-2.59195
1470242778544501,-0.449212,0.0763181,-2.59198
1470242778560520,-0.449212,0.0763181,-2.59198
1470242778581581,-0.449212,0.0763181,-2.59198
1470242778604108,-0.449237,0.0763151,-2.59207
1470242778628079,-0.44911,0.0762817,-2.59204
1470242778642163,-0.44911,0.0762817,-2.59204
1470242778664167,-0.44911,0.0762817,-2.59204
1470242778680674,-0.44911,0.0762817,-2.59204
1470242778701645,-0.449078,0.0763962,-2.59207
1470242778724164,-0.449078,0.0763962,-2.59207
1470242778740680,-0.449078,0.0763962,-2.59207
1470242778761731,-0.449078,0.0763962,-2.59207
1470242778784242,-0.449078,0.0763962,-2.59207
1470242778800732,-0.449078,0.0763962,-2.59207
1470242778821796,-0.449078,0.0763962,-2.59207
1470242778844280,-0.449045,0.0765108,-2.59209
1470242778868294,-0.449048,0.0765382,-2.59199
1470242778881845,-0.449048,0.0765382,-2.59199
1470242778904352,-0.448921,0.0765048,-2.59197
1470242778920883,-0.448921,0.0765048,-2.59197
1470242778941877,-0.448921,0.0765048,-2.59197
1470242778964379,-0.448888,0.0766194,-2.59199
1470242778980894,-0.448888,0.0766194,-2.59199
1470242779001912,-0.448888,0.0766194,-2.59199
1470242779024435,-0.448888,0.0766194,-2.59199
1470242779040447,-0.448888,0.0766194,-2.59199
1470242779061966,-0.448888,0.0766194,-2.59199
1470242779084487,-0.448888,0.0766194,-2.59199
1470242779102540,-0.448888,0.0766194,-2.59199
1470242779122165,-0.448761,0.076586,-2.59196
1470242779144540,-0.448728,0.0767005,-2.59199
1470242779162057,-0.448728,0.0767005,-2.59199
1470242779181579,-0.448728,0.0767005,-2.59199
1470242779204223,-0.448728,0.0767005,-2.59199
1470242779222180,-0.448728,0.0767005,-2.59199
1470242779241752,-0.448728,0.0767005,-2.59199
1470242779264272,-0.448728,0.0767005,-2.59199
1470242779282235,-0.448728,0.0767005,-2.59199
1470242779301783,-0.448696,0.076815,-2.59201
1470242779324315,-0.448696,0.076815,-2.59201
1470242779342353,-0.448696,0.076815,-2.59201
1470242779361804,-0.448696,0.076815,-2.59201
1470242779384325,-0.448004,0.0769036,-2.59243
1470242779402377,-0.447534,0.0771737,-2.59292
1470242779421880,-0.447502,0.0772883,-2.59294
1470242779444410,-0.447502,0.0772883,-2.59294
1470242779462396,-0.44728,0.077626,-2.59289
1470242779481929,-0.446702,0.0778608,-2.59284
1470242779504431,-0.446702,0.0778608,-2.59284
1470242779522448,-0.446702,0.0778608,-2.59284
1470242779541968,-0.446669,0.0779753,-2.59287
1470242779564487,-0.446669,0.0779753,-2.59287
1470242779582003,-0.446669,0.0779753,-2.59287
1470242779604522,-0.446669,0.0779753,-2.59287
1470242779624579,-0.446636,0.0780899,-2.59289
1470242779642665,-0.446636,0.0780899,-2.59289
1470242779661629,-0.446636,0.0780899,-2.59289
1470242779684149,-0.446542,0.077942,-2.59284
1470242779702702,-0.44651,0.0780565,-2.59286
1470242779723131,-0.44651,0.0780565,-2.59286
1470242779744174,-0.44651,0.0780565,-2.59286
1470242779762164,-0.446636,0.0780899,-2.59289
1470242779783184,-0.44651,0.0780565,-2.59286
1470242779804221,-0.44651,0.0780565,-2.59286
1470242779822218,-0.446512,0.0780839,-2.59277
1470242779844766,-0.446353,0.0781651,-2.59276
1470242779864255,-0.447025,0.0780782,-2.59285
1470242779882289,-0.447025,0.0780782,-2.59285
1470242779903295,-0.447025,0.0780782,-2.59285
1470242779924349,-0.447025,0.0780782,-2.59285
1470242779942424,-0.446898,0.0780449,-2.59283
1470242779963362,-0.447058,0.0779637,-2.59283
1470242779984424,-0.447325,0.0779734,-2.59257
1470242780002436,-0.447906,0.0777661,-2.59252
1470242780024940,-0.448454,0.0776734,-2.59248
1470242780044417,-0.448843,0.0776619,-2.59245
1470242780062437,-0.448843,0.0776619,-2.59245
1470242780085006,-0.44897,0.0776952,-2.59247
1470242780104572,-0.44897,0.0776952,-2.59247
1470242780122628,-0.449232,0.0776504,-2.59241
1470242780145155,-0.449656,0.0775518,-2.59226
1470242780164524,-0.449689,0.0774373,-2.59223
1470242780182657,-0.449656,0.0775518,-2.59226
1470242780204594,-0.449656,0.0775518,-2.59226
1470242780224083,-0.449656,0.0775518,-2.59226
1470242780242095,-0.449656,0.0775518,-2.59226
1470242780264614,-0.449656,0.0775518,-2.59226
1470242780284149,-0.449656,0.0775518,-2.59226
1470242780302148,-0.449656,0.0775518,-2.59226
1470242780324711,-0.449623,0.0776664,-2.59228
1470242780344281,-0.449623,0.0776664,-2.59228
1470242780362250,-0.449623,0.0776664,-2.59228
1470242780384782,-0.449623,0.0776664,-2.59228
1470242780404245,-0.449623,0.0776664,-2.59228
1470242780422316,-0.449623,0.0776664,-2.59228
1470242780444776,-0.449623,0.0776664,-2.59228
1470242780464327,-0.449496,0.077633,-2.59225
1470242780482327,-0.449496,0.077633,-2.59225
1470242780504858,-0.449521,0.0776301,-2.59234
1470242780524364,-0.449521,0.0776301,-2.59234
1470242780542428,-0.449489,0.0777446,-2.59237
1470242780564961,-0.449362,0.0777112,-2.59234
1470242780584426,-0.449362,0.0777112,-2.59234
1470242780602443,-0.449362,0.0777112,-2.59234
1470242780624438,-0.449362,0.0777112,-2.59234
1470242780645979,-0.449362,0.0777112,-2.59234
1470242780661975,-0.449329,0.0778257,-2.59236
1470242780684491,-0.449591,0.0777809,-2.5923
1470242780705533,-0.450015,0.0776824,-2.59214
1470242780722644,-0.449982,0.0777969,-2.59217
1470242780744548,-0.449982,0.0777969,-2.59217
1470242780765565,-0.449982,0.0777969,-2.59217
1470242780787099,-0.449982,0.0777969,-2.59217
1470242780809604,-0.449982,0.0777969,-2.59217
1470242780825620,-0.449982,0.0777969,-2.59217
1470242780842176,-0.450142,0.0777158,-2.59217
1470242780864691,-0.450851,0.0775421,-2.59214
1470242780885677,-0.451661,0.0774049,-2.59205
1470242780902187,-0.451756,0.0775527,-2.5921
1470242780923707,-0.451759,0.0775804,-2.592
1470242780945226,-0.451631,0.077547,-2.59197
1470242780960744,-0.451631,0.077547,-2.59197
1470242780983761,-0.451631,0.077547,-2.59197
1470242781006305,-0.451631,0.077547,-2.59197
1470242781020794,-0.451631,0.077547,-2.59197
1470242781043816,-0.451599,0.0776615,-2.592
1470242781066337,-0.451599,0.0776615,-2.592
1470242781080849,-0.451599,0.0776615,-2.592
1470242781103868,-0.451599,0.0776615,-2.592
1470242781126390,-0.451599,0.0776615,-2.592
1470242781140901,-0.451599,0.0776615,-2.592
1470242781163922,-0.451472,0.0776281,-2.59197
1470242781186480,-0.451472,0.0776281,-2.59197
1470242781200457,-0.451472,0.0776281,-2.59197
1470242781223992,-0.451439,0.0777426,-2.59199
1470242781246496,-0.451821,0.0773238,-2.59205
1470242781260509,-0.451821,0.0773238,-2.59205
1470242781284030,-0.451788,0.0774383,-2.59207
1470242781306550,-0.451791,0.0774659,-2.59197
1470242781320563,-0.451664,0.0774325,-2.59195
1470242781343584,-0.451664,0.0774325,-2.59195
1470242781366104,-0.451664,0.0774325,-2.59195
1470242781380619,-0.451664,0.0774325,-2.59195
1470242781403689,-0.451504,0.0775136,-2.59195
1470242781426208,-0.451981,0.0772427,-2.59205
1470242781440670,-0.451856,0.0772369,-2.59193
1470242781463693,-0.451856,0.0772369,-2.59193
1470242781486214,-0.451824,0.0773514,-2.59195
1470242781507731,-0.451824,0.0773514,-2.59195
1470242781523745,-0.451824,0.0773514,-2.59195
1470242781546274,-0.451824,0.0773514,-2.59195
1470242781567300,-0.451824,0.0773514,-2.59195
1470242781583799,-0.451697,0.077318,-2.59192
1470242781606333,-0.451697,0.077318,-2.59192
1470242781627394,-0.452086,0.0773067,-2.59189
1470242781643853,-0.452086,0.0773067,-2.59189
1470242781666374,-0.452086,0.0773067,-2.59189
1470242781687436,-0.452086,0.0773067,-2.59189
1470242781703927,-0.452086,0.0773067,-2.59189
1470242781726427,-0.452086,0.0773067,-2.59189
1470242781747447,-0.452086,0.0773067,-2.59189
1470242781763961,-0.451959,0.0772733,-2.59186
1470242781786482,-0.451959,0.0772733,-2.59186
1470242781807559,-0.451926,0.0773878,-2.59189
1470242781824015,-0.451926,0.0773878,-2.59189
1470242781846536,-0.451959,0.0772733,-2.59186
1470242781869055,-0.451926,0.0773878,-2.59189
1470242781884091,-0.451799,0.0773544,-2.59186
1470242781906106,-0.451799,0.0773544,-2.59186
1470242781928610,-0.451824,0.0773514,-2.59195
1470242781943624,-0.451824,0.0773514,-2.59195
1470242781966143,-0.451697,0.077318,-2.59192
1470242781988664,-0.451697,0.077318,-2.59192
1470242782003676,-0.451697,0.077318,-2.59192
1470242782026236,-0.451697,0.077318,-2.59192
1470242782048735,-0.451697,0.077318,-2.59192
1470242782063230,-0.45154,0.0774267,-2.59182
1470242782086253,-0.45154,0.0774267,-2.59182
1470242782108771,-0.45154,0.0774267,-2.59182
1470242782123315,-0.45154,0.0774267,-2.59182
1470242782146304,-0.45154,0.0774267,-2.59182
1470242782168871,-0.451412,0.0773933,-2.5918
1470242782183339,-0.451732,0.0772312,-2.5918
1470242782206359,-0.451732,0.0772312,-2.5918
1470242782228878,-0.451699,0.0773456,-2.59183
1470242782243397,-0.451699,0.0773456,-2.59183
1470242782266414,-0.451699,0.0773456,-2.59183
1470242782288934,-0.451572,0.0773123,-2.5918
1470242782302954,-0.451572,0.0773123,-2.5918
1470242782326524,-0.451572,0.0773123,-2.5918
1470242782348987,-0.451572,0.0773123,-2.5918
1470242782362998,-0.451994,0.0771865,-2.59174
1470242782386556,-0.451994,0.0771865,-2.59174
1470242782409040,-0.451994,0.0771865,-2.59174
1470242782430059,-0.451997,0.0772141,-2.59164
1470242782446574,-0.451964,0.0773286,-2.59167
1470242782468598,-0.451964,0.0773286,-2.59167
1470242782490196,-0.45187,0.0771807,-2.59162
1470242782506129,-0.45187,0.0771807,-2.59162
1470242782529148,-0.451837,0.0772952,-2.59164
1470242782550186,-0.451837,0.0772952,-2.59164
1470242782566182,-0.45187,0.0771807,-2.59162
1470242782588757,-0.451837,0.0772952,-2.59164
1470242782610247,-0.451837,0.0772952,-2.59164
1470242782626237,-0.45171,0.0772618,-2.59161
1470242782648757,-0.45171,0.0772618,-2.59161
1470242782670275,-0.451583,0.0772284,-2.59159
1470242782686291,-0.451608,0.0772254,-2.59168
1470242782708809,-0.451608,0.0772254,-2.59168
1470242782729862,-0.451608,0.0772254,-2.59168
1470242782746343,-0.451608,0.0772254,-2.59168
1470242782768864,-0.451608,0.0772254,-2.59168
1470242782791387,-0.451481,0.077192,-2.59165
1470242782806397,-0.451448,0.0773065,-2.59168
1470242782828920,-0.451448,0.0773065,-2.59168
1470242782849936,-0.451321,0.0772731,-2.59165
1470242782866452,-0.451448,0.0773065,-2.59168
1470242782888973,-0.451448,0.0773065,-2.59168
1470242782911491,-0.451448,0.0773065,-2.59168
1470242782925525,-0.451321,0.0772731,-2.59165
1470242782949030,-0.451583,0.0772284,-2.59159
1470242782971545,-0.451608,0.0772254,-2.59168
1470242782986558,-0.451583,0.0772284,-2.59159
1470242783009084,-0.451583,0.0772284,-2.59159
1470242783031100,-0.451608,0.0772254,-2.59168
1470242783045620,-0.451608,0.0772254,-2.59168
1470242783069132,-0.451608,0.0772254,-2.59168
1470242783091153,-0.451448,0.0773065,-2.59168
1470242783105676,-0.451608,0.0772254,-2.59168
1470242783128686,-0.451575,0.0773399,-2.5917
1470242783151707,-0.451575,0.0773399,-2.5917
1470242783165738,-0.45155,0.0773429,-2.59161
1470242783188740,-0.45155,0.0773429,-2.59161
1470242783211762,-0.45155,0.0773429,-2.59161
1470242783226276,-0.45155,0.0773429,-2.59161
1470242783248794,-0.45155,0.0773429,-2.59161
1470242783271316,-0.451448,0.0773065,-2.59168
1470242783285829,-0.451415,0.0774209,-2.5917
1470242783308848,-0.451415,0.0774209,-2.5917
1470242783331370,-0.451415,0.0774209,-2.5917
1470242783345889,-0.451418,0.0774486,-2.5916
1470242783368902,-0.451418,0.0774486,-2.5916
1470242783391424,-0.451291,0.0774151,-2.59158
1470242783412466,-0.451291,0.0774151,-2.59158
1470242783428957,-0.451291,0.0774151,-2.59158
1470242783451478,-0.451291,0.0774151,-2.59158
1470242783472555,-0.451291,0.0774151,-2.59158
1470242783489012,-0.451291,0.0774151,-2.59158
1470242783511531,-0.451291,0.0774151,-2.59158
1470242783532549,-0.451291,0.0774151,-2.59158
1470242783549064,-0.451291,0.0774151,-2.59158
1470242783571588,-0.451164,0.0773817,-2.59155
1470242783592616,-0.450644,0.077851,-2.59168
1470242783609117,-0.450644,0.077851,-2.59168
1470242783631640,-0.450644,0.077851,-2.59168
1470242783652662,-0.450644,0.077851,-2.59168
1470242783668671,-0.450644,0.077851,-2.59168
1470242783691226,-0.450611,0.0779655,-2.5917
1470242783712711,-0.450484,0.0779321,-2.59168
1470242783728726,-0.450771,0.0778844,-2.59171
1470242783751247,-0.451003,0.0779817,-2.59157
1470242783772283,-0.451003,0.0779817,-2.59157
1470242783788813,-0.45113,0.0780152,-2.5916
1470242783811301,-0.450527,0.0782525,-2.59146
1470242783833819,-0.450551,0.0782496,-2.59156
1470242783848833,-0.450843,0.0780628,-2.59157
1470242783871381,-0.450843,0.0780628,-2.59157
1470242783899909,-0.450843,0.0780628,-2.59157
1470242783908887,-0.450811,0.0781773,-2.59159
1470242783931407,-0.450813,0.0782049,-2.59149
1470242783953934,-0.450813,0.0782049,-2.59149
1470242783967941,-0.450813,0.0782049,-2.59149
1470242783991468,-0.450813,0.0782049,-2.59149
1470242784013983,-0.450781,0.0783194,-2.59152
1470242784028494,-0.450654,0.0782859,-2.59149
1470242784051517,-0.450654,0.0782859,-2.59149
1470242784074037,-0.450654,0.0782859,-2.59149
1470242784088549,-0.450654,0.0782859,-2.59149
1470242784111569,-0.450654,0.0782859,-2.59149
1470242784134090,-0.450654,0.0782859,-2.59149
1470242784148102,-0.450527,0.0782525,-2.59146
1470242784179132,-0.450494,0.078367,-2.59149
1470242784194143,-0.450494,0.078367,-2.59149
1470242784208165,-0.450494,0.078367,-2.59149
1470242784231677,-0.450494,0.078367,-2.59149
1470242784254196,-0.450494,0.078367,-2.59149
1470242784268268,-0.450392,0.0783307,-2.59155
1470242784291230,-0.450359,0.0784452,-2.59158
1470242784313750,-0.45094,0.0782383,-2.59152
1470242784336305,-0.45094,0.0782383,-2.59152
1470242784351287,-0.45094,0.0782383,-2.59152
1470242784373804,-0.450781,0.0783194,-2.59152
1470242784395402,-0.45117,0.0783081,-2.59148
1470242784411338,-0.451614,0.0781518,-2.59161
1470242784433858,-0.451614,0.0781518,-2.59161
1470242784455379,-0.4512,0.078166,-2.59156
1470242784471425,-0.451202,0.0781936,-2.59146
1470242784493917,-0.451202,0.0781936,-2.59146
1470242784514948,-0.451519,0.0780039,-2.59156
1470242784531446,-0.451392,0.0779705,-2.59153
1470242784553966,-0.45136,0.0780849,-2.59156
1470242784575031,-0.45136,0.0780849,-2.59156
1470242784591501,-0.45136,0.0780849,-2.59156
1470242784614020,-0.45136,0.0780849,-2.59156
1470242784642603,-0.451235,0.0780791,-2.59143
1470242784651556,-0.451235,0.0780791,-2.59143
1470242784674076,-0.451235,0.0780791,-2.59143
1470242784695185,-0.451235,0.0780791,-2.59143
1470242784711618,-0.451235,0.0780791,-2.59143
1470242784734128,-0.451235,0.0780791,-2.59143
1470242784755151,-0.451202,0.0781936,-2.59146
1470242784771661,-0.451202,0.0781936,-2.59146
1470242784793681,-0.451202,0.0781936,-2.59146
1470242784816203,-0.451202,0.0781936,-2.59146
1470242784831222,-0.451075,0.0781602,-2.59143
1470242784853770,-0.451075,0.0781602,-2.59143
1470242784876260,-0.451043,0.0782747,-2.59145
1470242784891268,-0.451075,0.0781602,-2.59143
1470242784913807,-0.451043,0.0782747,-2.59145
1470242784936326,-0.451043,0.0782747,-2.59145
1470242784950832,-0.451043,0.0782747,-2.59145
1470242784973881,-0.450916,0.0782412,-2.59143
1470242785002371,-0.450916,0.0782412,-2.59143
1470242785010876,-0.450908,0.0783528,-2.59154
1470242785033898,-0.45094,0.0782383,-2.59152
1470242785056419,-0.45094,0.0782383,-2.59152
1470242785070430,-0.450813,0.0782049,-2.59149
1470242785093959,-0.45094,0.0782383,-2.59152
1470242785116473,-0.45094,0.0782383,-2.59152
1470242785130484,-0.45094,0.0782383,-2.59152
1470242785154037,-0.450813,0.0782049,-2.59149
1470242785176558,-0.450781,0.0783194,-2.59152
1470242785191038,-0.450781,0.0783194,-2.59152
1470242785214060,-0.450781,0.0783194,-2.59152
1470242785236579,-0.450781,0.0783194,-2.59152
1470242785251103,-0.450781,0.0783194,-2.59152
1470242785274134,-0.450781,0.0783194,-2.59152
1470242785296633,-0.450781,0.0783194,-2.59152
1470242785317654,-0.451078,0.0781878,-2.59133
1470242785334167,-0.450951,0.0781543,-2.59131
1470242785356711,-0.451078,0.0781878,-2.59133
1470242785377723,-0.451078,0.0781878,-2.59133
1470242785393735,-0.450951,0.0781543,-2.59131
1470242785416273,-0.450951,0.0781543,-2.59131
1470242785437259,-0.450951,0.0781543,-2.59131
1470242785453776,-0.450849,0.078118,-2.59137
1470242785476296,-0.450951,0.0781543,-2.59131
1470242785497328,-0.450951,0.0781543,-2.59131
1470242785513828,-0.450951,0.0781543,-2.59131
1470242785536348,-0.450402,0.0782467,-2.59134
1470242785557410,-0.450402,0.0782467,-2.59134
1470242785573914,-0.450402,0.0782467,-2.59134
1470242785596412,-0.450402,0.0782467,-2.59134
1470242785617440,-0.450402,0.0782467,-2.59134
1470242785633936,-0.450435,0.0781322,-2.59132
1470242785656458,-0.450402,0.0782467,-2.59134
1470242785677492,-0.450402,0.0782467,-2.59134
1470242785694030,-0.450402,0.0782467,-2.59134
1470242785716512,-0.450435,0.0781322,-2.59132
1470242785739084,-0.450435,0.0781322,-2.59132
1470242785753543,-0.450402,0.0782467,-2.59134
1470242785776595,-0.450402,0.0782467,-2.59134
1470242785799114,-0.450402,0.0782467,-2.59134
1470242785814126,-0.450435,0.0781322,-2.59132
1470242785836618,-0.450402,0.0782467,-2.59134
1470242785859146,-0.450402,0.0782467,-2.59134
1470242785873151,-0.450402,0.0782467,-2.59134
1470242785896671,-0.450402,0.0782467,-2.59134
1470242785919192,-0.450402,0.0782467,-2.59134
1470242785933206,-0.450402,0.0782467,-2.59134
1470242785956269,-0.450402,0.0782467,-2.59134
1470242785978748,-0.4503,0.0782103,-2.5914
1470242785993260,-0.45046,0.0781292,-2.59141
1470242786016279,-0.450432,0.0781046,-2.59141
1470242786038799,-0.45046,0.0781292,-2.59141
1470242786053345,-0.45033,0.0780683,-2.59148
1470242786060821,-0.450333,0.0780958,-2.59138
1470242786081893,-0.450333,0.0780958,-2.59138
1470242786104373,-0.450333,0.0780958,-2.59138
1470242786120873,-0.4503,0.0782103,-2.5914
1470242786141933,-0.4503,0.0782103,-2.5914
1470242786164466,-0.4503,0.0782103,-2.5914
1470242786180958,-0.4503,0.0782103,-2.5914
1470242786201996,-0.4503,0.0782103,-2.5914
1470242786224560,-0.4503,0.0782103,-2.5914
1470242786241003,-0.4503,0.0782103,-2.5914
1470242786262035,-0.4503,0.0782103,-2.5914
1470242786284547,-0.450402,0.0782467,-2.59134
1470242786308041,-0.450402,0.0782467,-2.59134
1470242786322101,-0.450402,0.0782467,-2.59134
1470242786344574,-0.450402,0.0782467,-2.59134
1470242786361088,-0.450402,0.0782467,-2.59134
1470242786382139,-0.450402,0.0782467,-2.59134
1470242786404629,-0.450402,0.0782467,-2.59134
1470242786420642,-0.450402,0.0782467,-2.59134
1470242786441679,-0.450402,0.0782467,-2.59134
1470242786464682,-0.450432,0.0781046,-2.59141
1470242786480698,-0.450435,0.0781322,-2.59132
1470242786502252,-0.450402,0.0782467,-2.59134
1470242786524266,-0.450402,0.0782467,-2.59134
1470242786540750,-0.450432,0.0781046,-2.59141
1470242786561769,-0.450432,0.0781046,-2.59141
1470242786584309,-0.450432,0.0781046,-2.59141
1470242786600805,-0.450432,0.0781046,-2.59141
1470242786621889,-0.450432,0.0781046,-2.59141
1470242786644406,-0.450432,0.0781046,-2.59141
1470242786662388,-0.450432,0.0781046,-2.59141
1470242786681919,-0.450432,0.0781046,-2.59141
1470242786704428,-0.450432,0.0781046,-2.59141
1470242786722457,-0.450432,0.0781046,-2.59141
1470242786741974,-0.450432,0.0781046,-2.59141
1470242786764453,-0.450432,0.0781046,-2.59141
1470242786782481,-0.450432,0.0781046,-2.59141
1470242786802020,-0.450432,0.0781046,-2.59141
1470242786824505,-0.450432,0.0781046,-2.59141
1470242786842643,-0.450465,0.0779901,-2.59139
1470242786862043,-0.450465,0.0779901,-2.59139
1470242786884559,-0.450432,0.0781046,-2.59141
1470242786902575,-0.450754,0.0779701,-2.59132
1470242786922123,-0.450881,0.0780035,-2.59135
1470242786953153,-0.450881,0.0780035,-2.59135
1470242786962129,-0.450881,0.0780035,-2.59135
1470242786982146,-0.450881,0.0780035,-2.59135
1470242787004666,-0.450881,0.0780035,-2.59135
1470242787022771,-0.450881,0.0780035,-2.59135
1470242787041726,-0.450881,0.0780035,-2.59135
1470242787064222,-0.450881,0.0780035,-2.59135
1470242787082241,-0.450881,0.0780035,-2.59135
1470242787101782,-0.450881,0.0780035,-2.59135
1470242787124274,-0.450881,0.0780035,-2.59135
1470242787142335,-0.450435,0.0781322,-2.59132
1470242787161863,-0.450435,0.0781322,-2.59132
1470242787184358,-0.450435,0.0781322,-2.59132
1470242787202361,-0.450432,0.0781046,-2.59141
1470242787221879,-0.450435,0.0781322,-2.59132
1470242787244408,-0.450432,0.0781046,-2.59141
1470242787262416,-0.450435,0.0781322,-2.59132
1470242787283419,-0.450432,0.0781046,-2.59141
1470242787304453,-0.450559,0.078138,-2.59144
1470242787322538,-0.450432,0.0781046,-2.59141
1470242787343517,-0.450432,0.0781046,-2.59141
1470242787364513,-0.450432,0.0781046,-2.59141
1470242787382506,-0.450432,0.0781046,-2.59141
1470242787403525,-0.450432,0.0781046,-2.59141
1470242787424543,-0.450435,0.0781322,-2.59132
1470242787442559,-0.450435,0.0781322,-2.59132
1470242787463582,-0.450435,0.0781322,-2.59132
1470242787484597,-0.450432,0.0781046,-2.59141
1470242787510120,-0.450432,0.0781046,-2.59141
1470242787523132,-0.450432,0.0781046,-2.59141
1470242787544206,-0.450432,0.0781046,-2.59141
1470242787562198,-0.450432,0.0781046,-2.59141
1470242787583186,-0.450435,0.0781322,-2.59132
1470242787604206,-0.450435,0.0781322,-2.59132
1470242787622244,-0.450435,0.0781322,-2.59132
1470242787644819,-0.450435,0.0781322,-2.59132
1470242787664261,-0.450559,0.078138,-2.59144
1470242787682277,-0.450043,0.0781159,-2.59145
1470242787704851,-0.449337,0.0783169,-2.59138
1470242787724334,-0.449337,0.0783169,-2.59138
1470242787742360,-0.449337,0.0783169,-2.59138
1470242787764869,-0.449305,0.0784314,-2.59141
1470242787787413,-0.449305,0.0784314,-2.59141
1470242787802385,-0.449337,0.0783169,-2.59138
1470242787824945,-0.449337,0.0783169,-2.59138
1470242787844446,-0.449337,0.0783169,-2.59138
1470242787862496,-0.449337,0.0783169,-2.59138
1470242787885047,-0.449337,0.0783169,-2.59138
1470242787904510,-0.449337,0.0783169,-2.59138
1470242787927041,-0.449305,0.0784314,-2.59141
1470242787945031,-0.449305,0.0784314,-2.59141
1470242787972035,-0.449337,0.0783169,-2.59138
1470242787982587,-0.449305,0.0784314,-2.59141
1470242788005066,-0.449305,0.0784314,-2.59141
1470242788024616,-0.449337,0.0783169,-2.59138
1470242788042634,-0.449362,0.078314,-2.59147
1470242788064619,-0.449337,0.0783169,-2.59138
1470242788084673,-0.449305,0.0784314,-2.59141
1470242788102783,-0.449362,0.078314,-2.59147
1470242788124718,-0.449337,0.0783169,-2.59138
1470242788144245,-0.449337,0.0783169,-2.59138
1470242788162249,-0.449337,0.0783169,-2.59138
1470242788184767,-0.449337,0.0783169,-2.59138
1470242788204256,-0.449337,0.0783169,-2.59138
1470242788222315,-0.449337,0.0783169,-2.59138
1470242788244847,-0.449337,0.0783169,-2.59138
1470242788265813,-0.449337,0.0783169,-2.59138
1470242788282314,-0.449337,0.0783169,-2.59138
1470242788304862,-0.449337,0.0783169,-2.59138
1470242788325856,-0.449337,0.0783169,-2.59138
1470242788342400,-0.449464,0.0783503,-2.59141
1470242788364930,-0.449462,0.0783228,-2.59151
1470242788385908,-0.449462,0.0783228,-2.59151
1470242788402491,-0.449462,0.0783228,-2.59151
1470242788425044,-0.449462,0.0783228,-2.59151
1470242788447515,-0.449462,0.0783228,-2.59151
1470242788462554,-0.449462,0.0783228,-2.59151
1470242788485002,-0.449462,0.0783228,-2.59151
1470242788506014,-0.449462,0.0783228,-2.59151
1470242788521028,-0.449462,0.0783228,-2.59151
1470242788544052,-0.449781,0.0781606,-2.59151
1470242788566571,-0.449781,0.0781606,-2.59151
1470242788581082,-0.449781,0.0781606,-2.59151
1470242788604103,-0.449814,0.0780461,-2.59149
1470242788626624,-0.449814,0.0780461,-2.59149
1470242788640635,-0.449814,0.0780461,-2.59149
1470242788664156,-0.449814,0.0780461,-2.59149
1470242788686191,-0.449814,0.0780461,-2.59149
1470242788700691,-0.449781,0.0781606,-2.59151
1470242788723709,-0.449781,0.0781606,-2.59151
1470242788746730,-0.449781,0.0781606,-2.59151
1470242788760743,-0.449908,0.0781941,-2.59154
1470242788783764,-0.449781,0.0781606,-2.59151
1470242788806286,-0.449781,0.0781606,-2.59151
1470242788820797,-0.449781,0.0781606,-2.59151
1470242788843820,-0.449814,0.0780461,-2.59149
1470242788866338,-0.449814,0.0780461,-2.59149
1470242788880870,-0.449781,0.0781606,-2.59151
1470242788903872,-0.449908,0.0781941,-2.59154
1470242788926392,-0.449908,0.0781941,-2.59154
1470242788940904,-0.449781,0.0781606,-2.59151
1470242788963926,-0.449781,0.0781606,-2.59151
1470242788986445,-0.449781,0.0781606,-2.59151
1470242789000980,-0.449781,0.0781606,-2.59151
1470242789023982,-0.449781,0.0781606,-2.59151
1470242789046502,-0.449781,0.0781606,-2.59151
1470242789067587,-0.449781,0.0781606,-2.59151
1470242789084033,-0.449781,0.0781606,-2.59151
1470242789106556,-0.449781,0.0781606,-2.59151
1470242789127572,-0.449781,0.0781606,-2.59151
1470242789144088,-0.449781,0.0781606,-2.59151
1470242789166607,-0.449781,0.0781606,-2.59151
1470242789187680,-0.449814,0.0780461,-2.59149
1470242789204141,-0.449781,0.0781606,-2.59151
1470242789226676,-0.449781,0.0781606,-2.59151
1470242789247735,-0.449781,0.0781606,-2.59151
1470242789264195,-0.449781,0.0781606,-2.59151
1470242789286741,-0.449781,0.0781606,-2.59151
1470242789307743,-0.449781,0.0781606,-2.59151
1470242789323748,-0.449784,0.0781882,-2.59141
1470242789346269,-0.449751,0.0783027,-2.59144
1470242789367788,-0.450308,0.0780988,-2.59129
1470242789384303,-0.450435,0.0781322,-2.59132
1470242789406345,-0.450308,0.0780988,-2.59129
1470242789427342,-0.450275,0.0782132,-2.59131
1470242789451363,-0.4503,0.0782103,-2.5914
1470242789466379,-0.450275,0.0782132,-2.59131
1470242789487451,-0.450275,0.0782132,-2.59131
1470242789503910,-0.450402,0.0782467,-2.59134
1470242789526454,-0.450402,0.0782467,-2.59134
1470242789548953,-0.450402,0.0782467,-2.59134
1470242789563966,-0.450402,0.0782467,-2.59134
1470242789586485,-0.450402,0.0782467,-2.59134
1470242789609005,-0.450402,0.0782467,-2.59134
1470242789624018,-0.450275,0.0782132,-2.59131
1470242789646541,-0.450402,0.0782467,-2.59134
1470242789669061,-0.450402,0.0782467,-2.59134
1470242789683072,-0.450402,0.0782467,-2.59134
1470242789706628,-0.450275,0.0782132,-2.59131
1470242789729112,-0.450242,0.0783277,-2.59134
1470242789743125,-0.450275,0.0782132,-2.59131
1470242789766649,-0.450275,0.0782132,-2.59131
1470242789788713,-0.4503,0.0782103,-2.5914
1470242789803180,-0.4503,0.0782103,-2.5914
1470242789826206,-0.4503,0.0782103,-2.5914
1470242789849239,-0.4503,0.0782103,-2.5914
1470242789863233,-0.4503,0.0782103,-2.5914
1470242789886281,-0.450267,0.0783248,-2.59143
1470242789909275,-0.450267,0.0783248,-2.59143
1470242789923313,-0.450267,0.0783248,-2.59143
1470242789946815,-0.450267,0.0783248,-2.59143
1470242789968849,-0.450267,0.0783248,-2.59143
1470242789983343,-0.450267,0.0783248,-2.59143
1470242790006363,-0.450267,0.0783248,-2.59143
1470242790028882,-0.450267,0.0783248,-2.59143
1470242790049915,-0.450267,0.0783248,-2.59143
1470242790066416,-0.450267,0.0783248,-2.59143
1470242790088937,-0.450267,0.0783248,-2.59143
1470242790109969,-0.450267,0.0783248,-2.59143
1470242790126469,-0.450267,0.0783248,-2.59143
1470242790148991,-0.450267,0.0783248,-2.59143
1470242790170010,-0.450235,0.0784393,-2.59145
1470242790186524,-0.450626,0.0784556,-2.59132
1470242790209046,-0.450626,0.0784556,-2.59132
1470242790230062,-0.450626,0.0784556,-2.59132
1470242790246578,-0.450626,0.0784556,-2.59132
1470242790275104,-0.450626,0.0784556,-2.59132
1470242790290117,-0.451018,0.0784719,-2.59119
1470242790306631,-0.451018,0.0784719,-2.59119
1470242790329152,-0.451018,0.0784719,-2.59119
1470242790351172,-0.450985,0.0785864,-2.59121
1470242790366184,-0.45096,0.0785893,-2.59112
1470242790389205,-0.451088,0.0786228,-2.59114
1470242790410253,-0.45096,0.0785893,-2.59112
1470242790426739,-0.45096,0.0785893,-2.59112
1470242790449259,-0.450985,0.0785864,-2.59121
1470242790471802,-0.450985,0.0785864,-2.59121
1470242790486306,-0.450985,0.0785864,-2.59121
1470242790509314,-0.450858,0.078553,-2.59118
1470242790531335,-0.450858,0.078553,-2.59118
1470242790546347,-0.450858,0.078553,-2.59118
1470242790568886,-0.450826,0.0786675,-2.59121
1470242790591389,-0.450858,0.078553,-2.59118
1470242790606400,-0.450858,0.078553,-2.59118
1470242790628920,-0.450826,0.0786675,-2.59121
1470242790651442,-0.450826,0.0786675,-2.59121
1470242790665954,-0.450826,0.0786675,-2.59121
1470242790688974,-0.450826,0.0786675,-2.59121
1470242790717553,-0.450826,0.0786675,-2.59121
1470242790726008,-0.450826,0.0786675,-2.59121
1470242790749029,-0.450699,0.078634,-2.59118
1470242790771552,-0.451058,0.0787649,-2.59107
1470242790785562,-0.451058,0.0787649,-2.59107
1470242790809122,-0.451058,0.0787649,-2.59107
1470242790831602,-0.451058,0.0787649,-2.59107
1470242790846115,-0.451058,0.0787649,-2.59107
1470242790869137,-0.451058,0.0787649,-2.59107
1470242790891659,-0.451058,0.0787649,-2.59107
1470242790905669,-0.451058,0.0787649,-2.59107
1470242790929192,-0.451058,0.0787649,-2.59107
1470242790951742,-0.451058,0.0787649,-2.59107
1470242790972732,-0.451058,0.0787649,-2.59107
1470242790988753,-0.451185,0.0787983,-2.5911
1470242791011764,-0.451152,0.0789128,-2.59112
1470242791032784,-0.451152,0.0789128,-2.59112
1470242791048855,-0.451152,0.0789128,-2.59112
1470242791071318,-0.451185,0.0787983,-2.5911
1470242791092837,-0.451152,0.0789128,-2.59112
1470242791116372,-0.451152,0.0789128,-2.59112
1470242791131372,-0.451152,0.0789128,-2.59112
1470242791152994,-0.451279,0.0789462,-2.59115
1470242791169505,-0.451152,0.0789128,-2.59112
1470242791191524,-0.451279,0.0789462,-2.59115
1470242791212631,-0.451279,0.0789462,-2.59115
1470242791229058,-0.451152,0.0789128,-2.59112
1470242791251578,-0.451152,0.0789128,-2.59112
1470242791272622,-0.451152,0.0789128,-2.59112
1470242791289109,-0.451152,0.0789128,-2.59112
1470242791311641,-0.451119,0.0790273,-2.59114
1470242791332648,-0.451247,0.0790607,-2.59117
1470242791356670,-0.451119,0.0790273,-2.59114
1470242791371736,-0.451119,0.0790273,-2.59114
1470242791392791,-0.451119,0.0790273,-2.59114
1470242791408218,-0.451119,0.0790273,-2.59114
1470242791431737,-0.451119,0.0790273,-2.59114
1470242791454257,-0.451119,0.0790273,-2.59114
1470242791469271,-0.451119,0.0790273,-2.59114
1470242791491300,-0.451119,0.0790273,-2.59114
1470242791514312,-0.451119,0.0790273,-2.59114
1470242791528825,-0.451119,0.0790273,-2.59114
1470242791551345,-0.451119,0.0790273,-2.59114
1470242791573865,-0.451119,0.0790273,-2.59114
1470242791588378,-0.451349,0.0790971,-2.59111
1470242791611411,-0.452182,0.0789296,-2.5912
1470242791633921,-0.452182,0.0789296,-2.5912
1470242791648442,-0.452182,0.0789296,-2.5912
1470242791671953,-0.452149,0.0790441,-2.59122
1470242791694001,-0.452149,0.0790441,-2.59122
1470242791708491,-0.452149,0.0790441,-2.59122
1470242791731508,-0.452309,0.0789631,-2.59123
1470242791754045,-0.452309,0.0789631,-2.59123
1470242791768540,-0.452149,0.0790441,-2.59122
1470242791791602,-0.452149,0.0790441,-2.59122
1470242791814083,-0.452182,0.0789296,-2.5912
1470242791828094,-0.452149,0.0790441,-2.59122
1470242791851615,-0.452149,0.0790441,-2.59122
1470242791874135,-0.452149,0.0790441,-2.59122
1470242791888649,-0.452149,0.0790441,-2.59122
1470242791911670,-0.452149,0.0790441,-2.59122
1470242791934191,-0.452149,0.0790441,-2.59122
1470242791955207,-0.452149,0.0790441,-2.59122
1470242791971222,-0.452152,0.0790718,-2.59113
1470242791994248,-0.452025,0.0790383,-2.5911
1470242792015266,-0.452152,0.0790718,-2.59113
1470242792031796,-0.452025,0.0790383,-2.5911
1470242792054296,-0.451992,0.0791528,-2.59112
1470242792075316,-0.451992,0.0791528,-2.59112
1470242792091832,-0.451992,0.0791528,-2.59112
1470242792113850,-0.451992,0.0791528,-2.59112
1470242792134869,-0.451992,0.0791528,-2.59112
1470242792151432,-0.451992,0.0791528,-2.59112
1470242792173906,-0.451992,0.0791528,-2.59112
1470242792195423,-0.451992,0.0791528,-2.59112
1470242792211438,-0.451992,0.0791528,-2.59112
1470242792233958,-0.451992,0.0791528,-2.59112
1470242792255019,-0.451992,0.0791528,-2.59112
1470242792271498,-0.451992,0.0791528,-2.59112
1470242792294014,-0.451992,0.0791528,-2.59112
1470242792315084,-0.451992,0.0791528,-2.59112
1470242792331559,-0.451992,0.0791528,-2.59112
1470242792354110,-0.451728,0.0791698,-2.59128
1470242792376588,-0.450987,0.0789386,-2.59131
1470242792391636,-0.450303,0.0791091,-2.59143
1470242792414120,-0.450303,0.0791091,-2.59143
1470242792436657,-0.45081,0.0786963,-2.59161
1470242792451655,-0.45081,0.0786963,-2.59161
1470242792474178,-0.450259,0.0787611,-2.59174
1470242792504203,-0.450261,0.0787886,-2.59165
1470242792511208,-0.450261,0.0787886,-2.59165
1470242792534227,-0.450261,0.0787886,-2.59165
1470242792556763,-0.450259,0.0787611,-2.59174
1470242792570760,-0.450134,0.0787552,-2.59162
1470242792594281,-0.450007,0.0787218,-2.59159
1470242792616820,-0.450396,0.0787105,-2.59156
1470242792630815,-0.450947,0.0786457,-2.59143
1470242792653885,-0.450947,0.0786457,-2.59143
1470242792676355,-0.450915,0.0787602,-2.59145
1470242792697901,-0.450915,0.0787602,-2.59145
1470242792713891,-0.450915,0.0787602,-2.59145
1470242792736438,-0.450788,0.0787268,-2.59142
1470242792750927,-0.451277,0.0789186,-2.59124
1470242792773945,-0.451573,0.0793061,-2.59108
1470242792796463,-0.452161,0.0795069,-2.59094
1470242792810978,-0.452521,0.0796379,-2.59083
1470242792833997,-0.452648,0.0796714,-2.59085
1470242792856519,-0.452648,0.0796714,-2.59085
1470242792877561,-0.452648,0.0796714,-2.59085
1470242792894052,-0.452648,0.0796714,-2.59085
1470242792916571,-0.452648,0.0796714,-2.59085
1470242792937619,-0.452648,0.0796714,-2.59085
1470242792954106,-0.452775,0.0797048,-2.59088
1470242792976661,-0.452648,0.0796714,-2.59085
1470242792997702,-0.452648,0.0796714,-2.59085
1470242793014190,-0.452648,0.0796714,-2.59085
1470242793036678,-0.452648,0.0796714,-2.59085
1470242793059199,-0.452648,0.0796714,-2.59085
1470242793074225,-0.452648,0.0796714,-2.59085
1470242793096733,-0.452775,0.0797048,-2.59088
1470242793117753,-0.45275,0.0797077,-2.59079
1470242793134267,-0.452099,0.0797635,-2.59089
1470242793156380,-0.451318,0.0797582,-2.59105
1470242793177443,-0.451318,0.0797582,-2.59105
1470242793194414,-0.451318,0.0797582,-2.59105
1470242793216434,-0.451318,0.0797582,-2.59105
1470242793237455,-0.450797,0.0796807,-2.59126
1470242793253968,-0.4503,0.0796005,-2.59155
1470242793276490,-0.450303,0.0796281,-2.59146
1470242793297508,-0.450303,0.0796281,-2.59146
1470242793314022,-0.450303,0.0796281,-2.59146
1470242793337044,-0.450303,0.0796281,-2.59146
1470242793359064,-0.450303,0.0796281,-2.59146
1470242793374076,-0.450303,0.0796281,-2.59146
1470242793396598,-0.450303,0.0796281,-2.59146
1470242793409622,-0.450176,0.0795946,-2.59143
1470242793434132,-0.450176,0.0795946,-2.59143
1470242793456685,-0.450143,0.0797091,-2.59145
1470242793479171,-0.450143,0.0797091,-2.59145
1470242793493183,-0.450176,0.0795946,-2.59143
1470242793516727,-0.450176,0.0795946,-2.59143
1470242793539224,-0.450143,0.0797091,-2.59145
1470242793553238,-0.450143,0.0797091,-2.59145
1470242793576757,-0.450143,0.0797091,-2.59145
1470242793599286,-0.450143,0.0797091,-2.59145
1470242793613791,-0.450143,0.0797091,-2.59145
1470242793642818,-0.450143,0.0797091,-2.59145
1470242793658836,-0.450143,0.0797091,-2.59145
1470242793664861,-0.450143,0.0797091,-2.59145
1470242793680851,-0.450143,0.0797091,-2.59145
1470242793701889,-0.45011,0.0798236,-2.59148
1470242793724403,-0.450143,0.0797091,-2.59145
1470242793740908,-0.45011,0.0798236,-2.59148
1470242793769447,-0.450143,0.0797091,-2.59145
1470242793784488,-0.450143,0.0797091,-2.59145
1470242793800997,-0.450143,0.0797091,-2.59145
1470242793822022,-0.450143,0.0797091,-2.59145
1470242793844567,-0.450143,0.0797091,-2.59145
1470242793861015,-0.450143,0.0797091,-2.59145
1470242793883535,-0.450143,0.0797091,-2.59145
1470242793904554,-0.450143,0.0797091,-2.59145
1470242793921067,-0.450143,0.0797091,-2.59145
1470242793942116,-0.450143,0.0797091,-2.59145
1470242793964607,-0.450143,0.0797091,-2.59145
1470242793982623,-0.45011,0.0798236,-2.59148
1470242794002141,-0.450143,0.0797091,-2.59145
1470242794024660,-0.45011,0.0798236,-2.59148
1470242794047180,-0.45011,0.0798236,-2.59148
1470242794062283,-0.45011,0.0798236,-2.59148
1470242794084730,-0.45011,0.0798236,-2.59148
1470242794100728,-0.45011,0.0798236,-2.59148
1470242794121800,-0.45011,0.0798236,-2.59148
1470242794144267,-0.45011,0.0798236,-2.59148
1470242794160782,-0.45011,0.0798236,-2.59148
1470242794182302,-0.450499,0.0798123,-2.59144
1470242794204826,-0.450499,0.0798123,-2.59144
1470242794220844,-0.449951,0.0799047,-2.59147
1470242794241857,-0.449824,0.0798712,-2.59145
1470242794264375,-0.449824,0.0798712,-2.59145
1470242794282392,-0.449824,0.0798712,-2.59145
1470242794301911,-0.449951,0.0799047,-2.59147
1470242794324454,-0.449951,0.0799047,-2.59147
1470242794342446,-0.449951,0.0799047,-2.59147
1470242794361963,-0.449824,0.0798712,-2.59145
1470242794384483,-0.449824,0.0798712,-2.59145
1470242794402507,-0.449824,0.0798712,-2.59145
1470242794422034,-0.449824,0.0798712,-2.59145
1470242794444538,-0.449824,0.0798712,-2.59145
1470242794462644,-0.449824,0.0798712,-2.59145
1470242794482071,-0.449435,0.0798826,-2.59148
1470242794504590,-0.449435,0.0798826,-2.59148
1470242794522607,-0.449275,0.0799636,-2.59148
1470242794542143,-0.449794,0.0800133,-2.59137
1470242794564645,-0.450058,0.0799961,-2.59121
1470242794582661,-0.450058,0.0799961,-2.59121
1470242794602179,-0.450058,0.0799961,-2.59121
1470242794624774,-0.450058,0.0799961,-2.59121
1470242794642229,-0.450058,0.0799961,-2.59121
1470242794662291,-0.450323,0.079979,-2.59105
1470242794684254,-0.450714,0.0799953,-2.59092
1470242794702268,-0.450714,0.0799953,-2.59092
1470242794722296,-0.450841,0.0800288,-2.59095
1470242794744840,-0.450841,0.0800288,-2.59095
1470242794762444,-0.450714,0.0799953,-2.59092
1470242794781840,-0.450682,0.0801098,-2.59095
1470242794804363,-0.450714,0.0799953,-2.59092
1470242794822378,-0.450714,0.0799953,-2.59092
1470242794841895,-0.450714,0.0799953,-2.59092
1470242794864416,-0.450682,0.0801098,-2.59095
1470242794882431,-0.450682,0.0801098,-2.59095
1470242794903449,-0.450682,0.0801098,-2.59095
1470242794924483,-0.450682,0.0801098,-2.59095
1470242794942502,-0.450682,0.0801098,-2.59095
1470242794963557,-0.450165,0.0800876,-2.59095
1470242794984540,-0.450133,0.0802021,-2.59098
1470242795003041,-0.450645,0.0798445,-2.59096
1470242795023563,-0.450517,0.0798111,-2.59094
1470242795044656,-0.450517,0.0798111,-2.59094
1470242795062640,-0.450517,0.0798111,-2.59094
1470242795083610,-0.450517,0.0798111,-2.59094
1470242795107696,-0.450517,0.0798111,-2.59094
1470242795122646,-0.45039,0.0797776,-2.59091
1470242795143665,-0.45039,0.0797776,-2.59091
1470242795164687,-0.45039,0.0797776,-2.59091
1470242795190228,-0.450358,0.0798921,-2.59093
1470242795204720,-0.45039,0.0797776,-2.59091
1470242795224858,-0.450358,0.0798921,-2.59093
1470242795242278,-0.450358,0.0798921,-2.59093
1470242795264774,-0.450358,0.0798921,-2.59093
1470242795284381,-0.450358,0.0798921,-2.59093
1470242795302377,-0.450231,0.0798586,-2.59091
1470242795324829,-0.450231,0.0798586,-2.59091
1470242795344362,-0.450231,0.0798586,-2.59091
1470242795362421,-0.450198,0.0799731,-2.59093
1470242795384929,-0.450231,0.0798586,-2.59091
1470242795404401,-0.450231,0.0798586,-2.59091
1470242795422418,-0.450231,0.0798586,-2.59091
1470242795444935,-0.450231,0.0798586,-2.59091
1470242795464454,-0.450198,0.0799731,-2.59093
1470242795482471,-0.450198,0.0799731,-2.59093
1470242795505019,-0.450198,0.0799731,-2.59093
1470242795524563,-0.450198,0.0799731,-2.59093
1470242795542619,-0.450198,0.0799731,-2.59093
1470242795565043,-0.450071,0.0799396,-2.5909
1470242795584621,-0.450071,0.0799396,-2.5909
1470242795602609,-0.450074,0.0799672,-2.59081
1470242795625129,-0.450071,0.0799396,-2.5909
1470242795644614,-0.450074,0.0799672,-2.59081
1470242795662632,-0.450098,0.0799643,-2.5909
1470242795685151,-0.449939,0.0800453,-2.59089
1470242795704668,-0.449939,0.0800453,-2.59089
1470242795722685,-0.449971,0.0799309,-2.59087
1470242795745229,-0.449971,0.0799309,-2.59087
1470242795767225,-0.449971,0.0799309,-2.59087
1470242795782278,-0.449939,0.0800453,-2.59089
1470242795804768,-0.450393,0.0798052,-2.59081
1470242795833286,-0.450688,0.079646,-2.59073
1470242795842841,-0.450655,0.0797605,-2.59075
1470242795864813,-0.450655,0.0797605,-2.59075
1470242795885831,-0.450655,0.0797605,-2.59075
1470242795902347,-0.450655,0.0797605,-2.59075
1470242795924925,-0.450528,0.079727,-2.59072
1470242795945885,-0.450528,0.079727,-2.59072
1470242795962453,-0.450528,0.079727,-2.59072
1470242795984978,-0.450528,0.079727,-2.59072
1470242796005939,-0.450655,0.0797605,-2.59075
1470242796022497,-0.450528,0.079727,-2.59072
1470242796044983,-0.450528,0.079727,-2.59072
1470242796067496,-0.450528,0.079727,-2.59072
1470242796082508,-0.450528,0.079727,-2.59072
1470242796112535,-0.450528,0.079727,-2.59072
1470242796126050,-0.45056,0.0796126,-2.5907
1470242796141060,-0.450528,0.079727,-2.59072
1470242796164081,-0.450528,0.079727,-2.59072
1470242796186601,-0.450528,0.079727,-2.59072
1470242796201114,-0.45056,0.0796126,-2.5907
1470242796224137,-0.45056,0.0796126,-2.5907
1470242796246677,-0.450528,0.079727,-2.59072
1470242796267763,-0.450528,0.079727,-2.59072
1470242796284191,-0.450528,0.079727,-2.59072
1470242796306709,-0.450528,0.079727,-2.59072
1470242796320722,-0.450528,0.079727,-2.59072
1470242796344245,-0.450553,0.0797242,-2.59082
1470242796366765,-0.450553,0.0797242,-2.59082
1470242796380775,-0.450426,0.0796907,-2.59079
1470242796404301,-0.450426,0.0796907,-2.59079
1470242796434325,-0.450426,0.0796907,-2.59079
1470242796440830,-0.450426,0.0796907,-2.59079
1470242796464351,-0.450426,0.0796907,-2.59079
1470242796494378,-0.450553,0.0797242,-2.59082
1470242796500885,-0.450426,0.0796907,-2.59079
1470242796524405,-0.450426,0.0796907,-2.59079
1470242796546425,-0.450393,0.0798052,-2.59081
1470242796561438,-0.450393,0.0798052,-2.59081
1470242796583960,-0.450426,0.0796907,-2.59079
1470242796606480,-0.450393,0.0798052,-2.59081
1470242796620991,-0.450393,0.0798052,-2.59081
1470242796644012,-0.45053,0.0797546,-2.59063
1470242796666532,-0.45053,0.0797546,-2.59063
1470242796688102,-0.45053,0.0797546,-2.59063
1470242796704068,-0.45053,0.0797546,-2.59063
1470242796726586,-0.45053,0.0797546,-2.59063
1470242796747605,-0.45053,0.0797546,-2.59063
1470242796764620,-0.45053,0.0797546,-2.59063
1470242796786654,-0.45053,0.0797546,-2.59063
1470242796807749,-0.45053,0.0797546,-2.59063
1470242796824176,-0.45053,0.0797546,-2.59063
1470242796854203,-0.45053,0.0797546,-2.59063
1470242796867730,-0.450403,0.0797211,-2.5906
1470242796884264,-0.450371,0.0798356,-2.59062
1470242796906750,-0.450371,0.0798356,-2.59062
1470242796928270,-0.450817,0.0797071,-2.59066
1470242796944782,-0.45085,0.0795927,-2.59063
1470242796966804,-0.45085,0.0795927,-2.59063
1470242796987859,-0.45069,0.0796736,-2.59063
1470242797004336,-0.45069,0.0796736,-2.59063
1470242797026855,-0.45069,0.0796736,-2.59063
1470242797049376,-0.45069,0.0796736,-2.59063
1470242797064389,-0.45069,0.0796736,-2.59063
1470242797086909,-0.45069,0.0796736,-2.59063
1470242797108967,-0.45069,0.0796736,-2.59063
1470242797131450,-0.45069,0.0796736,-2.59063
1470242797146464,-0.45069,0.0796736,-2.59063
1470242797168984,-0.450563,0.0796402,-2.5906
1470242797183997,-0.450563,0.0796402,-2.5906
1470242797206517,-0.450566,0.0796677,-2.59051
1470242797229037,-0.450533,0.0797822,-2.59053
1470242797244051,-0.450566,0.0796677,-2.59051
1470242797266571,-0.450566,0.0796677,-2.59051
1470242797289120,-0.450533,0.0797822,-2.59053
1470242797303604,-0.450533,0.0797822,-2.59053
1470242797326668,-0.450533,0.0797822,-2.59053
1470242797349145,-0.450236,0.0799138,-2.59071
1470242797363658,-0.449654,0.0801204,-2.59077
1470242797386679,-0.449654,0.0801204,-2.59077
1470242797409201,-0.449687,0.0800059,-2.59074
1470242797423212,-0.44956,0.0799724,-2.59072
1470242797446738,-0.44956,0.0799724,-2.59072
1470242797469254,-0.449527,0.0800869,-2.59074
1470242797490343,-0.449527,0.0800869,-2.59074
1470242797506788,-0.449527,0.0800869,-2.59074
1470242797529340,-0.449527,0.0800869,-2.59074
1470242797543319,-0.449527,0.0800869,-2.59074
1470242797566842,-0.449527,0.0800869,-2.59074
1470242797589360,-0.449527,0.0800869,-2.59074
1470242797610379,-0.448979,0.0801791,-2.59077
1470242797626394,-0.44837,0.0805554,-2.59066
1470242797656438,-0.447702,0.0810214,-2.59057
1470242797670434,-0.447702,0.0810214,-2.59057
1470242797686449,-0.447702,0.0810214,-2.59057
1470242797709009,-0.447702,0.0810214,-2.59057
1470242797729986,-0.447574,0.0809879,-2.59055
1470242797746543,-0.447574,0.0809879,-2.59055
1470242797769024,-0.447542,0.0811024,-2.59057
1470242797790096,-0.447542,0.0811024,-2.59057
1470242797806556,-0.447871,0.0813751,-2.59039
1470242797829076,-0.447871,0.0813751,-2.59039
1470242797850095,-0.447871,0.0813751,-2.59039
1470242797866610,-0.44784,0.0815171,-2.59031
1470242797889130,-0.447713,0.0814836,-2.59028
1470242797910172,-0.447713,0.0814836,-2.59028
1470242797926685,-0.447478,0.081878,-2.59054
1470242797949184,-0.447179,0.0825015,-2.59084
1470242797970205,-0.446306,0.0832202,-2.59109
1470242797986717,-0.446064,0.0840519,-2.59166
1470242798009259,-0.445967,0.0849148,-2.59175
1470242798030277,-0.445835,0.0853457,-2.59194
1470242798046798,-0.445116,0.0855769,-2.59228
1470242798069309,-0.445005,0.0859508,-2.59276
1470242798091812,-0.445352,0.0861384,-2.59296
1470242798106838,-0.445676,0.0863558,-2.59297
1470242798128925,-0.446192,0.0863774,-2.59296
1470242798151448,-0.446613,0.086251,-2.59291
1470242798166461,-0.447165,0.0862131,-2.59268
1470242798188979,-0.447496,0.0859938,-2.59237
1470242798211500,-0.447538,0.0857946,-2.59214
1470242798226012,-0.447538,0.0857946,-2.59214
1470242798249035,-0.447538,0.0857946,-2.59214
1470242798271553,-0.447538,0.0857946,-2.59214
1470242798286068,-0.447538,0.0857946,-2.59214
1470242798309087,-0.447538,0.0857946,-2.59214
1470242798332110,-0.447538,0.0857946,-2.59214
1470242798345655,-0.447538,0.0857946,-2.59214
1470242798368646,-0.447538,0.0857946,-2.59214
1470242798391661,-0.447538,0.0857946,-2.59214
1470242798406174,-0.447538,0.0857946,-2.59214
1470242798429195,-0.448054,0.0858165,-2.59213
1470242798451717,-0.448568,0.0858108,-2.59222
1470242798466228,-0.448568,0.0858108,-2.59222
1470242798489249,-0.448568,0.0858108,-2.59222
1470242798511770,-0.448984,0.0858244,-2.59218
1470242798525783,-0.449405,0.0856983,-2.59212
1470242798549330,-0.449405,0.0856983,-2.59212
1470242798571823,-0.449405,0.0856983,-2.59212
1470242798592882,-0.449405,0.0856983,-2.59212
1470242798609356,-0.449373,0.0858128,-2.59215
1470242798631877,-0.449373,0.0858128,-2.59215
1470242798652896,-0.449475,0.0858488,-2.59208
1470242798669430,-0.449475,0.0858488,-2.59208
1470242798691930,-0.449475,0.0858488,-2.59208
1470242798712950,-0.449475,0.0858488,-2.59208
1470242798728966,-0.449475,0.0858488,-2.59208
1470242798751484,-0.449475,0.0858488,-2.59208
1470242798772504,-0.449475,0.0858488,-2.59208
1470242798789018,-0.449215,0.0859215,-2.59204
1470242798811540,-0.448931,0.0859966,-2.59192
1470242798832556,-0.448385,0.0861168,-2.59185
1470242798849072,-0.447814,0.0862394,-2.59169
1470242798871592,-0.447814,0.0862394,-2.59169
1470242798892611,-0.448017,0.0865061,-2.59139
1470242798909125,-0.448388,0.0865799,-2.59097
1470242798931647,-0.448388,0.0865799,-2.59097
1470242798952664,-0.448388,0.0865799,-2.59097
1470242798969180,-0.448413,0.0865774,-2.59106
1470242798991700,-0.449031,0.0866357,-2.59099
1470242799014220,-0.448902,0.0865745,-2.59106
1470242799029234,-0.448904,0.0866021,-2.59096
1470242799051754,-0.449737,0.0864348,-2.59106
1470242799074274,-0.449737,0.0864348,-2.59106
1470242799089288,-0.449737,0.0864348,-2.59106
1470242799111807,-0.450056,0.0862729,-2.59106
1470242799134328,-0.450056,0.0862729,-2.59106
1470242799149842,-0.450024,0.0863874,-2.59109
1470242799171861,-0.450024,0.0863874,-2.59109
1470242799193881,-0.450024,0.0863874,-2.59109
1470242799208394,-0.450024,0.0863874,-2.59109
1470242799231415,-0.450024,0.0863874,-2.59109
1470242799253935,-0.450024,0.0863874,-2.59109
1470242799268449,-0.450024,0.0863874,-2.59109
1470242799291470,-0.450024,0.0863874,-2.59109
1470242799313989,-0.450024,0.0863874,-2.59109
1470242799328504,-0.450024,0.0863874,-2.59109
1470242799351524,-0.450024,0.0863874,-2.59109
1470242799374043,-0.450056,0.0862729,-2.59106
1470242799388556,-0.450024,0.0863874,-2.59109
1470242799411577,-0.450024,0.0863874,-2.59109
1470242799441604,-0.450024,0.0863874,-2.59109
1470242799448610,-0.450024,0.0863874,-2.59109
1470242799471631,-0.450024,0.0863874,-2.59109
1470242799494151,-0.450024,0.0863874,-2.59109
1470242799515169,-0.450024,0.0863874,-2.59109
1470242799531684,-0.450024,0.0863874,-2.59109
1470242799554205,-0.450024,0.0863874,-2.59109
1470242799575224,-0.450024,0.0863874,-2.59109
1470242799591739,-0.450024,0.0863874,-2.59109
1470242799614259,-0.450024,0.0863874,-2.59109
1470242799635278,-0.450024,0.0863874,-2.59109
1470242799651792,-0.450443,0.0862338,-2.59113
1470242799680317,-0.451024,0.086027,-2.59107
1470242799695331,-0.451024,0.086027,-2.59107
1470242799711846,-0.451024,0.086027,-2.59107
1470242799734366,-0.450992,0.0861415,-2.5911
1470242799755385,-0.450992,0.0861415,-2.5911
1470242799771400,-0.450992,0.0861415,-2.5911
1470242799793920,-0.450992,0.0861415,-2.5911
1470242799815439,-0.450992,0.0861415,-2.5911
1470242799831454,-0.451024,0.086027,-2.59107
1470242799853974,-0.45154,0.0860493,-2.59106
1470242799874993,-0.451922,0.08615,-2.59115
1470242799891508,-0.452346,0.086052,-2.59099
1470242799914028,-0.452321,0.0860545,-2.5909
1470242799935047,-0.452346,0.086052,-2.59099
1470242799951563,-0.452219,0.0860185,-2.59096
1470242799974083,-0.452219,0.0860185,-2.59096
1470242799996603,-0.452219,0.0860185,-2.59096
1470242800011115,-0.452219,0.0860185,-2.59096
1470242800034136,-0.452219,0.0860185,-2.59096
1470242800056656,-0.452346,0.086052,-2.59099
1470242800071669,-0.451929,0.086038,-2.59103
1470242800094190,-0.45154,0.0860493,-2.59106
1470242800116710,-0.45154,0.0860493,-2.59106
1470242800137730,-0.45154,0.0860493,-2.59106
1470242800154244,-0.45154,0.0860493,-2.59106
1470242800176764,-0.45154,0.0860493,-2.59106
1470242800190777,-0.45154,0.0860493,-2.59106
1470242800214298,-0.45154,0.0860493,-2.59106
1470242800236818,-0.45154,0.0860493,-2.59106
1470242800250831,-0.45154,0.0860493,-2.59106
1470242800274352,-0.451306,0.0864435,-2.59132
1470242800296372,-0.45108,0.0867257,-2.59146
1470242800310884,-0.450971,0.0871258,-2.59184
1470242800333905,-0.451704,0.0877654,-2.59223
1470242800356426,-0.452568,0.0879746,-2.59243
1470242800370938,-0.452923,0.0880497,-2.59252
1470242800393960,-0.45305,0.0880832,-2.59254
1470242800416479,-0.452374,0.0881422,-2.59255
1470242800430993,-0.45189,0.0880058,-2.59253
1470242800454013,-0.45189,0.0880058,-2.59253
1470242800476533,-0.451857,0.0881204,-2.59255
1470242800497552,-0.451857,0.0881204,-2.59255
1470242800514066,-0.45189,0.0880058,-2.59253
1470242800537087,-0.451857,0.0881204,-2.59255
1470242800557605,-0.451857,0.0881204,-2.59255
1470242800574120,-0.452279,0.0879942,-2.5925
1470242800596641,-0.452279,0.0879942,-2.5925
1470242800617660,-0.452279,0.0879942,-2.5925
1470242800634175,-0.452279,0.0879942,-2.5925
1470242800656695,-0.452406,0.0880277,-2.59252
1470242800677713,-0.452406,0.0880277,-2.59252
1470242800694229,-0.452406,0.0880277,-2.59252
1470242800716750,-0.452406,0.0880277,-2.59252
1470242800737767,-0.452406,0.0880277,-2.59252
1470242800754283,-0.452438,0.0879132,-2.5925
1470242800776802,-0.452438,0.0879132,-2.5925
1470242800797822,-0.452438,0.0879132,-2.5925
1470242800814336,-0.452566,0.0879467,-2.59253
1470242800836856,-0.452566,0.0879467,-2.59253
1470242800857875,-0.452566,0.0879467,-2.59253
1470242800873890,-0.452566,0.0879467,-2.59253
1470242800896410,-0.452564,0.0879189,-2.59262
1470242800918930,-0.452564,0.0879189,-2.59262
1470242800934444,-0.452691,0.0879524,-2.59265
1470242800956464,-0.452691,0.0879524,-2.59265
1470242800978984,-0.452596,0.0878044,-2.5926
1470242800993997,-0.452723,0.0878379,-2.59263
1470242801016518,-0.452723,0.0878379,-2.59263
1470242801039038,-0.452723,0.0878379,-2.59263
1470242801053552,-0.452723,0.0878379,-2.59263
1470242801076572,-0.452723,0.0878379,-2.59263
1470242801099093,-0.452723,0.0878379,-2.59263
1470242801113607,-0.45285,0.0878714,-2.59265
1470242801136628,-0.45285,0.0878714,-2.59265
1470242801159147,-0.45285,0.0878714,-2.59265
1470242801173681,-0.45285,0.0878714,-2.59265
1470242801196687,-0.45285,0.0878714,-2.59265
1470242801219203,-0.45301,0.0877904,-2.59266
1470242801233712,-0.452985,0.0877928,-2.59257
1470242801256733,-0.452985,0.0877928,-2.59257
1470242801279254,-0.452985,0.0877928,-2.59257
1470242801284759,-0.452985,0.0877928,-2.59257
1470242801301292,-0.452985,0.0877928,-2.59257
1470242801322382,-0.452985,0.0877928,-2.59257
1470242801346318,-0.452985,0.0877928,-2.59257
1470242801360847,-0.453112,0.0878263,-2.59259
1470242801382368,-0.453112,0.0878263,-2.59259
1470242801404369,-0.453112,0.0878263,-2.59259
1470242801420881,-0.453112,0.0878263,-2.59259
1470242801442400,-0.453112,0.0878263,-2.59259
1470242801464420,-0.453145,0.0877118,-2.59257
1470242801480935,-0.453145,0.0877118,-2.59257
1470242801501969,-0.453272,0.0877453,-2.5926
1470242801524985,-0.453272,0.0877453,-2.5926
1470242801540991,-0.453272,0.0877453,-2.5926
1470242801562063,-0.453272,0.0877453,-2.5926
1470242801584583,-0.453272,0.0877453,-2.5926
1470242801601044,-0.453272,0.0877453,-2.5926
1470242801622104,-0.453399,0.0877788,-2.59262
1470242801644625,-0.453399,0.0877788,-2.59262
1470242801662599,-0.453397,0.0877509,-2.59272
1470242801682118,-0.453429,0.0876364,-2.5927
1470242801704649,-0.453429,0.0876364,-2.5927
1470242801721152,-0.453557,0.0876698,-2.59272
1470242801742250,-0.453557,0.0876698,-2.59272
1470242801764689,-0.453684,0.0877033,-2.59275
1470242801781204,-0.453659,0.0877058,-2.59266
1470242801802724,-0.453659,0.0877058,-2.59266
1470242801824745,-0.453691,0.0875913,-2.59264
1470242801842261,-0.453691,0.0875913,-2.59264
1470242801862277,-0.4544,0.0874177,-2.59261
1470242801884803,-0.4544,0.0874177,-2.59261
1470242801902315,-0.4544,0.0874177,-2.59261
1470242801929338,-0.4544,0.0874177,-2.59261
1470242801944851,-0.454527,0.0874512,-2.59264
1470242801962392,-0.454527,0.0874512,-2.59264
1470242801981887,-0.454527,0.0874512,-2.59264
1470242802004461,-0.45456,0.0873367,-2.59261
1470242802022467,-0.45456,0.0873367,-2.59261
1470242802042573,-0.454687,0.0873702,-2.59264
1470242802064459,-0.454719,0.0872557,-2.59262
1470242802082520,-0.454719,0.0872557,-2.59262
1470242802102082,-0.454847,0.0872892,-2.59264
1470242802124513,-0.454821,0.0872917,-2.59255
1470242802142529,-0.454821,0.0872917,-2.59255
1470242802162151,-0.454981,0.0872107,-2.59256
1470242802184582,-0.454979,0.0871827,-2.59265
1470242802210165,-0.455106,0.0872162,-2.59268
1470242802222117,-0.455106,0.0872162,-2.59268
1470242802244642,-0.455139,0.0871017,-2.59266
1470242802262681,-0.455139,0.0871017,-2.59266
1470242802282245,-0.455266,0.0871352,-2.59268
1470242802304713,-0.455393,0.0871687,-2.59271
1470242802322729,-0.455393,0.0871687,-2.59271
1470242802342208,-0.455393,0.0871687,-2.59271
1470242802364728,-0.455553,0.0870877,-2.59271
1470242802387250,-0.455553,0.0870877,-2.59271
1470242802402329,-0.455528,0.0870902,-2.59262
1470242802424782,-0.455528,0.0870902,-2.59262
1470242802442942,-0.455688,0.0870092,-2.59263
1470242802463317,-0.455688,0.0870092,-2.59263
1470242802484938,-0.455815,0.0870427,-2.59265
1470242802502480,-0.455815,0.0870427,-2.59265
1470242802523375,-0.455813,0.0870147,-2.59275
1470242802544390,-0.45594,0.0870481,-2.59278
1470242802562957,-0.45594,0.0870481,-2.59278
1470242802583425,-0.45594,0.0870481,-2.59278
1470242802604530,-0.45594,0.0870481,-2.59278
1470242802622463,-0.4561,0.0869671,-2.59278
1470242802643982,-0.4561,0.0869671,-2.59278
1470242802664500,-0.456202,0.0870031,-2.59272
1470242802682556,-0.456235,0.0868887,-2.59269
1470242802703542,-0.456362,0.0869221,-2.59272
1470242802724552,-0.456362,0.0869221,-2.59272
1470242802742627,-0.45649,0.0869556,-2.59275
1470242802771093,-0.456522,0.0868412,-2.59272
1470242802784607,-0.456522,0.0868412,-2.59272
1470242802802637,-0.456647,0.0868466,-2.59285
1470242802825141,-0.456679,0.0867321,-2.59282
1470242802844720,-0.456807,0.0867656,-2.59285
1470242802862721,-0.456807,0.0867656,-2.59285
1470242802885227,-0.456934,0.086799,-2.59288
1470242802904722,-0.456909,0.0868016,-2.59279
1470242802930244,-0.456909,0.0868016,-2.59279
1470242802945250,-0.457069,0.0867206,-2.59279
1470242802964267,-0.457069,0.0867206,-2.59279
1470242802982318,-0.457069,0.0867206,-2.59279
1470242803004803,-0.457196,0.0867541,-2.59282
1470242803024936,-0.457196,0.0867541,-2.59282
1470242803042337,-0.457196,0.0867541,-2.59282
1470242803065473,-0.457324,0.0867875,-2.59285
1470242803084875,-0.457356,0.0866731,-2.59282
1470242803102446,-0.457484,0.0867065,-2.59285
1470242803124956,-0.457458,0.0867091,-2.59276
1470242803144446,-0.457584,0.0867144,-2.59288
1470242803162458,-0.457584,0.0867144,-2.59288
1470242803184965,-0.457616,0.0866,-2.59286
1470242803204483,-0.457744,0.0866335,-2.59289
1470242803222512,-0.457744,0.0866335,-2.59289
1470242803245047,-0.457871,0.0866669,-2.59291
1470242803264539,-0.457871,0.0866669,-2.59291
1470242803282573,-0.457903,0.0865525,-2.59289
1470242803305153,-0.458031,0.0865859,-2.59292
1470242803327619,-0.458031,0.0865859,-2.59292
1470242803342609,-0.458031,0.0865859,-2.59292
1470242803365172,-0.458158,0.0866194,-2.59294
1470242803384700,-0.458158,0.0866194,-2.59294
1470242803402697,-0.458133,0.086622,-2.59285
1470242803425181,-0.458133,0.086622,-2.59285
1470242803446201,-0.458261,0.0866554,-2.59288
1470242803462739,-0.458293,0.086541,-2.59286
1470242803485245,-0.458293,0.086541,-2.59286
1470242803506277,-0.45842,0.0865744,-2.59288
1470242803523270,-0.45842,0.0865744,-2.59288
1470242803545288,-0.458418,0.0865463,-2.59298
1470242803565807,-0.458548,0.0866079,-2.59291
1470242803582830,-0.458546,0.0865797,-2.59301
1470242803605439,-0.458673,0.0866132,-2.59303
1470242803626361,-0.458673,0.0866132,-2.59303
1470242803642376,-0.458808,0.0865348,-2.59295
1470242803665396,-0.458808,0.0865348,-2.59295
1470242803685917,-0.458935,0.0865682,-2.59297
1470242803702574,-0.458935,0.0865682,-2.59297
1470242803724949,-0.458935,0.0865682,-2.59297
1470242803745500,-0.459615,0.0865375,-2.59287
1470242803767988,-0.460427,0.0864002,-2.59278
1470242803784535,-0.460427,0.0864002,-2.59278
1470242803806542,-0.460427,0.0864002,-2.59278
1470242803828091,-0.460554,0.0864336,-2.59281
1470242803844558,-0.461104,0.0863413,-2.59278
1470242803866577,-0.461104,0.0863413,-2.59278
1470242803887596,-0.461232,0.0863748,-2.59281
1470242803904110,-0.461206,0.0863774,-2.59272
1470242803926633,-0.461334,0.0864109,-2.59274
1470242803941144,-0.461366,0.0862965,-2.59272
1470242803964169,-0.461494,0.0863299,-2.59275
1470242803986686,-0.461462,0.0864443,-2.59277
1470242804001240,-0.461494,0.0863299,-2.59275
1470242804024219,-0.461494,0.0863299,-2.59275
1470242804046738,-0.461622,0.0863634,-2.59278
1470242804061752,-0.461459,0.086416,-2.59287
1470242804084272,-0.461325,0.0864943,-2.59296
1470242804106792,-0.461293,0.0866087,-2.59298
1470242804120806,-0.461452,0.0865277,-2.59298
1470242804144328,-0.461452,0.0865277,-2.59298
1470242804166846,-0.461452,0.0865277,-2.59298
1470242804181359,-0.461482,0.086385,-2.59306
1470242804204382,-0.461482,0.086385,-2.59306
1470242804226933,-0.462002,0.0864354,-2.59295
1470242804247919,-0.462815,0.0862983,-2.59286
1470242804264434,-0.463467,0.0862421,-2.59277
1470242804286954,-0.463595,0.0862756,-2.5928
1470242804307474,-0.463595,0.0862756,-2.5928
1470242804323987,-0.463595,0.0862756,-2.5928
1470242804347012,-0.463722,0.086309,-2.59283
1470242804368027,-0.463722,0.086309,-2.59283
1470242804384041,-0.463722,0.086309,-2.59283
1470242804406567,-0.46385,0.0863425,-2.59285
1470242804435587,-0.4635,0.0866471,-2.59277
1470242804444096,-0.463658,0.0865377,-2.59288
1470242804466617,-0.463658,0.0865377,-2.59288
1470242804487656,-0.463786,0.0865712,-2.5929
1470242804504149,-0.463786,0.0865712,-2.5929
1470242804526676,-0.463786,0.0865712,-2.5929
1470242804547689,-0.463913,0.0866046,-2.59293
1470242804564203,-0.463888,0.0866073,-2.59284
1470242804586723,-0.464016,0.0866407,-2.59287
1470242804607795,-0.464016,0.0866407,-2.59287
1470242804624759,-0.464143,0.0866742,-2.59289
1470242804646779,-0.464176,0.0865599,-2.59287
1470242804667877,-0.464176,0.0865599,-2.59287
1470242804684366,-0.464176,0.0865599,-2.59287
1470242804706831,-0.464303,0.0865933,-2.5929
1470242804729352,-0.464176,0.0865599,-2.59287
1470242804743364,-0.464303,0.0865933,-2.5929
1470242804766386,-0.464303,0.0865933,-2.5929
1470242804789433,-0.464303,0.0865933,-2.5929
1470242804804440,-0.464303,0.0865933,-2.5929
1470242804826938,-0.464303,0.0865933,-2.5929
1470242804849460,-0.464303,0.0865933,-2.5929
1470242804863514,-0.464336,0.0864789,-2.59287
1470242804887035,-0.464431,0.0866267,-2.59292
1470242804909015,-0.464431,0.0866267,-2.59292
1470242804923528,-0.464431,0.0866267,-2.59292
1470242804946548,-0.464463,0.0865124,-2.5929
1470242804969069,-0.464463,0.0865124,-2.5929
1470242804983579,-0.464463,0.0865124,-2.5929
1470242805006603,-0.464463,0.0865124,-2.5929
1470242805029121,-0.464438,0.0865151,-2.59281
1470242805043636,-0.464566,0.0865485,-2.59284
1470242805066656,-0.464566,0.0865485,-2.59284
1470242805089221,-0.464566,0.0865485,-2.59284
1470242805103687,-0.464563,0.08652,-2.59293
1470242805126709,-0.464563,0.08652,-2.59293
1470242805149230,-0.464563,0.08652,-2.59293
1470242805163241,-0.464596,0.0864057,-2.59291
1470242805186795,-0.464723,0.0864391,-2.59294
1470242805209289,-0.464723,0.0864391,-2.59294
1470242805230344,-0.464723,0.0864391,-2.59294
1470242805246818,-0.464723,0.0864391,-2.59294
1470242805269342,-0.464431,0.0866267,-2.59292
1470242805290400,-0.464431,0.0866267,-2.59292
1470242805306871,-0.464431,0.0866267,-2.59292
1470242805329392,-0.464431,0.0866267,-2.59292
1470242805350409,-0.464406,0.0866294,-2.59283
1470242805366925,-0.464239,0.086822,-2.59295
1470242805389443,-0.464239,0.086822,-2.59295
1470242805410463,-0.464239,0.086822,-2.59295
1470242805427003,-0.464367,0.0868554,-2.59297
1470242805449498,-0.464367,0.0868554,-2.59297
1470242805470517,-0.464367,0.0868554,-2.59297
1470242805486534,-0.464341,0.0868581,-2.59288
1470242805509052,-0.464341,0.0868581,-2.59288
1470242805547587,-0.464341,0.0868581,-2.59288
1470242805549589,-0.465019,0.0867993,-2.59288
1470242805569106,-0.465019,0.0867993,-2.59288
1470242805590674,-0.465019,0.0867993,-2.59288
1470242805606639,-0.465019,0.0867993,-2.59288
1470242805629160,-0.465019,0.0867993,-2.59288
1470242805651679,-0.465695,0.086712,-2.59298
1470242805666695,-0.465823,0.0867455,-2.593
1470242805689213,-0.465823,0.0867455,-2.593
1470242805711736,-0.465823,0.0867455,-2.593
1470242805726749,-0.465983,0.0866646,-2.59301
1470242805749276,-0.465855,0.0866311,-2.59298
1470242805771789,-0.466563,0.0864295,-2.59305
1470242805786810,-0.466563,0.0864295,-2.59305
1470242805809321,-0.466563,0.0864295,-2.59305
1470242805831843,-0.466563,0.0864295,-2.59305
1470242805846355,-0.466691,0.0864629,-2.59308
1470242805869377,-0.466691,0.0864629,-2.59308
1470242805891914,-0.466563,0.0864295,-2.59305
1470242805905910,-0.466691,0.0864629,-2.59308
1470242805929433,-0.466691,0.0864629,-2.59308
1470242805951949,-0.466691,0.0864629,-2.59308
1470242805965963,-0.466665,0.0864656,-2.59299
1470242805989484,-0.466665,0.0864656,-2.59299
1470242806011502,-0.466793,0.086499,-2.59302
1470242806026016,-0.466691,0.0864629,-2.59308
1470242806049039,-0.46688,0.0867297,-2.59328
1470242806071556,-0.467691,0.0875741,-2.59344
1470242806086072,-0.468734,0.0885167,-2.59347
1470242806109090,-0.468998,0.089482,-2.59357
1470242806131612,-0.469008,0.0904092,-2.59351
1470242806153193,-0.468141,0.0912115,-2.59346
1470242806169160,-0.467378,0.0920785,-2.59326
1470242806191669,-0.467374,0.0926613,-2.59249
1470242806213204,-0.467397,0.0930723,-2.5919
1470242806229198,-0.466847,0.0926732,-2.5918
1470242806259225,-0.465614,0.0924731,-2.59172
1470242806272738,-0.464882,0.0927053,-2.59146
1470242806289252,-0.464882,0.0927053,-2.59146
1470242806311772,-0.465022,0.0921934,-2.59105
1470242806332796,-0.464242,0.0917245,-2.59099
1470242806349308,-0.462784,0.0918047,-2.59105
1470242806371827,-0.462394,0.0918157,-2.59109
1470242806392879,-0.462597,0.0915657,-2.59076
1470242806409360,-0.462248,0.0913788,-2.59055
1470242806431914,-0.461661,0.0912058,-2.59059
1470242806452959,-0.461661,0.0912058,-2.59059
1470242806469414,-0.461661,0.0912058,-2.59059
1470242806491933,-0.462608,0.0915107,-2.59045
1470242806512954,-0.463523,0.0916081,-2.59012
1470242806529470,-0.463229,0.091276,-2.59008
1470242806551990,-0.461345,0.091424,-2.59039
1470242806574508,-0.460757,0.0920645,-2.59076
1470242806589023,-0.461697,0.0919616,-2.5907
1470242806611543,-0.462503,0.0919372,-2.59073
1470242806634064,-0.462364,0.0919586,-2.59101
1470242806649080,-0.461652,0.0921027,-2.59114
1470242806672096,-0.461652,0.0921027,-2.59114
1470242806694116,-0.462002,0.0917984,-2.59122
1470242806709131,-0.46248,0.0915277,-2.59132
1470242806731650,-0.463218,0.0911837,-2.59147
1470242806754186,-0.463218,0.0911837,-2.59147
1470242806768683,-0.463186,0.091298,-2.59149
1470242806791703,-0.463218,0.0911837,-2.59147
1470242806814226,-0.463218,0.0911837,-2.59147
1470242806828737,-0.46325,0.0910693,-2.59144
1470242806851757,-0.463376,0.0910744,-2.59157
1470242806874286,-0.463027,0.0908877,-2.59137
1470242806888793,-0.463019,0.0904801,-2.59145
1470242806911811,-0.46302,0.0899891,-2.59133
1470242806934832,-0.46302,0.0899891,-2.59133
1470242806948844,-0.46302,0.0899891,-2.59133
1470242806977887,-0.463052,0.0898748,-2.5913
1470242806994407,-0.463052,0.0898748,-2.5913
1470242807008398,-0.463052,0.0898748,-2.5913
1470242807031951,-0.46347,0.0896923,-2.59144
1470242807054438,-0.463503,0.089578,-2.59142
1470242807075458,-0.464076,0.0894551,-2.59158
1470242807091973,-0.464076,0.0894551,-2.59158
1470242807114493,-0.464076,0.0894551,-2.59158
1470242807135512,-0.464076,0.0894551,-2.59158
1470242807151526,-0.464394,0.089265,-2.59168
1470242807174046,-0.465079,0.0890949,-2.59157
1470242807195066,-0.465652,0.0889719,-2.59172
1470242807211580,-0.465627,0.0889744,-2.59163
1470242807234101,-0.465627,0.0889744,-2.59163
1470242807255119,-0.465787,0.0888937,-2.59164
1470242807271636,-0.465787,0.0888937,-2.59164
1470242807294154,-0.465787,0.0888937,-2.59164
1470242807315174,-0.465334,0.0886426,-2.59159
1470242807331689,-0.464585,0.0885504,-2.59163
1470242807354209,-0.464553,0.0886647,-2.59166
1470242807375227,-0.464973,0.0885107,-2.5917
1470242807399250,-0.465777,0.0884573,-2.59182
1470242807414263,-0.466453,0.0883704,-2.59192
1470242807435297,-0.466063,0.0883815,-2.59195
1470242807451796,-0.465248,0.0884895,-2.59214
1470242807481825,-0.464505,0.0887766,-2.59219
1470242807495348,-0.464505,0.0887766,-2.59219
1470242807511852,-0.46485,0.0884149,-2.59246
1470242807534370,-0.465494,0.0884421,-2.59258
1470242807564397,-0.465494,0.0884421,-2.59258
1470242807570905,-0.465051,0.0886274,-2.59235
1470242807594423,-0.464178,0.0890501,-2.5923
1470242807616944,-0.464178,0.0890501,-2.5923
1470242807631957,-0.464893,0.0887368,-2.59225
1470242807654477,-0.464893,0.0887368,-2.59225
1470242807676501,-0.464219,0.0888524,-2.59206
1470242807691511,-0.464219,0.0888524,-2.59206
1470242807714531,-0.464219,0.0888524,-2.59206
1470242807737054,-0.464092,0.0888189,-2.59203
1470242807751065,-0.464724,0.0889009,-2.59246
1470242807774085,-0.465231,0.0889777,-2.59277
1470242807796606,-0.465907,0.0888904,-2.59286
1470242807811120,-0.465907,0.0888904,-2.59286
1470242807834139,-0.465907,0.0888904,-2.59286
1470242807856685,-0.465261,0.0888347,-2.59284
1470242807871174,-0.464284,0.0885047,-2.593
1470242807894221,-0.463884,0.0880799,-2.59321
1470242807916713,-0.463884,0.0880799,-2.59321
1470242807931227,-0.463884,0.0880799,-2.59321
1470242807954248,-0.463916,0.0879655,-2.59319
1470242807976768,-0.463916,0.0879655,-2.59319
1470242807991280,-0.463916,0.0879655,-2.59319
1470242808014301,-0.463916,0.0879655,-2.59319
1470242808036826,-0.464432,0.0879591,-2.59328
1470242808057859,-0.464592,0.0878781,-2.59329
1470242808074360,-0.464592,0.0878781,-2.59329
1470242808096882,-0.464592,0.0878781,-2.59329
1470242808117943,-0.464812,0.0875114,-2.59343
1470242808134409,-0.464809,0.0874829,-2.59353
1470242808156933,-0.464842,0.0873685,-2.59351
1470242808177948,-0.464328,0.0874036,-2.59332
1470242808194462,-0.46357,0.0878078,-2.59289
1470242808216983,-0.463869,0.0877056,-2.59261
1470242808238002,-0.463165,0.0874447,-2.59231
1470242808254016,-0.461531,0.0877228,-2.5919
1470242808276537,-0.460555,0.0885206,-2.59122
1470242808298055,-0.461484,0.0889128,-2.59069
1470242808321577,-0.462818,0.0888561,-2.5904
1470242808336593,-0.462816,0.0888277,-2.59049
1470242808357612,-0.462159,0.0888263,-2.59078
1470242808374160,-0.461913,0.0887548,-2.59132
1470242808396644,-0.462586,0.0886396,-2.59152
1470242808418163,-0.463612,0.0882483,-2.59169
1470242808434178,-0.463612,0.0882483,-2.59169
1470242808456698,-0.463612,0.0882483,-2.59169
1470242808479220,-0.463612,0.0882483,-2.59169
1470242808494232,-0.463612,0.0882483,-2.59169
1470242808516755,-0.463612,0.0882483,-2.59169
1470242808539306,-0.463612,0.0882483,-2.59169
1470242808554288,-0.463612,0.0882483,-2.59169
1470242808576815,-0.463644,0.088134,-2.59167
1470242808599331,-0.463644,0.088134,-2.59167
1470242808614356,-0.463516,0.0881004,-2.59164
1470242808636861,-0.463516,0.0881004,-2.59164
1470242808659380,-0.463516,0.0881004,-2.59164
1470242808673392,-0.463677,0.0880196,-2.59164
1470242808696914,-0.463674,0.0879911,-2.59174
1470242808719434,-0.463674,0.0879911,-2.59174
1470242808733447,-0.463802,0.0880247,-2.59177
1470242808756973,-0.463674,0.0879911,-2.59174
1470242808779008,-0.463674,0.0879911,-2.59174
1470242808793501,-0.46429,0.08819,-2.59169
1470242808816523,-0.46488,0.0883914,-2.59155
1470242808839041,-0.46488,0.0883914,-2.59155
1470242808853555,-0.46488,0.0883914,-2.59155
1470242808878623,-0.46488,0.0883914,-2.59155
1470242808899096,-0.46488,0.0883914,-2.59155
1470242808904602,-0.465273,0.088409,-2.59142
1470242808921117,-0.465273,0.088409,-2.59142
1470242808942161,-0.465273,0.088409,-2.59142
1470242808964659,-0.465145,0.0883754,-2.59139
1470242808981177,-0.465145,0.0883754,-2.59139
1470242809002205,-0.465145,0.0883754,-2.59139
1470242809024736,-0.465145,0.0883754,-2.59139
1470242809041223,-0.465273,0.088409,-2.59142
1470242809062244,-0.465273,0.088409,-2.59142
1470242809084796,-0.465145,0.0883754,-2.59139
1470242809101296,-0.465145,0.0883754,-2.59139
1470242809122301,-0.465145,0.0883754,-2.59139
1470242809144816,-0.465145,0.0883754,-2.59139
1470242809161331,-0.465145,0.0883754,-2.59139
1470242809182354,-0.465145,0.0883754,-2.59139
1470242809204903,-0.465273,0.088409,-2.59142
1470242809220886,-0.465273,0.088409,-2.59142
1470242809242474,-0.465273,0.088409,-2.59142
1470242809264924,-0.465273,0.088409,-2.59142
1470242809280960,-0.465273,0.088409,-2.59142
1470242809309991,-0.465273,0.088409,-2.59142
1470242809325062,-0.465273,0.088409,-2.59142
1470242809340992,-0.465273,0.088409,-2.59142
1470242809362512,-0.465273,0.088409,-2.59142
1470242809385037,-0.465273,0.088409,-2.59142
1470242809401046,-0.465273,0.088409,-2.59142
1470242809422095,-0.46524,0.0885233,-2.59144
1470242809445182,-0.46524,0.0885233,-2.59144
1470242809462603,-0.46524,0.0885233,-2.59144
1470242809482119,-0.465273,0.088409,-2.59142
1470242809504640,-0.46524,0.0885233,-2.59144
1470242809522657,-0.465273,0.088409,-2.59142
1470242809542178,-0.46524,0.0885233,-2.59144
1470242809564693,-0.465716,0.0882238,-2.59165
1470242809582709,-0.465716,0.0882238,-2.59165
1470242809602245,-0.465716,0.0882238,-2.59165
1470242809624748,-0.465716,0.0882238,-2.59165
1470242809642793,-0.465716,0.0882238,-2.59165
1470242809662322,-0.465716,0.0882238,-2.59165
1470242809684838,-0.465716,0.0882238,-2.59165
1470242809702817,-0.465748,0.0881095,-2.59162
1470242809722334,-0.465748,0.0881095,-2.59162
1470242809744857,-0.465748,0.0881095,-2.59162
1470242809762372,-0.465748,0.0881095,-2.59162
1470242809784893,-0.465748,0.0881095,-2.59162
1470242809804912,-0.465748,0.0881095,-2.59162
1470242809822425,-0.465748,0.0881095,-2.59162
1470242809842498,-0.465748,0.0881095,-2.59162
1470242809864528,-0.4662,0.0883319,-2.59177
1470242809882478,-0.4662,0.0883319,-2.59177
1470242809902012,-0.466232,0.0882176,-2.59174
1470242809925017,-0.466232,0.0882176,-2.59174
1470242809950039,-0.466232,0.0882176,-2.59174
1470242809962066,-0.466232,0.0882176,-2.59174
1470242809987592,-0.466232,0.0882176,-2.59174
1470242810002591,-0.466232,0.0882176,-2.59174
1470242810022605,-0.46636,0.0882512,-2.59177
1470242810044649,-0.46636,0.0882512,-2.59177
1470242810062673,-0.46636,0.0882512,-2.59177
1470242810083661,-0.46636,0.0882512,-2.59177
1470242810104693,-0.46636,0.0882512,-2.59177
1470242810122694,-0.46636,0.0882512,-2.59177
1470242810145214,-0.46639,0.0881082,-2.59184
1470242810172255,-0.46639,0.0881082,-2.59184
1470242810182760,-0.46639,0.0881082,-2.59184
1470242810203774,-0.46639,0.0881082,-2.59184
1470242810224803,-0.46639,0.0881082,-2.59184
1470242810242802,-0.46639,0.0881082,-2.59184
1470242810265321,-0.46639,0.0881082,-2.59184
1470242810284841,-0.46639,0.0881082,-2.59184
1470242810302856,-0.466422,0.0879939,-2.59182
1470242810323396,-0.46655,0.0880275,-2.59185
1470242810345006,-0.46655,0.0880275,-2.59185
1470242810362409,-0.46655,0.0880275,-2.59185
1470242810383432,-0.46655,0.0880275,-2.59185
1470242810404998,-0.466422,0.0879939,-2.59182
1470242810422497,-0.466422,0.0879939,-2.59182
1470242810445089,-0.466454,0.0878796,-2.59179
1470242810464503,-0.466454,0.0878796,-2.59179
1470242810482519,-0.466454,0.0878796,-2.59179
1470242810505143,-0.466454,0.0878796,-2.59179
1470242810524597,-0.466454,0.0878796,-2.59179
1470242810542590,-0.466454,0.0878796,-2.59179
1470242810565091,-0.465966,0.0877142,-2.59187
1470242810584652,-0.465309,0.0877128,-2.59216
1470242810602630,-0.465181,0.0876793,-2.59213
1470242810625150,-0.465982,0.0875971,-2.59235
1470242810644679,-0.466944,0.0874339,-2.59258
1470242810662681,-0.466944,0.0874339,-2.59258
1470242810685214,-0.467104,0.0873531,-2.59258
1470242810704731,-0.466807,0.0874834,-2.59276
1470242810722750,-0.466807,0.0874834,-2.59276
1470242810745329,-0.466807,0.0874834,-2.59276
1470242810765272,-0.466839,0.0873691,-2.59274
1470242810782786,-0.466839,0.0873691,-2.59274
1470242810805310,-0.466839,0.0873691,-2.59274
1470242810824870,-0.466839,0.0873691,-2.59274
1470242810842841,-0.466839,0.0873691,-2.59274
1470242810865361,-0.466837,0.0873404,-2.59283
1470242810884970,-0.466837,0.0873404,-2.59283
1470242810902394,-0.466837,0.0873404,-2.59283
1470242810925420,-0.466837,0.0873404,-2.59283
1470242810945033,-0.466837,0.0873404,-2.59283
1470242810962493,-0.466869,0.0872261,-2.59281
1470242810984973,-0.466869,0.0872261,-2.59281
1470242811006002,-0.466869,0.0872261,-2.59281
1470242811022619,-0.466869,0.0872261,-2.59281
1470242811045053,-0.466997,0.0872596,-2.59284
1470242811066041,-0.466609,0.0872995,-2.59277
1470242811082611,-0.466609,0.0872995,-2.59277
1470242811105102,-0.466609,0.0872995,-2.59277
1470242811126095,-0.466609,0.0872995,-2.59277
1470242811142621,-0.466526,0.0876168,-2.59244
1470242811165131,-0.465953,0.0882594,-2.59231
1470242811186186,-0.465904,0.0889817,-2.59198
1470242811202664,-0.465904,0.0889817,-2.59198
1470242811225243,-0.466061,0.0888723,-2.59208
1470242811246235,-0.466061,0.0888723,-2.59208
1470242811262761,-0.466061,0.0888723,-2.59208
1470242811285282,-0.466029,0.0889866,-2.5921
1470242811306276,-0.466036,0.0888748,-2.59199
1470242811322771,-0.465822,0.088808,-2.59152
1470242811345318,-0.464958,0.0891471,-2.59125
1470242811374325,-0.464352,0.0893843,-2.59111
1470242811387835,-0.464322,0.0895271,-2.59104
1470242811404345,-0.464872,0.0894354,-2.59101
1470242811426866,-0.464872,0.0894354,-2.59101
1470242811447900,-0.465,0.089469,-2.59104
1470242811464401,-0.464356,0.0894414,-2.59092
1470242811486923,-0.463553,0.0894944,-2.59079
1470242811507937,-0.463553,0.0894944,-2.59079
1470242811524470,-0.463585,0.08938,-2.59077
1470242811546472,-0.463585,0.08938,-2.59077
1470242811561486,-0.463585,0.08938,-2.59077
1470242811584567,-0.463585,0.08938,-2.59077
