timestamp,x,y,z,w
1472089130792472,-0.0828247,0.0658569,-0.267639,0.957642
1472089130814993,-0.0828247,0.0658569,-0.267639,0.957642
1472089130839014,-0.0828247,0.0658569,-0.267639,0.957642
1472089130854028,-0.0831909,0.065918,-0.267578,0.957642
1472089130875047,-0.0831909,0.065979,-0.267578,0.957642
1472089130899068,-0.083252,0.065979,-0.267578,0.957642
1472089130944609,-0.0830688,0.065918,-0.267639,0.957642
1472089130946613,-0.0830078,0.0658569,-0.267639,0.957642
1472089130959124,-0.0830688,0.065918,-0.267639,0.957642
1472089130976639,-0.0830688,0.065918,-0.267639,0.957642
1472089130996656,-0.0830688,0.065918,-0.267639,0.957642
1472089131025683,-0.0830688,0.065918,-0.267639,0.957642
1472089131070223,-0.0830078,0.065918,-0.2677,0.957642
1472089131080232,-0.0830688,0.065918,-0.2677,0.957642
1472089131094245,-0.0830688,0.065918,-0.2677,0.957642
1472089131100751,-0.0830688,0.065918,-0.2677,0.957642
1472089131114763,-0.0830688,0.065918,-0.2677,0.957642
1472089131137784,-0.0831299,0.065918,-0.2677,0.957642
1472089131155300,-0.0831299,0.065918,-0.2677,0.957642
1472089131174818,-0.0830688,0.0658569,-0.267639,0.957642
1472089131197338,-0.0830688,0.0657349,-0.267639,0.957642
1472089131215354,-0.0830078,0.0656128,-0.267639,0.957642
1472089131234872,-0.0830688,0.0656128,-0.2677,0.957642
1472089131257392,-0.0828247,0.0656128,-0.267639,0.957703
1472089131275409,-0.0828857,0.0656128,-0.267639,0.957703
1472089131294926,-0.0827637,0.0655518,-0.267639,0.957703
1472089131317446,-0.0827637,0.0655518,-0.267639,0.957703
1472089131335462,-0.0828247,0.0655518,-0.267639,0.957703
1472089131354980,-0.0825806,0.0655518,-0.2677,0.957703
1472089131377500,-0.0825806,0.0656128,-0.2677,0.957703
1472089131395517,-0.0825806,0.0656128,-0.2677,0.957703
1472089131415034,-0.0826416,0.0656128,-0.2677,0.957703
1472089131437554,-0.0826416,0.0656128,-0.2677,0.957703
1472089131455571,-0.0826416,0.0656128,-0.2677,0.957703
1472089131475088,-0.0826416,0.0656128,-0.2677,0.957703
1472089131497609,-0.0827026,0.0656128,-0.2677,0.957703
1472089131520129,-0.0827026,0.0656128,-0.2677,0.957703
1472089131536645,-0.0827026,0.0656128,-0.2677,0.957703
1472089131557663,-0.0827637,0.0656738,-0.2677,0.957703
1472089131575179,-0.0827637,0.0656738,-0.2677,0.957642
1472089131596198,-0.0827637,0.0656738,-0.2677,0.957642
1472089131617716,-0.0828247,0.0656738,-0.2677,0.957642
1472089131635233,-0.0828247,0.0656738,-0.2677,0.957642
1472089131656753,-0.0828857,0.0656738,-0.2677,0.957642
1472089131677772,-0.0828857,0.0656738,-0.2677,0.957642
1472089131700291,-0.0828857,0.0656738,-0.2677,0.957642
1472089131716307,-0.0829468,0.0657349,-0.2677,0.957642
1472089131737325,-0.0827637,0.0658569,-0.267639,0.957703
1472089131760346,-0.0825806,0.06604,-0.2677,0.957642
1472089131776361,-0.0825806,0.06604,-0.2677,0.957642
1472089131797379,-0.0826416,0.06604,-0.2677,0.957642
1472089131819903,-0.0826416,0.06604,-0.2677,0.957642
1472089131836439,-0.0825195,0.0661011,-0.2677,0.957642
1472089131857472,-0.0825195,0.0661621,-0.2677,0.957642
1472089131880017,-0.0825195,0.0661621,-0.2677,0.957642
1472089131898043,-0.0823975,0.0662231,-0.267639,0.957642
1472089131917570,-0.0821533,0.0661621,-0.2677,0.957703
1472089131940107,-0.0819092,0.0661621,-0.267761,0.957703
1472089131957636,-0.0819702,0.0661621,-0.267761,0.957703
1472089131977677,-0.0819702,0.0661621,-0.267761,0.957703
1472089132000210,-0.0820313,0.0662231,-0.267761,0.957703
1472089132017725,-0.0819092,0.0662842,-0.2677,0.957703
1472089132037644,-0.0819092,0.0662842,-0.2677,0.957703
1472089132060678,-0.0819092,0.0662842,-0.2677,0.957703
1472089132077220,-0.0819092,0.0663452,-0.2677,0.957703
1472089132099756,-0.0819702,0.0663452,-0.2677,0.957703
1472089132120775,-0.0819702,0.0663452,-0.2677,0.957703
1472089132137298,-0.0819702,0.0663452,-0.2677,0.957703
1472089132159828,-0.0819702,0.0664063,-0.2677,0.957703
1472089132180871,-0.0819702,0.0664063,-0.2677,0.957703
1472089132197399,-0.0820313,0.0664063,-0.2677,0.957703
1472089132219419,-0.0820313,0.0664063,-0.2677,0.957703
1472089132248225,-0.0820313,0.0664063,-0.2677,0.957703
1472089132256732,-0.0820313,0.0664063,-0.2677,0.957703
1472089132279779,-0.0820923,0.0664673,-0.2677,0.957703
1472089132302307,-0.0820923,0.0664673,-0.2677,0.957703
1472089132317320,-0.0819702,0.0664673,-0.267639,0.957703
1472089132339860,-0.0819092,0.0664673,-0.267639,0.957703
1472089132360886,-0.0819702,0.0664673,-0.267639,0.957703
1472089132376907,-0.0819702,0.0664673,-0.267639,0.957703
1472089132398434,-0.0819702,0.0665283,-0.267639,0.957703
1472089132421879,-0.0820313,0.0665283,-0.267639,0.957703
1472089132436404,-0.0820313,0.0665283,-0.267639,0.957703
1472089132459468,-0.0820313,0.0665283,-0.267639,0.957703
1472089132482313,-0.0820313,0.0665283,-0.267639,0.957703
1472089132496330,-0.0820313,0.0665283,-0.267639,0.957703
1472089132519357,-0.0820923,0.0665283,-0.267639,0.957703
1472089132542264,-0.0820923,0.0665283,-0.267639,0.957703
1472089132556282,-0.0820923,0.0665894,-0.267639,0.957703
1472089132579811,-0.0823364,0.0665894,-0.267639,0.957642
1472089132601844,-0.0823975,0.0665894,-0.267639,0.957642
1472089132616417,-0.0823975,0.0665894,-0.267639,0.957642
1472089132639460,-0.0823975,0.0666504,-0.267639,0.957642
1472089132661996,-0.0823975,0.0666504,-0.267639,0.957642
1472089132676528,-0.0824585,0.0666504,-0.267639,0.957642
1472089132699564,-0.0824585,0.0666504,-0.267639,0.957642
1472089132722088,-0.0824585,0.0666504,-0.267639,0.957642
1472089132743116,-0.0824585,0.0666504,-0.267639,0.957642
1472089132759651,-0.0824585,0.0666504,-0.267639,0.957642
1472089132782188,-0.0824585,0.0666504,-0.267639,0.957642
1472089132803047,-0.0825195,0.0667114,-0.267639,0.957642
1472089132819567,-0.0825195,0.0667114,-0.267639,0.957642
1472089132842102,-0.0825195,0.0667114,-0.267639,0.957642
1472089132863141,-0.0825195,0.0667114,-0.267639,0.957642
1472089132879698,-0.0825195,0.0667725,-0.267639,0.957642
1472089132902263,-0.0825806,0.0667725,-0.267639,0.957642
1472089132923269,-0.0825806,0.0667725,-0.267639,0.957642
1472089132939789,-0.0826416,0.0667725,-0.267639,0.957642
1472089132962317,-0.0826416,0.0667725,-0.267639,0.957642
1472089132983352,-0.0827026,0.0667725,-0.267639,0.957642
1472089132999379,-0.0827026,0.0667725,-0.267639,0.957642
1472089133021900,-0.0830078,0.0667725,-0.267578,0.957581
1472089133042932,-0.083313,0.0668335,-0.267578,0.957581
1472089133058952,-0.083313,0.0668335,-0.267578,0.957581
1472089133082170,-0.083313,0.0668335,-0.267578,0.957581
1472089133103220,-0.083313,0.0668335,-0.267578,0.957581
1472089133119720,-0.083374,0.0668335,-0.267578,0.957581
1472089133142249,-0.083313,0.0668945,-0.267456,0.957581
1472089133163261,-0.0835571,0.0670166,-0.267334,0.957642
1472089133179781,-0.0834961,0.0672607,-0.267212,0.957642
1472089133202313,-0.0826416,0.0675049,-0.266968,0.957764
1472089133223342,-0.081665,0.067749,-0.266785,0.957886
1472089133239865,-0.0812988,0.0679932,-0.266663,0.957947
1472089133261899,-0.0812378,0.0679932,-0.266541,0.957947
1472089133282690,-0.0811768,0.0678101,-0.266602,0.957947
1472089133299781,-0.0812378,0.067688,-0.266541,0.957947
1472089133322365,-0.0812988,0.067688,-0.266541,0.957947
1472089133344543,-0.081665,0.067627,-0.266663,0.957886
1472089133359624,-0.0817261,0.067627,-0.266663,0.957886
1472089133382220,-0.0817871,0.067627,-0.266663,0.957886
1472089133404762,-0.081604,0.067627,-0.266785,0.957886
1472089133419841,-0.081604,0.067627,-0.266785,0.957886
1472089133442414,-0.081604,0.067627,-0.266785,0.957886
1472089133464734,-0.081604,0.067627,-0.266785,0.957886
1472089133479897,-0.081543,0.0675659,-0.266785,0.957886
1472089133502165,-0.0814209,0.0674438,-0.266785,0.957947
1472089133524667,-0.0814209,0.0674438,-0.266785,0.957886
1472089133539338,-0.0814819,0.0674438,-0.266785,0.957886
1472089133562009,-0.081543,0.0674438,-0.266785,0.957886
1472089133584973,-0.081543,0.0674438,-0.266785,0.957886
1472089133599036,-0.081543,0.0674438,-0.266785,0.957886
1472089133622031,-0.081604,0.0673828,-0.266785,0.957886
1472089133644589,-0.081604,0.0673828,-0.266785,0.957886
1472089133658496,-0.081604,0.0673828,-0.266785,0.957886
1472089133682138,-0.081604,0.0673828,-0.266785,0.957886
1472089133704741,-0.081604,0.0673828,-0.266785,0.957886
1472089133719225,-0.081665,0.0673828,-0.266785,0.957886
1472089133748156,-0.0817261,0.0673828,-0.266785,0.957886
1472089133764883,-0.0817261,0.0673828,-0.266785,0.957886
1472089133779008,-0.0817871,0.0671997,-0.266724,0.957947
1472089133802114,-0.0819092,0.0670166,-0.266602,0.957947
1472089133824633,-0.0819092,0.0670166,-0.266602,0.957947
1472089133845704,-0.0822144,0.0670776,-0.266602,0.957947
1472089133861282,-0.0827637,0.0672607,-0.266541,0.957886
1472089133884403,-0.0828247,0.0672607,-0.266541,0.957886
1472089133906128,-0.0827637,0.0673828,-0.266479,0.957886
1472089133922148,-0.0828247,0.0674438,-0.266235,0.957947
1472089133944740,-0.0831909,0.067688,-0.265869,0.958008
1472089133965801,-0.0840454,0.0681152,-0.265625,0.957947
1472089133989864,-0.0844727,0.0684814,-0.265503,0.957947
1472089134004951,-0.0848389,0.0686646,-0.265564,0.957886
1472089134025973,-0.0848999,0.0686646,-0.265564,0.957886
1472089134042003,-0.0848999,0.0686035,-0.265564,0.957886
1472089134064554,-0.0849609,0.0685425,-0.265625,0.957886
1472089134085176,-0.0849609,0.0685425,-0.265625,0.957886
1472089134102266,-0.0849609,0.0685425,-0.265625,0.957886
1472089134124758,-0.0849609,0.0684814,-0.265625,0.957886
1472089134145816,-0.0844727,0.0685425,-0.265503,0.957947
1472089134162274,-0.0845337,0.0685425,-0.265503,0.957947
1472089134184338,-0.0845947,0.0685425,-0.265503,0.957947
1472089134206041,-0.0844727,0.0683594,-0.265564,0.957947
1472089134222143,-0.0843506,0.0682373,-0.265503,0.957947
1472089134244759,-0.0844116,0.0682373,-0.265503,0.957947
1472089134265789,-0.0844727,0.0682373,-0.265503,0.957947
1472089134281934,-0.0844727,0.0682373,-0.265503,0.957947
1472089134304651,-0.0845337,0.0682373,-0.265503,0.957947
1472089134327129,-0.0845337,0.0682373,-0.265503,0.957947
1472089134341770,-0.0845337,0.0682373,-0.265503,0.957947
1472089134364597,-0.0845947,0.0682373,-0.265503,0.957947
1472089134387110,-0.0845947,0.0682373,-0.265503,0.957947
1472089134402275,-0.0845947,0.0682373,-0.265503,0.957947
1472089134424764,-0.0846558,0.0682373,-0.265564,0.957947
1472089134447151,-0.0846558,0.0682373,-0.265564,0.957947
1472089134461170,-0.0846558,0.0681763,-0.265564,0.957947
1472089134484988,-0.0847168,0.0681763,-0.265564,0.957947
1472089134507105,-0.0847168,0.0681763,-0.265564,0.957947
1472089134521643,-0.0847778,0.0682373,-0.265564,0.957947
1472089134544843,-0.0847778,0.0682373,-0.265564,0.957886
1472089134567462,-0.0848389,0.0681763,-0.265564,0.957886
1472089134581284,-0.0848389,0.0681763,-0.265564,0.957886
1472089134604811,-0.0848389,0.0681763,-0.265564,0.957886
1472089134627325,-0.0848389,0.0681763,-0.265564,0.957886
1472089134641489,-0.0848999,0.0681152,-0.265564,0.957886
1472089134664072,-0.0847778,0.0680542,-0.265564,0.957947
1472089134687040,-0.0848389,0.0680542,-0.265564,0.957947
1472089134701558,-0.0848389,0.0680542,-0.265564,0.957947
1472089134724669,-0.0848389,0.0680542,-0.265564,0.957886
1472089134747336,-0.0847168,0.0679932,-0.265625,0.957947
1472089134761365,-0.0846558,0.0679932,-0.265747,0.957886
1472089134785056,-0.0845337,0.0680542,-0.265869,0.957886
1472089134806263,-0.0845337,0.0679932,-0.265869,0.957886
1472089134828095,-0.0845947,0.0679932,-0.265869,0.957886
1472089134845227,-0.0845947,0.0679932,-0.265869,0.957825
1472089134867207,-0.0846558,0.0679932,-0.265869,0.957825
1472089134887841,-0.0846558,0.0679932,-0.265869,0.957825
1472089134904923,-0.0846558,0.0679932,-0.265869,0.957825
1472089134927012,-0.0845337,0.0678711,-0.26593,0.957825
1472089134948476,-0.0845947,0.0678711,-0.26593,0.957825
1472089134964905,-0.0845947,0.0678711,-0.26593,0.957825
1472089134987045,-0.0845947,0.0678711,-0.26593,0.957825
1472089135008594,-0.0846558,0.0678711,-0.26593,0.957825
1472089135024709,-0.0846558,0.0678101,-0.26593,0.957825
1472089135047453,-0.0847168,0.0678101,-0.26593,0.957825
1472089135068562,-0.0847168,0.0678101,-0.26593,0.957825
1472089135084658,-0.0847778,0.0678101,-0.26593,0.957825
1472089135107187,-0.0847778,0.0678101,-0.26593,0.957825
1472089135128217,-0.0848389,0.0678101,-0.26593,0.957825
1472089135144888,-0.0848389,0.0678101,-0.26593,0.957825
1472089135167198,-0.0848999,0.0678101,-0.26593,0.957825
1472089135188252,-0.0849609,0.0678101,-0.26593,0.957825
1472089135204801,-0.0849609,0.067749,-0.26593,0.957825
1472089135227321,-0.085022,0.0678101,-0.26593,0.957825
1472089135249803,-0.085022,0.0678101,-0.26593,0.957825
1472089135264481,-0.0848999,0.067627,-0.266052,0.957825
1472089135287333,-0.0848999,0.0675049,-0.266174,0.957764
1472089135309879,-0.0848999,0.0675049,-0.266174,0.957764
1472089135324889,-0.0848389,0.0673828,-0.266235,0.957764
1472089135346967,-0.0848999,0.0673828,-0.266235,0.957764
1472089135369557,-0.0848999,0.0673218,-0.266296,0.957764
1472089135384597,-0.0848999,0.0673218,-0.266296,0.957764
1472089135407054,-0.0849609,0.0673218,-0.266296,0.957764
1472089135429582,-0.0849609,0.0673218,-0.266296,0.957764
1472089135444093,-0.0849609,0.0673218,-0.266296,0.957764
1472089135466625,-0.0852051,0.0673828,-0.266174,0.957764
1472089135489648,-0.0852661,0.0673218,-0.266174,0.957764
1472089135504338,-0.085144,0.0673828,-0.266113,0.957764
1472089135527380,-0.0849609,0.0673828,-0.266052,0.957825
1472089135549992,-0.085022,0.0673828,-0.266052,0.957825
1472089135564164,-0.085022,0.0673828,-0.266052,0.957825
1472089135587328,-0.085083,0.0673828,-0.266052,0.957825
1472089135609945,-0.085083,0.0673218,-0.266052,0.957825
1472089135623964,-0.085144,0.0673218,-0.266052,0.957825
1472089135647007,-0.085144,0.0673218,-0.266052,0.957825
1472089135669600,-0.0852051,0.0673218,-0.266052,0.957764
1472089135683985,-0.085083,0.0672607,-0.266174,0.957764
1472089135707074,-0.0849609,0.0672607,-0.266235,0.957764
1472089135729712,-0.085022,0.0672607,-0.266235,0.957764
1472089135751057,-0.085022,0.0672607,-0.266235,0.957764
1472089135767106,-0.085083,0.0671997,-0.266235,0.957764
1472089135789823,-0.0852051,0.0675049,-0.266235,0.957764
1472089135811015,-0.0853271,0.0678101,-0.266235,0.957703
1472089135827198,-0.0853271,0.0681152,-0.266235,0.957703
1472089135849850,-0.0852051,0.0682983,-0.266296,0.957642
1472089135870637,-0.0849609,0.0684204,-0.266357,0.957642
1472089135887442,-0.0849609,0.0684204,-0.266357,0.957642
1472089135909814,-0.085022,0.0684204,-0.266357,0.957642
1472089135930882,-0.085022,0.0683594,-0.266357,0.957642
1472089135947147,-0.085083,0.0683594,-0.266357,0.957642
1472089135969728,-0.085144,0.0684204,-0.266357,0.957642
1472089135990970,-0.085022,0.0682983,-0.266357,0.957642
1472089136007144,-0.0848999,0.0681763,-0.266418,0.957642
1472089136029667,-0.0849609,0.0681763,-0.266418,0.957642
1472089136050895,-0.0849609,0.0681152,-0.266418,0.957642
1472089136067480,-0.085022,0.0681152,-0.266418,0.957642
1472089136089662,-0.085022,0.0681152,-0.266418,0.957642
1472089136110691,-0.085083,0.0681763,-0.266418,0.957642
1472089136127103,-0.085083,0.0681763,-0.266418,0.957642
1472089136149748,-0.085022,0.0681152,-0.266479,0.957642
1472089136178260,-0.0848389,0.0679321,-0.266479,0.957642
1472089136187342,-0.0848999,0.0679321,-0.266479,0.957642
1472089136209904,-0.0848999,0.0679321,-0.266479,0.957642
1472089136232438,-0.0852051,0.0678711,-0.266418,0.957642
1472089136247019,-0.0854492,0.0679321,-0.266296,0.957642
1472089136269184,-0.0855103,0.0679321,-0.266296,0.957642
1472089136292377,-0.0855103,0.0679321,-0.266296,0.957642
1472089136306974,-0.0855713,0.0679321,-0.266296,0.957642
1472089136329586,-0.0855713,0.0679321,-0.266296,0.957642
1472089136352114,-0.0856323,0.0678711,-0.266296,0.957642
1472089136366694,-0.0856323,0.0678711,-0.266296,0.957642
1472089136389573,-0.0856323,0.0678711,-0.266296,0.957642
1472089136411189,-0.0856934,0.0678711,-0.266296,0.957642
1472089136426603,-0.0855713,0.0678711,-0.266296,0.957642
1472089136449785,-0.0856323,0.067749,-0.266418,0.957642
1472089136472083,-0.0856323,0.067749,-0.266418,0.957642
1472089136486667,-0.0856934,0.067749,-0.266418,0.957642
1472089136510216,-0.0856934,0.067749,-0.266418,0.957642
1472089136532157,-0.0857544,0.067749,-0.266418,0.957642
1472089136546736,-0.0857544,0.067749,-0.266418,0.957642
1472089136569871,-0.0857544,0.067749,-0.266418,0.957642
1472089136592692,-0.0858154,0.067749,-0.266418,0.957642
1472089136606709,-0.0858154,0.067749,-0.266418,0.957642
1472089136629807,-0.0858154,0.067749,-0.266418,0.957642
1472089136652436,-0.0858765,0.067749,-0.266418,0.957642
1472089136666538,-0.0858765,0.067749,-0.266418,0.957642
1472089136689724,-0.0858765,0.067749,-0.266418,0.957642
1472089136712529,-0.0859375,0.067749,-0.266418,0.957581
1472089136733124,-0.0859375,0.067749,-0.266418,0.957581
1472089136749886,-0.0859985,0.067688,-0.266418,0.957581
1472089136772472,-0.0859985,0.067688,-0.266418,0.957581
1472089136793529,-0.0859985,0.067688,-0.266418,0.957581
1472089136809524,-0.0860596,0.067688,-0.266418,0.957581
1472089136832092,-0.0860596,0.067749,-0.266418,0.957581
1472089136853216,-0.0861206,0.067688,-0.266418,0.957581
1472089136869728,-0.0861206,0.067688,-0.266418,0.957581
1472089136892335,-0.0861816,0.067688,-0.266418,0.957581
1472089136913602,-0.0861816,0.067688,-0.266418,0.957581
1472089136929679,-0.0862427,0.067688,-0.266418,0.957581
1472089136952107,-0.0863037,0.067688,-0.266418,0.957581
1472089136973249,-0.0863037,0.067688,-0.266418,0.957581
1472089136989948,-0.0863647,0.067688,-0.266418,0.957581
1472089137012081,-0.0863647,0.067688,-0.266418,0.957581
1472089137033600,-0.0863647,0.067688,-0.266418,0.957581
1472089137049623,-0.0863647,0.067688,-0.266418,0.957581
1472089137071481,-0.0864258,0.067688,-0.266418,0.957581
1472089137093503,-0.0864868,0.067688,-0.266418,0.957581
1472089137109640,-0.0864868,0.067688,-0.266418,0.957581
1472089137132262,-0.0864868,0.067627,-0.266418,0.957581
1472089137154610,-0.0865479,0.067627,-0.266418,0.957581
1472089137169223,-0.0865479,0.067627,-0.266418,0.95752
1472089137192561,-0.0866089,0.067627,-0.266418,0.95752
1472089137214944,-0.0866089,0.067627,-0.266418,0.95752
1472089137229961,-0.0866089,0.0675659,-0.266479,0.95752
1472089137252190,-0.0866699,0.0675659,-0.266479,0.95752
1472089137274745,-0.086731,0.0675659,-0.266479,0.95752
1472089137289637,-0.086731,0.067627,-0.266479,0.95752
1472089137312326,-0.086792,0.067627,-0.266479,0.95752
1472089137334859,-0.086853,0.067627,-0.266479,0.95752
1472089137348924,-0.086853,0.067627,-0.266479,0.95752
1472089137372511,-0.086853,0.0675659,-0.266479,0.95752
1472089137394745,-0.0869141,0.0675659,-0.266479,0.95752
1472089137409196,-0.0869141,0.0675659,-0.266479,0.95752
1472089137432232,-0.0869141,0.0675659,-0.266479,0.95752
1472089137454632,-0.0869751,0.0675659,-0.266479,0.95752
1472089137469167,-0.0869751,0.0675659,-0.266479,0.95752
1472089137492467,-0.086792,0.067627,-0.266479,0.95752
1472089137514530,-0.0866089,0.067627,-0.266541,0.95752
1472089137529043,-0.0866699,0.067627,-0.266541,0.95752
1472089137552117,-0.0866699,0.067627,-0.266541,0.95752
1472089137574933,-0.086731,0.0675659,-0.266541,0.95752
1472089137588994,-0.086731,0.0675659,-0.266541,0.95752
1472089137611941,-0.0869751,0.067749,-0.266541,0.957458
1472089137634990,-0.0869751,0.067749,-0.266541,0.957458
1472089137655793,-0.0870361,0.067749,-0.266541,0.957458
1472089137672208,-0.0870361,0.067749,-0.266541,0.957458
1472089137694875,-0.0870361,0.067749,-0.266541,0.957458
1472089137715773,-0.0870361,0.067749,-0.266541,0.957458
1472089137732243,-0.0870972,0.067749,-0.266541,0.957458
1472089137755044,-0.0870972,0.067749,-0.266541,0.957458
1472089137776094,-0.0871582,0.067749,-0.266541,0.957458
1472089137792067,-0.0872192,0.067749,-0.266541,0.957458
1472089137814873,-0.0872192,0.067749,-0.266541,0.957458
1472089137835861,-0.0872803,0.067749,-0.266541,0.957458
1472089137852455,-0.0872803,0.067749,-0.266541,0.957458
1472089137873936,-0.0872803,0.067749,-0.266541,0.957458
1472089137895670,-0.0872803,0.067749,-0.266541,0.957458
1472089137912276,-0.0873413,0.067749,-0.266541,0.957458
1472089137934769,-0.0873413,0.0678101,-0.266541,0.957458
1472089137955824,-0.0873413,0.067749,-0.266541,0.957458
1472089137972414,-0.0872192,0.067749,-0.266541,0.957458
1472089137994570,-0.0872192,0.067749,-0.266541,0.957458
1472089138015849,-0.0872192,0.067749,-0.266541,0.957458
1472089138032394,-0.0872803,0.067749,-0.266541,0.957458
1472089138054964,-0.0872803,0.067749,-0.266541,0.957458
1472089138076151,-0.0873413,0.067749,-0.266541,0.957458
1472089138092190,-0.0873413,0.067749,-0.266541,0.957458
1472089138114975,-0.0873413,0.067749,-0.266541,0.957458
1472089138137421,-0.0873413,0.067749,-0.266541,0.957458
1472089138152476,-0.0874023,0.067749,-0.266541,0.957458
1472089138175052,-0.0874023,0.067749,-0.266541,0.957458
1472089138197313,-0.0874023,0.067749,-0.266541,0.957458
1472089138212158,-0.0872803,0.0678101,-0.266602,0.957397
1472089138234714,-0.0873413,0.0678101,-0.266602,0.957397
1472089138257445,-0.0873413,0.0678101,-0.266602,0.957397
1472089138271518,-0.0873413,0.0678101,-0.266602,0.957397
1472089138294765,-0.0873413,0.0678101,-0.266602,0.957397
1472089138317388,-0.0875244,0.0679321,-0.266602,0.957397
1472089138332050,-0.0875244,0.0678711,-0.266602,0.957397
1472089138354991,-0.0873413,0.0678101,-0.266663,0.957397
1472089138377112,-0.0873413,0.0678101,-0.266663,0.957397
1472089138392080,-0.0873413,0.0678101,-0.266663,0.957397
1472089138415028,-0.0876465,0.0678101,-0.266602,0.957397
1472089138437550,-0.0876465,0.0678101,-0.266602,0.957397
1472089138451600,-0.0877075,0.0678101,-0.266602,0.957397
1472089138474752,-0.0877075,0.0678101,-0.266602,0.957397
1472089138497436,-0.0877075,0.0678101,-0.266602,0.957397
1472089138511463,-0.0877075,0.0678101,-0.266602,0.957397
1472089138534790,-0.0877686,0.0678101,-0.266602,0.957397
1472089138557361,-0.0877686,0.067749,-0.266602,0.957397
1472089138571519,-0.0877686,0.067749,-0.266602,0.957397
1472089138594617,-0.0878296,0.0678101,-0.266602,0.957397
1472089138617335,-0.0878296,0.0678101,-0.266602,0.957397
1472089138638353,-0.0877686,0.067688,-0.266663,0.957397
1472089138654999,-0.0877686,0.067688,-0.266663,0.957397
1472089138677110,-0.0877686,0.067688,-0.266663,0.957397
1472089138698488,-0.0877075,0.0675659,-0.266724,0.957336
1472089138715017,-0.0877075,0.0675049,-0.266785,0.957336
1472089138737172,-0.0877075,0.0675049,-0.266785,0.957336
1472089138757884,-0.0877075,0.0675049,-0.266785,0.957336
1472089138774883,-0.0878906,0.067627,-0.266785,0.957336
1472089138797264,-0.0879517,0.067627,-0.266785,0.957336
1472089138818520,-0.0879517,0.067627,-0.266785,0.957336
1472089138834651,-0.0878906,0.0675659,-0.266785,0.957336
1472089138857270,-0.0881348,0.067688,-0.266663,0.957336
1472089138878484,-0.0884399,0.067688,-0.266541,0.957336
1472089138895052,-0.088501,0.067627,-0.266602,0.957336
1472089138917319,-0.088501,0.067627,-0.266602,0.957336
1472089138938489,-0.088562,0.067627,-0.266602,0.957336
1472089138955117,-0.0883789,0.067749,-0.266541,0.957336
1472089138977219,-0.0883789,0.0679932,-0.266479,0.957336
1472089138998371,-0.0882568,0.0681763,-0.266479,0.957336
1472089139014975,-0.0882568,0.0681763,-0.266479,0.957336
1472089139037496,-0.0880127,0.0682373,-0.266418,0.957397
1472089139059609,-0.0878906,0.0681763,-0.266479,0.957397
1472089139074992,-0.0876465,0.0681763,-0.266541,0.957397
1472089139097217,-0.0875854,0.0681152,-0.266541,0.957397
1472089139119926,-0.0876465,0.0681152,-0.266541,0.957397
1472089139134962,-0.0876465,0.0681152,-0.266541,0.957397
1472089139157144,-0.0876465,0.0681152,-0.266541,0.957397
1472089139179727,-0.0875244,0.0681152,-0.266541,0.957397
1472089139194262,-0.0875244,0.0681152,-0.266541,0.957397
1472089139217506,-0.0875854,0.0681152,-0.266541,0.957397
1472089139247067,-0.0875854,0.0681152,-0.266541,0.957397
1472089139254079,-0.0875854,0.0681152,-0.266541,0.957397
1472089139277308,-0.0875854,0.0681152,-0.266541,0.957397
1472089139299907,-0.0875854,0.0681152,-0.266541,0.957397
1472089139314009,-0.0875854,0.0681152,-0.266541,0.957397
1472089139337447,-0.0876465,0.0681152,-0.266541,0.957397
1472089139359687,-0.0876465,0.0681152,-0.266541,0.957397
1472089139374377,-0.0876465,0.0681152,-0.266541,0.957397
1472089139397007,-0.0876465,0.0680542,-0.266541,0.957397
1472089139419769,-0.0877075,0.0680542,-0.266541,0.957397
1472089139434290,-0.0877075,0.0680542,-0.266541,0.957397
1472089139457392,-0.0877686,0.0680542,-0.266541,0.957397
1472089139479224,-0.0877686,0.0681152,-0.266541,0.957397
1472089139494291,-0.0880127,0.0682373,-0.266602,0.957336
1472089139517268,-0.0880737,0.0682373,-0.266602,0.957336
1472089139539844,-0.0880737,0.0681763,-0.266602,0.957336
1472089139560970,-0.0880737,0.0681763,-0.266602,0.957336
1472089139577107,-0.0883179,0.0681763,-0.266663,0.957275
1472089139599776,-0.0883179,0.0681763,-0.266663,0.957275
1472089139620837,-0.0880737,0.0682983,-0.266602,0.957336
1472089139637264,-0.0879517,0.0682373,-0.266602,0.957336
1472089139659803,-0.0877686,0.0681763,-0.266541,0.957336
1472089139680983,-0.0877075,0.0680542,-0.266602,0.957336
1472089139697181,-0.0877075,0.0680542,-0.266602,0.957336
1472089139719798,-0.0877075,0.0680542,-0.266602,0.957336
1472089139740914,-0.0877075,0.0680542,-0.266602,0.957336
1472089139757508,-0.0877075,0.0680542,-0.266602,0.957336
1472089139779545,-0.0877075,0.0680542,-0.266602,0.957336
1472089139800693,-0.0877686,0.0680542,-0.266602,0.957336
1472089139817259,-0.0877686,0.0678711,-0.266663,0.957336
1472089139839825,-0.0877686,0.0678711,-0.266663,0.957336
1472089139861186,-0.0877686,0.0678711,-0.266663,0.957336
1472089139877430,-0.0877686,0.0678711,-0.266663,0.957336
1472089139899819,-0.0877686,0.0678711,-0.266663,0.957336
1472089139921009,-0.0878296,0.0678711,-0.266663,0.957336
1472089139937553,-0.0876465,0.0678711,-0.266602,0.957397
1472089139959694,-0.0877075,0.0679321,-0.266602,0.957397
1472089139980920,-0.0877075,0.0679321,-0.266602,0.957397
1472089139997079,-0.0877686,0.0678711,-0.266602,0.957397
1472089140019551,-0.0877686,0.0679321,-0.266602,0.957397
1472089140042070,-0.0877686,0.0678711,-0.266602,0.957397
1472089140057090,-0.0877686,0.0678711,-0.266602,0.957397
1472089140079169,-0.0878296,0.0678711,-0.266602,0.957397
1472089140102281,-0.0878296,0.0678711,-0.266602,0.957397
1472089140117346,-0.0878296,0.0678711,-0.266602,0.957397
1472089140139846,-0.0878296,0.0678711,-0.266602,0.957397
1472089140162384,-0.0878296,0.0678711,-0.266602,0.957397
1472089140176403,-0.0878906,0.0678711,-0.266602,0.957336
1472089140199980,-0.0878906,0.0678101,-0.266602,0.957336
1472089140221986,-0.0879517,0.0678711,-0.266602,0.957336
1472089140236504,-0.0879517,0.0678711,-0.266602,0.957336
1472089140259534,-0.0879517,0.0678711,-0.266602,0.957336
1472089140282105,-0.0880127,0.0678101,-0.266602,0.957336
1472089140296716,-0.0880127,0.0678101,-0.266602,0.957336
1472089140319809,-0.0880127,0.0678101,-0.266602,0.957336
1472089140342388,-0.0880127,0.0678101,-0.266602,0.957336
1472089140356521,-0.0880127,0.0678101,-0.266602,0.957336
1472089140379939,-0.0880737,0.0678101,-0.266602,0.957336
1472089140402483,-0.0880737,0.0678101,-0.266602,0.957336
1472089140416944,-0.0880737,0.0678101,-0.266602,0.957336
1472089140439958,-0.0880737,0.0678101,-0.266602,0.957336
1472089140462080,-0.0880737,0.0678101,-0.266602,0.957336
1472089140476779,-0.0879517,0.067749,-0.266602,0.957336
1472089140499953,-0.0877686,0.067749,-0.266663,0.957397
1472089140522504,-0.0876465,0.067749,-0.266663,0.957397
1472089140543578,-0.0877075,0.067749,-0.266663,0.957397
1472089140560155,-0.0877075,0.067749,-0.266663,0.957397
1472089140582320,-0.0877075,0.067749,-0.266663,0.957397
1472089140603477,-0.0877686,0.067749,-0.266663,0.957397
1472089140619578,-0.0877686,0.067749,-0.266663,0.957397
1472089140642079,-0.0877686,0.067688,-0.266663,0.957397
1472089140663449,-0.0877686,0.067688,-0.266663,0.957397
1472089140679973,-0.0878296,0.067688,-0.266663,0.957336
1472089140702105,-0.0878296,0.067688,-0.266663,0.957336
1472089140723413,-0.0878296,0.067688,-0.266663,0.957336
1472089140739897,-0.0878906,0.067688,-0.266663,0.957336
1472089140762486,-0.0878906,0.067688,-0.266663,0.957336
1472089140783228,-0.0878906,0.067749,-0.266663,0.957336
1472089140800034,-0.0878906,0.067749,-0.266663,0.957336
1472089140822239,-0.0879517,0.067749,-0.266663,0.957336
1472089140843313,-0.0879517,0.067688,-0.266663,0.957336
1472089140859831,-0.0879517,0.067688,-0.266663,0.957336
1472089140882417,-0.0879517,0.067749,-0.266663,0.957336
1472089140903483,-0.0880127,0.067749,-0.266663,0.957336
1472089140919518,-0.0880127,0.067749,-0.266663,0.957336
1472089140942087,-0.0878906,0.067627,-0.266724,0.957336
1472089140964876,-0.0879517,0.067627,-0.266724,0.957336
1472089140979881,-0.0879517,0.067627,-0.266724,0.957336
1472089141002532,-0.0879517,0.067627,-0.266724,0.957336
1472089141024971,-0.0880127,0.067627,-0.266724,0.957336
1472089141039921,-0.0877686,0.0675659,-0.266846,0.957336
1472089141062476,-0.0875854,0.0675049,-0.266968,0.957336
1472089141084251,-0.0876465,0.0675049,-0.266968,0.957336
1472089141099224,-0.0876465,0.0675049,-0.266968,0.957336
1472089141122247,-0.0876465,0.0675049,-0.266968,0.957336
1472089141144817,-0.0877075,0.0675049,-0.266968,0.957336
1472089141159410,-0.0877075,0.0675049,-0.266968,0.957275
1472089141182551,-0.0877075,0.0675049,-0.266968,0.957275
1472089141205200,-0.0877075,0.0675049,-0.266968,0.957275
1472089141219403,-0.0877075,0.0675049,-0.266968,0.957275
1472089141242489,-0.0877075,0.0675049,-0.266968,0.957275
1472089141265020,-0.0877686,0.0675049,-0.266968,0.957275
1472089141286094,-0.0877686,0.0675049,-0.266968,0.957275
1472089141302935,-0.0877686,0.0675049,-0.266968,0.957275
1472089141325007,-0.0877686,0.0675049,-0.266968,0.957275
1472089141339232,-0.0877686,0.0675049,-0.266968,0.957275
1472089141362290,-0.0877686,0.0675049,-0.266968,0.957275
1472089141384977,-0.0878296,0.0675049,-0.266968,0.957275
1472089141399074,-0.0878296,0.0675049,-0.266968,0.957275
1472089141422211,-0.0878906,0.0675659,-0.266968,0.957275
1472089141444699,-0.0878296,0.0675659,-0.266968,0.957275
1472089141465902,-0.0878296,0.0675659,-0.266968,0.957275
1472089141482272,-0.0878906,0.0675049,-0.266968,0.957275
1472089141504902,-0.0878906,0.0675049,-0.266968,0.957275
1472089141525802,-0.0878906,0.0675049,-0.266968,0.957275
1472089141542334,-0.0878906,0.0675049,-0.266968,0.957275
1472089141564977,-0.0879517,0.0675049,-0.266968,0.957275
1472089141585919,-0.0879517,0.0675049,-0.266968,0.957275
1472089141602409,-0.0879517,0.0675049,-0.266968,0.957275
1472089141624988,-0.0879517,0.0675049,-0.266968,0.957275
1472089141646063,-0.0879517,0.0675049,-0.266968,0.957275
1472089141662165,-0.0879517,0.0675049,-0.266968,0.957275
1472089141685047,-0.0879517,0.0675049,-0.266968,0.957275
1472089141705837,-0.0879517,0.0674438,-0.266968,0.957275
1472089141722454,-0.0880127,0.0674438,-0.266968,0.957275
1472089141745015,-0.0880127,0.0674438,-0.266968,0.957275
1472089141766047,-0.0880127,0.0674438,-0.266968,0.957275
1472089141782206,-0.0880127,0.0674438,-0.266968,0.957275
1472089141804968,-0.0880127,0.0674438,-0.266968,0.957275
1472089141825964,-0.0880127,0.0674438,-0.266968,0.957275
1472089141842479,-0.0880737,0.0674438,-0.266968,0.957275
1472089141865040,-0.0880737,0.0674438,-0.266968,0.957275
1472089141886724,-0.0880737,0.0674438,-0.266968,0.957275
1472089141902119,-0.0881348,0.0674438,-0.266968,0.957275
1472089141925067,-0.0879517,0.0674438,-0.266846,0.957336
1472089141947138,-0.0879517,0.0675049,-0.266846,0.957336
1472089141962141,-0.0880127,0.0675049,-0.266846,0.957336
1472089141984708,-0.0880127,0.0675049,-0.266846,0.957336
1472089142007396,-0.0880127,0.0675049,-0.266846,0.957336
1472089142022566,-0.0880127,0.0675049,-0.266846,0.957336
1472089142044635,-0.0880127,0.0674438,-0.266846,0.957336
1472089142067222,-0.0880127,0.0674438,-0.266846,0.957336
1472089142081925,-0.0880737,0.0675049,-0.266846,0.957336
1472089142104665,-0.0878906,0.0675049,-0.266907,0.957336
1472089142127487,-0.0876465,0.0673218,-0.267029,0.957336
1472089142141632,-0.0876465,0.0673218,-0.267029,0.957336
1472089142164696,-0.0876465,0.0673218,-0.267029,0.957336
1472089142187151,-0.0876465,0.0673218,-0.267029,0.957336
1472089142201664,-0.0878906,0.0672607,-0.267029,0.957275
1472089142224887,-0.0878906,0.0672607,-0.267029,0.957275
1472089142247382,-0.0878906,0.0672607,-0.267029,0.957275
1472089142261960,-0.0879517,0.0672607,-0.267029,0.957275
1472089142284973,-0.0879517,0.0672607,-0.267029,0.957275
1472089142307240,-0.0881348,0.0672607,-0.266968,0.957275
1472089142321883,-0.088501,0.0673828,-0.266968,0.957214
1472089142344572,-0.0887451,0.0674438,-0.266968,0.957214
1472089142367256,-0.0890503,0.0675659,-0.266907,0.957214
1472089142388361,-0.0892944,0.067749,-0.266907,0.957153
1472089142404848,-0.0892944,0.067749,-0.266907,0.957153
1472089142427287,-0.0892944,0.067749,-0.266907,0.957153
1472089142448336,-0.0892944,0.067749,-0.266907,0.957153
1472089142464936,-0.0893555,0.067749,-0.266907,0.957153
1472089142487196,-0.0893555,0.067749,-0.266907,0.957153
1472089142508170,-0.0893555,0.067749,-0.266907,0.957153
1472089142524783,-0.0893555,0.067749,-0.266907,0.957153
1472089142547322,-0.0894165,0.067749,-0.266907,0.957153
1472089142575871,-0.0894165,0.067749,-0.266907,0.957153
1472089142592421,-0.0894165,0.067749,-0.266907,0.957153
1472089142607473,-0.0894165,0.067749,-0.266907,0.957153
1472089142628381,-0.0894775,0.067749,-0.266907,0.957153
1472089142644566,-0.0894775,0.0679932,-0.266846,0.957153
1472089142667210,-0.0894775,0.0679932,-0.266846,0.957153
1472089142688473,-0.0895386,0.0679932,-0.266846,0.957153
1472089142704828,-0.0895386,0.0680542,-0.266846,0.957153
1472089142727422,-0.0895386,0.0680542,-0.266846,0.957153
1472089142748726,-0.0895386,0.0680542,-0.266846,0.957153
1472089142765119,-0.0895996,0.0680542,-0.266846,0.957153
1472089142793449,-0.0895996,0.0681152,-0.266846,0.957153
1472089142808424,-0.0895996,0.0681152,-0.266846,0.957153
1472089142824935,-0.0896606,0.0681152,-0.266846,0.957092
1472089142847497,-0.0898438,0.0682983,-0.266846,0.957092
1472089142870059,-0.0900879,0.0684814,-0.266785,0.957092
1472089142884731,-0.0900879,0.0684814,-0.266785,0.957092
1472089142907490,-0.0900879,0.0685425,-0.266785,0.957092
1472089142931030,-0.0900879,0.0685425,-0.266785,0.957092
1472089142945038,-0.0900879,0.0685425,-0.266785,0.957092
1472089142967411,-0.0903931,0.0686035,-0.266724,0.957031
1472089142989994,-0.0906982,0.0686646,-0.266724,0.957031
1472089143004105,-0.0909424,0.0687256,-0.266663,0.957031
1472089143027278,-0.0912476,0.0688477,-0.266602,0.95697
1472089143049852,-0.0914917,0.0690918,-0.266541,0.95697
1472089143064330,-0.0914917,0.0691528,-0.266541,0.95697
1472089143087507,-0.0914917,0.0691528,-0.266541,0.95697
1472089143109602,-0.0914917,0.0691528,-0.266541,0.95697
1472089143124142,-0.0914917,0.0691528,-0.266541,0.95697
1472089143147164,-0.0916748,0.0691528,-0.266541,0.956909
1472089143169873,-0.09198,0.0692139,-0.266418,0.956909
1472089143183993,-0.0922852,0.069397,-0.266235,0.95697
1472089143207576,-0.0922852,0.069397,-0.266235,0.956909
1472089143229826,-0.0922852,0.069397,-0.266235,0.956909
1472089143244338,-0.0923462,0.069458,-0.266235,0.956909
1472089143267374,-0.0923462,0.069458,-0.266235,0.956909
1472089143289201,-0.0923462,0.069458,-0.266235,0.956909
1472089143304364,-0.0924072,0.069458,-0.266235,0.956909
1472089143327151,-0.0924072,0.069458,-0.266235,0.956909
1472089143349568,-0.0924072,0.069519,-0.266235,0.956909
1472089143370191,-0.0924683,0.069519,-0.266235,0.956909
1472089143387279,-0.0924683,0.069519,-0.266235,0.956909
1472089143409777,-0.0924683,0.0695801,-0.266235,0.956909
1472089143430863,-0.0924683,0.0695801,-0.266235,0.956909
1472089143447387,-0.0924683,0.0695801,-0.266235,0.956909
1472089143469922,-0.0924683,0.0695801,-0.266235,0.956909
1472089143490925,-0.0924683,0.0695801,-0.266235,0.956909
1472089143507169,-0.0925293,0.0695801,-0.266235,0.956909
1472089143529839,-0.0925903,0.0696411,-0.266235,0.956909
1472089143550919,-0.0925903,0.0696411,-0.266235,0.956909
1472089143567689,-0.0925903,0.0696411,-0.266235,0.956909
1472089143589831,-0.0925903,0.0696411,-0.266235,0.956909
1472089143611146,-0.0926514,0.0696411,-0.266235,0.956909
1472089143627459,-0.0926514,0.0697021,-0.266235,0.956909
1472089143649579,-0.0926514,0.0697021,-0.266235,0.956909
1472089143671168,-0.0927124,0.0697021,-0.266235,0.956909
1472089143687699,-0.0927124,0.0697021,-0.266235,0.956909
1472089143709729,-0.0927124,0.0697632,-0.266235,0.956848
1472089143730974,-0.0927734,0.0697632,-0.266235,0.956848
1472089143747508,-0.0927734,0.0697632,-0.266235,0.956848
1472089143770104,-0.0928345,0.0697632,-0.266235,0.956848
1472089143792190,-0.0928345,0.0698242,-0.266235,0.956848
1472089143806866,-0.0928345,0.0698242,-0.266235,0.956848
1472089143829760,-0.0930786,0.0700073,-0.266235,0.956848
1472089143852249,-0.0930786,0.0700073,-0.266235,0.956848
1472089143867322,-0.0930786,0.0700684,-0.266235,0.956848
1472089143889905,-0.0930786,0.0703125,-0.266235,0.956787
1472089143912104,-0.0930786,0.0703125,-0.266235,0.956787
1472089143927616,-0.0930786,0.0703125,-0.266235,0.956787
1472089143949676,-0.0930786,0.0703125,-0.266235,0.956787
1472089143972385,-0.0930786,0.0703735,-0.266235,0.956787
1472089143986934,-0.0931396,0.0703735,-0.266235,0.956787
1472089144009988,-0.0931396,0.0703735,-0.266235,0.956787
1472089144032551,-0.0930176,0.0706177,-0.266113,0.956787
1472089144046563,-0.0926514,0.0708618,-0.266113,0.956848
1472089144070097,-0.0922852,0.071106,-0.266174,0.956848
1472089144091627,-0.09198,0.0712891,-0.266296,0.956787
1472089144106678,-0.0917358,0.0713501,-0.266418,0.956787
1472089144129869,-0.0915527,0.0714722,-0.266541,0.956787
1472089144152410,-0.0915527,0.0714722,-0.266541,0.956787
1472089144166967,-0.0915527,0.0714722,-0.266541,0.956787
1472089144189940,-0.0916138,0.0714722,-0.266541,0.956787
1472089144212474,-0.0916138,0.0714722,-0.266541,0.956787
1472089144227000,-0.0916138,0.0715332,-0.266541,0.956787
1472089144250100,-0.0916138,0.0715332,-0.266541,0.956787
1472089144272161,-0.0916138,0.0715332,-0.266541,0.956787
1472089144293669,-0.0916138,0.0715332,-0.266541,0.956787
1472089144309691,-0.0916138,0.0715942,-0.266541,0.956787
1472089144332263,-0.0916138,0.0715942,-0.266541,0.956787
1472089144353324,-0.0916748,0.0715942,-0.266541,0.956726
1472089144369874,-0.0916748,0.0716553,-0.266541,0.956726
1472089144392513,-0.0916748,0.0716553,-0.266541,0.956726
1472089144413572,-0.0916748,0.0716553,-0.266541,0.956726
1472089144436665,-0.0919189,0.0717773,-0.266479,0.956726
1472089144452191,-0.0922241,0.0718384,-0.266418,0.956726
1472089144473115,-0.0922241,0.0718994,-0.266418,0.956726
1472089144490016,-0.0922852,0.0718994,-0.266418,0.956726
1472089144519570,-0.0922852,0.0718994,-0.266418,0.956726
1472089144534909,-0.0922852,0.0718994,-0.266418,0.956726
1472089144549922,-0.0923462,0.0719604,-0.266418,0.956726
1472089144572460,-0.0923462,0.0719604,-0.266418,0.956726
1472089144593526,-0.0925293,0.0720825,-0.266296,0.956726
1472089144609548,-0.0925903,0.0720825,-0.266296,0.956665
1472089144632177,-0.0925903,0.0720825,-0.266296,0.956665
1472089144660203,-0.0925903,0.0721436,-0.266296,0.956665
1472089144669570,-0.0926514,0.0721436,-0.266296,0.956665
1472089144692155,-0.0926514,0.0721436,-0.266296,0.956665
1472089144713366,-0.0926514,0.0721436,-0.266296,0.956665
1472089144737426,-0.0926514,0.0722046,-0.266296,0.956665
1472089144752441,-0.0924683,0.0722046,-0.266357,0.956665
1472089144775209,-0.0922852,0.0722656,-0.266357,0.956665
1472089144789943,-0.0922241,0.0723267,-0.266479,0.956665
1472089144812473,-0.0922241,0.0723267,-0.266479,0.956665
1472089144835059,-0.0922241,0.0723267,-0.266479,0.956665
1472089144850072,-0.0921631,0.0723877,-0.266479,0.956665
1472089144872607,-0.0921631,0.0723877,-0.266479,0.956665
1472089144894143,-0.0922241,0.0723877,-0.266479,0.956665
1472089144909171,-0.0922241,0.0723877,-0.266479,0.956665
1472089144932205,-0.0922241,0.0723877,-0.266479,0.956665
1472089144954733,-0.0922241,0.0723877,-0.266479,0.956665
1472089144969270,-0.0924683,0.0723877,-0.266357,0.956665
1472089144992391,-0.0925293,0.0724487,-0.266357,0.956665
1472089145015036,-0.0925293,0.0724487,-0.266357,0.956665
1472089145028974,-0.0925293,0.0725098,-0.266357,0.956665
1472089145052594,-0.0925293,0.0725708,-0.266418,0.956665
1472089145075065,-0.0925293,0.0725708,-0.266418,0.956665
1472089145089084,-0.0925293,0.0725708,-0.266418,0.956665
1472089145112554,-0.0925293,0.0725708,-0.266418,0.956665
1472089145142365,-0.0925293,0.0725708,-0.266418,0.956665
1472089145149372,-0.0927734,0.0726929,-0.266357,0.956604
1472089145172234,-0.0927734,0.0726929,-0.266357,0.956604
1472089145195199,-0.0927734,0.0727539,-0.266357,0.956604
1472089145216329,-0.0925903,0.0726929,-0.266418,0.956604
1472089145239125,-0.0923462,0.0726318,-0.266357,0.956665
1472089145254973,-0.0923462,0.0726929,-0.266357,0.956665
1472089145276130,-0.0924072,0.0726929,-0.266357,0.956665
1472089145292602,-0.0924072,0.0726929,-0.266357,0.956665
1472089145314971,-0.0924072,0.0726929,-0.266357,0.956665
1472089145336176,-0.0924072,0.0726929,-0.266357,0.956665
1472089145352736,-0.0924072,0.0726929,-0.266357,0.956665
1472089145374968,-0.0924683,0.0727539,-0.266357,0.956665
1472089145396318,-0.0924683,0.0727539,-0.266357,0.956665
1472089145411755,-0.0924683,0.0728149,-0.266357,0.956665
1472089145434738,-0.0925293,0.0728149,-0.266357,0.956665
1472089145456266,-0.0924683,0.0728149,-0.266357,0.956665
1472089145472495,-0.0924683,0.0728149,-0.266357,0.956665
1472089145494782,-0.0924683,0.0728149,-0.266357,0.956665
1472089145517449,-0.0925293,0.0728149,-0.266357,0.956604
1472089145532463,-0.0925293,0.0728149,-0.266357,0.956604
1472089145554736,-0.0925293,0.072876,-0.266357,0.956604
1472089145575946,-0.0925903,0.072876,-0.266357,0.956604
1472089145592475,-0.0925903,0.072876,-0.266357,0.956604
1472089145622337,-0.0925903,0.072876,-0.266357,0.956604
1472089145643259,-0.0925903,0.072937,-0.266357,0.956604
1472089145652270,-0.0925903,0.072937,-0.266357,0.956604
1472089145674800,-0.0925903,0.072937,-0.266357,0.956604
1472089145697581,-0.0925903,0.072937,-0.266357,0.956604
1472089145712628,-0.0925903,0.072937,-0.266357,0.956604
1472089145742338,-0.0925903,0.072937,-0.266357,0.956604
1472089145757352,-0.0925903,0.072937,-0.266357,0.956604
1472089145772232,-0.0926514,0.072998,-0.266357,0.956604
1472089145794968,-0.0926514,0.072998,-0.266357,0.956604
1472089145824826,-0.0926514,0.072998,-0.266357,0.956604
1472089145831844,-0.0926514,0.072998,-0.266357,0.956604
1472089145854813,-0.0928955,0.0730591,-0.266296,0.956604
1472089145877286,-0.0932007,0.0731201,-0.266174,0.956604
1472089145900088,-0.0932007,0.0731201,-0.266174,0.956604
1472089145922271,-0.0932007,0.0731201,-0.266174,0.956604
1472089145937293,-0.0932617,0.0731812,-0.266174,0.956604
1472089145951818,-0.0932617,0.0731812,-0.266174,0.956604
1472089145974832,-0.0932617,0.0731812,-0.266174,0.956604
1472089145997363,-0.0932617,0.0731812,-0.266174,0.956604
1472089146011400,-0.0932617,0.0732422,-0.266174,0.956604
1472089146034905,-0.0932617,0.0732422,-0.266174,0.956604
1472089146057426,-0.0932617,0.0732422,-0.266174,0.956604
1472089146071734,-0.0932617,0.0732422,-0.266174,0.956604
1472089146094877,-0.0932617,0.0732422,-0.266174,0.956604
1472089146125192,-0.0933228,0.0732422,-0.266174,0.956604
1472089146131698,-0.0933228,0.0733032,-0.266174,0.956604
1472089146154719,-0.0933228,0.0733032,-0.266174,0.956604
1472089146177515,-0.0932617,0.0733032,-0.266174,0.956604
1472089146199779,-0.0930786,0.0732422,-0.266174,0.956604
1472089146222146,-0.0930786,0.0732422,-0.266174,0.956604
1472089146237498,-0.0930786,0.0732422,-0.266174,0.956604
1472089146258517,-0.0930786,0.0732422,-0.266174,0.956604
1472089146275039,-0.0931396,0.0732422,-0.266174,0.956604
1472089146297581,-0.0931396,0.0732422,-0.266174,0.956604
1472089146318671,-0.0931396,0.0733032,-0.266174,0.956604
1472089146334704,-0.0930786,0.0733032,-0.266174,0.956604
1472089146357307,-0.0930786,0.0733032,-0.266174,0.956604
1472089146378381,-0.0930786,0.0733032,-0.266174,0.956604
1472089146395027,-0.0931396,0.0733032,-0.266174,0.956604
1472089146417642,-0.0931396,0.0733032,-0.266174,0.956604
1472089146438443,-0.0931396,0.0733643,-0.266174,0.956604
1472089146462470,-0.0931396,0.0733643,-0.266174,0.956604
1472089146477551,-0.0931396,0.0733643,-0.266174,0.956604
1472089146498356,-0.0931396,0.0733643,-0.266174,0.956604
1472089146515037,-0.0932007,0.0733643,-0.266174,0.956604
1472089146537847,-0.0932007,0.0734253,-0.266174,0.956604
1472089146558768,-0.0932007,0.0734253,-0.266174,0.956604
1472089146575066,-0.0932007,0.0734253,-0.266174,0.956604
1472089146597316,-0.0932617,0.0734253,-0.266174,0.956604
1472089146618477,-0.0932617,0.0734253,-0.266174,0.956604
1472089146634561,-0.0934448,0.0735474,-0.266113,0.956543
1472089146657501,-0.0934448,0.0735474,-0.266113,0.956543
1472089146680069,-0.0934448,0.0735474,-0.266113,0.956543
1472089146695157,-0.0934448,0.0735474,-0.266113,0.956543
1472089146717407,-0.0934448,0.0736084,-0.266113,0.956543
1472089146740273,-0.0935059,0.0736084,-0.266113,0.956543
1472089146755344,-0.0935059,0.0736084,-0.266113,0.956543
1472089146777544,-0.0935059,0.0736084,-0.266113,0.956543
1472089146800124,-0.0935059,0.0736084,-0.266113,0.956543
1472089146813837,-0.0935059,0.0736084,-0.266113,0.956543
1472089146837270,-0.0935669,0.0736084,-0.266113,0.956543
1472089146859789,-0.0935669,0.0736084,-0.266113,0.956543
1472089146874334,-0.0935669,0.0736084,-0.266113,0.956543
1472089146897643,-0.0935669,0.0736084,-0.266113,0.956543
1472089146919745,-0.0935669,0.0736084,-0.266113,0.956543
1472089146934295,-0.0936279,0.0736694,-0.266113,0.956543
1472089146957347,-0.0936279,0.0736694,-0.266113,0.956543
1472089146980083,-0.0935059,0.0737305,-0.266174,0.956543
1472089146994127,-0.0932617,0.0737915,-0.266235,0.956543
1472089147016660,-0.0930786,0.0738525,-0.266174,0.956543
1472089147039880,-0.0930786,0.0738525,-0.266174,0.956543
1472089147054393,-0.0930786,0.0738525,-0.266174,0.956543
1472089147077409,-0.0930786,0.0738525,-0.266174,0.956543
1472089147100189,-0.0928955,0.0739136,-0.266174,0.956604
1472089147114263,-0.0928955,0.0739746,-0.266113,0.956604
1472089147137307,-0.0928955,0.0739746,-0.266113,0.956543
1472089147159854,-0.0928955,0.0739746,-0.266113,0.956543
1472089147181025,-0.0928955,0.0739746,-0.266113,0.956543
1472089147197679,-0.0931396,0.0739746,-0.266113,0.956543
1472089147220082,-0.0933838,0.0740356,-0.266052,0.956543
1472089147240433,-0.093689,0.0741577,-0.266052,0.956482
1472089147257417,-0.09375,0.0741577,-0.266052,0.956482
1472089147280066,-0.09375,0.0741577,-0.266052,0.956482
1472089147301128,-0.09375,0.0741577,-0.266052,0.956482
1472089147317191,-0.09375,0.0742188,-0.266052,0.956482
1472089147340221,-0.09375,0.0742188,-0.266052,0.956482
1472089147360853,-0.093811,0.0742188,-0.266052,0.956482
1472089147377477,-0.093811,0.0742188,-0.266052,0.956482
1472089147399777,-0.093811,0.0742188,-0.266052,0.956482
1472089147420986,-0.093811,0.0742798,-0.266052,0.956482
1472089147437598,-0.093811,0.0742798,-0.266052,0.956482
1472089147459786,-0.093689,0.0744629,-0.266052,0.956482
1472089147480948,-0.0933838,0.0745239,-0.266052,0.956482
1472089147497473,-0.0930786,0.074585,-0.266113,0.956482
1472089147519788,-0.0928345,0.074585,-0.266174,0.956543
1472089147540735,-0.0928345,0.074585,-0.266174,0.956543
1472089147557529,-0.0928345,0.074585,-0.266174,0.956543
1472089147579888,-0.0928345,0.074585,-0.266174,0.956543
1472089147602645,-0.0928345,0.074585,-0.266174,0.956543
1472089147617767,-0.0928955,0.074585,-0.266174,0.956543
1472089147639818,-0.0928955,0.074585,-0.266113,0.956543
1472089147662338,-0.0928955,0.074646,-0.266113,0.956543
1472089147677442,-0.0928955,0.074585,-0.266113,0.956543
1472089147700144,-0.0928955,0.074585,-0.266113,0.956543
1472089147722618,-0.0928955,0.074585,-0.266113,0.956543
1472089147736818,-0.0928955,0.074585,-0.266113,0.956543
1472089147759858,-0.0928955,0.074646,-0.266113,0.956543
1472089147782528,-0.0928955,0.074646,-0.266113,0.956543
1472089147796979,-0.0929565,0.074646,-0.266113,0.956543
1472089147819668,-0.0928955,0.074646,-0.266113,0.956543
1472089147842286,-0.0928955,0.074646,-0.266113,0.956543
1472089147856828,-0.0928955,0.074646,-0.266113,0.956543
1472089147879919,-0.0928955,0.074646,-0.266113,0.956543
1472089147902658,-0.0929565,0.074646,-0.266113,0.956482
1472089147917245,-0.0929565,0.074707,-0.266113,0.956482
1472089147939769,-0.0929565,0.074707,-0.266113,0.956482
1472089147962395,-0.0932617,0.0747681,-0.266113,0.956482
1472089147976960,-0.0935669,0.0748901,-0.266113,0.956421
1472089148000046,-0.093689,0.0750122,-0.266113,0.956421
1472089148022626,-0.093689,0.0750122,-0.266113,0.956421
1472089148036943,-0.093689,0.0750732,-0.266113,0.956421
1472089148060299,-0.093689,0.0750732,-0.266113,0.956421
1472089148082465,-0.09375,0.0750732,-0.266113,0.956421
1472089148103575,-0.09375,0.0750732,-0.266113,0.956421
1472089148127596,-0.09375,0.0750732,-0.266113,0.956421
1472089148142686,-0.093811,0.0750732,-0.266113,0.956421
1472089148163708,-0.093811,0.0751343,-0.266052,0.956421
1472089148179797,-0.0936279,0.0751953,-0.266174,0.956421
1472089148202523,-0.0936279,0.0751953,-0.266174,0.956421
1472089148223583,-0.0936279,0.0751953,-0.266174,0.956421
1472089148240031,-0.0936279,0.0751953,-0.266174,0.956421
1472089148262667,-0.0936279,0.0751953,-0.266174,0.956421
1472089148283793,-0.0936279,0.0751953,-0.266174,0.956421
1472089148299986,-0.0936279,0.0752563,-0.266174,0.956421
1472089148322844,-0.0936279,0.0752563,-0.266174,0.95636
1472089148343525,-0.0936279,0.0752563,-0.266174,0.95636
1472089148360110,-0.0936279,0.0752563,-0.266174,0.95636
1472089148382366,-0.0936279,0.0752563,-0.266174,0.95636
1472089148403630,-0.0936279,0.0752563,-0.266174,0.95636
1472089148418987,-0.0936279,0.0752563,-0.266174,0.956421
1472089148442418,-0.0936279,0.0752563,-0.266174,0.95636
1472089148463463,-0.0936279,0.0752563,-0.266174,0.95636
1472089148479996,-0.0936279,0.0752563,-0.266174,0.95636
1472089148502292,-0.0936279,0.0752563,-0.266174,0.95636
1472089148525334,-0.0936279,0.0752563,-0.266174,0.95636
1472089148539844,-0.093689,0.0752563,-0.266174,0.95636
1472089148562444,-0.0936279,0.0752563,-0.266174,0.95636
1472089148584700,-0.0936279,0.0752563,-0.266174,0.95636
1472089148599746,-0.0936279,0.0752563,-0.266174,0.95636
1472089148621954,-0.0936279,0.0752563,-0.266174,0.95636
1472089148644959,-0.0936279,0.0752563,-0.266174,0.95636
1472089148659921,-0.0936279,0.0753174,-0.266174,0.95636
1472089148682563,-0.0936279,0.0753174,-0.266174,0.95636
1472089148704781,-0.0936279,0.0753174,-0.266174,0.95636
1472089148719498,-0.0936279,0.0753174,-0.266174,0.95636
1472089148742626,-0.093811,0.0753784,-0.266174,0.95636
1472089148764679,-0.093811,0.0753784,-0.266174,0.95636
1472089148779231,-0.093811,0.0753784,-0.266174,0.95636
1472089148802386,-0.0938721,0.0753784,-0.266174,0.95636
1472089148824903,-0.093811,0.0753784,-0.266174,0.95636
1472089148839538,-0.093811,0.0753784,-0.266174,0.95636
1472089148862594,-0.093811,0.0753784,-0.266174,0.95636
1472089148885187,-0.0938721,0.0753784,-0.266174,0.95636
1472089148899485,-0.0938721,0.0753784,-0.266174,0.95636
1472089148922541,-0.0938721,0.0753784,-0.266174,0.95636
1472089148944750,-0.0938721,0.0753784,-0.266174,0.95636
1472089148959395,-0.0938721,0.0754395,-0.266174,0.95636
1472089148982585,-0.0938721,0.0754395,-0.266174,0.95636
1472089149004815,-0.0938721,0.0754395,-0.266174,0.95636
1472089149025909,-0.0938721,0.0753784,-0.266174,0.95636
1472089149042438,-0.0938721,0.0754395,-0.266174,0.95636
1472089149064981,-0.0938721,0.0754395,-0.266174,0.95636
1472089149086126,-0.0938721,0.0754395,-0.266174,0.95636
1472089149102336,-0.0939331,0.0754395,-0.266174,0.95636
1472089149124837,-0.0939331,0.0754395,-0.266174,0.95636
1472089149146396,-0.0939331,0.0754395,-0.266174,0.95636
1472089149162397,-0.0938721,0.0754395,-0.266174,0.95636
1472089149185203,-0.0938721,0.0754395,-0.266174,0.95636
1472089149206058,-0.0938721,0.0754395,-0.266174,0.95636
1472089149221677,-0.0939331,0.0755005,-0.266174,0.95636
1472089149252486,-0.0939331,0.0755005,-0.266174,0.95636
1472089149265997,-0.0938721,0.0755005,-0.266174,0.95636
1472089149282571,-0.0936279,0.0755615,-0.266174,0.95636
1472089149304966,-0.0935059,0.0756226,-0.266113,0.95636
1472089149326078,-0.0935059,0.0756226,-0.266113,0.95636
1472089149342631,-0.0936279,0.0756836,-0.266113,0.95636
1472089149365196,-0.0936279,0.0757446,-0.266113,0.95636
1472089149385971,-0.0936279,0.0757446,-0.266113,0.95636
1472089149402972,-0.0933838,0.0756836,-0.266113,0.95636
1472089149424631,-0.0933838,0.0756836,-0.266113,0.95636
1472089149447642,-0.0933838,0.0756836,-0.266113,0.95636
1472089149462591,-0.0933838,0.0757446,-0.266113,0.95636
1472089149485143,-0.0934448,0.0757446,-0.266113,0.95636
1472089149507662,-0.0934448,0.0757446,-0.266113,0.95636
1472089149522224,-0.0935669,0.0756836,-0.266174,0.95636
1472089149545028,-0.0935669,0.0756836,-0.266174,0.95636
1472089149567583,-0.0935669,0.0756836,-0.266174,0.95636
1472089149582595,-0.0935669,0.0756836,-0.266174,0.95636
1472089149605138,-0.0935669,0.0756836,-0.266174,0.95636
1472089149627472,-0.0935669,0.0756836,-0.266174,0.95636
1472089149641996,-0.0935669,0.0756836,-0.266174,0.95636
1472089149665131,-0.0935669,0.0756836,-0.266174,0.95636
1472089149687710,-0.0935669,0.0756836,-0.266174,0.95636
1472089149701834,-0.0935669,0.0756836,-0.266174,0.95636
1472089149724952,-0.0935669,0.0757446,-0.266174,0.95636
1472089149747534,-0.0935669,0.0757446,-0.266174,0.95636
1472089149761570,-0.0936279,0.0757446,-0.266174,0.95636
1472089149792301,-0.0935669,0.0757446,-0.266174,0.95636
1472089149807466,-0.0935669,0.0757446,-0.266174,0.95636
1472089149821113,-0.0935669,0.0756836,-0.266174,0.95636
1472089149844862,-0.0935669,0.0756836,-0.266174,0.95636
1472089149867463,-0.0936279,0.0756836,-0.266174,0.95636
1472089149881576,-0.0936279,0.0756836,-0.266174,0.95636
1472089149905141,-0.0936279,0.0757446,-0.266174,0.95636
1472089149927299,-0.0936279,0.0757446,-0.266174,0.95636
1472089149948531,-0.0936279,0.0757446,-0.266174,0.95636
1472089149965156,-0.0936279,0.0757446,-0.266174,0.95636
1472089149987341,-0.0936279,0.0757446,-0.266174,0.95636
1472089150008667,-0.0936279,0.0757446,-0.266174,0.95636
1472089150024299,-0.0936279,0.0757446,-0.266174,0.95636
1472089150047443,-0.0936279,0.0757446,-0.266174,0.95636
1472089150068978,-0.093689,0.0757446,-0.266174,0.95636
1472089150085007,-0.093689,0.0757446,-0.266174,0.95636
1472089150107337,-0.093689,0.0757446,-0.266174,0.95636
1472089150128381,-0.093689,0.0757446,-0.266174,0.95636
1472089150144938,-0.09375,0.0758057,-0.266174,0.95636
1472089150167397,-0.09375,0.0757446,-0.266174,0.95636
1472089150188586,-0.09375,0.0757446,-0.266174,0.95636
1472089150204727,-0.09375,0.0758057,-0.266174,0.95636
1472089150227276,-0.09375,0.0758057,-0.266174,0.95636
1472089150247892,-0.093811,0.0758057,-0.266174,0.95636
1472089150264958,-0.093811,0.0758057,-0.266174,0.95636
1472089150287477,-0.093811,0.0757446,-0.266174,0.95636
1472089150308574,-0.093811,0.0757446,-0.266174,0.95636
1472089150325118,-0.093811,0.0758057,-0.266174,0.95636
1472089150348277,-0.0938721,0.0756226,-0.266174,0.95636
1472089150368800,-0.0938721,0.0756226,-0.266174,0.95636
1472089150384956,-0.0939331,0.0756226,-0.266174,0.95636
1472089150407603,-0.0939331,0.0756226,-0.266174,0.95636
1472089150430270,-0.0939331,0.0756226,-0.266174,0.95636
1472089150444953,-0.0939331,0.0756226,-0.266174,0.95636
1472089150467588,-0.0939331,0.0756226,-0.266174,0.95636
1472089150489907,-0.0939331,0.0756226,-0.266174,0.95636
1472089150505119,-0.093689,0.0755615,-0.266174,0.95636
1472089150527295,-0.093689,0.0755615,-0.266174,0.95636
1472089150550365,-0.093689,0.0755615,-0.266174,0.95636
1472089150564412,-0.093689,0.0755005,-0.266174,0.95636
1472089150587559,-0.093689,0.0755005,-0.266174,0.95636
1472089150610209,-0.09375,0.0755005,-0.266235,0.95636
1472089150624506,-0.09375,0.0755005,-0.266235,0.95636
1472089150647583,-0.09375,0.0755005,-0.266235,0.95636
1472089150669701,-0.0940552,0.0755615,-0.266235,0.956299
1472089150684257,-0.0941162,0.0755615,-0.266235,0.956299
1472089150707712,-0.0941162,0.0755615,-0.266235,0.956299
1472089150729916,-0.0939941,0.0756226,-0.266296,0.956299
1472089150744471,-0.0939941,0.0756226,-0.266296,0.956299
1472089150767503,-0.0939941,0.0756226,-0.266296,0.956299
1472089150789844,-0.0939941,0.0756836,-0.266357,0.956238
1472089150804482,-0.0936279,0.0757446,-0.266418,0.956299
1472089150827621,-0.0932617,0.0758667,-0.266479,0.956299
1472089150850332,-0.0932617,0.0758667,-0.266479,0.956299
1472089150864389,-0.0934448,0.0760498,-0.266418,0.956299
1472089150887386,-0.0934448,0.0761108,-0.266418,0.956238
1472089150909986,-0.0931396,0.0762329,-0.266418,0.956299
1472089150938750,-0.0930786,0.0762329,-0.266418,0.956299
1472089150947759,-0.0930786,0.0762329,-0.266418,0.956299
1472089150969788,-0.0931396,0.0762329,-0.266418,0.956299
1472089150990944,-0.0931396,0.0762329,-0.266418,0.956299
1472089151007567,-0.0928955,0.0762329,-0.266479,0.956299
1472089151029720,-0.0927124,0.076416,-0.266541,0.956299
1472089151050482,-0.0925293,0.0765991,-0.266724,0.956238
1472089151067567,-0.0922852,0.0767212,-0.266785,0.956238
1472089151090109,-0.092041,0.0768433,-0.266846,0.956238
1472089151111118,-0.092041,0.0768433,-0.266846,0.956238
1472089151127293,-0.092041,0.0768433,-0.266846,0.956238
1472089151150206,-0.092041,0.0768433,-0.266846,0.956238
1472089151171241,-0.0917969,0.0770264,-0.266968,0.956238
1472089151187761,-0.0915527,0.0770874,-0.267029,0.956177
1472089151209850,-0.0911865,0.0770874,-0.26709,0.956238
1472089151230994,-0.0911865,0.0770874,-0.26709,0.956238
1472089151247635,-0.0911865,0.0770874,-0.26709,0.956238
1472089151269639,-0.0911865,0.0770874,-0.26709,0.956238
1472089151291233,-0.0911865,0.0770874,-0.26709,0.956238
1472089151307409,-0.0912476,0.0770874,-0.26709,0.956238
1472089151330111,-0.0912476,0.0770874,-0.26709,0.956238
1472089151352779,-0.0914917,0.0772095,-0.26709,0.956177
1472089151367352,-0.0914917,0.0772095,-0.26709,0.956177
1472089151397671,-0.0914917,0.0772095,-0.26709,0.956177
1472089151412710,-0.0914917,0.0772095,-0.26709,0.956177
1472089151427647,-0.0914917,0.0772095,-0.26709,0.956177
1472089151450128,-0.0917358,0.0772095,-0.26709,0.956177
1472089151472728,-0.0917358,0.0772095,-0.26709,0.956177
1472089151487241,-0.0917358,0.0772095,-0.26709,0.956177
1472089151509925,-0.0917358,0.0772095,-0.26709,0.956177
1472089151532427,-0.0917358,0.0772095,-0.26709,0.956177
1472089151546987,-0.0917358,0.0772095,-0.26709,0.956177
1472089151570239,-0.0917969,0.0772095,-0.26709,0.956177
1472089151592385,-0.0917969,0.0772095,-0.26709,0.956177
1472089151606923,-0.0917969,0.0772095,-0.26709,0.956177
1472089151628978,-0.0917969,0.0772095,-0.26709,0.956177
1472089151652493,-0.0917969,0.0772095,-0.26709,0.956177
1472089151667032,-0.0917969,0.0772095,-0.26709,0.956177
1472089151690066,-0.0918579,0.0772095,-0.26709,0.956177
1472089151712321,-0.0918579,0.0772095,-0.26709,0.956116
1472089151726774,-0.0918579,0.0772095,-0.26709,0.956116
1472089151750102,-0.0918579,0.0772095,-0.26709,0.956116
1472089151772661,-0.0918579,0.0772095,-0.26709,0.956116
1472089151786679,-0.0919189,0.0772095,-0.26709,0.956116
1472089151810206,-0.0921631,0.0772095,-0.267151,0.956116
1472089151832816,-0.0921631,0.0771484,-0.267151,0.956116
1472089151853918,-0.0921631,0.0771484,-0.267151,0.956116
1472089151869945,-0.0921631,0.0771484,-0.267151,0.956116
1472089151892527,-0.0921631,0.0771484,-0.267151,0.956116
1472089151913666,-0.0921631,0.0771484,-0.267151,0.956116
1472089151930305,-0.0921021,0.0771484,-0.267212,0.956116
1472089151952617,-0.0919189,0.0771484,-0.267273,0.956116
1472089151975200,-0.0919189,0.0771484,-0.267273,0.956116
1472089151990223,-0.0919189,0.0771484,-0.267273,0.956116
1472089152012907,-0.0919189,0.0770874,-0.267273,0.956116
1472089152033537,-0.0919189,0.0770874,-0.267273,0.956116
1472089152050113,-0.0919189,0.0770874,-0.267273,0.956116
1472089152072720,-0.09198,0.0770874,-0.267273,0.956116
1472089152093792,-0.09198,0.0770874,-0.267273,0.956116
1472089152109969,-0.09198,0.0770874,-0.267273,0.956116
1472089152132619,-0.09198,0.0770874,-0.267273,0.956116
1472089152153765,-0.09198,0.0770874,-0.267273,0.956116
1472089152170280,-0.0922852,0.0771484,-0.267212,0.956055
1472089152192966,-0.0925293,0.0772095,-0.267151,0.956055
1472089152213494,-0.0925293,0.0771484,-0.267151,0.956055
1472089152230129,-0.0925903,0.0771484,-0.267151,0.956055
1472089152252713,-0.0924683,0.0771484,-0.26709,0.956116
1472089152273742,-0.0924683,0.0771484,-0.26709,0.956116
1472089152289368,-0.0924683,0.0771484,-0.26709,0.956116
1472089152312406,-0.0924683,0.0771484,-0.26709,0.956116
1472089152335334,-0.0924683,0.0771484,-0.26709,0.956116
1472089152349912,-0.0924683,0.0771484,-0.26709,0.956116
1472089152372734,-0.0925293,0.0771484,-0.26709,0.956116
1472089152395452,-0.0925293,0.0770874,-0.26709,0.956116
1472089152410081,-0.0925293,0.0770874,-0.26709,0.956116
1472089152431670,-0.0925293,0.0770874,-0.26709,0.956116
1472089152455148,-0.0925293,0.0770874,-0.26709,0.956116
1472089152469160,-0.0925293,0.0770874,-0.26709,0.956116
1472089152492718,-0.0925293,0.0770874,-0.26709,0.956116
1472089152515311,-0.0925293,0.0770874,-0.26709,0.956116
1472089152529361,-0.0925293,0.0770874,-0.26709,0.956116
1472089152552546,-0.0925293,0.0770874,-0.26709,0.956116
1472089152574991,-0.0925293,0.0770874,-0.26709,0.956116
1472089152589493,-0.0925293,0.0770874,-0.26709,0.956116
1472089152612607,-0.0925293,0.0770874,-0.26709,0.956116
1472089152634837,-0.0925903,0.0770874,-0.26709,0.956116
1472089152649596,-0.0925903,0.0770874,-0.26709,0.956055
1472089152672588,-0.0925903,0.0770874,-0.26709,0.956055
1472089152695118,-0.0925903,0.0770874,-0.26709,0.956055
1472089152709539,-0.0925903,0.0770874,-0.26709,0.956055
1472089152732770,-0.0925903,0.0770264,-0.26709,0.956055
1472089152754882,-0.0925903,0.0770264,-0.26709,0.956055
1472089152769363,-0.0926514,0.0770264,-0.267151,0.956055
1472089152792625,-0.0926514,0.0770264,-0.267151,0.956055
1472089152814880,-0.0926514,0.0770264,-0.267151,0.956055
1472089152836273,-0.0926514,0.0770264,-0.267151,0.956055
1472089152852520,-0.0926514,0.0770264,-0.267151,0.956055
1472089152875004,-0.0926514,0.0770264,-0.267151,0.956055
1472089152896127,-0.0926514,0.0770264,-0.267151,0.956055
1472089152912210,-0.0926514,0.0770264,-0.267151,0.956055
1472089152934951,-0.0926514,0.0770264,-0.267151,0.956055
1472089152956188,-0.0927124,0.0770264,-0.267151,0.956055
1472089152972758,-0.0927124,0.0770264,-0.267151,0.956055
1472089152994869,-0.0927734,0.0770264,-0.267151,0.956055
1472089153016118,-0.0927734,0.0770264,-0.267151,0.956055
1472089153032714,-0.0927734,0.0770264,-0.267151,0.956055
1472089153055036,-0.0927734,0.0770264,-0.267151,0.956055
1472089153076135,-0.0926514,0.0769653,-0.267151,0.956055
1472089153092323,-0.0926514,0.0769043,-0.267151,0.956055
1472089153114905,-0.0926514,0.0769653,-0.267151,0.956055
1472089153136086,-0.0928955,0.0770264,-0.267212,0.956055
1472089153152610,-0.0932007,0.0770264,-0.267151,0.955994
1472089153175160,-0.0932007,0.0770264,-0.267151,0.955994
1472089153196408,-0.0932007,0.0770264,-0.267151,0.955994
1472089153212460,-0.0932007,0.0770264,-0.267151,0.955994
1472089153234375,-0.0932007,0.0770264,-0.267151,0.955994
1472089153256236,-0.0932007,0.0770264,-0.267151,0.955994
1472089153272750,-0.0932007,0.0770264,-0.267151,0.955994
1472089153294921,-0.0935059,0.0770264,-0.26709,0.955994
1472089153317302,-0.0935059,0.0770264,-0.26709,0.955994
1472089153331915,-0.0935669,0.0770264,-0.26709,0.955994
1472089153355031,-0.0935669,0.0770264,-0.26709,0.955994
1472089153377469,-0.0935669,0.0770264,-0.26709,0.955994
1472089153400286,-0.0935669,0.0770264,-0.26709,0.955994
1472089153415304,-0.0935669,0.0770264,-0.26709,0.955994
1472089153437491,-0.0935669,0.0769653,-0.26709,0.955994
1472089153452142,-0.0935669,0.0769653,-0.26709,0.955994
1472089153475249,-0.0935669,0.0769653,-0.26709,0.955994
1472089153497857,-0.0936279,0.0769653,-0.26709,0.955994
1472089153511985,-0.0936279,0.0769653,-0.26709,0.955994
1472089153535558,-0.0936279,0.0769653,-0.26709,0.955994
1472089153557611,-0.0936279,0.0769653,-0.26709,0.955994
1472089153572142,-0.0935669,0.0769653,-0.26709,0.955994
1472089153595280,-0.093811,0.0769653,-0.26709,0.955994
1472089153617489,-0.0939941,0.0769653,-0.26709,0.955994
1472089153632024,-0.0939941,0.0769653,-0.26709,0.955994
1472089153654974,-0.0939941,0.0769653,-0.26709,0.955994
1472089153677713,-0.0939941,0.0769653,-0.26709,0.955994
1472089153691259,-0.0940552,0.0769653,-0.26709,0.955933
1472089153715183,-0.0941162,0.0769653,-0.26709,0.955933
1472089153737420,-0.0941162,0.0769653,-0.26709,0.955933
1472089153751782,-0.0942993,0.0770874,-0.267029,0.955933
1472089153775100,-0.0945435,0.0772095,-0.266968,0.955933
1472089153797481,-0.0944824,0.0773315,-0.266968,0.955933
1472089153818754,-0.0941772,0.0773926,-0.266968,0.955933
1472089153835282,-0.0939331,0.0775146,-0.267029,0.955933
1472089153857415,-0.0939331,0.0775146,-0.267029,0.955933
1472089153878495,-0.0939331,0.0774536,-0.267029,0.955933
1472089153894145,-0.0939331,0.0774536,-0.267029,0.955933
1472089153917755,-0.0939331,0.0774536,-0.267029,0.955933
1472089153940251,-0.0939331,0.0774536,-0.267029,0.955933
1472089153954778,-0.093811,0.0776367,-0.267029,0.955933
1472089153977700,-0.0936279,0.0776978,-0.26709,0.955933
1472089153998523,-0.0934448,0.0778198,-0.267151,0.955933
1472089154015039,-0.0934448,0.0777588,-0.267151,0.955933
1472089154036828,-0.0934448,0.0777588,-0.267151,0.955933
1472089154058517,-0.0934448,0.0778198,-0.267151,0.955933
1472089154075037,-0.0934448,0.0777588,-0.267151,0.955933
1472089154097659,-0.0934448,0.0777588,-0.267151,0.955933
1472089154118279,-0.0934448,0.0777588,-0.267151,0.955933
1472089154134893,-0.0934448,0.0778198,-0.267151,0.955933
1472089154157338,-0.0934448,0.0778198,-0.267151,0.955933
1472089154178758,-0.0934448,0.0777588,-0.267151,0.955933
1472089154195375,-0.0934448,0.0777588,-0.267212,0.955933
1472089154224818,-0.0934448,0.0777588,-0.267212,0.955933
1472089154239996,-0.0934448,0.0777588,-0.267212,0.955933
1472089154255211,-0.0936279,0.0778198,-0.267151,0.955933
1472089154277715,-0.0936279,0.0778198,-0.267151,0.955933
1472089154300250,-0.0936279,0.0778198,-0.267151,0.955933
1472089154315002,-0.0936279,0.0778198,-0.267151,0.955933
1472089154337819,-0.0936279,0.0778198,-0.267151,0.955933
1472089154360231,-0.0936279,0.0777588,-0.267151,0.955933
1472089154374287,-0.0936279,0.0777588,-0.267151,0.955933
1472089154397558,-0.0936279,0.0777588,-0.267151,0.955933
1472089154427316,-0.0936279,0.0777588,-0.267151,0.955933
1472089154434410,-0.093689,0.0777588,-0.267151,0.955933
1472089154457579,-0.093689,0.0777588,-0.267151,0.955933
1472089154480230,-0.093689,0.0777588,-0.267151,0.955933
1472089154493797,-0.093689,0.0777588,-0.267151,0.955933
1472089154517442,-0.093689,0.0777588,-0.267151,0.955933
1472089154540048,-0.093689,0.0777588,-0.267151,0.955933
1472089154554617,-0.093689,0.0777588,-0.267151,0.955933
1472089154577460,-0.093689,0.0777588,-0.267151,0.955933
1472089154600143,-0.093689,0.0777588,-0.267151,0.955933
1472089154614648,-0.093689,0.0777588,-0.267151,0.955933
1472089154637257,-0.093689,0.0777588,-0.267151,0.955933
1472089154660347,-0.093689,0.0777588,-0.267151,0.955933
1472089154674255,-0.093689,0.0777588,-0.267151,0.955933
1472089154697212,-0.093689,0.0777588,-0.267151,0.955933
1472089154719839,-0.093689,0.0777588,-0.267151,0.955933
1472089154741009,-0.093689,0.0777588,-0.267151,0.955933
1472089154757671,-0.093689,0.0776978,-0.267151,0.955933
1472089154780259,-0.093689,0.0776978,-0.267151,0.955933
1472089154801375,-0.093689,0.0776978,-0.267151,0.955933
1472089154817448,-0.093689,0.0777588,-0.267151,0.955933
1472089154839261,-0.093689,0.0777588,-0.267151,0.955933
1472089154861208,-0.09375,0.0776978,-0.267151,0.955933
1472089154877723,-0.09375,0.0776978,-0.267151,0.955933
1472089154899801,-0.09375,0.0776978,-0.267151,0.955933
1472089154921107,-0.09375,0.0776978,-0.267151,0.955933
1472089154937686,-0.09375,0.0776978,-0.267151,0.955933
1472089154960133,-0.09375,0.0776978,-0.267151,0.955933
1472089154980964,-0.09375,0.0776978,-0.267151,0.955933
1472089154997533,-0.09375,0.0776978,-0.267151,0.955933
1472089155019844,-0.09375,0.0776978,-0.267151,0.955933
1472089155041401,-0.09375,0.0776978,-0.267151,0.955933
1472089155057575,-0.09375,0.0776978,-0.267151,0.955933
1472089155080151,-0.09375,0.0776978,-0.267151,0.955933
1472089155101243,-0.093689,0.0776978,-0.267151,0.955933
1472089155117506,-0.09375,0.0776978,-0.267151,0.955933
1472089155140018,-0.09375,0.0776367,-0.267151,0.955933
1472089155162548,-0.09375,0.0776367,-0.267151,0.955933
1472089155177537,-0.09375,0.0776367,-0.267151,0.955933
1472089155200213,-0.0938721,0.0776367,-0.267151,0.955933
1472089155222307,-0.0938721,0.0776367,-0.267151,0.955933
1472089155237396,-0.093811,0.0776367,-0.267151,0.955933
1472089155260088,-0.093811,0.0776367,-0.267151,0.955933
1472089155282658,-0.0938721,0.0776367,-0.267151,0.955933
1472089155297724,-0.0938721,0.0776367,-0.267151,0.955872
1472089155319875,-0.0938721,0.0776367,-0.267151,0.955872
1472089155349787,-0.0938721,0.0776367,-0.267151,0.955933
1472089155357364,-0.0938721,0.0776367,-0.267151,0.955933
1472089155380280,-0.0938721,0.0776367,-0.267151,0.955933
1472089155402338,-0.0938721,0.0776367,-0.267151,0.955933
1472089155416959,-0.0938721,0.0776367,-0.267151,0.955933
1472089155440107,-0.0938721,0.0776367,-0.267151,0.955933
1472089155462520,-0.0938721,0.0775757,-0.267151,0.955933
1472089155477105,-0.0938721,0.0775757,-0.267151,0.955933
1472089155499612,-0.0938721,0.0775757,-0.267151,0.955933
1472089155522678,-0.0938721,0.0775757,-0.267151,0.955933
1472089155536844,-0.0938721,0.0775757,-0.267151,0.955933
1472089155559997,-0.0938721,0.0775757,-0.267151,0.955933
1472089155582601,-0.0938721,0.0775757,-0.267151,0.955933
1472089155596695,-0.0938721,0.0775757,-0.267151,0.955933
1472089155619921,-0.0938721,0.0775757,-0.267151,0.955933
1472089155642032,-0.0938721,0.0775757,-0.267151,0.955933
1472089155663532,-0.0938721,0.0775757,-0.267151,0.955933
1472089155680086,-0.093811,0.0775757,-0.267151,0.955933
1472089155702630,-0.093811,0.0775757,-0.267151,0.955933
1472089155723583,-0.0938721,0.0775757,-0.267151,0.955933
1472089155740233,-0.0938721,0.0775146,-0.267151,0.955933
1472089155762508,-0.0938721,0.0775146,-0.267151,0.955933
1472089155783711,-0.0938721,0.0775146,-0.267151,0.955933
1472089155800142,-0.0938721,0.0775757,-0.267151,0.955933
1472089155822749,-0.0938721,0.0775146,-0.267151,0.955933
1472089155843957,-0.0938721,0.0775146,-0.267151,0.955933
1472089155860154,-0.093811,0.0775146,-0.267151,0.955933
1472089155882541,-0.0938721,0.0775146,-0.267151,0.955933
1472089155903563,-0.0938721,0.0775146,-0.267151,0.955933
1472089155920146,-0.0938721,0.0775146,-0.267151,0.955933
1472089155942589,-0.0940552,0.0775757,-0.267212,0.955872
1472089155963736,-0.0940552,0.0775757,-0.267212,0.955872
1472089155980034,-0.0940552,0.0775757,-0.267212,0.955872
1472089156002334,-0.0940552,0.0775757,-0.267212,0.955872
1472089156023679,-0.0940552,0.0775757,-0.267212,0.955872
1472089156039947,-0.0940552,0.0775757,-0.267212,0.955872
1472089156062609,-0.0938721,0.0775757,-0.267273,0.955872
1472089156083743,-0.0938721,0.0775757,-0.267273,0.955872
1472089156099361,-0.0938721,0.0775757,-0.267273,0.955872
1472089156122524,-0.0938721,0.0775146,-0.267273,0.955872
1472089156145052,-0.0938721,0.0775146,-0.267273,0.955872
1472089156159573,-0.0938721,0.0775146,-0.267273,0.955872
1472089156182705,-0.0938721,0.0775146,-0.267273,0.955872
1472089156205368,-0.0938721,0.0775146,-0.267273,0.955872
1472089156219999,-0.0938721,0.0775146,-0.267273,0.955872
1472089156242771,-0.0938721,0.0775146,-0.267273,0.955872
1472089156264906,-0.0938721,0.0775146,-0.267273,0.955872
1472089156279495,-0.0938721,0.0775146,-0.267273,0.955872
1472089156302094,-0.0938721,0.0775146,-0.267273,0.955872
1472089156325207,-0.0939331,0.0775146,-0.267273,0.955872
1472089156339305,-0.0939331,0.0775146,-0.267273,0.955872
1472089156362885,-0.0939331,0.0775146,-0.267273,0.955872
1472089156384945,-0.0939331,0.0775146,-0.267273,0.955872
1472089156399642,-0.0939331,0.0775146,-0.267273,0.955872
1472089156422394,-0.0939331,0.0774536,-0.267273,0.955872
1472089156444477,-0.0941162,0.0775146,-0.267273,0.955872
1472089156460015,-0.0943604,0.0775757,-0.267212,0.955872
1472089156482555,-0.0943604,0.0775757,-0.267212,0.955872
1472089156505117,-0.0943604,0.0775757,-0.267212,0.955872
1472089156519592,-0.0943604,0.0775146,-0.267212,0.955872
1472089156542540,-0.0943604,0.0775146,-0.267212,0.955872
1472089156565055,-0.0946045,0.0775757,-0.267151,0.955811
1472089156579574,-0.0947876,0.0775757,-0.26709,0.955811
1472089156602635,-0.0947876,0.0775757,-0.26709,0.955811
1472089156625266,-0.0947876,0.0775757,-0.26709,0.955811
1472089156646003,-0.0947876,0.0775757,-0.26709,0.955811
1472089156662468,-0.0948486,0.0775757,-0.26709,0.955811
1472089156685288,-0.0948486,0.0775757,-0.26709,0.955811
1472089156706103,-0.0948486,0.0775757,-0.26709,0.955811
1472089156722719,-0.0948486,0.0775757,-0.26709,0.955811
1472089156745008,-0.0948486,0.0775757,-0.26709,0.955811
1472089156766283,-0.0949097,0.0775757,-0.26709,0.955811
1472089156782427,-0.0947266,0.0775757,-0.267151,0.955811
1472089156805048,-0.0947266,0.0775757,-0.267151,0.955811
1472089156826525,-0.0947266,0.0775757,-0.267151,0.955811
1472089156842334,-0.0947266,0.0775757,-0.267151,0.955811
1472089156865499,-0.0947266,0.0775146,-0.267151,0.955811
1472089156893792,-0.0947266,0.0775757,-0.267151,0.955811
1472089156902641,-0.0947876,0.0775757,-0.267151,0.955811
1472089156925231,-0.0947876,0.0775757,-0.267151,0.955811
1472089156945988,-0.0947876,0.0775757,-0.267151,0.955811
1472089156962531,-0.0947876,0.0775757,-0.267151,0.955811
1472089156985100,-0.0947876,0.0775146,-0.267151,0.955811
1472089157007767,-0.0947876,0.0775146,-0.267151,0.955811
1472089157022780,-0.0947876,0.0775146,-0.267151,0.955811
1472089157044859,-0.0947876,0.0775146,-0.267151,0.955811
1472089157067714,-0.0947876,0.0775146,-0.267151,0.955811
1472089157082749,-0.0947876,0.0775146,-0.267151,0.955811
1472089157104843,-0.0947876,0.0775146,-0.267151,0.955811
1472089157127690,-0.0949097,0.0776367,-0.267151,0.955811
1472089157150222,-0.0949097,0.0776367,-0.267151,0.955811
1472089157165242,-0.0949707,0.0776367,-0.267151,0.955811
1472089157187816,-0.0947266,0.0776367,-0.267151,0.955811
1472089157202576,-0.0947266,0.0776367,-0.267151,0.955811
1472089157224977,-0.0947266,0.0776367,-0.267151,0.955811
1472089157247079,-0.0947266,0.0776367,-0.267151,0.955811
1472089157262137,-0.0947266,0.0776367,-0.267151,0.955811
1472089157285421,-0.0947266,0.0776367,-0.267151,0.955811
1472089157307444,-0.0947266,0.0776367,-0.267151,0.955811
1472089157321790,-0.0947266,0.0776367,-0.267151,0.955811
1472089157345115,-0.0947876,0.0776367,-0.267151,0.955811
1472089157367432,-0.0947876,0.0775757,-0.267151,0.955811
1472089157382045,-0.0947876,0.0776367,-0.267151,0.955811
1472089157405330,-0.0947876,0.0776367,-0.267151,0.955811
1472089157427385,-0.0947876,0.0776367,-0.267151,0.955811
1472089157441901,-0.0947876,0.0776367,-0.267151,0.955811
1472089157465213,-0.0945435,0.0776978,-0.26709,0.955872
1472089157487849,-0.0942383,0.0776978,-0.267029,0.955872
1472089157500861,-0.0942383,0.0776978,-0.267029,0.955872
1472089157525095,-0.0942993,0.0776978,-0.267029,0.955872
1472089157547847,-0.0942993,0.0776978,-0.267029,0.955872
1472089157568932,-0.0942993,0.0776978,-0.267029,0.955872
1472089157584987,-0.0942993,0.0776978,-0.267029,0.955872
1472089157607842,-0.0942993,0.0776978,-0.267029,0.955872
1472089157628600,-0.0942993,0.0776978,-0.267029,0.955872
1472089157645072,-0.0942993,0.0776978,-0.267029,0.955872
1472089157667676,-0.0942993,0.0776978,-0.267029,0.955872
1472089157688770,-0.0942993,0.0776978,-0.267029,0.955872
1472089157704963,-0.0942993,0.0776978,-0.267029,0.955872
1472089157727682,-0.0942993,0.0776978,-0.267029,0.955872
1472089157748879,-0.0942993,0.0776978,-0.267029,0.955872
1472089157764968,-0.0942993,0.0776978,-0.267029,0.955872
1472089157787837,-0.0942993,0.0776978,-0.267029,0.955872
1472089157808655,-0.0942993,0.0776978,-0.267029,0.955872
1472089157825232,-0.0942993,0.0776978,-0.267029,0.955872
1472089157847972,-0.0942993,0.0776978,-0.267029,0.955872
1472089157869113,-0.0942993,0.0776978,-0.267029,0.955872
1472089157885065,-0.0942993,0.0776978,-0.267029,0.955872
1472089157906993,-0.0943604,0.0776978,-0.267029,0.955872
1472089157928906,-0.0942993,0.0776978,-0.267029,0.955872
1472089157945047,-0.0942993,0.0776978,-0.267029,0.955872
1472089157967695,-0.0942993,0.0776978,-0.267029,0.955872
1472089157988880,-0.0943604,0.0776367,-0.267029,0.955872
1472089158005633,-0.0943604,0.0776367,-0.267029,0.955872
1472089158027864,-0.0943604,0.0776367,-0.267029,0.955872
1472089158049588,-0.0942993,0.0776978,-0.267029,0.955872
1472089158065376,-0.0942993,0.0776367,-0.267029,0.955872
1472089158087984,-0.0942993,0.0776367,-0.267029,0.955872
1472089158110027,-0.0943604,0.0776367,-0.267029,0.955872
1472089158125276,-0.0943604,0.0776367,-0.267029,0.955872
1472089158147806,-0.0943604,0.0776367,-0.267029,0.955872
1472089158170361,-0.0943604,0.0776367,-0.267029,0.955872
1472089158184619,-0.0941772,0.0776367,-0.267029,0.955872
1472089158207748,-0.093811,0.0776367,-0.267029,0.955933
1472089158230005,-0.09375,0.0776367,-0.267029,0.955933
1472089158244249,-0.093811,0.0776367,-0.267029,0.955933
1472089158267890,-0.093811,0.0776367,-0.267029,0.955933
1472089158289912,-0.093811,0.0776367,-0.267029,0.955933
1472089158304501,-0.093811,0.0776367,-0.267029,0.955933
1472089158327667,-0.0939331,0.0776978,-0.26709,0.955933
1472089158350395,-0.0941772,0.0776978,-0.267151,0.955872
1472089158364474,-0.0941772,0.0776978,-0.267151,0.955872
1472089158387581,-0.0941772,0.0776978,-0.267151,0.955872
1472089158410166,-0.0941162,0.0776978,-0.267151,0.955872
1472089158424191,-0.0941162,0.0776978,-0.267151,0.955872
1472089158447944,-0.0939331,0.0775146,-0.267151,0.955933
1472089158470200,-0.0939331,0.0774536,-0.267151,0.955933
1472089158484802,-0.0939331,0.0774536,-0.267151,0.955933
1472089158507872,-0.0939941,0.0775146,-0.267151,0.955933
1472089158530015,-0.0939941,0.0775146,-0.267151,0.955933
1472089158551192,-0.0939941,0.0775146,-0.267151,0.955933
1472089158567584,-0.093689,0.0774536,-0.267273,0.955933
1472089158590114,-0.093689,0.0773926,-0.267273,0.955933
1472089158611578,-0.0934448,0.0772705,-0.267395,0.955933
1472089158627634,-0.0933838,0.0772705,-0.267395,0.955933
1472089158650178,-0.0933838,0.0772705,-0.267395,0.955933
1472089158671397,-0.0933838,0.0772705,-0.267395,0.955933
1472089158687446,-0.0930786,0.0770264,-0.267517,0.955933
1472089158709819,-0.0926514,0.0769043,-0.267761,0.955933
1472089158731412,-0.0923462,0.0768433,-0.268066,0.955872
1472089158747490,-0.0922852,0.0768433,-0.268066,0.955872
1472089158770249,-0.0922852,0.0768433,-0.268066,0.955872
1472089158791285,-0.092041,0.0767822,-0.268005,0.955933
1472089158807833,-0.0917358,0.0766602,-0.268005,0.955933
1472089158830110,-0.0917358,0.0766602,-0.268005,0.955933
1472089158851245,-0.0917969,0.0766602,-0.268005,0.955933
1472089158867891,-0.0917969,0.0765381,-0.268188,0.955872
1472089158889997,-0.09198,0.0764771,-0.268494,0.955811
1472089158911576,-0.0921631,0.0765381,-0.268494,0.955811
1472089158927449,-0.0924072,0.0767212,-0.26825,0.955811
1472089158950038,-0.0924072,0.0767212,-0.268005,0.955872
1472089158972770,-0.0924072,0.0767212,-0.268005,0.955872
1472089158987326,-0.0921631,0.0766602,-0.268127,0.955872
1472089159017939,-0.0921631,0.0766602,-0.268127,0.955872
1472089159032490,-0.0922852,0.0766602,-0.268127,0.955872
1472089159047760,-0.0922852,0.0766602,-0.268127,0.955872
1472089159070385,-0.0925293,0.0766602,-0.268005,0.955872
1472089159092446,-0.0927124,0.0767212,-0.267883,0.955872
1472089159106007,-0.0926514,0.0767212,-0.267883,0.955872
1472089159129959,-0.0926514,0.0767212,-0.267883,0.955872
1472089159152733,-0.0926514,0.0767212,-0.267883,0.955872
1472089159166753,-0.0926514,0.0767212,-0.267883,0.955872
1472089159189841,-0.0930786,0.0765991,-0.267822,0.955872
1472089159212542,-0.0934448,0.0765991,-0.2677,0.955872
1472089159227597,-0.093811,0.0766602,-0.267639,0.955872
1472089159250163,-0.0940552,0.0767212,-0.267517,0.955872
1472089159272605,-0.0941162,0.0768433,-0.267273,0.955872
1472089159287118,-0.0941162,0.0769043,-0.267273,0.955872
1472089159310314,-0.0941772,0.0769653,-0.267273,0.955872
1472089159332552,-0.0938721,0.0769653,-0.267456,0.955872
1472089159347174,-0.0935669,0.0769043,-0.267395,0.955933
1472089159370117,-0.0935669,0.0769043,-0.267395,0.955933
1472089159392650,-0.0931396,0.0768433,-0.267029,0.956055
1472089159407264,-0.0931396,0.0767822,-0.266785,0.956177
1472089159430577,-0.0931396,0.0767822,-0.266785,0.956177
1472089159452561,-0.0929565,0.0767212,-0.266724,0.956177
1472089159473660,-0.0927124,0.0764771,-0.266663,0.956238
1472089159490161,-0.0927124,0.076416,-0.266663,0.956238
1472089159512240,-0.0932007,0.076416,-0.266663,0.956177
1472089159533077,-0.0935669,0.0764771,-0.266541,0.956177
1472089159550191,-0.0935669,0.0764771,-0.266541,0.956177
1472089159572799,-0.0932617,0.0765381,-0.266296,0.956299
1472089159593830,-0.0929565,0.076416,-0.265991,0.956421
1472089159610353,-0.0928955,0.076416,-0.265686,0.956482
1472089159632887,-0.0929565,0.076416,-0.265564,0.956543
1472089159653929,-0.0929565,0.076416,-0.265564,0.956543
1472089159670367,-0.0930176,0.0762939,-0.265381,0.956604
1472089159692895,-0.0929565,0.0761719,-0.265198,0.956665
1472089159713926,-0.0933228,0.0761108,-0.265015,0.956665
1472089159729997,-0.0935669,0.0761108,-0.264893,0.956665
1472089159752637,-0.0935669,0.0761108,-0.264893,0.956665
1472089159773733,-0.0935669,0.0761108,-0.264893,0.956665
1472089159790246,-0.0935669,0.0761108,-0.264893,0.956665
1472089159812924,-0.0939331,0.0759277,-0.265015,0.956665
1472089159833549,-0.0941772,0.0758667,-0.265076,0.956604
1472089159850167,-0.0941772,0.0758667,-0.265076,0.956604
1472089159872541,-0.0942993,0.0759277,-0.265137,0.956543
1472089159893601,-0.0947266,0.0760498,-0.265137,0.956482
1472089159910343,-0.0947266,0.0760498,-0.265137,0.956482
1472089159932625,-0.0947266,0.0760498,-0.265137,0.956482
1472089159955251,-0.0943604,0.0759277,-0.265259,0.956543
1472089159969820,-0.0941772,0.0761108,-0.26532,0.956543
1472089159999869,-0.0941772,0.076355,-0.26532,0.956482
1472089160015396,-0.0942383,0.0762939,-0.26532,0.956482
1472089160030433,-0.0939941,0.076416,-0.26532,0.956482
1472089160052462,-0.09375,0.0762939,-0.265381,0.956543
1472089160075067,-0.0935059,0.0761108,-0.265381,0.956543
1472089160089630,-0.0935059,0.0760498,-0.265381,0.956543
1472089160111752,-0.0933838,0.0761108,-0.265442,0.956543
1472089160135367,-0.0930786,0.0760498,-0.265503,0.956543
1472089160149481,-0.0927124,0.0761108,-0.265625,0.956543
1472089160172546,-0.0925293,0.0759888,-0.265625,0.956604
1472089160194896,-0.0923462,0.0759277,-0.265747,0.956604
1472089160209474,-0.0924072,0.0759277,-0.265747,0.956604
1472089160232981,-0.0924072,0.0759277,-0.265747,0.956604
1472089160255091,-0.0925293,0.0757446,-0.265808,0.956543
1472089160269640,-0.0927734,0.0755005,-0.26593,0.956543
1472089160292912,-0.0929565,0.0755615,-0.266052,0.956482
1472089160314988,-0.0932007,0.0753784,-0.266174,0.956421
1472089160329856,-0.0934448,0.0753784,-0.266296,0.95636
1472089160353068,-0.0933838,0.0753784,-0.266296,0.95636
1472089160375035,-0.0933228,0.0754395,-0.266296,0.95636
1472089160389760,-0.0933228,0.0754395,-0.266296,0.95636
1472089160412723,-0.0929565,0.0752563,-0.266296,0.956421
1472089160435274,-0.0925293,0.0751343,-0.266174,0.956482
1472089160456393,-0.0925293,0.0751343,-0.266174,0.956543
1472089160472907,-0.0924683,0.0751343,-0.266174,0.956543
1472089160495320,-0.0924683,0.0751343,-0.266174,0.956543
1472089160516314,-0.0927734,0.0751343,-0.266052,0.956482
1472089160532878,-0.0928345,0.0751343,-0.266052,0.956482
1472089160555379,-0.0927734,0.0751343,-0.266052,0.956482
1472089160576118,-0.0927734,0.0751343,-0.266052,0.956482
1472089160592617,-0.0929565,0.0754395,-0.266052,0.956482
1472089160615071,-0.0931396,0.0756226,-0.266052,0.956421
1472089160636195,-0.0931396,0.0758667,-0.266052,0.956421
1472089160652749,-0.0930786,0.0758667,-0.266052,0.956421
1472089160675350,-0.0932617,0.0759888,-0.266052,0.956421
1472089160696483,-0.0935059,0.0761108,-0.265991,0.95636
1472089160712659,-0.0935669,0.0761108,-0.265991,0.95636
1472089160735388,-0.093689,0.0761719,-0.265991,0.95636
1472089160756177,-0.0938721,0.076355,-0.26593,0.95636
1472089160772325,-0.0938721,0.076355,-0.26593,0.95636
1472089160795033,-0.0938721,0.076355,-0.26593,0.95636
1472089160816608,-0.0938721,0.076355,-0.26593,0.95636
1472089160832764,-0.093811,0.076355,-0.26593,0.95636
1472089160855017,-0.093811,0.076355,-0.26593,0.95636
1472089160877707,-0.093811,0.076355,-0.26593,0.95636
1472089160892747,-0.0938721,0.076355,-0.26593,0.95636
1472089160915461,-0.093811,0.076355,-0.26593,0.95636
1472089160937919,-0.093811,0.076355,-0.26593,0.95636
1472089160952948,-0.093811,0.076355,-0.26593,0.95636
1472089160975121,-0.0938721,0.076355,-0.26593,0.95636
1472089160997964,-0.0936279,0.0762329,-0.265991,0.95636
1472089161012126,-0.0936279,0.0762329,-0.265991,0.95636
1472089161035141,-0.0936279,0.0762329,-0.265991,0.95636
1472089161057778,-0.0936279,0.0762329,-0.265991,0.95636
1472089161071820,-0.0935669,0.0762329,-0.265991,0.95636
1472089161095375,-0.0935669,0.0762329,-0.265991,0.95636
1472089161117488,-0.0932007,0.0761719,-0.265991,0.956421
1472089161132142,-0.0931396,0.0761719,-0.265991,0.956421
1472089161155351,-0.0931396,0.0761719,-0.265991,0.956421
1472089161177717,-0.0931396,0.0761108,-0.265991,0.956421
1472089161192191,-0.0930786,0.0761108,-0.265808,0.956482
1472089161215212,-0.0930176,0.0761108,-0.265808,0.956482
1472089161237543,-0.0933228,0.0762939,-0.265808,0.956421
1472089161252137,-0.0933838,0.0762939,-0.265808,0.956421
1472089161275204,-0.0933228,0.0762939,-0.265808,0.956421
1472089161297761,-0.0934448,0.076355,-0.265747,0.956421
1472089161303265,-0.0939331,0.0765991,-0.265686,0.956421
1472089161335017,-0.0943604,0.0767822,-0.265625,0.95636
1472089161340587,-0.0946655,0.0769043,-0.265686,0.956299
1472089161363060,-0.0948486,0.0771484,-0.265686,0.956238
1472089161381174,-0.0948486,0.0771484,-0.265686,0.956238
1472089161400688,-0.0948486,0.0771484,-0.265686,0.956238
1472089161423273,-0.0947876,0.0771484,-0.265686,0.956238
1472089161441356,-0.0947876,0.0772095,-0.265686,0.956238
1472089161460793,-0.0945435,0.0769043,-0.265625,0.956299
1472089161483293,-0.093811,0.0765991,-0.265503,0.956421
1472089161505829,-0.093811,0.0765991,-0.265503,0.956421
1472089161520832,-0.0932617,0.0767212,-0.265381,0.956543
1472089161543344,-0.0927124,0.0767822,-0.265015,0.956665
1472089161565541,-0.09198,0.0767212,-0.264709,0.956848
1472089161580570,-0.0919189,0.0765991,-0.264526,0.956909
1472089161603219,-0.092041,0.076355,-0.264648,0.956848
1472089161625340,-0.0923462,0.0762329,-0.264893,0.956787
1472089161640672,-0.0924072,0.0762329,-0.264893,0.956787
1472089161663248,-0.0922852,0.0762939,-0.264832,0.956787
1472089161685815,-0.0922852,0.0762939,-0.264832,0.956787
1472089161700974,-0.0929565,0.0765381,-0.264771,0.956726
1472089161723089,-0.0935059,0.0765381,-0.264893,0.956665
1472089161745635,-0.093811,0.0765991,-0.26532,0.956482
1472089161760713,-0.0942993,0.0769653,-0.26532,0.956421
1472089161783281,-0.0945435,0.0765991,-0.265198,0.956482
1472089161805802,-0.0941162,0.0760498,-0.265198,0.956543
1472089161820847,-0.0940552,0.0760498,-0.265198,0.956543
1472089161843504,-0.0942993,0.0761108,-0.265137,0.956543
1472089161865724,-0.0938721,0.0759888,-0.264954,0.956665
1472089161880786,-0.0932007,0.0759888,-0.264648,0.956787
1472089161903358,-0.0925903,0.0758057,-0.264465,0.956909
1472089161925633,-0.0928345,0.0758057,-0.264221,0.95697
1472089161940632,-0.0933228,0.0759888,-0.264221,0.956909
1472089161963259,-0.0933838,0.0759888,-0.264221,0.956909
1472089161985368,-0.0930786,0.0756836,-0.264221,0.95697
1472089162000363,-0.0925293,0.0755615,-0.26416,0.957031
1472089162022978,-0.0927124,0.0756226,-0.263916,0.957092
1472089162045772,-0.0936279,0.0759277,-0.263855,0.95697
1472089162060951,-0.0941772,0.0761108,-0.263916,0.956909
1472089162082801,-0.0944214,0.0761108,-0.26416,0.956787
1472089162105824,-0.0944824,0.0761108,-0.264282,0.956726
1472089162121872,-0.0946655,0.0761719,-0.264404,0.956726
1472089162143013,-0.0949707,0.0761719,-0.264404,0.956665
1472089162165618,-0.0953369,0.0762329,-0.264404,0.956665
1472089162182113,-0.0956421,0.0761108,-0.264404,0.956604
1472089162203150,-0.0955811,0.0761719,-0.264404,0.956604
1472089162225725,-0.0953369,0.0758057,-0.264465,0.956665
1472089162241899,-0.0944214,0.0758667,-0.264282,0.956787
1472089162263153,-0.0939331,0.0759277,-0.264038,0.956909
1472089162285657,-0.09375,0.0759888,-0.263733,0.95697
1472089162302178,-0.0935669,0.0759277,-0.263733,0.957031
1472089162323211,-0.0935059,0.0759277,-0.263733,0.957031
1472089162345875,-0.09375,0.0762329,-0.26355,0.957031
1472089162362478,-0.0940552,0.0765381,-0.263245,0.957031
1472089162382991,-0.0946045,0.0765991,-0.262878,0.957092
1472089162405614,-0.0953369,0.076355,-0.262634,0.957092
1472089162422403,-0.0952759,0.0759888,-0.262573,0.957153
1472089162443067,-0.0948486,0.0754395,-0.262329,0.957336
1472089162465753,-0.0939941,0.0750122,-0.262207,0.957458
1472089162482058,-0.0939331,0.0749512,-0.262207,0.957458
1472089162503211,-0.0944214,0.0751343,-0.262146,0.957397
1472089162525676,-0.0946045,0.0752563,-0.262207,0.957397
1472089162543319,-0.0947876,0.0753174,-0.26239,0.957336
1472089162562844,-0.0948486,0.0751343,-0.262634,0.957275
1472089162585389,-0.0943604,0.0752563,-0.262756,0.957275
1472089162607928,-0.09375,0.0757446,-0.262634,0.957336
1472089162622982,-0.0935059,0.0762329,-0.262329,0.957397
1472089162645518,-0.093811,0.0762939,-0.261963,0.957458
1472089162668228,-0.093811,0.0762939,-0.261963,0.957458
1472089162683253,-0.093811,0.076355,-0.261963,0.957458
1472089162705632,-0.093689,0.0765381,-0.261841,0.957458
1472089162728176,-0.0939331,0.0765991,-0.261719,0.957458
1472089162743225,-0.0939331,0.076416,-0.261597,0.95752
1472089162765452,-0.09375,0.076416,-0.261414,0.957581
1472089162788085,-0.0939941,0.0765381,-0.261475,0.95752
1472089162803126,-0.0941162,0.0764771,-0.261597,0.95752
1472089162833187,-0.0944214,0.0766602,-0.261841,0.957397
1472089162848278,-0.0946045,0.0767822,-0.262024,0.957336
1472089162863304,-0.0945435,0.0767212,-0.262024,0.957336
1472089162884841,-0.0946045,0.0765381,-0.262146,0.957275
1472089162907826,-0.0946045,0.0765381,-0.262146,0.957275
1472089162923361,-0.0946045,0.0765991,-0.262146,0.957275
1472089162945968,-0.0941162,0.0767212,-0.261963,0.957397
1472089162968253,-0.0938721,0.0769043,-0.261719,0.957458
1472089162982949,-0.0939331,0.0769043,-0.261536,0.95752
1472089163005465,-0.0936279,0.0769653,-0.261414,0.957581
1472089163028146,-0.0932617,0.0769653,-0.261658,0.95752
1472089163043213,-0.0932617,0.0769653,-0.261658,0.95752
1472089163065447,-0.0933838,0.0769043,-0.261414,0.957581
1472089163088007,-0.0933838,0.0769043,-0.261414,0.957581
1472089163112000,-0.0934448,0.0769043,-0.261414,0.957581
1472089163125453,-0.0933838,0.0769043,-0.261414,0.957581
1472089163148106,-0.0935059,0.0768433,-0.261475,0.957581
1472089163163220,-0.0934448,0.0768433,-0.261475,0.957581
1472089163185777,-0.0934448,0.0768433,-0.261475,0.957581
1472089163207983,-0.0934448,0.0768433,-0.261475,0.957581
1472089163225889,-0.0934448,0.0768433,-0.261475,0.957581
1472089163245463,-0.0933838,0.0768433,-0.261475,0.957581
1472089163276424,-0.0933838,0.0768433,-0.261475,0.957581
1472089163284989,-0.0935669,0.0767822,-0.261536,0.95752
1472089163305901,-0.093811,0.0767822,-0.261536,0.95752
1472089163328141,-0.093811,0.0768433,-0.261536,0.95752
1472089163344312,-0.093811,0.0768433,-0.261536,0.95752
1472089163365987,-0.093811,0.0768433,-0.261536,0.95752
1472089163388023,-0.093811,0.0767822,-0.261536,0.95752
1472089163404696,-0.093811,0.0767822,-0.261536,0.95752
1472089163425858,-0.093811,0.0767822,-0.261536,0.95752
1472089163447931,-0.0939331,0.0767822,-0.261475,0.95752
1472089163464298,-0.0939331,0.0767822,-0.261475,0.95752
1472089163485960,-0.0939331,0.0767822,-0.261475,0.95752
1472089163507985,-0.09375,0.0767212,-0.261536,0.95752
1472089163524539,-0.09375,0.0767822,-0.261536,0.95752
1472089163545731,-0.09375,0.0767212,-0.261536,0.95752
1472089163568113,-0.09375,0.0767212,-0.261536,0.95752
1472089163584765,-0.09375,0.0767212,-0.261536,0.95752
1472089163605808,-0.09375,0.0767212,-0.261536,0.95752
1472089163628061,-0.09375,0.0767212,-0.261536,0.95752
1472089163646303,-0.0932007,0.0768433,-0.261597,0.957581
1472089163665605,-0.0922852,0.0773315,-0.261841,0.957581
1472089163687659,-0.0916748,0.0777588,-0.261902,0.957581
1472089163706226,-0.0912476,0.0780029,-0.261841,0.957581
1472089163725724,-0.0909424,0.0780029,-0.26178,0.957642
1472089163748262,-0.0900269,0.078064,-0.262024,0.957642
1472089163770664,-0.0892944,0.0783691,-0.262146,0.957642
1472089163785708,-0.0890503,0.0784912,-0.262268,0.957642
1472089163808244,-0.0888672,0.0783691,-0.262268,0.957642
1472089163829899,-0.0888672,0.0784302,-0.262268,0.957642
1472089163845678,-0.0888062,0.0784302,-0.262268,0.957642
1472089163868264,-0.0888062,0.0784912,-0.262268,0.957642
1472089163890667,-0.0889893,0.0782471,-0.262024,0.957703
1472089163905697,-0.0890503,0.0780029,-0.261841,0.957825
1472089163928207,-0.0890503,0.0776367,-0.261841,0.957825
1472089163959647,-0.0890503,0.0772095,-0.26178,0.957886
1472089163965655,-0.0892944,0.0768433,-0.261719,0.957886
1472089163987881,-0.0892334,0.0768433,-0.261719,0.957886
1472089164010966,-0.0895386,0.0767822,-0.261597,0.957947
1472089164025542,-0.0895996,0.0765381,-0.261536,0.957947
1472089164048244,-0.0895996,0.0765381,-0.261536,0.957947
1472089164070964,-0.0895996,0.0765991,-0.261536,0.957947
1472089164085551,-0.0899048,0.0765991,-0.261536,0.957886
1472089164108247,-0.090332,0.0766602,-0.261475,0.957886
1472089164130827,-0.0905762,0.0768433,-0.261292,0.957886
1472089164145961,-0.0905762,0.0767822,-0.261292,0.957886
1472089164168123,-0.090271,0.0770264,-0.261292,0.957886
1472089164190620,-0.0894775,0.0773926,-0.261108,0.958008
1472089164205822,-0.0890503,0.0775757,-0.260864,0.958069
1472089164228410,-0.0888672,0.0776978,-0.26062,0.958191
1472089164250539,-0.0886841,0.0775757,-0.260437,0.958252
1472089164265595,-0.0886841,0.0775757,-0.260437,0.958252
1472089164288173,-0.0888062,0.0778198,-0.260559,0.958191
1472089164310740,-0.0889282,0.0782471,-0.260742,0.958069
1472089164327263,-0.0889282,0.0788574,-0.261047,0.957947
1472089164348380,-0.0889893,0.0793457,-0.261292,0.957825
1472089164370841,-0.0891113,0.0795898,-0.261414,0.957764
1472089164387316,-0.0892944,0.079834,-0.261475,0.957764
1472089164408387,-0.0892944,0.079895,-0.261536,0.957703
1472089164430639,-0.0890503,0.0801392,-0.261658,0.957703
1472089164447248,-0.0889893,0.0803833,-0.261658,0.957642
1472089164468406,-0.0886841,0.0806274,-0.261719,0.957642
1472089164490456,-0.088623,0.0809937,-0.261658,0.957642
1472089164506975,-0.088623,0.0810547,-0.261658,0.957642
1472089164528017,-0.0889282,0.0807495,-0.26178,0.957581
1472089164550591,-0.0924683,0.0776978,-0.260925,0.957764
1472089164568815,-0.102234,0.0745239,-0.258423,0.957703
1472089164588193,-0.110901,0.0744019,-0.25531,0.957581
1472089164610731,-0.11731,0.0756226,-0.252991,0.957336
1472089164633380,-0.121948,0.0736694,-0.250061,0.957642
1472089164648336,-0.12146,0.0702515,-0.2453,0.959229
1472089164670601,-0.116577,0.0684814,-0.237,0.962036
1472089164693175,-0.115723,0.0692749,-0.224854,0.964966
1472089164708241,-0.11969,0.0738525,-0.209717,0.96759
1472089164730885,-0.124023,0.0796509,-0.193909,0.969849
1472089164753486,-0.124817,0.085083,-0.177124,0.972534
1472089164768169,-0.124023,0.0899658,-0.160034,0.975098
1472089164790429,-0.123901,0.0944214,-0.143005,0.977356
1472089164813272,-0.124512,0.0979614,-0.126099,0.979248
1472089164828376,-0.125,0.100098,-0.109924,0.980957
1472089164850630,-0.123718,0.100708,-0.0950928,0.982605
1472089164873195,-0.124084,0.100464,-0.0820923,0.983704
1472089164888391,-0.125916,0.0997314,-0.071167,0.984436
1472089164910497,-0.12677,0.0993652,-0.0621948,0.984985
1472089164933225,-0.125977,0.0995483,-0.0542603,0.985535
1472089164948329,-0.125854,0.100159,-0.0471802,0.98584
1472089164970375,-0.127808,0.100586,-0.0411377,0.985779
1472089164992948,-0.129944,0.100342,-0.0361328,0.985718
1472089165007991,-0.131165,0.0994873,-0.0316162,0.98584
1472089165030616,-0.132935,0.0981445,-0.0274658,0.98584
1472089165053449,-0.134338,0.0960693,-0.0238647,0.985962
1472089165067967,-0.134949,0.093811,-0.020752,0.986145
1472089165090769,-0.13501,0.0919189,-0.0180664,0.986389
1472089165113302,-0.135559,0.0908813,-0.0153809,0.98645
1472089165128412,-0.136353,0.0903931,-0.0125732,0.986389
1472089165150605,-0.137634,0.0900879,-0.0100098,0.986328
1472089165173428,-0.139404,0.0897827,-0.00817871,0.986084
1472089165188395,-0.141174,0.0895386,-0.00708008,0.985901
1472089165210910,-0.142822,0.0894775,-0.00653076,0.985657
1472089165233550,-0.144897,0.0896606,-0.00610352,0.985352
1472089165249529,-0.147339,0.090332,-0.00579834,0.984924
1472089165270601,-0.149048,0.0914307,-0.0055542,0.984558
1472089165292896,-0.150391,0.0927124,-0.00549316,0.984253
1472089165309413,-0.151794,0.0939331,-0.00531006,0.983887
1472089165331004,-0.153381,0.0952759,-0.00518799,0.983521
1472089165353265,-0.154968,0.0968018,-0.00488281,0.983093
1472089165369525,-0.156921,0.0984497,-0.0043335,0.982666
1472089165391112,-0.158508,0.100037,-0.00341797,0.982239
1472089165413040,-0.159607,0.101746,-0.0022583,0.981873
1472089165429511,-0.160339,0.103394,-0.000854492,0.981628
1472089165450659,-0.160767,0.10498,0.000732422,0.981384
1472089165473083,-0.160645,0.106689,0.0022583,0.981201
1472089165489488,-0.160156,0.108765,0.003479,0.981018
1472089165510620,-0.159485,0.111084,0.00463867,0.980896
1472089165533254,-0.158386,0.11377,0.00531006,0.980774
1472089165549737,-0.156921,0.116821,0.0055542,0.980652
1472089165570801,-0.155334,0.119995,0.00537109,0.98053
1472089165593374,-0.154236,0.123169,0.00500488,0.980286
1472089165610986,-0.15332,0.126038,0.00463867,0.980042
1472089165630577,-0.152344,0.128601,0.0045166,0.979858
1472089165653131,-0.151184,0.130615,0.0045166,0.979797
1472089165671186,-0.149841,0.132263,0.0045166,0.979797
1472089165690747,-0.14856,0.133667,0.00439453,0.979797
1472089165713363,-0.147095,0.134705,0.0043335,0.979858
1472089165731295,-0.145203,0.135681,0.00427246,0.980042
1472089165750023,-0.143372,0.136902,0.00445557,0.980103
1472089165773072,-0.143005,0.138123,0.00506592,0.97998
1472089165790100,-0.143005,0.139038,0.00488281,0.979858
1472089165810988,-0.142578,0.139648,0.00494385,0.979858
1472089165833066,-0.142273,0.140137,0.00494385,0.979797
1472089165851084,-0.141235,0.140381,0.00537109,0.979919
1472089165871083,-0.140503,0.140198,0.00622559,0.980042
1472089165893281,-0.139526,0.140076,0.00640869,0.980225
1472089165915987,-0.138672,0.140259,0.00634766,0.980286
1472089165931097,-0.137878,0.140259,0.00616455,0.980408
1472089165953063,-0.137207,0.140259,0.00592041,0.98053
1472089165971144,-0.136841,0.140381,0.00585938,0.98053
1472089165990910,-0.136536,0.140259,0.00598145,0.980591
1472089166012935,-0.136353,0.139893,0.00598145,0.980652
1472089166035612,-0.136353,0.139832,0.00598145,0.980713
1472089166050703,-0.136658,0.139893,0.00585938,0.980652
1472089166073422,-0.137024,0.140015,0.0057373,0.980591
1472089166095308,-0.137268,0.140137,0.0055542,0.98053
1472089166110850,-0.137512,0.140381,0.00543213,0.980469
1472089166133319,-0.137634,0.140503,0.00524902,0.980408
1472089166155922,-0.137695,0.140747,0.00506592,0.980408
1472089166170726,-0.137756,0.140991,0.00476074,0.980347
1472089166193488,-0.137878,0.141235,0.00457764,0.980286
1472089166215609,-0.137817,0.141602,0.00445557,0.980225
1472089166232181,-0.137634,0.14209,0.00427246,0.980225
1472089166253275,-0.137634,0.142578,0.00402832,0.980103
1472089166275807,-0.137634,0.14325,0.00360107,0.980042
1472089166291937,-0.137756,0.143921,0.00323486,0.979919
1472089166313597,-0.138,0.144714,0.00286865,0.979736
1472089166335701,-0.138062,0.145325,0.00244141,0.979675
1472089166352255,-0.138184,0.145874,0.00195313,0.979553
1472089166373007,-0.138489,0.14624,0.00128174,0.979492
1472089166395625,-0.138916,0.146545,0.000427246,0.97937
1472089166412264,-0.139404,0.146606,-0.000427246,0.979309
1472089166433399,-0.139954,0.146545,-0.0012207,0.979248
1472089166455837,-0.140564,0.146362,-0.00195313,0.979187
1472089166471362,-0.140991,0.146118,-0.00262451,0.979126
1472089166493001,-0.141235,0.145935,-0.00323486,0.979126
1472089166515621,-0.141052,0.145996,-0.00360107,0.979126
1472089166533774,-0.140564,0.146118,-0.00390625,0.979187
1472089166553403,-0.139954,0.146057,-0.00408936,0.979309
1472089166575633,-0.139282,0.146057,-0.0043335,0.97937
1472089166592998,-0.138733,0.145935,-0.00445557,0.979492
1472089166612974,-0.138306,0.145691,-0.0045166,0.979553
1472089166635625,-0.138062,0.145447,-0.00463867,0.979614
1472089166653635,-0.138,0.145081,-0.00476074,0.979675
1472089166673229,-0.138184,0.144836,-0.00488281,0.979736
1472089166695747,-0.138367,0.144592,-0.00500488,0.979736
1472089166721324,-0.138672,0.144348,-0.00518799,0.979736
1472089166733255,-0.138977,0.144165,-0.00537109,0.979675
1472089166755472,-0.139282,0.143799,-0.0055542,0.979736
1472089166773550,-0.139526,0.143433,-0.0057373,0.979736
1472089166793096,-0.139709,0.142944,-0.00579834,0.979797
1472089166815622,-0.139954,0.142273,-0.00579834,0.979858
1472089166833650,-0.140381,0.141541,-0.00579834,0.979858
1472089166853212,-0.140747,0.140869,-0.00567627,0.979919
1472089166875743,-0.14093,0.140137,-0.00549316,0.97998
1472089166893800,-0.140991,0.139343,-0.00537109,0.980103
1472089166913328,-0.141113,0.138367,-0.00518799,0.980225
1472089166935857,-0.141663,0.13678,-0.00500488,0.980408
1472089166958248,-0.143433,0.133362,-0.00457764,0.980591
1472089166973271,-0.147217,0.128479,-0.00341797,0.980713
1472089166995808,-0.151978,0.124695,-0.0020752,0.980469
1472089167018331,-0.15509,0.122498,-0.00134277,0.980225
1472089167033349,-0.155823,0.121033,-0.00109863,0.980347
1472089167063438,-0.155762,0.119751,-0.000854492,0.980469
1472089167077971,-0.156982,0.118347,-0.000305176,0.980469
1472089167093040,-0.159241,0.11731,0.00109863,0.980225
1472089167115554,-0.160706,0.116333,0.00256348,0.980103
1472089167133582,-0.161011,0.11554,0.00408936,0.980103
1472089167154614,-0.161011,0.115234,0.00537109,0.980164
1472089167175645,-0.16095,0.115356,0.00646973,0.980164
1472089167206196,-0.160767,0.115479,0.00756836,0.980164
1472089167214703,-0.160889,0.115417,0.00860596,0.980164
1472089167235729,-0.161133,0.115417,0.00982666,0.980103
1472089167258263,-0.161377,0.11554,0.0111694,0.97998
1472089167274808,-0.16156,0.116028,0.0123901,0.979919
1472089167295854,-0.161804,0.116455,0.0134888,0.979797
1472089167318110,-0.162415,0.116638,0.0145874,0.979675
1472089167334638,-0.163513,0.116638,0.0159302,0.979431
1472089167355175,-0.16333,0.116821,0.0170288,0.979431
1472089167378207,-0.164124,0.117188,0.0183105,0.979248
1472089167394724,-0.16449,0.117554,0.0195923,0.979126
1472089167415756,-0.164734,0.11792,0.0210571,0.979004
1472089167438292,-0.164795,0.118286,0.0223999,0.978943
1472089167454807,-0.165161,0.118347,0.0236206,0.978821
1472089167475839,-0.165527,0.118225,0.0249634,0.97876
1472089167498373,-0.165649,0.118042,0.0262451,0.978699
1472089167515893,-0.165344,0.118225,0.0274658,0.978699
1472089167535918,-0.164795,0.118469,0.0286865,0.97876
1472089167558458,-0.16394,0.118591,0.0299072,0.978821
1472089167575981,-0.163269,0.11908,0.0307007,0.978882
1472089167595502,-0.161987,0.119385,0.0310059,0.979004
1472089167618028,-0.15979,0.120667,0.0313721,0.979187
1472089167636051,-0.157104,0.123413,0.03125,0.979309
1472089167655581,-0.154785,0.127075,0.031189,0.979187
1472089167678154,-0.15332,0.12915,0.0314941,0.979187
1472089167696215,-0.153259,0.129028,0.0319214,0.979187
1472089167715733,-0.154358,0.127686,0.0314941,0.979187
1472089167738314,-0.155823,0.126038,0.031189,0.979187
1472089167755811,-0.156738,0.123535,0.0314941,0.97937
1472089167775882,-0.156921,0.121094,0.0324097,0.979614
1472089167798421,-0.156799,0.118713,0.0333862,0.979858
1472089167816477,-0.156555,0.11731,0.0339966,0.980042
1472089167835602,-0.156189,0.116638,0.0344238,0.980164
1472089167858140,-0.156067,0.115784,0.0350952,0.980286
1472089167876071,-0.155884,0.114685,0.0352783,0.980408
1472089167895656,-0.156006,0.113892,0.0354004,0.980469
1472089167918345,-0.156311,0.112793,0.0355835,0.980591
1472089167936122,-0.156189,0.112244,0.0358276,0.980652
1472089167955793,-0.155151,0.113403,0.0359497,0.980652
1472089167978354,-0.153992,0.115601,0.036377,0.980591
1472089167995892,-0.15387,0.117249,0.0368042,0.980408
1472089168015916,-0.152893,0.11908,0.0372314,0.980286
1472089168038187,-0.150574,0.121094,0.0374146,0.980408
1472089168056247,-0.149719,0.123047,0.038208,0.980286
1472089168075806,-0.15155,0.122681,0.0391846,0.97998
1472089168098063,-0.153503,0.121094,0.0400391,0.979858
1472089168116133,-0.153625,0.118896,0.0408936,0.980042
1472089168136995,-0.152222,0.116394,0.0419312,0.98053
1472089168157976,-0.15094,0.114441,0.0430298,0.980896
1472089168176061,-0.148987,0.113647,0.0440674,0.981262
1472089168197211,-0.147949,0.11322,0.0453491,0.981445
1472089168218270,-0.147339,0.112793,0.046875,0.981506
1472089168236489,-0.146912,0.112366,0.0481567,0.981567
1472089168257132,-0.146729,0.111816,0.0498657,0.981567
1472089168278278,-0.147034,0.111206,0.0512695,0.981506
1472089168295981,-0.14679,0.110291,0.0524902,0.981567
1472089168320265,-0.146118,0.10968,0.0540161,0.981628
1472089168339744,-0.14502,0.109558,0.0553589,0.98175
1472089168360751,-0.144226,0.109436,0.0562744,0.981812
1472089168377151,-0.144287,0.108582,0.0569458,0.981873
1472089168398241,-0.144653,0.106262,0.0581055,0.981995
1472089168420773,-0.145996,0.105408,0.0591431,0.981873
1472089168438956,-0.14447,0.10614,0.0599365,0.981934
1472089168458335,-0.142517,0.102539,0.0603638,0.982605
1472089168481000,-0.141113,0.103455,0.0603638,0.982666
1472089168498568,-0.139282,0.104614,0.0608521,0.982788
1472089168518110,-0.137817,0.106689,0.0610962,0.982788
1472089168540697,-0.136475,0.108398,0.0614014,0.982727
1472089168558769,-0.136169,0.108826,0.06073,0.982788
1472089168578416,-0.138184,0.107422,0.0597534,0.982727
1472089168600861,-0.138367,0.106262,0.059082,0.982849
1472089168618437,-0.137146,0.105652,0.0574951,0.983154
1472089168638455,-0.136414,0.104858,0.0559082,0.983459
1472089168660987,-0.135986,0.104675,0.0551758,0.983582
1472089168678566,-0.135864,0.105286,0.0549927,0.983521
1472089168698123,-0.136658,0.105652,0.0548096,0.983398
1472089168720674,-0.137329,0.105347,0.0545654,0.983398
1472089168738672,-0.136292,0.105042,0.0543823,0.983582
1472089168758310,-0.134583,0.10614,0.0532837,0.983704
1472089168780787,-0.135193,0.1073,0.0521851,0.983582
1472089168804874,-0.136658,0.107422,0.0518799,0.983398
1472089168818406,-0.136353,0.106873,0.0515747,0.983521
1472089168841231,-0.135315,0.106506,0.0512695,0.983704
1472089168858402,-0.135315,0.105835,0.0510864,0.983765
1472089168878038,-0.136169,0.104797,0.0507813,0.983765
1472089168900691,-0.137512,0.103333,0.0498047,0.983826
1472089168918778,-0.138977,0.102295,0.0484619,0.983765
1472089168938385,-0.140869,0.100952,0.046875,0.983704
1472089168959892,-0.143188,0.0991821,0.0437622,0.983704
1472089168978854,-0.1474,0.09729,0.0393066,0.983459
1472089168999955,-0.153076,0.0959473,0.0334473,0.982971
1472089169021058,-0.158386,0.0960083,0.0265503,0.9823
1472089169038668,-0.162415,0.0974731,0.0185547,0.981689
1472089169060156,-0.166016,0.0996704,0.00921631,0.981018
1472089169080975,-0.170227,0.102356,-0.00115967,0.980042
1472089169098510,-0.174194,0.105591,-0.012146,0.978943
1472089169119653,-0.178223,0.108704,-0.0231934,0.977661
1472089169140684,-0.182068,0.110901,-0.0341797,0.976379
1472089169158598,-0.184448,0.112488,-0.0449829,0.975342
1472089169179629,-0.18512,0.11438,-0.0563965,0.974365
1472089169200607,-0.184143,0.116699,-0.0682373,0.973511
1472089169223197,-0.183105,0.118896,-0.0802002,0.972534
1472089169239727,-0.181946,0.12085,-0.0922241,0.971436
1472089169260883,-0.179321,0.122803,-0.104431,0.970459
1472089169283343,-0.175903,0.124695,-0.116577,0.969482
1472089169299926,-0.173401,0.126709,-0.128357,0.968201
1472089169320998,-0.171753,0.128418,-0.139648,0.966675
1472089169343124,-0.170105,0.128723,-0.151123,0.96521
1472089169359752,-0.169983,0.127319,-0.162109,0.963623
1472089169380889,-0.170349,0.125183,-0.171692,0.962158
1472089169403195,-0.169434,0.12323,-0.179443,0.961182
1472089169421332,-0.167664,0.121887,-0.18512,0.960571
1472089169440983,-0.16626,0.121094,-0.189087,0.960144
1472089169463110,-0.164795,0.121704,-0.191101,0.959961
1472089169481235,-0.162842,0.122559,-0.190247,0.960327
1472089169500801,-0.158936,0.123169,-0.18811,0.961304
1472089169523321,-0.154602,0.124329,-0.18634,0.962219
1472089169541377,-0.151611,0.124939,-0.185364,0.96283
1472089169560594,-0.149658,0.124939,-0.184937,0.963196
1472089169583183,-0.148865,0.125,-0.184998,0.963318
1472089169601212,-0.148743,0.125305,-0.185059,0.963257
1472089169620795,-0.14856,0.125793,-0.185059,0.963196
1472089169643196,-0.14856,0.126404,-0.185364,0.963074
1472089169661258,-0.148682,0.126465,-0.185791,0.962952
1472089169680906,-0.149109,0.126282,-0.186401,0.96283
1472089169703038,-0.149719,0.126587,-0.186768,0.962646
1472089169721348,-0.149841,0.126831,-0.187439,0.962463
1472089169741176,-0.149231,0.126892,-0.188293,0.962341
1472089169771100,-0.148193,0.126892,-0.188721,0.962463
1472089169781123,-0.147095,0.126709,-0.188599,0.962646
1472089169800788,-0.146667,0.126343,-0.188293,0.96283
1472089169823224,-0.146912,0.125854,-0.187683,0.962952
1472089169841298,-0.147156,0.125366,-0.186829,0.963135
1472089169860792,-0.146851,0.124878,-0.186218,0.963379
1472089169883326,-0.14624,0.124573,-0.186157,0.963562
1472089169901205,-0.145569,0.124329,-0.186218,0.963623
1472089169920707,-0.145081,0.124268,-0.186035,0.963745
1472089169943227,-0.144409,0.124329,-0.185669,0.963928
1472089169961278,-0.143494,0.12439,-0.185547,0.964111
1472089169980857,-0.142944,0.124268,-0.18573,0.964172
1472089170003394,-0.142761,0.124451,-0.186096,0.96405
1472089170020945,-0.142761,0.124756,-0.18634,0.963989
1472089170041984,-0.1427,0.124878,-0.186523,0.963928
1472089170066513,-0.142456,0.124878,-0.186707,0.963928
1472089170081083,-0.142456,0.124878,-0.186707,0.963989
1472089170102075,-0.142395,0.125122,-0.186768,0.963928
1472089170123114,-0.14209,0.125183,-0.186829,0.963928
1472089170141140,-0.141724,0.125061,-0.187195,0.963928
1472089170162170,-0.141907,0.125122,-0.187439,0.963867
1472089170183214,-0.142334,0.125183,-0.187378,0.963806
1472089170201059,-0.142578,0.125244,-0.187256,0.963806
1472089170222078,-0.142639,0.125244,-0.187256,0.963806
1472089170243130,-0.142395,0.125366,-0.1875,0.963745
1472089170261367,-0.142212,0.12561,-0.187683,0.963684
1472089170281892,-0.142212,0.125854,-0.187805,0.963623
1472089170303440,-0.142151,0.126038,-0.187988,0.963623
1472089170320983,-0.142334,0.126038,-0.188232,0.963501
1472089170343985,-0.142456,0.126099,-0.188354,0.96344
1472089170363427,-0.142456,0.12616,-0.188354,0.96344
1472089170380986,-0.142334,0.126099,-0.188416,0.963501
1472089170403734,-0.142883,0.125977,-0.18866,0.963379
1472089170423185,-0.143433,0.125977,-0.188904,0.963257
1472089170441276,-0.14325,0.126099,-0.189148,0.963196
1472089170463411,-0.1427,0.126221,-0.18927,0.963257
1472089170483598,-0.14209,0.126282,-0.18927,0.963318
1472089170501171,-0.142212,0.126221,-0.18927,0.963318
1472089170523812,-0.1427,0.126465,-0.189026,0.963257
1472089170546545,-0.142578,0.127075,-0.188538,0.963257
1472089170561071,-0.142578,0.127808,-0.187866,0.963318
1472089170583591,-0.142151,0.128662,-0.187378,0.963379
1472089170603127,-0.142151,0.128601,-0.187378,0.963379
1472089170626018,-0.142212,0.128052,-0.1875,0.96344
1472089170643546,-0.142578,0.127808,-0.187561,0.963379
1472089170663140,-0.14325,0.127502,-0.187561,0.963318
1472089170685757,-0.143921,0.127075,-0.187683,0.963257
1472089170703890,-0.144714,0.126404,-0.187927,0.963196
1472089170723392,-0.145386,0.125671,-0.188354,0.963074
1472089170745997,-0.145874,0.125,-0.18866,0.963013
1472089170769951,-0.14624,0.124329,-0.189026,0.963013
1472089170783608,-0.14679,0.123474,-0.189331,0.962952
1472089170805678,-0.147766,0.122559,-0.189514,0.962891
1472089170823734,-0.148865,0.122131,-0.189514,0.962769
1472089170843301,-0.149231,0.121948,-0.189575,0.962708
1472089170865864,-0.149292,0.121948,-0.189575,0.962708
1472089170883659,-0.149109,0.122253,-0.189697,0.962708
1472089170903364,-0.148926,0.122803,-0.189636,0.962646
1472089170925910,-0.148987,0.123596,-0.189575,0.962585
1472089170943926,-0.14917,0.124329,-0.18927,0.962524
1472089170964817,-0.148987,0.124756,-0.189209,0.962524
1472089170985859,-0.149536,0.124084,-0.189331,0.962463
1472089171003726,-0.149902,0.123596,-0.18927,0.962463
1472089171026257,-0.149597,0.123352,-0.189209,0.962585
1472089171045790,-0.149719,0.123352,-0.18927,0.962524
1472089171063814,-0.150513,0.122925,-0.189636,0.962402
1472089171084701,-0.151611,0.122314,-0.190063,0.962219
1472089171105584,-0.152344,0.121704,-0.190491,0.962097
1472089171123611,-0.153076,0.121277,-0.190857,0.961975
1472089171144629,-0.153625,0.120789,-0.191223,0.961853
1472089171165651,-0.154114,0.120422,-0.191528,0.961792
1472089171183680,-0.154541,0.120056,-0.191833,0.96167
1472089171204941,-0.154968,0.119873,-0.191895,0.961609
1472089171225968,-0.155273,0.119812,-0.191895,0.961609
1472089171243484,-0.155212,0.119812,-0.191895,0.961609
1472089171264532,-0.155151,0.119812,-0.191895,0.961609
1472089171285562,-0.155151,0.119812,-0.191895,0.961609
1472089171303594,-0.155151,0.119812,-0.191895,0.961609
1472089171326127,-0.155151,0.119751,-0.191895,0.961609
1472089171345652,-0.15509,0.120178,-0.191833,0.961609
1472089171363676,-0.155273,0.120483,-0.192017,0.961487
1472089171386313,-0.155334,0.120605,-0.192322,0.961426
1472089171405625,-0.155273,0.120605,-0.192749,0.961304
1472089171423567,-0.155273,0.120667,-0.193115,0.961243
1472089171446093,-0.155273,0.120667,-0.193115,0.961243
1472089171466129,-0.155457,0.12085,-0.192932,0.961243
1472089171483663,-0.155701,0.121155,-0.192505,0.961243
1472089171506705,-0.155823,0.12146,-0.1922,0.961243
1472089171525609,-0.155701,0.121765,-0.192261,0.961182
1472089171543631,-0.155457,0.121948,-0.192444,0.961182
1472089171566165,-0.155396,0.121948,-0.192444,0.961182
1472089171585943,-0.15564,0.121765,-0.192261,0.961243
1472089171603476,-0.155762,0.121521,-0.192078,0.961243
1472089171626006,-0.155762,0.121155,-0.192078,0.961304
1472089171646038,-0.155762,0.120911,-0.192139,0.961304
1472089171663566,-0.155884,0.120728,-0.1922,0.961304
1472089171686112,-0.15625,0.120422,-0.192261,0.961304
1472089171713153,-0.156372,0.120178,-0.192444,0.961243
1472089171723670,-0.156311,0.119934,-0.192688,0.961243
1472089171746202,-0.156433,0.119812,-0.192871,0.961243
1472089171765734,-0.156433,0.119812,-0.192871,0.961243
1472089171788302,-0.156433,0.119812,-0.192871,0.961243
1472089171806290,-0.156433,0.11969,-0.193054,0.961182
1472089171828840,-0.156494,0.11969,-0.19342,0.961121
1472089171848682,-0.156738,0.119751,-0.193665,0.960999
1472089171865682,-0.157043,0.119995,-0.193665,0.960938
1472089171887303,-0.157349,0.120178,-0.193787,0.960815
1472089171908455,-0.157593,0.120422,-0.193848,0.960754
1472089171926061,-0.157654,0.120667,-0.19397,0.960693
1472089171953150,-0.157532,0.120911,-0.19397,0.960693
1472089171968344,-0.15741,0.121216,-0.193909,0.960693
1472089171986340,-0.157471,0.121521,-0.193787,0.960632
1472089172007270,-0.157715,0.121826,-0.193726,0.960571
1472089172028420,-0.157349,0.122009,-0.193726,0.960632
1472089172046626,-0.156921,0.12207,-0.193542,0.960693
1472089172067282,-0.156799,0.122009,-0.193298,0.960815
1472089172087988,-0.156799,0.121887,-0.193237,0.960815
1472089172106066,-0.156921,0.121704,-0.193359,0.960815
1472089172135103,-0.15686,0.121521,-0.193481,0.960815
1472089172148647,-0.156982,0.121277,-0.193604,0.960815
1472089172166395,-0.157288,0.121033,-0.193665,0.960754
1472089172187134,-0.157532,0.121033,-0.193604,0.960754
1472089172210661,-0.157532,0.121033,-0.193604,0.960754
1472089172226307,-0.157532,0.121033,-0.193604,0.960754
1472089172248873,-0.157959,0.120911,-0.193726,0.960632
1472089172268305,-0.158325,0.120728,-0.193726,0.960632
1472089172286598,-0.158691,0.120667,-0.193665,0.960571
1472089172308758,-0.158936,0.120544,-0.193604,0.960571
1472089172328322,-0.160095,0.120483,-0.193542,0.960388
1472089172346375,-0.162903,0.120178,-0.192932,0.960083
1472089172369227,-0.166687,0.120056,-0.191772,0.959656
1472089172388324,-0.170532,0.120361,-0.190491,0.959229
1472089172406131,-0.172485,0.120117,-0.188049,0.959412
1472089172428778,-0.171753,0.120544,-0.184387,0.960144
1472089172448462,-0.170654,0.121948,-0.178162,0.961365
1472089172466166,-0.170654,0.12323,-0.168823,0.962891
1472089172488913,-0.171448,0.124023,-0.156982,0.964661
1472089172508510,-0.172485,0.12439,-0.142151,0.966736
1472089172526026,-0.173645,0.123962,-0.12439,0.968994
1472089172548562,-0.174622,0.12207,-0.105286,0.971313
1472089172568121,-0.173584,0.120239,-0.0856323,0.973694
1472089172591247,-0.171021,0.118713,-0.065979,0.97583
1472089172608786,-0.167236,0.117249,-0.0469971,0.977783
1472089172628359,-0.163086,0.115662,-0.0287476,0.97937
1472089172651060,-0.158997,0.11377,-0.0114746,0.980591
1472089172668131,-0.15564,0.110596,0.0043335,0.981567
1472089172688285,-0.1521,0.107178,0.0180054,0.982361
1472089172710968,-0.146606,0.10498,0.0296631,0.983154
1472089172728482,-0.140625,0.103882,0.0394897,0.983765
1472089172748500,-0.137024,0.103088,0.0474854,0.984009
1472089172771034,-0.135925,0.100647,0.0529785,0.984131
1472089172788516,-0.134216,0.0964966,0.0565796,0.984558
1472089172808578,-0.130737,0.0922241,0.0591431,0.985291
1472089172831231,-0.127014,0.0887451,0.0603638,0.986023
1472089172848741,-0.124329,0.0863037,0.0601807,0.986633
1472089172869856,-0.123291,0.0844727,0.0596313,0.986938
1472089172890744,-0.123047,0.0823364,0.059082,0.987183
1472089172908759,-0.121765,0.0799561,0.0582886,0.98761
1472089172929936,-0.119141,0.0778809,0.0571899,0.988159
1472089172950814,-0.116272,0.0754395,0.0557251,0.98877
1472089172968696,-0.113892,0.0727539,0.0539551,0.989319
1472089172991308,-0.111877,0.071167,0.0521851,0.989746
1472089173010963,-0.109497,0.071106,0.0507813,0.990112
1472089173028607,-0.107361,0.0720825,0.0497437,0.990295
1472089173049786,-0.106262,0.0733032,0.0490723,0.990417
1472089173070909,-0.105835,0.0743408,0.0487061,0.990356
1472089173088516,-0.105103,0.0756226,0.0485229,0.990356
1472089173117096,-0.103394,0.0772705,0.0482788,0.990417
1472089173130623,-0.101318,0.0787964,0.0480347,0.99054
1472089173148821,-0.0995483,0.0802002,0.0476074,0.990601
1472089173169811,-0.0980835,0.0812378,0.0473022,0.990723
1472089173190876,-0.0968018,0.0819702,0.046936,0.990784
1472089173208507,-0.09552,0.0825806,0.0467529,0.990845
1472089173231390,-0.0941162,0.083252,0.046814,0.990906
1472089173250926,-0.0930176,0.0837402,0.046936,0.990967
1472089173268514,-0.0921021,0.0839844,0.0469971,0.991028
1472089173291301,-0.0915527,0.0841675,0.0471802,0.991089
1472089173310889,-0.0908813,0.0845337,0.0473633,0.991089
1472089173328901,-0.09021,0.085083,0.0476685,0.991089
1472089173351069,-0.0898438,0.0858765,0.0479126,0.991028
1472089173371051,-0.09021,0.0864868,0.0481567,0.990967
1472089173388610,-0.0906372,0.086731,0.0482178,0.990906
1472089173411048,-0.0905762,0.0870361,0.0479736,0.990906
1472089173430866,-0.090332,0.0874023,0.0479126,0.990906
1472089173448868,-0.0900269,0.0875854,0.0480347,0.990906
1472089173470662,-0.0896606,0.0877686,0.0480957,0.990906
1472089173490908,-0.0895996,0.0880127,0.0480957,0.990906
1472089173508506,-0.0898438,0.0883179,0.0480957,0.990845
1472089173531222,-0.0903931,0.0886841,0.0480347,0.990784
1472089173551252,-0.0907593,0.0890503,0.0480957,0.990662
1472089173568829,-0.0907593,0.0891113,0.0480957,0.990662
1472089173591261,-0.0903931,0.0893555,0.0480957,0.990662
