timestamp,roll,pitch,yaw
1470344225608711,-0.33362,-0.171945,-1.43036
1470344225626727,-0.334016,-0.172247,-1.43019
1470344225648746,-0.334553,-0.172196,-1.43006
1470344225668770,-0.334553,-0.172196,-1.43006
1470344225686791,-0.334574,-0.172191,-1.43007
1470344225716819,-0.334514,-0.172453,-1.43005
1470344225729831,-0.334449,-0.172693,-1.42985
1470344225746845,-0.334829,-0.173024,-1.42984
1470344225769370,-0.335423,-0.173288,-1.42952
1470344225788888,-0.335458,-0.173609,-1.42932
1470344225806903,-0.335515,-0.173925,-1.42913
1470344225829424,-0.335976,-0.174164,-1.42914
1470344225848942,-0.335976,-0.174164,-1.42914
1470344225866958,-0.335976,-0.174164,-1.42914
1470344225889477,-0.336332,-0.1743,-1.42897
1470344225918003,-0.336412,-0.174209,-1.42898
1470344225927011,-0.336412,-0.174209,-1.42898
1470344225949531,-0.336412,-0.174209,-1.42898
1470344225970550,-0.336412,-0.174209,-1.42898
1470344225987065,-0.336333,-0.174123,-1.42899
1470344226009585,-0.336333,-0.174123,-1.42899
1470344226030104,-0.336333,-0.174123,-1.42899
1470344226047119,-0.335967,-0.173942,-1.42882
1470344226069139,-0.335923,-0.174177,-1.42863
1470344226090158,-0.335923,-0.174177,-1.42863
1470344226106673,-0.335923,-0.174177,-1.42863
1470344226129196,-0.336003,-0.174086,-1.42864
1470344226150218,-0.336003,-0.174086,-1.42864
1470344226166232,-0.336003,-0.174086,-1.42864
1470344226189254,-0.336003,-0.174086,-1.42864
1470344226210273,-0.336003,-0.174086,-1.42864
1470344226225290,-0.336003,-0.174086,-1.42864
1470344226248158,-0.335903,-0.174005,-1.42864
1470344226271179,-0.335983,-0.173914,-1.42865
1470344226285192,-0.335683,-0.174272,-1.42861
1470344226308213,-0.336081,-0.174573,-1.42844
1470344226331240,-0.338155,-0.175613,-1.42797
1470344226345258,-0.342092,-0.177557,-1.42718
1470344226368279,-0.347978,-0.181646,-1.42564
1470344226390303,-0.355762,-0.187884,-1.42233
1470344226406314,-0.363759,-0.193661,-1.41808
1470344226428340,-0.367838,-0.19892,-1.41361
1470344226450364,-0.366821,-0.20373,-1.4089
1470344226465377,-0.365423,-0.208222,-1.40372
1470344226488399,-0.368551,-0.214804,-1.39742
1470344226511421,-0.378776,-0.221681,-1.39063
1470344226533459,-0.395796,-0.22519,-1.37822
1470344226548479,-0.408125,-0.223602,-1.36058
1470344226570498,-0.426698,-0.212219,-1.32996
1470344226591519,-0.443901,-0.197531,-1.29339
1470344226608532,-0.456646,-0.182351,-1.24818
1470344226631060,-0.465751,-0.169378,-1.18993
1470344226651585,-0.478789,-0.158277,-1.11903
1470344226668600,-0.498058,-0.151006,-1.03489
1470344226690620,-0.518636,-0.150603,-0.941374
1470344226711640,-0.539648,-0.155471,-0.842353
1470344226728671,-0.562561,-0.162389,-0.739178
1470344226751189,-0.585957,-0.169975,-0.632566
1470344226772209,-0.612193,-0.180444,-0.52592
1470344226788222,-0.641758,-0.190574,-0.429164
1470344226818250,-0.66338,-0.196833,-0.345057
1470344226832262,-0.679942,-0.201278,-0.2697
1470344226847776,-0.695119,-0.205243,-0.205973
1470344226870797,-0.709365,-0.208441,-0.156534
1470344226891815,-0.713907,-0.22087,-0.129902
1470344226908830,-0.709082,-0.233689,-0.130531
1470344226930850,-0.697906,-0.238633,-0.157312
1470344226952370,-0.68943,-0.238272,-0.198504
1470344226983398,-0.683707,-0.231929,-0.252086
1470344226998412,-0.667622,-0.221386,-0.318606
1470344227011923,-0.648106,-0.206773,-0.396305
1470344227034944,-0.628202,-0.189203,-0.481082
1470344227050960,-0.608206,-0.169908,-0.571779
1470344227071976,-0.589813,-0.148743,-0.665352
1470344227088496,-0.572018,-0.125406,-0.75891
1470344227110515,-0.554393,-0.102754,-0.850039
1470344227131536,-0.53891,-0.0837836,-0.938152
1470344227147548,-0.526776,-0.0696563,-1.02431
1470344227171074,-0.515553,-0.0585029,-1.10725
1470344227191594,-0.504765,-0.050053,-1.18351
1470344227207610,-0.496541,-0.0470379,-1.25054
1470344227230630,-0.498344,-0.0513069,-1.3074
1470344227253651,-0.508386,-0.0596242,-1.35672
1470344227267668,-0.516036,-0.0690196,-1.39357
1470344227290637,-0.519162,-0.0813133,-1.41564
1470344227313657,-0.515553,-0.0968463,-1.42438
1470344227327676,-0.508702,-0.11674,-1.42307
1470344227350692,-0.501698,-0.13865,-1.41271
1470344227373762,-0.495891,-0.159354,-1.39373
1470344227387643,-0.494834,-0.179522,-1.36964
1470344227410664,-0.499541,-0.198239,-1.34524
1470344227433684,-0.507399,-0.213167,-1.32425
1470344227447709,-0.512164,-0.219187,-1.309
1470344227471237,-0.51426,-0.216708,-1.2992
1470344227492759,-0.513955,-0.211108,-1.29454
1470344227514780,-0.513515,-0.204315,-1.29332
1470344227530793,-0.514319,-0.197488,-1.29438
1470344227553815,-0.514255,-0.190241,-1.29803
1470344227574841,-0.511562,-0.183083,-1.30449
1470344227590858,-0.505916,-0.176125,-1.31302
1470344227612877,-0.49975,-0.170338,-1.32288
1470344227633897,-0.496187,-0.165862,-1.33262
1470344227650912,-0.494114,-0.163081,-1.34224
1470344227673438,-0.491441,-0.161172,-1.35114
1470344227693964,-0.486844,-0.159818,-1.3599
1470344227710978,-0.477034,-0.159091,-1.36808
1470344227732998,-0.469602,-0.160756,-1.37533
1470344227754016,-0.470525,-0.164462,-1.37927
1470344227771050,-0.468347,-0.169376,-1.38083
1470344227793077,-0.46076,-0.172651,-1.38009
1470344227814098,-0.451851,-0.174992,-1.37992
1470344227831114,-0.447694,-0.178477,-1.38011
1470344227853131,-0.447266,-0.183621,-1.37977
1470344227874656,-0.44771,-0.189088,-1.37747
1470344227891171,-0.447806,-0.194555,-1.37467
1470344227913691,-0.446175,-0.200057,-1.37304
1470344227934214,-0.443126,-0.206707,-1.37331
1470344227951230,-0.439877,-0.214366,-1.37529
1470344227973250,-0.437412,-0.218743,-1.37899
1470344227994269,-0.431764,-0.214509,-1.38163
1470344228011284,-0.42288,-0.209703,-1.38343
1470344228033317,-0.42176,-0.207606,-1.38545
1470344228054337,-0.425026,-0.205147,-1.38636
1470344228070350,-0.42059,-0.201936,-1.38743
1470344228093371,-0.410182,-0.198594,-1.38889
1470344228114389,-0.402767,-0.195594,-1.38955
1470344228130412,-0.399976,-0.193781,-1.38974
1470344228153437,-0.399141,-0.193598,-1.38987
1470344228175455,-0.397579,-0.193477,-1.38961
1470344228190468,-0.394423,-0.193052,-1.38943
1470344228213489,-0.390478,-0.192847,-1.38967
1470344228235518,-0.38697,-0.192642,-1.38913
1470344228250532,-0.383514,-0.192,-1.38865
1470344228273552,-0.379869,-0.191,-1.38852
1470344228295572,-0.376486,-0.189728,-1.38893
1470344228310585,-0.373333,-0.188584,-1.38919
1470344228333617,-0.370269,-0.18755,-1.38961
1470344228355636,-0.368048,-0.186643,-1.38957
1470344228369649,-0.366272,-0.185796,-1.38955
1470344228393674,-0.365237,-0.185455,-1.38968
1470344228415690,-0.364493,-0.185206,-1.39001
1470344228430208,-0.364493,-0.185206,-1.39001
1470344228453734,-0.365682,-0.184731,-1.38979
1470344228475753,-0.366579,-0.184269,-1.39006
1470344228489765,-0.366388,-0.18373,-1.39044
1470344228513787,-0.366251,-0.182927,-1.39085
1470344228535484,-0.365789,-0.182547,-1.39152
1470344228550498,-0.36625,-0.181878,-1.39245
1470344228579524,-0.367489,-0.181049,-1.39329
1470344228595539,-0.368407,-0.180387,-1.39391
1470344228610553,-0.368367,-0.179897,-1.39462
1470344228633649,-0.368742,-0.179554,-1.39585
1470344228655669,-0.369852,-0.179084,-1.39664
1470344228676688,-0.370598,-0.178638,-1.3974
1470344228693704,-0.370901,-0.178132,-1.39813
1470344228715724,-0.371245,-0.177766,-1.39869
1470344228737251,-0.371652,-0.17734,-1.39943
1470344228753267,-0.372551,-0.177319,-1.40016
1470344228776287,-0.373832,-0.177245,-1.40077
1470344228797305,-0.375174,-0.177007,-1.40088
1470344228813321,-0.376187,-0.176835,-1.40131
1470344228835947,-0.376187,-0.176835,-1.40131
1470344228856967,-0.376187,-0.176835,-1.40131
1470344228872981,-0.376352,-0.176854,-1.40149
1470344228896004,-0.37686,-0.176857,-1.40169
1470344228917019,-0.377409,-0.177179,-1.40168
1470344228933041,-0.378146,-0.177513,-1.40187
1470344228956308,-0.378679,-0.177865,-1.40203
1470344228977327,-0.378598,-0.177779,-1.40204
1470344228993342,-0.379251,-0.17818,-1.40204
1470344229015362,-0.379768,-0.178757,-1.40201
1470344229036388,-0.379847,-0.178666,-1.40203
1470344229053404,-0.379847,-0.178666,-1.40203
1470344229075423,-0.380531,-0.178633,-1.40208
1470344229098445,-0.380531,-0.178633,-1.40208
1470344229113461,-0.380531,-0.178633,-1.40208
1470344229135492,-0.380601,-0.178776,-1.4024
1470344229158512,-0.380939,-0.17902,-1.4029
1470344229173526,-0.381437,-0.179259,-1.4034
1470344229203553,-0.381593,-0.179514,-1.40388
1470344229218574,-0.381378,-0.179766,-1.40415
1470344229233586,-0.38093,-0.18014,-1.40457
1470344229255613,-0.380953,-0.180133,-1.40459
1470344229278634,-0.380796,-0.180494,-1.40452
1470344229292645,-0.380399,-0.180772,-1.40446
1470344229315667,-0.380399,-0.180772,-1.40446
1470344229338301,-0.380081,-0.180959,-1.40442
1470344229352314,-0.380081,-0.180959,-1.40442
1470344229375335,-0.380081,-0.180959,-1.40442
1470344229398355,-0.380081,-0.180959,-1.40442
1470344229419380,-0.380081,-0.180959,-1.40442
1470344229436899,-0.380081,-0.180959,-1.40442
1470344229457918,-0.38016,-0.180868,-1.40444
1470344229472932,-0.38016,-0.180868,-1.40444
1470344229495952,-0.380057,-0.180788,-1.40444
1470344229518481,-0.380057,-0.180788,-1.40444
1470344229532994,-0.380057,-0.180788,-1.40444
1470344229556022,-0.380057,-0.180788,-1.40444
1470344229586048,-0.379953,-0.180708,-1.40444
1470344229592052,-0.380033,-0.180617,-1.40446
1470344229616074,-0.380033,-0.180617,-1.40446
1470344229638747,-0.379588,-0.180552,-1.40443
1470344229659765,-0.379166,-0.18066,-1.40439
1470344229675780,-0.379063,-0.18058,-1.40439
1470344229698801,-0.379063,-0.18058,-1.40439
1470344229719827,-0.379086,-0.180573,-1.4044
1470344229736346,-0.379166,-0.180482,-1.40442
1470344229758367,-0.378446,-0.180293,-1.40404
1470344229779386,-0.378525,-0.180201,-1.40406
1470344229795398,-0.378525,-0.180201,-1.40406
1470344229818418,-0.3773,-0.179394,-1.40307
1470344229839445,-0.376818,-0.179035,-1.40142
1470344229855462,-0.377529,-0.17893,-1.40066
1470344229878482,-0.377529,-0.17893,-1.40066
1470344229899501,-0.377347,-0.178942,-1.40064
1470344229915514,-0.376727,-0.179093,-1.40075
1470344229938545,-0.376727,-0.179093,-1.40075
1470344229959563,-0.377465,-0.179427,-1.40093
1470344229975580,-0.378013,-0.17957,-1.40096
1470344229998599,-0.378372,-0.179522,-1.40082
1470344230019621,-0.378934,-0.179263,-1.40106
1470344230035639,-0.379416,-0.178917,-1.4013
1470344230058660,-0.380721,-0.178296,-1.40081
1470344230080679,-0.382113,-0.177608,-1.4005
1470344230095694,-0.383586,-0.176568,-1.39974
1470344230118714,-0.3854,-0.175511,-1.39901
1470344230140744,-0.386513,-0.174957,-1.39884
1470344230155758,-0.388574,-0.175075,-1.39882
1470344230178779,-0.389722,-0.175251,-1.39871
1470344230200798,-0.390451,-0.174396,-1.39872
1470344230214811,-0.391483,-0.173566,-1.3989
1470344230237841,-0.393559,-0.172844,-1.39867
1470344230260863,-0.398231,-0.173199,-1.39852
1470344230274876,-0.401905,-0.173687,-1.39777
1470344230297896,-0.402089,-0.174118,-1.3964
1470344230320920,-0.398598,-0.174065,-1.39578
1470344230334934,-0.394311,-0.174027,-1.39544
1470344230357959,-0.392482,-0.173981,-1.39497
1470344230380980,-0.392962,-0.173717,-1.3942
1470344230394994,-0.395137,-0.173233,-1.39346
1470344230418014,-0.396618,-0.172568,-1.39284
1470344230441047,-0.396628,-0.17155,-1.39264
1470344230455059,-0.395358,-0.17018,-1.39338
1470344230478081,-0.396346,-0.169032,-1.39378
1470344230501101,-0.398994,-0.167989,-1.39348
1470344230515114,-0.400615,-0.166996,-1.39309
1470344230538145,-0.400977,-0.165902,-1.3926
1470344230561167,-0.399304,-0.164712,-1.3923
1470344230582185,-0.398344,-0.16384,-1.39199
1470344230598201,-0.400171,-0.163004,-1.39162
1470344230621229,-0.402598,-0.162303,-1.39027
1470344230642252,-0.401711,-0.161941,-1.38991
1470344230658267,-0.40005,-0.160177,-1.38985
1470344230681287,-0.401098,-0.159677,-1.38952
1470344230702307,-0.403913,-0.159975,-1.3889
1470344230719322,-0.405718,-0.159509,-1.38815
1470344230741351,-0.40709,-0.158583,-1.38758
1470344230762370,-0.409437,-0.158051,-1.38673
1470344230778384,-0.411306,-0.157439,-1.38566
1470344230800403,-0.410838,-0.157069,-1.38452
1470344230823431,-0.408295,-0.156476,-1.38371
1470344230838452,-0.405744,-0.15586,-1.38273
1470344230860471,-0.404188,-0.155683,-1.38212
1470344230882490,-0.404978,-0.15513,-1.38196
1470344230898506,-0.406959,-0.154697,-1.38187
1470344230921030,-0.409506,-0.154369,-1.38166
1470344230941554,-0.411544,-0.154037,-1.38125
1470344230958569,-0.412565,-0.153362,-1.38095
1470344230980589,-0.4114,-0.152725,-1.38044
1470344230986594,-0.408288,-0.152534,-1.38051
1470344231008614,-0.405998,-0.152132,-1.38067
1470344231024133,-0.40579,-0.151975,-1.38067
1470344231046657,-0.406767,-0.151766,-1.38047
1470344231068677,-0.406767,-0.151766,-1.38047
1470344231083691,-0.406265,-0.151789,-1.38043
1470344231106711,-0.405602,-0.151547,-1.38022
1470344231129240,-0.405602,-0.151547,-1.38022
1470344231143762,-0.40617,-0.15105,-1.38018
1470344231165781,-0.40617,-0.15105,-1.38018
1470344231188802,-0.405642,-0.150903,-1.38016
1470344231204816,-0.404503,-0.150075,-1.38001
1470344231226341,-0.404399,-0.149996,-1.38
1470344231248867,-0.404399,-0.149996,-1.38
1470344231263884,-0.404814,-0.149445,-1.37963
1470344231285900,-0.405002,-0.148414,-1.37948
1470344231308920,-0.40437,-0.147325,-1.37908
1470344231323938,-0.404585,-0.146144,-1.37812
1470344231345964,-0.404974,-0.145422,-1.37777
1470344231368984,-0.405675,-0.144935,-1.37743
1470344231383997,-0.406125,-0.144757,-1.37717
1470344231406017,-0.406503,-0.144612,-1.37657
1470344231429044,-0.406607,-0.14469,-1.37657
1470344231444063,-0.406607,-0.14469,-1.37657
1470344231474090,-0.406582,-0.14452,-1.37659
1470344231489103,-0.406582,-0.14452,-1.37659
1470344231504116,-0.406582,-0.14452,-1.37659
1470344231526641,-0.406604,-0.144511,-1.3766
1470344231549165,-0.406683,-0.144419,-1.37663
1470344231565181,-0.406683,-0.144419,-1.37663
1470344231586200,-0.406675,-0.144394,-1.37646
1470344231609220,-0.406754,-0.144302,-1.37648
1470344231625240,-0.407268,-0.144066,-1.3764
1470344231646265,-0.408387,-0.143704,-1.37641
1470344231668286,-0.408775,-0.143399,-1.37631
1470344231691307,-0.408854,-0.143307,-1.37634
1470344231706319,-0.408854,-0.143307,-1.37634
1470344231728849,-0.408854,-0.143307,-1.37634
1470344231745370,-0.408829,-0.143137,-1.37636
1470344231766389,-0.408851,-0.143128,-1.37637
1470344231788407,-0.408851,-0.143128,-1.37637
1470344231805423,-0.40893,-0.143036,-1.37639
1470344231826448,-0.40893,-0.143036,-1.37639
1470344231848473,-0.409605,-0.142795,-1.37633
1470344231865487,-0.410552,-0.142651,-1.37645
1470344231886505,-0.411078,-0.142619,-1.3765
1470344231908524,-0.411078,-0.142619,-1.3765
1470344231925546,-0.410974,-0.142541,-1.3765
1470344231946571,-0.410974,-0.142541,-1.3765
1470344231968590,-0.410972,-0.142362,-1.37654
1470344231986606,-0.411664,-0.142265,-1.37628
1470344232006624,-0.412333,-0.142446,-1.37617
1470344232029149,-0.412437,-0.142524,-1.37617
1470344232046670,-0.41181,-0.14224,-1.37582
1470344232066687,-0.411706,-0.142163,-1.37582
1470344232088707,-0.412444,-0.142047,-1.37559
1470344232106724,-0.412514,-0.14193,-1.37544
1470344232126748,-0.41304,-0.141898,-1.3755
1470344232148773,-0.41387,-0.142073,-1.3754
1470344232166789,-0.414571,-0.142001,-1.37531
1470344232185808,-0.414571,-0.142001,-1.37531
1470344232208828,-0.414832,-0.141895,-1.37536
1470344232226849,-0.415322,-0.141489,-1.37531
1470344232245870,-0.416364,-0.141219,-1.3753
1470344232268889,-0.417422,-0.141094,-1.3751
1470344232286906,-0.417501,-0.141002,-1.37512
1470344232305922,-0.417501,-0.141002,-1.37512
1470344232328949,-0.418199,-0.140751,-1.37507
1470344232346971,-0.419154,-0.140549,-1.37487
1470344232365988,-0.419599,-0.140428,-1.37495
1470344232389008,-0.419495,-0.140351,-1.37495
1470344232408027,-0.419574,-0.140259,-1.37497
1470344232426551,-0.419574,-0.140259,-1.37497
1470344232449079,-0.419644,-0.140142,-1.37482
1470344232467093,-0.419644,-0.140142,-1.37482
1470344232488111,-0.419644,-0.140142,-1.37482
1470344232509129,-0.419722,-0.14005,-1.37485
1470344232534658,-0.419722,-0.14005,-1.37485
1470344232547172,-0.419801,-0.139958,-1.37487
1470344232569192,-0.419801,-0.139958,-1.37487
1470344232586207,-0.419697,-0.139881,-1.37487
1470344232607227,-0.419697,-0.139881,-1.37487
1470344232629255,-0.419711,-0.139846,-1.37471
1470344232646276,-0.419711,-0.139846,-1.37471
1470344232667294,-0.419711,-0.139846,-1.37471
1470344232689313,-0.419286,-0.139777,-1.37469
1470344232706330,-0.419286,-0.139777,-1.37469
1470344232727855,-0.419286,-0.139777,-1.37469
1470344232748379,-0.419286,-0.139777,-1.37469
1470344232767396,-0.419356,-0.13966,-1.37454
1470344232787413,-0.419356,-0.13966,-1.37454
1470344232808432,-0.419435,-0.139568,-1.37457
1470344232826955,-0.419435,-0.139568,-1.37457
1470344232847480,-0.419514,-0.139476,-1.37459
1470344232868498,-0.419514,-0.139476,-1.37459
1470344232886515,-0.419858,-0.139458,-1.37463
1470344232909535,-0.420593,-0.13958,-1.3747
1470344232936563,-0.420568,-0.139411,-1.37472
1470344232946578,-0.420568,-0.139411,-1.37472
1470344232969598,-0.420568,-0.139411,-1.37472
1470344232988616,-0.420463,-0.139333,-1.37472
1470344233006633,-0.420542,-0.139241,-1.37474
1470344233029658,-0.420542,-0.139241,-1.37474
1470344233048681,-0.420533,-0.139216,-1.37457
1470344233072702,-0.420533,-0.139216,-1.37457
1470344233088716,-0.420612,-0.139124,-1.37459
1470344233108734,-0.420612,-0.139124,-1.37459
1470344233126754,-0.420587,-0.138955,-1.37462
1470344233149308,-0.420587,-0.138955,-1.37462
1470344233168324,-0.420587,-0.138955,-1.37462
1470344233185339,-0.420666,-0.138863,-1.37464
1470344233208361,-0.420666,-0.138863,-1.37464
1470344233229885,-0.420768,-0.138761,-1.37468
1470344233245903,-0.421469,-0.13869,-1.3746
1470344233268925,-0.421548,-0.138598,-1.37462
1470344233289943,-0.421548,-0.138598,-1.37462
1470344233305958,-0.421618,-0.138481,-1.37448
1470344233328984,-0.421297,-0.138908,-1.37471
1470344233349574,-0.421202,-0.138856,-1.37487
1470344233365586,-0.421401,-0.138986,-1.37471
1470344233388608,-0.421401,-0.138986,-1.37471
1470344233409627,-0.421297,-0.138908,-1.37471
1470344233426146,-0.421297,-0.138908,-1.37471
1470344233448168,-0.421376,-0.138816,-1.37473
1470344233469187,-0.421376,-0.138816,-1.37473
1470344233486205,-0.421376,-0.138816,-1.37473
1470344233508222,-0.421271,-0.138739,-1.37473
1470344233529747,-0.42135,-0.138647,-1.37475
1470344233546265,-0.421026,-0.13857,-1.37423
1470344233568284,-0.420358,-0.138512,-1.37368
1470344233589303,-0.419698,-0.13848,-1.3733
1470344233606319,-0.41958,-0.138798,-1.37307
1470344233628845,-0.419369,-0.139243,-1.37298
1470344233649368,-0.41813,-0.139145,-1.37286
1470344233666382,-0.417514,-0.139066,-1.37264
1470344233688404,-0.417514,-0.139066,-1.37264
1470344233709421,-0.417488,-0.138896,-1.37267
1470344233726441,-0.417567,-0.138804,-1.37269
1470344233748468,-0.417646,-0.138712,-1.37271
1470344233769487,-0.417144,-0.138554,-1.37301
1470344233785500,-0.417144,-0.138554,-1.37301
1470344233808521,-0.41704,-0.138476,-1.37301
1470344233830046,-0.416489,-0.138701,-1.37259
1470344233845568,-0.416426,-0.13852,-1.37212
1470344233868588,-0.417155,-0.138378,-1.37173
1470344233890611,-0.417234,-0.138286,-1.37175
1470344233905621,-0.417338,-0.138363,-1.37175
1470344233928657,-0.416603,-0.138242,-1.37169
1470344233950682,-0.415735,-0.137277,-1.37143
1470344233965695,-0.415707,-0.135225,-1.37092
1470344233988717,-0.416072,-0.132713,-1.37054
1470344234010736,-0.417104,-0.13176,-1.36983
1470344234025258,-0.416699,-0.133157,-1.36907
1470344234048796,-0.414828,-0.133981,-1.36842
1470344234070815,-0.411578,-0.133774,-1.36859
1470344234084840,-0.411365,-0.133678,-1.36892
1470344234108851,-0.414446,-0.133504,-1.36894
1470344234131377,-0.418393,-0.134354,-1.36955
1470344234144898,-0.416685,-0.135551,-1.37032
1470344234167919,-0.413598,-0.1362,-1.37087
1470344234190937,-0.410743,-0.132755,-1.36981
1470344234212958,-0.410532,-0.132421,-1.36985
1470344234228977,-0.412747,-0.133261,-1.36961
1470344234251000,-0.412825,-0.133169,-1.36963
1470344234265012,-0.411048,-0.133505,-1.36923
1470344234288033,-0.410616,-0.134556,-1.36854
1470344234311054,-0.412451,-0.136367,-1.36731
1470344234326071,-0.413524,-0.138002,-1.36699
1470344234348694,-0.412733,-0.138525,-1.36798
1470344234370714,-0.41158,-0.137678,-1.36766
1470344234391734,-0.414609,-0.136745,-1.36747
1470344234408749,-0.416339,-0.136572,-1.36866
1470344234431274,-0.414049,-0.137524,-1.36974
1470344234452296,-0.412565,-0.13612,-1.36964
1470344234468310,-0.412679,-0.134282,-1.36896
1470344234491331,-0.413248,-0.135704,-1.36831
1470344234512351,-0.41349,-0.135731,-1.36768
1470344234528369,-0.413464,-0.135561,-1.3677
1470344234551131,-0.413314,-0.136009,-1.36811
1470344234572151,-0.414268,-0.135564,-1.36762
1470344234588163,-0.415243,-0.135348,-1.36743
1470344234611185,-0.415728,-0.135779,-1.36758
1470344234632208,-0.416205,-0.136185,-1.36756
1470344234648226,-0.416126,-0.136277,-1.36753
1470344234671247,-0.416835,-0.136228,-1.36762
1470344234692265,-0.417788,-0.136021,-1.36742
1470344234708280,-0.418856,-0.135678,-1.36711
1470344234731306,-0.419623,-0.135307,-1.36692
1470344234752329,-0.419623,-0.135307,-1.36692
1470344234768346,-0.419623,-0.135307,-1.36692
1470344234791364,-0.419692,-0.134772,-1.36652
1470344234813389,-0.420182,-0.134124,-1.36619
1470344234828903,-0.420182,-0.134124,-1.36619
1470344234851274,-0.419945,-0.133382,-1.36596
1470344234881300,-0.419777,-0.132762,-1.36587
1470344234888305,-0.419204,-0.131943,-1.36644
1470344234911327,-0.418469,-0.130444,-1.3666
1470344234933850,-0.417838,-0.129623,-1.36666
1470344234947365,-0.41719,-0.128656,-1.36692
1470344234971387,-0.417024,-0.127675,-1.36721
1470344234993408,-0.417024,-0.127675,-1.36721
1470344235007420,-0.417613,-0.127403,-1.36749
1470344235030948,-0.41933,-0.127305,-1.36768
1470344235053471,-0.421304,-0.127281,-1.36759
1470344235067485,-0.421975,-0.127219,-1.36719
1470344235090505,-0.421569,-0.127475,-1.36693
1470344235113528,-0.420847,-0.12732,-1.36671
1470344235128042,-0.421109,-0.127213,-1.36676
1470344235150566,-0.422057,-0.127067,-1.36689
1470344235173587,-0.423272,-0.126753,-1.36675
1470344235187600,-0.423351,-0.126661,-1.36678
1470344235210621,-0.422351,-0.126469,-1.36669
1470344235233648,-0.421559,-0.126671,-1.3669
1470344235247582,-0.421559,-0.126671,-1.3669
1470344235270602,-0.421628,-0.126554,-1.36675
1470344235293619,-0.421732,-0.126631,-1.36676
1470344235314655,-0.421137,-0.126543,-1.36655
1470344235331171,-0.420364,-0.126051,-1.36637
1470344235353710,-0.420708,-0.125013,-1.36626
1470344235374743,-0.421699,-0.124701,-1.3656
1470344235390743,-0.4207,-0.12451,-1.36552
1470344235413764,-0.418684,-0.124222,-1.36583
1470344235434804,-0.418063,-0.124443,-1.36621
1470344235454817,-0.418258,-0.124632,-1.36637
1470344235473832,-0.418457,-0.124761,-1.36621
1470344235494850,-0.418417,-0.124988,-1.36601
1470344235510866,-0.418312,-0.124911,-1.366
1470344235533890,-0.418312,-0.124911,-1.366
1470344235554913,-0.419164,-0.125072,-1.36592
1470344235570926,-0.419243,-0.12498,-1.36595
1470344235592946,-0.41889,-0.124975,-1.36574
1470344235614967,-0.41818,-0.125265,-1.36593
1470344235630986,-0.418546,-0.125234,-1.36598
1470344235653010,-0.419366,-0.125381,-1.36572
1470344235674029,-0.419445,-0.125289,-1.36574
1470344235691045,-0.419115,-0.125274,-1.36555
1470344235714065,-0.419115,-0.125274,-1.36555
1470344235734591,-0.418626,-0.125683,-1.36559
1470344235751110,-0.418378,-0.125755,-1.36539
1470344235773129,-0.418507,-0.126001,-1.36537
1470344235802155,-0.418798,-0.126243,-1.36536
1470344235811164,-0.418798,-0.126243,-1.36536
1470344235833690,-0.418798,-0.126243,-1.36536
1470344235856216,-0.418798,-0.126243,-1.36536
1470344235871230,-0.418876,-0.126151,-1.36538
1470344235893249,-0.418389,-0.12632,-1.36514
1470344235916270,-0.417928,-0.126298,-1.36525
1470344235930288,-0.417824,-0.126221,-1.36525
1470344235953837,-0.417903,-0.126129,-1.36527
1470344235975857,-0.417902,-0.126368,-1.36556
1470344235989867,-0.417793,-0.126588,-1.36617
1470344236013889,-0.417911,-0.126508,-1.36668
1470344236035913,-0.41849,-0.126451,-1.36708
1470344236050431,-0.419082,-0.126359,-1.36732
1470344236073451,-0.419186,-0.126436,-1.36732
1470344236096474,-0.418287,-0.126381,-1.36757
1470344236110485,-0.418262,-0.126211,-1.36759
1470344236133525,-0.418461,-0.126341,-1.36742
1470344236155467,-0.418461,-0.126341,-1.36742
1470344236170482,-0.418,-0.126318,-1.36754
1470344236193503,-0.418,-0.126318,-1.36754
1470344236215521,-0.418,-0.126318,-1.36754
1470344236230539,-0.418055,-0.126359,-1.36688
1470344236253565,-0.417685,-0.126571,-1.36649
1470344236275584,-0.41508,-0.126136,-1.36627
1470344236296605,-0.412942,-0.12597,-1.36492
1470344236313621,-0.413263,-0.12597,-1.36333
1470344236336144,-0.415332,-0.126535,-1.36265
1470344236356668,-0.416993,-0.127893,-1.3626
1470344236373684,-0.420901,-0.130759,-1.36274
1470344236395705,-0.427814,-0.135285,-1.36258
1470344236416727,-0.437651,-0.140133,-1.36271
1470344236433752,-0.447183,-0.144125,-1.36114
1470344236455777,-0.455584,-0.147858,-1.35916
1470344236476796,-0.467793,-0.153672,-1.35332
1470344236493812,-0.486391,-0.165549,-1.34611
1470344236515831,-0.498354,-0.174359,-1.33355
1470344236537356,-0.493055,-0.178913,-1.31287
1470344236553875,-0.488902,-0.177389,-1.2768
1470344236575895,-0.491277,-0.174928,-1.23293
1470344236596914,-0.500406,-0.173626,-1.18346
1470344236612930,-0.511636,-0.171883,-1.12831
1470344236635955,-0.527012,-0.169912,-1.07263
1470344236656980,-0.539929,-0.169542,-1.01886
1470344236672993,-0.550345,-0.171553,-0.969215
1470344236696014,-0.559077,-0.173166,-0.925137
1470344236718034,-0.564159,-0.171884,-0.886657
1470344236733065,-0.570551,-0.173124,-0.853932
1470344236756103,-0.578038,-0.174689,-0.827943
1470344236778121,-0.586912,-0.174776,-0.8087
1470344236801143,-0.592497,-0.17359,-0.796178
1470344236816155,-0.594397,-0.173026,-0.789915
1470344236838679,-0.595449,-0.174762,-0.787259
1470344236861205,-0.596454,-0.178191,-0.786359
1470344236876217,-0.592009,-0.182398,-0.786328
1470344236898237,-0.581726,-0.186143,-0.786814
1470344236913250,-0.572969,-0.188432,-0.787053
1470344236936274,-0.57141,-0.18748,-0.787143
1470344236958300,-0.573983,-0.181651,-0.787599
1470344236979318,-0.576333,-0.175852,-0.789343
1470344236996334,-0.572329,-0.173791,-0.795876
1470344237018353,-0.566342,-0.170583,-0.806862
1470344237039877,-0.558238,-0.16417,-0.822191
1470344237056397,-0.546872,-0.156159,-0.84392
1470344237078418,-0.532709,-0.145739,-0.874083
1470344237099436,-0.51452,-0.132903,-0.911486
1470344237115450,-0.494254,-0.120152,-0.953831
1470344237138477,-0.480893,-0.115905,-1.00022
1470344237159499,-0.475216,-0.115144,-1.04957
1470344237175512,-0.474011,-0.115471,-1.09901
1470344237198533,-0.476835,-0.117299,-1.14703
1470344237219553,-0.480684,-0.119924,-1.19202
1470344237236072,-0.477099,-0.12366,-1.23372
1470344237258153,-0.465347,-0.131341,-1.27064
1470344237279174,-0.456173,-0.144404,-1.30349
1470344237296188,-0.45,-0.158823,-1.33029
1470344237318207,-0.448147,-0.172415,-1.34689
1470344237339732,-0.456402,-0.181977,-1.35139
1470344237355750,-0.462207,-0.193831,-1.35084
1470344237378772,-0.456889,-0.204064,-1.35074
1470344237399790,-0.446022,-0.207961,-1.35024
1470344237415805,-0.429821,-0.208261,-1.35178
1470344237438831,-0.416004,-0.207871,-1.35136
1470344237459854,-0.41003,-0.210435,-1.34853
1470344237475871,-0.407865,-0.215565,-1.3445
1470344237498890,-0.407202,-0.21958,-1.3391
1470344237519908,-0.406305,-0.222198,-1.33644
1470344237535927,-0.405605,-0.223447,-1.3356
1470344237557950,-0.402307,-0.221005,-1.33525
1470344237579974,-0.399484,-0.219034,-1.33614
1470344237595985,-0.400301,-0.217688,-1.33749
1470344237618005,-0.399766,-0.215019,-1.33729
1470344237641031,-0.391977,-0.210554,-1.33902
1470344237655048,-0.386338,-0.208264,-1.34257
1470344237678068,-0.387956,-0.208803,-1.34438
1470344237701090,-0.393372,-0.20979,-1.34471
1470344237715102,-0.398607,-0.209981,-1.34498
1470344237738629,-0.400502,-0.209927,-1.34607
1470344237761154,-0.399069,-0.209788,-1.34748
1470344237776168,-0.398509,-0.209922,-1.34793
1470344237798189,-0.400442,-0.210316,-1.34718
1470344237821210,-0.402051,-0.210675,-1.34608
1470344237835732,-0.40101,-0.21131,-1.3456
1470344237858258,-0.398446,-0.212126,-1.34587
1470344237881278,-0.395992,-0.212591,-1.34665
1470344237895292,-0.393988,-0.213335,-1.34728
1470344237918311,-0.392301,-0.213478,-1.34863
1470344237941336,-0.389169,-0.213849,-1.35054
1470344237946346,-0.387652,-0.214847,-1.35231
1470344237962360,-0.388669,-0.215471,-1.35327
1470344237983378,-0.388143,-0.216011,-1.35449
1470344238006399,-0.384492,-0.214516,-1.35578
1470344238022415,-0.383058,-0.21352,-1.35696
1470344238043446,-0.386393,-0.213909,-1.35774
1470344238066468,-0.390774,-0.213379,-1.35836
1470344238082482,-0.395053,-0.212713,-1.35817
1470344238103501,-0.395904,-0.212646,-1.35774
1470344238126522,-0.394263,-0.21306,-1.35776
1470344238142541,-0.392629,-0.211639,-1.358
1470344238163565,-0.39426,-0.210205,-1.35777
1470344238186587,-0.398192,-0.207461,-1.35685
1470344238202600,-0.400758,-0.204916,-1.35732
1470344238223621,-0.401498,-0.20403,-1.35812
1470344238246656,-0.402015,-0.201337,-1.35784
1470344238262668,-0.398569,-0.197332,-1.35631
1470344238283685,-0.396279,-0.192078,-1.35438
1470344238306706,-0.394423,-0.185475,-1.35295
1470344238322721,-0.393328,-0.179399,-1.35187
1470344238343749,-0.394906,-0.176217,-1.34996
1470344238366768,-0.397676,-0.177911,-1.3462
1470344238382783,-0.396925,-0.184098,-1.34274
1470344238403802,-0.392544,-0.192726,-1.3399
1470344238425822,-0.388169,-0.202541,-1.33815
1470344238444371,-0.384108,-0.211454,-1.33836
1470344238465390,-0.380038,-0.214767,-1.34123
1470344238489413,-0.377089,-0.212648,-1.34326
1470344238504425,-0.377341,-0.209506,-1.34474
1470344238523443,-0.381895,-0.207552,-1.34617
1470344238545972,-0.384977,-0.204595,-1.34812
1470344238563988,-0.382013,-0.201341,-1.35077
1470344238584006,-0.377816,-0.197804,-1.3537
1470344238606025,-0.375655,-0.194187,-1.35628
1470344238624040,-0.375015,-0.191622,-1.35798
1470344238644071,-0.373608,-0.189226,-1.35932
1470344238666091,-0.371874,-0.186773,-1.36015
1470344238684108,-0.371115,-0.185346,-1.36076
1470344238704128,-0.368513,-0.184733,-1.36099
1470344238726145,-0.363398,-0.184603,-1.36071
1470344238744179,-0.360301,-0.184177,-1.36026
1470344238764197,-0.359508,-0.184101,-1.35941
1470344238789216,-0.356284,-0.183861,-1.35942
1470344238804230,-0.351716,-0.182504,-1.3595
1470344238824248,-0.348568,-0.18098,-1.35981
1470344238846280,-0.346942,-0.180382,-1.3601
1470344238864292,-0.345231,-0.179951,-1.36087
1470344238884310,-0.342566,-0.1791,-1.3618
1470344238906331,-0.341966,-0.178627,-1.36181
1470344238924350,-0.339879,-0.178166,-1.36111
1470344238943950,-0.338683,-0.177402,-1.36064
1470344238965968,-0.340447,-0.177433,-1.36073
1470344238983984,-0.343633,-0.178512,-1.36093
1470344239004020,-0.34451,-0.179275,-1.36124
1470344239026032,-0.343449,-0.179362,-1.36116
1470344239044285,-0.341414,-0.17949,-1.36137
1470344239064304,-0.342209,-0.179739,-1.36172
1470344239086323,-0.345447,-0.180555,-1.36195
1470344239104339,-0.347378,-0.18103,-1.36266
1470344239124357,-0.347482,-0.181108,-1.36266
1470344239146901,-0.347142,-0.181134,-1.36264
1470344239163915,-0.345409,-0.181291,-1.36318
1470344239183936,-0.344003,-0.181473,-1.36406
1470344239206952,-0.345219,-0.182057,-1.36505
1470344239223968,-0.34691,-0.182615,-1.36556
1470344239245167,-0.348221,-0.182803,-1.36577
1470344239266103,-0.348414,-0.182736,-1.36545
1470344239284118,-0.348161,-0.182439,-1.36515
1470344239305152,-0.348323,-0.182024,-1.36488
1470344239326155,-0.349421,-0.181451,-1.36467
1470344239343678,-0.351351,-0.181073,-1.3645
1470344239365210,-0.353105,-0.180886,-1.36428
1470344239386229,-0.354037,-0.180551,-1.36437
1470344239405228,-0.355069,-0.180271,-1.3643
1470344239425245,-0.356713,-0.179653,-1.36461
1470344239446294,-0.358908,-0.178761,-1.36468
1470344239464312,-0.361221,-0.177893,-1.36442
1470344239485328,-0.361114,-0.177384,-1.36398
1470344239506347,-0.358925,-0.176273,-1.36414
1470344239524365,-0.358099,-0.175519,-1.3645
1470344239546932,-0.358277,-0.174898,-1.36458
1470344239565945,-0.358351,-0.174198,-1.36465
1470344239583961,-0.358247,-0.173791,-1.36535
1470344239606982,-0.357785,-0.173844,-1.36646
1470344239625999,-0.3573,-0.173902,-1.36755
1470344239649561,-0.357974,-0.173755,-1.36859
1470344239666560,-0.35931,-0.173768,-1.36932
1470344239686676,-0.359557,-0.173538,-1.37018
1470344239704595,-0.359807,-0.173055,-1.37057
1470344239726615,-0.359807,-0.173055,-1.37057
1470344239746680,-0.360187,-0.172821,-1.37095
1470344239764695,-0.360628,-0.172525,-1.3715
1470344239786714,-0.361078,-0.171823,-1.37226
1470344239806731,-0.361654,-0.171194,-1.37303
1470344239824765,-0.361377,-0.170373,-1.37375
1470344239846432,-0.361334,-0.16988,-1.37445
1470344239866471,-0.36154,-0.168728,-1.37558
1470344239884465,-0.364329,-0.167578,-1.37639
1470344239906485,-0.366834,-0.166971,-1.37713
1470344239926519,-0.367943,-0.166922,-1.37835
1470344239944523,-0.369815,-0.168501,-1.37912
1470344239966781,-0.372559,-0.171184,-1.37949
1470344239986803,-0.373939,-0.172715,-1.37973
1470344240003814,-0.372658,-0.173666,-1.37953
1470344240026835,-0.369403,-0.174431,-1.37938
1470344240046563,-0.365872,-0.1749,-1.37893
1470344240064541,-0.364835,-0.175849,-1.37775
1470344240086560,-0.363923,-0.177127,-1.37707
1470344240106616,-0.362192,-0.178337,-1.37814
1470344240124639,-0.360933,-0.178913,-1.37881
1470344240146059,-0.36049,-0.179288,-1.37923
1470344240167081,-0.361955,-0.180167,-1.3799
1470344240183092,-0.364325,-0.180245,-1.37985
1470344240206113,-0.365462,-0.179703,-1.38032
1470344240227172,-0.365177,-0.178527,-1.3811
1470344240243660,-0.364497,-0.177006,-1.38172
1470344240266182,-0.364603,-0.175522,-1.38237
1470344240287204,-0.366101,-0.174757,-1.38321
1470344240303216,-0.367662,-0.173933,-1.38423
1470344240326237,-0.368691,-0.173198,-1.38553
1470344240347373,-0.369644,-0.172556,-1.38683
1470344240363299,-0.370657,-0.172204,-1.38776
1470344240386318,-0.371542,-0.171951,-1.38817
1470344240407369,-0.372593,-0.171911,-1.38843
1470344240429863,-0.37323,-0.172338,-1.38858
1470344240446386,-0.373611,-0.172716,-1.3889
1470344240467425,-0.374665,-0.172855,-1.38913
1470344240483418,-0.375641,-0.173086,-1.38934
1470344240505460,-0.376053,-0.172773,-1.38924
1470344240528458,-0.376646,-0.172448,-1.38915
1470344240542979,-0.375821,-0.172008,-1.38881
1470344240566071,-0.374373,-0.171369,-1.38862
1470344240588087,-0.373001,-0.170265,-1.38882
1470344240603100,-0.372468,-0.16894,-1.3891
1470344240632138,-0.372266,-0.168434,-1.38964
1470344240648661,-0.371573,-0.168332,-1.39026
1470344240662676,-0.370784,-0.168174,-1.39105
1470344240685694,-0.370578,-0.16845,-1.39149
1470344240708715,-0.370554,-0.168713,-1.39194
1470344240723728,-0.371101,-0.168853,-1.39197
1470344240745755,-0.371029,-0.168535,-1.39168
1470344240768781,-0.370691,-0.168474,-1.39116
1470344240782794,-0.370445,-0.168371,-1.39099
1470344240805814,-0.370445,-0.168371,-1.39099
1470344240828835,-0.371159,-0.168272,-1.39072
1470344240843358,-0.37149,-0.167873,-1.39064
1470344240865883,-0.37149,-0.167873,-1.39064
1470344240888903,-0.371387,-0.167794,-1.39063
1470344240910923,-0.370971,-0.167122,-1.39069
1470344240925937,-0.370887,-0.16623,-1.39063
1470344240948971,-0.370913,-0.164811,-1.39064
1470344240969988,-0.371004,-0.16351,-1.39079
1470344240986003,-0.371253,-0.162282,-1.39145
1470344241009023,-0.371091,-0.161365,-1.39221
1470344241030043,-0.370092,-0.160847,-1.39286
1470344241046067,-0.369292,-0.160463,-1.39333
1470344241068091,-0.369189,-0.160384,-1.39333
1470344241089111,-0.368889,-0.16072,-1.3931
1470344241106128,-0.369254,-0.161245,-1.39274
1470344241128145,-0.370157,-0.161708,-1.39227
1470344241149175,-0.370673,-0.162025,-1.39177
1470344241166190,-0.371347,-0.162159,-1.39131
1470344241188211,-0.371347,-0.162159,-1.39131
1470344241209230,-0.371347,-0.162159,-1.39131
1470344241226245,-0.371426,-0.162067,-1.39133
1470344241248274,-0.370838,-0.161609,-1.39151
1470344241269292,-0.370202,-0.16081,-1.39172
1470344241286309,-0.369718,-0.159803,-1.3918
1470344241308328,-0.369693,-0.159082,-1.39221
1470344241329351,-0.369613,-0.158624,-1.39259
1470344241346374,-0.369179,-0.158392,-1.39308
1470344241374405,-0.36895,-0.158319,-1.39356
1470344241389419,-0.368854,-0.158263,-1.39373
1470344241406434,-0.368773,-0.158177,-1.39374
1470344241428453,-0.367896,-0.158179,-1.39333
1470344241458492,-0.367783,-0.158093,-1.39285
1470344241465498,-0.368185,-0.157952,-1.39225
1470344241488522,-0.368405,-0.157824,-1.39162
1470344241510541,-0.368403,-0.157391,-1.39118
1470344241525553,-0.368397,-0.157368,-1.39101
1470344241548605,-0.368373,-0.157197,-1.39103
1470344241570623,-0.368309,-0.157258,-1.39085
1470344241585637,-0.368207,-0.157179,-1.39085
1470344241608658,-0.368775,-0.157311,-1.39089
1470344241631183,-0.368877,-0.15739,-1.39089
1470344241645696,-0.36868,-0.156628,-1.39096
1470344241668724,-0.368711,-0.156194,-1.39101
1470344241690744,-0.369423,-0.155546,-1.39114
1470344241705757,-0.370135,-0.155153,-1.39175
1470344241728779,-0.369932,-0.154879,-1.39259
1470344241750807,-0.369341,-0.155087,-1.3935
1470344241765821,-0.368812,-0.155605,-1.39423
1470344241788843,-0.3686,-0.156229,-1.39412
1470344241818869,-0.369052,-0.157042,-1.39389
1470344241824874,-0.36988,-0.157621,-1.39357
1470344241848912,-0.370062,-0.158158,-1.39319
1470344241870929,-0.369983,-0.15825,-1.39317
1470344241884941,-0.370291,-0.157425,-1.39263
1470344241908965,-0.370366,-0.15621,-1.3913
1470344241931489,-0.371273,-0.155634,-1.39046
1470344241952013,-0.370306,-0.155605,-1.39039
1470344241969027,-0.368509,-0.155448,-1.39077
1470344241991049,-0.367513,-0.155481,-1.39102
1470344242012067,-0.368329,-0.155639,-1.39072
1470344242028091,-0.369348,-0.15615,-1.39009
1470344242051107,-0.369213,-0.156621,-1.3892
1470344242072129,-0.367559,-0.156608,-1.38891
1470344242088143,-0.3662,-0.15704,-1.38875
1470344242111162,-0.366014,-0.158208,-1.38826
1470344242132214,-0.366312,-0.159322,-1.38716
1470344242148792,-0.364735,-0.160375,-1.38643
1470344242170813,-0.361591,-0.161352,-1.38561
1470344242191834,-0.359559,-0.162127,-1.38455
1470344242208846,-0.358389,-0.163103,-1.38402
1470344242230866,-0.358624,-0.163984,-1.38362
1470344242252044,-0.358995,-0.164687,-1.38323
1470344242268058,-0.359693,-0.165245,-1.38322
1470344242291171,-0.360076,-0.165543,-1.38304
1470344242312192,-0.361238,-0.165523,-1.38296
1470344242328704,-0.362406,-0.165331,-1.38339
1470344242351225,-0.36412,-0.165276,-1.38385
1470344242372243,-0.365597,-0.165321,-1.38428
1470344242389259,-0.365887,-0.165214,-1.38481
1470344242411279,-0.365363,-0.164874,-1.38513
1470344242433799,-0.364717,-0.164307,-1.38564
1470344242448812,-0.36408,-0.163941,-1.38629
1470344242471834,-0.364465,-0.163712,-1.38668
1470344242493853,-0.36501,-0.163476,-1.38707
1470344242508866,-0.365514,-0.163296,-1.3873
1470344242531386,-0.365022,-0.162895,-1.3873
1470344242553906,-0.363984,-0.162355,-1.38729
1470344242567920,-0.363294,-0.162193,-1.3871
1470344242591441,-0.363563,-0.162035,-1.38681
1470344242613960,-0.363848,-0.161846,-1.38636
1470344242627973,-0.364235,-0.161735,-1.38591
1470344242651495,-0.364083,-0.161511,-1.3856
1470344242674014,-0.363719,-0.161105,-1.38513
1470344242688028,-0.362736,-0.160678,-1.38478
1470344242711048,-0.362607,-0.159996,-1.38435
1470344242733568,-0.362708,-0.159643,-1.38392
1470344242748082,-0.3619,-0.159434,-1.38389
1470344242771102,-0.360513,-0.158716,-1.38371
1470344242793622,-0.359458,-0.158031,-1.38388
1470344242808135,-0.359355,-0.157953,-1.38388
1470344242831156,-0.359355,-0.157953,-1.38388
1470344242853676,-0.359355,-0.157953,-1.38388
1470344242868190,-0.359253,-0.157874,-1.38387
1470344242891210,-0.35915,-0.157795,-1.38387
1470344242913730,-0.35915,-0.157795,-1.38387
1470344242934749,-0.35915,-0.157795,-1.38387
1470344242951264,-0.359048,-0.157716,-1.38387
1470344242979789,-0.359126,-0.157624,-1.38389
1470344242994802,-0.359464,-0.157426,-1.38394
1470344243018825,-0.359755,-0.157064,-1.384
1470344243033838,-0.360274,-0.156852,-1.38407
1470344243054857,-0.360172,-0.156774,-1.38407
1470344243071372,-0.36078,-0.156848,-1.38427
1470344243093892,-0.361657,-0.156765,-1.38418
1470344243114911,-0.362185,-0.156754,-1.38439
1470344243131426,-0.36277,-0.156658,-1.38461
1470344243153945,-0.363173,-0.156576,-1.38481
1470344243174963,-0.363963,-0.156384,-1.38456
1470344243191479,-0.363963,-0.156384,-1.38456
1470344243213999,-0.364042,-0.156291,-1.38458
1470344243235018,-0.364208,-0.156308,-1.38475
1470344243251032,-0.364754,-0.156446,-1.38478
1470344243274053,-0.365309,-0.156784,-1.38495
1470344243295072,-0.36523,-0.156876,-1.38493
1470344243311087,-0.365302,-0.156761,-1.38477
1470344243333608,-0.365854,-0.156667,-1.3845
1470344243356127,-0.366492,-0.156504,-1.38442
1470344243371142,-0.366389,-0.156425,-1.38442
1470344243393661,-0.366389,-0.156425,-1.38442
1470344243416181,-0.366389,-0.156425,-1.38442
1470344243431195,-0.366286,-0.156347,-1.38442
1470344243461222,-0.366358,-0.156231,-1.38427
1470344243482242,-0.366358,-0.156231,-1.38427
1470344243490749,-0.366358,-0.156231,-1.38427
1470344243513768,-0.366255,-0.156153,-1.38427
1470344243536289,-0.366255,-0.156153,-1.38427
1470344243550802,-0.366334,-0.15606,-1.38428
1470344243573822,-0.366231,-0.155982,-1.38428
1470344243596343,-0.366231,-0.155982,-1.38428
1470344243610355,-0.366231,-0.155982,-1.38428
1470344243633877,-0.366331,-0.155883,-1.38432
1470344243656396,-0.366229,-0.155804,-1.38431
1470344243670409,-0.366229,-0.155804,-1.38431
1470344243693931,-0.366229,-0.155804,-1.38431
1470344243717451,-0.366229,-0.155804,-1.38431
1470344243730964,-0.366204,-0.155633,-1.38433
1470344243753984,-0.366204,-0.155633,-1.38433
1470344243782509,-0.366102,-0.155555,-1.38433
1470344243790518,-0.366102,-0.155555,-1.38433
1470344243814039,-0.366078,-0.155384,-1.38435
1470344243836058,-0.365656,-0.155318,-1.38434
1470344243857077,-0.364896,-0.154822,-1.38417
1470344243873592,-0.364498,-0.1543,-1.38403
1470344243896112,-0.363602,-0.153982,-1.38384
1470344243917639,-0.363048,-0.153644,-1.38368
1470344243933646,-0.362945,-0.153565,-1.38367
1470344243963674,-0.362864,-0.15348,-1.38369
1470344243977185,-0.363312,-0.153053,-1.38295
1470344243993700,-0.363688,-0.152742,-1.38236
1470344244016219,-0.364089,-0.152601,-1.38176
1470344244037240,-0.36518,-0.152993,-1.38098
1470344244053753,-0.365077,-0.153406,-1.37978
1470344244076274,-0.364574,-0.153708,-1.37871
1470344244097294,-0.365532,-0.154276,-1.37791
1470344244113807,-0.367087,-0.15487,-1.37697
1470344244136328,-0.368,-0.154491,-1.37628
1470344244157346,-0.368499,-0.154658,-1.37597
1470344244173862,-0.368801,-0.154614,-1.37534
1470344244196383,-0.368879,-0.154521,-1.37536
1470344244217401,-0.368798,-0.154436,-1.37537
1470344244233915,-0.369333,-0.154115,-1.37479
1470344244256435,-0.369379,-0.154023,-1.37432
1470344244277456,-0.368837,-0.153657,-1.374
1470344244292968,-0.367953,-0.153722,-1.37392
1470344244316489,-0.368031,-0.153629,-1.37394
1470344244338513,-0.369222,-0.153289,-1.37309
1470344244353527,-0.368547,-0.153883,-1.37265
1470344244376043,-0.366673,-0.153758,-1.37251
1470344244405069,-0.365399,-0.152976,-1.373
1470344244414077,-0.365318,-0.152891,-1.37302
1470344244436097,-0.366964,-0.152867,-1.37314
1470344244458618,-0.368337,-0.152572,-1.37311
1470344244473130,-0.367951,-0.151903,-1.37366
1470344244496151,-0.367972,-0.151895,-1.37367
1470344244518671,-0.36822,-0.151997,-1.37383
1470344244533185,-0.368404,-0.15216,-1.37382
1470344244556205,-0.368482,-0.152068,-1.37384
1470344244578724,-0.367567,-0.152389,-1.37373
1470344244593238,-0.366612,-0.152569,-1.3738
1470344244616259,-0.366684,-0.152454,-1.37365
1470344244638778,-0.365621,-0.152124,-1.37328
1470344244653291,-0.364382,-0.150797,-1.37271
1470344244676313,-0.364363,-0.149987,-1.37217
1470344244698833,-0.364872,-0.149496,-1.37161
1470344244713345,-0.36495,-0.149403,-1.37162
1470344244736366,-0.364137,-0.14943,-1.37189
1470344244758886,-0.363714,-0.149775,-1.37214
1470344244772899,-0.364377,-0.150366,-1.37227
1470344244797421,-0.365298,-0.150849,-1.37244
1470344244818940,-0.365928,-0.151322,-1.37292
1470344244839959,-0.366182,-0.151446,-1.37326
1470344244856474,-0.366182,-0.151446,-1.37326
1470344244878494,-0.366182,-0.151446,-1.37326
1470344244900013,-0.366419,-0.151346,-1.37328
1470344244916027,-0.366419,-0.151346,-1.37328
1470344244938548,-0.366441,-0.151339,-1.3733
1470344244960067,-0.365453,-0.150953,-1.37357
1470344244966573,-0.364835,-0.150152,-1.3738
1470344244981586,-0.363172,-0.148797,-1.37384
1470344245004106,-0.360093,-0.147573,-1.37391
1470344245026627,-0.356952,-0.146488,-1.3743
1470344245041641,-0.354212,-0.145921,-1.37482
1470344245064661,-0.353633,-0.145417,-1.37467
1470344245086681,-0.353633,-0.145417,-1.37467
1470344245101697,-0.353204,-0.145738,-1.37475
1470344245124214,-0.353239,-0.146109,-1.37488
1470344245142231,-0.353938,-0.14684,-1.37484
1470344245161748,-0.35547,-0.14754,-1.37455
1470344245191775,-0.356402,-0.148116,-1.37374
1470344245202284,-0.356698,-0.14868,-1.37304
1470344245221805,-0.356979,-0.149273,-1.37249
1470344245244323,-0.357511,-0.149812,-1.37231
1470344245262339,-0.358539,-0.150142,-1.37219
1470344245281858,-0.35978,-0.150983,-1.37201
1470344245304376,-0.35978,-0.150983,-1.37201
1470344245321892,-0.359405,-0.150635,-1.37186
1470344245341910,-0.358881,-0.150494,-1.37185
1470344245364431,-0.358267,-0.150654,-1.37195
1470344245381947,-0.358345,-0.150561,-1.37196
1470344245401464,-0.357682,-0.150379,-1.37209
1470344245423983,-0.356257,-0.149782,-1.37255
1470344245442000,-0.354991,-0.149177,-1.37302
1470344245462018,-0.354491,-0.148831,-1.37335
1470344245484038,-0.354062,-0.148371,-1.37353
1470344245502054,-0.3538,-0.147925,-1.37389
1470344245521572,-0.353621,-0.147533,-1.37361
1470344245544091,-0.352636,-0.14727,-1.37306
1470344245562107,-0.351995,-0.147081,-1.37321
1470344245581625,-0.352619,-0.147373,-1.37372
1470344245604145,-0.35464,-0.147466,-1.37368
1470344245622161,-0.35663,-0.147815,-1.37362
1470344245641679,-0.357224,-0.148291,-1.37362
1470344245664199,-0.357242,-0.148439,-1.37343
1470344245682215,-0.357288,-0.149385,-1.37333
1470344245701733,-0.357302,-0.150138,-1.37307
1470344245727256,-0.357186,-0.150464,-1.37286
1470344245743271,-0.357298,-0.15049,-1.37254
1470344245761787,-0.357715,-0.150375,-1.37258
1470344245784308,-0.358588,-0.150891,-1.37242
1470344245802324,-0.358588,-0.150891,-1.37242
1470344245821841,-0.358485,-0.150813,-1.37242
1470344245844361,-0.359249,-0.150698,-1.37265
1470344245862377,-0.36039,-0.150525,-1.37277
1470344245882895,-0.361431,-0.150451,-1.37286
1470344245904414,-0.362059,-0.15067,-1.37287
1470344245921931,-0.361956,-0.150592,-1.37287
1470344245942949,-0.361853,-0.150514,-1.37287
1470344245964469,-0.362605,-0.150804,-1.3729
1470344245981984,-0.363356,-0.151094,-1.37293
1470344246003004,-0.363705,-0.151019,-1.37262
1470344246024022,-0.363951,-0.151316,-1.37245
1470344246042038,-0.36337,-0.151593,-1.3722
1470344246063059,-0.362013,-0.151859,-1.37208
1470344246084077,-0.361466,-0.151472,-1.37159
1470344246102093,-0.361441,-0.151302,-1.3716
1470344246123112,-0.362022,-0.151806,-1.37175
1470344246144130,-0.362144,-0.152032,-1.37156
1470344246162147,-0.362165,-0.152025,-1.37158
1470344246183165,-0.362469,-0.15249,-1.37188
1470344246204185,-0.362498,-0.152838,-1.37183
1470344246222200,-0.362498,-0.152838,-1.37183
1470344246244721,-0.362312,-0.153083,-1.37211
1470344246264238,-0.362209,-0.153005,-1.3721
1470344246282254,-0.362308,-0.152906,-1.37214
1470344246304775,-0.362205,-0.152828,-1.37214
1470344246324293,-0.361806,-0.15309,-1.37191
1470344246349815,-0.361207,-0.15322,-1.37185
1470344246364829,-0.360531,-0.153443,-1.37177
1470344246384345,-0.360566,-0.153814,-1.37189
1470344246402362,-0.3611,-0.154155,-1.37204
1470344246424883,-0.3612,-0.154055,-1.37207
1470344246444400,-0.360608,-0.154011,-1.37252
1470344246462917,-0.360608,-0.154011,-1.37252
1470344246484436,-0.360686,-0.153918,-1.37253
1470344246504454,-0.359918,-0.153855,-1.37233
1470344246521970,-0.358749,-0.153681,-1.37226
1470344246544489,-0.358646,-0.153602,-1.37226
1470344246564007,-0.358646,-0.153602,-1.37226
1470344246582064,-0.358004,-0.153414,-1.37241
1470344246604586,-0.357379,-0.15259,-1.37246
1470344246624102,-0.356133,-0.151849,-1.37165
1470344246642118,-0.354748,-0.151389,-1.36981
1470344246664639,-0.354757,-0.150679,-1.36876
1470344246687158,-0.354757,-0.150679,-1.36876
1470344246702171,-0.354834,-0.150586,-1.36877
1470344246724692,-0.355087,-0.150707,-1.3691
1470344246744210,-0.356216,-0.150739,-1.36934
1470344246762226,-0.357944,-0.151422,-1.36954
1470344246784746,-0.359654,-0.151958,-1.36993
1470344246805765,-0.360715,-0.152283,-1.3703
1470344246822280,-0.36186,-0.152286,-1.37038
1470344246844801,-0.362288,-0.152372,-1.37056
1470344246865820,-0.36219,-0.152725,-1.371
1470344246882334,-0.362795,-0.152618,-1.37123
1470344246904854,-0.363677,-0.15296,-1.37157
1470344246925372,-0.364052,-0.153309,-1.37172
1470344246941887,-0.364228,-0.153525,-1.37203
1470344246964908,-0.364603,-0.153874,-1.37218
1470344246985427,-0.3645,-0.153796,-1.37218
1470344247001942,-0.3645,-0.153796,-1.37218
1470344247024461,-0.364703,-0.153775,-1.37221
1470344247045480,-0.365429,-0.15364,-1.37179
1470344247061995,-0.365427,-0.153386,-1.37133
1470344247084515,-0.365407,-0.152984,-1.37105
1470344247105534,-0.365407,-0.152984,-1.37105
1470344247129556,-0.365304,-0.152906,-1.37105
1470344247144569,-0.365304,-0.152906,-1.37105
1470344247167090,-0.364274,-0.151914,-1.37044
1470344247187607,-0.361227,-0.150118,-1.36881
1470344247204127,-0.360148,-0.148624,-1.36632
1470344247226152,-0.361266,-0.14731,-1.36494
1470344247247568,-0.361935,-0.146655,-1.36459
1470344247263583,-0.362083,-0.146446,-1.36446
1470344247285602,-0.361817,-0.146607,-1.36475
1470344247307620,-0.362518,-0.146961,-1.36507
1470344247323645,-0.364194,-0.147123,-1.36534
1470344247345669,-0.3661,-0.147238,-1.36597
1470344247360683,-0.367094,-0.147075,-1.36656
1470344247383704,-0.367083,-0.146755,-1.36725
1470344247406724,-0.366902,-0.14677,-1.36723
1470344247420743,-0.366924,-0.146763,-1.36724
1470344247443301,-0.366995,-0.146647,-1.36709
1470344247466330,-0.367404,-0.147113,-1.36689
1470344247480335,-0.36717,-0.147586,-1.3665
1470344247503360,-0.367248,-0.148021,-1.36595
1470344247526383,-0.367646,-0.148481,-1.36529
1470344247540429,-0.367927,-0.148894,-1.36478
1470344247563449,-0.367499,-0.148809,-1.36459
1470344247586469,-0.367499,-0.148809,-1.36459
1470344247600481,-0.368642,-0.148555,-1.36422
1470344247624007,-0.369245,-0.148601,-1.36425
1470344247647035,-0.369322,-0.148508,-1.36427
1470344247667053,-0.369322,-0.148508,-1.36427
1470344247683065,-0.369392,-0.148469,-1.36462
1470344247706086,-0.370346,-0.148693,-1.36481
1470344247727611,-0.371436,-0.14878,-1.3649
1470344247743132,-0.371688,-0.148649,-1.36477
1470344247766153,-0.371688,-0.148649,-1.36477
1470344247787170,-0.371585,-0.148571,-1.36477
1470344247803185,-0.373382,-0.148178,-1.36497
1470344247826213,-0.375799,-0.148405,-1.36497
1470344247847238,-0.376939,-0.148987,-1.36482
1470344247863252,-0.376173,-0.149102,-1.36458
1470344247886273,-0.374526,-0.149132,-1.36445
1470344247907292,-0.373875,-0.149526,-1.36435
1470344247923813,-0.373754,-0.149827,-1.36397
1470344247946021,-0.374327,-0.15013,-1.36398
1470344247967039,-0.374224,-0.150052,-1.36398
1470344247984054,-0.374224,-0.150052,-1.36398
1470344248006075,-0.373749,-0.14965,-1.364
1470344248027600,-0.373724,-0.149479,-1.36402
1470344248043618,-0.373724,-0.149479,-1.36402
1470344248066639,-0.37362,-0.149402,-1.36402
1470344248087657,-0.37365,-0.14975,-1.36396
1470344248103671,-0.374006,-0.1503,-1.36376
1470344248126197,-0.374232,-0.150602,-1.36358
1470344248148425,-0.374976,-0.150688,-1.36347
1470344248163439,-0.375595,-0.150703,-1.36335
1470344248186459,-0.376676,-0.150998,-1.36356
1470344248208479,-0.377268,-0.150844,-1.36346
1470344248223997,-0.377275,-0.150867,-1.36363
1470344248246642,-0.376809,-0.15041,-1.36333
1470344248268661,-0.37629,-0.149612,-1.36306
1470344248290685,-0.376368,-0.149519,-1.36308
1470344248306696,-0.376368,-0.149519,-1.36308
1470344248328722,-0.376342,-0.149349,-1.3631
1470344248342953,-0.376216,-0.149472,-1.36275
1470344248365974,-0.375851,-0.149441,-1.36191
1470344248388995,-0.375086,-0.149147,-1.36141
1470344248403007,-0.374435,-0.14845,-1.36063
1470344248426534,-0.373894,-0.147855,-1.36002
1470344248448600,-0.37227,-0.1472,-1.35949
1470344248462612,-0.370942,-0.146809,-1.35911
1470344248485632,-0.369877,-0.146487,-1.35875
1470344248508655,-0.369137,-0.146171,-1.35856
1470344248523174,-0.368309,-0.145748,-1.35822
1470344248546069,-0.366897,-0.145505,-1.35816
1470344248569089,-0.364833,-0.14521,-1.35786
1470344248590107,-0.363204,-0.145218,-1.35759
1470344248606122,-0.362213,-0.145387,-1.357
1470344248628653,-0.361096,-0.145685,-1.35607
1470344248650261,-0.359855,-0.145506,-1.35487
1470344248666209,-0.358702,-0.145435,-1.35382
1470344248688229,-0.358013,-0.14541,-1.35282
1470344248709248,-0.357918,-0.144998,-1.35141
1470344248726272,-0.357708,-0.144309,-1.34987
1470344248748299,-0.357062,-0.14352,-1.34798
1470344248769315,-0.355587,-0.142391,-1.34625
1470344248786331,-0.354651,-0.141368,-1.34438
1470344248808349,-0.354073,-0.140541,-1.34284
1470344248829875,-0.353706,-0.140046,-1.34127
1470344248846254,-0.353547,-0.139704,-1.3397
1470344248868272,-0.353313,-0.139228,-1.33783
1470344248889291,-0.352602,-0.138513,-1.33578
1470344248906306,-0.351426,-0.137834,-1.33419
1470344248928829,-0.35101,-0.137179,-1.33263
1470344248949353,-0.351078,-0.136558,-1.33112
1470344248966370,-0.350847,-0.135909,-1.32975
1470344248988387,-0.350511,-0.135411,-1.32867
1470344249009406,-0.351253,-0.134802,-1.3277
1470344249026427,-0.352333,-0.134316,-1.32655
1470344249048451,-0.353212,-0.1337,-1.32558
1470344249071472,-0.354173,-0.133011,-1.32479
1470344249086486,-0.354795,-0.132581,-1.32426
1470344249108505,-0.355273,-0.132516,-1.32366
1470344249131531,-0.355709,-0.13231,-1.32324
1470344249146549,-0.356885,-0.132175,-1.3227
1470344249168567,-0.358331,-0.132126,-1.32234
1470344249191589,-0.359161,-0.132073,-1.32211
1470344249205603,-0.360252,-0.131656,-1.32192
1470344249229126,-0.36135,-0.131262,-1.32189
1470344249251650,-0.362615,-0.130878,-1.32205
1470344249265662,-0.363559,-0.13032,-1.32251
1470344249288683,-0.364256,-0.130129,-1.32339
1470344249310701,-0.365148,-0.130119,-1.32443
1470344249325723,-0.36611,-0.130223,-1.3256
1470344249348746,-0.366692,-0.130644,-1.32687
1470344249370766,-0.366623,-0.131025,-1.32791
1470344249385780,-0.366643,-0.131356,-1.32931
1470344249408802,-0.366365,-0.13166,-1.33084
1470344249431330,-0.365561,-0.132064,-1.33264
1470344249445847,-0.364854,-0.13229,-1.334
1470344249468867,-0.363966,-0.132533,-1.33533
1470344249490887,-0.363536,-0.132793,-1.33654
1470344249505901,-0.363224,-0.133099,-1.3376
1470344249528928,-0.362821,-0.133299,-1.3385
1470344249550967,-0.362149,-0.13341,-1.33923
1470344249571966,-0.36154,-0.133457,-1.34014
1470344249588982,-0.361532,-0.133738,-1.34075
1470344249611016,-0.361136,-0.133885,-1.34133
1470344249632539,-0.361164,-0.133932,-1.34213
1470344249649060,-0.361192,-0.133979,-1.34293
1470344249671080,-0.361115,-0.13418,-1.34402
1470344249692115,-0.361038,-0.134381,-1.34511
1470344249708114,-0.361507,-0.134708,-1.34622
1470344249731140,-0.362286,-0.135265,-1.34735
1470344249752162,-0.363114,-0.13579,-1.34879
1470344249768179,-0.364546,-0.136127,-1.34999
1470344249791199,-0.365649,-0.136089,-1.35136
1470344249813221,-0.36666,-0.136371,-1.35255
1470344249828740,-0.367026,-0.136627,-1.35367
1470344249851267,-0.367096,-0.136094,-1.3552
1470344249872284,-0.368086,-0.135783,-1.35645
1470344249889300,-0.36854,-0.135136,-1.35754
1470344249911320,-0.367578,-0.134632,-1.35866
1470344249932343,-0.36586,-0.134268,-1.3597
1470344249956371,-0.36443,-0.134142,-1.36072
1470344249971384,-0.36359,-0.134463,-1.36158
1470344249992402,-0.363181,-0.13501,-1.36196
1470344250008418,-0.362966,-0.135512,-1.36221
1470344250031445,-0.362377,-0.136075,-1.36257
1470344250053470,-0.362751,-0.136652,-1.363
1470344250068484,-0.363529,-0.137516,-1.36328
1470344250091505,-0.3642,-0.138126,-1.36358
1470344250113524,-0.364609,-0.138666,-1.36388
1470344250129044,-0.365428,-0.139067,-1.36405
1470344250151507,-0.3663,-0.139206,-1.36426
1470344250173526,-0.366974,-0.139212,-1.36464
1470344250187537,-0.368061,-0.138925,-1.3651
1470344250211561,-0.368539,-0.138197,-1.36572
1470344250234090,-0.369229,-0.13757,-1.36602
1470344250248330,-0.369683,-0.136672,-1.36666
1470344250271348,-0.36963,-0.135782,-1.3671
1470344250293367,-0.36907,-0.134898,-1.36733
1470344250308382,-0.368432,-0.134108,-1.36754
1470344250331406,-0.368042,-0.13379,-1.36755
1470344250353428,-0.367496,-0.133657,-1.36752
1470344250368442,-0.366822,-0.13365,-1.36714
1470344250391463,-0.365602,-0.13351,-1.36673
1470344250419993,-0.363828,-0.13359,-1.36575
1470344250428001,-0.361683,-0.13395,-1.36473
1470344250451438,-0.358935,-0.134049,-1.36384
1470344250473456,-0.357876,-0.13428,-1.36308
1470344250488470,-0.357702,-0.134619,-1.36237
1470344250519003,-0.357356,-0.134996,-1.36181
1470344250534017,-0.356765,-0.135525,-1.36155
1470344250554540,-0.356134,-0.13607,-1.36126
1470344250571557,-0.355575,-0.136345,-1.36103
1470344250593577,-0.355036,-0.136767,-1.3606
1470344250614597,-0.354057,-0.136909,-1.35987
1470344250631613,-0.352893,-0.13689,-1.35914
1470344250653637,-0.351839,-0.136522,-1.35845
1470344250674658,-0.350932,-0.136019,-1.35813
1470344250698678,-0.350447,-0.135575,-1.35781
1470344250713693,-0.349955,-0.135183,-1.35782
1470344250737722,-0.349289,-0.134828,-1.35798
1470344250750733,-0.348187,-0.134599,-1.35808
1470344250773756,-0.347124,-0.134511,-1.35801
1470344250794774,-0.347053,-0.134626,-1.35817
1470344250810788,-0.347937,-0.135107,-1.35785
1470344250833813,-0.349986,-0.135907,-1.35741
1470344250854834,-0.352698,-0.136353,-1.35741
1470344250870849,-0.355269,-0.13658,-1.35757
1470344250893871,-0.358366,-0.136416,-1.35832
1470344250914890,-0.361543,-0.136161,-1.3591
1470344250931410,-0.365622,-0.13749,-1.35877
1470344250953932,-0.366536,-0.139271,-1.3578
1470344250976953,-0.364131,-0.139726,-1.35658
1470344250990965,-0.361554,-0.139015,-1.35565
1470344251013988,-0.360182,-0.139675,-1.35514
1470344251036012,-0.360536,-0.140347,-1.35412
1470344251051025,-0.360335,-0.141172,-1.35368
1470344251074047,-0.359088,-0.141936,-1.35381
1470344251096066,-0.358205,-0.14224,-1.35402
1470344251126598,-0.358231,-0.14241,-1.354
1470344251134105,-0.358512,-0.142824,-1.35349
1470344251156131,-0.35844,-0.143292,-1.35312
1470344251170144,-0.35862,-0.144035,-1.35286
1470344251193164,-0.359472,-0.144977,-1.35265
1470344251216185,-0.360098,-0.145616,-1.35263
1470344251230704,-0.360835,-0.146083,-1.35261
1470344251253754,-0.361047,-0.146414,-1.35258
1470344251275774,-0.361136,-0.146521,-1.35273
1470344251290789,-0.361136,-0.146521,-1.35273
1470344251313809,-0.360708,-0.14644,-1.35255
1470344251336345,-0.359506,-0.145929,-1.35253
1470344251350358,-0.358787,-0.145006,-1.35244
1470344251373377,-0.358842,-0.14416,-1.35271
1470344251396401,-0.35889,-0.143291,-1.35282
1470344251410412,-0.358958,-0.142646,-1.35323
1470344251433939,-0.358856,-0.142216,-1.35376
1470344251456462,-0.35883,-0.142046,-1.35377
1470344251477481,-0.35883,-0.142046,-1.35377
1470344251501503,-0.357894,-0.142207,-1.35369
1470344251516516,-0.357249,-0.142377,-1.3533
1470344251537112,-0.356964,-0.142669,-1.35275
1470344251553146,-0.356574,-0.142959,-1.35269
1470344251576144,-0.356054,-0.143001,-1.35265
1470344251597164,-0.355804,-0.143134,-1.35278
1470344251613179,-0.355298,-0.143302,-1.35238
1470344251635701,-0.354191,-0.143274,-1.35216
1470344251656724,-0.354088,-0.143197,-1.35216
1470344251673739,-0.353551,-0.143018,-1.35181
1470344251695759,-0.35287,-0.142466,-1.35183
1470344251716778,-0.352544,-0.141858,-1.35172
1470344251733799,-0.35228,-0.141186,-1.35178
1470344251755821,-0.352247,-0.140234,-1.3519
1470344251784848,-0.351852,-0.139543,-1.35227
1470344251793856,-0.351284,-0.13889,-1.35279
1470344251815875,-0.351181,-0.138813,-1.35279
1470344251837426,-0.350388,-0.138589,-1.35261
1470344251853439,-0.348916,-0.138574,-1.35218
1470344251876459,-0.347907,-0.138603,-1.35178
1470344251898479,-0.347448,-0.138936,-1.35139
1470344251913492,-0.347737,-0.139779,-1.35131
1470344251936535,-0.34752,-0.140864,-1.35132
1470344251958556,-0.3472,-0.141872,-1.35134
1470344251973570,-0.346933,-0.142865,-1.35185
1470344251996589,-0.346217,-0.143181,-1.35224
1470344252018609,-0.345861,-0.143463,-1.35267
1470344252024120,-0.345062,-0.143695,-1.35307
1470344252039136,-0.344001,-0.143254,-1.35354
1470344252061156,-0.343123,-0.142725,-1.35352
1470344252084190,-0.34241,-0.142052,-1.35389
1470344252099190,-0.341934,-0.141275,-1.35427
1470344252121714,-0.340931,-0.140746,-1.35474
1470344252144240,-0.339821,-0.140568,-1.35517
1470344252160254,-0.339235,-0.140524,-1.35561
1470344252181274,-0.339132,-0.140447,-1.35561
1470344252204294,-0.339132,-0.140447,-1.35561
1470344252219308,-0.33883,-0.140842,-1.35571
1470344252241335,-0.33883,-0.141448,-1.35565
1470344252264356,-0.339091,-0.14212,-1.35559
1470344252279370,-0.339256,-0.142737,-1.35569
1470344252301390,-0.338845,-0.143034,-1.35563
1470344252324412,-0.338512,-0.143238,-1.35557
1470344252339431,-0.337897,-0.143225,-1.35571
1470344252361464,-0.337339,-0.143125,-1.35584
1470344252384469,-0.337339,-0.143125,-1.35584
1470344252399484,-0.337339,-0.143125,-1.35584
1470344252422010,-0.337339,-0.143125,-1.35584
1470344252444533,-0.337416,-0.143031,-1.35586
1470344252460548,-0.337689,-0.143297,-1.356
1470344252481566,-0.338167,-0.143717,-1.35614
1470344252503587,-0.338633,-0.143938,-1.35615
1470344252520602,-0.339505,-0.144447,-1.35599
1470344252541632,-0.34055,-0.144918,-1.35567
1470344252563651,-0.341981,-0.145527,-1.35538
1470344252580666,-0.343726,-0.145938,-1.35513
1470344252601685,-0.345297,-0.146388,-1.35502
1470344252624208,-0.346525,-0.146842,-1.35473
1470344252640729,-0.347475,-0.147256,-1.35459
1470344252661748,-0.347938,-0.147456,-1.35442
1470344252683767,-0.348394,-0.147478,-1.35429
1470344252700785,-0.348291,-0.147401,-1.35429
1470344252729312,-0.348312,-0.147395,-1.35431
1470344252743829,-0.348389,-0.147301,-1.35432
1470344252760845,-0.348389,-0.147301,-1.35432
1470344252782864,-0.348271,-0.147253,-1.35448
1470344252803884,-0.348068,-0.147348,-1.35494
1470344252820898,-0.347961,-0.147499,-1.35523
1470344252841931,-0.347886,-0.147842,-1.35568
1470344252863953,-0.347555,-0.148296,-1.35609
1470344252881966,-0.347451,-0.148218,-1.35609
1470344252901985,-0.347349,-0.148141,-1.35608
1470344252924507,-0.347349,-0.148141,-1.35608
1470344252942026,-0.347349,-0.148141,-1.35608
1470344252962043,-0.347349,-0.148141,-1.35608
1470344252984066,-0.347349,-0.148141,-1.35608
1470344253009086,-0.347349,-0.148141,-1.35608
1470344253021601,-0.347246,-0.148064,-1.35608
1470344253043774,-0.34782,-0.148135,-1.3558
1470344253061775,-0.348238,-0.148621,-1.35577
1470344253081795,-0.348593,-0.149172,-1.35557
1470344253103835,-0.349308,-0.149845,-1.35521
1470344253122334,-0.349915,-0.150264,-1.35487
1470344253141356,-0.350337,-0.150522,-1.35455
1470344253164387,-0.350337,-0.150522,-1.35455
1470344253182404,-0.349795,-0.150165,-1.35424
1470344253201407,-0.349355,-0.149281,-1.35399
1470344253224450,-0.349295,-0.148512,-1.35359
1470344253242017,-0.348795,-0.147943,-1.35363
1470344253262034,-0.348171,-0.147303,-1.35366
1470344253284057,-0.348012,-0.147313,-1.35365
1470344253302071,-0.348012,-0.147313,-1.35365
1470344253321120,-0.34763,-0.146947,-1.35334
1470344253344379,-0.34763,-0.146947,-1.35334
1470344253362406,-0.348016,-0.147085,-1.35336
1470344253381414,-0.349008,-0.147441,-1.35337
1470344253404434,-0.34993,-0.147912,-1.35354
1470344253421957,-0.350867,-0.148355,-1.35355
1470344253449500,-0.351896,-0.148676,-1.35343
1470344253464513,-0.352941,-0.148968,-1.35315
1470344253481529,-0.353315,-0.149061,-1.35283
1470344253502550,-0.353771,-0.148677,-1.35244
1470344253524576,-0.353999,-0.148145,-1.35203
1470344253541595,-0.354011,-0.147511,-1.35194
1470344253564617,-0.354133,-0.146976,-1.35203
1470344253583634,-0.354104,-0.1462,-1.35211
1470344253601649,-0.353928,-0.145634,-1.35233
1470344253624674,-0.353857,-0.14575,-1.35248
1470344253643697,-0.354108,-0.145618,-1.35235
1470344253661714,-0.354606,-0.145781,-1.35205
1470344253682747,-0.355568,-0.146142,-1.35158
1470344253703751,-0.356583,-0.146845,-1.35109
1470344253722274,-0.357362,-0.147451,-1.35089
1470344253742800,-0.357565,-0.147835,-1.35119
1470344253763818,-0.358484,-0.148129,-1.35139
1470344253789841,-0.359363,-0.148208,-1.35127
1470344253804856,-0.359363,-0.148208,-1.35127
1470344253824877,-0.359042,-0.147623,-1.35133
1470344253841897,-0.358853,-0.146857,-1.35141
1470344253864920,-0.358396,-0.146001,-1.35132
1470344253883935,-0.357862,-0.145239,-1.35121
1470344253901951,-0.357295,-0.144964,-1.35137
1470344253924976,-0.356477,-0.144975,-1.35146
1470344253944523,-0.356103,-0.145236,-1.35125
1470344253962539,-0.356556,-0.14584,-1.35088
1470344253984560,-0.357141,-0.146691,-1.3505
1470344254006579,-0.357513,-0.147211,-1.35014
1470344254021593,-0.357941,-0.147644,-1.34979
1470344254044653,-0.358169,-0.147945,-1.34961
1470344254066674,-0.358376,-0.148099,-1.34961
1470344254081685,-0.358376,-0.148099,-1.34961
1470344254104723,-0.357649,-0.147989,-1.34956
1470344254124231,-0.356613,-0.147493,-1.34972
1470344254142249,-0.355863,-0.146629,-1.34993
1470344254164271,-0.355122,-0.145714,-1.34982
1470344254184286,-0.354497,-0.14492,-1.35004
1470344254202303,-0.353775,-0.144227,-1.35024
1470344254224826,-0.353014,-0.143998,-1.35053
1470344254244375,-0.353014,-0.143998,-1.35053
1470344254261377,-0.352911,-0.143921,-1.35053
1470344254283396,-0.352887,-0.144355,-1.35048
1470344254304418,-0.35296,-0.144844,-1.35026
1470344254321432,-0.353213,-0.145317,-1.35006
1470344254343461,-0.353862,-0.145875,-1.34956
1470344254364480,-0.35447,-0.146292,-1.34923
1470344254381494,-0.354762,-0.1463,-1.34892
1470344254404516,-0.35468,-0.146217,-1.34894
1470344254425042,-0.354031,-0.146013,-1.34891
1470344254441563,-0.353426,-0.145368,-1.34895
1470344254463581,-0.353231,-0.14458,-1.34886
1470344254484600,-0.352954,-0.143709,-1.34879
1470344254501616,-0.352529,-0.143047,-1.34885
1470344254523641,-0.352426,-0.14297,-1.34885
1470344254544663,-0.352635,-0.142696,-1.34889
1470344254561677,-0.35293,-0.142955,-1.34905
1470344254583697,-0.352866,-0.143249,-1.34916
1470344254604716,-0.353119,-0.143721,-1.34896
1470344254620730,-0.353635,-0.14426,-1.34877
1470344254643761,-0.354242,-0.144676,-1.34844
1470344254664780,-0.354948,-0.144992,-1.34814
1470344254680795,-0.355279,-0.14537,-1.34796
1470344254703815,-0.355202,-0.145464,-1.34794
1470344254724837,-0.355202,-0.145464,-1.34794
1470344254740854,-0.354553,-0.145261,-1.34791
1470344254763876,-0.353178,-0.144793,-1.34804
1470344254785897,-0.352207,-0.144159,-1.34788
1470344254800908,-0.351629,-0.143685,-1.3479
1470344254823936,-0.350768,-0.143151,-1.34791
1470344254845958,-0.350768,-0.143151,-1.34791
1470344254860972,-0.350768,-0.143151,-1.34791
1470344254883993,-0.350768,-0.143151,-1.34791
1470344254906012,-0.350966,-0.143511,-1.34803
1470344254920024,-0.351004,-0.143881,-1.34815
1470344254944055,-0.351438,-0.144336,-1.34797
1470344254966074,-0.352225,-0.144736,-1.34766
1470344254981087,-0.352756,-0.145245,-1.34731
1470344255004109,-0.353075,-0.145425,-1.34699
1470344255026633,-0.353034,-0.145637,-1.34663
1470344255040155,-0.353028,-0.14546,-1.34666
1470344255064173,-0.352753,-0.145349,-1.34632
1470344255086193,-0.352098,-0.144969,-1.34633
1470344255100204,-0.351231,-0.144259,-1.34636
1470344255123733,-0.350696,-0.143499,-1.34625
1470344255146258,-0.350147,-0.142768,-1.34629
1470344255160271,-0.349702,-0.142113,-1.34634
1470344255183290,-0.349675,-0.141943,-1.34635
1470344255206311,-0.349605,-0.142059,-1.34651
1470344255220323,-0.349502,-0.141982,-1.34651
1470344255243369,-0.349569,-0.142294,-1.34632
1470344255266390,-0.349997,-0.142727,-1.34597
1470344255287426,-0.350354,-0.143276,-1.34577
1470344255303423,-0.350327,-0.143461,-1.34526
1470344255326463,-0.350755,-0.143893,-1.34491
1470344255347398,-0.351065,-0.144124,-1.34491
1470344255363409,-0.351059,-0.144101,-1.34474
1470344255386430,-0.35108,-0.144095,-1.34476
1470344255407450,-0.350983,-0.14404,-1.34493
1470344255423971,-0.350983,-0.14404,-1.34493
1470344255446212,-0.350384,-0.143574,-1.34494
1470344255467231,-0.350062,-0.143145,-1.34479
1470344255484248,-0.349958,-0.143068,-1.34479
1470344255506266,-0.349979,-0.143061,-1.34481
1470344255528797,-0.350055,-0.142968,-1.34483
1470344255543314,-0.350055,-0.142968,-1.34483
1470344255566336,-0.350047,-0.143173,-1.34495
1470344255587356,-0.350445,-0.143509,-1.34511
1470344255603368,-0.350823,-0.143851,-1.34525
1470344255626396,-0.351411,-0.144118,-1.3451
1470344255647418,-0.351977,-0.144392,-1.34494
1470344255677444,-0.352107,-0.144639,-1.34493
1470344255686452,-0.352589,-0.145058,-1.34507
1470344255708472,-0.352787,-0.145417,-1.34519
1470344255723991,-0.352637,-0.145856,-1.34562
1470344255746518,-0.352699,-0.145791,-1.34579
1470344255768539,-0.352622,-0.145885,-1.34577
1470344255783549,-0.352525,-0.14583,-1.34594
1470344255806570,-0.352421,-0.145753,-1.34594
1470344255829095,-0.352421,-0.145753,-1.34594
1470344255843132,-0.352492,-0.145637,-1.34579
1470344255866152,-0.352492,-0.145637,-1.34579
1470344255889173,-0.352492,-0.145637,-1.34579
1470344255903187,-0.351388,-0.145186,-1.3456
1470344255926713,-0.351701,-0.145188,-1.34531
1470344255948740,-0.35225,-0.145086,-1.34505
1470344255962751,-0.352935,-0.145407,-1.34473
1470344255985771,-0.353467,-0.145916,-1.34438
1470344256008792,-0.353799,-0.146294,-1.3442
1470344256022806,-0.354332,-0.146803,-1.34385
1470344256046837,-0.35485,-0.147341,-1.34365
1470344256068857,-0.354925,-0.147675,-1.34364
1470344256082869,-0.354822,-0.147598,-1.34364
1470344256105889,-0.354822,-0.147598,-1.34364
1470344256128930,-0.354898,-0.147505,-1.34366
1470344256142766,-0.354788,-0.147405,-1.34348
1470344256165787,-0.354788,-0.147405,-1.34348
1470344256188806,-0.354788,-0.147405,-1.34348
1470344256202819,-0.354685,-0.147329,-1.34348
1470344256226345,-0.35528,-0.14719,-1.34354
1470344256248869,-0.355827,-0.147316,-1.34357
1470344256269887,-0.356284,-0.147335,-1.34344
1470344256285900,-0.356479,-0.147289,-1.3433
1470344256308922,-0.357215,-0.147345,-1.34302
1470344256329944,-0.357703,-0.147306,-1.34259
1470344256345961,-0.357779,-0.147212,-1.3426
1470344256368983,-0.357715,-0.147025,-1.34197
1470344256390003,-0.357912,-0.146749,-1.34155
1470344256406016,-0.358636,-0.146605,-1.34113
1470344256429041,-0.359295,-0.146172,-1.34108
1470344256450063,-0.360294,-0.145711,-1.34104
1470344256466078,-0.361182,-0.144997,-1.34104
1470344256489100,-0.361072,-0.144316,-1.34111
1470344256510117,-0.361088,-0.143704,-1.34119
1470344256526636,-0.361186,-0.143176,-1.34127
1470344256549170,-0.360915,-0.142735,-1.34162
1470344256570180,-0.360811,-0.142658,-1.34162
1470344256586194,-0.361144,-0.142453,-1.34168
1470344256608213,-0.361041,-0.142377,-1.34167
1470344256630239,-0.360943,-0.142323,-1.34184
1470344256645800,-0.360943,-0.142323,-1.34184
1470344256668822,-0.360937,-0.1423,-1.34167
1470344256690856,-0.36084,-0.142247,-1.34184
1470344256705854,-0.360833,-0.142224,-1.34167
1470344256728879,-0.360359,-0.141598,-1.34141
1470344256751403,-0.360255,-0.141522,-1.34141
1470344256766417,-0.360331,-0.141428,-1.34143
1470344256788439,-0.360331,-0.141428,-1.34143
1470344256811458,-0.360304,-0.141258,-1.34144
1470344256825977,-0.360304,-0.141258,-1.34144
1470344256848501,-0.359569,-0.141202,-1.34172
1470344256871521,-0.359466,-0.141126,-1.34172
1470344256885534,-0.359362,-0.141049,-1.34172
1470344256908554,-0.359362,-0.141049,-1.34172
1470344256931580,-0.359335,-0.140879,-1.34173
1470344256945597,-0.359335,-0.140879,-1.34173
1470344256968619,-0.359335,-0.140879,-1.34173
1470344256991638,-0.359335,-0.140879,-1.34173
1470344257005651,-0.3595,-0.140891,-1.34191
1470344257029179,-0.359659,-0.140881,-1.34191
1470344257051707,-0.359583,-0.14082,-1.3421
1470344257065719,-0.3598,-0.140493,-1.34181
1470344257088738,-0.359717,-0.14041,-1.34183
1470344257110758,-0.359717,-0.14041,-1.34183
1470344257125778,-0.35987,-0.140222,-1.34187
1470344257148441,-0.360313,-0.140271,-1.34189
1470344257171463,-0.360313,-0.140271,-1.34189
1470344257192482,-0.360313,-0.140271,-1.34189
1470344257208495,-0.360209,-0.140195,-1.34189
1470344257231521,-0.36064,-0.140044,-1.34178
1470344257252047,-0.360612,-0.139873,-1.3418
1470344257269062,-0.360612,-0.139873,-1.3418
1470344257291082,-0.360612,-0.139873,-1.3418
1470344257312103,-0.360509,-0.139797,-1.34179
1470344257329120,-0.360585,-0.139703,-1.34181
1470344257351144,-0.360606,-0.139696,-1.34183
1470344257372177,-0.360606,-0.139696,-1.34183
1470344257389178,-0.360163,-0.139647,-1.34181
1470344257411198,-0.36006,-0.139571,-1.3418
1470344257432726,-0.359956,-0.139495,-1.3418
1470344257448244,-0.359956,-0.139495,-1.3418
1470344257471265,-0.359956,-0.139495,-1.3418
1470344257492284,-0.359929,-0.139324,-1.34182
1470344257508297,-0.359929,-0.139324,-1.34182
1470344257531322,-0.359929,-0.139324,-1.34182
1470344257552344,-0.359846,-0.139241,-1.34184
1470344257568358,-0.359846,-0.139241,-1.34184
1470344257591380,-0.359819,-0.139071,-1.34185
1470344257613399,-0.359819,-0.139071,-1.34185
1470344257628921,-0.359819,-0.139071,-1.34185
1470344257651446,-0.359819,-0.139071,-1.34185
1470344257673465,-0.359716,-0.138994,-1.34185
1470344257688477,-0.359716,-0.138994,-1.34185
1470344257711498,-0.359792,-0.1389,-1.34187
1470344257734025,-0.359689,-0.138824,-1.34187
1470344257748540,-0.359689,-0.138824,-1.34187
1470344257771562,-0.359585,-0.138748,-1.34187
1470344257793582,-0.359578,-0.138725,-1.3417
1470344257808595,-0.359157,-0.138669,-1.34169
1470344257831622,-0.359053,-0.138593,-1.34169
1470344257853646,-0.359053,-0.138593,-1.34169
1470344257867657,-0.358949,-0.138517,-1.34169
1470344257891679,-0.358128,-0.138126,-1.34152
1470344257913700,-0.356926,-0.137622,-1.3415
1470344257928218,-0.356822,-0.137546,-1.3415
1470344257950741,-0.356719,-0.13747,-1.3415
1470344257973761,-0.356719,-0.13747,-1.3415
1470344257987775,-0.356719,-0.13747,-1.3415
1470344258010794,-0.356263,-0.137222,-1.34133
1470344258034847,-0.356263,-0.137222,-1.34133
1470344258047880,-0.35616,-0.137145,-1.34133
1470344258070899,-0.355581,-0.136673,-1.34136
1470344258093920,-0.354476,-0.136224,-1.34117
1470344258114938,-0.353312,-0.135258,-1.34105
1470344258131458,-0.352078,-0.134563,-1.34088
1470344258153998,-0.350985,-0.133482,-1.34061
1470344258175016,-0.35054,-0.132602,-1.34036
1470344258191031,-0.350503,-0.13165,-1.34048
1470344258214052,-0.350676,-0.130423,-1.34065
1470344258235073,-0.350832,-0.129652,-1.34092
1470344258251091,-0.350145,-0.129083,-1.34078
1470344258274112,-0.348477,-0.12859,-1.34104
1470344258295131,-0.348477,-0.12859,-1.34104
1470344258311146,-0.348477,-0.12859,-1.34104
1470344258334172,-0.348477,-0.12859,-1.34104
1470344258354854,-0.348055,-0.128691,-1.34082
1470344258370869,-0.347972,-0.128607,-1.34084
1470344258393888,-0.34844,-0.128826,-1.34085
1470344258414909,-0.348517,-0.128732,-1.34087
1470344258431426,-0.34859,-0.129221,-1.34065
1470344258453450,-0.348706,-0.129496,-1.34078
1470344258474468,-0.349477,-0.129921,-1.34063
1470344258491483,-0.34969,-0.130023,-1.34031
1470344258513504,-0.34969,-0.130023,-1.34031
1470344258535031,-0.349081,-0.130192,-1.3404
1470344258551552,-0.348978,-0.130116,-1.34039
1470344258573570,-0.348998,-0.130108,-1.34041
1470344258596593,-0.349407,-0.129965,-1.34028
1470344258611604,-0.349304,-0.129888,-1.34028
1470344258634130,-0.349324,-0.129881,-1.3403
1470344258656636,-0.349324,-0.129881,-1.3403
1470344258677654,-0.34956,-0.129777,-1.34032
1470344258693668,-0.350002,-0.129825,-1.34035
1470344258716689,-0.350002,-0.129825,-1.34035
1470344258730706,-0.350078,-0.129731,-1.34037
1470344258753734,-0.349975,-0.129654,-1.34036
1470344258775756,-0.349975,-0.129654,-1.34036
1470344258790767,-0.349996,-0.129647,-1.34038
1470344258813789,-0.349996,-0.129647,-1.34038
1470344258836313,-0.349996,-0.129647,-1.34038
1470344258850836,-0.349969,-0.129477,-1.3404
1470344258873854,-0.349969,-0.129477,-1.3404
1470344258895875,-0.350046,-0.129383,-1.34042
1470344258910890,-0.350046,-0.129383,-1.34042
1470344258933914,-0.350046,-0.129383,-1.34042
1470344258955936,-0.350046,-0.129383,-1.34042
1470344258970951,-0.349943,-0.129307,-1.34042
1470344258993971,-0.349943,-0.129307,-1.34042
1470344259015991,-0.350474,-0.12946,-1.3406
1470344259031010,-0.350923,-0.12953,-1.34079
1470344259054034,-0.351757,-0.12989,-1.3408
1470344259076054,-0.352308,-0.130192,-1.3408
1470344259097073,-0.35304,-0.13032,-1.34101
1470344259114089,-0.353745,-0.130434,-1.34105
1470344259119092,-0.353641,-0.130358,-1.34104
1470344259141619,-0.353641,-0.130358,-1.34104
1470344259160024,-0.353538,-0.130282,-1.34104
1470344259179041,-0.353538,-0.130282,-1.34104
1470344259202061,-0.353538,-0.130282,-1.34104
1470344259220079,-0.352931,-0.129994,-1.34056
1470344259239603,-0.352772,-0.129704,-1.33977
1470344259262127,-0.352737,-0.129711,-1.3393
1470344259280144,-0.352337,-0.129449,-1.33963
1470344259299170,-0.352397,-0.12878,-1.33987
1470344259322181,-0.352397,-0.12878,-1.33987
1470344259339717,-0.3525,-0.128856,-1.33987
1470344259359268,-0.353381,-0.128348,-1.34
1470344259381259,-0.354831,-0.128333,-1.33981
1470344259399273,-0.354905,-0.128593,-1.3393
1470344259419292,-0.354905,-0.128593,-1.3393
1470344259442347,-0.354802,-0.128516,-1.3393
1470344259459369,-0.355497,-0.129035,-1.33912
1470344259479403,-0.356663,-0.129543,-1.33867
1470344259501408,-0.356454,-0.129744,-1.33814
1470344259519427,-0.355859,-0.129427,-1.3375
1470344259539448,-0.35626,-0.129459,-1.33688
1470344259561472,-0.356756,-0.129618,-1.33658
1470344259579486,-0.356756,-0.129618,-1.33658
1470344259599503,-0.355422,-0.129454,-1.33633
1470344259621524,-0.353854,-0.128938,-1.33549
1470344259639562,-0.353238,-0.128757,-1.33402
1470344259659584,-0.353438,-0.128659,-1.33357
1470344259681606,-0.35341,-0.128489,-1.33359
1470344259699622,-0.352644,-0.128088,-1.33391
1470344259719639,-0.353392,-0.127758,-1.33402
1470344259741662,-0.354007,-0.127765,-1.33389
1470344259759682,-0.353226,-0.127748,-1.33384
1470344259778698,-0.352211,-0.127636,-1.33409
1470344259801719,-0.352211,-0.127636,-1.33409
1470344259833253,-0.352592,-0.127394,-1.33448
1470344259839259,-0.35327,-0.127335,-1.33452
1470344259861640,-0.353083,-0.127176,-1.33454
1470344259879656,-0.352033,-0.1273,-1.3346
1470344259899673,-0.35193,-0.127224,-1.3346
1470344259921694,-0.352529,-0.127687,-1.33459
1470344259939717,-0.353212,-0.128233,-1.33457
1470344259960738,-0.353288,-0.128138,-1.33459
1470344259981757,-0.352846,-0.12832,-1.33485
1470344259999774,-0.353077,-0.127683,-1.33543
1470344260018794,-0.355108,-0.127708,-1.33526
1470344260041818,-0.355589,-0.129008,-1.33593
1470344260059838,-0.352346,-0.129728,-1.33654
1470344260078855,-0.352194,-0.12976,-1.33671
1470344260101877,-0.35397,-0.12967,-1.3362
1470344260119892,-0.354161,-0.130205,-1.33583
1470344260140915,-0.35347,-0.13022,-1.33544
1470344260161874,-0.353491,-0.130212,-1.33546
1470344260179891,-0.353491,-0.130212,-1.33546
1470344260200910,-0.353491,-0.130212,-1.33546
1470344260221928,-0.354438,-0.130013,-1.33539
1470344260239465,-0.354514,-0.129919,-1.33541
1470344260261001,-0.353348,-0.129413,-1.33587
1470344260282020,-0.353169,-0.129431,-1.33585
1470344260300038,-0.353881,-0.129109,-1.33547
1470344260321057,-0.353778,-0.128804,-1.33519
1470344260342079,-0.353847,-0.128688,-1.33504
1470344260359098,-0.353847,-0.128688,-1.33504
1470344260380117,-0.354406,-0.128782,-1.33491
1470344260402136,-0.354406,-0.128782,-1.33491
1470344260419153,-0.355042,-0.128782,-1.33481
1470344260440675,-0.355657,-0.128789,-1.33468
1470344260462198,-0.35659,-0.129045,-1.33474
1470344260479215,-0.357398,-0.129233,-1.33477
1470344260502235,-0.357019,-0.129122,-1.33491
1470344260521255,-0.356785,-0.128342,-1.33436
1470344260539779,-0.359495,-0.128277,-1.33362
1470344260562305,-0.36152,-0.12959,-1.33378
1470344260581322,-0.360003,-0.130912,-1.3338
1470344260599337,-0.359746,-0.131024,-1.33375
1470344260622359,-0.361878,-0.130946,-1.33362
1470344260641881,-0.362279,-0.130976,-1.333
1470344260659401,-0.361809,-0.1303,-1.33242
1470344260689428,-0.361069,-0.129997,-1.33224
1470344260701442,-0.360577,-0.129985,-1.33189
1470344260719456,-0.360653,-0.129891,-1.33191
1470344260742481,-0.360653,-0.129891,-1.33191
1470344260761503,-0.360653,-0.129891,-1.33191
1470344260779519,-0.360335,-0.129486,-1.33194
1470344260802539,-0.359658,-0.129118,-1.33193
1470344260823558,-0.359554,-0.129042,-1.33192
1470344260839578,-0.359554,-0.129042,-1.33192
1470344260861601,-0.359734,-0.129024,-1.33194
1470344260881618,-0.35981,-0.12893,-1.33196
1470344260899634,-0.359706,-0.128854,-1.33196
1470344260921654,-0.360294,-0.129116,-1.33182
1470344260942177,-0.361173,-0.129261,-1.3322
1470344260959455,-0.361173,-0.129261,-1.3322
1470344260982475,-0.362017,-0.128985,-1.33214
1470344261001492,-0.36392,-0.129188,-1.33194
1470344261019510,-0.363927,-0.130021,-1.33215
1470344261042533,-0.361705,-0.130806,-1.33218
1470344261063555,-0.360528,-0.130936,-1.33271
1470344261079569,-0.361843,-0.130648,-1.33237
1470344261102589,-0.362356,-0.130775,-1.33192
1470344261122607,-0.361151,-0.13063,-1.33137
1470344261139628,-0.360563,-0.130491,-1.3307
1470344261162188,-0.360197,-0.130703,-1.33016
1470344261183206,-0.360972,-0.130895,-1.32972
1470344261199220,-0.360972,-0.130895,-1.32972
1470344261222242,-0.360965,-0.130873,-1.32955
1470344261243265,-0.361145,-0.130854,-1.32957
1470344261259783,-0.361145,-0.130854,-1.32957
1470344261281804,-0.360709,-0.130404,-1.32975
1470344261302821,-0.360709,-0.130404,-1.32975
1470344261319837,-0.360916,-0.130326,-1.32947
1470344261342375,-0.362543,-0.130721,-1.32971
1470344261362888,-0.361774,-0.130248,-1.32954
1470344261377901,-0.363692,-0.130418,-1.3292
1470344261400921,-0.366194,-0.131944,-1.32936
1470344261423941,-0.364105,-0.133559,-1.32912
1470344261438459,-0.361516,-0.134052,-1.32935
1470344261460830,-0.362035,-0.134003,-1.32939
1470344261483851,-0.362882,-0.134505,-1.32877
1470344261497864,-0.361582,-0.134463,-1.32818
1470344261520883,-0.359984,-0.134239,-1.32793
1470344261543912,-0.359425,-0.134501,-1.32753
1470344261558541,-0.359425,-0.134501,-1.32753
1470344261581563,-0.358781,-0.134326,-1.32767
1470344261603583,-0.359114,-0.134701,-1.32749
1470344261618596,-0.359114,-0.134701,-1.32749
1470344261641620,-0.359114,-0.134701,-1.32749
1470344261664143,-0.360713,-0.134466,-1.32717
1470344261678156,-0.361076,-0.134936,-1.32648
1470344261701176,-0.361048,-0.134766,-1.32649
1470344261724200,-0.361862,-0.134621,-1.32722
1470344261738718,-0.364218,-0.134583,-1.32644
1470344261761242,-0.365822,-0.135814,-1.32642
1470344261784264,-0.362798,-0.136443,-1.32658
1470344261798277,-0.362542,-0.136556,-1.32654
1470344261821297,-0.364585,-0.136365,-1.32625
1470344261844325,-0.365447,-0.136408,-1.32551
1470344261858344,-0.364568,-0.136265,-1.32514
1470344261881366,-0.364568,-0.136265,-1.32514
1470344261903383,-0.364568,-0.136265,-1.32514
1470344261925403,-0.364381,-0.135877,-1.32487
1470344261941424,-0.365066,-0.135609,-1.3248
1470344261963446,-0.365066,-0.135609,-1.3248
1470344261984479,-0.364961,-0.135533,-1.3248
1470344262001480,-0.364961,-0.135533,-1.3248
1470344262023499,-0.364933,-0.135363,-1.32482
1470344262046086,-0.364933,-0.135363,-1.32482
1470344262061098,-0.364933,-0.135363,-1.32482
1470344262084120,-0.364829,-0.135288,-1.32481
1470344262112145,-0.364904,-0.135193,-1.32483
1470344262121152,-0.364821,-0.135111,-1.32485
1470344262144181,-0.364821,-0.135111,-1.32485
1470344262164732,-0.364717,-0.135035,-1.32485
1470344262180731,-0.364717,-0.135035,-1.32485
1470344262203776,-0.364786,-0.134918,-1.3247
1470344262226773,-0.364681,-0.134843,-1.3247
1470344262241792,-0.364681,-0.134843,-1.3247
1470344262263829,-0.364653,-0.134673,-1.32471
1470344262284861,-0.364549,-0.134597,-1.32471
1470344262300872,-0.364549,-0.134597,-1.32471
1470344262323882,-0.36457,-0.13459,-1.32473
1470344262345407,-0.364541,-0.13442,-1.32475
1470344262360875,-0.364541,-0.13442,-1.32475
1470344262383896,-0.365366,-0.134575,-1.32463
1470344262406917,-0.365535,-0.134937,-1.32428
1470344262420930,-0.365535,-0.134937,-1.32428
1470344262443956,-0.365431,-0.134862,-1.32427
1470344262466010,-0.365971,-0.134805,-1.32434
1470344262481024,-0.365971,-0.134805,-1.32434
1470344262504043,-0.366047,-0.134711,-1.32436
1470344262526062,-0.366047,-0.134711,-1.32436
1470344262541086,-0.366239,-0.134465,-1.32455
1470344262564110,-0.36626,-0.134458,-1.32457
1470344262586128,-0.366156,-0.134382,-1.32457
1470344262600156,-0.366231,-0.134288,-1.32459
1470344262624162,-0.366127,-0.134212,-1.32459
1470344262646863,-0.366696,-0.13448,-1.32443
1470344262660876,-0.366772,-0.134386,-1.32445
1470344262683896,-0.366772,-0.134386,-1.32445
1470344262705916,-0.366793,-0.134378,-1.32446
1470344262720930,-0.366869,-0.134284,-1.32448
1470344262743956,-0.366765,-0.134208,-1.32448
1470344262766103,-0.36666,-0.134133,-1.32448
1470344262787124,-0.36666,-0.134133,-1.32448
1470344262804137,-0.36666,-0.134133,-1.32448
1470344262826156,-0.365965,-0.133567,-1.32434
1470344262847326,-0.365861,-0.133492,-1.32433
1470344262864341,-0.365882,-0.133484,-1.32435
1470344262886360,-0.365915,-0.132945,-1.32377
1470344262907380,-0.365937,-0.132938,-1.32379
1470344262923393,-0.36532,-0.132859,-1.32342
1470344262946423,-0.364877,-0.132585,-1.32311
1470344262966946,-0.364953,-0.13249,-1.32313
1470344262983959,-0.364924,-0.132321,-1.32314
1470344263005979,-0.364488,-0.132224,-1.3228
1470344263026997,-0.363872,-0.131991,-1.32264
1470344263044024,-0.363767,-0.131916,-1.32263
1470344263066048,-0.363767,-0.131916,-1.32263
1470344263087083,-0.363843,-0.131821,-1.32265
1470344263104081,-0.363739,-0.131746,-1.32265
1470344263126103,-0.363739,-0.131746,-1.32265
1470344263147137,-0.364491,-0.131435,-1.32293
1470344263164160,-0.365645,-0.130954,-1.32291
1470344263186179,-0.367058,-0.130787,-1.3229
1470344263207196,-0.368228,-0.130627,-1.3222
1470344263224211,-0.368479,-0.130612,-1.32127
1470344263246744,-0.367638,-0.130029,-1.32097
1470344263267266,-0.367638,-0.130029,-1.32097
1470344263283279,-0.368138,-0.130182,-1.32067
1470344263306300,-0.36811,-0.130013,-1.32069
1470344263329321,-0.368295,-0.12982,-1.32121
1470344263343847,-0.368944,-0.129434,-1.32148
1470344263366374,-0.368839,-0.129359,-1.32148
1470344263389394,-0.368915,-0.129264,-1.3215
1470344263404408,-0.368,-0.129005,-1.32146
1470344263426427,-0.36707,-0.128777,-1.32158
1470344263448462,-0.365899,-0.128632,-1.3215
1470344263463477,-0.364263,-0.127991,-1.32081
1470344263486497,-0.36228,-0.127206,-1.32013
1470344263508517,-0.360119,-0.126442,-1.31943
1470344263523530,-0.358721,-0.126126,-1.31873
1470344263546558,-0.358733,-0.125868,-1.3183
1470344263576592,-0.359832,-0.125825,-1.31775
1470344263583599,-0.361004,-0.126246,-1.31681
1470344263606620,-0.361423,-0.126899,-1.3163
1470344263628637,-0.36079,-0.127258,-1.31587
1470344263643155,-0.360073,-0.127535,-1.31547
1470344263666682,-0.36066,-0.128124,-1.31463
1470344263688702,-0.361477,-0.128855,-1.31382
1470344263702716,-0.362141,-0.129349,-1.31301
1470344263726736,-0.362768,-0.129724,-1.31253
1470344263748768,-0.363787,-0.129823,-1.31229
1470344263762780,-0.365325,-0.129796,-1.3116
1470344263786804,-0.366891,-0.129782,-1.3111
1470344263808822,-0.367805,-0.129576,-1.31058
1470344263831847,-0.369096,-0.129684,-1.31002
1470344263846370,-0.370522,-0.130036,-1.30945
1470344263868896,-0.371714,-0.130494,-1.30885
1470344263889915,-0.372441,-0.130687,-1.30793
1470344263905929,-0.372808,-0.131324,-1.30676
1470344263928949,-0.373557,-0.131836,-1.30516
1470344263949977,-0.376026,-0.133381,-1.30309
1470344263965991,-0.378229,-0.134434,-1.30106
1470344263989013,-0.381014,-0.135364,-1.29924
1470344264010032,-0.385361,-0.136124,-1.29758
1470344264026046,-0.389503,-0.137042,-1.29668
1470344264049087,-0.393519,-0.137738,-1.29598
1470344264070104,-0.397914,-0.13811,-1.29518
1470344264086118,-0.402238,-0.137964,-1.29446
1470344264109139,-0.407466,-0.137603,-1.29323
1470344264130158,-0.412186,-0.13747,-1.29192
1470344264146679,-0.415671,-0.13705,-1.29025
1470344264168732,-0.417862,-0.136185,-1.28821
1470344264189751,-0.420428,-0.135534,-1.28666
1470344264206767,-0.422756,-0.135573,-1.28482
1470344264236797,-0.425528,-0.13645,-1.28257
1470344264251215,-0.428845,-0.137601,-1.27984
1470344264266229,-0.432343,-0.138696,-1.27699
1470344264289249,-0.435826,-0.138668,-1.27354
1470344264311269,-0.438867,-0.138162,-1.27014
1470344264326282,-0.440941,-0.137479,-1.26699
1470344264349315,-0.444136,-0.137005,-1.26393
1470344264371334,-0.448299,-0.13647,-1.26081
1470344264386350,-0.453707,-0.135837,-1.25691
1470344264408369,-0.460206,-0.135881,-1.25161
1470344264431390,-0.466418,-0.140392,-1.24403
1470344264445909,-0.491739,-0.151429,-1.23222
1470344264468433,-0.509534,-0.162658,-1.21862
1470344264491455,-0.51024,-0.163814,-1.19597
1470344264505466,-0.477579,-0.1569,-1.16423
1470344264528486,-0.473822,-0.151377,-1.11265
1470344264551517,-0.505563,-0.146835,-1.0508
1470344264572536,-0.535162,-0.144924,-0.996521
1470344264588548,-0.543912,-0.142947,-0.944418
1470344264611570,-0.539445,-0.146511,-0.896264
1470344264632589,-0.534098,-0.151209,-0.855351
1470344264648109,-0.537765,-0.153146,-0.822361
1470344264671423,-0.549355,-0.153152,-0.796759
1470344264692443,-0.567908,-0.155542,-0.777165
1470344264708456,-0.58646,-0.158936,-0.762983
1470344264731477,-0.595958,-0.161908,-0.754197
1470344264752504,-0.59776,-0.164811,-0.74931
1470344264768520,-0.597559,-0.169918,-0.746478
1470344264791540,-0.60247,-0.174739,-0.74266
1470344264812559,-0.605872,-0.175451,-0.739121
1470344264828574,-0.605473,-0.171799,-0.738028
1470344264851608,-0.597802,-0.166245,-0.739294
1470344264872626,-0.59532,-0.16199,-0.738597
1470344264888641,-0.599562,-0.161149,-0.736224
1470344264911662,-0.601397,-0.161289,-0.734466
1470344264940192,-0.598885,-0.161858,-0.732664
1470344264948699,-0.598434,-0.164659,-0.732303
1470344264971726,-0.602221,-0.167157,-0.732266
1470344264992743,-0.60476,-0.167268,-0.734011
1470344265008758,-0.603994,-0.166139,-0.736371
1470344265031780,-0.604142,-0.164419,-0.737992
1470344265052806,-0.606179,-0.162255,-0.737987
1470344265068821,-0.607659,-0.160043,-0.737693
1470344265090840,-0.606331,-0.157246,-0.737884
1470344265112860,-0.604509,-0.154177,-0.737421
1470344265128874,-0.604521,-0.152512,-0.736506
1470344265151464,-0.607213,-0.151319,-0.734196
1470344265172482,-0.60954,-0.149739,-0.732827
1470344265188495,-0.608403,-0.147779,-0.732341
1470344265211517,-0.60401,-0.146079,-0.731401
1470344265234042,-0.604265,-0.1435,-0.728692
1470344265248554,-0.604212,-0.140079,-0.727865
1470344265271729,-0.601474,-0.136596,-0.728038
1470344265293749,-0.600274,-0.133039,-0.728156
1470344265308762,-0.602587,-0.131458,-0.726812
1470344265331784,-0.606275,-0.13178,-0.725797
1470344265353330,-0.604304,-0.131448,-0.725509
1470344265368342,-0.598574,-0.131421,-0.726208
1470344265391362,-0.594463,-0.132102,-0.726217
1470344265413382,-0.59322,-0.132011,-0.725753
1470344265428395,-0.591887,-0.131015,-0.725131
1470344265451459,-0.589511,-0.129166,-0.724843
1470344265473480,-0.587691,-0.12694,-0.724424
1470344265488494,-0.586257,-0.125528,-0.723927
1470344265511520,-0.586299,-0.125419,-0.723962
1470344265534039,-0.586596,-0.126077,-0.723916
1470344265548553,-0.586767,-0.128082,-0.725291
1470344265571579,-0.587949,-0.132248,-0.726673
1470344265593598,-0.590682,-0.139621,-0.727225
1470344265614618,-0.59166,-0.147543,-0.726974
1470344265631633,-0.591367,-0.154983,-0.728067
1470344265653678,-0.591506,-0.160932,-0.729887
1470344265682705,-0.592752,-0.164567,-0.731564
1470344265691713,-0.594372,-0.167102,-0.732723
1470344265714733,-0.594047,-0.168113,-0.734089
1470344265735259,-0.592868,-0.168098,-0.73626
1470344265751778,-0.592379,-0.168927,-0.738929
1470344265773799,-0.592323,-0.169709,-0.741358
1470344265794816,-0.593299,-0.170894,-0.742438
1470344265811832,-0.592321,-0.171303,-0.742437
1470344265833852,-0.589481,-0.170462,-0.743821
1470344265854883,-0.585468,-0.169076,-0.745455
1470344265870895,-0.582282,-0.168042,-0.746332
1470344265893917,-0.579561,-0.168451,-0.744723
1470344265914934,-0.578575,-0.170056,-0.744703
1470344265930950,-0.577811,-0.171463,-0.745425
1470344265953982,-0.579266,-0.171782,-0.747046
1470344265975002,-0.58427,-0.173247,-0.747616
1470344265991014,-0.589661,-0.175122,-0.746184
1470344266014036,-0.589787,-0.177716,-0.745607
1470344266035062,-0.586795,-0.179477,-0.746426
1470344266051079,-0.585742,-0.180154,-0.747332
1470344266074100,-0.586488,-0.180764,-0.746651
1470344266095121,-0.587877,-0.180268,-0.745828
1470344266111133,-0.589784,-0.178135,-0.746048
1470344266134155,-0.590014,-0.17422,-0.746723
1470344266156184,-0.589975,-0.168343,-0.747477
1470344266171199,-0.590246,-0.16142,-0.749243
1470344266194219,-0.591596,-0.157229,-0.750204
1470344266216237,-0.59469,-0.15524,-0.750183
1470344266239767,-0.592831,-0.152483,-0.751129
1470344266241268,-0.589455,-0.148322,-0.752279
1470344266259288,-0.592386,-0.143634,-0.750536
1470344266282307,-0.599549,-0.138849,-0.746974
1470344266298325,-0.604045,-0.135007,-0.747459
1470344266319340,-0.604911,-0.132232,-0.749149
1470344266342370,-0.608056,-0.130325,-0.750561
1470344266357940,-0.612182,-0.127982,-0.75358
1470344266378961,-0.612545,-0.124646,-0.756685
1470344266401982,-0.613377,-0.123058,-0.760261
1470344266417996,-0.614715,-0.122301,-0.763625
1470344266439526,-0.616695,-0.122285,-0.765996
1470344266461553,-0.618288,-0.122561,-0.768137
1470344266476565,-0.621725,-0.123578,-0.768916
1470344266499587,-0.625185,-0.124109,-0.769413
1470344266521605,-0.625731,-0.123192,-0.770405
1470344266537125,-0.622791,-0.120691,-0.77235
1470344266559651,-0.618325,-0.116171,-0.773101
1470344266581670,-0.617681,-0.113374,-0.774164
1470344266596684,-0.62085,-0.109988,-0.774442
1470344266619704,-0.626839,-0.108967,-0.774508
1470344266642229,-0.630774,-0.108931,-0.774421
1470344266656397,-0.629593,-0.107889,-0.773676
1470344266679417,-0.625921,-0.10825,-0.77353
1470344266702439,-0.625813,-0.108669,-0.772163
1470344266716452,-0.628052,-0.110341,-0.769868
1470344266739477,-0.62841,-0.114577,-0.766921
1470344266770022,-0.624759,-0.118221,-0.765116
1470344266778028,-0.617461,-0.119357,-0.764559
1470344266799046,-0.608265,-0.119713,-0.762697
1470344266822066,-0.605204,-0.119297,-0.759993
1470344266838590,-0.607577,-0.118477,-0.757471
1470344266859115,-0.606526,-0.117059,-0.75656
1470344266882136,-0.602712,-0.115505,-0.75704
1470344266898149,-0.598997,-0.113696,-0.759541
1470344266919168,-0.59462,-0.111074,-0.766228
1470344266942193,-0.59043,-0.107569,-0.779865
1470344266958213,-0.580993,-0.103121,-0.79781
1470344266979246,-0.568098,-0.100203,-0.821107
1470344267002251,-0.554542,-0.0956936,-0.851623
1470344267018267,-0.535071,-0.0876339,-0.887679
1470344267039793,-0.514427,-0.0801682,-0.927038
1470344267062318,-0.504716,-0.0811384,-0.970257
1470344267078332,-0.501876,-0.0770953,-1.01536
1470344267099351,-0.490534,-0.0675669,-1.05471
1470344267122372,-0.479282,-0.063686,-1.08678
1470344267139893,-0.480397,-0.071998,-1.11292
1470344267159415,-0.485903,-0.0857135,-1.13218
1470344267181433,-0.486894,-0.0974062,-1.14644
1470344267199449,-0.478887,-0.105588,-1.15725
1470344267219466,-0.471919,-0.115429,-1.16162
1470344267242000,-0.465096,-0.128803,-1.16178
1470344267259535,-0.459004,-0.141256,-1.16173
1470344267279551,-0.450241,-0.148942,-1.16385
1470344267301571,-0.442698,-0.150468,-1.1656
1470344267319586,-0.441054,-0.146826,-1.16278
1470344267339609,-0.440342,-0.141773,-1.16015
1470344267361633,-0.439343,-0.13598,-1.15973
1470344267379649,-0.435664,-0.131954,-1.16231
1470344267399665,-0.432015,-0.130096,-1.16611
1470344267421686,-0.434583,-0.129337,-1.16919
1470344267439707,-0.441644,-0.129203,-1.17101
1470344267459251,-0.445967,-0.12962,-1.173
1470344267482271,-0.446945,-0.129454,-1.17432
1470344267500287,-0.446559,-0.131846,-1.17582
1470344267519304,-0.444122,-0.134564,-1.17709
1470344267549337,-0.4442,-0.136804,-1.17746
1470344267559426,-0.447197,-0.139245,-1.17787
1470344267579444,-0.449533,-0.142801,-1.17909
1470344267601477,-0.448174,-0.1462,-1.18064
1470344267619482,-0.443992,-0.150289,-1.18311
1470344267639505,-0.437817,-0.154672,-1.18661
1470344267665037,-0.432826,-0.15858,-1.18943
1470344267680052,-0.430208,-0.162422,-1.19091
1470344267701072,-0.42838,-0.165464,-1.19181
1470344267722088,-0.425665,-0.167119,-1.19276
1470344267740112,-0.420598,-0.167564,-1.19281
1470344267761135,-0.415866,-0.167986,-1.19262
1470344267782154,-0.413565,-0.16911,-1.19216
1470344267800171,-0.410701,-0.171058,-1.1917
1470344267820187,-0.406141,-0.173331,-1.19231
1470344267842214,-0.401762,-0.175654,-1.19389
1470344267860235,-0.398964,-0.178599,-1.19549
1470344267881254,-0.397107,-0.18104,-1.1972
1470344267904274,-0.394454,-0.182373,-1.19904
1470344267919288,-0.391109,-0.182688,-1.20157
1470344267940813,-0.387781,-0.182607,-1.20452
1470344267962336,-0.383742,-0.18203,-1.20813
1470344267979353,-0.379284,-0.181104,-1.21143
1470344268000371,-0.375351,-0.180315,-1.21504
1470344268022391,-0.371733,-0.179301,-1.21826
1470344268039911,-0.369037,-0.178028,-1.22137
1470344268062437,-0.366662,-0.177016,-1.22481
1470344268082452,-0.364754,-0.176193,-1.22822
1470344268099469,-0.363066,-0.175711,-1.23174
1470344268122490,-0.361336,-0.175319,-1.23528
1470344268142012,-0.359252,-0.174973,-1.23878
1470344268159317,-0.356727,-0.174369,-1.24201
1470344268182336,-0.354822,-0.173712,-1.24493
1470344268202352,-0.354079,-0.172751,-1.24766
1470344268219367,-0.354246,-0.171815,-1.25027
1470344268242397,-0.352691,-0.17069,-1.25342
1470344268269006,-0.350149,-0.170306,-1.25647
1470344268280017,-0.348454,-0.169731,-1.25802
1470344268302036,-0.347294,-0.169057,-1.25945
1470344268322056,-0.34656,-0.168652,-1.26072
1470344268340074,-0.345554,-0.168371,-1.26193
1470344268362599,-0.344181,-0.168423,-1.26327
1470344268381617,-0.343358,-0.168576,-1.26463
1470344268399633,-0.342829,-0.16893,-1.26581
1470344268422653,-0.342087,-0.169125,-1.26637
1470344268442177,-0.341894,-0.170109,-1.26736
1470344268459696,-0.340934,-0.170818,-1.26817
1470344268481717,-0.340788,-0.171461,-1.2687
1470344268502734,-0.340689,-0.171445,-1.26965
1470344268518749,-0.340593,-0.170991,-1.27063
1470344268541775,-0.340941,-0.170344,-1.27134
1470344268562800,-0.341697,-0.169783,-1.27236
1470344268578816,-0.341981,-0.169504,-1.27368
1470344268601835,-0.341548,-0.16907,-1.27449
1470344268622853,-0.340618,-0.168672,-1.27512
1470344268639374,-0.339112,-0.167335,-1.27551
1470344268661900,-0.339006,-0.167261,-1.27551
1470344268682920,-0.340227,-0.16752,-1.27539
1470344268699937,-0.340793,-0.167139,-1.27512
1470344268720953,-0.340372,-0.166867,-1.27529
1470344268742978,-0.340291,-0.166576,-1.27563
1470344268758998,-0.340686,-0.166488,-1.27598
1470344268781017,-0.341378,-0.166626,-1.2763
1470344268802037,-0.342106,-0.166709,-1.27633
1470344268819051,-0.342921,-0.167119,-1.27679
1470344268841575,-0.34372,-0.167332,-1.27712
1470344268862973,-0.343595,-0.167511,-1.27755
1470344268878988,-0.342878,-0.167485,-1.27846
1470344268901006,-0.342873,-0.167346,-1.27928
1470344268922026,-0.343524,-0.166929,-1.27998
1470344268938544,-0.344014,-0.166506,-1.28051
1470344268961067,-0.344083,-0.165811,-1.28122
1470344268982085,-0.343974,-0.165374,-1.28174
1470344268999102,-0.344035,-0.165093,-1.28223
1470344269021120,-0.343776,-0.164825,-1.28256
1470344269044150,-0.343473,-0.164211,-1.28294
1470344269059166,-0.343562,-0.163489,-1.2835
1470344269081187,-0.343786,-0.162988,-1.28387
1470344269104207,-0.344345,-0.162908,-1.28438
1470344269119220,-0.34393,-0.162657,-1.28471
1470344269141745,-0.342925,-0.161492,-1.28496
1470344269164269,-0.342238,-0.161139,-1.28495
1470344269178282,-0.340891,-0.16059,-1.28432
1470344269201302,-0.340188,-0.160414,-1.28322
1470344269224325,-0.339772,-0.160056,-1.28229
1470344269238339,-0.339308,-0.160037,-1.28181
1470344269261361,-0.338811,-0.160437,-1.28111
1470344269283381,-0.339102,-0.160876,-1.28076
1470344269298395,-0.339554,-0.161544,-1.28087
1470344269321415,-0.339626,-0.161448,-1.28088
1470344269344455,-0.339805,-0.161425,-1.2809
1470344269358486,-0.339889,-0.161729,-1.28116
1470344269381507,-0.340972,-0.162219,-1.28179
1470344269404527,-0.341889,-0.162682,-1.28209
1470344269418541,-0.341209,-0.1626,-1.28271
1470344269441569,-0.341103,-0.162526,-1.28271
1470344269463591,-0.341176,-0.16243,-1.28272
1470344269478605,-0.342014,-0.162378,-1.28308
1470344269501626,-0.342742,-0.162464,-1.28311
1470344269523645,-0.342742,-0.162464,-1.28311
1470344269545183,-0.342742,-0.162464,-1.28311
1470344269561701,-0.342742,-0.162464,-1.28311
1470344269583720,-0.343045,-0.162254,-1.28314
1470344269604738,-0.343638,-0.162118,-1.28335
1470344269621755,-0.3437,-0.161612,-1.28356
1470344269644283,-0.343796,-0.161277,-1.28375
1470344269664806,-0.344149,-0.160846,-1.28415
1470344269681821,-0.344743,-0.160477,-1.28452
1470344269703841,-0.344933,-0.160266,-1.28504
1470344269724859,-0.344717,-0.159506,-1.28511
1470344269741877,-0.343896,-0.158931,-1.28529
1470344269763901,-0.343896,-0.158931,-1.28529
1470344269784922,-0.343896,-0.158931,-1.28529
1470344269801936,-0.34379,-0.158857,-1.28529
1470344269831962,-0.343706,-0.158778,-1.28531
1470344269846482,-0.344071,-0.158661,-1.28486
1470344269861001,-0.344071,-0.158661,-1.28486
1470344269884023,-0.344144,-0.158564,-1.28487
1470344269905041,-0.344071,-0.158661,-1.28486
1470344269921055,-0.344144,-0.158564,-1.28487
1470344269944080,-0.344502,-0.15852,-1.28491
1470344269966105,-0.344497,-0.158498,-1.28474
1470344269981124,-0.344497,-0.158498,-1.28474
1470344270004136,-0.34414,-0.157953,-1.28495
1470344270026156,-0.345089,-0.157517,-1.28519
1470344270041678,-0.34569,-0.157171,-1.28574
1470344270064204,-0.344675,-0.157128,-1.28634
1470344270086223,-0.343489,-0.157033,-1.28644
1470344270103237,-0.342167,-0.156018,-1.2857
1470344270124257,-0.340763,-0.154692,-1.28515
1470344270146781,-0.341489,-0.154918,-1.28437
1470344270160296,-0.341989,-0.155279,-1.28374
1470344270184318,-0.341575,-0.155168,-1.28326
1470344270214345,-0.341648,-0.155071,-1.28328
1470344270220350,-0.341648,-0.155071,-1.28328
1470344270244375,-0.342528,-0.154892,-1.28286
1470344270266398,-0.342528,-0.154892,-1.28286
1470344270280410,-0.343295,-0.154712,-1.28292
1470344270303431,-0.343875,-0.155215,-1.28321
1470344270326453,-0.34308,-0.155248,-1.28333
1470344270340971,-0.34308,-0.155248,-1.28333
1470344270364498,-0.34308,-0.155248,-1.28333
1470344270386517,-0.343048,-0.155078,-1.28334
1470344270401530,-0.343368,-0.155066,-1.2835
1470344270423549,-0.343368,-0.155066,-1.2835
1470344270446575,-0.343283,-0.154987,-1.28352
1470344270467140,-0.343283,-0.154987,-1.28352
1470344270484138,-0.343177,-0.154913,-1.28352
1470344270506160,-0.342966,-0.154765,-1.28352
1470344270527179,-0.34226,-0.154674,-1.28351
1470344270544199,-0.342228,-0.154504,-1.28352
1470344270566727,-0.342228,-0.154504,-1.28352
1470344270587746,-0.343442,-0.15438,-1.28377
1470344270603761,-0.344467,-0.154234,-1.28366
1470344270626781,-0.344228,-0.153939,-1.28385
1470344270647803,-0.342719,-0.153471,-1.28414
1470344270663823,-0.341206,-0.15298,-1.28427
1470344270686843,-0.3411,-0.152906,-1.28427
1470344270707861,-0.341173,-0.15281,-1.28429
1470344270723877,-0.340318,-0.152524,-1.2846
1470344270746910,-0.338765,-0.1523,-1.2847
1470344270766935,-0.337257,-0.152197,-1.28447
1470344270783949,-0.336206,-0.152326,-1.28439
1470344270805970,-0.335959,-0.152242,-1.28425
1470344270827989,-0.336032,-0.152146,-1.28426
1470344270844009,-0.336105,-0.15205,-1.28428
1470344270866035,-0.335805,-0.151801,-1.28412
1470344270887054,-0.33551,-0.151798,-1.28442
1470344270904069,-0.335531,-0.151793,-1.28444
1470344270926088,-0.335604,-0.151697,-1.28446
1470344270949116,-0.335498,-0.151623,-1.28446
1470344270964137,-0.335908,-0.151487,-1.28449
1470344270986158,-0.335908,-0.151487,-1.28449
1470344271009177,-0.335802,-0.151413,-1.28449
1470344271024191,-0.336176,-0.151566,-1.28465
1470344271046716,-0.33688,-0.151657,-1.28467
1470344271069244,-0.336775,-0.151583,-1.28466
1470344271083255,-0.337157,-0.151299,-1.28488
1470344271106276,-0.337823,-0.151066,-1.28511
1470344271129298,-0.338779,-0.151039,-1.28516
1470344271143315,-0.339026,-0.151123,-1.2853
1470344271166341,-0.339026,-0.151123,-1.2853
1470344271189362,-0.339278,-0.151005,-1.28534
1470344271203374,-0.3403,-0.151094,-1.28507
1470344271226394,-0.34066,-0.151436,-1.28474
1470344271248921,-0.340866,-0.151337,-1.2843
1470344271263436,-0.34082,-0.151356,-1.28382
1470344271286457,-0.341501,-0.151462,-1.28337
1470344271308475,-0.342031,-0.151737,-1.28272
1470344271323490,-0.342854,-0.151882,-1.28215
1470344271346516,-0.343693,-0.151969,-1.2817
1470344271368540,-0.344464,-0.151949,-1.28112
1470344271383555,-0.34566,-0.151765,-1.28043
1470344271406575,-0.346532,-0.151796,-1.27969
1470344271428595,-0.346989,-0.151713,-1.27846
1470344271450620,-0.348088,-0.151636,-1.2773
1470344271466640,-0.349419,-0.151444,-1.27614
1470344271488660,-0.350733,-0.151278,-1.27514
1470344271509679,-0.35196,-0.151462,-1.27455
1470344271526694,-0.353796,-0.15148,-1.27403
1470344271549222,-0.35612,-0.151422,-1.27292
1470344271569495,-0.359086,-0.151569,-1.27199
1470344271586513,-0.361502,-0.151609,-1.27103
1470344271608531,-0.36329,-0.151386,-1.2696
1470344271630552,-0.364479,-0.151375,-1.26842
1470344271646573,-0.36624,-0.15123,-1.26745
1470344271668594,-0.368393,-0.151643,-1.26646
1470344271689613,-0.368864,-0.151493,-1.26493
1470344271706630,-0.368509,-0.151367,-1.26289
1470344271728649,-0.369388,-0.151081,-1.26096
1470344271750172,-0.371741,-0.15033,-1.26011
1470344271766692,-0.376171,-0.149796,-1.25971
1470344271788711,-0.382792,-0.149018,-1.25961
1470344271809730,-0.38851,-0.149082,-1.25953
1470344271826747,-0.392791,-0.149647,-1.25959
1470344271849275,-0.395747,-0.150063,-1.25927
1470344271871800,-0.398231,-0.150535,-1.25939
1470344271886814,-0.40101,-0.150974,-1.25905
1470344271908833,-0.40493,-0.1524,-1.25819
1470344271931854,-0.414087,-0.155146,-1.25643
1470344271945870,-0.42877,-0.160533,-1.25122
1470344271968896,-0.441869,-0.170422,-1.24419
1470344271991916,-0.452931,-0.181415,-1.23597
1470344272005929,-0.453727,-0.196935,-1.22484
1470344272028951,-0.453068,-0.202561,-1.19449
1470344272051975,-0.460237,-0.20025,-1.14294
1470344272065997,-0.477274,-0.200753,-1.09067
1470344272089014,-0.488153,-0.202895,-1.03807
1470344272111034,-0.496472,-0.204933,-0.98736
1470344272132053,-0.505447,-0.209934,-0.941202
1470344272156783,-0.518018,-0.216278,-0.898971
1470344272171796,-0.529881,-0.223247,-0.866392
1470344272192815,-0.537554,-0.227939,-0.846246
1470344272208830,-0.543997,-0.23023,-0.83459
1470344272231850,-0.552551,-0.229629,-0.827322
1470344272252881,-0.563999,-0.227098,-0.823914
1470344272269320,-0.574491,-0.224041,-0.824557
1470344272291340,-0.583923,-0.220694,-0.829011
1470344272312357,-0.58757,-0.217203,-0.833091
1470344272329372,-0.584795,-0.213826,-0.836314
1470344272351399,-0.579542,-0.211888,-0.838651
1470344272372421,-0.576782,-0.210402,-0.838975
1470344272388435,-0.577232,-0.210194,-0.836899
1470344272411456,-0.575802,-0.209353,-0.833951
1470344272432474,-0.571832,-0.20745,-0.830919
1470344272448997,-0.565918,-0.204878,-0.828595
1470344272471127,-0.566106,-0.198705,-0.825035
1470344272492148,-0.573665,-0.189661,-0.820921
1470344272509162,-0.577087,-0.179724,-0.817841
1470344272531182,-0.566296,-0.168774,-0.815321
1470344272552705,-0.559032,-0.154735,-0.812151
1470344272568723,-0.55725,-0.139248,-0.808623
1470344272591743,-0.55452,-0.124361,-0.804808
1470344272612762,-0.549218,-0.11096,-0.800879
1470344272628777,-0.545197,-0.101244,-0.797185
1470344272651803,-0.544651,-0.0948667,-0.793932
1470344272672828,-0.544407,-0.0918928,-0.792639
1470344272688839,-0.542854,-0.0920849,-0.79137
1470344272711860,-0.541334,-0.0946152,-0.788257
1470344272732878,-0.542773,-0.0987605,-0.78314
1470344272749397,-0.542215,-0.102281,-0.777339
1470344272770921,-0.537772,-0.103818,-0.772845
1470344272792940,-0.534997,-0.102543,-0.768735
1470344272807954,-0.537178,-0.100142,-0.764384
1470344272831976,-0.540927,-0.0984731,-0.758997
1470344272854002,-0.543025,-0.0968709,-0.753928
1470344272869020,-0.541502,-0.0968433,-0.749044
1470344272891040,-0.540996,-0.0962731,-0.744082
1470344272915065,-0.542573,-0.0957716,-0.739798
1470344272929075,-0.546155,-0.095441,-0.735739
1470344272951603,-0.5483,-0.0965216,-0.732835
1470344272974128,-0.547412,-0.0975552,-0.731151
1470344272988141,-0.543524,-0.0977337,-0.731408
1470344273011161,-0.53826,-0.09651,-0.733888
1470344273034184,-0.535637,-0.0977709,-0.734373
1470344273048701,-0.53655,-0.101325,-0.735546
1470344273071224,-0.540193,-0.10364,-0.73802
1470344273094245,-0.544619,-0.104302,-0.740706
1470344273108256,-0.549326,-0.108266,-0.741301
1470344273131279,-0.552751,-0.115132,-0.740645
1470344273154302,-0.552825,-0.122803,-0.739048
1470344273175324,-0.551937,-0.128934,-0.739077
1470344273191337,-0.550164,-0.133666,-0.739125
1470344273214358,-0.548093,-0.135604,-0.739769
1470344273235381,-0.54811,-0.137026,-0.739548
1470344273251398,-0.550254,-0.138947,-0.738996
1470344273274423,-0.550546,-0.143007,-0.73907
1470344273295442,-0.549851,-0.14898,-0.738766
1470344273311457,-0.548075,-0.15454,-0.739334
1470344273334477,-0.542611,-0.156822,-0.740406
1470344273355500,-0.539012,-0.15733,-0.741939
1470344273371519,-0.539255,-0.157619,-0.744356
1470344273376525,-0.537241,-0.158479,-0.747262
1470344273399544,-0.533616,-0.159989,-0.75092
1470344273417562,-0.532876,-0.161428,-0.753984
1470344273436578,-0.534278,-0.162781,-0.753816
1470344273459227,-0.533711,-0.163872,-0.752856
1470344273477242,-0.532835,-0.163932,-0.751585
1470344273497260,-0.531615,-0.163843,-0.751158
1470344273519279,-0.531391,-0.163342,-0.750738
1470344273544806,-0.530153,-0.162202,-0.750423
1470344273557317,-0.526763,-0.160897,-0.75021
1470344273579781,-0.525621,-0.158825,-0.749869
1470344273597797,-0.52486,-0.156826,-0.749249
1470344273616816,-0.525302,-0.155621,-0.749528
1470344273639835,-0.530913,-0.156146,-0.750798
1470344273661866,-0.54041,-0.161885,-0.753266
1470344273676878,-0.547494,-0.169198,-0.754678
1470344273699897,-0.54828,-0.177476,-0.756219
1470344273721918,-0.550208,-0.186045,-0.757185
1470344273736932,-0.552552,-0.195142,-0.760543
1470344273766530,-0.556317,-0.204761,-0.762649
1470344273781546,-0.558386,-0.213007,-0.764807
1470344273796560,-0.559301,-0.219127,-0.766927
1470344273819582,-0.557676,-0.224199,-0.769583
1470344273841600,-0.559805,-0.227413,-0.769908
1470344273857122,-0.561904,-0.229652,-0.771886
1470344273882799,-0.559294,-0.23071,-0.774871
1470344273896811,-0.555966,-0.231353,-0.776666
1470344273916829,-0.557572,-0.232301,-0.777846
1470344273939849,-0.558474,-0.23357,-0.780044
1470344273957371,-0.555895,-0.233372,-0.782482
1470344273976394,-0.553408,-0.23257,-0.784223
1470344273999416,-0.552966,-0.232227,-0.784569
1470344274017432,-0.553394,-0.232196,-0.785132
1470344274036450,-0.552326,-0.231715,-0.785955
1470344274059478,-0.551326,-0.231428,-0.786033
1470344274078495,-0.550847,-0.231534,-0.786128
1470344274096512,-0.550557,-0.231922,-0.786457
1470344274119534,-0.550894,-0.233241,-0.787132
1470344274137549,-0.551999,-0.234787,-0.787911
1470344274157072,-0.55637,-0.236887,-0.788382
1470344274179597,-0.558435,-0.239173,-0.788394
1470344274197615,-0.558041,-0.241287,-0.787889
1470344274216631,-0.559275,-0.242051,-0.78726
1470344274239653,-0.558525,-0.242544,-0.787288
1470344274257676,-0.559288,-0.242731,-0.786808
1470344274276698,-0.559801,-0.241461,-0.787703
1470344274299720,-0.558556,-0.239913,-0.789608
1470344274317735,-0.555234,-0.237631,-0.7934
1470344274338754,-0.549593,-0.232349,-0.801258
1470344274359781,-0.540725,-0.223008,-0.815599
1470344274381803,-0.527452,-0.209841,-0.837238
1470344274397821,-0.510553,-0.194346,-0.866161
1470344274419837,-0.494624,-0.178502,-0.89972
1470344274441856,-0.48463,-0.16631,-0.937356
1470344274458378,-0.486659,-0.157455,-0.979239
1470344274479902,-0.492472,-0.149797,-1.02028
1470344274501924,-0.490104,-0.142716,-1.05566
1470344274517936,-0.483801,-0.138979,-1.08574
1470344274538956,-0.484293,-0.144859,-1.11133
1470344274561986,-0.484646,-0.155468,-1.13332
1470344274578000,-0.47756,-0.162657,-1.14895
1470344274599020,-0.468667,-0.168268,-1.15941
1470344274622040,-0.465148,-0.175511,-1.16729
1470344274638057,-0.468115,-0.185338,-1.17415
1470344274659082,-0.46727,-0.193925,-1.17889
1470344274682102,-0.46062,-0.196052,-1.18119
1470344274700119,-0.450801,-0.191915,-1.17978
1470344274719137,-0.441136,-0.187656,-1.17685
1470344274742157,-0.435755,-0.183089,-1.1747
1470344274760186,-0.438342,-0.176452,-1.17609
1470344274779203,-0.441254,-0.169635,-1.17817
1470344274802223,-0.439946,-0.165397,-1.1785
1470344274820239,-0.443624,-0.164352,-1.17756
1470344274839256,-0.44763,-0.165694,-1.17745
1470344274857780,-0.445825,-0.169922,-1.17828
1470344274879306,-0.44214,-0.173385,-1.17775
1470344274899324,-0.439791,-0.17392,-1.17522
1470344274917339,-0.435363,-0.174147,-1.17507
1470344274939358,-0.433998,-0.175048,-1.17513
1470344274959383,-0.434584,-0.175798,-1.17491
1470344274977400,-0.431528,-0.175308,-1.17508
1470344274999422,-0.427358,-0.173214,-1.17672
1470344275019437,-0.42455,-0.172095,-1.17858
1470344275037453,-0.424654,-0.171756,-1.17924
1470344275059477,-0.424651,-0.171288,-1.17916
1470344275079500,-0.423827,-0.170485,-1.1794
1470344275097518,-0.423872,-0.170741,-1.18029
1470344275119538,-0.424375,-0.170925,-1.18073
1470344275139558,-0.425484,-0.170452,-1.18119
1470344275157580,-0.425813,-0.169784,-1.18178
1470344275179603,-0.425736,-0.169009,-1.18234
1470344275199621,-0.426138,-0.168388,-1.18231
1470344275217637,-0.426848,-0.168006,-1.18198
1470344275239657,-0.425678,-0.167201,-1.18187
1470344275259677,-0.423943,-0.165959,-1.18228
1470344275277699,-0.42205,-0.165128,-1.18273
1470344275299719,-0.419913,-0.163778,-1.18311
1470344275320737,-0.418502,-0.162455,-1.18295
1470344275337753,-0.418657,-0.162224,-1.18285
1470344275359780,-0.418657,-0.162224,-1.18285
1470344275380804,-0.417866,-0.161768,-1.18256
1470344275396819,-0.416228,-0.161536,-1.18311
1470344275419839,-0.414747,-0.161747,-1.18374
1470344275440858,-0.415308,-0.162298,-1.18385
1470344275457377,-0.416473,-0.163103,-1.18396
1470344275479900,-0.416126,-0.16389,-1.18442
1470344275500920,-0.414071,-0.164074,-1.18533
1470344275516934,-0.412955,-0.163989,-1.18619
1470344275539955,-0.413371,-0.164563,-1.18674
1470344275560984,-0.413843,-0.16478,-1.18688
1470344275576999,-0.413699,-0.164802,-1.18733
1470344275600020,-0.41284,-0.164969,-1.18784
1470344275621039,-0.411762,-0.164817,-1.18842
1470344275643057,-0.410797,-0.164735,-1.18901
1470344275659078,-0.410683,-0.164722,-1.18975
1470344275681705,-0.410681,-0.164572,-1.1904
1470344275695715,-0.410357,-0.164623,-1.19082
1470344275718737,-0.409616,-0.164416,-1.19142
1470344275741758,-0.409647,-0.164382,-1.19173
1470344275756273,-0.410479,-0.164541,-1.19191
1470344275779299,-0.41118,-0.164662,-1.19224
1470344275801318,-0.411446,-0.164559,-1.19289
1470344275816333,-0.410798,-0.164454,-1.19364
1470344275839354,-0.410905,-0.164087,-1.19414
1470344275861385,-0.41137,-0.163922,-1.19467
1470344275875396,-0.411525,-0.16375,-1.19532
1470344275899418,-0.411164,-0.163658,-1.19593
1470344275921437,-0.410623,-0.163596,-1.19651
1470344275936451,-0.4104,-0.163307,-1.19715
1470344275959475,-0.409618,-0.16293,-1.19778
1470344275981501,-0.408949,-0.162622,-1.1984
1470344275995513,-0.408488,-0.162869,-1.19878
1470344276019535,-0.409033,-0.163165,-1.19846
1470344276041555,-0.40986,-0.163244,-1.19774
1470344276056073,-0.409847,-0.163452,-1.19739
1470344276078595,-0.408681,-0.162669,-1.197
1470344276101616,-0.408539,-0.162784,-1.19605
1470344276115628,-0.411303,-0.163143,-1.19523
1470344276138649,-0.415094,-0.163892,-1.19506
1470344276161693,-0.418591,-0.164167,-1.19537
1470344276182713,-0.421676,-0.165617,-1.19627
1470344276198727,-0.424857,-0.167319,-1.19667
1470344276221748,-0.427381,-0.168804,-1.19672
1470344276242766,-0.428951,-0.169937,-1.19696
1470344276259288,-0.431224,-0.171783,-1.19679
1470344276281814,-0.437906,-0.174984,-1.19503
1470344276302833,-0.450832,-0.180868,-1.19164
1470344276318846,-0.461851,-0.188322,-1.18816
1470344276341867,-0.476178,-0.196516,-1.18316
1470344276361898,-0.487683,-0.200949,-1.16967
1470344276377911,-0.482795,-0.202475,-1.14332
1470344276401934,-0.470642,-0.205404,-1.10411
1470344276421953,-0.47498,-0.209126,-1.0552
1470344276438968,-0.489166,-0.21367,-1.00293
1470344276461536,-0.497474,-0.215579,-0.952431
1470344276482557,-0.504721,-0.215869,-0.904945
1470344276498571,-0.508897,-0.219461,-0.858891
1470344276521591,-0.515077,-0.219865,-0.818568
1470344276542609,-0.525029,-0.217095,-0.787206
1470344276558629,-0.534533,-0.209171,-0.765572
1470344276581154,-0.538995,-0.199201,-0.751476
1470344276604174,-0.544369,-0.190696,-0.743477
1470344276618186,-0.551505,-0.183958,-0.740308
1470344276641207,-0.555156,-0.18108,-0.739704
1470344276664245,-0.553316,-0.177487,-0.740573
1470344276678257,-0.544843,-0.173786,-0.744634
1470344276701279,-0.537934,-0.168121,-0.748214
1470344276724298,-0.537881,-0.162685,-0.747752
1470344276738311,-0.543047,-0.158641,-0.745731
1470344276760836,-0.544546,-0.156706,-0.744859
1470344276784080,-0.541412,-0.155465,-0.743717
1470344276798094,-0.536508,-0.154074,-0.741716
1470344276821112,-0.533631,-0.152332,-0.738895
1470344276844134,-0.534096,-0.150116,-0.736698
1470344276858655,-0.535887,-0.147477,-0.73632
1470344276881187,-0.537156,-0.145953,-0.736353
1470344276904206,-0.537448,-0.14359,-0.735708
1470344276918217,-0.535321,-0.141127,-0.735283
1470344276941237,-0.533224,-0.138318,-0.735506
1470344276964267,-0.530867,-0.136134,-0.735795
1470344276978279,-0.530198,-0.134939,-0.734987
1470344277001300,-0.529899,-0.134465,-0.732921
1470344277024321,-0.52915,-0.134352,-0.730311
1470344277038334,-0.528049,-0.135195,-0.727328
1470344277060861,-0.527142,-0.135531,-0.724218
1470344277084205,-0.528534,-0.133629,-0.720916
1470344277105224,-0.529168,-0.132338,-0.718379
1470344277121238,-0.5309,-0.131104,-0.716034
1470344277144259,-0.531604,-0.127412,-0.713987
1470344277165287,-0.532601,-0.12304,-0.713353
1470344277181303,-0.533404,-0.121137,-0.709907
1470344277204324,-0.536064,-0.120776,-0.704827
1470344277225342,-0.534114,-0.120601,-0.702596
1470344277241356,-0.528917,-0.119759,-0.700974
1470344277264386,-0.530752,-0.119683,-0.698366
1470344277285405,-0.535266,-0.122385,-0.696204
1470344277301418,-0.536129,-0.124878,-0.694551
1470344277324439,-0.535205,-0.126297,-0.694145
1470344277345457,-0.534778,-0.126857,-0.694819
1470344277360976,-0.535966,-0.126543,-0.69493
1470344277384046,-0.538528,-0.125404,-0.695031
1470344277405066,-0.541022,-0.124893,-0.695125
1470344277421081,-0.541881,-0.124784,-0.695449
1470344277444101,-0.542252,-0.125387,-0.696137
1470344277465161,-0.543054,-0.125866,-0.697108
1470344277482176,-0.544621,-0.126193,-0.698051
1470344277504199,-0.545726,-0.126683,-0.6992
1470344277525217,-0.545829,-0.12649,-0.700202
1470344277541228,-0.54591,-0.125996,-0.701157
1470344277563755,-0.546729,-0.125728,-0.702345
1470344277586776,-0.547783,-0.125585,-0.703647
1470344277601790,-0.548874,-0.124925,-0.70455
1470344277623809,-0.549646,-0.12433,-0.705138
1470344277646835,-0.550026,-0.12378,-0.705995
1470344277661348,-0.550422,-0.123803,-0.70639
1470344277683665,-0.550947,-0.123496,-0.706495
1470344277706687,-0.551281,-0.123633,-0.706056
1470344277728707,-0.551417,-0.124014,-0.705443
1470344277743721,-0.550344,-0.124633,-0.704816
1470344277766752,-0.548501,-0.125578,-0.704497
1470344277780765,-0.546713,-0.125661,-0.70481
1470344277803786,-0.544581,-0.124245,-0.70687
1470344277826806,-0.546869,-0.12005,-0.706943
1470344277840818,-0.551745,-0.116673,-0.706567
1470344277864502,-0.555495,-0.117776,-0.707676
1470344277886522,-0.555592,-0.120722,-0.709198
1470344277900534,-0.5531,-0.125018,-0.709173
1470344277923554,-0.554141,-0.131278,-0.70854
