timestamp,x,y,z,w
1470331891229589,0.0783691,-0.0735474,0.333069,0.936707
1470331891246104,0.0765991,-0.0739746,0.334045,0.936462
1470331891268123,0.0777588,-0.0720215,0.33551,0.936035
1470331891290145,0.078064,-0.0709839,0.336304,0.935791
1470331891304656,0.0772095,-0.0714111,0.336792,0.935669
1470331891328177,0.0748291,-0.0724487,0.336731,0.935791
1470331891381725,0.0733643,-0.072998,0.336792,0.935852
1470331891382726,0.0735474,-0.0722046,0.33728,0.93573
1470331891383227,0.0738525,-0.071106,0.337463,0.935669
1470331891403245,0.0730591,-0.0707397,0.337524,0.93573
1470331891421260,0.0704346,-0.071228,0.337463,0.935913
1470331891441278,0.0682373,-0.0714111,0.337585,0.936035
1470331891463299,0.0682373,-0.0702515,0.337769,0.936096
1470331891492825,0.0680542,-0.0689087,0.338196,0.936035
1470331891503334,0.067627,-0.0675049,0.338684,0.935974
1470331891522852,0.0669556,-0.0662842,0.338867,0.936096
1470331891537366,0.0667114,-0.0657959,0.339172,0.935974
1470331891559385,0.065918,-0.06604,0.339294,0.935974
1470331891581906,0.0669556,-0.0654297,0.340088,0.935669
1470331891596919,0.0673828,-0.06427,0.341003,0.935425
1470331891619439,0.067749,-0.0629883,0.341675,0.935181
1470331891641960,0.0679932,-0.0623779,0.342346,0.934998
1470331891656974,0.0666504,-0.0619507,0.342712,0.934998
1470331891679492,0.0653687,-0.0612793,0.343262,0.934937
1470331891702013,0.0643311,-0.0593872,0.343994,0.934875
1470331891717027,0.0640259,-0.057251,0.344543,0.934814
1470331891739547,0.0625,-0.0562134,0.344849,0.934875
1470331891762066,0.0612793,-0.0560913,0.345337,0.934753
1470331891777081,0.0609741,-0.0551758,0.346313,0.934448
1470331891799601,0.0618896,-0.0534668,0.347656,0.934021
1470331891822120,0.0629883,-0.0517578,0.349243,0.933411
1470331891837134,0.0636597,-0.0501099,0.350891,0.932861
1470331891859654,0.0635376,-0.0490723,0.352173,0.932434
1470331891882174,0.0640869,-0.0480957,0.353577,0.931946
1470331891897188,0.0649414,-0.0464478,0.354858,0.931458
1470331891926716,0.0657349,-0.0446167,0.356079,0.93103
1470331891942229,0.0661621,-0.0430298,0.3573,0.930603
1470331891957242,0.0662842,-0.0419312,0.358459,0.930176
1470331891979262,0.0664063,-0.0420532,0.359253,0.929871
1470331892001782,0.0651855,-0.0421143,0.35968,0.92981
1470331892016796,0.0639038,-0.0415039,0.360352,0.929688
1470331892039317,0.0628662,-0.0407104,0.36084,0.929565
1470331892061836,0.0619507,-0.0401611,0.361023,0.929565
1470331892076850,0.0609131,-0.0397949,0.36145,0.929504
1470331892099369,0.0599976,-0.0391235,0.361633,0.929504
1470331892121890,0.0587769,-0.038147,0.361206,0.92981
1470331892138405,0.0574341,-0.0372925,0.360962,0.930054
1470331892159423,0.0560913,-0.0363159,0.360596,0.930298
1470331892181945,0.0548706,-0.0353394,0.360535,0.93042
1470331892198459,0.0543823,-0.034729,0.360413,0.930481
1470331892219478,0.053894,-0.0341797,0.360291,0.930603
1470331892241997,0.0524292,-0.0337524,0.360107,0.930786
1470331892258512,0.0508423,-0.0333252,0.359436,0.931152
1470331892279532,0.0496216,-0.03302,0.358887,0.931458
1470331892302052,0.0487671,-0.03302,0.358521,0.93158
1470331892318566,0.0484619,-0.0328979,0.358154,0.931763
1470331892339587,0.0475464,-0.0327759,0.357483,0.932068
1470331892362107,0.0460205,-0.0328979,0.35675,0.932434
1470331892378120,0.0447388,-0.0332031,0.35614,0.932739
1470331892399639,0.0440063,-0.0328979,0.355652,0.932983
1470331892422160,0.0430298,-0.0327148,0.355225,0.933167
1470331892438174,0.0414429,-0.0324097,0.354919,0.93335
1470331892459693,0.0397949,-0.0319214,0.354614,0.933594
1470331892482714,0.0389404,-0.0313721,0.354187,0.933777
1470331892499229,0.0383301,-0.0307007,0.353638,0.934082
1470331892521749,0.0371704,-0.0303345,0.353271,0.934265
1470331892542767,0.0358276,-0.0302124,0.353394,0.934265
1470331892559282,0.0354614,-0.0300293,0.353516,0.934204
1470331892581803,0.0355835,-0.0299683,0.35376,0.934143
1470331892602823,0.0350952,-0.0302734,0.353882,0.934082
1470331892619337,0.0338745,-0.0306396,0.353943,0.934082
1470331892641357,0.0325317,-0.0309448,0.354248,0.934021
1470331892662876,0.0317383,-0.0310669,0.354553,0.93396
1470331892678891,0.031189,-0.0310059,0.354675,0.933899
1470331892701410,0.0296631,-0.03125,0.354858,0.933899
1470331892722930,0.0266724,-0.0317993,0.354919,0.933899
1470331892738945,0.0230103,-0.0325928,0.354858,0.934021
1470331892761464,0.0203247,-0.0327759,0.354858,0.934082
1470331892782483,0.0183105,-0.0322876,0.354797,0.934143
1470331892798998,0.0170288,-0.0314331,0.354553,0.934326
1470331892821518,0.015625,-0.0305786,0.354309,0.934448
1470331892842564,0.0142822,-0.0299683,0.354004,0.934631
1470331892859053,0.0134277,-0.0294189,0.35376,0.934753
1470331892881573,0.0130615,-0.0289307,0.353638,0.934814
1470331892902642,0.0130005,-0.0285034,0.353699,0.934814
1470331892919182,0.0130615,-0.0283203,0.353943,0.934692
1470331892949183,0.0133057,-0.0284424,0.354248,0.93457
1470331892962774,0.0136719,-0.0286255,0.354675,0.934387
1470331892979258,0.0139771,-0.0291138,0.355225,0.934204
1470331893001731,0.0140381,-0.0300293,0.355896,0.933899
1470331893022779,0.0144043,-0.0306396,0.356506,0.933655
1470331893039273,0.0153198,-0.0309448,0.357178,0.93335
1470331893061785,0.0164185,-0.03125,0.357971,0.932983
1470331893084305,0.0175781,-0.0315552,0.358704,0.932739
1470331893099318,0.0186157,-0.0317993,0.359497,0.932373
1470331893121839,0.0198364,-0.0321045,0.360535,0.931946
1470331893143900,0.0214844,-0.0324707,0.361511,0.931519
1470331893158371,0.0231323,-0.0326538,0.362549,0.931091
1470331893181392,0.0244141,-0.032959,0.363342,0.930725
1470331893203915,0.0251465,-0.0333252,0.364014,0.93042
1470331893218429,0.026001,-0.0333862,0.364502,0.930176
1470331893241447,0.0268555,-0.0330811,0.364624,0.930115
1470331893263966,0.0271606,-0.0327759,0.364502,0.930176
1470331893278479,0.0268555,-0.0325928,0.364319,0.930237
1470331893301499,0.0263672,-0.0326538,0.364075,0.930359
1470331893324020,0.0263672,-0.0324707,0.36377,0.930542
1470331893338532,0.0265503,-0.0323486,0.363586,0.930603
1470331893361553,0.0266724,-0.0325928,0.363586,0.930603
1470331893384075,0.0267944,-0.0328369,0.363586,0.930542
1470331893398587,0.0271606,-0.032959,0.363586,0.930542
1470331893421607,0.0270386,-0.0334473,0.363586,0.930542
1470331893444127,0.0265503,-0.0343018,0.363586,0.930542
1470331893458639,0.026123,-0.0350952,0.363586,0.930481
1470331893481663,0.0259399,-0.0356445,0.363708,0.93042
1470331893504185,0.0258179,-0.0360107,0.363647,0.93042
1470331893518194,0.0258179,-0.0363159,0.363525,0.930481
1470331893541715,0.0256348,-0.0366211,0.363342,0.930542
1470331893564236,0.0251465,-0.0369263,0.363342,0.930542
1470331893586756,0.024353,-0.0375366,0.363403,0.930542
1470331893601768,0.0239258,-0.0380859,0.363342,0.930542
1470331893624289,0.0239258,-0.0385132,0.363525,0.93042
1470331893645308,0.0251465,-0.0388794,0.364563,0.929993
1470331893661834,0.0274658,-0.0402832,0.366272,0.929199
1470331893684350,0.0305786,-0.0415039,0.368286,0.928223
1470331893705361,0.034668,-0.0425415,0.371094,0.926941
1470331893720876,0.041687,-0.0431519,0.374146,0.925354
1470331893743896,0.0524902,-0.041626,0.37793,0.923401
1470331893764915,0.0653687,-0.0378418,0.382507,0.920837
1470331893781430,0.0772095,-0.0343628,0.387268,0.91803
1470331893803955,0.0888672,-0.0308228,0.391418,0.915344
1470331893825534,0.102722,-0.0247803,0.395325,0.912415
1470331893841485,0.11792,-0.0139771,0.398682,0.909302
1470331893864022,0.131592,-0.00134277,0.401123,0.906494
1470331893885063,0.142456,0.0113525,0.40271,0.904053
1470331893901042,0.150879,0.0246582,0.403625,0.902039
1470331893924060,0.158447,0.0390015,0.403625,0.900208
1470331893945095,0.166931,0.0552979,0.402588,0.898254
1470331893961096,0.175903,0.072937,0.40094,0.896057
1470331893984112,0.184631,0.0908813,0.398376,0.893799
1470331894006661,0.192444,0.108398,0.395325,0.891541
1470331894027694,0.19928,0.125671,0.391846,0.889282
1470331894044171,0.205139,0.142639,0.387817,0.887207
1470331894067187,0.210571,0.159607,0.383057,0.885071
1470331894081218,0.215393,0.176636,0.377869,0.882874
1470331894104260,0.218811,0.192993,0.372864,0.880737
1470331894126766,0.221069,0.208618,0.367615,0.878845
1470331894140796,0.222717,0.223572,0.362488,0.876892
1470331894164273,0.223938,0.237854,0.358093,0.874634
1470331894186794,0.224792,0.251282,0.354187,0.872253
1470331894200807,0.226074,0.263916,0.350525,0.869629
1470331894223832,0.227844,0.274841,0.348022,0.86676
1470331894246848,0.229126,0.28363,0.346924,0.864075
1470331894267874,0.229126,0.290222,0.347107,0.861816
1470331894283883,0.228027,0.294983,0.348206,0.859985
1470331894306423,0.226807,0.298035,0.350098,0.858521
1470331894335523,0.224976,0.299194,0.352905,0.857422
1470331894343955,0.221924,0.297913,0.356934,0.856995
1470331894373962,0.217834,0.29364,0.362183,0.857361
1470331894387475,0.213501,0.286804,0.36792,0.858337
1470331894404000,0.208435,0.277832,0.37439,0.85968
1470331894426509,0.203003,0.266235,0.38092,0.861816
1470331894447575,0.197205,0.251282,0.387451,0.864685
1470331894464057,0.189758,0.233093,0.39386,0.868591
1470331894486565,0.179565,0.212158,0.400269,0.873169
1470331894507606,0.16925,0.190308,0.406616,0.877319
1470331894524146,0.1604,0.167908,0.411621,0.881226
1470331894546645,0.148865,0.143127,0.415588,0.885742
1470331894567726,0.134216,0.117554,0.4198,0.889832
1470331894584151,0.12085,0.0947876,0.424133,0.892395
1470331894606671,0.111145,0.0740967,0.427063,0.894226
1470331894627725,0.101318,0.0532837,0.429382,0.895752
1470331894644208,0.0935059,0.0344849,0.43103,0.89679
1470331894666727,0.0869141,0.0171509,0.433533,0.896729
1470331894687761,0.0804443,0.000488281,0.435181,0.896667
1470331894704258,0.0742798,-0.0123291,0.434875,0.897278
1470331894726778,0.0699463,-0.0202637,0.434265,0.897827
1470331894747798,0.0651855,-0.0272217,0.433472,0.898376
1470331894764312,0.0571289,-0.0353394,0.431824,0.899414
1470331894786833,0.0484009,-0.0422974,0.42926,0.900879
1470331894807852,0.0432129,-0.0455933,0.427368,0.901855
1470331894823866,0.0391235,-0.0459595,0.425964,0.902649
1470331894846887,0.0360107,-0.0402832,0.423462,0.904236
1470331894867909,0.0327148,-0.0358887,0.420959,0.905701
1470331894883422,0.0241699,-0.0378418,0.419312,0.906677
1470331894906940,0.0123291,-0.0424805,0.418152,0.907227
1470331894928962,0.00891113,-0.0441284,0.416626,0.907959
1470331894943475,0.0107422,-0.0432739,0.415283,0.908569
1470331894966494,0.012207,-0.039978,0.414673,0.908997
1470331894989021,0.0134888,-0.036377,0.415039,0.908936
1470331895003557,0.0123291,-0.0365601,0.415588,0.908691
1470331895026570,0.00811768,-0.0383911,0.415833,0.908569
1470331895049072,0.00653076,-0.0385132,0.415771,0.908569
1470331895063596,0.00793457,-0.0372925,0.415161,0.908875
1470331895086627,0.00909424,-0.0365601,0.414612,0.90918
1470331895109123,0.00872803,-0.0366821,0.414368,0.909302
1470331895123637,0.00805664,-0.0370483,0.414673,0.909119
1470331895146658,0.00854492,-0.0371094,0.415039,0.908997
1470331895169178,0.010437,-0.0368652,0.415222,0.908875
1470331895183702,0.0128174,-0.0369263,0.41571,0.90863
1470331895206710,0.0166626,-0.0368042,0.416992,0.907959
1470331895229230,0.022522,-0.0365601,0.418823,0.906982
1470331895250253,0.0301514,-0.036499,0.420532,0.906006
1470331895266764,0.0375977,-0.0370483,0.422241,0.904907
1470331895289283,0.0437622,-0.0383301,0.424133,0.903687
1470331895310304,0.0491943,-0.039978,0.426208,0.902344
1470331895326817,0.055481,-0.0407715,0.42804,0.901062
1470331895349339,0.0632324,-0.039978,0.430054,0.899658
1470331895370357,0.0723877,-0.0375977,0.432129,0.898071
1470331895386371,0.0823364,-0.0337524,0.434265,0.896301
1470331895408943,0.093689,-0.0269165,0.436646,0.894287
1470331895430500,0.105347,-0.0177612,0.439148,0.892029
1470331895446427,0.117126,-0.00714111,0.440918,0.889771
1470331895468947,0.129395,0.00549316,0.441956,0.887573
1470331895490464,0.141357,0.0203247,0.442566,0.885254
1470331895506480,0.15387,0.0368652,0.442566,0.882629
1470331895528999,0.167175,0.0546875,0.441833,0.879639
1470331895550095,0.180908,0.0741577,0.440186,0.876343
1470331895566567,0.194153,0.0947266,0.437256,0.872986
1470331895589060,0.205872,0.115845,0.433105,0.869812
1470331895610076,0.216553,0.137634,0.427856,0.866638
1470331895626588,0.226257,0.159912,0.421509,0.863403
1470331895649108,0.235352,0.182495,0.414551,0.859863
1470331895670160,0.244263,0.205261,0.406799,0.855957
1470331895686654,0.253357,0.227661,0.398254,0.851624
1470331895709163,0.262268,0.249329,0.38916,0.847046
1470331895737710,0.270935,0.269714,0.379822,0.842285
1470331895746704,0.278931,0.28894,0.369812,0.837769
1470331895769219,0.286255,0.307678,0.359314,0.833191
1470331895790281,0.292419,0.324463,0.34967,0.828735
1470331895805786,0.297119,0.34021,0.340576,0.824524
1470331895829268,0.299866,0.35498,0.332153,0.82074
1470331895850288,0.301941,0.369446,0.323975,0.816895
1470331895865801,0.303955,0.383301,0.316162,0.812805
1470331895889345,0.304932,0.395752,0.309509,0.809021
1470331895911344,0.303528,0.40625,0.304626,0.806152
1470331895933876,0.299683,0.415344,0.301331,0.804199
1470331895948876,0.294617,0.423645,0.299194,0.802551
1470331895971396,0.2901,0.430664,0.298035,0.800903
1470331895985918,0.286072,0.43573,0.298157,0.799561
1470331896014950,0.28186,0.438782,0.299683,0.798828
1470331896038961,0.277832,0.440369,0.302246,0.798401
1470331896045967,0.274658,0.440369,0.30603,0.798035
1470331896069026,0.271179,0.438965,0.311523,0.797913
1470331896091549,0.265686,0.43396,0.318787,0.799622
1470331896106018,0.257935,0.42511,0.327698,0.803284
1470331896129040,0.24884,0.412354,0.338623,0.808228
1470331896151559,0.24176,0.400024,0.350769,0.811401
1470331896172578,0.235413,0.388611,0.362183,0.813782
1470331896189094,0.229858,0.37677,0.37207,0.816528
1470331896211659,0.224915,0.361877,0.382141,0.819946
1470331896232663,0.219421,0.343445,0.393066,0.824219
1470331896249146,0.211731,0.32312,0.403748,0.829224
1470331896279174,0.199341,0.299011,0.414856,0.835815
1470331896292685,0.18573,0.272888,0.426575,0.84198
1470331896309233,0.174622,0.245117,0.43811,0.846985
1470331896331721,0.165405,0.216614,0.447693,0.851563
1470331896352774,0.154785,0.188965,0.45459,0.856506
1470331896369254,0.144714,0.163391,0.458984,0.861145
1470331896391773,0.137634,0.13739,0.463806,0.864258
1470331896412794,0.130432,0.110596,0.467896,0.867065
1470331896429309,0.120728,0.0858765,0.470337,0.869873
1470331896451828,0.109924,0.0633545,0.471497,0.87262
1470331896472875,0.100586,0.0437012,0.471497,0.875
1470331896488865,0.0941772,0.0271606,0.47113,0.876587
1470331896511382,0.0872192,0.0130615,0.470642,0.877869
1470331896532911,0.0789185,0.000366211,0.468994,0.879639
1470331896556922,0.0731201,-0.00701904,0.46582,0.881775
1470331896571454,0.0692139,-0.0109863,0.463379,0.883362
1470331896592954,0.0637207,-0.0157471,0.461487,0.884644
1470331896608970,0.0562134,-0.020813,0.460022,0.885803
1470331896631492,0.048584,-0.0227051,0.458923,0.886841
1470331896653008,0.0432739,-0.0211792,0.458618,0.887268
1470331896676562,0.0407715,-0.0193481,0.458801,0.887329
1470331896691543,0.0391846,-0.0194092,0.459351,0.887146
1470331896714063,0.0373535,-0.0209351,0.460205,0.886719
1470331896728590,0.0371704,-0.0217896,0.460815,0.886414
1470331896751597,0.0389404,-0.020813,0.460938,0.886292
1470331896772655,0.0405884,-0.0194092,0.46106,0.886169
1470331896789131,0.0394897,-0.0198975,0.461792,0.885864
1470331896811652,0.0371704,-0.020752,0.463379,0.885071
1470331896834172,0.0362549,-0.0199585,0.46521,0.884216
1470331896849207,0.0372314,-0.0170898,0.466309,0.883606
1470331896871717,0.038269,-0.0130005,0.46698,0.883301
1470331896894224,0.0386963,-0.00787354,0.467834,0.882874
1470331896908239,0.0388184,-0.000915527,0.468384,0.882629
1470331896931758,0.0386963,0.00811768,0.468445,0.882568
1470331896954278,0.038208,0.0186157,0.468018,0.882629
1470331896968291,0.0372314,0.0302734,0.467163,0.882813
1470331896991814,0.0359497,0.0426025,0.465515,0.88324
1470331897013833,0.0348511,0.0551758,0.462952,0.883911
1470331897028345,0.0344849,0.06604,0.459473,0.88501
1470331897051370,0.0353394,0.074646,0.454651,0.88678
1470331897073887,0.0380859,0.0820313,0.448242,0.889282
1470331897088403,0.0430908,0.0880737,0.440186,0.892517
1470331897111420,0.0491943,0.0909424,0.430664,0.896484
1470331897134440,0.0534668,0.0888672,0.420837,0.901123
1470331897155459,0.0552368,0.0823975,0.410278,0.906494
1470331897171500,0.0567017,0.0732422,0.398376,0.912476
1470331897194059,0.0604248,0.0626831,0.385925,0.918396
1470331897215041,0.065918,0.0510864,0.373718,0.923767
1470331897231555,0.069397,0.0370483,0.362366,0.92865
1470331897254075,0.0708008,0.022644,0.352478,0.9328
1470331897275095,0.0725098,0.0106201,0.344482,0.935852
1470331897291636,0.0758057,0.00170898,0.33905,0.937683
1470331897314128,0.0787964,-0.00506592,0.335999,0.938538
1470331897335190,0.078064,-0.0106812,0.335022,0.938843
1470331897351677,0.0754395,-0.0145874,0.336304,0.938599
1470331897374202,0.076416,-0.0153198,0.339355,0.937378
1470331897395201,0.0804443,-0.0133057,0.343323,0.935608
1470331897411718,0.0854492,-0.0102539,0.348083,0.933472
1470331897434237,0.0921021,-0.00622559,0.354004,0.930603
1470331897455256,0.100159,-0.00152588,0.361023,0.927124
1470331897471770,0.108765,0.00366211,0.369019,0.922974
1470331897493790,0.118042,0.0102539,0.377686,0.918274
1470331897515309,0.127014,0.0178223,0.387085,0.913025
1470331897531891,0.13446,0.0256348,0.396912,0.907532
1470331897554344,0.138123,0.0332642,0.406921,0.902283
1470331897575440,0.136414,0.039978,0.417053,0.897644
1470331897591377,0.133118,0.046936,0.426636,0.893311
1470331897614398,0.131714,0.0562744,0.435608,0.888611
1470331897635416,0.131348,0.0665283,0.443909,0.88385
1470331897651432,0.13208,0.0766602,0.4505,0.879578
1470331897656936,0.131287,0.0860596,0.455933,0.876038
1470331897679512,0.128235,0.0938721,0.460876,0.873047
1470331897702481,0.124573,0.0995483,0.464355,0.871155
1470331897717511,0.121216,0.102844,0.465515,0.870605
1470331897739512,0.118286,0.10553,0.464722,0.871094
1470331897762086,0.114563,0.109131,0.463257,0.871948
1470331897786053,0.109863,0.112,0.461182,0.87323
1470331897799625,0.105713,0.114624,0.45697,0.875671
1470331897822140,0.101685,0.118042,0.451172,0.878662
1470331897838637,0.0966187,0.121826,0.444336,0.882202
1470331897870128,0.0899048,0.124268,0.43689,0.886292
1470331897882139,0.0826416,0.126587,0.428711,0.890625
1470331897898653,0.0758667,0.130188,0.419373,0.895203
1470331897919689,0.0702515,0.135254,0.410034,0.89917
1470331897942244,0.0637207,0.138489,0.402344,0.902649
1470331897958708,0.0563965,0.139832,0.394409,0.906433
1470331897979754,0.0491333,0.140991,0.385315,0.910583
1470331898002286,0.0424194,0.14447,0.376099,0.914185
1470331898033326,0.0357666,0.14801,0.369019,0.916809
1470331898039824,0.0284424,0.148743,0.364197,0.918884
1470331898064803,0.0206299,0.148193,0.359741,0.920959
1470331898078320,0.0126343,0.146851,0.355713,0.922852
1470331898102382,0.00494385,0.145874,0.352661,0.924255
1470331898122354,-0.0010376,0.145874,0.350098,0.925232
1470331898138368,-0.00512695,0.145386,0.347473,0.92627
1470331898159390,-0.00933838,0.142578,0.345947,0.927246
1470331898183410,-0.0143433,0.138306,0.345764,0.927917
1470331898198423,-0.0184326,0.134644,0.345947,0.928284
1470331898219449,-0.0203857,0.132202,0.345764,0.928711
1470331898242017,-0.0205078,0.130188,0.345459,0.929077
1470331898258479,-0.0198975,0.128296,0.34552,0.929321
1470331898279555,-0.019043,0.126831,0.345459,0.929565
1470331898302017,-0.0184937,0.125854,0.344666,0.930054
1470331898317053,-0.0195313,0.123474,0.343262,0.930847
1470331898339576,-0.0210571,0.119995,0.341553,0.931885
1470331898362102,-0.0215454,0.116272,0.34021,0.932861
1470331898378585,-0.0213013,0.112671,0.339478,0.933533
1470331898399621,-0.0216064,0.108521,0.339417,0.934082
1470331898422151,-0.022522,0.103638,0.33905,0.934692
1470331898438638,-0.0224609,0.0993042,0.338684,0.935364
1470331898462660,-0.020813,0.0961914,0.33844,0.935791
1470331898482178,-0.0187378,0.09375,0.338867,0.935913
1470331898498692,-0.0177002,0.0909424,0.339478,0.936035
1470331898519715,-0.0178223,0.0875854,0.339844,0.936218
1470331898542231,-0.0177002,0.0842285,0.339783,0.936523
1470331898560335,-0.0164795,0.0817871,0.339966,0.936707
1470331898579811,-0.0150757,0.0800781,0.340332,0.936707
1470331898602284,-0.0142212,0.0787354,0.34082,0.936646
1470331898618301,-0.0139771,0.0772095,0.341248,0.936646
1470331898639819,-0.013916,0.0759277,0.341675,0.936584
1470331898662338,-0.0133667,0.0749512,0.342285,0.936462
1470331898678356,-0.0126953,0.0744019,0.342834,0.93634
1470331898699873,-0.0117188,0.0740967,0.343445,0.936157
1470331898722429,-0.0108643,0.0739746,0.344238,0.935852
1470331898739934,-0.0103149,0.0739746,0.345215,0.935486
1470331898759426,-0.00970459,0.0743408,0.346313,0.935059
1470331898781946,-0.00860596,0.0750122,0.347534,0.93457
1470331898799963,-0.00756836,0.0758057,0.348694,0.934082
1470331898819525,-0.00738525,0.0762939,0.349854,0.933655
1470331898842046,-0.00744629,0.0767822,0.350891,0.933167
1470331898860050,-0.00708008,0.0776367,0.351929,0.932739
1470331898879534,-0.00665283,0.0784912,0.353088,0.932251
1470331898902080,-0.00616455,0.0789795,0.354309,0.931702
1470331898920182,-0.00616455,0.0787354,0.355469,0.931335
1470331898939603,-0.00671387,0.0778809,0.356567,0.930969
1470331898962108,-0.00689697,0.0772095,0.357727,0.930542
1470331898980191,-0.0065918,0.0772095,0.35907,0.930054
1470331898999642,-0.00634766,0.0769653,0.360596,0.929504
1470331899022228,-0.00671387,0.0762329,0.361877,0.929016
1470331899040219,-0.00714111,0.0751953,0.363098,0.92865
1470331899059783,-0.00708008,0.0741577,0.364197,0.928284
1470331899082239,-0.00671387,0.0733643,0.365295,0.927917
1470331899100261,-0.00622559,0.0722656,0.366272,0.927612
1470331899119762,-0.00610352,0.0705566,0.367126,0.927429
1470331899142283,-0.00604248,0.0686646,0.367798,0.927307
1470331899159809,-0.00549316,0.0671997,0.368408,0.927185
1470331899179803,-0.00494385,0.065918,0.369141,0.927002
1470331899202332,-0.00469971,0.0647583,0.369873,0.926758
1470331899220444,-0.00531006,0.0634766,0.370972,0.926392
1470331899239880,-0.00579834,0.0626221,0.372192,0.925964
1470331899262388,-0.00549316,0.0625,0.373657,0.925415
1470331899279922,-0.00524902,0.0626831,0.37561,0.924622
1470331899299477,-0.00592041,0.0628052,0.37854,0.923401
1470331899321987,-0.00726318,0.0629272,0.382935,0.92157
1470331899340473,-0.00848389,0.0627441,0.388611,0.919189
1470331899360966,-0.00891113,0.0634155,0.395569,0.916138
1470331899381988,-0.00811768,0.0655518,0.403748,0.912415
1470331899400001,-0.00585938,0.0686646,0.413208,0.907959
1470331899421021,-0.00305176,0.0722046,0.424561,0.902466
1470331899442041,-0.000183105,0.0754395,0.437866,0.895813
1470331899460058,0.00311279,0.0790405,0.452332,0.888306
1470331899481117,0.00854492,0.0831299,0.46759,0.879944
1470331899502111,0.0149536,0.0880127,0.483704,0.870605
1470331899520109,0.0211792,0.0931396,0.500488,0.860413
1470331899541169,0.0268555,0.0980225,0.517517,0.849548
1470331899562152,0.0318604,0.102783,0.534729,0.838074
1470331899580163,0.0366211,0.107971,0.552185,0.825806
1470331899608690,0.0414429,0.113525,0.56958,0.812927
1470331899622202,0.0459595,0.119202,0.586548,0.799744
1470331899640301,0.0498657,0.124756,0.603149,0.786133
1470331899661253,0.0535278,0.130493,0.619507,0.772156
1470331899682255,0.0568237,0.135742,0.635681,0.757751
1470331899699771,0.0596924,0.140747,0.651611,0.74292
1470331899722291,0.062439,0.146118,0.667114,0.727722
1470331899742309,0.0651245,0.151733,0.682007,0.712402
1470331899759824,0.0672607,0.15625,0.696411,0.697083
1470331899782345,0.0688477,0.160034,0.710693,0.681519
1470331899801866,0.0703735,0.163513,0.72467,0.665588
1470331899819879,0.0720825,0.167297,0.738098,0.649536
1470331899842400,0.0736694,0.170959,0.750732,0.633789
1470331899862417,0.0749512,0.17395,0.762878,0.618103
1470331899887470,0.0760498,0.176147,0.774353,0.602844
1470331899902499,0.0772705,0.177856,0.785217,0.588013
1470331899922487,0.0783081,0.177673,0.795471,0.573914
1470331899940045,0.0797119,0.176941,0.804932,0.560608
1470331899962507,0.0812988,0.175171,0.814026,0.547668
1470331899982024,0.0826416,0.173218,0.822815,0.53479
1470331900000176,0.0836792,0.17157,0.830994,0.522461
1470331900022608,0.0845337,0.169983,0.838257,0.511047
1470331900042150,0.0848389,0.168152,0.844971,0.500427
1470331900060142,0.0848389,0.166443,0.851196,0.490356
1470331900082661,0.0847778,0.165222,0.856689,0.48114
1470331900102221,0.0843506,0.164368,0.861328,0.473145
1470331900120243,0.0838623,0.163269,0.865356,0.466248
1470331900142716,0.0834351,0.162109,0.869019,0.459839
1470331900162279,0.0827637,0.160767,0.872314,0.454163
1470331900187256,0.081604,0.159851,0.874878,0.449707
1470331900202269,0.0805664,0.159119,0.876831,0.446472
1470331900222843,0.079895,0.158081,0.878418,0.443787
1470331900239303,0.0794067,0.15625,0.879944,0.441406
1470331900261822,0.0786133,0.154419,0.881348,0.439514
1470331900282841,0.0778809,0.153198,0.882263,0.438232
1470331900299356,0.0772095,0.152161,0.882996,0.437134
1470331900321879,0.0765991,0.15033,0.883972,0.435913
1470331900342895,0.0757446,0.148804,0.884888,0.434753
1470331900358910,0.0748291,0.148193,0.885498,0.433899
1470331900381930,0.0740967,0.148071,0.885986,0.433044
1470331900402949,0.0736084,0.147644,0.886536,0.432068
1470331900419464,0.0732422,0.14679,0.887207,0.431091
1470331900441984,0.0727539,0.145874,0.887817,0.430298
1470331900463003,0.0723267,0.145264,0.888428,0.42926
1470331900479018,0.0720825,0.145081,0.889038,0.428101
1470331900501539,0.0718994,0.145325,0.889587,0.426941
1470331900522612,0.0717773,0.145264,0.890137,0.425842
1470331900539071,0.0715942,0.144653,0.890686,0.424927
1470331900561595,0.071228,0.144165,0.891296,0.423889
1470331900583115,0.0708618,0.143982,0.891907,0.422729
1470331900599128,0.0702515,0.144226,0.892456,0.421509
1470331900621646,0.0695801,0.144775,0.892944,0.420471
1470331900644174,0.0689087,0.144958,0.893372,0.419617
1470331900659208,0.0682983,0.144958,0.893738,0.418884
1470331900681700,0.067688,0.144897,0.894165,0.418152
1470331900704721,0.0670776,0.145142,0.894592,0.417236
1470331900719234,0.0664063,0.145752,0.894836,0.416565
1470331900755308,0.0658569,0.145996,0.895081,0.416016
1470331900764303,0.0651855,0.145996,0.895325,0.415588
1470331900778289,0.0643921,0.145996,0.895569,0.415222
1470331900801807,0.0636597,0.146118,0.895691,0.414978
1470331900824331,0.0630493,0.146606,0.895691,0.414978
1470331900838362,0.0625,0.147522,0.895569,0.414917
1470331900861860,0.0617065,0.148438,0.895508,0.414917
1470331900884405,0.0609131,0.149353,0.895264,0.415222
1470331900898395,0.0601196,0.149658,0.895142,0.415405
1470331900921916,0.0593872,0.150024,0.895142,0.415466
1470331900944435,0.0588989,0.151306,0.89502,0.415344
1470331900958948,0.0588379,0.15332,0.894836,0.414917
1470331900981517,0.0594482,0.156006,0.894714,0.414124
1470331901004029,0.0605469,0.158752,0.894775,0.412781
1470331901018504,0.0618896,0.161804,0.894897,0.411133
1470331901041523,0.0636597,0.16571,0.894775,0.409607
1470331901064098,0.0657349,0.169861,0.894592,0.407898
1470331901085089,0.0679321,0.173462,0.894653,0.405945
1470331901101576,0.0705566,0.176758,0.894592,0.404175
1470331901124635,0.0737305,0.179565,0.89447,0.40271
1470331901145116,0.0769043,0.181885,0.894592,0.400818
1470331901161633,0.0794678,0.183044,0.895081,0.398621
1470331901184151,0.0814819,0.182007,0.896118,0.396423
1470331901205225,0.0834961,0.182312,0.896484,0.394958
1470331901221705,0.0859985,0.184082,0.896484,0.393677
1470331901244205,0.0882568,0.187012,0.896057,0.392639
1470331901265228,0.09021,0.188721,0.895691,0.392273
1470331901281739,0.0917969,0.188049,0.895508,0.392639
1470331901304299,0.0935669,0.187805,0.894836,0.393921
1470331901325278,0.0959473,0.188538,0.893555,0.395813
1470331901341793,0.0976563,0.18811,0.892395,0.398254
1470331901364316,0.0975342,0.185242,0.891846,0.400879
1470331901385421,0.0969238,0.183655,0.890686,0.404236
1470331901401855,0.097168,0.184021,0.88855,0.408691
1470331901424366,0.0977173,0.183838,0.886169,0.413818
1470331901445385,0.0970459,0.180481,0.884705,0.41864
1470331901461900,0.0949097,0.175964,0.88385,0.422729
1470331901484451,0.0932007,0.174866,0.882385,0.426697
1470331901505439,0.0927124,0.177002,0.880005,0.430725
1470331901520953,0.0922241,0.177734,0.878052,0.434509
1470331901544474,0.090332,0.175598,0.877136,0.437622
1470331901564997,0.0872803,0.172607,0.876892,0.439941
1470331901581008,0.0849609,0.172485,0.875854,0.442505
1470331901604529,0.0839233,0.174255,0.874268,0.445129
1470331901626567,0.0828247,0.173462,0.873047,0.447998
1470331901641062,0.081604,0.170532,0.87207,0.451233
1470331901664085,0.0810547,0.167603,0.870911,0.454712
1470331901686603,0.0808716,0.164368,0.869934,0.457825
1470331901701132,0.0805664,0.160828,0.869019,0.460876
1470331901724151,0.0809937,0.15863,0.867676,0.46405
1470331901746656,0.0817871,0.156372,0.866577,0.466675
1470331901761170,0.0822754,0.153198,0.865967,0.468811
1470331901784691,0.0829468,0.148987,0.865417,0.471008
1470331901806713,0.0836792,0.144226,0.864929,0.473267
1470331901821222,0.0840454,0.139099,0.86438,0.475708
1470331901844256,0.0836182,0.133484,0.864014,0.478149
1470331901866765,0.0828857,0.127197,0.863525,0.480835
1470331901887808,0.0810547,0.120239,0.863098,0.483704
1470331901904297,0.0782471,0.115417,0.862488,0.486389
1470331901926817,0.0748291,0.116028,0.861572,0.488464
1470331901947882,0.069519,0.117126,0.861511,0.489014
1470331901964370,0.0617676,0.115906,0.862488,0.488647
1470331901986872,0.0533447,0.114563,0.86322,0.488586
1470331902007890,0.0472412,0.117432,0.863647,0.487854
1470331902024405,0.0425415,0.11853,0.865173,0.485352
1470331902046493,0.0372314,0.116394,0.866943,0.483093
1470331902067944,0.0319824,0.113647,0.86792,0.482361
1470331902084459,0.0292358,0.118103,0.868286,0.480774
1470331902106480,0.0278931,0.121338,0.87085,0.475464
1470331902128009,0.0253296,0.120239,0.87384,0.470398
1470331902144014,0.0212402,0.118225,0.875854,0.467285
1470331902166533,0.0184937,0.119934,0.878052,0.462769
1470331902189054,0.0186768,0.122314,0.881653,0.455322
1470331902204066,0.0195313,0.121948,0.885559,0.447693
1470331902226589,0.0184326,0.120422,0.889221,0.440796
1470331902247605,0.015686,0.119873,0.893433,0.432495
1470331902264122,0.0134888,0.121582,0.898315,0.421875
1470331902286654,0.0123901,0.125183,0.902954,0.410889
1470331902307660,0.0116577,0.129639,0.907288,0.39978
1470331902324176,0.0100098,0.133972,0.911926,0.387634
1470331902346729,0.00842285,0.137573,0.916565,0.375183
1470331902367718,0.00714111,0.142151,0.920654,0.363342
1470331902384229,0.00646973,0.148804,0.924194,0.351563
1470331902406753,0.00671387,0.152344,0.92804,0.3396
1470331902427768,0.0078125,0.152466,0.932068,0.328369
1470331902443782,0.00897217,0.153381,0.935425,0.318359
1470331902466805,0.010376,0.156494,0.937988,0.30896
1470331902487821,0.012146,0.159607,0.940247,0.300293
1470331902503835,0.013916,0.16095,0.942444,0.292664
1470331902526875,0.0147705,0.161194,0.944275,0.28656
1470331902549376,0.0150757,0.161865,0.945679,0.281433
1470331902563389,0.0151367,0.164429,0.946472,0.277283
1470331902586910,0.0147095,0.167358,0.946777,0.274353
1470331902609431,0.0142822,0.168701,0.947144,0.272461
1470331902623443,0.0137939,0.169189,0.947388,0.27124
1470331902646966,0.0136108,0.170593,0.947449,0.270142
1470331902668985,0.013916,0.172974,0.947266,0.269287
1470331902683497,0.0147705,0.17511,0.94696,0.26886
1470331902706517,0.0163574,0.175842,0.946777,0.268921
1470331902729045,0.0181885,0.175598,0.946777,0.269104
1470331902743552,0.0199585,0.175354,0.946777,0.269104
1470331902766571,0.0215454,0.175964,0.946655,0.269043
1470331902789094,0.0230713,0.17688,0.946411,0.269043
1470331902803607,0.0244141,0.177673,0.946228,0.269043
1470331902826625,0.0254517,0.178284,0.946045,0.269104
1470331902849146,0.0261841,0.178833,0.945862,0.269348
1470331902863659,0.0265503,0.178528,0.945862,0.269592
1470331902886682,0.0266724,0.177856,0.945923,0.269775
1470331902909199,0.0265503,0.177368,0.945984,0.269897
1470331902931747,0.0263062,0.177124,0.945923,0.270264
1470331902946760,0.0255127,0.176636,0.945923,0.270691
1470331902976764,0.0244141,0.175537,0.946045,0.271057
1470331902983767,0.0231323,0.174011,0.946289,0.27124
1470331903006849,0.0218506,0.172852,0.946533,0.271301
1470331903029308,0.0206909,0.172302,0.946655,0.271423
1470331903050389,0.0195313,0.171631,0.946777,0.271423
1470331903066842,0.0182495,0.170654,0.947083,0.271118
1470331903089368,0.0169678,0.169617,0.947449,0.27063
1470331903110381,0.015625,0.168945,0.947815,0.269836
1470331903126896,0.0144653,0.168945,0.948059,0.268982
1470331903148916,0.0137939,0.169128,0.948242,0.268188
1470331903170438,0.0134277,0.168701,0.948608,0.267151
1470331903186449,0.0134888,0.169373,0.94873,0.266479
1470331903208969,0.0144653,0.171082,0.948547,0.265991
1470331903230032,0.0166016,0.171509,0.948486,0.265625
1470331903246503,0.0197144,0.170715,0.948486,0.26593
1470331903269023,0.0236816,0.17041,0.947754,0.268555
1470331903290043,0.0288696,0.170044,0.946167,0.273743
1470331903306560,0.03479,0.166931,0.944397,0.280945
1470331903329117,0.0410767,0.161255,0.942505,0.289734
1470331903350098,0.0476074,0.155823,0.939758,0.300354
1470331903366610,0.0548096,0.151917,0.935852,0.31311
1470331903389163,0.0631104,0.147705,0.930725,0.32843
1470331903410660,0.0697021,0.144104,0.924194,0.34668
1470331903426164,0.0772705,0.139282,0.916443,0.367004
1470331903449185,0.0857544,0.134644,0.90741,0.38855
1470331903471710,0.0952148,0.1297,0.896973,0.411682
1470331903486238,0.104736,0.122803,0.885071,0.436401
1470331903509239,0.114136,0.116211,0.872131,0.461304
1470331903531760,0.125,0.111938,0.857666,0.485962
1470331903546272,0.137817,0.1073,0.84198,0.510315
1470331903569315,0.150818,0.0996704,0.825256,0.534973
1470331903591840,0.163086,0.0913086,0.808105,0.558533
1470331903606325,0.175415,0.0853882,0.790649,0.580261
1470331903629346,0.187622,0.0820313,0.773254,0.600037
1470331903651866,0.199036,0.0783691,0.756775,0.617615
1470331903665880,0.208374,0.0737305,0.74231,0.632446
1470331903689401,0.210083,0.0715332,0.730835,0.645386
1470331903711921,0.211487,0.072937,0.721375,0.655334
1470331903732939,0.213623,0.0784302,0.713013,0.663147
1470331903748958,0.215576,0.0846558,0.705872,0.669312
1470331903771474,0.215271,0.0888672,0.701233,0.673706
1470331903793027,0.212402,0.0927124,0.699219,0.67627
1470331903809093,0.207825,0.0973511,0.699463,0.676758
1470331903831530,0.201904,0.102844,0.702332,0.674744
1470331903852579,0.19458,0.107544,0.707947,0.670288
1470331903869565,0.18573,0.112061,0.71582,0.663635
1470331903891583,0.174988,0.117371,0.726013,0.654541
1470331903912644,0.164063,0.123962,0.73761,0.643127
1470331903929116,0.152344,0.130493,0.75,0.630188
1470331903951638,0.14325,0.135315,0.763306,0.615112
1470331903972657,0.133301,0.138245,0.777222,0.599121
1470331903989172,0.122864,0.140686,0.791443,0.581909
1470331904011693,0.112305,0.143982,0.805786,0.563232
1470331904032712,0.101929,0.148438,0.820007,0.543213
1470331904049280,0.0933228,0.153931,0.833984,0.521484
1470331904071745,0.0876465,0.160217,0.847412,0.498413
1470331904092762,0.0838013,0.168335,0.859619,0.474976
1470331904109278,0.0809326,0.175598,0.869934,0.453552
1470331904131797,0.0783081,0.183594,0.878235,0.434448
1470331904152850,0.0764771,0.189331,0.885254,0.417725
1470331904169331,0.079895,0.192017,0.892456,0.400208
1470331904191851,0.0859375,0.190796,0.899414,0.383667
1470331904212929,0.0944214,0.191101,0.902832,0.373291
1470331904229386,0.106384,0.195313,0.903015,0.367371
1470331904251905,0.119202,0.201233,0.902405,0.361816
1470331904272984,0.130798,0.201111,0.902527,0.357483
1470331904288940,0.141785,0.19397,0.90271,0.356689
1470331904312460,0.152527,0.185974,0.902222,0.357849
1470331904332523,0.162659,0.181091,0.901367,0.357971
1470331904348494,0.171875,0.180908,0.900513,0.356018
1470331904371524,0.179382,0.182617,0.89978,0.35321
1470331904393031,0.184387,0.180908,0.900391,0.349976
1470331904408556,0.186523,0.177063,0.9021,0.346375
1470331904431570,0.187073,0.175781,0.903748,0.342407
1470331904454587,0.187622,0.17865,0.904846,0.337708
1470331904468600,0.188782,0.184509,0.90509,0.33313
1470331904491655,0.190002,0.18988,0.905212,0.329163
1470331904514140,0.190857,0.192261,0.905701,0.325989
1470331904528657,0.191223,0.191833,0.906555,0.323547
1470331904551710,0.19043,0.187744,0.907959,0.322571
1470331904574195,0.188843,0.179871,0.909546,0.323486
1470331904588709,0.186584,0.168701,0.911255,0.325989
1470331904611728,0.184387,0.155762,0.912292,0.330688
1470331904634248,0.182983,0.142944,0.911865,0.338379
1470331904648761,0.1828,0.129578,0.909363,0.350342
1470331904671784,0.183105,0.114929,0.904785,0.36676
1470331904694303,0.184326,0.101135,0.896973,0.388794
1470331904715321,0.185547,0.0841064,0.886719,0.414856
1470331904731835,0.187012,0.0697021,0.873413,0.444092
1470331904754358,0.190491,0.0593262,0.856812,0.475403
1470331904775377,0.196594,0.052002,0.836792,0.50824
1470331904791890,0.204956,0.0455322,0.814087,0.541382
1470331904813910,0.215088,0.0383301,0.789063,0.574097
1470331904835443,0.226563,0.0317993,0.762573,0.60498
1470331904851943,0.239685,0.0281372,0.735718,0.632751
1470331904874011,0.2547,0.0257568,0.709961,0.656006
1470331904895489,0.269897,0.0209961,0.685364,0.675903
1470331904911534,0.284119,0.0154419,0.662354,0.692932
1470331904934518,0.298218,0.0125122,0.642212,0.705994
1470331904955537,0.304749,0.0155029,0.626892,0.716797
1470331904971551,0.310669,0.0217896,0.61499,0.724365
1470331904994121,0.314697,0.0296631,0.60614,0.729797
1470331905015124,0.315247,0.0367432,0.601074,0.733398
1470331905038135,0.311218,0.0429077,0.600952,0.734863
1470331905054127,0.302734,0.0491333,0.605225,0.734497
1470331905075716,0.291809,0.0560913,0.612793,0.732178
1470331905091659,0.279785,0.0635376,0.623169,0.727478
1470331905114183,0.267639,0.0716553,0.635986,0.720154
1470331905135246,0.254456,0.0804443,0.651306,0.710266
1470331905159221,0.245178,0.0877686,0.668945,0.696106
1470331905174237,0.235229,0.0952759,0.68811,0.679688
1470331905195293,0.223694,0.102478,0.707703,0.662231
1470331905211267,0.210938,0.109619,0.727173,0.64386
1470331905234292,0.197937,0.117676,0.746704,0.623962
1470331905255310,0.185425,0.124512,0.765503,0.603333
1470331905271821,0.173035,0.1297,0.783447,0.582581
1470331905294341,0.161621,0.133423,0.800171,0.56189
1470331905315361,0.1521,0.137268,0.815063,0.54187
1470331905339384,0.145203,0.141541,0.828003,0.522705
1470331905354431,0.142151,0.147095,0.838623,0.5047
1470331905375462,0.141602,0.145508,0.848572,0.488403
1470331905390931,0.142334,0.141541,0.856934,0.474609
1470331905413997,0.145142,0.139038,0.863403,0.462646
1470331905436969,0.150208,0.140137,0.867676,0.452637
1470331905450982,0.156433,0.141663,0.870544,0.444458
1470331905474502,0.16095,0.136292,0.873718,0.438293
1470331905497023,0.162598,0.124939,0.877563,0.43335
1470331905502054,0.163757,0.11554,0.880859,0.428772
1470331905524583,0.165771,0.111511,0.883118,0.424438
1470331905539651,0.168091,0.111633,0.884583,0.420349
1470331905562126,0.169678,0.112,0.885742,0.417175
1470331905578597,0.17041,0.109009,0.887024,0.414856
1470331905599617,0.170532,0.102478,0.888489,0.413452
1470331905622181,0.170593,0.0963745,0.889771,0.412109
1470331905638651,0.171631,0.0942383,0.890991,0.409607
1470331905659669,0.174072,0.0983276,0.891846,0.40564
1470331905682202,0.177063,0.105835,0.892334,0.401428
1470331905698704,0.17981,0.115845,0.892517,0.396973
1470331905719743,0.182739,0.128601,0.892334,0.39209
1470331905742243,0.186768,0.14325,0.891785,0.386292
1470331905758758,0.19104,0.159546,0.890869,0.379883
1470331905779803,0.196533,0.18042,0.888916,0.372192
1470331905802384,0.202271,0.20752,0.885132,0.363953
1470331905818815,0.20752,0.238647,0.878906,0.356873
1470331905839912,0.21167,0.269714,0.870972,0.351807
1470331905862357,0.213684,0.297302,0.862244,0.349854
1470331905878366,0.213318,0.322144,0.853027,0.350769
1470331905899885,0.212036,0.347168,0.84259,0.352722
1470331905922405,0.211243,0.374573,0.830078,0.354858
1470331905938459,0.211304,0.403687,0.81543,0.356873
1470331905959939,0.211304,0.43219,0.799438,0.359741
1470331905982460,0.210999,0.458435,0.782837,0.36377
1470331906004523,0.210815,0.481201,0.76709,0.368103
1470331906019993,0.211182,0.501038,0.752441,0.371643
1470331906042518,0.210938,0.521484,0.737488,0.373535
1470331906058558,0.20813,0.54126,0.722961,0.375366
1470331906079602,0.201477,0.559753,0.70874,0.379028
1470331906102071,0.193787,0.574951,0.696533,0.382813
1470331906118582,0.185913,0.585327,0.688904,0.384888
1470331906139625,0.176941,0.591858,0.685181,0.385742
1470331906162163,0.166138,0.596863,0.683838,0.385193
1470331906178655,0.15448,0.600464,0.684875,0.382629
1470331906199680,0.143005,0.601563,0.688477,0.378906
1470331906222209,0.133423,0.598633,0.694885,0.375244
1470331906238689,0.12561,0.592957,0.703491,0.370911
1470331906259753,0.118469,0.580872,0.717163,0.366333
1470331906283730,0.110229,0.563049,0.734497,0.362244
1470331906298743,0.102722,0.542297,0.752991,0.358093
1470331906319766,0.098938,0.522461,0.769165,0.354248
1470331906342284,0.098877,0.504028,0.782959,0.350769
1470331906360400,0.10022,0.483093,0.797607,0.346863
1470331906379850,0.101013,0.453918,0.815979,0.343201
1470331906402338,0.101379,0.418457,0.835754,0.340637
1470331906420479,0.102173,0.383362,0.853027,0.338928
1470331906439924,0.107483,0.354614,0.866272,0.334839
1470331906462395,0.11853,0.324158,0.878845,0.329285
1470331906479906,0.128906,0.287476,0.890991,0.326843
1470331906499924,0.136353,0.248535,0.901794,0.325989
1470331906529950,0.145386,0.213196,0.910034,0.32428
1470331906539961,0.157349,0.179443,0.916687,0.320251
1470331906559977,0.166504,0.150391,0.921143,0.31781
1470331906582498,0.170898,0.130127,0.923645,0.317261
1470331906600013,0.175171,0.114014,0.926331,0.313293
1470331906619574,0.176758,0.101685,0.928955,0.308899
1470331906642079,0.175415,0.0957031,0.930298,0.307434
1470331906660113,0.172241,0.0941162,0.931152,0.30719
1470331906681087,0.167969,0.0911865,0.932617,0.305969
1470331906702132,0.16333,0.0876465,0.933533,0.306641
1470331906720172,0.15918,0.0841064,0.933533,0.309875
1470331906739666,0.155396,0.0820313,0.933167,0.313477
1470331906762194,0.151672,0.0793457,0.933289,0.315613
1470331906780205,0.14856,0.0762939,0.933411,0.317505
1470331906799692,0.146057,0.0736084,0.933167,0.319885
1470331906822244,0.144226,0.0715942,0.932739,0.32251
1470331906840269,0.142517,0.0709229,0.932373,0.324402
1470331906859761,0.140503,0.0712891,0.93219,0.325684
1470331906882300,0.138,0.0710449,0.932007,0.327454
1470331906900283,0.134705,0.0693359,0.931946,0.329346
1470331906919801,0.130981,0.0679932,0.932007,0.330872
1470331906942350,0.127441,0.0679932,0.932068,0.332031
1470331906959837,0.124268,0.0681152,0.932068,0.333252
1470331906981357,0.121765,0.0684814,0.931824,0.334778
1470331907002375,0.119812,0.0684204,0.93158,0.336243
1470331907019892,0.118225,0.0678711,0.931519,0.337097
1470331907040911,0.117065,0.0675659,0.931458,0.337646
1470331907062428,0.115906,0.0679321,0.931274,0.338562
1470331907079952,0.114685,0.067749,0.930969,0.339844
1470331907100966,0.112915,0.0661621,0.930664,0.341553
1470331907122010,0.110474,0.0632324,0.930359,0.34375
1470331907140054,0.1073,0.0595703,0.930115,0.346008
1470331907161017,0.103638,0.0566406,0.929871,0.348267
1470331907185039,0.0997925,0.0540771,0.929626,0.350525
1470331907200052,0.0959473,0.0516968,0.92926,0.352844
1470331907221072,0.0918579,0.0487061,0.928894,0.355286
1470331907242091,0.0874634,0.045166,0.928589,0.357666
1470331907260135,0.0825195,0.0413208,0.928345,0.359985
1470331907282628,0.0775757,0.0376587,0.928162,0.362
1470331907302187,0.0723877,0.0333862,0.92804,0.363708
1470331907320160,0.0670776,0.0280762,0.927979,0.365295
1470331907342680,0.0612183,0.0214233,0.927979,0.366882
1470331907369704,0.0546875,0.0139771,0.927856,0.368591
1470331907380214,0.0477295,0.00683594,0.927551,0.370422
1470331907402737,0.0407715,0.000671387,0.927124,0.372375
1470331907422285,0.0339966,-0.00561523,0.926575,0.374329
1470331907440268,0.0271606,-0.0128784,0.925964,0.376282
1470331907462788,0.0197144,-0.0213013,0.925293,0.378052
1470331907482339,0.0129395,-0.0289917,0.9245,0.3797
1470331907500321,0.00701904,-0.0358276,0.92395,0.380737
1470331907522878,0.00189209,-0.0440063,0.923645,0.380615
1470331907542383,-0.00305176,-0.0527954,0.923279,0.380371
1470331907559890,-0.00787354,-0.0615845,0.922852,0.380066
1470331907582397,-0.0130005,-0.0712891,0.922363,0.379395
1470331907602413,-0.0177612,-0.0802002,0.921631,0.379089
1470331907620433,-0.0224609,-0.0888062,0.920715,0.379272
1470331907642450,-0.0272827,-0.0975952,0.919434,0.379822
1470331907662469,-0.0324707,-0.106506,0.91803,0.380432
1470331907679984,-0.0377808,-0.115906,0.916443,0.381104
1470331907702530,-0.0430298,-0.125366,0.914551,0.38208
1470331907722021,-0.0482788,-0.135254,0.912292,0.383484
1470331907740037,-0.0537109,-0.145081,0.909729,0.385254
1470331907762585,-0.0587769,-0.154541,0.907043,0.387085
1470331907784077,-0.0629272,-0.16217,0.904541,0.38916
1470331907800133,-0.0657349,-0.16803,0.902283,0.391479
1470331907822667,-0.0667725,-0.172302,0.900391,0.39386
1470331907849639,-0.0656738,-0.174988,0.899048,0.395813
1470331907860145,-0.062439,-0.175293,0.898682,0.397156
1470331907882666,-0.0561523,-0.171692,0.899109,0.398621
1470331907905236,-0.0482178,-0.165466,0.900146,0.400024
1470331907920215,-0.039978,-0.157654,0.901367,0.401306
1470331907942754,-0.0316162,-0.147705,0.903076,0.402039
1470331907963742,-0.0231323,-0.134705,0.90509,0.402527
1470331907980262,-0.0148926,-0.119629,0.906982,0.403503
1470331908002774,-0.00665283,-0.102112,0.908752,0.404541
1470331908023792,0.00177002,-0.0822144,0.910461,0.405212
1470331908045344,0.0103149,-0.0601807,0.911926,0.40564
1470331908061826,0.0183105,-0.0370483,0.912659,0.406494
1470331908082846,0.0256348,-0.0130615,0.912964,0.406921
1470331908105367,0.0322876,0.0125122,0.912598,0.407227
1470331908127904,0.0370483,0.039856,0.911438,0.407776
1470331908142928,0.0396729,0.0686646,0.909241,0.408508
1470331908173017,0.0408325,0.0978394,0.906433,0.408691
1470331908181434,0.0409546,0.126648,0.90332,0.407715
1470331908202991,0.0403442,0.155212,0.899475,0.406433
1470331908218466,0.0388794,0.183899,0.894714,0.404968
1470331908241987,0.0360107,0.211853,0.889587,0.402954
1470331908264508,0.0318604,0.237671,0.884338,0.400452
1470331908278520,0.0264893,0.260986,0.878845,0.398438
1470331908302041,0.0211182,0.282043,0.873596,0.395935
1470331908330567,0.0160522,0.300842,0.868408,0.393738
1470331908338574,0.0113525,0.316895,0.86377,0.391418
1470331908361649,0.00683594,0.330017,0.860046,0.388916
1470331908384115,0.00311279,0.340088,0.857483,0.385864
1470331908405164,0.000183105,0.346313,0.856567,0.382385
1470331908421650,-0.00189209,0.348511,0.857117,0.37915
1470331908444169,-0.00219727,0.347717,0.858582,0.376587
1470331908458721,0.00012207,0.345154,0.860535,0.374451
1470331908481710,0.00396729,0.339355,0.863464,0.373047
1470331908511730,0.00836182,0.328186,0.868042,0.372314
1470331908525243,0.0140381,0.312805,0.873901,0.371704
1470331908541756,0.0220337,0.295532,0.880066,0.370911
1470331908564278,0.0308838,0.27887,0.88501,0.371338
1470331908585351,0.0391235,0.258362,0.890442,0.372498
1470331908601812,0.0445557,0.231934,0.897034,0.373352
1470331908624332,0.0471191,0.201538,0.904114,0.373718
1470331908646876,0.0482178,0.173828,0.909668,0.374023
1470331908661866,0.0482178,0.15155,0.913147,0.375244
1470331908684386,0.0473633,0.128784,0.916199,0.376404
1470331908705416,0.0436401,0.102966,0.918823,0.378418
1470331908729426,0.0376587,0.0753784,0.921265,0.379517
1470331908744446,0.0304565,0.0494385,0.923035,0.380127
1470331908765458,0.0238647,0.0262451,0.924622,0.379089
1470331908781972,0.0188599,0.0088501,0.9245,0.380493
1470331908804493,0.0153198,-0.00646973,0.923462,0.383179
1470331908825511,0.0118408,-0.0210571,0.92334,0.383179
1470331908841612,0.00610352,-0.0376587,0.924133,0.380066
1470331908864550,0.00128174,-0.0509033,0.924561,0.377563
1470331908885565,0.00012207,-0.0570679,0.924377,0.377136
1470331908901584,0.0012207,-0.0584106,0.924988,0.375427
1470331908924101,0.00128174,-0.0625,0.926392,0.371216
1470331908945629,0,-0.0684814,0.927795,0.366699
1470331908961684,-0.0010376,-0.069519,0.928833,0.363831
1470331908984155,-0.000549316,-0.0665283,0.930176,0.360901
1470331909005276,0.00109863,-0.0631104,0.931946,0.357056
1470331909021692,0.00213623,-0.0608521,0.933594,0.352966
1470331909044210,0.00256348,-0.0604248,0.934998,0.349304
1470331909065228,0.003479,-0.0604858,0.936096,0.346313
1470331909081745,0.00494385,-0.059082,0.937256,0.343506
1470331909104266,0.00616455,-0.0578613,0.938477,0.340271
1470331909125347,0.00695801,-0.0569458,0.939575,0.337402
1470331909141295,0.00823975,-0.0557861,0.940491,0.335022
1470331909164316,0.0103149,-0.0534668,0.941406,0.332703
1470331909186835,0.0123901,-0.0488281,0.942322,0.33075
1470331909201349,0.0136719,-0.0441284,0.943115,0.329041
1470331909224411,0.0140381,-0.0410156,0.943726,0.32782
1470331909246890,0.0133667,-0.0386963,0.944092,0.327087
1470331909261402,0.0124512,-0.0369263,0.944397,0.326294
1470331909284476,0.0172729,-0.0352173,0.944092,0.327209
1470331909306976,0.0140991,-0.0299072,0.943787,0.328796
1470331909320996,0.0126343,-0.0263672,0.943359,0.330322
1470331909344477,0.0103149,-0.0259399,0.942078,0.334167
1470331909366998,0.00689697,-0.0288696,0.940552,0.338196
1470331909381011,0.00415039,-0.0360107,0.938904,0.342102
1470331909404032,0.000671387,-0.0454102,0.937805,0.343994
1470331909426553,-0.000488281,-0.0508423,0.937744,0.343384
1470331909441064,0.00146484,-0.050354,0.937683,0.343811
1470331909464086,0.00183105,-0.0487671,0.937317,0.345032
1470331909486611,0.00134277,-0.050293,0.936829,0.346008
1470331909507670,-0.00219727,-0.053894,0.937195,0.344482
1470331909524138,0.000366211,-0.0599976,0.937256,0.343262
1470331909546659,0.00390625,-0.0662842,0.934692,0.348999
1470331909567680,0.00598145,-0.0692139,0.933105,0.352783
1470331909584195,0.0101929,-0.0656128,0.933533,0.352112
1470331909606756,0.0133667,-0.0594482,0.933105,0.354309
1470331909628234,0.015564,-0.0518799,0.932922,0.355896
1470331909644247,0.0166016,-0.041748,0.934326,0.353516
1470331909666767,0.0256958,-0.0361328,0.940002,0.338135
1470331909680335,0.0264893,-0.0336914,0.944214,0.326355
1470331909702800,0.0281372,-0.0255737,0.950745,0.307556
1470331909725361,0.0303345,-0.0231934,0.960449,0.275635
1470331909740377,0.0266724,-0.0291748,0.968018,0.24762
1470331909762904,0.0220337,-0.0341797,0.977783,0.205505
1470331909785428,0.0181885,-0.0368042,0.985352,0.165527
1470331909800391,0.0142822,-0.0368042,0.991028,0.127502
1470331909822907,0.013916,-0.0313721,0.99469,0.0964355
1470331909845429,0.013916,-0.0253906,0.997375,0.0656738
1470331909860440,0.0140991,-0.0188599,0.998657,0.0454102
1470331909882963,0.00518799,-0.00769043,0.999207,0.0377197
1470331909916492,-0.00695801,-0.024353,0.999268,0.0276489
1470331909921997,-0.0198975,-0.0362549,0.998779,0.0253906
1470331909942515,-0.0371704,-0.0411987,0.998108,0.0254517
1470331909965535,-0.039856,-0.0361938,0.998169,0.0261841
1470331909980567,-0.0490112,-0.0357056,0.997864,0.0236816
1470331910003084,-0.0337524,-0.0389404,0.998413,0.0217896
1470331910025637,-0.0299072,-0.0352783,0.998413,0.0303955
1470331910040103,-0.0166626,-0.0266113,0.998718,0.0391235
1470331910063126,-0.020752,-0.0268555,0.99884,0.0323486
1470331910085169,-0.00805664,-0.0227051,0.999329,0.0275269
1470331910100156,-0.00616455,-0.0288696,0.999329,0.0194092
1470331910122728,0.0149536,-0.0178833,0.999451,0.0230103
1470331910145696,0.0183716,-0.02771,0.999329,0.0125122
1470331910160209,0.0184326,-0.0305786,0.999329,0.00512695
1470331910182730,0.0327148,-0.0408936,0.998596,-0.00732422
1470331910205789,0.0409546,-0.0477295,0.997803,-0.020752
1470331910220269,0.0462646,-0.0609131,0.996521,-0.0331421
1470331910242837,0.0634155,-0.0809937,0.993835,-0.0408325
1470331910257332,0.0884399,-0.0965576,0.990112,-0.0491943
1470331910280422,0.117554,-0.103088,0.985962,-0.0576172
1470331910302855,0.160889,-0.0980835,0.978516,-0.0834351
1470331910317351,0.229065,-0.0608521,0.96051,-0.145447
1470331910340407,0.28656,-0.0378418,0.937561,-0.193237
1470331910362920,0.270569,-0.0250244,0.939514,-0.208496
1470331910377405,0.268005,-0.022583,0.93573,-0.228027
1470331910400450,0.27948,-0.0268555,0.934021,-0.220825
1470331910422946,0.280212,-0.0413818,0.938843,-0.195557
1470331910437516,0.273621,-0.0588989,0.947449,-0.154724
1470331910460495,0.2453,-0.0793457,0.96228,-0.0864258
1470331910483000,0.203796,-0.106812,0.972778,-0.0257568
1470331910497041,0.184753,-0.117798,0.975464,0.0194702
1470331910520561,0.174988,-0.121094,0.975464,0.0562134
1470331910543152,0.167847,-0.12439,0.974426,0.0823975
1470331910557068,0.171997,-0.119263,0.974426,0.0817261
1470331910588119,0.170044,-0.120483,0.974426,0.0838623
1470331910604108,0.155212,-0.129211,0.975586,0.0859985
1470331910617165,0.161255,-0.132568,0.973816,0.0894165
1470331910640641,0.153992,-0.133606,0.974731,0.0908813
1470331910663161,0.163269,-0.13501,0.972717,0.0943604
1470331910677204,0.163025,-0.136047,0.971619,0.10376
1470331910700696,0.174255,-0.137817,0.968323,0.113647
1470331910724242,0.182739,-0.150452,0.966125,0.102539
1470331910737254,0.199341,-0.152222,0.963989,0.0881958
1470331910760250,0.195313,-0.157471,0.9646,0.0811768
1470331910790317,0.192993,-0.143921,0.966187,0.0918579
1470331910798803,0.191528,-0.124817,0.969238,0.0905762
1470331910820318,0.20697,-0.128357,0.966553,0.0797729
1470331910842849,0.228271,-0.131653,0.962219,0.0684204
1470331910858838,0.258423,-0.143372,0.95343,0.0600586
1470331910880384,0.293701,-0.159912,0.940491,0.0596924
1470331910902972,0.314758,-0.185242,0.929382,0.0524292
1470331910925414,0.295837,-0.185547,0.936707,0.0244141
1470331910941913,0.27179,-0.220398,0.936768,-0.00219727
1470331910962962,0.255676,-0.248962,0.932739,-0.050415
1470331910978945,0.254944,-0.262939,0.927429,-0.0750122
1470331911001965,0.240417,-0.295471,0.917419,-0.115051
1470331911023012,0.223145,-0.352112,0.89856,-0.136963
1470331911038499,0.21051,-0.393921,0.878052,-0.171692
1470331911061534,0.201416,-0.42157,0.863708,-0.188965
1470331911083038,0.198181,-0.457886,0.843628,-0.198242
1470331911098553,0.19812,-0.50177,0.815857,-0.208069
1470331911121081,0.200256,-0.541748,0.786926,-0.217041
1470331911143100,0.193176,-0.56958,0.762024,-0.239868
1470331911158631,0.19104,-0.587097,0.741821,-0.261719
1470331911179662,0.196167,-0.600159,0.723999,-0.277832
1470331911202687,0.199341,-0.614136,0.705688,-0.291687
1470331911225674,0.208557,-0.628113,0.68634,-0.301514
1470331911239715,0.223206,-0.643494,0.663635,-0.309265
1470331911263213,0.233582,-0.65387,0.647156,-0.31488
1470331911278722,0.238464,-0.658264,0.637207,-0.322083
1470331911301251,0.241882,-0.662231,0.630981,-0.323853
1470331911322795,0.244324,-0.6604,0.635498,-0.316772
1470331911338777,0.250916,-0.64563,0.653259,-0.305664
1470331911359796,0.262817,-0.619995,0.674622,-0.302429
1470331911382816,0.283875,-0.591003,0.6922,-0.301636
1470331911398830,0.301758,-0.596924,0.680542,-0.299194
1470331911421351,0.31781,-0.619812,0.656555,-0.289429
1470331911442918,0.327637,-0.634094,0.637939,-0.289063
1470331911458884,0.335876,-0.646912,0.620667,-0.289001
1470331911479903,0.340088,-0.662109,0.603455,-0.286011
1470331911502953,0.336548,-0.674072,0.591309,-0.287598
1470331911518440,0.330261,-0.684265,0.579712,-0.294373
1470331911547991,0.324829,-0.693604,0.569153,-0.299072
1470331911562978,0.320007,-0.696716,0.566406,-0.302368
1470331911578494,0.312073,-0.693237,0.570923,-0.310059
1470331911600012,0.303589,-0.688782,0.576294,-0.318298
1470331911623048,0.299011,-0.687988,0.578003,-0.321228
1470331911638558,0.299561,-0.688965,0.576477,-0.32135
1470331911659595,0.302612,-0.689575,0.575134,-0.319641
1470331911683085,0.305603,-0.689697,0.574585,-0.317383
1470331911706608,0.308044,-0.692444,0.571777,-0.314148
1470331911721128,0.31189,-0.696777,0.5672,-0.309143
1470331911742694,0.314758,-0.698669,0.567017,-0.302063
1470331911758655,0.316772,-0.700256,0.564941,-0.300171
1470331911781174,0.315979,-0.701721,0.563538,-0.300293
1470331911802695,0.3125,-0.703674,0.562439,-0.301575
1470331911818717,0.309265,-0.704895,0.561035,-0.304504
1470331911841241,0.307129,-0.704224,0.561218,-0.307861
1470331911862783,0.304932,-0.703125,0.5625,-0.310242
1470331911878761,0.302551,-0.70166,0.564819,-0.311646
1470331911901286,0.299255,-0.7005,0.566956,-0.313538
1470331911922836,0.296265,-0.701538,0.565491,-0.316711
1470331911938815,0.29657,-0.704407,0.561462,-0.317322
1470331911961336,0.298523,-0.70575,0.560242,-0.314453
1470331911982870,0.297791,-0.706665,0.561401,-0.311096
1470331911998870,0.290405,-0.711304,0.560486,-0.309143
1470331912021390,0.28125,-0.72522,0.546814,-0.309753
1470331912042925,0.283386,-0.730408,0.535461,-0.315491
1470331912065430,0.296448,-0.733826,0.528809,-0.30658
1470331912096982,0.330139,-0.730713,0.521362,-0.291931
1470331912119477,0.36853,-0.722168,0.509399,-0.288391
1470331912141998,0.39325,-0.719543,0.497986,-0.282166
1470331912142548,0.395142,-0.720093,0.502258,-0.270386
1470331912172071,0.388062,-0.713501,0.521973,-0.260498
1470331912194548,0.386292,-0.703918,0.543274,-0.245178
1470331912223571,0.384033,-0.690491,0.567261,-0.232178
1470331912224571,0.376892,-0.677673,0.592468,-0.218323
1470331912246592,0.363281,-0.662048,0.620361,-0.211792
1470331912268613,0.351257,-0.643677,0.64563,-0.213257
1470331912299140,0.347351,-0.625732,0.663452,-0.218201
1470331912322161,0.351013,-0.604187,0.679504,-0.223694
1470331912322660,0.357422,-0.583191,0.693787,-0.225403
1470331912352186,0.362976,-0.565613,0.705444,-0.22522
1470331912374209,0.368103,-0.554749,0.711548,-0.224548
1470331912396239,0.37146,-0.552368,0.712585,-0.221558
1470331912403735,0.370239,-0.554504,0.713074,-0.216736
1470331912426754,0.365479,-0.557434,0.71405,-0.213989
1470331912441766,0.362366,-0.562378,0.711304,-0.215454
1470331912463789,0.362915,-0.566345,0.706116,-0.22113
1470331912486807,0.364075,-0.568481,0.702148,-0.22644
1470331912507853,0.361572,-0.572937,0.697815,-0.232422
1470331912531900,0.355774,-0.582153,0.689514,-0.243042
1470331912546861,0.35083,-0.594666,0.676697,-0.255615
1470331912567913,0.345337,-0.605164,0.665039,-0.268738
1470331912583894,0.340027,-0.617432,0.651733,-0.279968
1470331912606916,0.332336,-0.631836,0.637329,-0.290161
1470331912627959,0.322205,-0.646851,0.619751,-0.30603
1470331912643449,0.316223,-0.66803,0.594788,-0.316223
1470331912666970,0.318176,-0.686768,0.571045,-0.317871
1470331912688018,0.318726,-0.703247,0.549133,-0.319946
1470331912703524,0.317322,-0.718384,0.527527,-0.323975
1470331912726522,0.322205,-0.732422,0.504761,-0.324097
1470331912748042,0.326355,-0.742432,0.488037,-0.322693
1470331912763557,0.323914,-0.753235,0.470642,-0.325928
1470331912787077,0.321838,-0.76001,0.456604,-0.332214
1470331912808122,0.340515,-0.78772,0.444031,-0.257751
1470331912823610,0.347046,-0.757141,0.477234,-0.280334
1470331912846681,0.30304,-0.735107,0.496643,-0.348022
1470331912868149,0.300598,-0.76416,0.459595,-0.33844
1470331912883664,0.289124,-0.743286,0.495361,-0.34436
1470331912906684,0.309387,-0.726135,0.501709,-0.354004
1470331912928205,0.322693,-0.747925,0.470581,-0.339172
1470331912943717,0.314209,-0.73822,0.498657,-0.328125
1470331912966740,0.324524,-0.7453,0.504211,-0.291565
1470331912988313,0.32196,-0.741516,0.523804,-0.268555
1470331913003772,0.326965,-0.730713,0.544312,-0.250732
1470331913026302,0.333679,-0.7229,0.560242,-0.228394
1470331913049313,0.331665,-0.702576,0.58905,-0.22229
1470331913063825,0.337219,-0.688049,0.605957,-0.213623
1470331913086346,0.342651,-0.660767,0.633057,-0.212708
1470331913109366,0.345276,-0.63446,0.659973,-0.206421
1470331913123879,0.341736,-0.613159,0.683777,-0.199219
1470331913146400,0.333008,-0.584229,0.714172,-0.194153
1470331913169439,0.324158,-0.553528,0.744812,-0.183716
1470331913183433,0.311401,-0.525635,0.772888,-0.171509
1470331913205955,0.301331,-0.505554,0.792297,-0.160583
1470331913229475,0.292603,-0.492615,0.804443,-0.156616
1470331913243987,0.295593,-0.485657,0.807556,-0.15686
1470331913296047,0.308899,-0.482849,0.803101,-0.162415
1470331913297049,0.326782,-0.487549,0.791504,-0.170288
1470331913312048,0.343567,-0.496399,0.777161,-0.177429
1470331913333067,0.351563,-0.503601,0.768005,-0.18158
1470331913349582,0.349792,-0.510376,0.762878,-0.187561
1470331913364598,0.339539,-0.516785,0.760254,-0.199097
1470331913385614,0.329041,-0.524597,0.755493,-0.213867
1470331913402656,0.3255,-0.527832,0.749329,-0.232178
1470331913438162,0.323792,-0.529785,0.742188,-0.252258
1470331913454214,0.331482,-0.533752,0.727539,-0.275452
1470331913469191,0.335388,-0.537903,0.713196,-0.299194
1470331913490712,0.33844,-0.541748,0.697083,-0.325623
1470331913506730,0.338379,-0.556702,0.676147,-0.344055
1470331913519769,0.334656,-0.5755,0.655884,-0.355835
1470331913542348,0.336365,-0.585938,0.636047,-0.372864
1470331913557298,0.344849,-0.592529,0.619263,-0.382813
1470331913579791,0.350891,-0.588745,0.608704,-0.399658
1470331913602308,0.325989,-0.608154,0.61377,-0.383667
1470331913625331,0.291748,-0.596619,0.619202,-0.418945
1470331913639874,0.277771,-0.584656,0.63269,-0.425049
1470331913662423,0.285217,-0.584229,0.639038,-0.411072
1470331913684898,0.290527,-0.595581,0.636353,-0.394836
1470331913716911,0.297241,-0.608276,0.6203,-0.396118
1470331913731925,0.29657,-0.618103,0.608582,-0.399475
1470331913752962,0.296875,-0.628601,0.599243,-0.397034
1470331913769459,0.296143,-0.636841,0.591064,-0.396729
1470331913784472,0.296326,-0.647339,0.581421,-0.39386
1470331913805547,0.303101,-0.658081,0.571838,-0.384888
1470331913822520,0.303528,-0.661682,0.572327,-0.377502
1470331913842528,0.308289,-0.671509,0.563416,-0.369568
1470331913864576,0.311523,-0.681824,0.556519,-0.358337
1470331913881059,0.314026,-0.688538,0.553406,-0.347961
1470331913902578,0.32135,-0.694214,0.549561,-0.335876
1470331913920106,0.333069,-0.69812,0.549255,-0.316284
1470331913939611,0.346863,-0.699158,0.551514,-0.294434
1470331913963633,0.361206,-0.700378,0.551819,-0.272888
1470331913980148,0.373108,-0.699768,0.554993,-0.25116
1470331913999665,0.381042,-0.696228,0.562317,-0.232117
1470331914022250,0.388916,-0.692017,0.569824,-0.212463
1470331914044751,0.399658,-0.688416,0.574829,-0.189575
1470331914061223,0.414185,-0.685669,0.575806,-0.163635
1470331914082243,0.428406,-0.68396,0.574158,-0.137573
1470331914104779,0.435791,-0.682129,0.575195,-0.118164
1470331914121326,0.434204,-0.6828,0.576599,-0.113098
1470331914142315,0.438049,-0.678711,0.580505,-0.102295
1470331914164842,0.440613,-0.678772,0.579041,-0.0991211
1470331914181329,0.438721,-0.669983,0.590698,-0.0982056
1470331914202361,0.441345,-0.658081,0.602661,-0.0946655
1470331914225394,0.444397,-0.653015,0.606079,-0.0935669
1470331914247978,0.440125,-0.650818,0.61084,-0.0975342
1470331914262488,0.435425,-0.651489,0.61261,-0.102966
1470331914285445,0.429077,-0.652771,0.614685,-0.108826
1470331914299943,0.425049,-0.650818,0.618042,-0.117371
1470331914337979,0.418884,-0.648132,0.623535,-0.125183
1470331914354533,0.411316,-0.649475,0.625671,-0.132263
1470331914369498,0.403198,-0.656189,0.622314,-0.139771
1470331914382509,0.396729,-0.664368,0.615356,-0.150146
1470331914397523,0.390137,-0.668701,0.610413,-0.167358
1470331914420044,0.381897,-0.672546,0.606689,-0.183777
1470331914442620,0.373657,-0.67627,0.603943,-0.195679
1470331914465594,0.368042,-0.683899,0.594177,-0.209045
1470331914480201,0.35968,-0.688171,0.588257,-0.225769
1470331914502616,0.351318,-0.688354,0.587524,-0.239868
1470331914525638,0.343079,-0.689575,0.587463,-0.248352
1470331914540155,0.337341,-0.69989,0.573303,-0.26001
1470331914562693,0.328918,-0.708679,0.560059,-0.275513
1470331914577215,0.319702,-0.712524,0.552307,-0.291687
1470331914599704,0.314453,-0.717957,0.543457,-0.300476
1470331914622225,0.306335,-0.725586,0.532532,-0.309998
1470331914654254,0.301697,-0.732117,0.521667,-0.317627
1470331914675841,0.300659,-0.733276,0.51886,-0.320435
1470331914691793,0.305603,-0.731567,0.522339,-0.313965
1470331914706802,0.306824,-0.729553,0.526978,-0.309753
1470331914728326,0.305359,-0.729431,0.529907,-0.306458
1470331914744363,0.306519,-0.731384,0.529419,-0.301514
1470331914765853,0.313477,-0.729248,0.533752,-0.291565
1470331914782868,0.318604,-0.727661,0.539246,-0.279663
1470331914802473,0.325134,-0.723083,0.547058,-0.268616
1470331914824907,0.335327,-0.720764,0.551025,-0.253906
1470331914842424,0.338501,-0.718689,0.555359,-0.245911
1470331914862440,0.339539,-0.716003,0.559814,-0.242065
1470331914885488,0.349182,-0.711792,0.564636,-0.229309
1470331914899973,0.362488,-0.706665,0.56842,-0.214661
1470331914922494,0.37384,-0.703308,0.570923,-0.199036
1470331914945014,0.381775,-0.703308,0.569336,-0.188293
1470331914960132,0.387085,-0.701233,0.570496,-0.181458
1470331914982076,0.39447,-0.702515,0.567139,-0.170898
1470331914999065,0.404358,-0.707825,0.557983,-0.155151
1470331915020085,0.414185,-0.712891,0.549194,-0.136536
1470331915059618,0.416809,-0.716858,0.544861,-0.12439
1470331915074631,0.414307,-0.720154,0.544067,-0.11731
1470331915095649,0.40918,-0.721924,0.545898,-0.11554
1470331915112164,0.402405,-0.720886,0.552307,-0.115662
1470331915126679,0.398987,-0.71759,0.558411,-0.118469
1470331915148268,0.399719,-0.711304,0.565857,-0.118652
1470331915164712,0.398254,-0.703796,0.576416,-0.117737
1470331915184767,0.401184,-0.698975,0.580383,-0.116943
1470331915202762,0.397095,-0.69574,0.586731,-0.118408
1470331915225322,0.397705,-0.694092,0.58844,-0.117554
1470331915244813,0.400391,-0.693481,0.587952,-0.11438
1470331915262842,0.394653,-0.694763,0.588745,-0.122131
1470331915283819,0.383179,-0.697327,0.589844,-0.137695
1470331915304865,0.376404,-0.700378,0.588379,-0.146973
1470331915322887,0.377258,-0.69989,0.588623,-0.146118
1470331915345374,0.378723,-0.693665,0.594666,-0.1474
1470331915364919,0.37561,-0.68689,0.601929,-0.15741
1470331915387946,0.368591,-0.687622,0.600525,-0.175293
1470331915404430,0.372559,-0.693481,0.590393,-0.178162
1470331915425446,0.372131,-0.69635,0.585876,-0.182495
1470331915441961,0.360046,-0.707275,0.572815,-0.205078
1470331915464535,0.354431,-0.703308,0.575378,-0.220764
1470331915485504,0.344604,-0.700439,0.579102,-0.235107
1470331915502015,0.341064,-0.704773,0.573059,-0.242004
1470331915524536,0.331909,-0.714844,0.558533,-0.258667
1470331915545580,0.32135,-0.720337,0.547241,-0.279968
1470331915562069,0.314453,-0.726929,0.53595,-0.29248
1470331915584588,0.311157,-0.725159,0.538147,-0.296265
1470331915605608,0.307434,-0.724182,0.537292,-0.303955
1470331915622122,0.305481,-0.720886,0.538025,-0.312317
1470331915644674,0.304077,-0.715088,0.542725,-0.318787
1470331915664785,0.305237,-0.709961,0.549316,-0.317871
1470331915679703,0.312073,-0.709534,0.550415,-0.310242
1470331915702194,0.321289,-0.712036,0.547119,-0.300842
1470331915741231,0.328003,-0.714661,0.542542,-0.295593
1470331915742733,0.330383,-0.716248,0.541077,-0.291565
1470331915771258,0.333984,-0.719299,0.538513,-0.284607
1470331915794281,0.338806,-0.72467,0.533508,-0.274719
1470331915809328,0.343445,-0.727722,0.529114,-0.269287
1470331915830851,0.347717,-0.729858,0.527222,-0.261536
1470331915844851,0.353638,-0.727417,0.531982,-0.25061
1470331915861353,0.356995,-0.726929,0.535583,-0.239258
1470331915882411,0.364197,-0.724304,0.539429,-0.2276
1470331915904930,0.372131,-0.719604,0.546204,-0.213074
1470331915921395,0.377197,-0.715942,0.551392,-0.202759
1470331915945417,0.380615,-0.714478,0.554077,-0.194153
1470331915964965,0.384644,-0.714478,0.554688,-0.184082
1470331915981454,0.389221,-0.715271,0.554626,-0.171143
1470331916002464,0.391907,-0.716309,0.555176,-0.158447
1470331916024986,0.392883,-0.715027,0.558899,-0.148376
1470331916041499,0.391907,-0.71283,0.564148,-0.141418
1470331916062518,0.390259,-0.713196,0.565674,-0.138184
1470331916102556,0.387085,-0.71521,0.565613,-0.136902
1470331916103555,0.381287,-0.715393,0.569214,-0.137024
1470331916138086,0.377197,-0.711243,0.576965,-0.137817
1470331916154601,0.375977,-0.703247,0.587463,-0.137878
1470331916169614,0.377319,-0.693665,0.596985,-0.141541
1470331916190632,0.380981,-0.68158,0.606506,-0.149658
1470331916206647,0.378845,-0.669067,0.619751,-0.157227
1470331916221165,0.383118,-0.661804,0.624207,-0.160156
1470331916244196,0.383911,-0.66217,0.622803,-0.16217
1470331916265701,0.381836,-0.661255,0.623779,-0.16687
1470331916281258,0.385986,-0.656921,0.626343,-0.164856
1470331916304236,0.389404,-0.657043,0.624451,-0.163452
1470331916326756,0.384949,-0.666199,0.615662,-0.170044
1470331916341269,0.37561,-0.679077,0.603943,-0.181885
1470331916364289,0.368347,-0.686096,0.596497,-0.194275
1470331916386811,0.365662,-0.684937,0.596985,-0.201904
1470331916423856,0.36438,-0.681824,0.598816,-0.20929
1470331916424347,0.365967,-0.684814,0.592651,-0.21405
1470331916454374,0.363953,-0.690796,0.584961,-0.219543
1470331916475901,0.358582,-0.694763,0.578369,-0.232788
1470331916491908,0.351318,-0.69281,0.578186,-0.249695
1470331916506918,0.342651,-0.689453,0.581726,-0.262329
1470331916527978,0.341797,-0.694031,0.574768,-0.266724
1470331916550513,0.334656,-0.694946,0.571228,-0.28064
1470331916566972,0.324036,-0.692139,0.570923,-0.300049
1470331916589492,0.315247,-0.691406,0.569092,-0.314148
1470331916605006,0.306091,-0.690002,0.568909,-0.326416
1470331916627025,0.300903,-0.687744,0.569641,-0.334595
1470331916648070,0.301147,-0.687927,0.565369,-0.341248
1470331916664558,0.302002,-0.687927,0.560913,-0.347778
1470331916687078,0.30542,-0.686279,0.560669,-0.34845
1470331916708098,0.311279,-0.687622,0.557739,-0.345276
1470331916724112,0.319519,-0.691223,0.549927,-0.34314
1470331916746687,0.327698,-0.692383,0.545593,-0.339905
1470331916768184,0.329163,-0.690002,0.549194,-0.337585
1470331916784666,0.325378,-0.696045,0.543579,-0.337952
1470331916807186,0.327576,-0.700134,0.539124,-0.334412
1470331916821220,0.336365,-0.698975,0.540222,-0.326355
1470331916843719,0.340759,-0.702332,0.537659,-0.318665
1470331916864742,0.347595,-0.698486,0.544983,-0.307068
1470331916881276,0.351135,-0.700867,0.545227,-0.296997
1470331916903773,0.355225,-0.704102,0.542175,-0.289978
1470331916935806,0.359802,-0.7052,0.542542,-0.280884
1470331916941326,0.365112,-0.703857,0.546692,-0.269043
1470331916963828,0.372314,-0.702393,0.550354,-0.255188
1470331916984888,0.381653,-0.70105,0.55304,-0.23877
1470331917001366,0.387878,-0.701416,0.553406,-0.22644
1470331917023882,0.394531,-0.701416,0.553772,-0.213684
1470331917044964,0.400696,-0.701782,0.55426,-0.199341
1470331917061443,0.405273,-0.703125,0.553955,-0.185608
1470331917083935,0.407043,-0.7052,0.553833,-0.174072
1470331917104982,0.409058,-0.706787,0.554016,-0.161865
1470331917121468,0.409912,-0.708191,0.554871,-0.150146
1470331917143489,0.411072,-0.710266,0.554077,-0.139771
1470331917165008,0.411865,-0.712463,0.552917,-0.130615
1470331917181523,0.409973,-0.710388,0.55835,-0.124573
1470331917204047,0.406372,-0.703491,0.56958,-0.124634
1470331917225584,0.402893,-0.692078,0.585266,-0.127014
1470331917240576,0.401001,-0.677063,0.6026,-0.132813
1470331917286145,0.399719,-0.662781,0.617371,-0.140686
1470331917287138,0.400696,-0.653931,0.625122,-0.144958
1470331917301631,0.403564,-0.650574,0.626953,-0.144226
1470331917338195,0.407043,-0.651611,0.624756,-0.139343
1470331917354205,0.409302,-0.654236,0.621338,-0.13562
1470331917369206,0.407776,-0.658386,0.618408,-0.133301
1470331917390717,0.408875,-0.66217,0.613708,-0.133179
1470331917406727,0.403992,-0.668213,0.60907,-0.139038
1470331917429245,0.40155,-0.677246,0.599365,-0.144409
1470331917443759,0.404419,-0.684082,0.59082,-0.139404
1470331917467279,0.402649,-0.687317,0.587219,-0.143616
1470331917489303,0.391785,-0.688354,0.588196,-0.163269
1470331917510881,0.380798,-0.688721,0.58905,-0.183411
1470331917525358,0.378723,-0.692261,0.583496,-0.192017
1470331917540405,0.383667,-0.699768,0.572083,-0.18927
1470331917563385,0.387512,-0.705933,0.561951,-0.188965
1470331917585411,0.381348,-0.705017,0.559082,-0.212097
1470331917600399,0.369751,-0.704468,0.558411,-0.234924
1470331917623437,0.363098,-0.71405,0.546387,-0.244507
1470331917645466,0.358337,-0.723816,0.531372,-0.255676
1470331917661954,0.350037,-0.725708,0.525085,-0.274109
1470331917705993,0.337646,-0.719849,0.528381,-0.297729
1470331917706994,0.322632,-0.710693,0.536926,-0.320251
1470331917722007,0.316833,-0.717957,0.524597,-0.330139
1470331917758082,0.317871,-0.730103,0.504333,-0.334045
1470331917774585,0.319885,-0.732239,0.495361,-0.340759
1470331917789568,0.323364,-0.733582,0.489807,-0.342651
1470331917810675,0.318054,-0.740112,0.481567,-0.345276
1470331917827148,0.316345,-0.744995,0.472046,-0.349426
1470331917842118,0.32312,-0.747742,0.470642,-0.33905
1470331917863168,0.322388,-0.745117,0.475647,-0.338562
1470331917885667,0.314697,-0.737854,0.486023,-0.346863
1470331917902169,0.313782,-0.732422,0.495483,-0.345825
1470331917938225,0.32019,-0.731018,0.500977,-0.3349
1470331917962732,0.328308,-0.73114,0.503174,-0.32312
1470331917963225,0.334106,-0.730774,0.505615,-0.314209
1470331917990250,0.339417,-0.730652,0.508545,-0.303772
1470331918014313,0.3479,-0.734253,0.506287,-0.28894
1470331918036794,0.361572,-0.741089,0.498657,-0.267212
1470331918066321,0.376892,-0.748413,0.488525,-0.243164
1470331918066818,0.390869,-0.750366,0.485352,-0.22052
1470331918089339,0.402832,-0.748047,0.487427,-0.201294
1470331918111362,0.409912,-0.749512,0.485046,-0.187012
1470331918142386,0.414063,-0.754272,0.478699,-0.174683
1470331918144388,0.416321,-0.757751,0.474915,-0.164124
1470331918164405,0.417603,-0.759644,0.474487,-0.152893
1470331918192990,0.417969,-0.759399,0.477539,-0.143372
1470331918216953,0.417236,-0.758179,0.482117,-0.13678
1470331918238973,0.41571,-0.756104,0.487793,-0.132446
1470331918245512,0.413818,-0.75238,0.495605,-0.130676
1470331918269528,0.411926,-0.746338,0.506165,-0.130615
1470331918291061,0.410095,-0.738525,0.518494,-0.132568
1470331918323048,0.407349,-0.731018,0.530334,-0.135925
1470331918324050,0.403931,-0.725403,0.539307,-0.140564
1470331918343566,0.402222,-0.722229,0.544006,-0.143677
1470331918373152,0.404724,-0.722839,0.542358,-0.139587
1470331918397114,0.411072,-0.725342,0.536804,-0.129333
1470331918418637,0.415466,-0.726685,0.533386,-0.121704
1470331918425640,0.414734,-0.728088,0.531738,-0.122681
1470331918449661,0.410645,-0.732117,0.527954,-0.128906
1470331918478209,0.408325,-0.738525,0.519348,-0.134705
1470331918502728,0.40918,-0.740417,0.514648,-0.139526
1470331918503709,0.410339,-0.73114,0.524292,-0.148987
1470331918524255,0.406128,-0.716309,0.543091,-0.164307
1470331918547249,0.397522,-0.705688,0.55719,-0.182983
1470331918562762,0.389771,-0.708496,0.554016,-0.197998
1470331918584282,0.38562,-0.712585,0.548218,-0.207336
1470331918605801,0.382263,-0.704712,0.554993,-0.221863
1470331918621826,0.370789,-0.688904,0.572327,-0.245605
1470331918643335,0.352661,-0.679626,0.583191,-0.271484
1470331918665405,0.340881,-0.693604,0.566406,-0.286133
1470331918681905,0.340576,-0.712036,0.543213,-0.286194
1470331918702893,0.341553,-0.709106,0.54425,-0.290283
1470331918725489,0.33844,-0.69635,0.555176,-0.303894
1470331918741434,0.331665,-0.696228,0.551392,-0.318176
1470331918762968,0.32312,-0.707458,0.534546,-0.330688
1470331918785466,0.322571,-0.717163,0.519348,-0.334595
1470331918801477,0.3302,-0.716736,0.517395,-0.330994
1470331918824498,0.339905,-0.713806,0.515747,-0.330078
1470331918845607,0.341919,-0.716675,0.507568,-0.334412
1470331918861532,0.336365,-0.720642,0.500366,-0.342285
1470331918884603,0.327271,-0.722046,0.497925,-0.351624
1470331918920611,0.318604,-0.721863,0.498596,-0.358948
1470331918945110,0.313843,-0.72168,0.499573,-0.362122
1470331918946135,0.311951,-0.722168,0.5,-0.362183
1470331918973132,0.312866,-0.72229,0.500732,-0.360168
1470331918997177,0.315247,-0.722778,0.502258,-0.354858
1470331919018676,0.315918,-0.724609,0.502686,-0.349915
1470331919025696,0.313416,-0.728088,0.500305,-0.348389
1470331919049700,0.307312,-0.728638,0.502136,-0.349976
1470331919071265,0.302429,-0.724731,0.509338,-0.35199
1470331919100746,0.299744,-0.721069,0.515747,-0.352478
1470331919125267,0.297607,-0.721008,0.518372,-0.350525
1470331919126288,0.295471,-0.721619,0.518982,-0.35022
1470331919153293,0.292114,-0.720276,0.521484,-0.35199
1470331919176814,0.28833,-0.717041,0.526611,-0.354126
1470331919198833,0.286621,-0.715332,0.529419,-0.354736
1470331919205340,0.285339,-0.715515,0.529785,-0.354919
1470331919229361,0.281982,-0.715698,0.530273,-0.356506
1470331919251381,0.276428,-0.714417,0.532959,-0.359375
1470331919282409,0.271057,-0.712402,0.53656,-0.362183
1470331919284410,0.269043,-0.709839,0.540588,-0.36261
1470331919303928,0.26947,-0.707214,0.544678,-0.361328
1470331919334458,0.271301,-0.707886,0.547791,-0.353943
1470331919356979,0.276611,-0.709961,0.548462,-0.34436
1470331919386546,0.281982,-0.711792,0.545776,-0.340454
1470331919408547,0.28595,-0.712585,0.542847,-0.34021
1470331919409523,0.289673,-0.71344,0.540283,-0.339539
1470331919424547,0.29364,-0.713928,0.538086,-0.33844
1470331919447058,0.296997,-0.714661,0.536438,-0.336548
1470331919461069,0.300049,-0.714294,0.536865,-0.333923
1470331919484590,0.303467,-0.714294,0.53772,-0.329468
1470331919505664,0.304932,-0.715393,0.53833,-0.324768
1470331919521165,0.307251,-0.714478,0.538818,-0.32373
1470331919552174,0.309509,-0.715515,0.536926,-0.322388
1470331919565686,0.312805,-0.715698,0.534607,-0.322754
1470331919581177,0.316833,-0.717773,0.532349,-0.31781
1470331919604197,0.320679,-0.716187,0.536865,-0.309937
1470331919625717,0.320496,-0.715332,0.5401,-0.306458
1470331919641231,0.318542,-0.714966,0.543884,-0.30249
1470331919663785,0.31604,-0.71167,0.550232,-0.301514
1470331919685771,0.31189,-0.71051,0.552307,-0.30481
1470331919701285,0.307739,-0.711548,0.550476,-0.309753
1470331919723805,0.305542,-0.713623,0.546875,-0.313599
1470331919746827,0.305664,-0.714844,0.543457,-0.316528
1470331919761374,0.304138,-0.717407,0.539673,-0.318787
1470331919783859,0.304749,-0.719116,0.537537,-0.317932
1470331919806884,0.306335,-0.71936,0.537537,-0.315857
1470331919821443,0.305725,-0.71875,0.538635,-0.31604
1470331919843912,0.304993,-0.719727,0.53717,-0.316895
1470331919867434,0.302612,-0.721008,0.536255,-0.317749
1470331919881996,0.300049,-0.721558,0.536804,-0.318054
1470331919903470,0.299316,-0.72113,0.538147,-0.317566
1470331919927038,0.297424,-0.719238,0.540344,-0.319763
1470331919941514,0.297241,-0.718384,0.541931,-0.319275
1470331919963559,0.297363,-0.71759,0.543457,-0.318298
1470331919987041,0.296143,-0.717529,0.543823,-0.318909
1470331920001054,0.294067,-0.718018,0.543579,-0.320129
1470331920023576,0.29364,-0.717896,0.543884,-0.320313
1470331920047099,0.293213,-0.717773,0.544617,-0.319885
1470331920061108,0.293274,-0.717651,0.544556,-0.320129
1470331920083629,0.293823,-0.716309,0.545593,-0.320801
1470331920107169,0.297852,-0.710083,0.551086,-0.321533
1470331920128168,0.311218,-0.701477,0.560364,-0.311523
1470331920143696,0.349365,-0.684265,0.5755,-0.280212
1470331920167205,0.390869,-0.665039,0.591675,-0.234253
1470331920188221,0.396729,-0.651184,0.612122,-0.209351
1470331920233777,0.382324,-0.667358,0.602173,-0.21405
1470331920234264,0.371826,-0.685303,0.583374,-0.2276
1470331920256784,0.372559,-0.685974,0.58136,-0.229553
1470331920270797,0.378723,-0.674438,0.595642,-0.216614
1470331920287312,0.387268,-0.663513,0.606506,-0.204712
1470331920301825,0.387817,-0.658936,0.611328,-0.204102
1470331920339362,0.382813,-0.656799,0.613281,-0.214417
1470331920354371,0.38208,-0.663269,0.602661,-0.225525
1470331920376891,0.375061,-0.667847,0.596375,-0.240173
1470331920398431,0.372559,-0.672363,0.588928,-0.249573
1470331920414430,0.363647,-0.683228,0.576294,-0.262451
1470331920436945,0.352112,-0.693176,0.565857,-0.274414
1470331920458020,0.338257,-0.699707,0.55957,-0.287842
1470331920474479,0.324341,-0.704224,0.555847,-0.299805
1470331920496999,0.311829,-0.709106,0.551331,-0.309814
1470331920518021,0.302795,-0.714661,0.545349,-0.316467
1470331920534533,0.306824,-0.717896,0.54248,-0.31012
1470331920557053,0.316467,-0.719788,0.540527,-0.299316
1470331920578088,0.325562,-0.720703,0.538696,-0.290527
1470331920594587,0.33197,-0.718811,0.540466,-0.284668
1470331920617147,0.338135,-0.712646,0.547485,-0.279419
1470331920655142,0.337036,-0.708252,0.553162,-0.28064
1470331920656196,0.328369,-0.717468,0.541992,-0.289246
1470331920668672,0.327637,-0.718872,0.540588,-0.289307
1470331920690716,0.324768,-0.717957,0.542908,-0.290405
1470331920707188,0.320129,-0.717957,0.544373,-0.292786
1470331920721201,0.31781,-0.717773,0.546448,-0.291931
1470331920745223,0.313782,-0.717346,0.548645,-0.293152
1470331920774249,0.312439,-0.715637,0.551758,-0.292908
1470331920796793,0.315796,-0.714966,0.552856,-0.288818
1470331920817787,0.314453,-0.714722,0.552307,-0.291992
1470331920834302,0.316528,-0.71228,0.55426,-0.291992
1470331920856828,0.325012,-0.708313,0.558594,-0.283936
1470331920877924,0.330994,-0.705872,0.56134,-0.277588
1470331920894356,0.329102,-0.707764,0.55896,-0.279907
1470331920916878,0.326172,-0.711243,0.554016,-0.284302
1470331920937922,0.323547,-0.71344,0.550903,-0.287781
1470331920953910,0.322449,-0.713257,0.551758,-0.287842
1470331920976930,0.328613,-0.709961,0.555176,-0.28241
1470331920998004,0.33136,-0.708862,0.55481,-0.282837
1470331921013965,0.328491,-0.713745,0.547485,-0.287964
1470331921036984,0.333984,-0.710999,0.550537,-0.282532
1470331921059504,0.333069,-0.709656,0.552612,-0.28302
1470331921074043,0.328735,-0.713989,0.546936,-0.288147
1470331921097039,0.332703,-0.707214,0.556213,-0.28241
1470331921120105,0.327271,-0.712769,0.549194,-0.288574
1470331921122062,0.329407,-0.704895,0.559875,-0.284851
1470331921143082,0.324829,-0.708557,0.555603,-0.289307
1470331921162597,0.321777,-0.706055,0.558899,-0.292542
1470331921185118,0.32428,-0.699524,0.566772,-0.290466
1470331921201632,0.326172,-0.698364,0.568115,-0.28833
1470331921222739,0.3255,-0.699158,0.567261,-0.288879
1470331921245694,0.32135,-0.692322,0.573303,-0.297913
1470331921260300,0.320251,-0.684875,0.574341,-0.313843
1470331921282798,0.32373,-0.672791,0.580627,-0.324768
1470331921305726,0.327637,-0.653809,0.599182,-0.325806
1470331921320286,0.325195,-0.648682,0.607239,-0.323608
1470331921358272,0.330566,-0.657776,0.589294,-0.332886
1470331921374302,0.343018,-0.665283,0.56958,-0.3396
1470331921389300,0.361145,-0.653015,0.570129,-0.343689
1470331921410820,0.374268,-0.651611,0.562195,-0.345398
1470331921426836,0.381165,-0.664063,0.541687,-0.346741
1470331921441852,0.375854,-0.669189,0.532166,-0.357422
1470331921465410,0.365356,-0.66687,0.536804,-0.365662
1470331921484903,0.363403,-0.669922,0.53595,-0.363281
1470331921501400,0.360474,-0.667725,0.539185,-0.365356
1470331921522448,0.364685,-0.664795,0.540039,-0.365295
1470331921544969,0.373291,-0.665588,0.537659,-0.358521
1470331921568961,0.378845,-0.668457,0.535706,-0.350159
1470331921582474,0.377747,-0.6745,0.531067,-0.346863
1470331921605008,0.367981,-0.681091,0.525024,-0.353699
1470331921621009,0.354126,-0.683655,0.522888,-0.365723
1470331921642591,0.344238,-0.68103,0.526184,-0.375244
1470331921665048,0.341064,-0.674133,0.534607,-0.378784
1470331921681572,0.342529,-0.663635,0.547607,-0.377441
1470331921702581,0.343262,-0.652405,0.560303,-0.377625
1470331921725103,0.337769,-0.652222,0.560242,-0.383057
1470331921741630,0.341125,-0.646057,0.565735,-0.382324
1470331921762674,0.339722,-0.645752,0.564392,-0.386108
1470331921785156,0.347473,-0.639282,0.569397,-0.382629
1470331921801172,0.349854,-0.648132,0.557678,-0.382751
1470331921825192,0.351624,-0.648071,0.556396,-0.38324
1470331921844765,0.356689,-0.642029,0.562256,-0.380005
1470331921861224,0.360474,-0.644287,0.559265,-0.377014
1470331921882271,0.361206,-0.653198,0.549438,-0.375549
1470331921904763,0.359558,-0.662842,0.538757,-0.375732
1470331921921278,0.356445,-0.670776,0.530151,-0.376709
1470331921942299,0.353394,-0.678467,0.52179,-0.377563
1470331921964860,0.351257,-0.686584,0.512451,-0.377747
1470331921982875,0.349731,-0.693726,0.503906,-0.377625
1470331922002356,0.349121,-0.697876,0.498657,-0.37738
1470331922024871,0.349426,-0.696167,0.500671,-0.377563
1470331922042887,0.350281,-0.687256,0.511719,-0.378418
1470331922062421,0.350464,-0.677856,0.522888,-0.379883
1470331922084948,0.350098,-0.67981,0.520813,-0.379578
1470331922102969,0.350159,-0.690735,0.507996,-0.377136
1470331922122487,0.350403,-0.690979,0.507935,-0.376587
1470331922144994,0.35022,-0.692139,0.506897,-0.375916
1470331922169001,0.350281,-0.696716,0.501343,-0.374878
1470331922182538,0.352661,-0.705078,0.490906,-0.370789
1470331922205086,0.352234,-0.695129,0.503113,-0.373657
1470331922222548,0.350037,-0.69104,0.508667,-0.375854
1470331922242568,0.348328,-0.690979,0.509094,-0.376892
1470331922265086,0.347778,-0.68811,0.512634,-0.37793
1470331922283107,0.345642,-0.678284,0.524292,-0.381531
1470331922302621,0.345886,-0.687134,0.514465,-0.378906
1470331922344176,0.346375,-0.690674,0.510376,-0.377502
1470331922351166,0.345703,-0.690918,0.51001,-0.378174
1470331922362175,0.345154,-0.692383,0.507935,-0.378784
1470331922385694,0.347107,-0.692871,0.507202,-0.377075
1470331922399722,0.346619,-0.692017,0.507996,-0.378052
1470331922422148,0.345215,-0.691956,0.508667,-0.37854
1470331922446169,0.344421,-0.692017,0.508606,-0.379272
1470331922460183,0.344177,-0.692261,0.508301,-0.379395
1470331922484204,0.343994,-0.692444,0.507996,-0.379578
1470331922505723,0.343018,-0.693298,0.506287,-0.381287
1470331922520305,0.341858,-0.696899,0.50238,-0.38092
1470331922542299,0.341614,-0.697693,0.501892,-0.38031
1470331922565896,0.341675,-0.698853,0.500854,-0.379456
1470331922579807,0.342102,-0.703979,0.494873,-0.377502
1470331922602324,0.343933,-0.712585,0.484558,-0.372986
1470331922624920,0.343445,-0.704102,0.495605,-0.375061
1470331922639909,0.341675,-0.699707,0.501343,-0.377319
1470331922662368,0.341309,-0.700195,0.500854,-0.377319
1470331922684909,0.341797,-0.699463,0.502258,-0.376465
1470331922699897,0.343079,-0.699951,0.501892,-0.374817
1470331922722430,0.34491,-0.699829,0.502502,-0.372498
1470331922744938,0.345825,-0.700073,0.501831,-0.37207
1470331922759970,0.345947,-0.700256,0.502502,-0.370789
1470331922782490,0.34613,-0.700012,0.503357,-0.369995
1470331922805049,0.345947,-0.699646,0.504028,-0.369812
1470331922823149,0.345398,-0.69928,0.504761,-0.369995
1470331922842582,0.344666,-0.698486,0.506165,-0.370239
1470331922865064,0.344238,-0.697632,0.50769,-0.370178
1470331922883061,0.344116,-0.696899,0.508911,-0.370178
1470331922902580,0.343994,-0.696167,0.510071,-0.369934
1470331922925099,0.343994,-0.695496,0.511047,-0.369873
1470331922942630,0.343933,-0.694946,0.51178,-0.369934
1470331922962633,0.344116,-0.694275,0.512512,-0.369934
1470331922985153,0.344116,-0.693604,0.51355,-0.369812
1470331923002703,0.343445,-0.692993,0.514465,-0.370361
1470331923023687,0.343445,-0.692749,0.514587,-0.370667
1470331923044707,0.343994,-0.692383,0.515015,-0.370178
1470331923075762,0.344299,-0.691895,0.515625,-0.369995
1470331923083744,0.344604,-0.69165,0.515686,-0.369995
1470331923104762,0.344971,-0.691406,0.515747,-0.370117
1470331923122783,0.344849,-0.690918,0.516174,-0.370544
1470331923143796,0.344666,-0.690308,0.516724,-0.371094
1470331923164842,0.344666,-0.689819,0.517212,-0.371277
1470331923182891,0.345093,-0.68927,0.517578,-0.371399
1470331923203850,0.345154,-0.68866,0.518372,-0.371399
1470331923224918,0.344604,-0.688354,0.51886,-0.371704
1470331923242927,0.343933,-0.688477,0.518799,-0.372192
1470331923263905,0.343384,-0.688538,0.51886,-0.372559
1470331923284949,0.342896,-0.688171,0.519409,-0.372925
1470331923302941,0.342834,-0.687927,0.519653,-0.373169
1470331923325459,0.343201,-0.68811,0.519104,-0.373169
1470331923345004,0.343872,-0.68811,0.51886,-0.372986
1470331923362992,0.344299,-0.687744,0.519226,-0.372559
1470331923385512,0.344055,-0.687561,0.519409,-0.372925
1470331923405036,0.343811,-0.6875,0.519409,-0.373352
1470331923422581,0.343933,-0.687195,0.519836,-0.37323
1470331923445581,0.343872,-0.686462,0.520996,-0.372986
1470331923465096,0.343079,-0.68573,0.522095,-0.373413
1470331923487604,0.34198,-0.685242,0.52301,-0.374207
1470331923505153,0.341125,-0.684631,0.523865,-0.374817
1470331923525235,0.340698,-0.68396,0.524658,-0.375305
1470331923542655,0.340515,-0.683228,0.525391,-0.375732
1470331923565174,0.340637,-0.6828,0.525818,-0.375854
1470331923585693,0.34082,-0.682739,0.525635,-0.376038
1470331923602207,0.34082,-0.682617,0.525574,-0.376404
1470331923632235,0.340942,-0.682556,0.525452,-0.376587
1470331923645843,0.341431,-0.682556,0.525208,-0.376465
1470331923661761,0.341492,-0.682617,0.525146,-0.376404
1470331923684283,0.340576,-0.683594,0.524902,-0.375671
1470331923705800,0.338745,-0.68457,0.524963,-0.375549
1470331923721815,0.335693,-0.68512,0.526001,-0.375793
1470331923744336,0.33313,-0.685425,0.527832,-0.375
1470331923765355,0.330872,-0.686035,0.530884,-0.371582
1470331923781869,0.327393,-0.687012,0.535217,-0.366699
1470331923804389,0.321716,-0.688354,0.539246,-0.363159
1470331923825408,0.315613,-0.689697,0.542969,-0.360413
1470331923841922,0.311401,-0.690918,0.545898,-0.3573
1470331923864443,0.304382,-0.690674,0.551147,-0.355713
1470331923885551,0.300049,-0.691895,0.553955,-0.352722
1470331923901978,0.298218,-0.694946,0.553772,-0.348511
1470331923924498,0.298889,-0.698792,0.553467,-0.340576
1470331923945531,0.300232,-0.704468,0.550781,-0.33197
1470331923961530,0.295715,-0.71167,0.546082,-0.328491
1470331923984551,0.290894,-0.72052,0.538696,-0.325684
1470331924013077,0.289307,-0.727966,0.533203,-0.319397
1470331924022084,0.286377,-0.732605,0.533142,-0.311462
1470331924044604,0.283447,-0.735168,0.534668,-0.305481
1470331924065659,0.276978,-0.732849,0.542358,-0.303467
1470331924082169,0.26947,-0.728333,0.552795,-0.302246
1470331924104660,0.261963,-0.726379,0.558472,-0.303101
1470331924125677,0.256409,-0.725647,0.560425,-0.305908
1470331924141191,0.253845,-0.724915,0.56189,-0.307129
1470331924164712,0.252502,-0.724854,0.563416,-0.305542
1470331924185731,0.250244,-0.723999,0.566162,-0.304382
1470331924201245,0.246887,-0.722961,0.569336,-0.303711
1470331924224767,0.242737,-0.723022,0.57135,-0.303162
1470331924245786,0.238647,-0.723572,0.572205,-0.303467
1470331924261338,0.23584,-0.723572,0.573425,-0.303406
1470331924284320,0.233276,-0.722534,0.576477,-0.302124
1470331924306886,0.230225,-0.721985,0.579285,-0.300354
1470331924321355,0.228088,-0.722534,0.579285,-0.300537
1470331924344378,0.226624,-0.723022,0.578735,-0.301575
1470331924366894,0.226074,-0.724854,0.577148,-0.300598
1470331924381456,0.228088,-0.727234,0.575256,-0.296936
1470331924404427,0.229004,-0.727783,0.575928,-0.29364
1470331924426950,0.228333,-0.728027,0.576782,-0.29187
1470331924441494,0.226807,-0.727966,0.57782,-0.291138
1470331924464486,0.226074,-0.72876,0.577515,-0.290344
1470331924487027,0.225708,-0.728821,0.577332,-0.290833
1470331924501528,0.225281,-0.72876,0.577148,-0.291687
1470331924524543,0.22583,-0.728638,0.576843,-0.292114
1470331924547055,0.227478,-0.728455,0.57666,-0.291687
1470331924561569,0.22937,-0.727966,0.576355,-0.292053
1470331924584590,0.230408,-0.728088,0.575562,-0.29248
1470331924607111,0.230347,-0.728394,0.575378,-0.292175
1470331924621138,0.229858,-0.728699,0.575378,-0.291626
1470331924644643,0.229309,-0.729492,0.574463,-0.292114
1470331924667164,0.22821,-0.730286,0.573181,-0.293396
1470331924681178,0.228271,-0.731628,0.570923,-0.294434
1470331924704697,0.229187,-0.732239,0.56958,-0.2948
1470331924726719,0.230408,-0.732178,0.56897,-0.295227
1470331924748243,0.232117,-0.732239,0.567749,-0.295959
1470331924764752,0.233704,-0.733093,0.565125,-0.297729
1470331924786819,0.235352,-0.734192,0.56189,-0.299866
1470331924808336,0.236633,-0.734924,0.559265,-0.301941
1470331924824304,0.237366,-0.735474,0.55719,-0.303894
1470331924846825,0.238281,-0.736084,0.554871,-0.305786
1470331924867844,0.239319,-0.736694,0.552673,-0.307556
1470331924884359,0.240112,-0.737,0.550781,-0.30957
1470331924906879,0.241028,-0.737061,0.549133,-0.311707
1470331924927940,0.242493,-0.736694,0.547913,-0.313477
1470331924944412,0.244385,-0.736328,0.54718,-0.314148
1470331924966937,0.246521,-0.735962,0.546631,-0.314331
1470331924988010,0.24823,-0.735718,0.546021,-0.314514
1470331925004467,0.249268,-0.735535,0.545715,-0.314697
1470331925026987,0.250061,-0.735168,0.545654,-0.315002
1470331925048009,0.250854,-0.734619,0.545715,-0.315613
1470331925064521,0.251953,-0.733948,0.545837,-0.316101
1470331925087060,0.253296,-0.733154,0.546143,-0.316345
1470331925108075,0.254272,-0.732178,0.546997,-0.316345
1470331925124574,0.255005,-0.731262,0.547607,-0.316833
1470331925147094,0.255249,-0.730591,0.547668,-0.317993
1470331925168115,0.255127,-0.729919,0.547424,-0.320007
1470331925184628,0.255615,-0.728943,0.547607,-0.321472
1470331925207148,0.25647,-0.727905,0.548279,-0.322266
1470331925229668,0.257507,-0.726868,0.548645,-0.322998
1470331925243681,0.258789,-0.725891,0.549011,-0.323608
1470331925267202,0.260132,-0.725037,0.549377,-0.323853
1470331925289722,0.261597,-0.72467,0.54895,-0.324158
1470331925304735,0.262634,-0.72467,0.548218,-0.324646
1470331925326756,0.263184,-0.724731,0.547607,-0.325073
1470331925349280,0.263428,-0.724976,0.546814,-0.325684
1470331925363789,0.263672,-0.72467,0.546631,-0.326355
1470331925386830,0.263733,-0.723999,0.547302,-0.32666
1470331925409329,0.263916,-0.723389,0.547852,-0.327026
1470331925423845,0.264526,-0.7229,0.548279,-0.326965
1470331925446898,0.265808,-0.7229,0.547852,-0.326599
1470331925469383,0.267212,-0.723511,0.546448,-0.326416
1470331925483898,0.268677,-0.724243,0.544739,-0.326355
1470331925506917,0.270142,-0.724609,0.543823,-0.325989
1470331925529438,0.271423,-0.724731,0.543518,-0.325134
1470331925543955,0.272583,-0.724548,0.543762,-0.324158
1470331925566974,0.273132,-0.723938,0.544617,-0.323608
1470331925589527,0.273743,-0.723511,0.545166,-0.323059
1470331925604007,0.274536,-0.723389,0.545288,-0.322571
1470331925627030,0.275391,-0.723572,0.544617,-0.322571
1470331925649562,0.276733,-0.723938,0.543457,-0.322449
1470331925664061,0.278015,-0.723877,0.543335,-0.321716
1470331925687079,0.278625,-0.72345,0.543945,-0.321167
1470331925709600,0.278564,-0.723022,0.544434,-0.321411
1470331925730642,0.278076,-0.722534,0.545044,-0.32196
1470331925747133,0.27771,-0.721924,0.54541,-0.322876
1470331925769663,0.276672,-0.72113,0.546204,-0.324219
1470331925790717,0.276123,-0.719849,0.547607,-0.325073
1470331925807201,0.27533,-0.71814,0.549866,-0.325867
1470331925829707,0.274475,-0.716492,0.551758,-0.326965
1470331925852277,0.274109,-0.715393,0.55304,-0.327515
1470331925867242,0.273621,-0.715088,0.55365,-0.327515
1470331925889275,0.272888,-0.715576,0.553101,-0.328064
1470331925910781,0.272644,-0.716431,0.551819,-0.328552
1470331925927295,0.272888,-0.716553,0.551758,-0.328064
1470331925949815,0.272827,-0.716187,0.552856,-0.327026
1470331925970834,0.272461,-0.716003,0.553772,-0.326355
1470331925986874,0.271423,-0.715759,0.554443,-0.326538
1470331926009409,0.270142,-0.715698,0.554504,-0.327637
1470331926030419,0.269836,-0.715942,0.55365,-0.328796
1470331926046928,0.270386,-0.716187,0.552856,-0.329224
1470331926069422,0.271362,-0.716431,0.552002,-0.329163
1470331926090942,0.272644,-0.716614,0.551331,-0.328918
1470331926107004,0.273438,-0.716736,0.550964,-0.328613
1470331926136983,0.273499,-0.71698,0.550171,-0.329346
1470331926150494,0.27356,-0.717346,0.548889,-0.330566
1470331926167010,0.274292,-0.71759,0.547913,-0.331055
1470331926189571,0.275391,-0.717407,0.547729,-0.330933
1470331926212050,0.276245,-0.717285,0.547546,-0.33075
1470331926227065,0.276611,-0.71759,0.546997,-0.33075
1470331926249584,0.276367,-0.717957,0.546326,-0.331116
1470331926272117,0.275818,-0.718384,0.545715,-0.331787
1470331926287127,0.275391,-0.718384,0.545715,-0.332031
1470331926309659,0.275146,-0.718262,0.546143,-0.331909
1470331926332158,0.275024,-0.71814,0.546021,-0.332458
1470331926346197,0.275269,-0.717773,0.546265,-0.332581
1470331926369692,0.275696,-0.717407,0.546753,-0.332275
1470331926392212,0.27594,-0.717896,0.546143,-0.33197
1470331926406226,0.275696,-0.719116,0.544434,-0.332336
1470331926429810,0.275513,-0.71991,0.543152,-0.332886
1470331926452273,0.275696,-0.720093,0.543274,-0.332153
1470331926466286,0.275696,-0.719727,0.544434,-0.331055
1470331926489799,0.275208,-0.71936,0.545349,-0.330688
1470331926511821,0.274475,-0.718994,0.546021,-0.330994
1470331926540845,0.274292,-0.718567,0.546875,-0.330688
1470331926549354,0.274841,-0.718262,0.547424,-0.329895
1470331926571874,0.275879,-0.718506,0.547119,-0.329041
1470331926586387,0.276917,-0.719116,0.546509,-0.327942
1470331926609409,0.277893,-0.719543,0.546082,-0.326843
1470331926631929,0.278015,-0.719238,0.546875,-0.32605
1470331926646441,0.278137,-0.718689,0.548035,-0.325378
1470331926669463,0.278198,-0.717773,0.549561,-0.324585
1470331926691983,0.278503,-0.716797,0.551086,-0.324036
1470331926713535,0.278992,-0.716064,0.552246,-0.323181
1470331926729516,0.279785,-0.715576,0.55304,-0.322144
1470331926752035,0.280151,-0.715454,0.553528,-0.32135
1470331926773080,0.280029,-0.715454,0.553833,-0.320923
1470331926789586,0.280273,-0.715393,0.553833,-0.32074
1470331926812090,0.281616,-0.715027,0.554077,-0.320129
1470331926833115,0.284302,-0.714233,0.554504,-0.318726
1470331926849627,0.287781,-0.713806,0.554321,-0.316772
1470331926872145,0.291199,-0.714478,0.552673,-0.315063
1470331926893188,0.293396,-0.71521,0.551208,-0.313965
1470331926909700,0.294617,-0.714966,0.551453,-0.312988
1470331926932218,0.295776,-0.714355,0.552429,-0.311584
1470331926954218,0.297302,-0.713135,0.553833,-0.310303
1470331926969732,0.298462,-0.71167,0.555786,-0.309143
1470331926992252,0.299072,-0.710632,0.557129,-0.308472
1470331927013269,0.29895,-0.709961,0.557922,-0.308655
1470331927028795,0.298889,-0.709961,0.557739,-0.309021
1470331927051807,0.299561,-0.710205,0.557312,-0.308777
1470331927073323,0.300781,-0.710144,0.557129,-0.307983
1470331927089388,0.301392,-0.710266,0.556946,-0.307312
1470331927111858,0.301147,-0.710754,0.556702,-0.307068
1470331927134378,0.299988,-0.711365,0.556091,-0.3078
1470331927149397,0.299561,-0.711121,0.555847,-0.309204
1470331927171940,0.30072,-0.711487,0.555054,-0.308777
1470331927194434,0.302002,-0.713135,0.552795,-0.307678
1470331927208951,0.301697,-0.713928,0.551453,-0.308533
1470331927231967,0.301208,-0.713684,0.551697,-0.309082
1470331927254492,0.30072,-0.712708,0.553711,-0.308411
1470331927277006,0.298645,-0.712402,0.554382,-0.309753
1470331927292021,0.296326,-0.71228,0.553833,-0.313171
1470331927314542,0.29364,-0.712769,0.554016,-0.314331
1470331927335560,0.291382,-0.71344,0.553528,-0.315735
1470331927352128,0.291504,-0.714661,0.552856,-0.314026
1470331927374596,0.292786,-0.716064,0.551392,-0.312195
1470331927395666,0.293274,-0.71698,0.550964,-0.310364
1470331927412128,0.294189,-0.720337,0.545959,-0.310608
1470331927434649,0.293091,-0.721924,0.542114,-0.314697
1470331927455694,0.28772,-0.723694,0.541565,-0.316589
1470331927472182,0.279419,-0.723816,0.544495,-0.318726
1470331927494759,0.27478,-0.722839,0.548462,-0.318176
1470331927515808,0.270508,-0.720398,0.552246,-0.320862
1470331927532245,0.266113,-0.716919,0.55719,-0.323608
1470331927554778,0.26416,-0.712769,0.561462,-0.327026
1470331927575820,0.262817,-0.707581,0.567139,-0.32959
1470331927599796,0.259949,-0.702148,0.57312,-0.33313
1470331927614310,0.259216,-0.698547,0.574951,-0.338074
1470331927635828,0.260803,-0.696533,0.57489,-0.341125
1470331927652344,0.262512,-0.694885,0.573975,-0.344666
1470331927674379,0.264465,-0.694092,0.57196,-0.348083
1470331927695461,0.267761,-0.694214,0.567932,-0.351868
1470331927711900,0.271362,-0.694031,0.564514,-0.355042
1470331927734918,0.276062,-0.693726,0.560425,-0.358398
1470331927755936,0.282593,-0.692627,0.55603,-0.362305
1470331927771952,0.287476,-0.690247,0.554688,-0.36499
1470331927794472,0.289551,-0.688599,0.552795,-0.369324
1470331927815574,0.289917,-0.687927,0.549438,-0.375305
1470331927839513,0.289185,-0.687744,0.546326,-0.380676
1470331927855027,0.288269,-0.68811,0.543152,-0.385254
1470331927875549,0.288452,-0.68927,0.539978,-0.387512
1470331927892059,0.288147,-0.689758,0.538269,-0.38916
1470331927914587,0.288025,-0.690186,0.537842,-0.389099
1470331927935646,0.287537,-0.690552,0.538269,-0.388184
1470331927951658,0.287476,-0.690979,0.539001,-0.386536
1470331927974636,0.288208,-0.691711,0.539856,-0.383484
1470331927995711,0.289795,-0.691528,0.541748,-0.379944
1470331928011166,0.292297,-0.690186,0.544861,-0.375977
1470331928035230,0.294678,-0.68927,0.548584,-0.3703
1470331928057212,0.295593,-0.688904,0.553833,-0.362305
1470331928071220,0.293274,-0.689697,0.558838,-0.355042
1470331928094741,0.289856,-0.692078,0.560913,-0.349854
1470331928117265,0.292786,-0.686707,0.565735,-0.35022
1470331928131274,0.295227,-0.684021,0.572876,-0.341797
1470331928154813,0.300842,-0.683411,0.576965,-0.331055
1470331928177315,0.303955,-0.679688,0.583313,-0.324585
1470331928191331,0.31189,-0.671997,0.588745,-0.323242
1470331928214869,0.319214,-0.670105,0.587036,-0.323242
1470331928236869,0.321167,-0.668762,0.587769,-0.322693
1470331928258412,0.321777,-0.668091,0.591248,-0.317078
1470331928274403,0.32312,-0.666687,0.5979,-0.306091
1470331928297424,0.325745,-0.66394,0.605103,-0.2948
1470331928318442,0.330078,-0.660583,0.611877,-0.283264
1470331928334457,0.331116,-0.661011,0.616577,-0.270691
1470331928356976,0.328369,-0.662231,0.621155,-0.260254
1470331928378506,0.325684,-0.662476,0.625305,-0.252991
1470331928394510,0.322327,-0.664795,0.625488,-0.250793
1470331928417031,0.320801,-0.667786,0.622437,-0.252563
1470331928438549,0.32135,-0.668762,0.619629,-0.25592
1470331928454564,0.319702,-0.669861,0.618958,-0.256958
1470331928477086,0.313721,-0.673279,0.617126,-0.259583
1470331928498132,0.306946,-0.677124,0.61438,-0.26416
1470331928514618,0.302307,-0.679749,0.61438,-0.262939
1470331928537138,0.296143,-0.679077,0.618958,-0.260803
1470331928558187,0.290222,-0.679199,0.620911,-0.262634
1470331928574672,0.283081,-0.682983,0.616882,-0.269897
1470331928597192,0.278259,-0.68573,0.611755,-0.279419
1470331928618238,0.276306,-0.684814,0.609375,-0.288757
1470331928634750,0.273315,-0.683044,0.60791,-0.298584
1470331928657288,0.26886,-0.684143,0.604126,-0.307617
1470331928678277,0.267395,-0.68573,0.597778,-0.317688
1470331928694780,0.26825,-0.686279,0.591064,-0.328308
1470331928717299,0.266968,-0.685242,0.587341,-0.338013
1470331928738318,0.264587,-0.684692,0.584717,-0.345398
1470331928754877,0.263672,-0.685669,0.580444,-0.351257
1470331928776854,0.266846,-0.68689,0.572815,-0.35907
1470331928798436,0.271484,-0.685303,0.566772,-0.368103
1470331928813937,0.272705,-0.682373,0.5625,-0.378906
1470331928836912,0.273804,-0.678711,0.557251,-0.392273
1470331928858436,0.276917,-0.675659,0.549194,-0.406433
1470331928874442,0.282532,-0.66925,0.545044,-0.418579
1470331928896962,0.291748,-0.66156,0.543213,-0.426758
1470331928917981,0.297668,-0.657166,0.53833,-0.435547
1470331928924987,0.296875,-0.654114,0.535522,-0.444153
1470331928941506,0.299377,-0.649109,0.534912,-0.450439
1470331928962521,0.301697,-0.64856,0.531311,-0.453979
1470331928985042,0.315857,-0.645386,0.525696,-0.455322
1470331929001555,0.335083,-0.639099,0.522095,-0.454651
1470331929022592,0.338135,-0.639099,0.518799,-0.456177
1470331929045108,0.332092,-0.646179,0.513916,-0.456177
1470331929061652,0.334473,-0.658997,0.501221,-0.450134
1470331929082675,0.337219,-0.660828,0.498718,-0.448242
1470331929105190,0.334961,-0.64856,0.502747,-0.463074
1470331929121662,0.335205,-0.643066,0.499084,-0.474426
1470331929142681,0.337952,-0.649353,0.486084,-0.477295
1470331929165203,0.338257,-0.650391,0.481873,-0.480042
1470331929181734,0.340454,-0.645325,0.484009,-0.483093
1470331929202736,0.336365,-0.642273,0.492249,-0.48175
1470331929225285,0.332336,-0.644897,0.491516,-0.48175
1470331929241273,0.335449,-0.64502,0.483215,-0.487732
1470331929262855,0.338501,-0.636719,0.476196,-0.503235
1470331929285034,0.341309,-0.629517,0.472656,-0.513611
1470331929301499,0.345947,-0.62793,0.469971,-0.514954
1470331929322518,0.354004,-0.630371,0.467957,-0.508301
1470331929345057,0.361877,-0.631104,0.469238,-0.50061
1470331929361553,0.368225,-0.633057,0.47052,-0.492188
1470331929382571,0.374756,-0.635376,0.47168,-0.483032
1470331929405093,0.380188,-0.638306,0.473267,-0.473389
1470331929421606,0.385864,-0.641174,0.475891,-0.462036
1470331929442639,0.391663,-0.644043,0.480347,-0.448425
1470331929465168,0.397583,-0.646606,0.486084,-0.433105
1470331929481660,0.402832,-0.648682,0.49176,-0.418457
1470331929502678,0.404968,-0.652771,0.496094,-0.404724
1470331929525199,0.406738,-0.656372,0.501099,-0.390747
1470331929541799,0.408264,-0.659546,0.508484,-0.373901
1470331929562733,0.406677,-0.66394,0.516846,-0.355896
1470331929585253,0.404602,-0.667603,0.52594,-0.337708
1470331929601268,0.403564,-0.670715,0.534058,-0.319519
1470331929622812,0.401123,-0.676208,0.540222,-0.299988
1470331929644810,0.395325,-0.682434,0.547974,-0.278809
1470331929661321,0.391663,-0.686462,0.553101,-0.263672
1470331929682892,0.389038,-0.687134,0.558044,-0.255005
1470331929704883,0.380188,-0.689087,0.563477,-0.25116
1470331929722877,0.368591,-0.694397,0.56665,-0.246704
1470331929742437,0.358154,-0.699768,0.568787,-0.241821
1470331929764942,0.345947,-0.699585,0.576294,-0.242432
1470331929782932,0.335327,-0.699585,0.581848,-0.244141
1470331929802448,0.330078,-0.705139,0.580872,-0.237549
1470331929824994,0.326904,-0.710999,0.583496,-0.217346
1470331929841489,0.318787,-0.710266,0.594788,-0.200378
1470331929862516,0.310669,-0.712463,0.595886,-0.202026
1470331929885070,0.30542,-0.717834,0.589905,-0.208374
1470331929901578,0.302368,-0.722168,0.583618,-0.215454
1470331929922589,0.298096,-0.722534,0.583252,-0.22113
1470331929945130,0.289734,-0.720886,0.587402,-0.226563
1470331929963097,0.284363,-0.72113,0.587646,-0.231812
1470331929982674,0.279907,-0.720093,0.587891,-0.239746
1470331930005130,0.273621,-0.720032,0.586365,-0.250732
1470331930023147,0.26825,-0.721008,0.582825,-0.26178
1470331930042664,0.269226,-0.719666,0.57843,-0.273987
1470331930065184,0.26947,-0.720032,0.569397,-0.291016
1470331930083221,0.265808,-0.721252,0.560974,-0.307312
1470331930102718,0.267273,-0.721985,0.550232,-0.323364
1470331930125238,0.273987,-0.719177,0.543518,-0.335144
1470331930143263,0.281006,-0.716003,0.537903,-0.345032
1470331930162843,0.285278,-0.710632,0.53418,-0.358154
1470331930185292,0.286865,-0.705078,0.530823,-0.372559
1470331930203349,0.289673,-0.696716,0.528442,-0.38916
1470331930222325,0.295776,-0.68634,0.525269,-0.40686
1470331930245351,0.29895,-0.678589,0.518799,-0.425537
1470331930262861,0.295471,-0.675598,0.509827,-0.443115
1470331930282896,0.291687,-0.668213,0.502625,-0.464478
1470331930304955,0.295715,-0.659851,0.495239,-0.481567
1470331930322930,0.300903,-0.652527,0.487732,-0.495789
1470331930342466,0.31134,-0.65033,0.478271,-0.501404
1470331930364953,0.309998,-0.647644,0.47052,-0.512878
1470331930382969,0.305176,-0.646057,0.457275,-0.52948
1470331930402489,0.314331,-0.634827,0.444336,-0.548401
1470331930425034,0.332703,-0.626953,0.448547,-0.543152
1470331930447527,0.333801,-0.625244,0.453186,-0.54071
1470331930462541,0.334717,-0.630249,0.447815,-0.538757
1470331930492596,0.341309,-0.627014,0.447449,-0.538696
1470331930503077,0.352905,-0.62085,0.44873,-0.537292
1470331930522651,0.362366,-0.618774,0.447205,-0.534668
1470331930545167,0.369324,-0.619263,0.445984,-0.530334
1470331930563180,0.378235,-0.618774,0.446167,-0.524414
1470331930584149,0.385437,-0.619568,0.4505,-0.514465
1470331930605178,0.391479,-0.622803,0.460754,-0.496582
1470331930623185,0.394043,-0.627625,0.473328,-0.476196
1470331930644226,0.398315,-0.631653,0.486511,-0.453491
1470331930665223,0.402344,-0.635864,0.493896,-0.435791
1470331930683238,0.404907,-0.640869,0.496582,-0.422791
1470331930703764,0.405823,-0.644592,0.500916,-0.41095
1470331930725364,0.405701,-0.647705,0.509766,-0.39502
1470331930743394,0.406067,-0.650146,0.519531,-0.377502
1470331930763815,0.404297,-0.652954,0.527283,-0.363525
1470331930785330,0.398376,-0.655396,0.534668,-0.354919
1470331930802875,0.389343,-0.660217,0.539795,-0.348145
1470331930823865,0.378296,-0.667847,0.542419,-0.341614
1470331930844927,0.369934,-0.672852,0.547363,-0.332947
1470331930863412,0.36731,-0.677429,0.551819,-0.318787
1470331930883919,0.36615,-0.67926,0.558167,-0.304932
1470331930904939,0.357971,-0.680481,0.566284,-0.296753
1470331930922971,0.34259,-0.686096,0.569763,-0.295471
1470331930945482,0.325623,-0.693848,0.569214,-0.297668
1470331930966528,0.316711,-0.698364,0.569092,-0.296753
1470331930983061,0.317139,-0.697815,0.571594,-0.292969
1470331931005560,0.314148,-0.694214,0.575623,-0.296631
1470331931025072,0.301514,-0.69928,0.572754,-0.303406
1470331931043093,0.290344,-0.700623,0.571472,-0.313477
1470331931065588,0.28418,-0.698242,0.572876,-0.321716
1470331931085187,0.277954,-0.698914,0.572083,-0.327209
1470331931102115,0.272034,-0.698425,0.573181,-0.331238
1470331931124635,0.268921,-0.697937,0.573853,-0.333557
1470331931145670,0.266968,-0.697388,0.572998,-0.337646
1470331931162171,0.265137,-0.695068,0.572021,-0.34552
1470331931184689,0.264832,-0.692871,0.568787,-0.355408
1470331931205771,0.265991,-0.689636,0.565125,-0.366394
1470331931222223,0.268494,-0.685242,0.563477,-0.375305
1470331931244754,0.272278,-0.681641,0.562561,-0.380493
1470331931265761,0.276794,-0.678101,0.562012,-0.384338
1470331931283287,0.280823,-0.67395,0.560303,-0.391113
1470331931305820,0.283569,-0.669983,0.555603,-0.402527
1470331931325858,0.286316,-0.665894,0.549622,-0.415283
1470331931342831,0.291443,-0.659912,0.54425,-0.428223
1470331931364389,0.297852,-0.655334,0.536194,-0.440857
1470331931385915,0.301758,-0.651062,0.529663,-0.452209
1470331931401900,0.302612,-0.645386,0.526794,-0.463074
1470331931424437,0.30127,-0.642578,0.521484,-0.473694
1470331931445930,0.301514,-0.640991,0.511353,-0.486572
1470331931461938,0.306519,-0.638794,0.498779,-0.499146
1470331931491965,0.315247,-0.633667,0.490845,-0.508118
1470331931505978,0.317871,-0.624329,0.490112,-0.518677
1470331931521992,0.305908,-0.623352,0.482727,-0.533752
1470331931544512,0.296814,-0.623779,0.470581,-0.54895
1470331931565563,0.301514,-0.617188,0.46405,-0.559326
1470331931582048,0.305359,-0.609375,0.460754,-0.568481
1470331931604566,0.308044,-0.608826,0.454834,-0.572388
1470331931625585,0.312805,-0.606018,0.456543,-0.571411
1470331931642101,0.317627,-0.603333,0.458862,-0.569702
1470331931664624,0.322021,-0.604675,0.455688,-0.568359
1470331931685669,0.328918,-0.603638,0.456299,-0.565002
1470331931702154,0.33905,-0.601563,0.458374,-0.55957
1470331931724683,0.3479,-0.601563,0.461243,-0.551697
1470331931745722,0.356079,-0.601074,0.466736,-0.542236
1470331931761706,0.363281,-0.603455,0.473022,-0.529297
1470331931784728,0.370178,-0.606018,0.48053,-0.514587
1470331931813312,0.379272,-0.608826,0.48761,-0.497742
1470331931821768,0.390015,-0.61084,0.494263,-0.47998
1470331931844781,0.398315,-0.612671,0.502197,-0.462402
1470331931866802,0.402893,-0.61615,0.510986,-0.443787
1470331931881314,0.406006,-0.619751,0.520874,-0.424072
1470331931904338,0.409241,-0.623047,0.528198,-0.406616
1470331931927356,0.412292,-0.627319,0.530579,-0.393616
1470331931941371,0.411804,-0.630676,0.534119,-0.383911
1470331931964389,0.405945,-0.634216,0.540894,-0.374756
1470331931986909,0.397705,-0.640503,0.548279,-0.361938
1470331932001422,0.393127,-0.645874,0.556335,-0.344604
1470331932024483,0.396484,-0.648254,0.559937,-0.330139
1470331932046965,0.3927,-0.64856,0.565308,-0.32489
1470331932067987,0.37616,-0.652405,0.571045,-0.326721
1470331932084497,0.3573,-0.66095,0.573059,-0.327148
1470331932107017,0.346436,-0.666321,0.574402,-0.325684
1470331932128036,0.343689,-0.66449,0.580322,-0.321777
1470331932144551,0.334412,-0.666931,0.584412,-0.319214
1470331932167071,0.319763,-0.667358,0.589417,-0.324097
1470331932188090,0.306213,-0.670105,0.590393,-0.329651
1470331932204607,0.297485,-0.670166,0.590698,-0.336792
1470331932227127,0.292969,-0.667603,0.592712,-0.342224
1470331932248159,0.286682,-0.666321,0.596375,-0.343811
1470331932264658,0.279175,-0.662842,0.602417,-0.346191
1470331932287194,0.273254,-0.66217,0.603088,-0.350891
1470331932308254,0.270447,-0.661011,0.600708,-0.359314
1470331932324712,0.269531,-0.658203,0.598877,-0.368103
1470331932347233,0.268921,-0.655518,0.597961,-0.374756
1470331932368283,0.269348,-0.653809,0.597107,-0.378723
1470331932384767,0.270813,-0.652405,0.595154,-0.38324
1470331932407287,0.272705,-0.650879,0.59259,-0.388367
1470331932428306,0.274597,-0.646912,0.591492,-0.395203
1470331932444822,0.27417,-0.644043,0.588562,-0.404541
1470331932466841,0.273438,-0.642334,0.58197,-0.417053
1470331932488391,0.277527,-0.639465,0.5755,-0.427673
1470331932510880,0.286926,-0.633667,0.571838,-0.434875
1470331932526894,0.293457,-0.628723,0.568787,-0.441711
1470331932548433,0.294739,-0.622498,0.564148,-0.455383
1470331932563960,0.291748,-0.616882,0.556519,-0.473999
1470331932587452,0.289551,-0.613464,0.546936,-0.49054
1470331932609468,0.294983,-0.609497,0.539551,-0.500427
1470331932623983,0.30603,-0.601929,0.534424,-0.508301
1470331932647503,0.311646,-0.595215,0.526367,-0.521057
1470331932668021,0.307617,-0.591309,0.518188,-0.535889
1470331932691083,0.298462,-0.589111,0.509888,-0.55127
1470331932707057,0.303101,-0.582153,0.506104,-0.55957
1470331932728118,0.312073,-0.578369,0.498108,-0.565674
1470331932744125,0.312439,-0.57605,0.489136,-0.575623
1470331932767109,0.307739,-0.571777,0.484558,-0.586182
1470331932788638,0.308777,-0.570496,0.481873,-0.58905
1470331932804145,0.318237,-0.570923,0.477783,-0.586914
1470331932827164,0.3302,-0.569519,0.473022,-0.58551
1470331932849684,0.341003,-0.56897,0.467712,-0.584167
1470331932863712,0.351135,-0.572205,0.464661,-0.577393
1470331932887219,0.355347,-0.572449,0.470642,-0.569702
1470331932909741,0.357056,-0.570862,0.480469,-0.561951
1470331932923888,0.363831,-0.574524,0.486511,-0.548523
1470331932947271,0.372314,-0.579041,0.489624,-0.535095
1470331932969791,0.376892,-0.581848,0.49585,-0.52301
1470331932983804,0.3797,-0.584229,0.503601,-0.510742
1470331933007327,0.38623,-0.587036,0.509888,-0.496155
1470331933029845,0.394653,-0.59137,0.51355,-0.480408
1470331933050364,0.40271,-0.595276,0.518494,-0.463257
1470331933068881,0.406494,-0.598633,0.5271,-0.445679
1470331933089899,0.407227,-0.59967,0.538574,-0.429626
1470331933110918,0.407715,-0.604126,0.544739,-0.414795
1470331933127433,0.405273,-0.609863,0.545776,-0.407349
1470331933149453,0.404846,-0.615173,0.546448,-0.398804
1470331933170493,0.40564,-0.624878,0.550537,-0.376648
1470331933186986,0.40094,-0.626221,0.566101,-0.355835
1470331933209512,0.391052,-0.631836,0.575867,-0.340942
1470331933231137,0.379456,-0.640747,0.57489,-0.339111
1470331933247041,0.370422,-0.640747,0.575989,-0.347046
1470331933269561,0.355042,-0.646606,0.576233,-0.351807
1470331933290579,0.340576,-0.650085,0.584534,-0.346008
1470331933307096,0.330627,-0.649353,0.596252,-0.336914
1470331933329637,0.319275,-0.649841,0.601379,-0.33783
1470331933350635,0.305176,-0.653992,0.597046,-0.35022
1470331933367187,0.293091,-0.65448,0.592712,-0.366699
1470331933389671,0.288635,-0.65094,0.592224,-0.377136
1470331933410704,0.286316,-0.647949,0.594971,-0.3797
1470331933427203,0.28064,-0.645386,0.599121,-0.381714
1470331933449724,0.27478,-0.645569,0.597534,-0.388306
1470331933470765,0.271912,-0.644714,0.59259,-0.399109
1470331933487257,0.273804,-0.641968,0.587463,-0.409729
1470331933509777,0.276367,-0.638916,0.583191,-0.41864
1470331933530797,0.279053,-0.635742,0.578735,-0.427856
1470331933546810,0.281799,-0.634216,0.572205,-0.437012
1470331933569832,0.291504,-0.634705,0.560974,-0.444336
1470331933590909,0.30127,-0.631775,0.559204,-0.444275
1470331933607369,0.308533,-0.625549,0.560486,-0.446533
1470331933629884,0.306519,-0.627319,0.557617,-0.449036
1470331933650903,0.307068,-0.626343,0.549866,-0.459473
1470331933666464,0.312622,-0.62384,0.538147,-0.472717
1470331933689938,0.31604,-0.622009,0.527527,-0.484741
1470331933710957,0.317322,-0.623352,0.520996,-0.489197
1470331933726473,0.325562,-0.60968,0.504761,-0.517212
1470331933756108,0.32782,-0.607117,0.499695,-0.523682
1470331933772013,0.31781,-0.606628,0.499573,-0.530579
1470331933786548,0.303284,-0.608765,0.502502,-0.533813
1470331933809547,0.288452,-0.618225,0.507874,-0.526001
1470331933832067,0.277832,-0.633179,0.518555,-0.502991
1470331933846634,0.26709,-0.645142,0.542114,-0.467529
1470331933869600,0.250488,-0.654846,0.56427,-0.435974
1470331933899628,0.250793,-0.666565,0.554688,-0.430298
1470331933906642,0.25531,-0.67627,0.544556,-0.425415
1470331933929655,0.24939,-0.675659,0.547607,-0.425903
1470331933952173,0.239197,-0.672974,0.550964,-0.431702
1470331933973194,0.240112,-0.674622,0.546204,-0.434692
1470331933989707,0.245911,-0.672302,0.545044,-0.436462
1470331934012227,0.247986,-0.6745,0.548889,-0.426941
1470331934033276,0.251953,-0.671143,0.554688,-0.422363
1470331934049776,0.261658,-0.674866,0.551208,-0.415161
1470331934072281,0.274902,-0.682129,0.542114,-0.406555
1470331934100860,0.290955,-0.68988,0.531311,-0.396423
1470331934109833,0.301453,-0.690002,0.531189,-0.388367
1470331934139843,0.30542,-0.679504,0.546204,-0.382996
1470331934153378,0.311218,-0.671143,0.556763,-0.377808
1470331934169870,0.322754,-0.665588,0.562134,-0.369873
1470331934192389,0.336731,-0.658264,0.568115,-0.361267
1470331934213408,0.346375,-0.647095,0.578796,-0.355408
1470331934229425,0.351563,-0.635254,0.590332,-0.352722
1470331934252443,0.356262,-0.63031,0.596008,-0.347351
1470331934273462,0.360229,-0.631714,0.595581,-0.341248
1470331934289977,0.364441,-0.63269,0.594177,-0.337341
1470331934311997,0.365845,-0.629028,0.598145,-0.335632
1470331934333516,0.36554,-0.623596,0.604675,-0.334473
1470331934349531,0.372314,-0.623596,0.602905,-0.330078
1470331934372051,0.385071,-0.632324,0.588501,-0.324951
1470331934393095,0.395935,-0.640259,0.575378,-0.319763
1470331934409585,0.396179,-0.633728,0.583252,-0.318176
1470331934432104,0.391602,-0.617188,0.604187,-0.317383
1470331934453647,0.389465,-0.603516,0.619751,-0.316223
1470331934469641,0.392212,-0.608398,0.613464,-0.315735
1470331934492159,0.396118,-0.617798,0.601563,-0.315613
1470331934513233,0.392212,-0.618774,0.601501,-0.318542
1470331934529697,0.381775,-0.614075,0.610352,-0.323364
1470331934552217,0.372314,-0.609192,0.617859,-0.329468
1470331934573276,0.368042,-0.609131,0.619263,-0.331604
1470331934588745,0.361694,-0.611572,0.618469,-0.335571
1470331934612268,0.350708,-0.611755,0.620911,-0.342407
1470331934633289,0.340454,-0.612183,0.62323,-0.347717
1470331934649336,0.332581,-0.614624,0.622864,-0.351624
1470331934672336,0.325684,-0.617676,0.621216,-0.355713
1470331934693368,0.319275,-0.621399,0.618774,-0.359131
1470331934708853,0.312134,-0.62738,0.61438,-0.362671
1470331934732374,0.302551,-0.632751,0.610718,-0.367554
1470331934754897,0.290894,-0.636414,0.607605,-0.375732
1470331934768911,0.281067,-0.637695,0.606018,-0.383606
1470331934792428,0.274902,-0.637451,0.605835,-0.388733
1470331934814949,0.268494,-0.635254,0.608276,-0.392883
1470331934828962,0.259949,-0.632813,0.612488,-0.396057
1470331934852483,0.251892,-0.630859,0.616699,-0.397827
1470331934874503,0.243652,-0.629028,0.620361,-0.400146
1470331934895523,0.232788,-0.629272,0.62146,-0.40448
1470331934912037,0.216309,-0.63147,0.619141,-0.413757
1470331934934558,0.197083,-0.631958,0.617004,-0.425537
1470331934956094,0.180603,-0.628479,0.617493,-0.437195
1470331934972089,0.175781,-0.624207,0.619995,-0.441711
1470331934994635,0.17511,-0.623901,0.619141,-0.443604
1470331935015628,0.171387,-0.624939,0.616638,-0.447021
1470331935032146,0.167542,-0.624634,0.615234,-0.450806
1470331935054683,0.167847,-0.623535,0.615295,-0.452209
1470331935092726,0.171265,-0.622498,0.615479,-0.452087
1470331935095201,0.175476,-0.623291,0.614441,-0.450806
1470331935114719,0.179016,-0.624146,0.612549,-0.450806
1470331935143244,0.183228,-0.625366,0.610229,-0.4505
1470331935152256,0.188843,-0.626282,0.609497,-0.447937
1470331935174775,0.195984,-0.625366,0.611267,-0.443604
1470331935195807,0.205017,-0.624207,0.614075,-0.437378
1470331935212309,0.215332,-0.622253,0.617615,-0.430115
1470331935234826,0.22644,-0.619568,0.621887,-0.422058
1470331935255897,0.239136,-0.616089,0.626892,-0.412598
