timestamp,x,y,z,w
1470345171734824,-0.236694,0.0578613,-0.401733,0.882751
1470345171748835,-0.236389,0.0578003,-0.401917,0.882751
1470345171772363,-0.236633,0.0579224,-0.401978,0.882629
1470345171794383,-0.237,0.0579224,-0.402039,0.882507
1470345171808395,-0.237,0.0579224,-0.402039,0.882507
1470345171832418,-0.237,0.0579224,-0.4021,0.882507
1470345171854457,-0.236816,0.0579834,-0.401978,0.882568
1470345171868469,-0.236572,0.0580444,-0.401978,0.882629
1470345171892491,-0.236389,0.0582275,-0.401917,0.88269
1470345171914510,-0.236206,0.0582886,-0.401855,0.882751
1470345171928523,-0.235901,0.0583496,-0.401917,0.882813
1470345171952076,-0.235962,0.0583496,-0.401917,0.882813
1470345171975096,-0.236328,0.0585327,-0.401978,0.88269
1470345171989110,-0.236633,0.0587158,-0.402039,0.882568
1470345172012128,-0.236816,0.0588989,-0.4021,0.882446
1470345172034658,-0.236816,0.0588989,-0.4021,0.882446
1470345172055682,-0.236816,0.0588989,-0.4021,0.882446
1470345172071696,-0.237122,0.0588989,-0.402161,0.882385
1470345172094719,-0.237427,0.0588989,-0.4021,0.882263
1470345172115737,-0.237427,0.0588989,-0.4021,0.882324
1470345172131751,-0.237427,0.0588989,-0.4021,0.882324
1470345172154785,-0.237427,0.0588989,-0.4021,0.882263
1470345172175803,-0.237427,0.05896,-0.401794,0.882446
1470345172191819,-0.237671,0.0591431,-0.401306,0.882568
1470345172214841,-0.238281,0.0593872,-0.400574,0.882751
1470345172235866,-0.238892,0.0591431,-0.39978,0.882935
1470345172251887,-0.238647,0.0584106,-0.399414,0.88324
1470345172274908,-0.23761,0.0578003,-0.399353,0.883545
1470345172295927,-0.237183,0.057373,-0.399475,0.883667
1470345172311941,-0.237976,0.057312,-0.399475,0.883484
1470345172334972,-0.23877,0.0574341,-0.399536,0.883179
1470345172355564,-0.23877,0.0574341,-0.399658,0.883118
1470345172371578,-0.238342,0.057312,-0.39978,0.88324
1470345172394600,-0.238342,0.057312,-0.39978,0.88324
1470345172415619,-0.238647,0.0574341,-0.399902,0.883057
1470345172431632,-0.238953,0.0574951,-0.399963,0.882935
1470345172454081,-0.239014,0.0574951,-0.399963,0.882935
1470345172475099,-0.238586,0.057312,-0.399658,0.883179
1470345172492116,-0.238159,0.057251,-0.399109,0.883545
1470345172515137,-0.237976,0.0574951,-0.398621,0.88385
1470345172537161,-0.237793,0.0575562,-0.398132,0.884094
1470345172551751,-0.237549,0.0577393,-0.397766,0.884338
1470345172574772,-0.237854,0.0581055,-0.397583,0.884277
1470345172596791,-0.238892,0.0586548,-0.397827,0.88385
1470345172611805,-0.240234,0.059082,-0.398254,0.88324
1470345172634827,-0.241089,0.0592651,-0.39856,0.882874
1470345172657358,-0.241394,0.0592651,-0.398682,0.882751
1470345172671372,-0.241028,0.0592651,-0.398804,0.882813
1470345172694392,-0.240662,0.0595703,-0.398865,0.882874
1470345172718413,-0.240295,0.0596313,-0.398865,0.882935
1470345172731426,-0.240234,0.0596924,-0.398865,0.882935
1470345172754955,-0.240234,0.0596313,-0.398987,0.882935
1470345172777476,-0.240051,0.0593262,-0.399048,0.882935
1470345172791487,-0.239807,0.05896,-0.399109,0.883057
1470345172815008,-0.239807,0.05896,-0.399109,0.883057
1470345172836603,-0.240234,0.0588989,-0.398865,0.882996
1470345172851617,-0.240356,0.0588379,-0.398743,0.883057
1470345172874636,-0.239807,0.0586548,-0.398865,0.883118
1470345172896657,-0.239502,0.0585938,-0.399048,0.883179
1470345172911670,-0.239502,0.0585938,-0.399048,0.883179
1470345172934201,-0.239807,0.059082,-0.399231,0.882935
1470345172957221,-0.240295,0.0595703,-0.399414,0.88269
1470345172971233,-0.240356,0.0598755,-0.399597,0.882568
1470345172994259,-0.240417,0.0601196,-0.399658,0.882507
1470345173017306,-0.240417,0.0601196,-0.399658,0.882507
1470345173038124,-0.240234,0.0601196,-0.399841,0.882507
1470345173054127,-0.240173,0.0601196,-0.39978,0.882507
1470345173077081,-0.240234,0.0601807,-0.39978,0.882507
1470345173098103,-0.239807,0.0598145,-0.39978,0.882629
1470345173114132,-0.239136,0.0595093,-0.39978,0.882874
1470345173137172,-0.238831,0.0592651,-0.399719,0.882996
1470345173159191,-0.23877,0.0591431,-0.399658,0.883057
1470345173174205,-0.23877,0.0591431,-0.399658,0.883057
1470345173197226,-0.238953,0.0591431,-0.399719,0.882935
1470345173218251,-0.239319,0.0592651,-0.399719,0.882813
1470345173234268,-0.239685,0.0594482,-0.399719,0.882751
1470345173257289,-0.239746,0.0594482,-0.399719,0.882751
1470345173278309,-0.239746,0.0594482,-0.399719,0.882751
1470345173294321,-0.239746,0.0594482,-0.399719,0.88269
1470345173317349,-0.239807,0.0594482,-0.399719,0.88269
1470345173338376,-0.239807,0.0594482,-0.399719,0.88269
1470345173354388,-0.239807,0.0594482,-0.399719,0.88269
1470345173377410,-0.239807,0.0594482,-0.399719,0.88269
1470345173398486,-0.239807,0.0594482,-0.399719,0.88269
1470345173414480,-0.239685,0.0595093,-0.399597,0.882813
1470345173436616,-0.23938,0.0592651,-0.399536,0.882935
1470345173459589,-0.239197,0.059021,-0.399536,0.882996
1470345173473601,-0.239197,0.059021,-0.399475,0.882996
1470345173496675,-0.239258,0.059082,-0.399475,0.882996
1470345173519650,-0.239441,0.059082,-0.399536,0.882874
1470345173534484,-0.239746,0.0591431,-0.399658,0.882751
1470345173557504,-0.239746,0.0591431,-0.399658,0.882751
1470345173579526,-0.239807,0.0591431,-0.399658,0.882751
1470345173600544,-0.239807,0.0591431,-0.399658,0.882751
1470345173617621,-0.239807,0.0591431,-0.399658,0.882751
1470345173639645,-0.239868,0.0591431,-0.399658,0.882751
1470345173653658,-0.239868,0.0591431,-0.399658,0.882751
1470345173676681,-0.239868,0.0591431,-0.399658,0.882751
1470345173699704,-0.239868,0.0591431,-0.399658,0.882751
1470345173713753,-0.239685,0.059082,-0.399658,0.882813
1470345173736844,-0.239441,0.059021,-0.399597,0.882874
1470345173766851,-0.239441,0.059021,-0.399597,0.882874
1470345173773855,-0.239441,0.059021,-0.399597,0.882874
1470345173796884,-0.239319,0.05896,-0.399536,0.882935
1470345173819938,-0.239319,0.05896,-0.399536,0.882935
1470345173834008,-0.23938,0.05896,-0.399536,0.882935
1470345173857027,-0.23938,0.05896,-0.399536,0.882935
1470345173879075,-0.239441,0.05896,-0.399536,0.882935
1470345173894061,-0.239441,0.05896,-0.399536,0.882935
1470345173917086,-0.239441,0.05896,-0.399536,0.882935
1470345173939155,-0.239502,0.05896,-0.399536,0.882874
1470345173961176,-0.239502,0.05896,-0.399536,0.882874
1470345173977190,-0.239502,0.05896,-0.399536,0.882874
1470345174000211,-0.239502,0.05896,-0.399536,0.882874
1470345174021241,-0.239502,0.05896,-0.399536,0.882874
1470345174044386,-0.23938,0.0588379,-0.399475,0.882996
1470345174059360,-0.239258,0.0587158,-0.399353,0.883057
1470345174080396,-0.239197,0.0585938,-0.399292,0.883118
1470345174097362,-0.239197,0.0584106,-0.399292,0.883118
1470345174119890,-0.239197,0.0584106,-0.399292,0.883118
1470345174140385,-0.239197,0.0584717,-0.399292,0.883118
1470345174157342,-0.239502,0.0585938,-0.399414,0.882996
1470345174179363,-0.239746,0.0586548,-0.399536,0.882874
1470345174200381,-0.239807,0.0586548,-0.399536,0.882874
1470345174217407,-0.239807,0.0586548,-0.399536,0.882874
1470345174239473,-0.239807,0.0586548,-0.399536,0.882813
1470345174260494,-0.239868,0.0586548,-0.399536,0.882813
1470345174277481,-0.239929,0.0584106,-0.399536,0.882813
1470345174299484,-0.239868,0.0584106,-0.399536,0.882813
1470345174322544,-0.239685,0.0581665,-0.399475,0.882935
1470345174337344,-0.239502,0.0579834,-0.399353,0.883057
1470345174359360,-0.239197,0.0580444,-0.399109,0.88324
1470345174381380,-0.23822,0.0582886,-0.398254,0.88385
1470345174397394,-0.237915,0.0585327,-0.397461,0.884277
1470345174420925,-0.237854,0.0588379,-0.397095,0.88446
1470345174441952,-0.237915,0.0588379,-0.397095,0.88446
1470345174456966,-0.238098,0.0591431,-0.397156,0.884338
1470345174479983,-0.238342,0.0594482,-0.397217,0.884216
1470345174502018,-0.239014,0.0598145,-0.397278,0.883972
1470345174517526,-0.239807,0.0604858,-0.397217,0.883789
1470345174540049,-0.240723,0.0614014,-0.397095,0.883484
1470345174562069,-0.241577,0.0620728,-0.397034,0.88324
1470345174576082,-0.242065,0.0622559,-0.397095,0.883057
1470345174600105,-0.241882,0.0620728,-0.397095,0.883118
1470345174622631,-0.241211,0.0617676,-0.397034,0.883362
1470345174636149,-0.240784,0.0612793,-0.396973,0.883545
1470345174659173,-0.240356,0.0606689,-0.396729,0.88385
1470345174682190,-0.239807,0.0604248,-0.396484,0.884094
1470345174696214,-0.239136,0.0602417,-0.396301,0.884338
1470345174719730,-0.238708,0.0601807,-0.39624,0.884521
1470345174741920,-0.238708,0.0601807,-0.396179,0.884521
1470345174756935,-0.23877,0.0601807,-0.396179,0.884521
1470345174779955,-0.238647,0.0599976,-0.395996,0.884644
1470345174801991,-0.238403,0.0595703,-0.395813,0.884827
1470345174825001,-0.237915,0.05896,-0.395874,0.884949
1470345174839521,-0.237732,0.0584717,-0.395996,0.88501
1470345174861591,-0.237732,0.0584106,-0.395996,0.88501
1470345174876553,-0.238159,0.0585327,-0.396057,0.884888
1470345174901577,-0.238525,0.0588379,-0.396057,0.884766
1470345174922606,-0.23877,0.05896,-0.396179,0.884644
1470345174943630,-0.238525,0.0588989,-0.396118,0.884705
1470345174959649,-0.237915,0.0587769,-0.395935,0.884949
1470345174982673,-0.237244,0.0588379,-0.395569,0.885315
1470345175003685,-0.237244,0.0591431,-0.395203,0.885437
1470345175019766,-0.237366,0.0592041,-0.394958,0.885498
1470345175041762,-0.237366,0.0592041,-0.394958,0.885498
1470345175062810,-0.237427,0.0592651,-0.394958,0.885498
1470345175079796,-0.237427,0.0592651,-0.394958,0.885498
1470345175101818,-0.237427,0.0592651,-0.394958,0.885498
1470345175123363,-0.237793,0.0593262,-0.394958,0.885376
1470345175139481,-0.237793,0.0593262,-0.394958,0.885376
1470345175162500,-0.238037,0.0591431,-0.395081,0.885315
1470345175183519,-0.23822,0.0587158,-0.395203,0.885193
1470345175199533,-0.237915,0.0581665,-0.395386,0.885254
1470345175222057,-0.237976,0.0581665,-0.395386,0.885254
1470345175243114,-0.237793,0.0580444,-0.395264,0.885376
1470345175259096,-0.238037,0.0582886,-0.395142,0.885315
1470345175282116,-0.238098,0.0582886,-0.395142,0.885315
1470345175303137,-0.238098,0.0582886,-0.395142,0.885315
1470345175319677,-0.238159,0.0581665,-0.395264,0.885254
1470345175342204,-0.237671,0.0579834,-0.395264,0.885376
1470345175364225,-0.237366,0.0582275,-0.395081,0.885498
1470345175379306,-0.237427,0.0584106,-0.394897,0.885559
1470345175402261,-0.237854,0.0587158,-0.394592,0.885559
1470345175430793,-0.238098,0.059021,-0.39447,0.885559
1470345175439338,-0.238098,0.059021,-0.39447,0.885559
1470345175462325,-0.238342,0.0591431,-0.394592,0.885437
1470345175484345,-0.238953,0.0591431,-0.394531,0.885254
1470345175499358,-0.239502,0.059082,-0.394409,0.885193
1470345175522467,-0.239807,0.0586548,-0.394409,0.885132
1470345175544159,-0.239929,0.0581055,-0.394348,0.885132
1470345175559173,-0.239746,0.0576782,-0.394409,0.885254
1470345175582194,-0.239197,0.0574951,-0.394104,0.885498
1470345175604252,-0.23938,0.0577393,-0.39386,0.885559
1470345175619328,-0.239441,0.0578003,-0.39386,0.885559
1470345175641856,-0.239319,0.0579834,-0.393982,0.885498
1470345175647870,-0.23938,0.0580444,-0.394165,0.885376
1470345175669880,-0.23938,0.0579834,-0.394226,0.885376
1470345175686896,-0.239197,0.0582275,-0.394226,0.885376
1470345175707914,-0.239136,0.0585938,-0.394165,0.885437
1470345175730440,-0.239075,0.059021,-0.393921,0.885559
1470345175745977,-0.239197,0.059082,-0.393799,0.885559
1470345175767986,-0.239197,0.059082,-0.393799,0.885559
1470345175790006,-0.239258,0.059082,-0.393738,0.885559
1470345175806020,-0.239258,0.059082,-0.393738,0.885559
1470345175828197,-0.239258,0.0591431,-0.393738,0.885559
1470345175850193,-0.239258,0.0591431,-0.393738,0.885559
1470345175866165,-0.239075,0.059082,-0.393616,0.885681
1470345175887240,-0.238953,0.05896,-0.393555,0.885742
1470345175910222,-0.239258,0.0588379,-0.393433,0.885681
1470345175926757,-0.239441,0.0585327,-0.393433,0.885681
1470345175947282,-0.239441,0.0582886,-0.393555,0.88562
1470345175970347,-0.239441,0.0582275,-0.393555,0.88562
1470345175995326,-0.239807,0.0584717,-0.393494,0.885559
1470345176007427,-0.239868,0.0585327,-0.393494,0.885559
1470345176030439,-0.239685,0.0587769,-0.393616,0.885559
1470345176046507,-0.239929,0.0587769,-0.39386,0.885376
1470345176067526,-0.239929,0.0587158,-0.39386,0.885315
1470345176090546,-0.239685,0.0586548,-0.393921,0.885376
1470345176106561,-0.239319,0.0586548,-0.393921,0.885498
1470345176128099,-0.239014,0.0587158,-0.393738,0.88562
1470345176149618,-0.238892,0.059021,-0.393433,0.885803
1470345176166630,-0.23877,0.059021,-0.393127,0.885986
1470345176187730,-0.238403,0.0587158,-0.392761,0.88623
1470345176209701,-0.238098,0.0587158,-0.392639,0.886414
1470345176226693,-0.238098,0.0587158,-0.392578,0.886414
1470345176247560,-0.238586,0.05896,-0.392456,0.886353
1470345176269600,-0.238953,0.059082,-0.392395,0.88623
1470345176286560,-0.23938,0.0594482,-0.392334,0.886108
1470345176307579,-0.239929,0.0595093,-0.392456,0.885925
1470345176330193,-0.240295,0.0593872,-0.392517,0.885803
1470345176347675,-0.240356,0.0592651,-0.392761,0.885681
1470345176367749,-0.240051,0.0591431,-0.392761,0.885803
1470345176389717,-0.240417,0.0592041,-0.392761,0.885681
1470345176407729,-0.240417,0.0592041,-0.392761,0.885681
1470345176427877,-0.240295,0.0592041,-0.392822,0.885681
1470345176450475,-0.23999,0.0591431,-0.392822,0.885742
1470345176467490,-0.23999,0.0591431,-0.392822,0.885742
1470345176487570,-0.239868,0.059021,-0.392761,0.885803
1470345176510529,-0.239563,0.05896,-0.392639,0.885986
1470345176528053,-0.239319,0.05896,-0.392517,0.886108
1470345176548075,-0.238831,0.059082,-0.392395,0.88623
1470345176570121,-0.238953,0.0595703,-0.392212,0.886292
1470345176588114,-0.239319,0.0597534,-0.392151,0.88623
1470345176609131,-0.239258,0.0595703,-0.392029,0.886292
1470345176630218,-0.239258,0.0595703,-0.392029,0.886292
1470345176648324,-0.239258,0.0596313,-0.392029,0.886292
1470345176667309,-0.239502,0.0597534,-0.392151,0.886169
1470345176690301,-0.23999,0.0597534,-0.39209,0.886047
1470345176708293,-0.240051,0.0597534,-0.39209,0.886047
1470345176727870,-0.239868,0.0596924,-0.392334,0.885925
1470345176750444,-0.240051,0.0596924,-0.392456,0.885864
1470345176768461,-0.240234,0.0594482,-0.392456,0.885864
1470345176787519,-0.240295,0.059021,-0.392456,0.885864
1470345176817507,-0.23999,0.0585938,-0.392456,0.885925
1470345176828091,-0.239441,0.0581665,-0.392517,0.886108
1470345176847711,-0.239441,0.0579834,-0.392517,0.886108
1470345176877738,-0.239929,0.0579834,-0.392456,0.886047
1470345176887692,-0.240234,0.0578003,-0.392395,0.885986
1470345176908711,-0.240234,0.0578003,-0.392395,0.885986
1470345176930318,-0.240234,0.0578003,-0.392395,0.885986
1470345176947846,-0.240601,0.0578003,-0.392334,0.885864
1470345176968905,-0.240601,0.0578003,-0.392334,0.885864
1470345176989927,-0.240662,0.0578003,-0.392334,0.885864
1470345177007900,-0.240662,0.0578003,-0.392334,0.885864
1470345177029427,-0.240723,0.0578003,-0.392334,0.885864
1470345177049974,-0.240723,0.0578003,-0.392334,0.885864
1470345177067989,-0.240723,0.0578613,-0.392334,0.885864
1470345177089011,-0.240662,0.0578613,-0.392334,0.885864
1470345177110067,-0.240662,0.0578613,-0.392334,0.885864
1470345177128105,-0.240356,0.0578613,-0.392151,0.886047
1470345177149170,-0.240234,0.0579224,-0.392029,0.886108
1470345177170244,-0.240234,0.0579834,-0.392029,0.886108
1470345177188250,-0.240295,0.0579834,-0.392029,0.886108
1470345177209224,-0.24054,0.0582275,-0.391968,0.886047
1470345177230259,-0.24054,0.0582275,-0.391968,0.886047
1470345177248280,-0.240723,0.0584717,-0.391968,0.885986
1470345177270298,-0.240845,0.0587158,-0.391907,0.885986
1470345177290331,-0.240845,0.0587158,-0.391907,0.885986
1470345177308360,-0.240967,0.05896,-0.391968,0.885925
1470345177330891,-0.240967,0.05896,-0.391968,0.885864
1470345177350179,-0.240967,0.05896,-0.391968,0.885864
1470345177368138,-0.240967,0.05896,-0.391968,0.885864
1470345177390159,-0.240967,0.05896,-0.391968,0.885925
1470345177410177,-0.240845,0.0588989,-0.391846,0.885986
1470345177428257,-0.240601,0.0588379,-0.391724,0.886108
1470345177450374,-0.240479,0.0587769,-0.391602,0.886169
1470345177470392,-0.240417,0.0588379,-0.391541,0.88623
1470345177488408,-0.240479,0.0588379,-0.391541,0.88623
1470345177510428,-0.240662,0.059082,-0.391541,0.886169
1470345177530451,-0.241028,0.0595093,-0.391663,0.885986
1470345177548562,-0.241089,0.0596313,-0.391968,0.885803
1470345177570551,-0.240723,0.0596313,-0.39209,0.885864
1470345177589562,-0.240601,0.0599365,-0.39209,0.885864
1470345177608605,-0.240906,0.0601807,-0.392029,0.885803
1470345177630615,-0.240906,0.0601807,-0.392029,0.885803
1470345177650177,-0.240906,0.0601807,-0.392029,0.885803
1470345177668154,-0.24054,0.0601196,-0.391907,0.885986
1470345177690172,-0.240234,0.0600586,-0.391602,0.886169
1470345177710190,-0.240112,0.0601807,-0.391296,0.886353
1470345177728214,-0.23999,0.0602417,-0.391052,0.886475
1470345177750271,-0.239929,0.0604248,-0.390869,0.886536
1470345177770287,-0.23999,0.0604248,-0.390869,0.886536
1470345177788323,-0.23999,0.0604858,-0.390869,0.886536
1470345177810323,-0.240051,0.0604858,-0.390869,0.886536
1470345177830403,-0.240234,0.0606689,-0.390991,0.886414
1470345177848124,-0.240601,0.0609741,-0.390991,0.886292
1470345177870117,-0.240906,0.0609741,-0.391052,0.886169
1470345177891135,-0.241028,0.0609741,-0.391174,0.886108
1470345177908149,-0.24115,0.0608521,-0.391357,0.885986
1470345177930781,-0.241333,0.0606079,-0.391357,0.885925
1470345177951329,-0.241333,0.0606079,-0.391357,0.885925
1470345177968380,-0.241333,0.0606079,-0.391357,0.885925
1470345177990364,-0.241699,0.0606079,-0.391296,0.885864
1470345178011417,-0.241699,0.0606689,-0.391296,0.885864
1470345178028462,-0.241394,0.06073,-0.391235,0.885986
1470345178056667,-0.241394,0.060791,-0.391235,0.885986
1470345178071678,-0.241455,0.06073,-0.391235,0.885986
1470345178087692,-0.241333,0.060791,-0.391296,0.885986
1470345178110713,-0.241333,0.0608521,-0.391296,0.885986
1470345178131736,-0.241455,0.0612793,-0.391235,0.885925
1470345178146846,-0.241516,0.0618286,-0.391113,0.885925
1470345178169864,-0.241638,0.0620117,-0.390991,0.885925
1470345178190899,-0.241333,0.0620728,-0.39093,0.886047
1470345178206897,-0.241211,0.0622559,-0.390747,0.886108
1470345178229955,-0.241272,0.0623169,-0.390747,0.886108
1470345178252510,-0.241272,0.0623169,-0.390747,0.886108
1470345178266524,-0.241333,0.0623169,-0.390747,0.886108
1470345178289568,-0.241333,0.0623779,-0.390747,0.886108
1470345178312567,-0.241089,0.0620117,-0.390747,0.886169
1470345178333616,-0.241028,0.0619507,-0.390686,0.88623
1470345178349246,-0.241272,0.0616455,-0.390503,0.886292
1470345178372248,-0.241516,0.0612793,-0.390442,0.88623
1470345178394271,-0.241577,0.0609131,-0.390503,0.88623
1470345178409268,-0.241272,0.0606079,-0.390625,0.886292
1470345178432362,-0.241272,0.0605469,-0.390625,0.886292
1470345178446910,-0.241638,0.0608521,-0.390625,0.886169
1470345178469928,-0.241699,0.0609131,-0.390625,0.886169
1470345178491993,-0.241455,0.0610962,-0.390686,0.886169
1470345178506010,-0.241516,0.0615234,-0.390808,0.886047
1470345178530019,-0.241882,0.0618896,-0.39093,0.885864
1470345178552045,-0.242004,0.0620117,-0.390991,0.885803
1470345178567059,-0.241638,0.0621338,-0.390991,0.885925
1470345178589110,-0.241394,0.0623169,-0.390747,0.886047
1470345178612100,-0.241333,0.0625,-0.390442,0.88623
1470345178626619,-0.241272,0.0623779,-0.390137,0.886353
1470345178649760,-0.240845,0.0619507,-0.389893,0.886597
1470345178671784,-0.240417,0.0615234,-0.389709,0.886902
1470345178686795,-0.23999,0.0612793,-0.389526,0.887085
1470345178710874,-0.240112,0.0612793,-0.389465,0.887085
1470345178732360,-0.240662,0.0614014,-0.389404,0.886902
1470345178753428,-0.24115,0.0615845,-0.389587,0.886719
1470345178769437,-0.241455,0.0616455,-0.389771,0.886536
1470345178792457,-0.241821,0.0616455,-0.389893,0.886353
1470345178813534,-0.242004,0.0617676,-0.390076,0.88623
1470345178830010,-0.242065,0.0617676,-0.390137,0.88623
1470345178851629,-0.242065,0.0617676,-0.390137,0.88623
1470345178873644,-0.242065,0.0617676,-0.390076,0.88623
1470345178889655,-0.242249,0.0615845,-0.390259,0.886108
1470345178911675,-0.242249,0.0613403,-0.39032,0.886108
1470345178933676,-0.242004,0.0609741,-0.390381,0.886169
1470345178949751,-0.241699,0.0608521,-0.39032,0.886292
1470345178971793,-0.241516,0.0608521,-0.390137,0.886414
1470345178992787,-0.241516,0.0608521,-0.390076,0.886414
1470345179009802,-0.241455,0.060791,-0.390137,0.886475
1470345179032340,-0.241516,0.0608521,-0.390076,0.886414
1470345179052930,-0.241577,0.0608521,-0.390076,0.886414
1470345179069891,-0.241577,0.0608521,-0.390076,0.886414
1470345179091923,-0.241577,0.0608521,-0.390076,0.886414
1470345179112985,-0.241577,0.0608521,-0.390076,0.886414
1470345179130006,-0.241577,0.0608521,-0.390076,0.886414
1470345179151885,-0.241638,0.0609131,-0.390076,0.886414
1470345179174897,-0.241699,0.0606079,-0.390198,0.886353
1470345179189911,-0.241699,0.0606079,-0.390198,0.886353
1470345179211934,-0.241699,0.0605469,-0.390198,0.886353
1470345179234958,-0.241699,0.0606079,-0.390198,0.886353
1470345179249975,-0.241699,0.0606079,-0.390198,0.886353
1470345179271994,-0.241638,0.0606079,-0.390015,0.886475
1470345179294036,-0.241577,0.0606079,-0.389893,0.886536
1470345179309066,-0.241455,0.0604248,-0.389893,0.886597
1470345179332641,-0.241455,0.0604248,-0.389893,0.886536
1470345179354293,-0.241821,0.0603638,-0.389954,0.886475
1470345179369264,-0.241882,0.0603638,-0.389954,0.886475
1470345179392254,-0.241882,0.0603638,-0.389954,0.886475
1470345179414277,-0.241943,0.0603638,-0.389954,0.886414
1470345179429300,-0.241943,0.0603638,-0.389954,0.886414
1470345179452323,-0.241943,0.0603638,-0.389954,0.886414
1470345179474346,-0.242004,0.0603638,-0.389954,0.886414
1470345179489357,-0.242004,0.0603027,-0.389954,0.886414
1470345179512376,-0.24176,0.0602417,-0.389954,0.886475
1470345179541519,-0.24176,0.0603027,-0.389954,0.886475
1470345179548580,-0.24176,0.0603027,-0.389954,0.886475
1470345179572548,-0.241638,0.0600586,-0.389893,0.886536
1470345179600630,-0.241394,0.0597534,-0.389954,0.886597
1470345179608663,-0.241211,0.0595093,-0.389954,0.886658
1470345179632610,-0.24115,0.0593262,-0.390015,0.886719
1470345179654333,-0.24115,0.0593262,-0.390015,0.886658
1470345179675354,-0.241211,0.0593262,-0.390015,0.886658
1470345179692375,-0.241211,0.0593262,-0.390015,0.886658
1470345179720447,-0.24115,0.0592651,-0.390076,0.886658
1470345179735967,-0.240967,0.0591431,-0.390137,0.886658
1470345179752529,-0.240967,0.0591431,-0.390137,0.886658
1470345179774547,-0.241028,0.0591431,-0.390137,0.886658
1470345179795568,-0.240967,0.0588379,-0.390259,0.886658
1470345179818592,-0.240967,0.0588379,-0.39032,0.886658
1470345179835133,-0.240784,0.0585327,-0.390259,0.886719
1470345179855718,-0.240601,0.0583496,-0.390198,0.886841
1470345179871730,-0.240417,0.0581055,-0.390076,0.886963
1470345179894729,-0.240234,0.0578613,-0.389954,0.887024
1470345179915788,-0.240173,0.0577393,-0.389954,0.887085
1470345179932348,-0.240173,0.0577393,-0.389954,0.887085
1470345179954913,-0.240234,0.0577393,-0.389954,0.887085
1470345179975931,-0.240295,0.0577393,-0.389954,0.887024
1470345179991985,-0.240479,0.0579224,-0.390076,0.886902
1470345180014967,-0.240662,0.0582275,-0.390137,0.886841
1470345180036020,-0.240723,0.0584106,-0.390259,0.88678
1470345180052022,-0.240723,0.0586548,-0.390381,0.886719
1470345180075041,-0.240723,0.0588989,-0.390442,0.886597
1470345180096090,-0.240845,0.059082,-0.390564,0.886536
1470345180112076,-0.240845,0.059082,-0.390564,0.886536
1470345180135100,-0.240845,0.059021,-0.390625,0.886536
1470345180157126,-0.240845,0.059021,-0.390625,0.886536
1470345180172137,-0.240845,0.059021,-0.390564,0.886536
1470345180195157,-0.240601,0.0591431,-0.390442,0.886658
1470345180217178,-0.240662,0.0592041,-0.390442,0.886658
1470345180232195,-0.240662,0.0592041,-0.390442,0.886597
1470345180254767,-0.240723,0.0592041,-0.390442,0.886597
1470345180276787,-0.240723,0.0592041,-0.390442,0.886597
1470345180291801,-0.240784,0.0592041,-0.390442,0.886597
1470345180314821,-0.240784,0.0592041,-0.390442,0.886597
1470345180337369,-0.240784,0.0592041,-0.390442,0.886597
1470345180351985,-0.240784,0.0592041,-0.390442,0.886597
1470345180375006,-0.240845,0.0592041,-0.390442,0.886597
1470345180397026,-0.240845,0.0592041,-0.390442,0.886597
1470345180418074,-0.240845,0.0592041,-0.390442,0.886597
1470345180435120,-0.240845,0.0592041,-0.390442,0.886597
1470345180457696,-0.240845,0.0592041,-0.390442,0.886597
1470345180471709,-0.240845,0.0592041,-0.390442,0.886597
1470345180494760,-0.240784,0.0593262,-0.390259,0.886658
1470345180517751,-0.240723,0.0593262,-0.390076,0.88678
1470345180531808,-0.240723,0.0593262,-0.390076,0.88678
1470345180554833,-0.240723,0.0593262,-0.390076,0.88678
1470345180576862,-0.240967,0.0595093,-0.389954,0.886719
1470345180597914,-0.241028,0.0595093,-0.389954,0.886719
1470345180614886,-0.241028,0.0595703,-0.389954,0.886719
1470345180637415,-0.241089,0.0595703,-0.389954,0.886719
1470345180658032,-0.241333,0.0598145,-0.390015,0.886597
1470345180675004,-0.241577,0.0599976,-0.390015,0.886536
1470345180697029,-0.241638,0.0599976,-0.390015,0.886536
1470345180718047,-0.241638,0.0600586,-0.389954,0.886536
1470345180735088,-0.241638,0.0600586,-0.389954,0.886536
1470345180757032,-0.241638,0.0600586,-0.389954,0.886536
1470345180778051,-0.241455,0.0601196,-0.389832,0.886597
1470345180795066,-0.241272,0.0601196,-0.389648,0.886719
1470345180817085,-0.241089,0.0601807,-0.389465,0.886902
1470345180838666,-0.240845,0.0602417,-0.389282,0.887024
1470345180854752,-0.240845,0.0604248,-0.389221,0.887024
1470345180876772,-0.240845,0.0604248,-0.389221,0.887024
1470345180897846,-0.240906,0.0604248,-0.389221,0.887024
1470345180914806,-0.240906,0.0604858,-0.389221,0.887024
1470345180937388,-0.240967,0.0604858,-0.389221,0.887024
1470345180958500,-0.240967,0.0604858,-0.389221,0.887024
1470345180980522,-0.240967,0.0604858,-0.389221,0.887024
1470345180997534,-0.241028,0.0605469,-0.389221,0.886963
1470345181018603,-0.241028,0.0605469,-0.389221,0.886963
1470345181034139,-0.241089,0.0605469,-0.389221,0.886963
1470345181056762,-0.241089,0.0605469,-0.389221,0.886963
1470345181079755,-0.241089,0.0605469,-0.38916,0.886963
1470345181094757,-0.240845,0.0606079,-0.389099,0.887085
1470345181116773,-0.240723,0.0606079,-0.388916,0.887207
1470345181139857,-0.240662,0.0606079,-0.388855,0.887207
1470345181154887,-0.240601,0.0605469,-0.388855,0.887268
1470345181176907,-0.240662,0.0605469,-0.388855,0.887207
1470345181199928,-0.240662,0.0605469,-0.388855,0.887207
1470345181213941,-0.240723,0.0605469,-0.388855,0.887207
1470345181237464,-0.240723,0.0605469,-0.388855,0.887207
1470345181260002,-0.240723,0.0605469,-0.388855,0.887207
1470345181274014,-0.240784,0.0606079,-0.388855,0.887207
1470345181297036,-0.240845,0.0606079,-0.388855,0.887207
1470345181320094,-0.240845,0.0606079,-0.388855,0.887207
1470345181334159,-0.240845,0.0606079,-0.388855,0.887207
1470345181356783,-0.240906,0.0606079,-0.388855,0.887207
1470345181379818,-0.240906,0.0606079,-0.388855,0.887146
1470345181393817,-0.240967,0.0606689,-0.388794,0.887146
1470345181416871,-0.240967,0.0606689,-0.388794,0.887146
1470345181439866,-0.240967,0.0606689,-0.388794,0.887146
1470345181453982,-0.241028,0.0606689,-0.388794,0.887146
1470345181477952,-0.241028,0.06073,-0.388794,0.887146
1470345181499975,-0.241028,0.06073,-0.388794,0.887146
1470345181513985,-0.241333,0.0608521,-0.388733,0.887085
1470345181537529,-0.241333,0.0608521,-0.388733,0.887085
1470345181559216,-0.241394,0.0608521,-0.388733,0.887085
1470345181588224,-0.241455,0.0608521,-0.388733,0.887024
1470345181597208,-0.241455,0.0608521,-0.388733,0.887024
1470345181619236,-0.241516,0.0609131,-0.388733,0.887024
1470345181641286,-0.241577,0.0609131,-0.388733,0.887024
1470345181657504,-0.241577,0.0609131,-0.388733,0.887024
1470345181679524,-0.241577,0.0609131,-0.388733,0.887024
1470345181700542,-0.241577,0.0609131,-0.388733,0.887024
1470345181717559,-0.241577,0.0609741,-0.388733,0.887024
1470345181740135,-0.241516,0.0609131,-0.388611,0.887085
1470345181760711,-0.241333,0.0609131,-0.388489,0.887207
1470345181776767,-0.241211,0.060791,-0.388428,0.887268
1470345181799748,-0.241211,0.060791,-0.388428,0.887268
1470345181820816,-0.241211,0.0608521,-0.388428,0.887268
1470345181837342,-0.241272,0.0608521,-0.388428,0.887207
1470345181859737,-0.241272,0.0608521,-0.388428,0.887207
1470345181880736,-0.241333,0.0608521,-0.388428,0.887207
1470345181896746,-0.241333,0.0609131,-0.388428,0.887207
1470345181919822,-0.241394,0.0609131,-0.388428,0.887207
1470345181940891,-0.241455,0.0609131,-0.388428,0.887207
1470345181956866,-0.241333,0.060791,-0.388489,0.887207
1470345181979887,-0.241333,0.060791,-0.388489,0.887207
1470345182001918,-0.241333,0.060791,-0.388428,0.887207
1470345182016962,-0.241333,0.06073,-0.388306,0.887268
1470345182040045,-0.241211,0.0604858,-0.388245,0.887329
1470345182062066,-0.241089,0.0601807,-0.388245,0.88739
1470345182077119,-0.240845,0.0600586,-0.388245,0.887512
1470345182100099,-0.240845,0.0600586,-0.388245,0.887451
1470345182122118,-0.240906,0.0600586,-0.388245,0.887451
1470345182143657,-0.240906,0.0600586,-0.388245,0.887451
1470345182159859,-0.240906,0.0600586,-0.388245,0.887451
1470345182181881,-0.240967,0.0600586,-0.388245,0.887451
1470345182204893,-0.240967,0.0600586,-0.388245,0.887451
1470345182219906,-0.240967,0.0600586,-0.388245,0.887451
1470345182242491,-0.240967,0.0600586,-0.388245,0.887451
1470345182257010,-0.241028,0.0600586,-0.388245,0.887451
1470345182280031,-0.241028,0.0600586,-0.388245,0.887451
1470345182302080,-0.241028,0.0600586,-0.388245,0.887451
1470345182316098,-0.241028,0.0600586,-0.388245,0.887451
1470345182340109,-0.241028,0.0600586,-0.388245,0.887451
1470345182362202,-0.241089,0.0601196,-0.388245,0.887451
1470345182376203,-0.240967,0.0601196,-0.388123,0.887512
1470345182399246,-0.240967,0.0601196,-0.388123,0.887512
1470345182422246,-0.240967,0.0601807,-0.388123,0.887512
1470345182436818,-0.241394,0.0602417,-0.388123,0.88739
1470345182459357,-0.24176,0.0603027,-0.388123,0.887268
1470345182482421,-0.241821,0.0603027,-0.388123,0.887268
1470345182503400,-0.242126,0.0603638,-0.388062,0.887207
1470345182519413,-0.242126,0.0603638,-0.388062,0.887207
1470345182542493,-0.242126,0.0603638,-0.388062,0.887207
1470345182563600,-0.242188,0.0604248,-0.388062,0.887207
1470345182579558,-0.242188,0.0604248,-0.388062,0.887207
1470345182602557,-0.242065,0.0602417,-0.388062,0.887207
1470345182623603,-0.241943,0.0601196,-0.388,0.887268
1470345182640135,-0.241943,0.0601196,-0.388,0.887268
1470345182661739,-0.241821,0.0599365,-0.387878,0.88739
1470345182683730,-0.241577,0.0598145,-0.387756,0.887512
1470345182699745,-0.241516,0.0597534,-0.387573,0.887634
1470345182721765,-0.241516,0.0598145,-0.387573,0.887634
1470345182743296,-0.241577,0.0598145,-0.387573,0.887573
1470345182759375,-0.241638,0.0599365,-0.387634,0.887573
1470345182782396,-0.241455,0.0601807,-0.387634,0.887573
1470345182803447,-0.241333,0.0604858,-0.387695,0.887573
1470345182819468,-0.241272,0.06073,-0.387756,0.887512
1470345182842533,-0.241333,0.0609741,-0.387878,0.887451
1470345182863759,-0.241333,0.0611572,-0.388,0.88739
1470345182879799,-0.241333,0.0611572,-0.388,0.88739
1470345182901765,-0.241333,0.0611572,-0.388,0.88739
1470345182922839,-0.241272,0.0611572,-0.388,0.88739
1470345182939876,-0.241272,0.0611572,-0.388,0.88739
1470345182962563,-0.241272,0.0612183,-0.388,0.88739
1470345182984584,-0.241333,0.0612183,-0.388,0.88739
1470345182999596,-0.241211,0.0612793,-0.387878,0.887451
1470345183022615,-0.241211,0.0612793,-0.387878,0.887451
1470345183051275,-0.241272,0.0612793,-0.387878,0.887451
1470345183060275,-0.241577,0.0615845,-0.387878,0.88739
1470345183082245,-0.241699,0.0618286,-0.387878,0.887329
1470345183104239,-0.241821,0.0620728,-0.387878,0.887268
1470345183119252,-0.241821,0.0623169,-0.387939,0.887207
1470345183142381,-0.242004,0.0625,-0.387939,0.887146
1470345183164452,-0.242188,0.0626221,-0.387939,0.887085
1470345183179448,-0.242249,0.0626221,-0.387939,0.887085
1470345183202468,-0.242249,0.0626221,-0.387939,0.887085
1470345183224488,-0.242188,0.062439,-0.387878,0.887146
1470345183239511,-0.242249,0.0622559,-0.387756,0.887146
1470345183262536,-0.242249,0.0622559,-0.387756,0.887146
1470345183284557,-0.242188,0.0621948,-0.387573,0.887268
1470345183298672,-0.242065,0.0621948,-0.387451,0.887329
1470345183322624,-0.241943,0.0621948,-0.38739,0.88739
1470345183344680,-0.242004,0.0621948,-0.38739,0.88739
1470345183358694,-0.242004,0.0621948,-0.38739,0.88739
1470345183381773,-0.242004,0.0621948,-0.38739,0.88739
1470345183405737,-0.241882,0.0621948,-0.387451,0.88739
1470345183418749,-0.241882,0.0621948,-0.387451,0.88739
1470345183442308,-0.241882,0.0621948,-0.387451,0.88739
1470345183472870,-0.241943,0.0621948,-0.387451,0.88739
1470345183474921,-0.241943,0.0621948,-0.387451,0.88739
1470345183487881,-0.242004,0.0621338,-0.387451,0.88739
1470345183507960,-0.241943,0.0621338,-0.387451,0.88739
1470345183529918,-0.241943,0.0621948,-0.387451,0.88739
1470345183547738,-0.242004,0.0621948,-0.387451,0.88739
1470345183567758,-0.241882,0.0621338,-0.38739,0.887451
1470345183589817,-0.241638,0.0620728,-0.38739,0.887512
1470345183607791,-0.241638,0.0621338,-0.387329,0.887512
1470345183627810,-0.241638,0.0621338,-0.387329,0.887512
1470345183649907,-0.241699,0.0621338,-0.387329,0.887512
1470345183667921,-0.241699,0.0621338,-0.387329,0.887512
1470345183687979,-0.241699,0.0621338,-0.387329,0.887512
1470345183711070,-0.241699,0.0621948,-0.387329,0.887512
1470345183727973,-0.24176,0.0621948,-0.387329,0.887512
1470345183748160,-0.24176,0.0621948,-0.387329,0.887512
1470345183770132,-0.241821,0.0621948,-0.387329,0.887512
1470345183788149,-0.241821,0.0621948,-0.387329,0.887512
1470345183808166,-0.24176,0.0623169,-0.38739,0.887451
1470345183830198,-0.241943,0.062561,-0.38739,0.88739
1470345183847977,-0.241943,0.062561,-0.38739,0.88739
1470345183867997,-0.241516,0.0626831,-0.387207,0.887573
1470345183890031,-0.241455,0.0626831,-0.387024,0.887695
1470345183908032,-0.241394,0.0631104,-0.38678,0.887756
1470345183928051,-0.241455,0.0633545,-0.386536,0.887817
1470345183949770,-0.241516,0.0634766,-0.386353,0.887878
1470345183967786,-0.241455,0.0636597,-0.386169,0.888
1470345183987806,-0.241455,0.0636597,-0.386169,0.888
1470345184009847,-0.241699,0.0638428,-0.385986,0.887939
1470345184027844,-0.24176,0.0638428,-0.385986,0.887939
1470345184047942,-0.24176,0.0638428,-0.385986,0.887939
1470345184070021,-0.241821,0.0639038,-0.385986,0.887939
1470345184087955,-0.241943,0.0639648,-0.385803,0.888
1470345184107989,-0.242554,0.064209,-0.385498,0.887939
1470345184130035,-0.243408,0.0645142,-0.385254,0.887756
1470345184147881,-0.243408,0.06427,-0.385254,0.887817
1470345184167943,-0.242737,0.0640259,-0.385193,0.888062
1470345184189919,-0.242432,0.0639038,-0.385071,0.888184
1470345184207935,-0.242493,0.0639038,-0.385071,0.888184
1470345184227991,-0.242432,0.0637207,-0.385071,0.888184
1470345184250092,-0.242493,0.0636597,-0.385132,0.888123
1470345184268057,-0.242432,0.0635986,-0.385254,0.888123
1470345184288074,-0.242493,0.0635986,-0.385376,0.888
1470345184311095,-0.242554,0.0635986,-0.385376,0.888
1470345184328114,-0.242554,0.0635986,-0.385376,0.888
1470345184348173,-0.242554,0.0636597,-0.385376,0.888
1470345184373199,-0.242615,0.0636597,-0.385376,0.888
1470345184388211,-0.242615,0.0636597,-0.385376,0.888
1470345184407227,-0.242615,0.0636597,-0.385376,0.888
1470345184430253,-0.242615,0.0636597,-0.385376,0.888
1470345184448278,-0.242249,0.0635986,-0.385193,0.888184
1470345184467384,-0.241882,0.0635986,-0.384827,0.888428
1470345184490316,-0.241821,0.0636597,-0.384521,0.888611
1470345184512337,-0.241882,0.0638428,-0.384338,0.888611
1470345184529351,-0.241943,0.0639038,-0.384338,0.888611
1470345184550456,-0.241821,0.0638428,-0.384277,0.888672
1470345184568481,-0.241638,0.0638428,-0.384277,0.888733
1470345184590493,-0.241943,0.0638428,-0.384277,0.888672
1470345184610566,-0.241943,0.0638428,-0.384277,0.888611
1470345184628526,-0.242004,0.0639038,-0.384277,0.888611
1470345184648724,-0.242004,0.0638428,-0.384277,0.888611
1470345184669732,-0.241882,0.0639648,-0.384216,0.888672
1470345184687712,-0.241882,0.0640259,-0.384216,0.888672
1470345184709760,-0.241882,0.0640259,-0.384216,0.888672
1470345184729750,-0.241882,0.0640259,-0.384216,0.888672
1470345184748658,-0.241821,0.0638428,-0.384216,0.888672
1470345184768655,-0.24176,0.0635986,-0.384216,0.888733
1470345184790710,-0.241516,0.0633545,-0.384277,0.888794
1470345184807687,-0.241272,0.0631714,-0.384216,0.888916
1470345184828846,-0.24115,0.0629272,-0.384216,0.888977
1470345184849861,-0.241089,0.0626221,-0.384277,0.888977
1470345184867864,-0.241089,0.0626221,-0.384277,0.888977
1470345184890882,-0.241089,0.0626221,-0.384277,0.888977
1470345184909941,-0.241516,0.0628052,-0.384399,0.888794
1470345184927915,-0.241882,0.0629272,-0.384521,0.888611
1470345184950975,-0.241882,0.0629272,-0.384521,0.888611
1470345184969992,-0.241821,0.0629272,-0.384827,0.888489
1470345184988009,-0.241943,0.0630493,-0.385132,0.888367
1470345185011058,-0.242493,0.0634155,-0.385376,0.888062
1470345185030134,-0.243286,0.0637207,-0.385437,0.887817
1470345185048066,-0.243591,0.0637817,-0.385437,0.887695
1470345185071149,-0.243164,0.0637207,-0.385498,0.887817
1470345185090126,-0.242554,0.0637207,-0.385559,0.887939
1470345185108125,-0.242249,0.0637207,-0.385559,0.888
1470345185130145,-0.242249,0.0637817,-0.385559,0.888
1470345185150306,-0.242432,0.0640869,-0.385376,0.888
1470345185168220,-0.242615,0.0644531,-0.385254,0.888
1470345185205272,-0.242737,0.0650024,-0.385132,0.888
1470345185210256,-0.242737,0.0654907,-0.385071,0.887939
1470345185228275,-0.242737,0.06604,-0.385193,0.887878
1470345185250338,-0.242798,0.0665894,-0.385193,0.887817
1470345185271356,-0.243042,0.0669556,-0.385193,0.887756
1470345185288416,-0.243225,0.0673218,-0.385132,0.887695
1470345185310392,-0.243164,0.0675659,-0.385132,0.887695
1470345185330409,-0.243225,0.0675659,-0.385132,0.887695
1470345185348540,-0.243225,0.0675659,-0.385132,0.887695
1470345185370559,-0.243286,0.0672607,-0.38501,0.887695
1470345185390577,-0.242737,0.0668945,-0.384949,0.887939
1470345185408594,-0.242554,0.0667725,-0.384827,0.888
1470345185430614,-0.242798,0.0667114,-0.384705,0.888
1470345185451195,-0.243225,0.0668335,-0.384399,0.888
1470345185483224,-0.243896,0.0669556,-0.384033,0.888
1470345185490229,-0.244202,0.0670166,-0.38385,0.888
1470345185511248,-0.244263,0.0670776,-0.38385,0.888
1470345185528280,-0.244141,0.0671387,-0.383789,0.888
1470345185550793,-0.244202,0.0671387,-0.383789,0.888
1470345185571813,-0.244263,0.0671387,-0.383789,0.888
1470345185587828,-0.244141,0.0670776,-0.383789,0.888
1470345185610874,-0.244019,0.0670166,-0.38385,0.888062
1470345185631866,-0.244019,0.0670776,-0.38385,0.888062
1470345185648500,-0.243958,0.0670776,-0.38385,0.888062
1470345185670732,-0.243713,0.0670166,-0.38385,0.888123
1470345185691720,-0.243408,0.0669556,-0.38385,0.888184
1470345185707732,-0.243103,0.0668945,-0.383789,0.888306
1470345185730796,-0.242859,0.0667114,-0.383667,0.888428
1470345185751909,-0.242737,0.0664063,-0.383484,0.888611
1470345185767925,-0.242615,0.0661011,-0.383301,0.888733
1470345185791037,-0.242554,0.065918,-0.383057,0.888855
1470345185812966,-0.242676,0.0657959,-0.382874,0.888916
1470345185827979,-0.242676,0.0657959,-0.382874,0.888916
1470345185850067,-0.242676,0.0657959,-0.382874,0.888916
1470345185873088,-0.243164,0.065918,-0.382751,0.888794
1470345185893146,-0.243164,0.065918,-0.382751,0.888794
1470345185916184,-0.243164,0.065979,-0.382751,0.888794
1470345185933144,-0.243164,0.065979,-0.382751,0.888794
1470345185953133,-0.243103,0.065918,-0.382568,0.888916
1470345185970144,-0.243225,0.0661011,-0.382385,0.888977
1470345185993164,-0.243103,0.0661621,-0.382202,0.889038
1470345186013217,-0.24292,0.0664673,-0.382019,0.88916
1470345186030198,-0.242981,0.0664673,-0.382019,0.88916
1470345186052140,-0.243042,0.0664673,-0.382019,0.88916
1470345186073158,-0.243042,0.0665283,-0.382019,0.88916
1470345186089294,-0.243042,0.0665283,-0.382019,0.88916
1470345186112195,-0.243103,0.0667725,-0.382141,0.889038
1470345186133727,-0.243042,0.0669556,-0.382263,0.888977
1470345186150156,-0.243042,0.0669556,-0.382263,0.888977
1470345186172177,-0.242859,0.0668945,-0.382324,0.889038
1470345186193236,-0.242615,0.0667114,-0.382446,0.889038
1470345186210209,-0.242676,0.0666504,-0.38269,0.888916
1470345186232229,-0.242859,0.0666504,-0.382874,0.888794
1470345186253086,-0.242737,0.0665894,-0.382996,0.888794
1470345186270103,-0.242371,0.0664673,-0.382935,0.888916
1470345186292136,-0.241882,0.0662842,-0.382874,0.889099
1470345186313141,-0.241516,0.0662231,-0.382874,0.889221
1470345186329156,-0.241516,0.0662231,-0.382813,0.889221
1470345186352166,-0.241699,0.0661621,-0.382874,0.88916
1470345186373184,-0.241943,0.06604,-0.382874,0.889099
1470345186390199,-0.241943,0.0661011,-0.382874,0.889099
1470345186412219,-0.241943,0.0661011,-0.382874,0.889099
1470345186433747,-0.241943,0.0661011,-0.382874,0.889099
1470345186450132,-0.242126,0.065918,-0.382935,0.889038
1470345186472153,-0.242371,0.0657349,-0.383057,0.888916
1470345186493170,-0.242554,0.0654907,-0.38324,0.888794
1470345186509240,-0.242798,0.0652466,-0.383362,0.888733
1470345186532254,-0.243164,0.0651855,-0.383301,0.888672
1470345186553881,-0.243042,0.0653076,-0.383179,0.888733
1470345186569886,-0.242859,0.0654297,-0.383057,0.888794
1470345186591906,-0.243408,0.0652466,-0.382813,0.888794
1470345186612925,-0.245361,0.0648193,-0.382568,0.888367
1470345186629941,-0.248413,0.0645142,-0.382019,0.887817
1470345186652056,-0.251404,0.0646973,-0.38147,0.887146
1470345186673102,-0.253235,0.0648804,-0.381165,0.88678
1470345186690088,-0.253601,0.0647583,-0.381104,0.886719
1470345186713109,-0.253296,0.0646362,-0.381165,0.88678
1470345186733672,-0.253357,0.0646362,-0.381165,0.88678
1470345186749765,-0.253296,0.0648193,-0.381104,0.88678
1470345186771851,-0.253113,0.0650635,-0.381165,0.88678
1470345186794806,-0.252563,0.0652466,-0.381287,0.886902
1470345186809817,-0.251831,0.0653687,-0.381409,0.887024
1470345186831837,-0.25116,0.0655518,-0.38147,0.887207
1470345186854387,-0.25061,0.0656738,-0.38147,0.887329
1470345186869403,-0.250183,0.0658569,-0.381348,0.887512
1470345186892419,-0.249634,0.0661011,-0.381165,0.887695
1470345186914441,-0.249146,0.0662231,-0.381042,0.887878
1470345186929453,-0.248901,0.0662231,-0.38092,0.888
1470345186952574,-0.248901,0.0662842,-0.38092,0.888
1470345186974594,-0.248901,0.0662842,-0.38092,0.888
1470345186989606,-0.249268,0.0664063,-0.380737,0.887939
1470345187011682,-0.250488,0.0662842,-0.380493,0.887695
1470345187035208,-0.253113,0.065979,-0.379944,0.887268
1470345187055729,-0.25647,0.065918,-0.379272,0.886597
1470345187072728,-0.259094,0.0661011,-0.378601,0.886108
1470345187094749,-0.260071,0.0662231,-0.378113,0.885986
1470345187115804,-0.259399,0.0661621,-0.377808,0.886353
1470345187132783,-0.258606,0.0661621,-0.377625,0.886658
1470345187154431,-0.258118,0.0665894,-0.377258,0.886902
1470345187169424,-0.257751,0.0671387,-0.376892,0.887146
1470345187192445,-0.256836,0.067688,-0.376587,0.887451
1470345187214511,-0.255493,0.0682983,-0.376526,0.887817
1470345187229479,-0.254333,0.0689087,-0.376526,0.888123
1470345187252665,-0.253845,0.069458,-0.376465,0.888245
1470345187274684,-0.253296,0.0698853,-0.376282,0.888428
1470345187295780,-0.252258,0.0701294,-0.376221,0.888733
1470345187312719,-0.251038,0.0701904,-0.376099,0.88916
1470345187335251,-0.250122,0.0700684,-0.375916,0.889526
1470345187355979,-0.249329,0.0697021,-0.37561,0.889832
1470345187371994,-0.248596,0.0692749,-0.375427,0.890198
1470345187395011,-0.248047,0.0688477,-0.375305,0.890442
1470345187416033,-0.24762,0.0685425,-0.375183,0.890625
1470345187432057,-0.247498,0.0682373,-0.375061,0.890747
1470345187454744,-0.247559,0.0681152,-0.374756,0.890869
1470345187475778,-0.247925,0.0682373,-0.37439,0.890869
1470345187491822,-0.248474,0.0687256,-0.374023,0.890869
1470345187514798,-0.248962,0.0690918,-0.373779,0.890808
1470345187536325,-0.248962,0.0691528,-0.373779,0.890808
1470345187552347,-0.248596,0.0689697,-0.37384,0.890869
1470345187574365,-0.248108,0.0689087,-0.373962,0.890991
1470345187596430,-0.247864,0.0690308,-0.374023,0.890991
1470345187612399,-0.247864,0.0690308,-0.374023,0.890991
1470345187634965,-0.247681,0.0690308,-0.374023,0.891052
1470345187655557,-0.247437,0.0689087,-0.373962,0.891174
1470345187672531,-0.247131,0.0687866,-0.374023,0.891235
1470345187694534,-0.246765,0.0686646,-0.374023,0.891296
1470345187717544,-0.246399,0.0686035,-0.374023,0.891418
1470345187732557,-0.246155,0.0686646,-0.374023,0.891479
1470345187754702,-0.245728,0.0686035,-0.374023,0.891602
1470345187777719,-0.245361,0.0685425,-0.373901,0.891785
1470345187791774,-0.245239,0.0684814,-0.37384,0.891846
1470345187814771,-0.244873,0.0683594,-0.373779,0.891968
1470345187837371,-0.244751,0.0681152,-0.373779,0.892029
1470345187857905,-0.244873,0.0678101,-0.373718,0.892029
1470345187874909,-0.244873,0.0678101,-0.373718,0.892029
1470345187896952,-0.244934,0.0678101,-0.373718,0.892029
1470345187911942,-0.244934,0.0678101,-0.373718,0.892029
1470345187934962,-0.244934,0.0678101,-0.373718,0.892029
1470345187957044,-0.244995,0.0678101,-0.373718,0.892029
1470345187972058,-0.244995,0.067749,-0.373779,0.892029
1470345187995079,-0.244995,0.067749,-0.373779,0.892029
1470345188017098,-0.244934,0.0675659,-0.373657,0.89209
1470345188038692,-0.244873,0.0675659,-0.373657,0.89209
1470345188055242,-0.244751,0.0674438,-0.373596,0.892151
1470345188077262,-0.244446,0.0672607,-0.373535,0.892273
1470345188091274,-0.244263,0.0670776,-0.373474,0.892395
1470345188114346,-0.244263,0.0669556,-0.373413,0.892395
1470345188144858,-0.244202,0.0668335,-0.373413,0.892456
1470345188150914,-0.24408,0.0667725,-0.373474,0.892456
1470345188175243,-0.24408,0.0667725,-0.373474,0.892456
1470345188197264,-0.24408,0.0668335,-0.373474,0.892456
1470345188218286,-0.244141,0.0668335,-0.373474,0.892456
1470345188234296,-0.244141,0.0667725,-0.373718,0.892334
1470345188256863,-0.24408,0.0667114,-0.373962,0.892273
1470345188277897,-0.24408,0.0667114,-0.374146,0.892151
1470345188294897,-0.244141,0.0667114,-0.374146,0.892151
1470345188316917,-0.244141,0.0667114,-0.374146,0.892151
1470345188340005,-0.243774,0.0667725,-0.374268,0.892212
1470345188354580,-0.243408,0.0667725,-0.374268,0.892273
1470345188377598,-0.243164,0.0667725,-0.374268,0.892395
1470345188398617,-0.24292,0.0667114,-0.374207,0.892456
1470345188414632,-0.242737,0.0666504,-0.374207,0.892517
1470345188437656,-0.242554,0.0664673,-0.374329,0.892517
1470345188458681,-0.242554,0.0664673,-0.374329,0.892517
1470345188474695,-0.242615,0.0664673,-0.374329,0.892517
1470345188497715,-0.242981,0.0664673,-0.374451,0.892395
1470345188518736,-0.243286,0.0664673,-0.374573,0.892212
1470345188534749,-0.24353,0.0664673,-0.374756,0.89209
1470345188556890,-0.243835,0.0664673,-0.374817,0.891968
1470345188578829,-0.244202,0.0664673,-0.375,0.891785
1470345188594840,-0.244568,0.0664063,-0.375183,0.891663
1470345188616908,-0.244751,0.0662842,-0.375366,0.891541
1470345188639887,-0.244934,0.0661621,-0.375488,0.891418
1470345188654557,-0.245178,0.065979,-0.375671,0.891296
1470345188677573,-0.245605,0.0656738,-0.375793,0.891113
1470345188699593,-0.246155,0.0655518,-0.376038,0.890869
1470345188714611,-0.247009,0.0655518,-0.376221,0.890564
1470345188737722,-0.247742,0.0656738,-0.376465,0.890259
1470345188759386,-0.248352,0.06604,-0.376648,0.889954
1470345188774400,-0.248901,0.0665283,-0.376831,0.889709
1470345188797424,-0.249268,0.0670166,-0.376892,0.889526
1470345188819459,-0.249512,0.0673828,-0.376953,0.889465
1470345188834454,-0.249817,0.067688,-0.376953,0.889343
1470345188865014,-0.250061,0.067749,-0.376953,0.889282
1470345188880027,-0.250061,0.067749,-0.376953,0.889221
1470345188894082,-0.250122,0.067749,-0.376953,0.889221
1470345188917059,-0.250183,0.067749,-0.376953,0.889221
1470345188940129,-0.250183,0.067749,-0.376953,0.889221
1470345188954203,-0.250183,0.067749,-0.376953,0.889221
1470345188977248,-0.249939,0.0679932,-0.377075,0.889221
1470345189000245,-0.249878,0.0683594,-0.37738,0.889038
1470345189014269,-0.250488,0.0689087,-0.377563,0.888794
1470345189037383,-0.251282,0.0690918,-0.377441,0.888611
1470345189059454,-0.252136,0.0689087,-0.377136,0.888489
1470345189074432,-0.253357,0.0685425,-0.376587,0.888428
1470345189097452,-0.2547,0.0681763,-0.375916,0.888367
1470345189119471,-0.255615,0.0679932,-0.375549,0.888245
1470345189141053,-0.25592,0.0680542,-0.375244,0.888306
1470345189157573,-0.255859,0.0681152,-0.374939,0.888428
1470345189179642,-0.255798,0.0683594,-0.374695,0.88855
1470345189200651,-0.255676,0.0687256,-0.374268,0.888672
1470345189217626,-0.255249,0.0691528,-0.374084,0.888855
1470345189240154,-0.254578,0.0696411,-0.373962,0.889099
1470345189261275,-0.254028,0.0702515,-0.37384,0.889282
1470345189277289,-0.253235,0.0709839,-0.373718,0.889465
1470345189299310,-0.252197,0.0717163,-0.373474,0.889832
1470345189321329,-0.251221,0.0725098,-0.37323,0.890137
1470345189337348,-0.25061,0.0731201,-0.372803,0.890442
1470345189359885,-0.250061,0.0736084,-0.372253,0.890747
1470345189381926,-0.249451,0.0737915,-0.371704,0.891174
1470345189396904,-0.247864,0.0733032,-0.371399,0.891785
1470345189419890,-0.247009,0.0728149,-0.370972,0.892212
1470345189441059,-0.247803,0.0727539,-0.370422,0.892212
1470345189457111,-0.250183,0.0723877,-0.369812,0.891846
1470345189480132,-0.25238,0.0716553,-0.369446,0.891418
1470345189501151,-0.253357,0.0708618,-0.369202,0.891296
1470345189517166,-0.253357,0.0703125,-0.369263,0.891357
1470345189540200,-0.253845,0.0703125,-0.369385,0.891113
1470345189561120,-0.255737,0.0708008,-0.369385,0.890564
1470345189577141,-0.257568,0.0715332,-0.369446,0.889954
1470345189600151,-0.258484,0.0721436,-0.36969,0.889526
1470345189622170,-0.258606,0.0727539,-0.369812,0.889404
1470345189637699,-0.258057,0.0733643,-0.370178,0.889404
1470345189659339,-0.257263,0.0737915,-0.370667,0.889343
1470345189682356,-0.25708,0.074585,-0.370972,0.889221
1470345189697338,-0.257629,0.0755005,-0.371033,0.888977
1470345189719357,-0.258179,0.0761108,-0.371033,0.888733
1470345189742383,-0.258118,0.076355,-0.371155,0.888672
1470345189756399,-0.257568,0.076355,-0.371155,0.888855
1470345189779425,-0.257202,0.0759888,-0.371338,0.888916
1470345189802441,-0.257202,0.0759888,-0.371399,0.888916
1470345189816473,-0.257202,0.0755005,-0.371216,0.888977
1470345189840043,-0.25708,0.0751343,-0.371033,0.88916
1470345189862328,-0.25647,0.074707,-0.37085,0.889465
1470345189876430,-0.255737,0.0744629,-0.370728,0.889709
1470345189899416,-0.25531,0.0743408,-0.37085,0.889771
1470345189922389,-0.255371,0.0743408,-0.37085,0.889771
1470345189936395,-0.255432,0.0742188,-0.370728,0.889832
1470345189959933,-0.254517,0.0737305,-0.370789,0.890137
1470345189981951,-0.25293,0.0731812,-0.370972,0.890503
1470345189996997,-0.25177,0.072876,-0.371094,0.890808
1470345190019986,-0.250977,0.0725098,-0.371155,0.891052
1470345190042509,-0.250305,0.0721436,-0.371277,0.891235
1470345190056682,-0.249878,0.0717163,-0.37146,0.891296
1470345190079703,-0.24939,0.0712891,-0.371582,0.891418
1470345190102723,-0.249084,0.0708618,-0.371582,0.891541
1470345190123742,-0.248718,0.0702515,-0.371582,0.891663
1470345190139851,-0.248413,0.0695801,-0.371643,0.891785
1470345190162361,-0.248474,0.0690308,-0.371704,0.891785
1470345190200396,-0.248779,0.0683594,-0.371826,0.891724
1470345190202398,-0.249207,0.067627,-0.372009,0.891602
1470345190222414,-0.249573,0.0670166,-0.372192,0.891418
1470345190243470,-0.249695,0.0665894,-0.372498,0.891357
1470345190260143,-0.249695,0.0661621,-0.372803,0.891235
1470345190282164,-0.249512,0.0657349,-0.373108,0.891174
1470345190303197,-0.249329,0.0652466,-0.373291,0.891174
1470345190320197,-0.249268,0.0646362,-0.373474,0.891174
1470345190342720,-0.249268,0.0640259,-0.373718,0.891113
1470345190363351,-0.250305,0.0637817,-0.373779,0.890808
1470345190379339,-0.251465,0.0634766,-0.373718,0.890564
1470345190402361,-0.252014,0.0629883,-0.373657,0.890442
1470345190423390,-0.252197,0.0623169,-0.373779,0.890381
1470345190439905,-0.25238,0.0617676,-0.373779,0.890381
1470345190461958,-0.252502,0.0610962,-0.37384,0.890381
1470345190482977,-0.25293,0.0606079,-0.373901,0.890259
1470345190499974,-0.253174,0.0601807,-0.374023,0.890137
1470345190521994,-0.253052,0.0596924,-0.374207,0.890137
1470345190545077,-0.252686,0.0592041,-0.37439,0.890198
1470345190559765,-0.252075,0.0587769,-0.374695,0.890259
1470345190582732,-0.251892,0.0584106,-0.374878,0.89032
1470345190604751,-0.252014,0.0581055,-0.375,0.890198
1470345190619766,-0.252075,0.0578003,-0.375183,0.890137
1470345190642380,-0.252319,0.0575562,-0.375427,0.889954
1470345190664497,-0.25293,0.0574341,-0.37561,0.889771
1470345190679419,-0.253357,0.0574341,-0.375671,0.889587
1470345190702439,-0.253418,0.057312,-0.375854,0.889526
1470345190724476,-0.253235,0.0571289,-0.376038,0.889465
1470345190739475,-0.253296,0.0571289,-0.376038,0.889465
1470345190762095,-0.253418,0.0569458,-0.376221,0.889404
1470345190785119,-0.253418,0.0567017,-0.376404,0.889343
1470345190807136,-0.253296,0.0565186,-0.376648,0.889221
1470345190822149,-0.253113,0.0563354,-0.376831,0.889221
1470345190845179,-0.252686,0.0560913,-0.376892,0.889343
1470345190858714,-0.252014,0.0558472,-0.376831,0.889587
1470345190882732,-0.251221,0.0556641,-0.377014,0.889771
1470345190904750,-0.251282,0.0556641,-0.376953,0.889771
1470345190918788,-0.251282,0.0556641,-0.376953,0.889709
1470345190942378,-0.251282,0.0556641,-0.376953,0.889709
1470345190964545,-0.25116,0.055603,-0.376892,0.889771
1470345190979567,-0.250793,0.055481,-0.376892,0.889893
1470345191002579,-0.250488,0.055542,-0.376953,0.890015
1470345191024598,-0.250488,0.055542,-0.376953,0.890015
1470345191046221,-0.250488,0.055542,-0.376953,0.889954
1470345191062200,-0.250732,0.0557251,-0.377075,0.889832
1470345191084237,-0.250732,0.0557251,-0.377075,0.889832
1470345191106282,-0.250488,0.0557861,-0.377136,0.889893
1470345191122301,-0.250122,0.0557251,-0.377075,0.890015
1470345191144879,-0.249573,0.0556641,-0.377075,0.890198
1470345191165502,-0.24884,0.055481,-0.377075,0.890381
1470345191182473,-0.248413,0.055481,-0.377014,0.890564
1470345191204494,-0.248291,0.055481,-0.376953,0.890625
1470345191225511,-0.248108,0.0554199,-0.376892,0.890686
1470345191242533,-0.247986,0.055481,-0.376892,0.890686
1470345191264557,-0.247986,0.055481,-0.376892,0.890686
1470345191285576,-0.248291,0.055603,-0.376831,0.890625
1470345191292583,-0.248596,0.0558472,-0.37677,0.890564
1470345191307627,-0.248657,0.0558472,-0.37677,0.890564
1470345191330616,-0.248657,0.0558472,-0.37677,0.890564
1470345191353178,-0.248718,0.0558472,-0.37677,0.890564
1470345191367775,-0.248718,0.0559082,-0.37677,0.890564
1470345191389812,-0.248718,0.0559082,-0.37677,0.890564
1470345191412834,-0.248474,0.0558472,-0.376709,0.890625
1470345191427801,-0.248047,0.055603,-0.376709,0.890747
1470345191450837,-0.247437,0.0552979,-0.376648,0.890991
1470345191472858,-0.247009,0.0550537,-0.376648,0.891113
1470345191487873,-0.247009,0.0550537,-0.376648,0.891113
1470345191510957,-0.247375,0.0550537,-0.376648,0.890991
1470345191532995,-0.247803,0.0552368,-0.376648,0.890869
1470345191548045,-0.248169,0.0553589,-0.376587,0.890808
1470345191570099,-0.24823,0.0553589,-0.376587,0.890747
1470345191593078,-0.24823,0.0553589,-0.376587,0.890747
1470345191608090,-0.248291,0.0553589,-0.376587,0.890747
1470345191630163,-0.248291,0.0553589,-0.376587,0.890747
1470345191653195,-0.248352,0.0554199,-0.376587,0.890747
1470345191667251,-0.248169,0.0553589,-0.376709,0.890747
1470345191690273,-0.247864,0.0552979,-0.37677,0.890808
1470345191712292,-0.247314,0.0551147,-0.376709,0.890991
1470345191727305,-0.246765,0.0549316,-0.376587,0.891235
1470345191750352,-0.246338,0.0547485,-0.376404,0.891418
1470345191772397,-0.246094,0.0545654,-0.376343,0.891541
1470345191787492,-0.245667,0.0543213,-0.376221,0.891724
1470345191810474,-0.245422,0.0542603,-0.376099,0.891846
1470345191832481,-0.245422,0.0542603,-0.376038,0.891846
1470345191848033,-0.245789,0.0543823,-0.375916,0.891785
1470345191870171,-0.246094,0.0545044,-0.375854,0.891724
1470345191893139,-0.246094,0.0545044,-0.375854,0.891724
1470345191908149,-0.246155,0.0544434,-0.375854,0.891724
1470345191931201,-0.246521,0.0546875,-0.375854,0.891602
1470345191953240,-0.246887,0.0548706,-0.375977,0.891418
1470345191968758,-0.247253,0.0550537,-0.376099,0.891296
1470345191990777,-0.247375,0.0552979,-0.376038,0.891235
1470345192012839,-0.247375,0.0552979,-0.376038,0.891235
1470345192027853,-0.247131,0.0554199,-0.375977,0.891296
1470345192050423,-0.246826,0.055481,-0.375916,0.891418
1470345192072987,-0.246887,0.055542,-0.375916,0.891418
1470345192088959,-0.247192,0.055603,-0.375793,0.891357
1470345192110022,-0.247681,0.0557251,-0.375671,0.891296
1470345192133055,-0.247925,0.0557861,-0.375549,0.891235
1470345192155580,-0.248169,0.0559082,-0.375427,0.891235
1470345192170195,-0.248169,0.0559692,-0.375427,0.891235
1470345192193215,-0.24823,0.0559692,-0.375427,0.891235
1470345192209179,-0.24823,0.0560303,-0.375427,0.891235
1470345192230250,-0.248169,0.0559692,-0.375427,0.891235
1470345192253275,-0.248047,0.0557861,-0.375488,0.891235
1470345192269297,-0.247986,0.0557251,-0.375549,0.891296
1470345192290375,-0.247986,0.0557251,-0.375488,0.891296
1470345192313336,-0.247498,0.0557251,-0.375427,0.891418
1470345192329349,-0.246948,0.0556641,-0.375244,0.891663
1470345192350404,-0.246521,0.0557251,-0.375061,0.891907
1470345192372497,-0.246216,0.0557251,-0.375,0.891968
1470345192389464,-0.246216,0.0557251,-0.375,0.891968
1470345192410517,-0.246521,0.0557861,-0.374939,0.891907
1470345192432562,-0.246582,0.0557251,-0.374939,0.891907
1470345192451042,-0.246582,0.055481,-0.375,0.891907
1470345192470562,-0.246399,0.055542,-0.374878,0.891968
1470345192492630,-0.246399,0.055542,-0.374878,0.891968
1470345192510598,-0.246399,0.055603,-0.374878,0.891968
1470345192530618,-0.24646,0.0557861,-0.374939,0.891968
1470345192553184,-0.246399,0.0558472,-0.374939,0.891968
1470345192570284,-0.246216,0.0559692,-0.375,0.891968
1470345192590358,-0.246033,0.0559082,-0.375122,0.891968
1470345192612368,-0.245605,0.0559082,-0.375061,0.89209
1470345192630338,-0.245239,0.0558472,-0.374939,0.892273
1470345192650386,-0.245056,0.0558472,-0.374817,0.892395
1470345192672986,-0.245117,0.0557861,-0.374756,0.892395
1470345192690959,-0.2453,0.055542,-0.374695,0.892395
1470345192710033,-0.245239,0.0552979,-0.374573,0.892456
1470345192732997,-0.245178,0.0550537,-0.37439,0.892578
1470345192751074,-0.245422,0.0549927,-0.374146,0.892578
1470345192770101,-0.245605,0.0548706,-0.374023,0.892639
1470345192800139,-0.245605,0.0547485,-0.373962,0.892639
1470345192811240,-0.245422,0.0545044,-0.374023,0.8927
1470345192830173,-0.245239,0.0541992,-0.374268,0.892639
1470345192853320,-0.2453,0.0541992,-0.374268,0.892639
1470345192870253,-0.2453,0.0541382,-0.374268,0.892639
1470345192890270,-0.2453,0.0541382,-0.374268,0.892639
1470345192913290,-0.244751,0.053833,-0.374329,0.892761
1470345192931310,-0.244202,0.053772,-0.374146,0.893005
1470345192950843,-0.243591,0.053894,-0.373901,0.89325
1470345192973387,-0.243347,0.053894,-0.373596,0.893494
1470345192990386,-0.243591,0.0539551,-0.373291,0.893555
1470345193010403,-0.244141,0.0540161,-0.373108,0.893433
1470345193032537,-0.244141,0.0540161,-0.373108,0.893433
1470345193050963,-0.244202,0.0540161,-0.373108,0.893433
1470345193072034,-0.244446,0.0540771,-0.372864,0.893433
1470345193093097,-0.244507,0.0540771,-0.372864,0.893433
1470345193111068,-0.244507,0.053894,-0.372925,0.893433
1470345193139138,-0.244568,0.053894,-0.372925,0.893433
1470345193153218,-0.244568,0.053833,-0.372925,0.893433
1470345193170727,-0.244629,0.053833,-0.372925,0.893433
1470345193192747,-0.244629,0.053833,-0.372925,0.893433
1470345193212766,-0.244263,0.0539551,-0.372742,0.893555
1470345193230783,-0.244263,0.0540161,-0.372742,0.893555
1470345193253311,-0.244263,0.0540161,-0.372742,0.893555
1470345193272858,-0.244019,0.053772,-0.372864,0.893616
1470345193290861,-0.243713,0.0533447,-0.373047,0.893616
1470345193311880,-0.243774,0.0533447,-0.373047,0.893616
1470345193332898,-0.243774,0.0534058,-0.373047,0.893616
1470345193350923,-0.243896,0.0535889,-0.372742,0.893677
1470345193371942,-0.244202,0.0537109,-0.372559,0.893677
1470345193392962,-0.244263,0.0537109,-0.372498,0.893677
1470345193410978,-0.243896,0.0535889,-0.372375,0.893799
1470345193432997,-0.243652,0.0535278,-0.372559,0.89386
1470345193453021,-0.243713,0.0535278,-0.372559,0.89386
1470345193471040,-0.243713,0.0535278,-0.372559,0.893799
1470345193493061,-0.243774,0.0535278,-0.372559,0.893799
1470345193513078,-0.243591,0.0532227,-0.372559,0.89386
1470345193531095,-0.243408,0.0529785,-0.372681,0.893921
1470345193553624,-0.243042,0.0527954,-0.37262,0.894043
1470345193573174,-0.242859,0.0526123,-0.37262,0.894104
1470345193590182,-0.242859,0.0526733,-0.372559,0.894104
1470345193613202,-0.243286,0.0527344,-0.372559,0.893982
1470345193633220,-0.243286,0.0527954,-0.372559,0.893982
1470345193650801,-0.243469,0.0526733,-0.372742,0.89386
1470345193673339,-0.243652,0.0526733,-0.372864,0.893738
1470345193693355,-0.243713,0.0526123,-0.372864,0.893738
1470345193710370,-0.243652,0.0527344,-0.372925,0.893738
1470345193733392,-0.243591,0.0529175,-0.372864,0.893738
1470345193752918,-0.243591,0.0531616,-0.372803,0.893799
1470345193770154,-0.243408,0.0532837,-0.372864,0.893799
1470345193793175,-0.243225,0.0535278,-0.372742,0.89386
1470345193813250,-0.24292,0.0537109,-0.372742,0.893982
1470345193830208,-0.242615,0.053833,-0.372559,0.894104
1470345193852738,-0.242249,0.0540161,-0.372498,0.894226
1470345193873779,-0.242004,0.0540161,-0.372437,0.894287
1470345193889779,-0.242004,0.0541992,-0.372192,0.894409
1470345193912798,-0.242065,0.0541382,-0.372192,0.894409
1470345193933817,-0.242249,0.0545044,-0.37207,0.894348
1470345193950381,-0.242554,0.0548096,-0.371948,0.894287
1470345193972789,-0.24292,0.0549927,-0.371826,0.894226
1470345193993815,-0.24292,0.0549927,-0.371826,0.894226
1470345194009824,-0.242981,0.0549927,-0.371826,0.894226
1470345194031889,-0.242676,0.0549927,-0.37207,0.894226
1470345194053924,-0.242493,0.0552368,-0.372131,0.894226
1470345194069717,-0.242737,0.055542,-0.37207,0.894165
1470345194092739,-0.242493,0.0557861,-0.371826,0.894287
1470345194113844,-0.242126,0.0560303,-0.371643,0.89447
1470345194129770,-0.241699,0.0561523,-0.37146,0.894653
1470345194152792,-0.241394,0.0563965,-0.371216,0.894836
1470345194173856,-0.240906,0.0563965,-0.370972,0.895081
1470345194189922,-0.240417,0.0563965,-0.370728,0.895264
1470345194211971,-0.240601,0.0565186,-0.370605,0.895325
1470345194233910,-0.241211,0.0569458,-0.370422,0.895142
1470345194249957,-0.242249,0.0574341,-0.370178,0.894958
1470345194271981,-0.24231,0.0574341,-0.370178,0.894958
1470345194294000,-0.242371,0.0576782,-0.3703,0.894897
1470345194310017,-0.242676,0.0579224,-0.370361,0.894714
1470345194332115,-0.243225,0.0581665,-0.370483,0.894531
1470345194355077,-0.243713,0.0584106,-0.370667,0.894287
1470345194370109,-0.244141,0.0584717,-0.37085,0.894104
1470345194392178,-0.243958,0.0583496,-0.371155,0.894043
1470345194415151,-0.243896,0.0583496,-0.371155,0.894043
1470345194430165,-0.243835,0.0583496,-0.371155,0.894043
1470345194452688,-0.243835,0.0584106,-0.371155,0.894043
1470345194475151,-0.243591,0.0582275,-0.371155,0.894165
1470345194489211,-0.243347,0.0579834,-0.371094,0.894226
1470345194512235,-0.243286,0.0578003,-0.371033,0.894287
1470345194535200,-0.243286,0.0578003,-0.371033,0.894287
1470345194549306,-0.243713,0.0577393,-0.371033,0.894165
1470345194572424,-0.243774,0.0577393,-0.371033,0.894165
1470345194594460,-0.243774,0.0577393,-0.371033,0.894165
1470345194609432,-0.243774,0.0577393,-0.371033,0.894165
1470345194632462,-0.243835,0.0577393,-0.371033,0.894165
1470345194655005,-0.243774,0.0576172,-0.371094,0.894165
1470345194669219,-0.243713,0.0574341,-0.371216,0.894104
1470345194692244,-0.243713,0.0574341,-0.371216,0.894104
1470345194715263,-0.243713,0.0574951,-0.371216,0.894104
1470345194729275,-0.243591,0.0574951,-0.371216,0.894165
1470345194752815,-0.243347,0.0574341,-0.371216,0.894226
1470345194774893,-0.243042,0.057373,-0.371155,0.894348
1470345194788879,-0.242981,0.057312,-0.371094,0.894409
1470345194811946,-0.242859,0.057251,-0.371155,0.894409
1470345194834950,-0.242859,0.057251,-0.371155,0.894409
1470345194856025,-0.243286,0.0571899,-0.371155,0.894287
1470345194880097,-0.243286,0.0571289,-0.371155,0.894287
1470345194895111,-0.243286,0.0571289,-0.371155,0.894287
1470345194916162,-0.243347,0.0571899,-0.371155,0.894287
1470345194932178,-0.243347,0.0571899,-0.371155,0.894287
1470345194955173,-0.243408,0.0571899,-0.371155,0.894287
1470345194976239,-0.243469,0.0571899,-0.371155,0.894287
1470345194992249,-0.243469,0.0571899,-0.371155,0.894226
1470345195022236,-0.243469,0.0571899,-0.371155,0.894226
1470345195036293,-0.243469,0.0571899,-0.371155,0.894226
1470345195052822,-0.243347,0.057251,-0.371094,0.894287
1470345195075348,-0.243042,0.0571289,-0.371033,0.894409
1470345195096366,-0.24292,0.0570068,-0.371033,0.89447
1470345195112425,-0.242737,0.0566406,-0.371094,0.89447
1470345195134436,-0.242737,0.0566406,-0.371155,0.89447
1470345195156428,-0.243469,0.0567627,-0.370972,0.894348
1470345195172450,-0.244263,0.0567627,-0.370789,0.894226
1470345195194468,-0.244751,0.0566406,-0.370544,0.894165
1470345195216497,-0.244507,0.0563354,-0.370667,0.894226
1470345195232503,-0.244202,0.0561523,-0.370605,0.894348
1470345195255043,-0.244263,0.0565186,-0.3703,0.894409
1470345195276129,-0.244812,0.0567627,-0.370239,0.894287
1470345195292129,-0.244629,0.0568237,-0.370361,0.894287
1470345195315149,-0.244202,0.0568848,-0.370422,0.894348
1470345195337208,-0.244141,0.0568848,-0.370422,0.894409
1470345195352746,-0.244324,0.0571899,-0.3703,0.894348
1470345195374825,-0.243896,0.057373,-0.370178,0.894531
1470345195396868,-0.24353,0.057373,-0.370178,0.894653
1470345195418866,-0.243347,0.0571899,-0.370178,0.894653
1470345195434880,-0.243042,0.0570068,-0.370178,0.894775
1470345195457431,-0.243042,0.0570068,-0.370178,0.894775
1470345195471571,-0.243652,0.0571899,-0.370117,0.894653
1470345195494596,-0.244202,0.057312,-0.369995,0.894531
1470345195517612,-0.244568,0.0574341,-0.369934,0.89447
1470345195531675,-0.244568,0.0574341,-0.369934,0.89447
1470345195555206,-0.244629,0.0574951,-0.369873,0.89447
1470345195577287,-0.244995,0.0574951,-0.369995,0.894287
1470345195591296,-0.245056,0.0574951,-0.369995,0.894287
1470345195615318,-0.245056,0.0574951,-0.369995,0.894287
1470345195637376,-0.245056,0.0575562,-0.369995,0.894287
1470345195651882,-0.244629,0.057373,-0.369995,0.894409
1470345195674456,-0.244141,0.0571899,-0.369812,0.894592
1470345195697479,-0.243713,0.0571289,-0.369629,0.894836
1470345195711497,-0.243591,0.0570679,-0.369507,0.894897
1470345195734510,-0.243408,0.0570679,-0.369507,0.894958
1470345195757582,-0.243408,0.0571289,-0.369507,0.894958
1470345195771458,-0.243713,0.0570068,-0.369446,0.894897
1470345195794449,-0.243774,0.0565796,-0.369263,0.894958
1470345195817470,-0.244568,0.0562134,-0.369202,0.894836
1470345195838534,-0.244812,0.0559082,-0.369385,0.894714
1470345195855029,-0.244324,0.0558472,-0.369629,0.894714
1470345195877566,-0.243835,0.0560303,-0.369751,0.894775
1470345195898589,-0.244873,0.0567017,-0.369995,0.894409
1470345195915606,-0.245361,0.0563965,-0.370483,0.894043
1470345195937623,-0.244629,0.0559082,-0.37085,0.894165
1470345195958673,-0.243591,0.0560913,-0.370789,0.894409
1470345195974706,-0.243042,0.0560303,-0.370605,0.894653
1470345195997788,-0.243042,0.0560303,-0.370361,0.894775
1470345196018758,-0.24292,0.0560303,-0.370178,0.894897
1470345196034760,-0.242432,0.0557861,-0.370056,0.895081
1470345196057372,-0.242065,0.055542,-0.369812,0.895264
1470345196078594,-0.24231,0.0554199,-0.36969,0.895264
1470345196094635,-0.242798,0.055481,-0.369446,0.895264
1470345196117620,-0.24292,0.055603,-0.369202,0.895264
1470345196138606,-0.242737,0.0557251,-0.369141,0.895386
1470345196155181,-0.242676,0.0558472,-0.369263,0.895325
1470345196177377,-0.242859,0.0560913,-0.369324,0.895203
1470345196198430,-0.243347,0.0565186,-0.369507,0.89502
1470345196214436,-0.243591,0.0568237,-0.369629,0.894897
1470345196237407,-0.243408,0.0570068,-0.369812,0.894836
1470345196259972,-0.243347,0.0570679,-0.369812,0.894836
1470345196274956,-0.243347,0.0570679,-0.369812,0.894836
1470345196296988,-0.242981,0.0570679,-0.36969,0.894958
1470345196319996,-0.242798,0.0570679,-0.369629,0.895081
1470345196335010,-0.242676,0.0570068,-0.369507,0.895142
1470345196357580,-0.242737,0.0570068,-0.369507,0.895142
1470345196379968,-0.242737,0.0570068,-0.369507,0.895142
1470345196393980,-0.24292,0.0571899,-0.369446,0.895081
1470345196418002,-0.243225,0.057373,-0.369385,0.89502
1470345196440056,-0.243225,0.057373,-0.369385,0.89502
1470345196454586,-0.243286,0.057373,-0.369385,0.89502
1470345196477112,-0.243347,0.057373,-0.369385,0.89502
1470345196500134,-0.243347,0.057312,-0.369385,0.89502
1470345196514146,-0.243713,0.0575562,-0.369385,0.894897
1470345196537166,-0.244507,0.0578003,-0.369202,0.894714
1470345196560190,-0.2453,0.0577393,-0.368896,0.894653
1470345196574208,-0.244934,0.0568848,-0.36908,0.894714
1470345196597228,-0.243469,0.0560913,-0.369202,0.895142
1470345196620249,-0.243225,0.0562744,-0.368835,0.895325
1470345196634263,-0.243835,0.0564575,-0.368347,0.895325
1470345196657814,-0.243774,0.0565186,-0.368042,0.895508
1470345196679358,-0.243164,0.0566406,-0.367737,0.895813
1470345196694369,-0.242676,0.0569458,-0.367493,0.895996
1470345196717390,-0.242615,0.0575562,-0.367493,0.895996
1470345196739408,-0.243103,0.0579834,-0.367554,0.895813
1470345196761477,-0.242615,0.0579224,-0.367798,0.895813
1470345196777481,-0.242859,0.0584106,-0.367798,0.895691
1470345196799515,-0.243591,0.0587769,-0.367798,0.895508
1470345196820565,-0.244507,0.0587158,-0.368347,0.89502
1470345196837534,-0.244568,0.0581665,-0.36908,0.894775
1470345196860093,-0.244812,0.0581055,-0.369263,0.894592
1470345196880616,-0.245239,0.0580444,-0.36908,0.894531
1470345196897632,-0.245056,0.0574951,-0.369202,0.894592
1470345196919653,-0.244019,0.0567017,-0.369324,0.894897
1470345196940688,-0.243958,0.0566406,-0.369324,0.894897
1470345196957706,-0.244507,0.0566406,-0.369019,0.894897
1470345196979766,-0.245056,0.0562744,-0.368713,0.894897
1470345197000766,-0.245361,0.0564575,-0.368469,0.894897
1470345197017780,-0.24585,0.0566406,-0.368408,0.894775
1470345197039812,-0.245728,0.0568848,-0.368347,0.894775
1470345197061368,-0.246094,0.0570679,-0.368347,0.894714
1470345197076938,-0.24585,0.0571289,-0.368408,0.894714
1470345197099960,-0.245728,0.0574341,-0.368591,0.894714
1470345197120979,-0.246277,0.0578003,-0.368469,0.894531
1470345197137083,-0.246094,0.0576782,-0.368652,0.894531
1470345197160091,-0.246094,0.0576782,-0.368652,0.894531
1470345197181204,-0.246277,0.0577393,-0.36853,0.894531
1470345197197164,-0.246399,0.0576172,-0.368408,0.894531
1470345197220184,-0.246338,0.0574951,-0.368347,0.894592
1470345197242204,-0.246399,0.057251,-0.368408,0.894592
1470345197263729,-0.246338,0.0571899,-0.368408,0.894592
1470345197280252,-0.246399,0.0571899,-0.368408,0.894592
1470345197302271,-0.246765,0.057312,-0.368286,0.894531
1470345197317285,-0.24707,0.0574951,-0.368164,0.89447
1470345197340305,-0.24707,0.0574951,-0.368103,0.89447
1470345197362833,-0.246887,0.0575562,-0.368103,0.894531
1470345197376348,-0.246887,0.0576172,-0.368103,0.894531
1470345197399396,-0.246948,0.0576172,-0.368103,0.894531
1470345197428397,-0.246948,0.0575562,-0.368103,0.894531
1470345197436402,-0.246704,0.057373,-0.368286,0.894531
1470345197459979,-0.246216,0.057312,-0.368286,0.894714
1470345197482273,-0.246277,0.0574951,-0.368103,0.894714
1470345197496285,-0.246826,0.0578003,-0.367615,0.894775
1470345197520308,-0.246887,0.057312,-0.367676,0.894714
1470345197542327,-0.245483,0.0563965,-0.367981,0.895081
1470345197556863,-0.245056,0.0564575,-0.367981,0.895142
1470345197580230,-0.245911,0.0568237,-0.367615,0.895081
1470345197602303,-0.246094,0.0568848,-0.367249,0.895142
1470345197616317,-0.24585,0.0570679,-0.367126,0.895264
1470345197640285,-0.24585,0.0571289,-0.367126,0.895264
1470345197662865,-0.245728,0.057312,-0.367126,0.895264
1470345197676434,-0.245911,0.0576782,-0.36731,0.895142
1470345197699456,-0.246155,0.0578613,-0.367493,0.894958
1470345197722517,-0.246033,0.0577393,-0.367737,0.894958
1470345197744585,-0.245667,0.0576782,-0.36792,0.894958
1470345197760081,-0.245178,0.0576782,-0.368042,0.89502
1470345197790226,-0.245178,0.0577393,-0.368042,0.89502
1470345197803270,-0.244934,0.0575562,-0.368042,0.895142
1470345197820252,-0.244751,0.057312,-0.367981,0.895203
1470345197842314,-0.244385,0.0569458,-0.367981,0.895325
1470345197863896,-0.244263,0.0565186,-0.367981,0.895386
1470345197879447,-0.244629,0.0562744,-0.368042,0.895264
1470345197902459,-0.245483,0.0562744,-0.368042,0.895081
1470345197923494,-0.246277,0.0563965,-0.367981,0.894836
1470345197939562,-0.246643,0.0564575,-0.367981,0.894714
1470345197962558,-0.246643,0.0564575,-0.367981,0.894714
1470345197983185,-0.246521,0.0566406,-0.368164,0.894653
1470345198000147,-0.246643,0.0570068,-0.368408,0.894531
1470345198022220,-0.246582,0.057373,-0.368713,0.894409
1470345198043212,-0.246399,0.0577393,-0.369202,0.894226
1470345198060294,-0.246277,0.0579834,-0.369629,0.894043
1470345198082365,-0.246277,0.0584106,-0.369995,0.89386
1470345198103413,-0.246582,0.0588989,-0.370117,0.893677
1470345198119398,-0.246948,0.0591431,-0.370117,0.893616
1470345198142419,-0.246826,0.0592041,-0.369995,0.893677
1470345198164962,-0.246277,0.0593262,-0.370117,0.893738
1470345198179464,-0.246704,0.0593872,-0.370117,0.893677
1470345198202485,-0.247192,0.0593262,-0.369934,0.893555
1470345198224506,-0.247314,0.0592651,-0.369934,0.893555
1470345198239530,-0.247192,0.059082,-0.369751,0.893677
1470345198262542,-0.246399,0.0587769,-0.369629,0.893982
1470345198284566,-0.24585,0.0588989,-0.369629,0.894104
1470345198299581,-0.246277,0.0592041,-0.369629,0.893982
1470345198322601,-0.246338,0.0592041,-0.369568,0.893982
1470345198344620,-0.246216,0.0593262,-0.369751,0.893921
1470345198359637,-0.245911,0.0592651,-0.369934,0.893921
1470345198382447,-0.245605,0.0591431,-0.369934,0.894043
1470345198405469,-0.245117,0.0588989,-0.369934,0.894226
1470345198419482,-0.24469,0.0587769,-0.369751,0.894409
1470345198442500,-0.244263,0.0586548,-0.369568,0.894592
1470345198465042,-0.244324,0.0584106,-0.369324,0.894714
1470345198479173,-0.244629,0.0582275,-0.369019,0.894714
1470345198502185,-0.244812,0.0580444,-0.368713,0.894836
1470345198525206,-0.244568,0.0578613,-0.368591,0.894958
1470345198539272,-0.244568,0.0578613,-0.368591,0.894958
1470345198562744,-0.245056,0.0579834,-0.368408,0.894897
1470345198584771,-0.245483,0.0582275,-0.368286,0.894836
1470345198598816,-0.245544,0.0582275,-0.368286,0.894775
1470345198622805,-0.245117,0.0580444,-0.368347,0.894897
1470345198644825,-0.244568,0.0578613,-0.368469,0.89502
1470345198666400,-0.244507,0.0578613,-0.368469,0.89502
1470345198681747,-0.244751,0.0580444,-0.368469,0.894958
1470345198704723,-0.244751,0.0581055,-0.368408,0.894958
1470345198725743,-0.244263,0.0581665,-0.368286,0.895142
1470345198742758,-0.243774,0.0581665,-0.368164,0.895325
1470345198764827,-0.243774,0.0582275,-0.368164,0.895325
1470345198793410,-0.244019,0.0584106,-0.368042,0.895325
1470345198802403,-0.244446,0.0587158,-0.367859,0.895264
1470345198825422,-0.244446,0.0587158,-0.367737,0.895325
1470345198846439,-0.24408,0.0585327,-0.367676,0.895447
1470345198862966,-0.243896,0.0585327,-0.367615,0.895508
1470345198884989,-0.243896,0.0585327,-0.367554,0.895508
1470345198906012,-0.244263,0.0587158,-0.367554,0.895447
1470345198922054,-0.244324,0.0587158,-0.367554,0.895386
1470345198945077,-0.244019,0.0586548,-0.367554,0.895447
1470345198966137,-0.243408,0.0585327,-0.367554,0.89563
1470345198982910,-0.24292,0.0587158,-0.367554,0.895752
1470345199004973,-0.243286,0.05896,-0.367432,0.895691
1470345199025950,-0.243713,0.0592041,-0.36731,0.89563
1470345199042965,-0.243713,0.0592041,-0.36731,0.89563
1470345199065013,-0.243408,0.0591431,-0.367249,0.895752
1470345199087051,-0.243408,0.0591431,-0.367249,0.895752
1470345199093044,-0.243408,0.0591431,-0.367249,0.895752
1470345199108107,-0.243408,0.0592041,-0.367249,0.895752
1470345199130098,-0.243469,0.0592041,-0.367249,0.895752
1470345199153155,-0.243408,0.05896,-0.367249,0.895752
1470345199167761,-0.243469,0.0587769,-0.36731,0.895691
1470345199190805,-0.243713,0.0587158,-0.367371,0.89563
1470345199212821,-0.244019,0.0587769,-0.36731,0.895569
1470345199227843,-0.24408,0.0587769,-0.36731,0.895569
1470345199250814,-0.243774,0.0586548,-0.36731,0.895691
1470345199273350,-0.243408,0.0585938,-0.36731,0.895752
1470345199288364,-0.243408,0.0585938,-0.36731,0.895752
1470345199310383,-0.243469,0.0585938,-0.36731,0.895752
1470345199333481,-0.24353,0.0586548,-0.36731,0.895752
1470345199348489,-0.243408,0.0587158,-0.36731,0.895752
1470345199370143,-0.243408,0.0587158,-0.36731,0.895752
1470345199393151,-0.243408,0.0587158,-0.36731,0.895752
1470345199409148,-0.243408,0.0587158,-0.36731,0.895752
1470345199430231,-0.243408,0.0587158,-0.36731,0.895752
1470345199453333,-0.243408,0.0587158,-0.36731,0.895752
1470345199467258,-0.243408,0.0587769,-0.36731,0.895752
1470345199490655,-0.243408,0.0587769,-0.36731,0.895752
1470345199512646,-0.243347,0.0587158,-0.367126,0.895813
1470345199527700,-0.243225,0.0586548,-0.367065,0.895935
1470345199550676,-0.243042,0.0585938,-0.367004,0.895996
1470345199572743,-0.242859,0.0585327,-0.367004,0.896057
1470345199587778,-0.24292,0.0585327,-0.367004,0.895996
1470345199610835,-0.242859,0.0587769,-0.366943,0.896057
1470345199632839,-0.242615,0.05896,-0.366821,0.896118
1470345199647819,-0.242432,0.0591431,-0.36676,0.89624
1470345199670684,-0.241699,0.0595703,-0.366394,0.896545
1470345199692664,-0.241394,0.0599976,-0.365906,0.89679
1470345199709675,-0.241333,0.0604248,-0.365601,0.896851
1470345199730723,-0.241394,0.0604248,-0.365601,0.896851
1470345199753221,-0.241394,0.0604858,-0.365601,0.896851
1470345199768755,-0.241333,0.0603638,-0.365662,0.896851
1470345199790897,-0.24115,0.0604248,-0.365662,0.896912
1470345199812833,-0.241211,0.0604248,-0.365662,0.896912
1470345199828845,-0.241272,0.0604248,-0.365662,0.896912
1470345199849868,-0.241272,0.0604248,-0.365662,0.896851
1470345199872957,-0.241211,0.0604248,-0.365784,0.896851
1470345199888928,-0.241211,0.0604248,-0.365784,0.896851
1470345199910954,-0.24115,0.0604248,-0.365723,0.896912
1470345199932969,-0.240784,0.0601807,-0.365723,0.897034
1470345199948985,-0.240356,0.0598145,-0.365723,0.897156
1470345199970019,-0.239563,0.0596313,-0.365479,0.897461
1470345199993065,-0.239319,0.0597534,-0.365173,0.897644
1470345200009075,-0.239868,0.0601807,-0.364868,0.897583
1470345200030071,-0.240723,0.0606689,-0.364746,0.8974
1470345200053193,-0.241333,0.0608521,-0.364685,0.897278
1470345200070848,-0.241333,0.060791,-0.364746,0.897217
1470345200090864,-0.241089,0.06073,-0.364929,0.897217
1470345200112929,-0.241333,0.0608521,-0.364929,0.897156
1470345200130901,-0.242065,0.0610962,-0.364868,0.896912
1470345200149919,-0.242493,0.0612793,-0.364929,0.89679
1470345200172512,-0.242493,0.0613403,-0.364929,0.89679
1470345200190491,-0.242249,0.0613403,-0.364929,0.896851
1470345200210555,-0.242126,0.0615845,-0.364807,0.896912
1470345200232530,-0.242188,0.0617676,-0.364624,0.896973
1470345200250546,-0.242554,0.0619507,-0.364502,0.896912
1470345200270586,-0.242554,0.0619507,-0.364502,0.896912
1470345200292605,-0.242249,0.0618286,-0.364624,0.896973
1470345200310621,-0.242249,0.0618286,-0.364624,0.896973
1470345200330701,-0.24231,0.0618286,-0.364624,0.896912
1470345200353167,-0.242371,0.0618286,-0.364624,0.896912
1470345200370687,-0.242371,0.0617065,-0.364807,0.896851
1470345200390704,-0.242371,0.0617065,-0.364807,0.896851
1470345200412739,-0.242371,0.0617065,-0.364746,0.896851
1470345200430740,-0.242371,0.0617065,-0.364746,0.896851
1470345200450766,-0.242371,0.0617676,-0.364746,0.896851
1470345200472961,-0.242249,0.0616455,-0.364807,0.896912
1470345200490918,-0.24231,0.0616455,-0.364807,0.896912
1470345200510936,-0.24231,0.0616455,-0.364807,0.896851
1470345200532957,-0.24231,0.0617065,-0.364807,0.896851
1470345200550974,-0.24231,0.0616455,-0.364807,0.896912
1470345200570675,-0.242554,0.0617676,-0.364685,0.896851
1470345200592696,-0.242615,0.0617676,-0.364685,0.896851
1470345200610711,-0.242432,0.0618286,-0.364563,0.896912
1470345200630728,-0.242432,0.0618286,-0.364563,0.896912
1470345200653299,-0.242432,0.0618286,-0.364563,0.896912
1470345200670323,-0.242493,0.0618286,-0.364563,0.896912
1470345200693357,-0.242493,0.0618286,-0.364563,0.896912
1470345200712360,-0.242493,0.0618286,-0.364563,0.896912
1470345200735385,-0.242554,0.0618896,-0.364563,0.896912
1470345200751445,-0.242554,0.0618896,-0.364563,0.896912
1470345200772550,-0.242554,0.0618896,-0.364563,0.896912
1470345200790556,-0.242615,0.0618896,-0.364563,0.896851
1470345200811530,-0.242493,0.0618286,-0.364624,0.896912
1470345200832549,-0.242371,0.0617676,-0.364624,0.896912
1470345200850564,-0.242371,0.0617676,-0.364624,0.896912
1470345200871673,-0.242371,0.0617676,-0.364624,0.896912
1470345200892690,-0.242371,0.0617676,-0.364624,0.896912
1470345200910679,-0.242065,0.0617065,-0.364502,0.897034
1470345200931718,-0.241394,0.0614624,-0.364441,0.897278
1470345200952806,-0.241089,0.0613403,-0.364441,0.8974
1470345200970563,-0.24115,0.0613403,-0.364441,0.897339
1470345200993594,-0.24115,0.0613403,-0.364441,0.897339
1470345201012601,-0.24115,0.0613403,-0.364441,0.897339
1470345201030617,-0.241211,0.0613403,-0.364441,0.897339
1470345201053637,-0.241211,0.0613403,-0.364441,0.897339
1470345201072742,-0.241272,0.0614014,-0.36438,0.897339
1470345201090724,-0.241028,0.0612793,-0.364319,0.897461
1470345201113763,-0.241028,0.0612793,-0.364319,0.897461
1470345201132807,-0.241028,0.0612793,-0.364319,0.897461
1470345201150778,-0.241089,0.0612793,-0.364319,0.8974
1470345201172975,-0.241089,0.0612793,-0.364319,0.8974
1470345201193082,-0.24115,0.0613403,-0.364319,0.8974
1470345201211009,-0.24115,0.0613403,-0.364319,0.8974
1470345201233029,-0.24115,0.0613403,-0.364319,0.8974
1470345201253054,-0.24115,0.0613403,-0.364319,0.8974
1470345201271076,-0.241394,0.0614624,-0.364441,0.897278
1470345201293095,-0.241394,0.0614624,-0.364441,0.897278
1470345201313113,-0.24115,0.0614624,-0.364624,0.897278
1470345201331141,-0.240845,0.0615234,-0.364624,0.897339
1470345201353150,-0.240845,0.0615234,-0.364624,0.897339
1470345201373183,-0.240906,0.0615234,-0.364624,0.897339
1470345201391198,-0.240906,0.0615845,-0.364624,0.897339
1470345201413218,-0.240723,0.0614014,-0.364502,0.897461
1470345201433238,-0.240479,0.0612793,-0.364502,0.897522
1470345201451253,-0.240662,0.0614014,-0.364563,0.8974
1470345201473294,-0.241211,0.0616455,-0.364563,0.897278
1470345201500317,-0.241394,0.0616455,-0.364746,0.897156
1470345201510327,-0.241394,0.0616455,-0.364746,0.897156
1470345201533347,-0.241028,0.0615845,-0.364685,0.897278
1470345201553366,-0.240662,0.0614624,-0.364624,0.8974
1470345201570887,-0.240662,0.0614624,-0.364624,0.8974
1470345201593407,-0.24115,0.0616455,-0.364563,0.897278
1470345201614430,-0.24115,0.0616455,-0.364563,0.897278
1470345201630443,-0.241089,0.0614624,-0.364624,0.897278
1470345201652462,-0.241089,0.0615234,-0.364624,0.897278
1470345201673497,-0.241089,0.0615234,-0.364624,0.897278
1470345201690003,-0.24115,0.0615234,-0.364624,0.897278
1470345201713530,-0.241211,0.0615234,-0.364624,0.897278
1470345201733547,-0.241211,0.0615234,-0.364563,0.897278
1470345201749561,-0.241211,0.0615234,-0.364563,0.897278
1470345201772582,-0.241211,0.0615234,-0.364563,0.897278
1470345201793651,-0.241211,0.0613403,-0.364624,0.897278
1470345201809656,-0.241333,0.0611572,-0.364685,0.897217
1470345201832678,-0.241577,0.0609741,-0.364685,0.897156
1470345201853736,-0.241516,0.06073,-0.364685,0.897217
1470345201869720,-0.241211,0.0605469,-0.364624,0.897339
1470345201892796,-0.241089,0.0604248,-0.364502,0.8974
1470345201913707,-0.241089,0.0604248,-0.364319,0.897522
1470345201929641,-0.241089,0.0604248,-0.364319,0.897461
1470345201952662,-0.241394,0.0604248,-0.364319,0.8974
1470345201974682,-0.241455,0.0604248,-0.364319,0.8974
1470345201990235,-0.241455,0.0604248,-0.364319,0.8974
1470345202012735,-0.241455,0.0604858,-0.364197,0.897461
1470345202034755,-0.240906,0.0606079,-0.363892,0.897705
1470345202049771,-0.240112,0.0610962,-0.363892,0.897888
1470345202072787,-0.240417,0.0611572,-0.364258,0.897644
1470345202095345,-0.244751,0.0612183,-0.363953,0.896606
1470345202108862,-0.25415,0.0608521,-0.361572,0.894958
1470345202132884,-0.263733,0.0587769,-0.359131,0.893311
1470345202154904,-0.268982,0.0560913,-0.356812,0.892822
1470345202168915,-0.267761,0.0510864,-0.353882,0.894653
1470345202192508,-0.261597,0.0465088,-0.345154,0.900146
1470345202214598,-0.256287,0.0427856,-0.330566,0.907288
1470345202235641,-0.257507,0.0393677,-0.313293,0.913208
1470345202252632,-0.266663,0.036438,-0.291016,0.918091
1470345202274651,-0.27533,0.0353394,-0.270569,0.921814
1470345202296224,-0.278503,0.0345459,-0.252991,0.925842
1470345202312833,-0.277527,0.0348511,-0.237244,0.930298
1470345202334853,-0.277344,0.0349121,-0.224487,0.933533
1470345202355948,-0.279724,0.0336914,-0.213196,0.935486
1470345202372885,-0.278809,0.0321045,-0.204407,0.937744
1470345202395444,-0.274292,0.0314941,-0.199707,0.940125
1470345202416470,-0.270203,0.0314941,-0.197144,0.941833
1470345202432487,-0.270081,0.031189,-0.194763,0.942383
1470345202454542,-0.271729,0.0302734,-0.192383,0.942444
1470345202476527,-0.271118,0.0285645,-0.190796,0.942993
1470345202492591,-0.269897,0.0266113,-0.189941,0.943542
1470345202514615,-0.270264,0.0241699,-0.189758,0.943604
1470345202535635,-0.271545,0.0216675,-0.189758,0.943237
1470345202552652,-0.272583,0.0186768,-0.189087,0.943176
1470345202574670,-0.272644,0.0167847,-0.188293,0.943359
1470345202596254,-0.270325,0.017395,-0.188171,0.944031
1470345202612742,-0.265991,0.0197754,-0.188232,0.94519
1470345202634762,-0.266724,0.022644,-0.187378,0.945129
1470345202655836,-0.27063,0.0237427,-0.187805,0.943848
1470345202672797,-0.2724,0.024292,-0.190186,0.942871
1470345202695402,-0.272095,0.0253296,-0.192993,0.942383
1470345202716045,-0.268372,0.0272827,-0.198242,0.942261
1470345202731972,-0.263489,0.0304565,-0.205505,0.942017
1470345202754991,-0.260681,0.0339966,-0.214783,0.940613
1470345202776012,-0.257324,0.0371704,-0.226379,0.938721
1470345202792621,-0.2547,0.0390015,-0.240417,0.935852
1470345202815103,-0.25592,0.0386963,-0.256836,0.931152
1470345202836175,-0.257507,0.0375366,-0.272278,0.926331
1470345202852133,-0.256531,0.0373535,-0.286255,0.922424
1470345202875186,-0.259338,0.0359497,-0.299622,0.917419
1470345202897726,-0.265747,0.0316772,-0.311829,0.911682
1470345202912241,-0.271301,0.0272217,-0.320618,0.907104
1470345202935265,-0.268433,0.026062,-0.322205,0.90741
1470345202957285,-0.262146,0.0263062,-0.320557,0.909851
1470345202972296,-0.259705,0.026123,-0.319031,0.911072
1470345202995323,-0.259216,0.0234985,-0.31781,0.911743
1470345203017379,-0.258606,0.0213623,-0.317017,0.912231
1470345203032361,-0.25769,0.020813,-0.318237,0.912109
1470345203055396,-0.255615,0.0202026,-0.319824,0.912109
1470345203077402,-0.25293,0.0205688,-0.320313,0.912659
1470345203091982,-0.251831,0.0216675,-0.320251,0.912964
1470345203114536,-0.252563,0.0230713,-0.32019,0.912781
1470345203137555,-0.253296,0.0241089,-0.320251,0.912476
1470345203151621,-0.253357,0.024292,-0.320313,0.912476
1470345203174642,-0.252869,0.0239258,-0.320251,0.912598
1470345203197661,-0.252686,0.0235596,-0.319885,0.912842
1470345203211680,-0.252502,0.0233154,-0.31958,0.912964
1470345203234701,-0.252075,0.0233154,-0.319702,0.913086
1470345203257721,-0.25177,0.0232544,-0.320068,0.913025
1470345203271733,-0.252258,0.0233765,-0.320313,0.912781
1470345203295260,-0.252319,0.0234375,-0.320313,0.912781
1470345203317797,-0.251648,0.0234985,-0.320129,0.913025
1470345203331809,-0.251221,0.0237427,-0.320068,0.913147
1470345203354830,-0.25116,0.0238037,-0.320068,0.913147
1470345203377851,-0.25177,0.0238647,-0.320007,0.913025
1470345203391930,-0.251831,0.0239258,-0.320007,0.913025
1470345203414968,-0.250854,0.0239258,-0.320068,0.913269
1470345203437078,-0.249756,0.0237427,-0.320068,0.913574
1470345203459007,-0.249939,0.0234375,-0.320068,0.913513
1470345203475022,-0.250732,0.0230713,-0.319824,0.913391
1470345203497573,-0.251404,0.0227051,-0.319519,0.91333
1470345203519142,-0.250977,0.0222778,-0.31897,0.913635
1470345203535136,-0.249512,0.0219116,-0.318848,0.914124
1470345203557155,-0.248535,0.0220337,-0.318787,0.914368
1470345203579260,-0.248779,0.0223389,-0.318542,0.914429
1470345203595193,-0.248718,0.0224609,-0.31842,0.914429
1470345203617229,-0.248413,0.0227661,-0.31842,0.914551
1470345203638248,-0.248108,0.0228882,-0.318665,0.91449
1470345203655265,-0.248291,0.0230713,-0.318848,0.914368
1470345203677284,-0.248779,0.0233765,-0.319092,0.914185
1470345203698807,-0.249207,0.0237427,-0.319275,0.914001
1470345203715331,-0.24884,0.0238647,-0.31958,0.91394
1470345203737347,-0.248291,0.0240479,-0.319946,0.914001
1470345203758367,-0.248047,0.024292,-0.32019,0.91394
1470345203781387,-0.247864,0.0244141,-0.320313,0.914001
1470345203797905,-0.247131,0.024353,-0.320557,0.914063
1470345203818482,-0.246277,0.0244141,-0.32074,0.914246
1470345203834488,-0.245483,0.0245361,-0.320801,0.914429
1470345203857491,-0.244568,0.0244141,-0.32074,0.914734
1470345203879521,-0.243591,0.024353,-0.32074,0.914978
1470345203895059,-0.242676,0.024292,-0.32074,0.915222
1470345203917599,-0.242004,0.024231,-0.320679,0.915405
1470345203939686,-0.241333,0.0240479,-0.320862,0.915527
1470345203954632,-0.241394,0.0237427,-0.320923,0.915527
1470345203977662,-0.24231,0.0237427,-0.32074,0.915344
1470345204000235,-0.24292,0.0236206,-0.320679,0.915222
1470345204014771,-0.242981,0.0233765,-0.320557,0.915222
1470345204037793,-0.242859,0.0230713,-0.320435,0.915344
1470345204059832,-0.242859,0.0227051,-0.320435,0.915344
1470345204074825,-0.243042,0.022644,-0.320313,0.915283
1470345204097858,-0.243225,0.0231323,-0.319824,0.915405
1470345204119898,-0.244324,0.0245361,-0.318604,0.915527
1470345204133910,-0.246826,0.0258179,-0.317627,0.915161
1470345204156963,-0.250366,0.0270386,-0.31665,0.91449
1470345204179952,-0.255859,0.0275879,-0.315308,0.913391
1470345204201620,-0.264465,0.0270996,-0.314453,0.911316
1470345204218068,-0.277039,0.02771,-0.312561,0.908142
1470345204240147,-0.286743,0.0272217,-0.307739,0.906799
1470345204261162,-0.289185,0.0270996,-0.297729,0.909363
1470345204277120,-0.287292,0.0268555,-0.283264,0.914612
1470345204300148,-0.288574,0.0258179,-0.265686,0.919495
1470345204321203,-0.294373,0.0255737,-0.244263,0.923584
1470345204337186,-0.304443,0.0271606,-0.223938,0.925415
1470345204360222,-0.311584,0.0289917,-0.204834,0.927429
1470345204381292,-0.315247,0.0316772,-0.187988,0.929688
1470345204397747,-0.310852,0.0297241,-0.173279,0.934021
1470345204420272,-0.311279,0.0256958,-0.158691,0.936584
1470345204441338,-0.317261,0.0234375,-0.146179,0.936707
1470345204457304,-0.319702,0.0231934,-0.137329,0.937195
1470345204480325,-0.317322,0.0246582,-0.130493,0.938965
1470345204501475,-0.315369,0.026123,-0.124512,0.940369
1470345204517490,-0.318726,0.0264893,-0.119934,0.939819
1470345204540509,-0.324402,0.0252075,-0.116821,0.938354
1470345204561552,-0.328125,0.0241699,-0.114197,0.937378
1470345204577544,-0.32843,0.0240479,-0.112,0.937561
1470345204600127,-0.328186,0.0247192,-0.10907,0.937927
1470345204621306,-0.330261,0.0261841,-0.105042,0.937622
1470345204637282,-0.333374,0.0280151,-0.10144,0.93689
1470345204660294,-0.336426,0.0299072,-0.0986328,0.936035
1470345204681367,-0.338196,0.0308228,-0.0958862,0.935669
1470345204697862,-0.341309,0.0307617,-0.0928955,0.934814
1470345204721489,-0.343079,0.0297852,-0.0901489,0.934509
1470345204741507,-0.345276,0.0287476,-0.086853,0.934021
1470345204756520,-0.347595,0.0283203,-0.0835571,0.933472
1470345204779570,-0.348633,0.0286865,-0.0812988,0.933289
1470345204802667,-0.349487,0.029541,-0.0790405,0.933105
1470345204817214,-0.350952,0.0307617,-0.0769043,0.932739
1470345204840238,-0.3526,0.0324707,-0.0748901,0.93219
1470345204862257,-0.354187,0.0342407,-0.072937,0.931702
1470345204877267,-0.355835,0.0357056,-0.0706787,0.931152
1470345204900349,-0.357117,0.0368652,-0.0678711,0.930847
1470345204922100,-0.359253,0.0380859,-0.0648804,0.930176
1470345204937072,-0.360657,0.0386963,-0.0619507,0.92981
1470345204960095,-0.361694,0.0393677,-0.0588989,0.929565
1470345204982111,-0.362061,0.0405273,-0.0557251,0.929565
1470345204997134,-0.36261,0.0419922,-0.0527344,0.929504
1470345205019680,-0.363159,0.0432129,-0.0504761,0.929321
1470345205042694,-0.363525,0.0429077,-0.0487671,0.929321
1470345205056710,-0.363464,0.0419312,-0.0464478,0.929504
1470345205079727,-0.36554,0.041626,-0.0432739,0.928833
1470345205102803,-0.368347,0.0413818,-0.0407104,0.927856
1470345205123887,-0.370178,0.0415039,-0.0388794,0.927185
1470345205139902,-0.371704,0.0420532,-0.0371704,0.926636
1470345205162919,-0.373474,0.0423584,-0.0358887,0.925964
1470345205176931,-0.375671,0.0428467,-0.0346069,0.92511
1470345205199992,-0.378052,0.0435791,-0.0333252,0.924133
1470345205222020,-0.380005,0.0446167,-0.0317993,0.92334
1470345205237038,-0.380676,0.0455933,-0.0303955,0.923096
1470345205260035,-0.381287,0.0459595,-0.0291748,0.922852
1470345205282053,-0.383667,0.0458984,-0.0276489,0.921875
1470345205303577,-0.387512,0.0458984,-0.0256348,0.920349
1470345205320116,-0.391846,0.0462036,-0.0236206,0.918579
1470345205350169,-0.395508,0.0463257,-0.0227051,0.916992
1470345205371212,-0.398132,0.0457153,-0.0230103,0.915894
1470345205380168,-0.400269,0.045105,-0.0229492,0.914978
1470345205402696,-0.401367,0.0447998,-0.0223389,0.914551
1470345205423223,-0.401672,0.0445557,-0.0213623,0.914429
1470345205440237,-0.402161,0.0446777,-0.0199585,0.914246
1470345205462256,-0.403015,0.0452881,-0.0181885,0.913879
1470345205484275,-0.403809,0.0459595,-0.0162964,0.913513
1470345205500296,-0.405151,0.0465088,-0.0145874,0.912903
1470345205522344,-0.408203,0.0466309,-0.0130005,0.91156
1470345205543386,-0.410889,0.0457153,-0.012085,0.910461
1470345205560367,-0.413269,0.0449829,-0.0109863,0.909424
1470345205582403,-0.414673,0.0438843,-0.0101318,0.908813
1470345205604013,-0.416687,0.0429077,-0.00927734,0.907959
1470345205626529,-0.418518,0.0418701,-0.00811768,0.907166
1470345205642500,-0.420105,0.0415039,-0.00616455,0.906494
1470345205663560,-0.421753,0.0413208,-0.00378418,0.905762
1470345205679574,-0.421265,0.0439453,0.000305176,0.905884
1470345205703109,-0.417297,0.0452271,0.00323486,0.907593
1470345205723742,-0.413086,0.046936,0.00640869,0.909424
1470345205739690,-0.411133,0.0473022,0.00897217,0.910278
1470345205762714,-0.409729,0.046875,0.0108032,0.91095
1470345205784735,-0.407837,0.046875,0.012146,0.911743
1470345205799796,-0.405579,0.0476074,0.0136719,0.91272
1470345205822510,-0.403809,0.0483398,0.0160522,0.913391
1470345205844530,-0.402588,0.0473022,0.017395,0.914001
1470345205859566,-0.400574,0.0463257,0.0189209,0.914856
1470345205882588,-0.399719,0.0454712,0.0200195,0.915283
1470345205905189,-0.399902,0.0442505,0.0205688,0.915222
1470345205919284,-0.401001,0.0429077,0.0210571,0.914795
1470345205942289,-0.401428,0.0413208,0.0216064,0.914673
1470345205965286,-0.401062,0.0401001,0.0220337,0.914917
1470345205979298,-0.400879,0.0388794,0.0224609,0.915039
1470345206009961,-0.401855,0.0374756,0.0228882,0.914612
1470345206024964,-0.402283,0.036377,0.0232544,0.91449
1470345206039016,-0.401855,0.0354614,0.0236206,0.914673
1470345206062979,-0.401367,0.0349731,0.0238037,0.914917
1470345206084999,-0.401184,0.0343628,0.0234375,0.915039
1470345206099566,-0.400635,0.0338745,0.0228271,0.915283
1470345206122195,-0.399231,0.0336304,0.0222778,0.915955
1470345206145125,-0.397339,0.0339966,0.0220337,0.916748
1470345206159138,-0.396301,0.0348511,0.0217896,0.917175
1470345206182158,-0.395569,0.0361328,0.0228271,0.917419
1470345206205189,-0.394348,0.0367432,0.0238037,0.917908
1470345206219935,-0.392883,0.0371704,0.0239868,0.918518
1470345206242934,-0.389587,0.0380249,0.0231934,0.919861
1470345206264954,-0.386902,0.0396729,0.022644,0.920959
1470345206285973,-0.385986,0.0402222,0.0220947,0.921326
1470345206302995,-0.384399,0.0395508,0.0213013,0.922058
1470345206325021,-0.380737,0.0386353,0.0197754,0.923645
1470345206348041,-0.376404,0.0375977,0.0182495,0.925476
1470345206363054,-0.372864,0.0367432,0.0170288,0.927002
1470345206385077,-0.369507,0.0368652,0.0149536,0.928345
1470345206406611,-0.365845,0.038269,0.0127563,0.929749
1470345206422850,-0.364441,0.0389404,0.0108032,0.930359
1470345206444870,-0.365356,0.0384521,0.00823975,0.929993
1470345206465914,-0.36676,0.0361328,0.00543213,0.929565
1470345206482904,-0.366821,0.0335693,0.00250244,0.929688
1470345206505430,-0.36438,0.0332642,-6.10352e-05,0.930603
1470345206525953,-0.362305,0.0338745,-0.00268555,0.931396
1470345206542972,-0.359619,0.0354004,-0.00506592,0.932373
1470345206572995,-0.357117,0.0375366,-0.00756836,0.933228
1470345206586008,-0.355713,0.0393066,-0.00927734,0.933716
1470345206603045,-0.354126,0.039917,-0.0098877,0.934265
1470345206625095,-0.350586,0.0412598,-0.0103149,0.935547
1470345206646147,-0.347717,0.0427246,-0.0118408,0.936523
1470345206662128,-0.347778,0.0438843,-0.0130615,0.936462
1470345206685150,-0.349792,0.0438843,-0.0140991,0.935669
1470345206708182,-0.350159,0.0435791,-0.0147095,0.935547
1470345206722193,-0.348633,0.0432129,-0.015686,0.936096
1470345206745214,-0.347351,0.0428467,-0.0161133,0.936584
1470345206767234,-0.347534,0.0421753,-0.0169678,0.936523
1470345206782247,-0.348267,0.041687,-0.0180664,0.936279
1470345206805286,-0.348572,0.0411377,-0.019104,0.936157
1470345206828038,-0.348328,0.0405273,-0.0201416,0.936218
1470345206842051,-0.3479,0.039978,-0.0214844,0.936401
1470345206865076,-0.347168,0.039978,-0.0227661,0.936646
1470345206887181,-0.346313,0.039978,-0.0239258,0.936951
1470345206902144,-0.345947,0.0400391,-0.0252686,0.937073
1470345206909157,-0.345642,0.0400391,-0.0264893,0.937134
1470345206930177,-0.345337,0.0401001,-0.02771,0.937195
1470345206953208,-0.344666,0.039917,-0.0292358,0.937378
1470345206969210,-0.344421,0.0396118,-0.0307007,0.937439
1470345206990278,-0.345825,0.0383301,-0.0322876,0.936951
1470345207013074,-0.348694,0.0357056,-0.0338745,0.935913
1470345207029061,-0.3526,0.0326538,-0.0352173,0.934509
1470345207051082,-0.356262,0.0293579,-0.0368652,0.933167
1470345207073130,-0.359009,0.0256348,-0.0394287,0.932129
1470345207089146,-0.360901,0.0219116,-0.0428467,0.931335
1470345207110300,-0.363159,0.0193481,-0.0456543,0.930359
1470345207133300,-0.365356,0.0183716,-0.0473633,0.929443
1470345207149269,-0.366882,0.0183105,-0.0485229,0.928833
1470345207170287,-0.367493,0.0187988,-0.0498657,0.928467
1470345207193421,-0.367249,0.0195923,-0.0505371,0.928528
1470345207209456,-0.367676,0.0188599,-0.0535278,0.928223
1470345207230463,-0.366821,0.0183716,-0.0552368,0.928467
1470345207253482,-0.366882,0.0179443,-0.0571899,0.928345
1470345207269498,-0.367737,0.0178833,-0.059021,0.927856
1470345207293583,-0.367798,0.0181274,-0.060791,0.927734
1470345207312643,-0.367615,0.0182495,-0.0630493,0.927673
1470345207329623,-0.36676,0.0183716,-0.0657959,0.927795
1470345207350700,-0.366394,0.0187988,-0.0679932,0.927734
1470345207372669,-0.366272,0.0198975,-0.0698242,0.927673
1470345207389677,-0.365417,0.0215454,-0.0714111,0.927856
1470345207410299,-0.363953,0.0253296,-0.0734253,0.928162
1470345207433360,-0.361877,0.02948,-0.0740967,0.928772
1470345207451335,-0.361084,0.0328369,-0.0733643,0.929016
1470345207470357,-0.361816,0.03479,-0.0720825,0.928772
1470345207493409,-0.361694,0.0353394,-0.0712891,0.928894
1470345207510991,-0.35968,0.0353394,-0.0704346,0.929749
1470345207531015,-0.357849,0.0356445,-0.069397,0.930481
1470345207553023,-0.358154,0.0355225,-0.0689697,0.93042
1470345207570038,-0.361145,0.03479,-0.0689087,0.929321
1470345207591054,-0.362854,0.0332031,-0.0688477,0.928711
1470345207613132,-0.362366,0.0322266,-0.0688477,0.928894
1470345207631126,-0.359741,0.0332642,-0.0689697,0.929871
1470345207651144,-0.358704,0.0350342,-0.0681763,0.930298
1470345207673199,-0.36145,0.0359497,-0.0670776,0.92926
1470345207691232,-0.362976,0.0359497,-0.0668335,0.92865
1470345207710838,-0.362122,0.0355835,-0.0667725,0.929016
1470345207735849,-0.360657,0.0362549,-0.0664063,0.929626
1470345207750863,-0.360779,0.0371704,-0.06604,0.929565
1470345207770880,-0.362305,0.0371704,-0.06604,0.928955
1470345207793409,-0.362549,0.0366211,-0.06604,0.928894
1470345207810429,-0.361267,0.0371094,-0.0657349,0.929382
1470345207830472,-0.359314,0.0390015,-0.0657959,0.930054
1470345207853467,-0.360107,0.041626,-0.0652466,0.929688
1470345207870485,-0.362305,0.0421143,-0.0648193,0.928833
1470345207890516,-0.364502,0.041687,-0.0655518,0.927979
1470345207913191,-0.36554,0.0408325,-0.0656128,0.927551
1470345207931208,-0.366089,0.0410767,-0.0652466,0.927368
1470345207950225,-0.364014,0.0427856,-0.0654297,0.928101
1470345207973242,-0.364624,0.0454102,-0.0647583,0.927795
1470345207991206,-0.366943,0.0452881,-0.0643921,0.92688
1470345208013764,-0.368286,0.0443726,-0.0644531,0.926392
1470345208032813,-0.367676,0.0444336,-0.0641479,0.926636
1470345208050797,-0.365723,0.0463257,-0.0640869,0.927368
1470345208070817,-0.365173,0.0485229,-0.0643311,0.927429
1470345208093341,-0.367859,0.0494385,-0.0643921,0.926331
1470345208110868,-0.368835,0.0491943,-0.065918,0.925842
1470345208131885,-0.367432,0.0502319,-0.0673828,0.926208
1470345208152922,-0.366028,0.0514526,-0.0687256,0.926636
1470345208170922,-0.364685,0.052124,-0.0701904,0.927002
1470345208190939,-0.365112,0.0523071,-0.071167,0.926758
1470345208213008,-0.365295,0.0516357,-0.0719604,0.926636
1470345208231023,-0.362244,0.052002,-0.0740967,0.927673
1470345208252040,-0.357605,0.0534058,-0.0767212,0.929138
1470345208273059,-0.356323,0.053894,-0.0783691,0.929504
1470345208291076,-0.357849,0.0532837,-0.0786743,0.928894
1470345208312104,-0.356689,0.0516968,-0.0787964,0.929443
1470345208333147,-0.35437,0.0516357,-0.0801392,0.930237
1470345208351139,-0.351074,0.0516968,-0.0826416,0.931213
1470345208372160,-0.35144,0.052002,-0.0859985,0.930786
1470345208393267,-0.35144,0.052002,-0.0911255,0.930298
1470345208411279,-0.347412,0.0532837,-0.0990601,0.930908
1470345208432299,-0.340881,0.0570679,-0.109375,0.931946
1470345208460335,-0.335876,0.06073,-0.121826,0.932007
1470345208471352,-0.331299,0.0639648,-0.136658,0.931335
1470345208491377,-0.325012,0.0675049,-0.154358,0.930603
1470345208513411,-0.316589,0.071106,-0.174011,0.929749
1470345208531427,-0.308472,0.0730591,-0.194824,0.928162
1470345208551524,-0.303467,0.0725098,-0.216248,0.92511
1470345208573465,-0.303162,0.0705566,-0.238159,0.919983
1470345208590502,-0.30249,0.0700684,-0.256958,0.915161
1470345208613557,-0.302795,0.069519,-0.269958,0.911377
1470345208632575,-0.305847,0.0687866,-0.277222,0.908203
1470345208650590,-0.30957,0.067688,-0.281799,0.90564
1470345208673611,-0.309875,0.0664673,-0.283508,0.90509
1470345208692629,-0.307312,0.0645142,-0.282471,0.906372
1470345208713316,-0.303284,0.0610352,-0.282104,0.908142
1470345208733333,-0.301453,0.0592041,-0.281067,0.90918
1470345208753351,-0.300293,0.0579224,-0.280212,0.909912
1470345208771372,-0.296265,0.0565796,-0.280273,0.911255
1470345208799441,-0.289795,0.0565186,-0.281128,0.913086
1470345208812623,-0.285156,0.0568237,-0.282288,0.914185
1470345208830584,-0.284851,0.0574951,-0.282349,0.914185
1470345208853604,-0.286011,0.0586548,-0.282166,0.913879
1470345208872620,-0.285828,0.059021,-0.282715,0.913696
1470345208891644,-0.285889,0.0591431,-0.282959,0.913574
1470345208918234,-0.284485,0.0588379,-0.283386,0.91394
1470345208933282,-0.282715,0.0585938,-0.283752,0.914429
1470345208957264,-0.281555,0.0586548,-0.283752,0.914734
1470345208973279,-0.280884,0.0588989,-0.283752,0.914917
1470345208993357,-0.279785,0.059021,-0.283691,0.915283
1470345209011061,-0.278442,0.05896,-0.283752,0.915649
1470345209033035,-0.277405,0.0586548,-0.283936,0.915955
1470345209053054,-0.276917,0.0584106,-0.283875,0.916138
1470345209071203,-0.276733,0.0585327,-0.283508,0.91626
1470345209094150,-0.276855,0.0594482,-0.282959,0.916382
1470345209112757,-0.277344,0.0598755,-0.283142,0.916138
1470345209130755,-0.278198,0.0603027,-0.28363,0.91571
1470345209153817,-0.279541,0.0610962,-0.284058,0.9151
1470345209172848,-0.280762,0.0615845,-0.284607,0.914551
1470345209190809,-0.281372,0.0618896,-0.285339,0.914063
1470345209213592,-0.281189,0.0616455,-0.286194,0.913879
1470345209234611,-0.280701,0.0612183,-0.287048,0.913818
1470345209250626,-0.280518,0.0611572,-0.287598,0.913696
1470345209273647,-0.280579,0.0612793,-0.288025,0.913513
1470345209294665,-0.280823,0.0614014,-0.288452,0.91333
1470345209311187,-0.28125,0.0616455,-0.28894,0.913025
1470345209339218,-0.281799,0.0615845,-0.28949,0.912659
1470345209362238,-0.282715,0.0615845,-0.289917,0.912292
1470345209371250,-0.285706,0.0617065,-0.289917,0.911316
1470345209393267,-0.290833,0.0612793,-0.289734,0.90979
1470345209414295,-0.297913,0.0601196,-0.289246,0.907715
1470345209436316,-0.305664,0.0586548,-0.28833,0.905518
1470345209460337,-0.312927,0.0567017,-0.285217,0.904175
1470345209473350,-0.315247,0.0541382,-0.279358,0.905334
1470345209496410,-0.312622,0.0512695,-0.26825,0.90979
1470345209512276,-0.311035,0.0484619,-0.25177,0.915161
1470345209535299,-0.313904,0.045166,-0.23175,0.919617
1470345209556315,-0.319946,0.0430298,-0.20929,0.923035
1470345209572357,-0.325806,0.041626,-0.18811,0.925598
1470345209595353,-0.33136,0.0405884,-0.168884,0.927368
1470345209609870,-0.333923,0.0380859,-0.152161,0.929443
1470345209632441,-0.333923,0.0344238,-0.136902,0.931946
1470345209655457,-0.334534,0.0305176,-0.12323,0.933777
1470345209676559,-0.334351,0.0280762,-0.112244,0.935303
1470345209692553,-0.33313,0.0266724,-0.103516,0.936768
1470345209714620,-0.333069,0.0253296,-0.0966797,0.937561
1470345209729636,-0.334229,0.0231934,-0.09198,0.937683
1470345209752657,-0.33551,0.0200806,-0.0892944,0.937561
1470345209774706,-0.335815,0.0175171,-0.0872803,0.937683
1470345209796310,-0.334778,0.0153198,-0.085083,0.938293
1470345209812858,-0.332825,0.0133667,-0.0825195,0.93927
1470345209834843,-0.331787,0.0120239,-0.0802612,0.939819
1470345209855941,-0.331116,0.0111084,-0.0786743,0.940247
1470345209872878,-0.330017,0.0101929,-0.0768433,0.940735
1470345209894898,-0.328369,0.00964355,-0.074707,0.941528
1470345209909917,-0.32666,0.00952148,-0.072876,0.942261
1470345209932997,-0.326965,0.0090332,-0.0714722,0.942261
1470345209955018,-0.327698,0.00848389,-0.0703735,0.942078
1470345209969030,-0.327209,0.00817871,-0.0693359,0.942322
1470345209993050,-0.325745,0.00811768,-0.0686035,0.942932
1470345210015093,-0.325195,0.00830078,-0.0681152,0.943115
1470345210036116,-0.325195,0.00878906,-0.0679321,0.943176
1470345210052128,-0.325562,0.00848389,-0.0671997,0.943054
1470345210075148,-0.326111,0.0078125,-0.0669556,0.942932
1470345210096181,-0.325745,0.00726318,-0.0667725,0.943054
1470345210112216,-0.325378,0.0067749,-0.0661011,0.943237
1470345210135237,-0.325562,0.00634766,-0.0651855,0.943237
1470345210156258,-0.325562,0.00616455,-0.0646973,0.943237
1470345210172273,-0.324524,0.00592041,-0.0643921,0.943665
1470345210195296,-0.322998,0.00616455,-0.06427,0.944214
1470345210216382,-0.321838,0.00726318,-0.0639648,0.94458
1470345210232367,-0.321167,0.00848389,-0.0636597,0.944824
1470345210255388,-0.321899,0.0090332,-0.0635376,0.94458
1470345210276407,-0.323975,0.00872803,-0.0635376,0.943848
1470345210292428,-0.325623,0.00732422,-0.0637207,0.943298
1470345210315454,-0.326538,0.00646973,-0.0632935,0.943054
1470345210336496,-0.324402,0.00634766,-0.0636597,0.943726
1470345210352485,-0.323303,0.00720215,-0.0631714,0.944153
1470345210375506,-0.324524,0.00842285,-0.0623779,0.943787
1470345210396525,-0.325745,0.0107422,-0.0618896,0.943359
1470345210412042,-0.327332,0.0125122,-0.0616455,0.94281
1470345210435210,-0.329163,0.0133667,-0.0613403,0.942139
1470345210456255,-0.331177,0.0128784,-0.0609131,0.941467
1470345210472355,-0.332947,0.0111694,-0.0611572,0.940857
1470345210495288,-0.335632,0.00811768,-0.0612793,0.939941
1470345210517156,-0.338501,0.00482178,-0.060791,0.938965
1470345210532145,-0.340637,0.00408936,-0.06073,0.938232
1470345210555208,-0.340332,0.00634766,-0.0610962,0.938293
1470345210577229,-0.340637,0.00976563,-0.0611572,0.93811
1470345210592199,-0.342163,0.0128174,-0.0609741,0.937561
1470345210614972,-0.342468,0.0160522,-0.06073,0.937378
1470345210637992,-0.341675,0.0186157,-0.0609131,0.937622
1470345210652005,-0.342346,0.0205688,-0.0621338,0.937256
1470345210675029,-0.344421,0.0212402,-0.0630493,0.936462
1470345210697627,-0.345825,0.0211792,-0.0628662,0.935913
1470345210712640,-0.344727,0.0210571,-0.0623169,0.936401
1470345210734697,-0.343994,0.0212402,-0.0612793,0.936707
1470345210757686,-0.345886,0.0213013,-0.0602417,0.936096
1470345210771698,-0.347839,0.0211792,-0.0601807,0.935364
1470345210794801,-0.348694,0.0210571,-0.0603027,0.935059
1470345210817491,-0.349854,0.0206909,-0.0604858,0.934631
1470345210840511,-0.351257,0.0202026,-0.0606079,0.934082
1470345210855523,-0.352539,0.0199585,-0.06073,0.933594
1470345210877543,-0.35437,0.0198975,-0.0606689,0.932922
1470345210891582,-0.356384,0.0195313,-0.0603638,0.932129
1470345210914803,-0.357727,0.019104,-0.0600586,0.931702
1470345210937748,-0.358765,0.0185547,-0.0599976,0.931274
1470345210951776,-0.359985,0.0180054,-0.0600586,0.930847
1470345210974756,-0.360779,0.0177612,-0.0604248,0.930481
1470345210997776,-0.361328,0.0178223,-0.0614624,0.930237
1470345211018331,-0.36145,0.0182495,-0.0629272,0.930054
1470345211035348,-0.362366,0.0187378,-0.0643311,0.929626
1470345211063416,-0.36377,0.0194092,-0.0656738,0.928955
1470345211078467,-0.364685,0.0200806,-0.0670166,0.928467
1470345211095400,-0.364929,0.0206909,-0.0681763,0.928284
1470345211117555,-0.365051,0.0215454,-0.0690308,0.928162
1470345211138617,-0.365662,0.0222778,-0.0697632,0.927856
1470345211155579,-0.366211,0.0228271,-0.0703735,0.927551
1470345211177599,-0.36676,0.0232544,-0.0705566,0.927307
1470345211198669,-0.366577,0.0234985,-0.0706177,0.927368
1470345211214788,-0.36615,0.0238037,-0.0705566,0.927551
1470345211237769,-0.365601,0.0240479,-0.0705566,0.927795
1470345211258789,-0.365173,0.0241089,-0.0704346,0.927917
1470345211274800,-0.364502,0.0241699,-0.0703735,0.928223
1470345211297822,-0.363831,0.0241089,-0.0701904,0.928467
1470345211318849,-0.36322,0.0238647,-0.0701904,0.928711
1470345211334863,-0.362732,0.0235596,-0.0701294,0.928955
1470345211357889,-0.362671,0.0236206,-0.0697632,0.929016
1470345211378955,-0.363037,0.0241699,-0.0693359,0.928833
1470345211403022,-0.362244,0.0247192,-0.069397,0.929138
1470345211418045,-0.361816,0.0250854,-0.0693359,0.929321
1470345211440064,-0.362366,0.0255127,-0.069519,0.929077
1470345211455077,-0.36261,0.0258789,-0.0700073,0.928955
1470345211477099,-0.362671,0.0263062,-0.0698242,0.928894
1470345211500190,-0.361694,0.0264282,-0.0693359,0.929321
1470345211514815,-0.360046,0.0265503,-0.0690308,0.929993
1470345211537881,-0.358704,0.0269165,-0.0685425,0.930542
1470345211559855,-0.357483,0.0276489,-0.0674438,0.93103
1470345211574868,-0.356689,0.0276489,-0.0678101,0.931335
1470345211605446,-0.358643,0.0275879,-0.0675659,0.930603
1470345211620516,-0.359985,0.0270996,-0.067749,0.930054
1470345211634530,-0.361206,0.0265503,-0.0673828,0.929688
1470345211657550,-0.361694,0.0261841,-0.0674438,0.929504
1470345211680571,-0.361877,0.026001,-0.0675049,0.929382
1470345211694583,-0.362122,0.0258179,-0.067627,0.929321
1470345211717618,-0.362305,0.0258179,-0.067749,0.929199
1470345211739706,-0.362671,0.0263062,-0.067688,0.929077
1470345211754650,-0.363403,0.0267334,-0.067688,0.928772
1470345211777715,-0.364014,0.0269165,-0.0674438,0.928528
1470345211800255,-0.363159,0.0266113,-0.0670776,0.928894
1470345211814280,-0.362427,0.0263062,-0.0668945,0.929199
1470345211837660,-0.362549,0.0261841,-0.0671387,0.929138
1470345211860650,-0.362854,0.0258789,-0.0670776,0.929016
1470345211874663,-0.363708,0.0258789,-0.0668335,0.928711
1470345211897685,-0.363586,0.0256958,-0.0667114,0.928833
1470345211919767,-0.36322,0.0258789,-0.0670776,0.928894
1470345211941789,-0.363708,0.0263672,-0.067688,0.92865
1470345211957802,-0.364197,0.0270996,-0.0680542,0.928406
1470345211979821,-0.363647,0.0275879,-0.0680542,0.92865
1470345212001374,-0.36322,0.0279541,-0.0678711,0.928772
1470345212024004,-0.363525,0.0283203,-0.0680542,0.92865
1470345212039963,-0.363403,0.0286255,-0.0681152,0.928711
1470345212061025,-0.363037,0.0288696,-0.0678711,0.928833
1470345212077997,-0.362732,0.0290527,-0.0675049,0.928955
1470345212100568,-0.362305,0.0290527,-0.0671387,0.929199
1470345212121114,-0.361267,0.0289917,-0.0670166,0.929565
1470345212137125,-0.360901,0.0292358,-0.0669556,0.929688
1470345212160132,-0.361084,0.0296021,-0.0668945,0.929626
1470345212181204,-0.361145,0.0296631,-0.0667114,0.929626
1470345212198164,-0.360779,0.0296631,-0.0664673,0.92981
1470345212220291,-0.360046,0.0296021,-0.0662842,0.930054
1470345212241309,-0.359558,0.02948,-0.06604,0.930298
1470345212258294,-0.359924,0.0292358,-0.0656738,0.930176
1470345212280314,-0.361755,0.0288696,-0.0653076,0.929504
1470345212301842,-0.363281,0.0278931,-0.0650024,0.928955
1470345212317371,-0.362854,0.0268555,-0.0646973,0.929199
1470345212340392,-0.361206,0.0258179,-0.0640869,0.929932
1470345212361414,-0.359375,0.0247192,-0.0638428,0.930664
1470345212377426,-0.358154,0.0236816,-0.0637207,0.931152
1470345212400458,-0.357971,0.0230103,-0.0640259,0.931213
1470345212422588,-0.359131,0.0228271,-0.0643311,0.930786
1470345212437552,-0.35968,0.022644,-0.0646973,0.930542
1470345212460576,-0.359924,0.0223389,-0.0646973,0.93042
1470345212482591,-0.35968,0.0215454,-0.0648804,0.930542
1470345212496627,-0.359741,0.0204468,-0.0654297,0.930481
1470345212520240,-0.360046,0.0186768,-0.0664673,0.930359
1470345212542285,-0.361145,0.0168457,-0.067688,0.929871
1470345212557274,-0.362,0.0151367,-0.0690308,0.929504
1470345212580295,-0.362183,0.0137939,-0.0713501,0.92926
1470345212602845,-0.362793,0.0136108,-0.0752563,0.928711
1470345212616864,-0.362488,0.015686,-0.0805664,0.928345
1470345212639964,-0.361084,0.0185547,-0.0888672,0.928101
1470345212662903,-0.355957,0.0231934,-0.101379,0.92865
1470345212683978,-0.348206,0.0296631,-0.115906,0.929749
1470345212700442,-0.342102,0.0372925,-0.133972,0.929321
1470345212723029,-0.335999,0.0449219,-0.15332,0.928223
1470345212744104,-0.329712,0.0519409,-0.173096,0.926575
1470345212760063,-0.322388,0.0565796,-0.192627,0.925049
1470345212782084,-0.315308,0.0594482,-0.210876,0.92334
1470345212804132,-0.308716,0.0603638,-0.227295,0.921631
1470345212819812,-0.304443,0.0599976,-0.241272,0.919495
1470345212857885,-0.303284,0.0586548,-0.252197,0.917053
1470345212863881,-0.302368,0.0568848,-0.261536,0.914795
1470345212879867,-0.300415,0.0552368,-0.269165,0.913391
1470345212902937,-0.298279,0.0534668,-0.274902,0.912415
1470345212923503,-0.29718,0.0513306,-0.278259,0.911926
1470345212940467,-0.296265,0.0490112,-0.279968,0.911804
1470345212962487,-0.295654,0.0487061,-0.280457,0.911926
1470345212983506,-0.296509,0.0506592,-0.279663,0.911743
1470345213000520,-0.297729,0.0524902,-0.278198,0.911682
1470345213022553,-0.297241,0.0531006,-0.277344,0.912109
1470345213043637,-0.293335,0.0531006,-0.277283,0.91333
1470345213067593,-0.287048,0.0534668,-0.278259,0.915039
1470345213082606,-0.282837,0.0540161,-0.27887,0.916138
1470345213104160,-0.28186,0.0549927,-0.278625,0.916443
1470345213119743,-0.282043,0.0562134,-0.278625,0.916321
1470345213142766,-0.282288,0.0576782,-0.278503,0.916199
1470345213163828,-0.280945,0.0585938,-0.278748,0.916443
1470345213179787,-0.278748,0.0591431,-0.278625,0.917114
1470345213202827,-0.277588,0.0596313,-0.278748,0.917419
1470345213230854,-0.277649,0.0599976,-0.278748,0.917358
1470345213239857,-0.278748,0.0604248,-0.278381,0.917114
1470345213262879,-0.279907,0.0606079,-0.278076,0.91687
1470345213283929,-0.280151,0.0606689,-0.278015,0.916809
1470345213299912,-0.279541,0.0606689,-0.27832,0.916931
1470345213322544,-0.278931,0.060791,-0.278687,0.916992
1470345213345522,-0.278809,0.0611572,-0.27887,0.916931
1470345213359535,-0.279114,0.0617065,-0.27887,0.916748
1470345213382574,-0.279236,0.0623169,-0.278931,0.916687
1470345213406126,-0.278992,0.0627441,-0.279114,0.916687
1470345213420145,-0.277832,0.0629272,-0.279358,0.916931
1470345213450171,-0.276672,0.0630493,-0.279541,0.917236
1470345213465232,-0.275818,0.0632324,-0.279785,0.917419
1470345213479196,-0.275757,0.0636597,-0.279846,0.917358
1470345213502755,-0.276367,0.0640869,-0.279846,0.917175
1470345213525280,-0.276978,0.06427,-0.279846,0.916931
1470345213547304,-0.277161,0.0644531,-0.279968,0.91687
1470345213562312,-0.277161,0.0647583,-0.279846,0.91687
1470345213585337,-0.277283,0.0651245,-0.279907,0.916809
1470345213599376,-0.277649,0.0655518,-0.279907,0.916626
1470345213622959,-0.27771,0.065918,-0.279907,0.916626
1470345213644978,-0.27771,0.06604,-0.28009,0.916565
1470345213658993,-0.277466,0.0661621,-0.280273,0.916565
1470345213689019,-0.277588,0.0661621,-0.280457,0.916443
1470345213705541,-0.278687,0.06604,-0.280579,0.916077
1470345213726562,-0.281677,0.0656738,-0.280334,0.915283
1470345213742577,-0.289978,0.0648804,-0.279541,0.912964
1470345213765598,-0.302551,0.0626221,-0.278381,0.909424
1470345213786620,-0.315247,0.0599976,-0.275635,0.906128
1470345213803141,-0.321167,0.0562744,-0.272095,0.905334
1470345213831682,-0.319702,0.0511475,-0.264954,0.908264
1470345213846695,-0.317871,0.0458984,-0.254517,0.91217
1470345213862712,-0.320984,0.043335,-0.238464,0.915527
1470345213884730,-0.332581,0.0428467,-0.219788,0.916077
1470345213906795,-0.344482,0.0422363,-0.199158,0.916443
1470345213922824,-0.354675,0.0432129,-0.17926,0.916626
1470345213944844,-0.359741,0.0436401,-0.161865,0.917847
1470345213965907,-0.361206,0.0445557,-0.147827,0.919617
1470345213982878,-0.362122,0.0452881,-0.135742,0.921082
1470345214005430,-0.361938,0.0442505,-0.123962,0.922852
1470345214026628,-0.361755,0.0422974,-0.114014,0.924255
1470345214042623,-0.361938,0.0411987,-0.106873,0.92511
1470345214065641,-0.362061,0.0397949,-0.102051,0.925659
1470345214086659,-0.362488,0.0378418,-0.0986328,0.925964
1470345214102736,-0.361328,0.0354004,-0.0970459,0.926697
1470345214125024,-0.35907,0.0334473,-0.0966187,0.927673
1470345214146063,-0.357666,0.0320435,-0.0967407,0.928223
1470345214163011,-0.356934,0.0309448,-0.0973511,0.928528
1470345214185030,-0.356567,0.0297852,-0.0975342,0.92865
1470345214206647,-0.355896,0.0285645,-0.0976563,0.928955
1470345214223034,-0.354187,0.0275879,-0.0977173,0.929626
1470345214245081,-0.351563,0.0267944,-0.0973511,0.930664
1470345214266072,-0.348511,0.0264282,-0.0965576,0.931946
1470345214282088,-0.346802,0.0261841,-0.0970459,0.932495
1470345214305616,-0.349792,0.0263672,-0.0976563,0.931335
1470345214328140,-0.350525,0.0256958,-0.0994873,0.930908
1470345214343166,-0.348999,0.0251465,-0.101257,0.931274
1470345214365174,-0.345032,0.0259399,-0.104431,0.932373
1470345214387248,-0.339172,0.0283203,-0.110168,0.933777
1470345214402207,-0.334351,0.0318604,-0.11853,0.934387
1470345214425139,-0.329651,0.0366821,-0.129639,0.934448
1470345214448159,-0.323242,0.0421143,-0.143127,0.934448
1470345214462172,-0.316162,0.0463257,-0.158691,0.934204
1470345214485195,-0.310364,0.0492554,-0.176208,0.9328
1470345214507720,-0.304016,0.0523071,-0.194275,0.931152
1470345214522238,-0.298096,0.0551147,-0.211121,0.92926
1470345214545264,-0.296814,0.0560913,-0.226379,0.925964
1470345214567279,-0.297485,0.0551758,-0.240234,0.922363
1470345214589299,-0.297424,0.0534058,-0.251526,0.919434
1470345214612824,-0.297119,0.0521851,-0.259583,0.917358
1470345214627987,-0.298401,0.0524902,-0.264893,0.915466
1470345214649046,-0.300659,0.0531616,-0.267883,0.913757
1470345214665044,-0.300903,0.0527344,-0.269592,0.913208
1470345214688040,-0.299438,0.0519409,-0.270325,0.913513
1470345214709071,-0.297363,0.0518188,-0.270813,0.914063
1470345214724591,-0.295715,0.0524902,-0.271423,0.914368
1470345214730595,-0.295654,0.0529785,-0.272522,0.914063
1470345214752615,-0.296082,0.0533447,-0.273804,0.913513
1470345214770629,-0.296143,0.0548096,-0.274292,0.913269
1470345214790681,-0.294006,0.0559692,-0.274658,0.913757
1470345214813230,-0.292114,0.0569458,-0.274841,0.914246
