timestamp,roll,pitch,yaw
1470262627996216,0.331985,0.195572,2.01045
1470262628010729,0.331985,0.195572,2.01045
1470262628033749,0.332385,0.195671,2.01056
1470262628056270,0.332336,0.195478,2.01055
1470262628070782,0.332336,0.195478,2.01055
1470262628093804,0.332273,0.195604,2.01052
1470262628116323,0.332273,0.195604,2.01052
1470262628138844,0.332448,0.195546,2.0106
1470262628153858,0.332336,0.195478,2.01055
1470262628176377,0.332336,0.195478,2.01055
1470262628190390,0.332336,0.195478,2.01055
1470262628213912,0.332224,0.195411,2.01051
1470262628236431,0.332224,0.195411,2.01051
1470262628250944,0.332289,0.195309,2.0105
1470262628273965,0.332289,0.195309,2.0105
1470262628295985,0.332289,0.195309,2.0105
1470262628317505,0.332735,0.195554,2.01072
1470262628333518,0.332735,0.195554,2.01072
1470262628356539,0.332735,0.195554,2.01072
1470262628377558,0.332623,0.195487,2.01067
1470262628393573,0.332623,0.195487,2.01067
1470262628416593,0.332623,0.195487,2.01067
1470262628437612,0.332623,0.195487,2.01067
1470262628454127,0.332688,0.195385,2.01066
1470262628476647,0.332357,0.19543,2.0108
1470262628497668,0.332358,0.195454,2.01075
1470262628513680,0.33238,0.195453,2.01091
1470262628536200,0.332358,0.195454,2.01075
1470262628557219,0.332332,0.195284,2.01086
1470262628573735,0.332332,0.195284,2.01086
1470262628596255,0.332332,0.195284,2.01086
1470262628617273,0.332332,0.195284,2.01086
1470262628633788,0.332332,0.195284,2.01086
1470262628656310,0.332332,0.19526,2.0109
1470262628677327,0.332332,0.195284,2.01086
1470262628693842,0.332221,0.195217,2.01081
1470262628716362,0.332221,0.195217,2.01081
1470262628737381,0.332221,0.195217,2.01081
1470262628753896,0.332221,0.195217,2.01081
1470262628776417,0.332332,0.195284,2.01086
1470262628798936,0.332221,0.195217,2.01081
1470262628813950,0.332221,0.195217,2.01081
1470262628835970,0.332221,0.195217,2.01081
1470262628858991,0.332221,0.195217,2.01081
1470262628873503,0.332221,0.195217,2.01081
1470262628896524,0.332285,0.195115,2.0108
1470262628918544,0.332284,0.195091,2.01085
1470262628933057,0.332284,0.195091,2.01085
1470262628956578,0.332284,0.195091,2.01085
1470262628979098,0.332284,0.195091,2.01085
1470262628993111,0.332284,0.195091,2.01085
1470262629016132,0.332284,0.195091,2.01085
1470262629038652,0.332172,0.195024,2.01081
1470262629053165,0.332172,0.195024,2.01081
1470262629076186,0.332172,0.195024,2.01081
1470262629098706,0.332236,0.194922,2.0108
1470262629119725,0.332236,0.194922,2.0108
1470262629136239,0.332236,0.194922,2.0108
1470262629158760,0.332236,0.194922,2.0108
1470262629173273,0.332236,0.194922,2.0108
1470262629196293,0.332236,0.194922,2.0108
1470262629218813,0.332188,0.194753,2.01074
1470262629233326,0.332188,0.194753,2.01074
1470262629256347,0.332188,0.194753,2.01074
1470262629278868,0.332188,0.194753,2.01074
1470262629299886,0.332188,0.194753,2.01074
1470262629316401,0.332188,0.194753,2.01074
1470262629338921,0.332252,0.19465,2.01073
1470262629359940,0.332274,0.19465,2.01089
1470262629376455,0.332274,0.19465,2.01089
1470262629398976,0.332274,0.19465,2.01089
1470262629419994,0.332274,0.19465,2.01089
1470262629436010,0.332274,0.19465,2.01089
1470262629459029,0.332274,0.19465,2.01089
1470262629480048,0.332274,0.19465,2.01089
1470262629504070,0.332274,0.19465,2.01089
1470262629519083,0.332162,0.194582,2.01085
1470262629540102,0.332162,0.194582,2.01085
1470262629556617,0.332162,0.194582,2.01085
1470262629579137,0.332227,0.19448,2.01084
1470262629600155,0.332227,0.19448,2.01084
1470262629616171,0.332227,0.19448,2.01084
1470262629638691,0.332227,0.19448,2.01084
1470262629659709,0.332227,0.19448,2.01084
1470262629676224,0.332291,0.194378,2.01083
1470262629698744,0.332291,0.194378,2.01083
1470262629721265,0.332291,0.194378,2.01083
1470262629736278,0.332291,0.194378,2.01083
1470262629758799,0.332291,0.194378,2.01083
1470262629781819,0.332355,0.194276,2.01082
1470262629786823,0.332355,0.194276,2.01082
1470262629804339,0.332355,0.194276,2.01082
1470262629824357,0.332355,0.194276,2.01082
1470262629846878,0.332355,0.194276,2.01082
1470262629861891,0.332929,0.194293,2.01105
1470262629884410,0.332993,0.194191,2.01104
1470262629906931,0.332993,0.194191,2.01104
1470262629921944,0.332993,0.194191,2.01104
1470262629944466,0.332993,0.194191,2.01104
1470262629966986,0.333679,0.194275,2.01132
1470262629983500,0.334078,0.194351,2.01148
1470262630004519,0.33419,0.194418,2.01153
1470262630027039,0.33419,0.194418,2.01153
1470262630042180,0.334552,0.193834,2.01192
1470262630064130,0.335026,0.193318,2.01235
1470262630087098,0.335589,0.192869,2.01267
1470262630102114,0.336041,0.192377,2.01291
1470262630124142,0.336403,0.191793,2.0133
1470262630146675,0.336679,0.191336,2.0135
1470262630164663,0.337611,0.190569,2.01378
1470262630184222,0.339495,0.188961,2.01397
1470262630206742,0.341806,0.185732,2.01422
1470262630229262,0.343626,0.182314,2.0145
1470262630244289,0.344804,0.17896,2.01525
1470262630266755,0.345223,0.175383,2.01613
1470262630283269,0.346545,0.171579,2.01677
1470262630304330,0.348895,0.167298,2.01722
1470262630326810,0.351576,0.16295,2.01757
1470262630343323,0.353968,0.159331,2.01779
1470262630364342,0.355707,0.156046,2.01789
1470262630386895,0.357713,0.152796,2.0179
1470262630403377,0.359789,0.149711,2.01812
1470262630424442,0.361421,0.146604,2.01844
1470262630446916,0.362837,0.143806,2.01864
1470262630463430,0.364287,0.141228,2.01864
1470262630484449,0.365055,0.138789,2.01868
1470262630506970,0.365095,0.137102,2.01859
1470262630522995,0.364709,0.136056,2.0182
1470262630544504,0.364256,0.135627,2.0175
1470262630567024,0.364222,0.135025,2.01684
1470262630583039,0.364187,0.134664,2.01645
1470262630604593,0.364679,0.134075,2.01652
1470262630627077,0.366525,0.132986,2.01686
1470262630643092,0.370994,0.131244,2.01787
1470262630665612,0.379294,0.128587,2.02061
1470262630686633,0.389708,0.124922,2.02586
1470262630704677,0.40048,0.120065,2.03129
1470262630724210,0.410438,0.114173,2.03568
1470262630748187,0.418377,0.106755,2.03919
1470262630764702,0.425018,0.0986756,2.04321
1470262630787222,0.433057,0.0909535,2.04862
1470262630806739,0.443247,0.0833276,2.05462
1470262630824757,0.455305,0.0754231,2.06085
1470262630844272,0.468885,0.0670826,2.06804
1470262630866811,0.482586,0.0575928,2.07784
1470262630884809,0.495512,0.0462646,2.08965
1470262630904353,0.508043,0.0329596,2.10258
1470262630926894,0.522733,0.0182866,2.11549
1470262630944877,0.539316,0.00354881,2.12859
1470262630964429,0.556248,-0.0116751,2.14226
1470262630986944,0.572177,-0.0285346,2.15642
1470262631004416,0.586963,-0.0462103,2.16946
1470262631024435,0.603972,-0.0640307,2.18122
1470262631046961,0.623813,-0.0794071,2.19212
1470262631064472,0.644366,-0.0949488,2.20365
1470262631084488,0.662222,-0.112195,2.21444
1470262631107132,0.677011,-0.129254,2.22194
1470262631125027,0.691758,-0.144771,2.22983
1470262631144648,0.703753,-0.159108,2.2372
1470262631167066,0.712223,-0.17251,2.24359
1470262631184628,0.720924,-0.18383,2.24906
1470262631205597,0.730093,-0.19306,2.25395
1470262631226651,0.737908,-0.200372,2.25818
1470262631244633,0.742242,-0.206565,2.26145
1470262631265652,0.744223,-0.211559,2.26337
1470262631287187,0.746741,-0.215038,2.26499
1470262631304695,0.749318,-0.217186,2.26584
1470262631325705,0.749243,-0.217373,2.26585
1470262631346746,0.7472,-0.216622,2.26628
1470262631364741,0.745438,-0.215239,2.26651
1470262631385759,0.744568,-0.213472,2.26588
1470262631406795,0.74446,-0.211225,2.26525
1470262631424794,0.743576,-0.208973,2.26493
1470262631447819,0.742222,-0.207063,2.265
1470262631466833,0.74114,-0.205699,2.26482
1470262631484854,0.740315,-0.204452,2.26404
1470262631505866,0.739073,-0.203184,2.26349
1470262631526897,0.737027,-0.202178,2.26399
1470262631550912,0.735813,-0.202246,2.26394
1470262631565921,0.735054,-0.202285,2.26308
1470262631586941,0.732254,-0.201172,2.26185
1470262631604975,0.724399,-0.199673,2.26031
1470262631626975,0.713995,-0.19831,2.25879
1470262631646993,0.703648,-0.196598,2.25619
1470262631665011,0.69175,-0.192111,2.25219
1470262631695040,0.679586,-0.179316,2.24583
1470262631706549,0.671954,-0.154843,2.23826
1470262631724563,0.669515,-0.12162,2.23111
1470262631747137,0.667722,-0.0816984,2.22647
1470262631766603,0.662948,-0.0343432,2.2234
1470262631784617,0.652271,0.018658,2.21931
1470262631807146,0.63884,0.078244,2.21431
1470262631826698,0.63085,0.145141,2.20795
1470262631844731,0.631154,0.21823,2.20017
1470262631867193,0.63613,0.297694,2.18842
1470262631894216,0.63891,0.383466,2.17292
1470262631904725,0.637826,0.476539,2.15534
1470262631927299,0.635949,0.574632,2.13916
1470262631946790,0.638123,0.675151,2.12747
1470262631964780,0.649998,0.775633,2.12289
1470262631987313,0.671677,0.873443,2.12639
1470262632006858,0.705904,0.9673,2.14073
1470262632025834,0.752887,1.05565,2.16828
1470262632047368,0.814164,1.13877,2.21092
1470262632066903,0.900657,1.21546,2.28097
1470262632084901,1.02781,1.28329,2.3896
1470262632106906,1.22429,1.33915,2.56787
1470262632134432,1.52807,1.38095,2.8555
1470262632144945,1.91885,1.39475,-3.05489
1470262632174468,2.28147,1.38167,-2.70889
1470262632187997,2.5426,1.35065,-2.46182
1470262632204999,2.71742,1.30913,-2.29828
1470262632227521,2.82616,1.26063,-2.20006
1470262632248034,2.89464,1.20906,-2.14505
1470262632264550,2.94147,1.15706,-2.11654
1470262632286568,2.97554,1.10476,-2.10449
1470262632307586,3.00032,1.05398,-2.10424
1470262632330106,3.01688,1.00851,-2.11206
1470262632346122,3.0254,0.97353,-2.1225
1470262632367640,3.02834,0.956593,-2.131
1470262632390185,3.02727,0.958606,-2.13819
1470262632406176,3.02081,0.973686,-2.14735
1470262632427694,3.00636,0.994076,-2.16103
1470262632451235,2.98799,1.0146,-2.17625
1470262632466230,2.9692,1.03322,-2.19082
1470262632487748,2.95237,1.04929,-2.20309
1470262632503262,2.9388,1.06338,-2.21368
1470262632526785,2.92769,1.07504,-2.22319
1470262632548803,2.91906,1.08498,-2.23149
1470262632563316,2.91342,1.09255,-2.23664
1470262632586338,2.91038,1.09745,-2.24014
1470262632608857,2.9108,1.0994,-2.2411
1470262632623370,2.91502,1.0981,-2.23964
1470262632646391,2.91982,1.09336,-2.23786
1470262632668911,2.92522,1.08638,-2.2359
1470262632691431,2.93014,1.07746,-2.23322
1470262632706446,2.93376,1.06781,-2.23158
1470262632728965,2.93694,1.05811,-2.22947
1470262632743478,2.93907,1.04938,-2.228
1470262632772505,2.93966,1.04224,-2.22726
1470262632789018,2.93975,1.03681,-2.22606
1470262632810038,2.93923,1.0341,-2.22508
1470262632826552,2.93545,1.03434,-2.22581
1470262632849072,2.92693,1.03642,-2.22883
1470262632870091,2.91672,1.04097,-2.23228
1470262632886609,2.90711,1.04765,-2.23488
1470262632908628,2.89931,1.05561,-2.2366
1470262632930172,2.88994,1.0651,-2.2399
1470262632946660,2.87944,1.07731,-2.24175
1470262632968681,2.87185,1.09073,-2.24115
1470262632990200,2.86929,1.10386,-2.23805
1470262633006714,2.87089,1.11643,-2.23287
1470262633028787,2.87559,1.13012,-2.22397
1470262633050271,2.88604,1.14434,-2.2082
1470262633066270,2.90798,1.1583,-2.18311
1470262633088824,2.94043,1.17102,-2.14918
1470262633109836,2.981,1.18163,-2.10825
1470262633126322,3.0284,1.19072,-2.05763
1470262633148842,3.07794,1.19517,-1.99917
1470262633169860,3.12679,1.19567,-1.941
1470262633186378,-3.10561,1.19384,-1.88128
1470262633208896,-3.05303,1.1907,-1.81753
1470262633229931,-3.00367,1.18475,-1.75363
1470262633246429,-2.95817,1.17643,-1.69287
1470262633268950,-2.91143,1.16812,-1.63313
1470262633290024,-2.8619,1.16027,-1.57094
1470262633305488,-2.81295,1.15381,-1.50965
1470262633329003,-2.76696,1.14863,-1.45359
1470262633350080,-2.72489,1.1458,-1.40354
1470262633365537,-2.68389,1.14628,-1.35532
1470262633389057,-2.64469,1.1511,-1.30686
1470262633410076,-2.60632,1.1588,-1.25947
1470262633425638,-2.56702,1.16933,-1.21395
1470262633448611,-2.52615,1.18241,-1.1677
1470262633470206,-2.48095,1.19602,-1.11728
1470262633485644,-2.43571,1.21025,-1.06462
1470262633509165,-2.38964,1.22402,-1.01208
1470262633531686,-2.33924,1.23652,-0.957405
1470262633552708,-2.28705,1.24934,-0.901277
1470262633569220,-2.23565,1.26259,-0.842165
1470262633592240,-2.18756,1.27437,-0.784618
1470262633612758,-2.13395,1.28279,-0.725061
1470262633628773,-2.06692,1.2901,-0.653507
1470262633651294,-1.99128,1.29879,-0.570156
1470262633672312,-1.92266,1.30886,-0.490981
1470262633689327,-1.84693,1.31628,-0.409666
1470262633718857,-1.75631,1.3202,-0.317242
1470262633732871,-1.66133,1.32181,-0.222372
1470262633748882,-1.56804,1.32077,-0.131657
1470262633771401,-1.47495,1.31684,-0.0431075
1470262633792433,-1.38383,1.31042,0.0433097
1470262633808935,-1.30323,1.30252,0.120393
1470262633837482,-1.23384,1.29178,0.186495
1470262633852486,-1.17442,1.2784,0.243651
1470262633868989,-1.12721,1.26254,0.290491
1470262633891509,-1.09209,1.24492,0.326819
1470262633914028,-1.0674,1.22699,0.35377
1470262633929042,-1.05171,1.20834,0.372607
1470262633951563,-1.03696,1.18872,0.391819
1470262633972637,-1.01887,1.1696,0.415998
1470262633988596,-0.991334,1.1519,0.450103
1470262634011617,-0.950916,1.13517,0.49853
1470262634032708,-0.895891,1.12012,0.563813
1470262634049150,-0.827187,1.10469,0.640441
1470262634077676,-0.745717,1.08496,0.722035
1470262634092689,-0.654517,1.05769,0.804979
1470262634108703,-0.558731,1.0243,0.884156
1470262634131225,-0.461065,0.985221,0.957452
1470262634160274,-0.364014,0.940344,1.02491
1470262634175264,-0.270527,0.891358,1.08579
1470262634191278,-0.1853,0.838675,1.13871
1470262634212798,-0.110567,0.782701,1.18353
1470262634228312,-0.0459896,0.725756,1.22211
1470262634251346,0.0101996,0.669614,1.25645
1470262634274353,0.0671328,0.612098,1.28882
1470262634288366,0.112914,0.555978,1.31433
1470262634311386,0.147415,0.500942,1.34023
1470262634332406,0.181201,0.446547,1.36192
1470262634348419,0.219233,0.397094,1.37648
1470262634371440,0.2549,0.356768,1.38298
1470262634392492,0.27747,0.323221,1.38286
1470262634407973,0.293135,0.296287,1.38385
1470262634431494,0.305284,0.27158,1.38943
1470262634460019,0.309769,0.244912,1.39612
1470262634468026,0.308788,0.216531,1.40128
1470262634491548,0.298697,0.186988,1.40374
1470262634514068,0.286898,0.153327,1.40586
1470262634528080,0.28117,0.117505,1.4057
1470262634552103,0.282635,0.0822958,1.40367
1470262634574121,0.287274,0.0507306,1.40028
1470262634595162,0.291029,0.0224266,1.39739
1470262634611655,0.292212,-0.00521725,1.39547
1470262634634175,0.288539,-0.0310532,1.39324
1470262634648190,0.282001,-0.0538496,1.3907
1470262634671209,0.27817,-0.0730693,1.38783
1470262634693729,0.278611,-0.089622,1.38545
1470262634708242,0.281589,-0.103668,1.38424
1470262634731764,0.283516,-0.115001,1.38422
1470262634753783,0.283376,-0.124072,1.38562
1470262634774802,0.283385,-0.130841,1.3876
1470262634791317,0.282575,-0.134677,1.3895
1470262634813837,0.281035,-0.136834,1.39149
1470262634834881,0.277594,-0.138381,1.3938
1470262634851371,0.273845,-0.138772,1.39716
1470262634873891,0.2721,-0.138339,1.40086
1470262634888403,0.271917,-0.136779,1.40358
1470262634911426,0.274458,-0.135083,1.40613
1470262634933945,0.275457,-0.134369,1.40786
1470262634954963,0.275574,-0.134358,1.40983
1470262634971478,0.274357,-0.135063,1.41053
1470262634993998,0.272882,-0.136784,1.41016
1470262635015018,0.272294,-0.138191,1.4092
1470262635031532,0.270153,-0.138706,1.40791
1470262635054053,0.264816,-0.139385,1.40682
1470262635075095,0.257277,-0.139733,1.40517
1470262635091586,0.247597,-0.139683,1.40236
1470262635114109,0.234189,-0.139241,1.39789
1470262635134667,0.217041,-0.138897,1.39247
1470262635151640,0.198458,-0.139618,1.38664
1470262635173664,0.181544,-0.142146,1.38078
1470262635195179,0.169258,-0.146202,1.37282
1470262635211196,0.156418,-0.15187,1.36564
1470262635233738,0.145236,-0.159214,1.35701
1470262635255233,0.134348,-0.164985,1.34856
1470262635270747,0.126974,-0.163317,1.34372
1470262635293767,0.12443,-0.158409,1.34316
1470262635315289,0.113674,-0.152204,1.34208
1470262635330801,0.099089,-0.147943,1.33924
1470262635353874,0.0978648,-0.144985,1.33817
1470262635382851,0.0978532,-0.1395,1.33639
1470262635390855,0.0925538,-0.134143,1.33558
1470262635413877,0.088906,-0.129852,1.33551
1470262635436397,0.0902134,-0.125419,1.33529
1470262635450909,0.0933118,-0.120698,1.33521
1470262635473931,0.0942221,-0.117358,1.33502
1470262635502457,0.0943666,-0.114613,1.33441
1470262635517472,0.0952924,-0.112879,1.33299
1470262635533984,0.0958747,-0.111586,1.33079
1470262635556504,0.0953736,-0.110498,1.32832
1470262635570516,0.0947938,-0.109089,1.32631
1470262635594037,0.0947191,-0.107596,1.32585
1470262635616558,0.0931679,-0.106582,1.32635
1470262635631071,0.0908215,-0.104607,1.32656
1470262635654091,0.0898791,-0.10084,1.32549
1470262635676612,0.0901333,-0.0961475,1.32443
1470262635690624,0.0906517,-0.0912903,1.32447
1470262635714144,0.0915456,-0.0877398,1.32559
1470262635736665,0.0921022,-0.085215,1.32732
1470262635750709,0.0925957,-0.0833771,1.32858
1470262635774199,0.0940405,-0.0821245,1.32985
1470262635796219,0.094519,-0.0815034,1.33094
1470262635810732,0.094493,-0.0821289,1.33123
1470262635833753,0.0946402,-0.0831368,1.33075
1470262635856273,0.0940148,-0.0843373,1.33059
1470262635877308,0.0934838,-0.0858069,1.33089
1470262635893808,0.0930621,-0.0875387,1.3315
1470262635916327,0.0922311,-0.0887801,1.33178
1470262635938847,0.091593,-0.0892056,1.3318
1470262635953860,0.0911948,-0.089514,1.3318
1470262635976381,0.0906901,-0.0897612,1.33212
1470262635997900,0.0903528,-0.0907773,1.33258
1470262636021425,0.0901001,-0.0916827,1.33271
1470262636036435,0.0895728,-0.0923548,1.33271
1470262636057471,0.089001,-0.092691,1.33288
1470262636073969,0.0882491,-0.0930462,1.33304
1470262636103995,0.0874754,-0.0932295,1.33319
1470262636117508,0.0869035,-0.0935656,1.33337
1470262636134024,0.0862984,-0.0935437,1.33322
1470262636156544,0.086126,-0.0935639,1.33322
1470262636179097,0.086126,-0.0935639,1.33322
1470262636194078,0.0862446,-0.0938116,1.33322
1470262636216596,0.0866211,-0.0939289,1.33289
1470262636237671,0.086847,-0.0942383,1.33257
1470262636254130,0.0870055,-0.0946448,1.33227
1470262636276650,0.0877396,-0.0948998,1.3321
1470262636299171,0.0890206,-0.0952669,1.33194
1470262636313686,0.0901343,-0.0958316,1.33192
1470262636336704,0.0914775,-0.0962938,1.3322
1470262636359226,0.0921481,-0.0968315,1.33235
1470262636373737,0.0921303,-0.0974421,1.33233
1470262636396258,0.0920577,-0.0983286,1.33248
1470262636418778,0.0915104,-0.0990229,1.33296
1470262636433791,0.0907627,-0.100354,1.33358
1470262636456312,0.0898835,-0.102057,1.33437
1470262636478832,0.0887472,-0.104068,1.33563
1470262636493347,0.0886705,-0.108074,1.33764
1470262636516369,0.0911667,-0.114943,1.34009
1470262636538886,0.096146,-0.123814,1.34265
1470262636559936,0.107463,-0.145222,1.34618
1470262636576419,0.126504,-0.150476,1.34913
1470262636598940,0.1491,-0.160484,1.35042
1470262636619988,0.200765,-0.170991,1.35144
1470262636636475,0.273322,-0.184089,1.35368
1470262636658994,0.365331,-0.197495,1.35212
1470262636680047,0.43944,-0.208137,1.35352
1470262636697027,0.49643,-0.219751,1.35462
1470262636719049,0.547745,-0.231826,1.35476
1470262636740095,0.60405,-0.242432,1.35354
1470262636756583,0.667446,-0.252075,1.35167
1470262636779101,0.738592,-0.261425,1.34906
1470262636801621,0.816936,-0.269752,1.34498
1470262636816635,0.89206,-0.27647,1.33988
1470262636839155,0.953869,-0.282258,1.3347
1470262636860174,1.00354,-0.287244,1.33057
1470262636876189,1.04553,-0.292182,1.32682
1470262636898709,1.08805,-0.295967,1.32413
1470262636920228,1.12406,-0.299964,1.32172
1470262636936243,1.146,-0.303107,1.32169
1470262636958763,1.15726,-0.306321,1.32293
1470262636980389,1.16241,-0.308837,1.32528
1470262636996296,1.15368,-0.310688,1.32838
1470262637018817,1.13915,-0.312491,1.33159
1470262637039877,1.13198,-0.313566,1.3346
1470262637056384,1.13198,-0.31295,1.33716
1470262637078870,1.12719,-0.312036,1.33932
1470262637099932,1.1197,-0.312782,1.34079
1470262637116404,1.12512,-0.312991,1.34167
1470262637138925,1.13472,-0.312486,1.3419
1470262637159943,1.13764,-0.311894,1.34253
1470262637175958,1.13584,-0.312576,1.34289
1470262637198978,1.13596,-0.313204,1.3434
1470262637220042,1.138,-0.313349,1.34368
1470262637236513,1.1407,-0.312941,1.34353
1470262637259033,1.14042,-0.312551,1.34363
1470262637281555,1.13734,-0.312583,1.34365
1470262637296566,1.13541,-0.312458,1.34422
1470262637319088,1.13515,-0.312143,1.3445
1470262637341607,1.13467,-0.311547,1.34525
1470262637356620,1.13217,-0.311237,1.3461
1470262637379140,1.12854,-0.311051,1.34686
1470262637401660,1.12576,-0.310789,1.34758
1470262637422688,1.12233,-0.310263,1.3482
1470262637439794,1.11822,-0.309735,1.34858
1470262637461232,1.11317,-0.30929,1.34876
1470262637483284,1.10638,-0.308842,1.34911
1470262637484735,1.09585,-0.308297,1.34941
1470262637504280,1.08632,-0.30758,1.34977
1470262637526796,1.0773,-0.305716,1.34956
1470262637543288,1.05818,-0.303338,1.35031
1470262637564327,1.0222,-0.300735,1.35283
1470262637586854,0.981196,-0.298676,1.3552
1470262637604843,0.947522,-0.294872,1.35794
1470262637624386,0.917613,-0.288362,1.36046
1470262637646914,0.870245,-0.279606,1.36548
1470262637664902,0.812538,-0.275337,1.36946
1470262637687417,0.771565,-0.269255,1.37004
1470262637706934,0.741785,-0.260651,1.3683
1470262637724969,0.705636,-0.253587,1.3671
1470262637744563,0.664303,-0.248012,1.36399
1470262637767012,0.627255,-0.242078,1.35855
1470262637784505,0.592155,-0.235562,1.3523
1470262637804522,0.548773,-0.226904,1.34426
1470262637827042,0.490768,-0.217858,1.33456
1470262637845081,0.426508,-0.211024,1.32493
1470262637864576,0.367067,-0.207058,1.31636
1470262637887096,0.312701,-0.200246,1.3058
1470262637903111,0.247695,-0.195166,1.29538
1470262637924647,0.180121,-0.193672,1.28816
1470262637947156,0.128408,-0.192918,1.28138
1470262637963166,0.0893932,-0.191659,1.27341
1470262637984694,0.0479581,-0.191173,1.26611
1470262638006708,0.00730044,-0.19215,1.26176
1470262638024720,-0.0229528,-0.193654,1.25744
1470262638045738,-0.0478577,-0.19338,1.25184
1470262638066758,-0.0756627,-0.192576,1.24675
1470262638084823,-0.105993,-0.1908,1.24306
1470262638104294,-0.132345,-0.188683,1.24009
1470262638126847,-0.152141,-0.186619,1.2386
1470262638144872,-0.165421,-0.184813,1.23761
1470262638164376,-0.175459,-0.183168,1.23723
1470262638186914,-0.18292,-0.181828,1.23835
1470262638204924,-0.185767,-0.180963,1.2403
1470262638224433,-0.180732,-0.18098,1.24268
1470262638246937,-0.170107,-0.181819,1.24404
1470262638264939,-0.159921,-0.18238,1.24471
1470262638284478,-0.15665,-0.182725,1.24532
1470262638307049,-0.158502,-0.18275,1.2465
1470262638325037,-0.160521,-0.182497,1.24811
1470262638352045,-0.15798,-0.182484,1.24941
1470262638367044,-0.15214,-0.182549,1.24929
1470262638385043,-0.151062,-0.181522,1.24811
1470262638404560,-0.159749,-0.180014,1.24795
1470262638427081,-0.17014,-0.178795,1.2487
1470262638447600,-0.175846,-0.178372,1.2486
1470262638464615,-0.178033,-0.177911,1.24737
1470262638487134,-0.183932,-0.176499,1.24535
1470262638510657,-0.197561,-0.175333,1.24441
1470262638524769,-0.212654,-0.174061,1.24376
1470262638557256,-0.225871,-0.171914,1.24195
1470262638569208,-0.240444,-0.167353,1.23983
1470262638584736,-0.255368,-0.16186,1.23926
1470262638606773,-0.268885,-0.155706,1.23847
1470262638624759,-0.285042,-0.149116,1.2373
1470262638644276,-0.305519,-0.140861,1.23658
1470262638666796,-0.328991,-0.131095,1.23488
1470262638684813,-0.359442,-0.121051,1.23335
1470262638713338,-0.389879,-0.110855,1.2335
1470262638726870,-0.420655,-0.0955041,1.23189
1470262638744866,-0.447688,-0.0718112,1.22902
1470262638767389,-0.465388,-0.038573,1.22498
1470262638786906,-0.476998,0.00461944,1.22238
1470262638804964,-0.485285,0.054131,1.21988
1470262638824479,-0.490724,0.107841,1.21609
1470262638848459,-0.499582,0.166893,1.21195
1470262638864976,-0.511808,0.229672,1.2063
1470262638885993,-0.526586,0.296037,1.19977
1470262638910015,-0.541706,0.364374,1.19296
1470262638925047,-0.557323,0.434109,1.18482
1470262638946051,-0.575064,0.503772,1.17411
1470262638967066,-0.595078,0.572134,1.16103
1470262638992589,-0.614731,0.639702,1.14626
1470262639005601,-0.633154,0.707647,1.12995
1470262639027143,-0.651803,0.77667,1.11162
1470262639045232,-0.672936,0.845941,1.09007
1470262639073209,-0.696887,0.914728,1.0649
1470262639088177,-0.725483,0.983385,1.03524
1470262639104690,-0.761446,1.05286,0.999238
1470262639125709,-0.808522,1.12186,0.952497
1470262639154234,-0.860351,1.18888,0.900367
1470262639169265,-0.93359,1.2554,0.825892
1470262639187265,-1.05372,1.32101,0.701046
1470262639206783,-1.22966,1.3808,0.523075
1470262639229340,-1.56507,1.42855,0.183658
1470262639247318,-2.08687,1.44863,-0.345301
1470262639266836,-2.61228,1.43215,-0.880557
1470262639284851,-2.94112,1.38752,-1.2212
1470262639307872,-3.11937,1.33297,-1.41033
1470262639326889,3.05441,1.27645,-1.52746
1470262639344905,2.97675,1.21947,-1.61171
1470262639367428,2.91621,1.16238,-1.68015
1470262639389958,2.86529,1.10585,-1.73977
1470262639404959,2.82101,1.05046,-1.79225
1470262639434986,2.78302,0.997981,-1.8383
1470262639446997,2.75031,0.948417,-1.8813
1470262639465013,2.72234,0.899969,-1.92179
1470262639487533,2.69804,0.852491,-1.96041
1470262639514584,2.67667,0.806577,-1.99536
1470262639525067,2.65925,0.761291,-2.02741
1470262639547588,2.64435,0.716795,-2.05704
1470262639567105,2.6318,0.673491,-2.08403
1470262639597153,2.62237,0.631776,-2.10603
1470262639607642,2.61564,0.593555,-2.12166
1470262639629661,2.60998,0.563216,-2.13143
1470262639644676,2.60596,0.542222,-2.13759
1470262639667195,2.6005,0.530878,-2.14337
1470262639687215,2.59124,0.528018,-2.14855
1470262639709732,2.57985,0.531703,-2.15278
1470262639727251,2.5675,0.539443,-2.15629
1470262639746766,2.55474,0.54834,-2.16021
1470262639769287,2.54189,0.557629,-2.16522
1470262639787302,2.52905,0.56704,-2.17083
1470262639806846,2.51659,0.575996,-2.17728
1470262639829849,2.50311,0.583526,-2.18542
1470262639854887,2.48732,0.588551,-2.19602
1470262639868375,2.46892,0.592711,-2.20731
1470262639889394,2.45128,0.597419,-2.21805
1470262639907410,2.43679,0.601801,-2.22868
1470262639928429,2.42092,0.605064,-2.24057
1470262639949448,2.40132,0.607404,-2.25438
1470262639967465,2.38061,0.609033,-2.26898
1470262639988984,2.36105,0.61038,-2.28275
1470262640010029,2.3444,0.612306,-2.29536
1470262640026523,2.32884,0.614352,-2.30709
1470262640047587,2.31444,0.615453,-2.31838
1470262640070112,2.29949,0.616297,-2.32899
1470262640086571,2.28513,0.617504,-2.33893
1470262640107689,2.27206,0.6186,-2.34797
1470262640130136,2.26206,0.620051,-2.35581
1470262640146626,2.2541,0.621853,-2.36221
1470262640169146,2.24629,0.62343,-2.36804
1470262640190164,2.2396,0.624734,-2.37268
1470262640206208,2.23454,0.62557,-2.37628
1470262640229199,2.23172,0.626628,-2.37819
1470262640243217,2.23131,0.626851,-2.37856
1470262640266733,2.23099,0.627531,-2.37929
1470262640288757,2.23138,0.628649,-2.3791
1470262640303269,2.23211,0.62996,-2.37869
1470262640326786,2.23324,0.631168,-2.37826
1470262640349307,2.23432,0.631977,-2.37813
1470262640363319,2.23505,0.633411,-2.37807
1470262640386340,2.23595,0.634472,-2.3778
1470262640408860,2.23685,0.635305,-2.37785
1470262640423374,2.2379,0.636067,-2.37822
1470262640448396,2.23847,0.636937,-2.37817
1470262640468915,2.23904,0.638187,-2.37813
1470262640483428,2.24036,0.639148,-2.37785
1470262640506448,2.24159,0.639942,-2.37726
1470262640528970,2.243,0.641094,-2.37651
1470262640543482,2.24416,0.642242,-2.37552
1470262640566523,2.24608,0.643072,-2.37445
1470262640589022,2.24797,0.643787,-2.37333
1470262640603536,2.24936,0.645141,-2.37198
1470262640626556,2.25048,0.645908,-2.37069
1470262640649077,2.25214,0.646913,-2.36955
1470262640670095,2.25319,0.648072,-2.36842
1470262640686609,2.25353,0.649055,-2.3679
1470262640709130,2.25384,0.649812,-2.3677
1470262640730166,2.25379,0.650785,-2.36758
1470262640746664,2.25348,0.651793,-2.36778
1470262640768683,2.25318,0.653155,-2.36802
1470262640790315,2.25279,0.654289,-2.36815
1470262640806229,2.25225,0.655179,-2.36851
1470262640829238,2.25145,0.656417,-2.36866
1470262640850256,2.25098,0.658035,-2.36876
1470262640866272,2.25086,0.659462,-2.36861
1470262640888791,2.25085,0.661024,-2.3682
1470262640910314,2.24979,0.663155,-2.36837
1470262640926342,2.24809,0.665953,-2.3688
1470262640948845,2.24672,0.668993,-2.37017
1470262640970364,2.24391,0.672882,-2.37205
1470262640986380,2.23995,0.678541,-2.37446
1470262641016406,2.2354,0.685887,-2.37781
1470262641030477,2.23063,0.694489,-2.38192
1470262641052980,2.22363,0.704949,-2.38817
1470262641068953,2.21203,0.718828,-2.39797
1470262641089972,2.1994,0.73316,-2.40774
1470262641105986,2.18918,0.745079,-2.41725
1470262641129012,2.17974,0.755881,-2.42844
1470262641151527,2.16826,0.766551,-2.44095
1470262641166040,2.15381,0.776873,-2.45494
1470262641189084,2.13829,0.787237,-2.47023
1470262641211584,2.12338,0.797933,-2.48627
1470262641232647,2.10723,0.809605,-2.50433
1470262641249114,2.09052,0.822951,-2.5244
1470262641271635,2.07277,0.837883,-2.54533
1470262641292654,2.05434,0.85465,-2.56642
1470262641309170,2.03673,0.872726,-2.58832
1470262641331691,2.01743,0.891961,-2.61241
1470262641353722,1.9941,0.911967,-2.64052
1470262641369222,1.96571,0.932201,-2.67216
1470262641391242,1.93499,0.954394,-2.70632
1470262641412762,1.90531,0.977627,-2.73838
1470262641429276,1.87498,1.00379,-2.77415
1470262641451797,1.85052,1.02507,-2.8096
1470262641472820,1.7945,1.04462,-2.87025
1470262641488839,1.75912,1.06615,-2.91501
1470262641511350,1.70597,1.08677,-2.97454
1470262641532370,1.64437,1.105,-3.04057
1470262641548884,1.58008,1.12174,-3.11076
1470262641571404,1.5118,1.13606,3.09642
1470262641592950,1.43858,1.14745,3.01506
1470262641608938,1.35832,1.15625,2.92847
1470262641631959,1.27685,1.16301,2.84098
1470262641652987,1.19365,1.16725,2.75097
1470262641668992,1.10982,1.16875,2.65929
1470262641691513,1.02449,1.16617,2.56726
1470262641712533,0.941716,1.16004,2.4789
1470262641729046,0.862564,1.15192,2.39341
1470262641751569,0.785509,1.14114,2.30883
1470262641772585,0.712552,1.12761,2.22725
1470262641795106,0.644944,1.11107,2.15035
1470262641811620,0.58366,1.09279,2.0798
1470262641832639,0.527107,1.07174,2.01395
1470262641848653,0.473206,1.04701,1.95218
1470262641871674,0.424398,1.01936,1.89798
1470262641892726,0.379003,0.990408,1.84928
1470262641908222,0.335859,0.960552,1.80353
1470262641932229,0.298642,0.930346,1.76121
1470262641952747,0.267913,0.899347,1.722
1470262641968260,0.242295,0.868337,1.6866
1470262641991781,0.218965,0.837774,1.65537
1470262642012801,0.196441,0.807272,1.62696
1470262642028317,0.175277,0.7754,1.6001
1470262642051340,0.157637,0.741813,1.57453
1470262642074856,0.140836,0.707353,1.55041
1470262642088370,0.12536,0.672547,1.52812
1470262642111389,0.110518,0.638093,1.50702
1470262642133912,0.0968256,0.60415,1.48707
1470262642148424,0.0844944,0.571299,1.46837
1470262642171443,0.0738427,0.539329,1.45111
1470262642193964,0.0649194,0.508256,1.43512
1470262642214983,0.0578191,0.47801,1.42006
1470262642239004,0.0518376,0.448959,1.406
1470262642254017,0.0473013,0.420628,1.39311
1470262642275036,0.0430577,0.392478,1.38156
1470262642291551,0.0395275,0.364964,1.37177
1470262642314073,0.0360442,0.338813,1.3633
1470262642335118,0.0324361,0.313881,1.35559
1470262642351604,0.0294187,0.289638,1.34799
1470262642374625,0.0295193,0.265386,1.34118
1470262642395144,0.029691,0.241487,1.33531
1470262642411660,0.028025,0.217812,1.32996
1470262642441687,0.025916,0.195116,1.32524
1470262642455198,0.0240876,0.174478,1.32036
1470262642471212,0.0215891,0.155228,1.31558
1470262642494232,0.0191008,0.136734,1.31231
1470262642515253,0.0185284,0.119165,1.30984
1470262642531767,0.0191666,0.103331,1.30735
1470262642554287,0.020831,0.0886022,1.30492
1470262642575306,0.0231943,0.0750832,1.30355
1470262642591320,0.0261123,0.0624067,1.3035
1470262642614341,0.0287017,0.0508997,1.30347
1470262642636361,0.0305904,0.0407036,1.30338
1470262642651374,0.0322692,0.030822,1.30361
1470262642673894,0.0347601,0.0213894,1.30419
1470262642694913,0.0379069,0.0122204,1.30465
1470262642718935,0.0402167,0.00277716,1.30448
1470262642733949,0.0421844,-0.00671642,1.30446
1470262642754967,0.0443999,-0.0160928,1.30464
1470262642770981,0.0463427,-0.0260237,1.3045
1470262642794004,0.0484375,-0.0357614,1.30439
1470262642816522,0.0506383,-0.0449645,1.30431
1470262642831036,0.0522092,-0.0539885,1.30409
1470262642854056,0.0557267,-0.0630915,1.30339
1470262642875075,0.0580237,-0.0697923,1.30118
1470262642891090,0.0614562,-0.077617,1.30113
1470262642914110,0.0651723,-0.0838832,1.29968
1470262642935128,0.0672581,-0.0914987,1.2981
1470262642950643,0.068596,-0.0986995,1.29671
1470262642974164,0.0677111,-0.105789,1.29601
1470262642995183,0.0653358,-0.112205,1.29519
1470262643011197,0.0627231,-0.117769,1.29365
1470262643034218,0.0612721,-0.122582,1.29285
1470262643056737,0.0619982,-0.126501,1.29288
1470262643071751,0.0653262,-0.129198,1.29326
1470262643094271,0.0697066,-0.130889,1.29404
1470262643116791,0.0736075,-0.131175,1.29513
1470262643131807,0.0769909,-0.130118,1.29575
1470262643153825,0.0812254,-0.129383,1.29622
1470262643176346,0.0869612,-0.129497,1.29679
1470262643190858,0.0935332,-0.129524,1.29782
1470262643213879,0.0998441,-0.130912,1.29903
1470262643236400,0.105765,-0.130414,1.29965
1470262643250912,0.111168,-0.131392,1.30043
1470262643273933,0.116179,-0.131676,1.30187
1470262643296454,0.120304,-0.131899,1.30317
1470262643310967,0.124827,-0.135874,1.30506
1470262643333987,0.129791,-0.135216,1.30636
1470262643356508,0.135165,-0.13649,1.30703
1470262643371022,0.140185,-0.137608,1.30722
1470262643394041,0.144306,-0.139734,1.3076
1470262643416562,0.147781,-0.141068,1.30799
1470262643437579,0.150095,-0.142707,1.30808
1470262643454095,0.152649,-0.143835,1.30754
1470262643476615,0.155494,-0.144809,1.30656
1470262643490627,0.158553,-0.14511,1.30513
1470262643514149,0.160819,-0.145407,1.30353
1470262643536670,0.162944,-0.14548,1.30226
1470262643557688,0.165936,-0.14565,1.30146
1470262643574203,0.168916,-0.145818,1.30065
1470262643596722,0.170938,-0.146219,1.30015
1470262643617743,0.172124,-0.146305,1.29984
1470262643634256,0.173127,-0.145998,1.29984
1470262643656779,0.173127,-0.145998,1.29984
1470262643679297,0.1732,-0.145901,1.29984
1470262643694310,0.172497,-0.145391,1.30001
1470262643716330,0.171678,-0.144833,1.3005
1470262643737849,0.170798,-0.144557,1.30114
1470262643753865,0.169545,-0.144153,1.30178
1470262643776384,0.167409,-0.143688,1.30242
1470262643797403,0.164998,-0.14338,1.30354
1470262643813918,0.162359,-0.142957,1.30513
1470262643836438,0.15852,-0.141852,1.30737
1470262643857457,0.152849,-0.140711,1.30965
1470262643873972,0.148339,-0.140473,1.31204
1470262643896491,0.140881,-0.139805,1.31448
1470262643917542,0.13208,-0.138853,1.31698
1470262643933526,0.120166,-0.136307,1.3188
1470262643956547,0.11173,-0.133686,1.32088
1470262643986574,0.105081,-0.128178,1.32215
1470262643993579,0.0995904,-0.119159,1.32431
1470262644017100,0.0920569,-0.106165,1.32791
1470262644039120,0.0788894,-0.0893124,1.33178
1470262644053633,0.0707193,-0.0703268,1.33697
1470262644076653,0.0863226,-0.0486219,1.34014
1470262644105705,0.102968,-0.0194875,1.34913
1470262644120209,0.110854,0.0145228,1.36318
1470262644136710,0.107042,0.052071,1.37922
1470262644159227,0.101457,0.0936264,1.3973
1470262644180247,0.111049,0.138229,1.41934
1470262644196762,0.138717,0.185672,1.44639
1470262644218783,0.178657,0.23376,1.48074
1470262644240301,0.221752,0.280696,1.52357
1470262644256343,0.267732,0.324341,1.57454
1470262644278837,0.325234,0.362737,1.63432
1470262644300354,0.395047,0.394109,1.7028
1470262644316371,0.474399,0.41775,1.77946
1470262644338925,0.561524,0.431446,1.86332
1470262644359964,0.648965,0.435812,1.95082
1470262644376424,0.734105,0.43175,2.03961
1470262644399444,0.816694,0.419529,2.12872
1470262644419979,0.898598,0.398248,2.2166
1470262644436478,0.980005,0.369081,2.30362
1470262644458999,1.05733,0.333497,2.38998
1470262644480030,1.1272,0.29143,2.47409
1470262644496531,1.18827,0.243546,2.55427
1470262644519051,1.23844,0.191892,2.63224
1470262644540069,1.27991,0.137562,2.70919
1470262644556587,1.31514,0.0812004,2.78473
1470262644579106,1.34588,0.0231008,2.85873
1470262644600134,1.36935,-0.0360849,2.93055
1470262644616638,1.38499,-0.0952745,3.00022
1470262644639160,1.39187,-0.153438,3.06749
1470262644660196,1.38912,-0.209124,3.13082
1470262644675692,1.37945,-0.259928,-3.09333
1470262644699213,1.36412,-0.301283,-3.04006
1470262644720235,1.34435,-0.329075,-2.99047
1470262644735748,1.32097,-0.346601,-2.9451
1470262644759266,1.29524,-0.361957,-2.90384
1470262644780286,1.26996,-0.368197,-2.86799
1470262644795800,1.23923,-0.367358,-2.83831
1470262644818820,1.20449,-0.365095,-2.81533
1470262644840412,1.17294,-0.36225,-2.79497
1470262644855854,1.14655,-0.357862,-2.77596
1470262644878888,1.12495,-0.354378,-2.76146
1470262644900394,1.10894,-0.352514,-2.75057
1470262644915907,1.09639,-0.35295,-2.74119
1470262644938930,1.08625,-0.354595,-2.7334
1470262644961448,1.07632,-0.357465,-2.72616
1470262644982498,1.06554,-0.361934,-2.72023
1470262644998982,1.05568,-0.366573,-2.71701
1470262645021502,1.04755,-0.369839,-2.71586
1470262645042521,1.04339,-0.372395,-2.71611
1470262645066543,1.04363,-0.37311,-2.71862
1470262645081557,1.04544,-0.370672,-2.72385
1470262645096069,1.04734,-0.366459,-2.73229
1470262645119089,1.04886,-0.361007,-2.7445
1470262645141610,1.05041,-0.353744,-2.75924
1470262645147116,1.05337,-0.344189,-2.77743
1470262645163629,1.05831,-0.332473,-2.79934
1470262645184648,1.06332,-0.318216,-2.82556
1470262645207168,1.06728,-0.301103,-2.85545
1470262645223183,1.07334,-0.276094,-2.88877
1470262645244702,1.08251,-0.245568,-2.9259
1470262645266724,1.09291,-0.207281,-2.96765
1470262645284739,1.10192,-0.160985,-3.01493
1470262645304256,1.10861,-0.104755,-3.06685
1470262645326792,1.11408,-0.037541,-3.12427
1470262645343291,1.11836,0.0430011,3.09475
1470262645364323,1.1195,0.137174,3.02358
1470262645386845,1.11485,0.241485,2.94407
1470262645412353,1.10151,0.349928,2.85465
1470262645424364,1.07449,0.457467,2.75265
1470262645446918,1.03015,0.560522,2.63661
1470262645464903,0.963043,0.654618,2.50576
1470262645484430,0.873998,0.734668,2.35841
1470262645506939,0.764973,0.794718,2.19415
1470262645529460,0.641094,0.834552,2.02064
1470262645544505,0.515165,0.856884,1.84738
1470262645568493,0.402979,0.863737,1.67998
1470262645589545,0.310269,0.855693,1.524
1470262645604558,0.232351,0.834628,1.38417
1470262645627079,0.164289,0.806715,1.26347
1470262645645097,0.100608,0.775095,1.15739
1470262645664579,0.0446017,0.741539,1.06492
1470262645687100,-0.00811006,0.706539,0.982004
1470262645705115,-0.0558697,0.671053,0.905525
1470262645724633,-0.0969561,0.635265,0.837151
1470262645747154,-0.134201,0.599666,0.778356
1470262645769673,-0.173742,0.565118,0.727064
1470262645784687,-0.213177,0.530456,0.682552
1470262645806708,-0.251372,0.494864,0.643526
1470262645824724,-0.284063,0.458145,0.609801
1470262645844241,-0.317875,0.420738,0.579386
1470262645868263,-0.347761,0.383181,0.556096
1470262645884777,-0.370522,0.345064,0.54135
1470262645904296,-0.382921,0.306738,0.536338
1470262645926814,-0.385996,0.270685,0.539177
1470262645949335,-0.383495,0.238659,0.547123
1470262645964351,-0.379767,0.212373,0.556569
1470262645988372,-0.379184,0.194086,0.565331
1470262646012392,-0.380517,0.1854,0.576415
1470262646027406,-0.383277,0.18666,0.591695
1470262646049927,-0.392024,0.196474,0.609354
1470262646072448,-0.407609,0.21303,0.628552
1470262646084472,-0.427295,0.23721,0.650503
1470262646106977,-0.438497,0.273978,0.68179
1470262646129497,-0.454502,0.32445,0.720769
1470262646144512,-0.477818,0.39545,0.769362
1470262646167031,-0.477043,0.497807,0.842491
1470262646189551,-0.422979,0.619502,0.962956
1470262646207567,-0.292494,0.73264,1.15793
1470262646227087,-0.0606191,0.824578,1.45005
1470262646249605,0.250513,0.856801,1.82542
1470262646264618,0.544023,0.804033,2.18904
1470262646288640,0.732394,0.693958,2.47388
1470262646309658,0.823617,0.560042,2.68885
1470262646324672,0.862077,0.438578,2.85258
1470262646347192,0.871495,0.352028,2.96635
1470262646364708,0.880825,0.285995,3.05533
1470262646384726,0.878885,0.227028,3.12876
1470262646407246,0.851902,0.177515,-3.08672
1470262646425313,0.817778,0.141304,-3.02657
1470262646445781,0.799275,0.118418,-2.97483
1470262646467301,0.805782,0.107511,-2.92989
1470262646484816,0.814867,0.0925423,-2.89063
1470262646505835,0.814162,0.0796189,-2.85667
1470262646534360,0.808393,0.0657464,-2.82854
1470262646546373,0.804445,0.0545809,-2.80677
1470262646565889,0.806082,0.047491,-2.79188
1470262646586908,0.808843,0.0384997,-2.78231
1470262646609427,0.806113,0.0237301,-2.77601
1470262646625943,0.796628,0.00676893,-2.77392
1470262646649964,0.784195,-0.00898458,-2.77512
1470262646669482,0.773248,-0.0217387,-2.77758
1470262646686002,0.767145,-0.0328845,-2.78122
1470262646707034,0.763538,-0.0426707,-2.7844
1470262646729618,0.762245,-0.0494803,-2.78675
1470262646746075,0.764398,-0.0536489,-2.789
1470262646767095,0.771288,-0.0560399,-2.79056
1470262646789614,0.780515,-0.0592406,-2.79511
1470262646807631,0.788691,-0.0647083,-2.81057
1470262646827148,0.778574,-0.078568,-2.85153
1470262646844664,0.760613,-0.0657024,-2.89853
1470262646867684,0.765224,-0.0410861,-2.93569
1470262646887203,0.791657,-0.00575097,-2.98017
1470262646909725,0.826454,0.0558833,-3.04629
1470262646927240,0.857897,0.138084,-3.13419
1470262646954799,0.879478,0.24198,3.03904
1470262646965273,0.877819,0.367253,2.90074
1470262646987849,0.854616,0.507367,2.74143
1470262647008343,0.827413,0.653391,2.5665
1470262647036841,0.80349,0.795847,2.37356
1470262647052350,0.762949,0.917203,2.15961
1470262647068378,0.645234,1.00127,1.90301
1470262647089398,0.484962,1.04807,1.62166
1470262647113405,0.299857,1.05321,1.33794
1470262647126918,0.154298,1.03802,1.11167
1470262647149438,0.035876,1.01279,0.932286
1470262647167457,-0.0683945,0.984415,0.787706
1470262647186986,-0.157964,0.939046,0.67834
1470262647209492,-0.231557,0.896806,0.590323
1470262647227510,-0.28175,0.856277,0.529196
1470262647247026,-0.331776,0.817399,0.476208
1470262647269546,-0.363288,0.783356,0.444085
1470262647287562,-0.385244,0.747121,0.429668
1470262647307079,-0.39927,0.710123,0.425754
1470262647329601,-0.40752,0.674978,0.426654
1470262647347616,-0.410548,0.642027,0.43541
1470262647370136,-0.407201,0.613457,0.451431
1470262647397160,-0.400001,0.579858,0.471002
1470262647407170,-0.391793,0.555284,0.48965
1470262647428188,-0.376385,0.526681,0.510808
1470262647449707,-0.365855,0.504883,0.531345
1470262647467224,-0.350904,0.486915,0.555927
1470262647488742,-0.339468,0.473628,0.578389
1470262647509261,-0.33088,0.465117,0.597306
1470262647527778,-0.317236,0.461218,0.617745
1470262647550799,-0.301443,0.462666,0.640028
1470262647569819,-0.288998,0.468046,0.66189
1470262647593336,-0.276726,0.474875,0.685342
1470262647608349,-0.263123,0.481538,0.71119
1470262647629371,-0.247868,0.489657,0.737304
1470262647647387,-0.231176,0.500264,0.76251
1470262647675412,-0.212198,0.511977,0.788433
1470262647690424,-0.192449,0.523003,0.815165
1470262647714445,-0.176713,0.534022,0.840728
1470262647728959,-0.16548,0.544039,0.864537
1470262647750477,-0.153817,0.552817,0.889638
1470262647766492,-0.139085,0.560241,0.917528
1470262647796518,-0.123395,0.567417,0.947375
1470262647813033,-0.110895,0.576024,0.97533
1470262647826545,-0.0992945,0.586117,1.00152
1470262647855072,-0.0824623,0.595593,1.0294
1470262647870087,-0.060318,0.604845,1.05987
1470262647886599,-0.0385091,0.614851,1.0913
1470262647916629,-0.0200529,0.625497,1.12258
1470262647930641,-0.0012242,0.636193,1.15496
1470262647946654,0.0221727,0.645605,1.19035
1470262647969175,0.0488808,0.65456,1.22794
1470262647990217,0.0725343,0.66289,1.26446
1470262648006707,0.093047,0.66836,1.30149
1470262648029227,0.114277,0.670056,1.34167
1470262648050281,0.138184,0.66942,1.38608
1470262648066764,0.165543,0.666519,1.43415
1470262648089282,0.197469,0.657075,1.48615
1470262648110300,0.23534,0.638854,1.54276
1470262648126816,0.279702,0.611553,1.6029
1470262648149336,0.326874,0.578735,1.66273
1470262648170354,0.37379,0.545244,1.71533
1470262648192875,0.408459,0.513985,1.75613
1470262648209390,0.433458,0.483745,1.79193
1470262648230408,0.456248,0.45015,1.82471
1470262648246422,0.471819,0.413238,1.85479
1470262648269443,0.472324,0.377696,1.88207
1470262648290462,0.461628,0.346012,1.90417
1470262648313983,0.449778,0.318176,1.92253
1470262648328996,0.452155,0.289995,1.94342
1470262648350015,0.468754,0.259411,1.96892
1470262648367031,0.490804,0.227197,1.99726
1470262648389051,0.519157,0.192363,2.02816
1470262648410070,0.552836,0.154952,2.06059
1470262648426585,0.598581,0.120757,2.09437
1470262648449105,0.653979,0.0954524,2.12209
1470262648470124,0.717696,0.0946862,2.13623
1470262648486638,0.773986,0.126366,2.13654
1470262648509159,0.837118,0.191479,2.12813
1470262648530178,0.886997,0.283963,2.11149
1470262648547194,0.90014,0.401921,2.08726
1470262648569213,0.890938,0.536939,2.05936
1470262648590231,0.881819,0.675902,2.03095
1470262648605745,0.871492,0.807751,2.00325
1470262648629268,0.863922,0.929146,1.97932
1470262648650303,0.86685,1.03423,1.96195
1470262648665800,0.887215,1.10905,1.95858
1470262648689320,0.909492,1.15908,1.95968
1470262648711840,0.929215,1.19148,1.96501
1470262648725855,0.954683,1.20809,1.97843
1470262648749374,0.972158,1.20082,1.9872
1470262648771894,0.9987,1.19459,2.00434
1470262648785908,1.02648,1.17568,2.02352
1470262648816435,1.042,1.15744,2.03675
1470262648832449,1.05093,1.13762,2.05212
1470262648845963,1.04649,1.11336,2.06295
1470262648868982,1.02901,1.07158,2.06364
1470262648891502,0.99899,1.01291,2.05628
1470262648906015,0.964174,0.933115,2.05197
1470262648929035,0.930198,0.833434,2.05971
1470262648952056,0.912188,0.709475,2.08188
1470262648972607,0.902627,0.576191,2.11591
1470262648989089,0.878684,0.452953,2.15144
1470262649011609,0.844798,0.351129,2.18729
1470262649032628,0.821404,0.270692,2.22295
1470262649049145,0.801754,0.212401,2.25891
1470262649071665,0.770988,0.176958,2.28942
1470262649100191,0.734937,0.158647,2.31063
1470262649109197,0.701441,0.151665,2.32141
1470262649131718,0.664416,0.148268,2.32726
1470262649152736,0.619405,0.141156,2.33492
1470262649169251,0.5757,0.1338,2.34075
1470262649191771,0.545133,0.129509,2.34052
1470262649212790,0.535779,0.129233,2.33603
1470262649229305,0.545715,0.127437,2.33289
1470262649251825,0.557074,0.125076,2.33196
1470262649272844,0.558326,0.121954,2.33055
1470262649289358,0.550126,0.117531,2.32765
1470262649311879,0.537614,0.112342,2.32229
1470262649332897,0.525376,0.107119,2.31345
1470262649349413,0.51651,0.103152,2.30274
1470262649371433,0.510927,0.101614,2.29235
1470262649392952,0.504017,0.101137,2.2821
1470262649408967,0.494437,0.100907,2.27005
1470262649431487,0.484297,0.10084,2.25497
1470262649452505,0.476425,0.100203,2.23881
1470262649469021,0.469505,0.0994044,2.22186
1470262649491541,0.46416,0.098913,2.20258
1470262649512559,0.458456,0.0983751,2.18124
1470262649528575,0.452285,0.0963835,2.159
1470262649551595,0.448072,0.0931206,2.13752
1470262649572613,0.447169,0.0894188,2.11677
1470262649588627,0.450605,0.0858098,2.09743
1470262649619155,0.458004,0.0803185,2.07991
1470262649632668,0.466629,0.0724935,2.06604
1470262649656689,0.477423,0.0614512,2.05848
1470262649671702,0.480142,0.048344,2.05225
1470262649694223,0.477443,0.0342778,2.04632
1470262649715241,0.472977,0.0214922,2.04009
1470262649731756,0.472529,0.0129993,2.03515
1470262649754276,0.476088,0.0124968,2.03293
1470262649775296,0.475432,0.0163996,2.03103
1470262649791810,0.466968,0.0198117,2.02995
1470262649814331,0.453689,0.0221329,2.02878
1470262649828343,0.444879,0.0232936,2.02739
1470262649851865,0.445384,0.0240453,2.0268
1470262649874384,0.452786,0.0248931,2.0272
1470262649895403,0.462047,0.0258714,2.02882
1470262649911417,0.46588,0.0261199,2.03092
1470262649933938,0.463115,0.0258511,2.03403
1470262649954956,0.457617,0.0254566,2.03743
1470262649978978,0.455232,0.0261025,2.04024
1470262649993992,0.458814,0.0274558,2.04132
1470262650008505,0.461446,0.0283668,2.04183
1470262650031525,0.460534,0.0284081,2.04176
1470262650054045,0.457665,0.0275992,2.04142
1470262650068558,0.454879,0.0267743,2.0408
1470262650091579,0.453481,0.0261438,2.03984
1470262650114100,0.45275,0.025421,2.03848
1470262650128612,0.451192,0.0255368,2.03644
1470262650151636,0.449044,0.0264852,2.03489
1470262650174154,0.44786,0.0272073,2.03369
1470262650195172,0.447608,0.0270627,2.03304
1470262650211687,0.448572,0.0263648,2.0323
1470262650234208,0.450556,0.025633,2.03191
1470262650255226,0.453779,0.0247786,2.03154
1470262650271742,0.456985,0.022993,2.03135
1470262650294261,0.459031,0.0207553,2.03184
1470262650315280,0.459296,0.0190679,2.03221
1470262650331795,0.458619,0.0177823,2.03212
1470262650353815,0.458599,0.0166985,2.03166
1470262650375335,0.460647,0.0161575,2.03127
1470262650391849,0.463139,0.0153434,2.03065
1470262650414369,0.465249,0.0149341,2.0298
1470262650435387,0.466736,0.0151509,2.02912
1470262650451403,0.467322,0.015621,2.02807
1470262650473923,0.468743,0.0161961,2.02691
1470262650495442,0.470449,0.0168372,2.02562
1470262650511456,0.472309,0.0177074,2.02442
1470262650533977,0.473543,0.0190811,2.02317
1470262650554995,0.474065,0.0204377,2.02202
1470262650571510,0.474792,0.0211158,2.02111
1470262650594031,0.475658,0.0210233,2.0207
1470262650616550,0.475839,0.0209863,2.02073
1470262650631564,0.475827,0.0209613,2.02077
1470262650654085,0.475827,0.0209613,2.02077
1470262650676605,0.475834,0.0202053,2.02084
1470262650699125,0.475649,0.0192691,2.02119
1470262650714138,0.475113,0.0184321,2.02143
1470262650736659,0.474655,0.017648,2.0216
1470262650751673,0.474543,0.0175847,2.02156
1470262650774193,0.475114,0.0172092,2.02159
1470262650796712,0.475711,0.0167621,2.02129
1470262650811225,0.476101,0.0164238,2.02129
1470262650834246,0.475989,0.0163606,2.02125
1470262650856767,0.476268,0.0156452,2.02123
1470262650871280,0.476807,0.0147529,2.02143
1470262650893799,0.478077,0.0138004,2.02192
1470262650916820,0.478669,0.0127179,2.02239
1470262650930833,0.478993,0.0116591,2.02271
1470262650954354,0.478864,0.0105972,2.02309
1470262650976374,0.478587,0.0097759,2.02329
1470262650990887,0.478587,0.0097759,2.02329
1470262651014408,0.478567,0.00959754,2.02339
1470262651042933,0.478455,0.0095345,2.02336
1470262651050941,0.478525,0.00943404,2.02335
1470262651073962,0.478866,0.00937406,2.02325
1470262651096482,0.479156,0.00919038,2.0229
1470262651118001,0.479156,0.00919038,2.0229
1470262651134015,0.478822,0.00880792,2.02305
1470262651156537,0.478892,0.00870747,2.02303
1470262651177555,0.479289,0.00852229,2.02297
1470262651194070,0.479865,0.00823504,2.02317
1470262651216591,0.480251,0.00783152,2.02341
1470262651239111,0.481818,0.00770717,2.02427
1470262651254123,0.479228,-0.000302374,2.02377
1470262651276643,0.408301,-0.0540573,2.00617
1470262651297676,0.273597,-0.0686438,2.02538
1470262651306172,0.239488,-0.0172003,2.03939
1470262651329193,0.275538,0.0404275,2.07996
1470262651350209,0.372216,0.128918,2.10622
1470262651366223,0.487413,0.241457,2.12246
1470262651389245,0.57618,0.33719,2.15263
1470262651425277,0.645266,0.403732,2.18931
1470262651434286,0.69395,0.435566,2.22545
1470262651456805,0.730162,0.444008,2.25311
1470262651477823,0.758571,0.434421,2.27137
1470262651493338,0.775434,0.415384,2.28276
1470262651516859,0.783488,0.391113,2.29274
1470262651537891,0.789777,0.36519,2.30404
1470262651553392,0.79826,0.342627,2.31566
1470262651576413,0.805423,0.326256,2.32589
1470262651598933,0.806766,0.314989,2.33359
1470262651613446,0.802494,0.306243,2.33803
1470262651636467,0.793109,0.299076,2.34077
1470262651658986,0.77879,0.293715,2.3429
1470262651681507,0.761252,0.289405,2.34454
1470262651696521,0.744232,0.284043,2.3444
1470262651719040,0.730073,0.277696,2.34324
1470262651733554,0.719016,0.270584,2.34227
1470262651756574,0.710945,0.262707,2.34182
1470262651779095,0.703062,0.254098,2.34101
1470262651800113,0.692825,0.243218,2.33904
1470262651816628,0.677926,0.229757,2.33679
1470262651839149,0.660045,0.214216,2.3364
1470262651860168,0.642492,0.197117,2.33746
1470262651876682,0.630088,0.175199,2.34016
1470262651899203,0.605091,0.129466,2.33846
1470262651920223,0.540022,0.0563678,2.33275
1470262651936736,0.537643,0.0685152,2.37773
1470262651959258,0.63091,0.109076,2.44435
1470262651980291,0.800914,0.197188,2.51816
1470262651996790,0.977851,0.345575,2.57665
1470262652019310,1.13288,0.50414,2.63585
1470262652040328,1.25732,0.642053,2.69645
1470262652056843,1.35816,0.747735,2.74953
1470262652079363,1.43648,0.82148,2.79321
1470262652100382,1.51608,0.869849,2.8237
1470262652116397,1.57308,0.900147,2.8384
1470262652138918,1.61091,0.919688,2.85203
1470262652160436,1.6262,0.925127,2.86158
1470262652176451,1.629,0.918724,2.86809
1470262652198973,1.62719,0.903569,2.87005
1470262652220490,1.61545,0.879888,2.86687
1470262652236506,1.59642,0.859352,2.86452
1470262652259026,1.58631,0.830087,2.86859
1470262652281546,1.55861,0.80219,2.86614
1470262652296060,1.53755,0.770157,2.87172
1470262652319080,1.51228,0.736983,2.87803
1470262652340099,1.48374,0.701182,2.88576
1470262652356113,1.4502,0.665359,2.89481
1470262652379134,1.41237,0.630566,2.90474
1470262652400653,1.37302,0.597102,2.91281
1470262652424175,1.33689,0.565458,2.91826
1470262652439188,1.29901,0.534202,2.92308
1470262652460207,1.25829,0.502439,2.92827
1470262652476220,1.21733,0.469987,2.93257
1470262652499243,1.18092,0.439926,2.9355
1470262652521761,1.14701,0.413984,2.93516
1470262652536274,1.11231,0.391244,2.93078
1470262652559295,1.07521,0.3674,2.92267
1470262652589323,1.03608,0.346267,2.91166
1470262652595829,0.996439,0.328301,2.90003
1470262652619349,0.960412,0.316392,2.88425
1470262652641869,0.92997,0.307282,2.86428
1470262652655882,0.902597,0.297071,2.84046
1470262652678903,0.874925,0.286544,2.8125
1470262652701422,0.84558,0.278433,2.78107
1470262652722942,0.814481,0.271765,2.74702
1470262652738956,0.779427,0.263734,2.70998
1470262652761477,0.7423,0.255456,2.67028
1470262652782996,0.70524,0.250178,2.62853
1470262652800011,0.670668,0.245908,2.5863
1470262652822031,0.638352,0.240159,2.54572
1470262652843050,0.607285,0.234148,2.50552
1470262652859064,0.579358,0.230279,2.46557
1470262652864569,0.55666,0.22468,2.42912
1470262652887090,0.536146,0.216373,2.39767
1470262652909609,0.515432,0.209223,2.36876
1470262652924622,0.497581,0.20543,2.34079
1470262652947143,0.485388,0.202881,2.31521
1470262652969663,0.477691,0.19977,2.2922
1470262652986178,0.468094,0.196947,2.27002
1470262653007196,0.455127,0.194458,2.24765
1470262653032719,0.439997,0.192913,2.22684
1470262653044730,0.424805,0.192597,2.20803
1470262653067251,0.409135,0.193351,2.18999
1470262653089771,0.3902,0.192182,2.1749
1470262653104785,0.339603,0.171017,2.16585
1470262653127305,0.258678,0.17371,2.15945
1470262653149325,0.261047,0.229525,2.20457
1470262653164839,0.318608,0.302144,2.29078
1470262653186858,0.379381,0.397182,2.40202
1470262653209378,0.455276,0.49104,2.52542
1470262653224892,0.556706,0.573417,2.65749
1470262653246921,0.662098,0.642421,2.79125
1470262653269440,0.738287,0.687041,2.89805
1470262653284454,0.764944,0.704867,2.95049
1470262653306986,0.749825,0.694548,2.9464
1470262653329495,0.725196,0.66753,2.91259
1470262653344541,0.688766,0.628518,2.86423
1470262653367028,0.638189,0.578422,2.80718
1470262653392550,0.583531,0.526055,2.75092
1470262653404560,0.542685,0.479235,2.70124
1470262653427080,0.516902,0.438941,2.65614
1470262653449601,0.492204,0.402791,2.61417
1470262653464617,0.464213,0.371668,2.57678
1470262653487134,0.437325,0.344435,2.54525
1470262653509656,0.415316,0.319298,2.51922
1470262653524670,0.401935,0.300545,2.49742
1470262653547201,0.394072,0.286335,2.47797
1470262653569708,0.386526,0.27282,2.45798
1470262653584722,0.379258,0.259266,2.43899
1470262653607242,0.368932,0.245905,2.424
1470262653629763,0.329236,0.223045,2.4099
1470262653644776,0.254122,0.20157,2.39651
1470262653667297,0.241038,0.25551,2.42074
1470262653689816,0.283188,0.317816,2.49152
1470262653704329,0.343968,0.402781,2.58286
1470262653726866,0.41951,0.486195,2.67839
1470262653749370,0.499378,0.555576,2.77078
1470262653764383,0.562017,0.600761,2.83621
1470262653786903,0.599174,0.626989,2.86649
1470262653809426,0.605783,0.627006,2.85639
1470262653824453,0.583295,0.605937,2.81526
1470262653846958,0.548203,0.571558,2.76333
1470262653869477,0.499444,0.52761,2.70977
1470262653884491,0.445748,0.48496,2.65928
1470262653907025,0.410202,0.449479,2.61813
1470262653929547,0.392215,0.421275,2.5856
1470262653944558,0.376359,0.395287,2.55741
1470262653967066,0.358656,0.371871,2.53594
1470262653989586,0.339782,0.351582,2.5203
1470262654004630,0.323165,0.336592,2.50914
1470262654030153,0.309524,0.323619,2.50074
1470262654049640,0.30563,0.310284,2.49654
1470262654066155,0.310366,0.296355,2.49492
1470262654087187,0.322616,0.28193,2.48595
1470262654109693,0.310938,0.288985,2.44827
1470262654126208,0.301725,0.342919,2.39968
1470262654147226,0.316352,0.415936,2.34694
1470262654169749,0.329789,0.502442,2.29367
1470262654185761,0.321389,0.602513,2.22824
1470262654207297,0.332184,0.696959,2.16593
1470262654229825,0.368674,0.777503,2.11174
1470262654245816,0.398515,0.834157,2.05955
1470262654267335,0.420954,0.866588,2.01784
1470262654289855,0.432274,0.877454,1.9892
1470262654305869,0.426068,0.870133,1.96787
1470262654327388,0.406322,0.852709,1.94798
1470262654349909,0.388428,0.830541,1.93123
1470262654367425,0.38016,0.806397,1.92045
1470262654386942,0.375012,0.781821,1.91271
1470262654409462,0.367284,0.756573,1.90685
1470262654434988,0.358525,0.732215,1.90547
1470262654463526,0.350057,0.708352,1.9088
1470262654469531,0.34385,0.680792,1.91948
1470262654487533,0.343332,0.647419,1.94178
1470262654507052,0.336815,0.612865,1.97188
1470262654529571,0.324219,0.581575,2.00349
1470262654547603,0.320214,0.556641,2.0316
1470262654567118,0.33209,0.54134,2.05416
1470262654589626,0.358796,0.533518,2.07568
1470262654609642,0.386827,0.52633,2.10055
1470262654627159,0.401771,0.515678,2.12571
1470262654649681,0.397379,0.501025,2.14682
1470262654664692,0.384485,0.465543,2.16186
1470262654687214,0.38145,0.431348,2.17396
1470262654709734,0.393369,0.406897,2.18087
1470262654724745,0.416841,0.423278,2.18252
1470262654747267,0.407515,0.426165,2.17076
1470262654769787,0.381044,0.442627,2.14684
1470262654784809,0.365856,0.494533,2.11555
1470262654807320,0.327167,0.556397,2.06634
1470262654829840,0.252439,0.620867,2.00202
1470262654844853,0.188455,0.676908,1.93945
1470262654867373,0.157375,0.72249,1.87879
1470262654889894,0.15738,0.751238,1.83065
1470262654904907,0.172436,0.762445,1.80095
1470262654928429,0.191141,0.766075,1.78956
1470262654949448,0.205274,0.757864,1.79373
1470262654964463,0.209073,0.747498,1.80425
1470262654986981,0.202547,0.718286,1.81293
1470262655010002,0.202353,0.68965,1.82134
1470262655024533,0.201704,0.663072,1.82421
1470262655047536,0.200744,0.638744,1.82438
1470262655069558,0.203625,0.616718,1.82316
1470262655087572,0.208814,0.59789,1.82186
1470262655108590,0.214371,0.581826,1.82095
1470262655138617,0.218814,0.567872,1.82066
1470262655144622,0.224251,0.553147,1.82231
1470262655167143,0.224074,0.536268,1.82495
1470262655189663,0.221003,0.517768,1.82757
1470262655207679,0.222062,0.49794,1.83004
1470262655227196,0.229357,0.475947,1.83379
1470262655251219,0.239447,0.454278,1.83887
1470262655264730,0.24687,0.43403,1.84392
1470262655287250,0.247932,0.414366,1.84861
1470262655309771,0.247882,0.392432,1.8531
1470262655324785,0.248651,0.370144,1.85704
1470262655347812,0.250462,0.350251,1.85907
1470262655369828,0.256154,0.332964,1.86021
1470262655386340,0.268042,0.314979,1.86146
1470262655407360,0.274864,0.292424,1.86207
1470262655429880,0.286826,0.269558,1.863
1470262655445894,0.291898,0.264319,1.86241
1470262655466912,0.290086,0.267842,1.86127
1470262655489433,0.287337,0.274031,1.85873
1470262655506949,0.286295,0.280857,1.85575
1470262655529468,0.286715,0.287895,1.8535
1470262655557993,0.284639,0.2923,1.85165
1470262655567002,0.280055,0.291822,1.85122
1470262655589023,0.276005,0.285831,1.85241
1470262655610541,0.27344,0.273887,1.85508
1470262655626556,0.273502,0.255948,1.86006
1470262655649076,0.276269,0.232954,1.86611
1470262655670126,0.28268,0.204845,1.8729
1470262655686609,0.296771,0.201844,1.88139
1470262655709171,0.309344,0.187015,1.88929
1470262655730204,0.314814,0.160277,1.89613
1470262655746664,0.319704,0.155514,1.90173
1470262655769184,0.331561,0.165529,1.90596
1470262655790202,0.338061,0.15574,1.90781
1470262655806718,0.333212,0.139103,1.90653
1470262655835269,0.32937,0.124886,1.9051
1470262655850256,0.330348,0.1223,1.90427
1470262655866771,0.330977,0.119969,1.90306
1470262655889792,0.332015,0.117294,1.90207
1470262655910309,0.332723,0.114599,1.90143
1470262655926825,0.333292,0.112992,1.90096
1470262655949347,0.335235,0.112899,1.90007
1470262655971866,0.34176,0.10038,1.89911
1470262655986881,0.345962,0.115077,1.89845
1470262656009400,0.344086,0.121707,1.89726
1470262656037977,0.3496,0.130096,1.89586
1470262656046947,0.354833,0.127891,1.89416
1470262656069452,0.361261,0.124237,1.89266
1470262656090519,0.367453,0.123937,1.89099
1470262656106506,0.373119,0.12901,1.88891
1470262656129008,0.377994,0.138796,1.887
1470262656150526,0.382608,0.152439,1.88556
1470262656167043,0.386519,0.167771,1.88395
1470262656189061,0.389198,0.183708,1.8824
1470262656210579,0.390755,0.199267,1.88095
1470262656227117,0.390537,0.213205,1.87966
1470262656249137,0.388608,0.224247,1.87874
1470262656272157,0.385314,0.231891,1.8775
1470262656286670,0.379906,0.236389,1.876
1470262656317197,0.373692,0.229522,1.87528
1470262656331710,0.369673,0.225726,1.87424
1470262656346724,0.363602,0.223957,1.87252
1470262656369248,0.357157,0.222923,1.87034
1470262656391766,0.352811,0.222702,1.86813
1470262656406278,0.350479,0.222927,1.86578
1470262656429298,0.348121,0.22319,1.86383
1470262656451820,0.344889,0.223582,1.86182
1470262656465831,0.34194,0.223947,1.85998
1470262656489352,0.339951,0.223904,1.85848
1470262656511872,0.339415,0.223396,1.8571
1470262656525884,0.338923,0.222367,1.85602
1470262656549406,0.338011,0.220837,1.85505
1470262656571926,0.336912,0.219178,1.85414
1470262656594446,0.33534,0.21771,1.85277
1470262656609460,0.333011,0.216403,1.85083
1470262656631480,0.330119,0.215894,1.84833
1470262656645993,0.327064,0.215622,1.84563
1470262656669515,0.324022,0.215493,1.84284
1470262656691533,0.321881,0.215449,1.84073
1470262656706047,0.319896,0.214964,1.83897
1470262656729067,0.317385,0.214336,1.83739
1470262656751587,0.315275,0.213374,1.83587
1470262656772618,0.313683,0.212351,1.8343
1470262656789121,0.311925,0.211148,1.83301
1470262656811641,0.311167,0.209852,1.83203
1470262656832691,0.308992,0.208802,1.83141
1470262656849175,0.31106,0.207932,1.83201
1470262656871695,0.303446,0.206284,1.83243
1470262656892727,0.290696,0.204949,1.83016
1470262656909229,0.279158,0.204951,1.82887
1470262656931749,0.26271,0.207641,1.82746
1470262656952768,0.245713,0.216972,1.82459
1470262656969283,0.235575,0.235242,1.8217
1470262656991803,0.237646,0.260237,1.81963
1470262657012849,0.244109,0.286662,1.81791
1470262657029339,0.244509,0.311019,1.82017
1470262657051864,0.225186,0.334918,1.82447
1470262657072902,0.195842,0.358868,1.8279
1470262657089391,0.179932,0.381686,1.8336
1470262657111910,0.17802,0.404672,1.8409
1470262657132929,0.182091,0.428805,1.84746
1470262657148445,0.18607,0.453803,1.85482
1470262657171965,0.191406,0.482242,1.86529
1470262657193985,0.197735,0.517567,1.87849
1470262657208497,0.203182,0.555772,1.89225
1470262657231520,0.208566,0.595794,1.90553
1470262657255040,0.215303,0.636529,1.91934
1470262657282564,0.224241,0.676459,1.93445
1470262657291572,0.234156,0.714049,1.94911
1470262657314593,0.242911,0.74891,1.9614
1470262657328606,0.252016,0.780451,1.97199
1470262657359133,0.260326,0.807723,1.98077
1470262657374147,0.266731,0.830897,1.98837
1470262657388659,0.270144,0.850322,1.99393
1470262657411680,0.271259,0.866075,1.99811
1470262657434202,0.272034,0.879058,2.00028
1470262657455246,0.271665,0.889008,2.0004
1470262657472234,0.27111,0.897167,1.99945
1470262657501761,0.26889,0.904143,1.99689
1470262657515274,0.265411,0.90992,1.99447
1470262657531788,0.262373,0.913088,1.99343
1470262657554396,0.262257,0.915072,1.9932
1470262657575542,0.26255,0.912471,1.99339
1470262657591932,0.259755,0.914919,1.9899
1470262657614448,0.267447,0.916409,1.99365
1470262657628462,0.264779,0.912305,1.99399
1470262657651983,0.266797,0.909749,1.99791
1470262657674503,0.267549,0.906969,2.0006
1470262657695522,0.269246,0.904817,2.0036
1470262657711536,0.271501,0.903459,2.00626
1470262657734556,0.272126,0.901832,2.00827
1470262657763081,0.272614,0.899699,2.01007
1470262657771590,0.27463,0.897462,2.01257
1470262657794109,0.276324,0.895582,2.01479
1470262657815661,0.27733,0.893857,2.01604
1470262657831643,0.277886,0.892182,2.01704
1470262657854164,0.277472,0.890149,2.01763
1470262657875745,0.277418,0.887876,2.01837
1470262657891697,0.277755,0.88592,2.01926
1470262657914218,0.276932,0.884035,2.01866
1470262657935236,0.276224,0.883128,2.01764
1470262657951752,0.276434,0.88225,2.01649
1470262657981778,0.277923,0.882031,2.01652
1470262657995314,0.279366,0.882237,2.01704
1470262658011804,0.280045,0.883086,2.01706
1470262658035326,0.284425,0.884149,2.01945
1470262658055345,0.293379,0.879841,2.02637
1470262658071358,0.309587,0.868796,2.04093
1470262658094379,0.332221,0.85094,2.06039
1470262658122905,0.360136,0.825296,2.08402
1470262658130911,0.389846,0.792262,2.11086
1470262658154433,0.421131,0.751307,2.1414
1470262658176953,0.445365,0.70127,2.16797
1470262658197973,0.459958,0.647028,2.19169
1470262658222494,0.480348,0.595151,2.21365
1470262658244014,0.511622,0.548782,2.23154
1470262658259027,0.544974,0.507549,2.24539
1470262658274043,0.574856,0.471458,2.2584
1470262658296561,0.595064,0.439624,2.26996
1470262658311074,0.608532,0.410774,2.2811
1470262658334094,0.621534,0.383815,2.29178
1470262658356615,0.637616,0.361503,2.30068
1470262658378133,0.654473,0.343219,2.30811
1470262658394150,0.670112,0.326535,2.31567
1470262658416668,0.682683,0.310867,2.32359
1470262658437687,0.691495,0.297535,2.33123
1470262658454203,0.699179,0.28725,2.33918
1470262658476722,0.709087,0.281895,2.34961
1470262658497742,0.719833,0.283959,2.3603
1470262658514257,0.725836,0.293854,2.36543
1470262658536776,0.714674,0.31544,2.36165
1470262658557809,0.669063,0.296385,2.33794
1470262658574311,0.647916,0.266541,2.27772
1470262658596833,0.650977,0.230816,2.19033
1470262658617864,0.636427,0.17712,2.09491
1470262658634365,0.652005,0.155819,2.03593
1470262658656884,0.65612,0.0947675,2.01735
1470262658677902,0.659505,0.0606641,2.02145
1470262658694419,0.6621,0.0496494,2.0204
1470262658716938,0.670286,0.0445328,2.02828
1470262658737957,0.680222,0.0442091,2.04042
1470262658754472,0.685634,0.0494816,2.05035
1470262658776491,0.688432,0.0539383,2.05755
1470262658798011,0.690445,0.0542214,2.06288
1470262658814026,0.691975,0.0523786,2.06628
1470262658836545,0.694364,0.0495239,2.0689
1470262658859066,0.698376,0.0466665,2.07008
1470262658874579,0.701852,0.0434024,2.0707
1470262658897100,0.703088,0.0405974,2.07134
1470262658925626,0.701708,0.0391994,2.07245
1470262658934633,0.699872,0.0396452,2.07519
1470262658956655,0.698485,0.0420338,2.07904
1470262658978173,0.697928,0.046317,2.08471
1470262658994187,0.698863,0.052101,2.09267
1470262659016708,0.701452,0.0586937,2.10246
1470262659037726,0.705674,0.065411,2.11343
1470262659053741,0.710171,0.0726011,2.12524
1470262659084268,0.714897,0.0808269,2.1382
1470262659098324,0.720463,0.0900995,2.15203
1470262659113797,0.726283,0.100215,2.16516
1470262659136818,0.732286,0.109657,2.17773
1470262659166841,0.736991,0.11899,2.18925
1470262659173348,0.738745,0.127528,2.20072
1470262659196869,0.736861,0.136615,2.21355
1470262659219390,0.733454,0.146193,2.22732
1470262659240411,0.728454,0.158913,2.24424
1470262659257423,0.72489,0.178035,2.26523
1470262659279443,0.727197,0.20298,2.28816
1470262659300462,0.738093,0.234855,2.31465
1470262659324483,0.757313,0.270621,2.34153
1470262659338997,0.780749,0.304273,2.3657
1470262659353510,0.800809,0.333425,2.38928
1470262659376532,0.819279,0.360006,2.41263
1470262659399553,0.834964,0.380383,2.43302
1470262659420570,0.845221,0.394987,2.44842
1470262659436585,0.851214,0.404091,2.46112
1470262659459605,0.857511,0.409317,2.47181
1470262659480624,0.863928,0.411267,2.48075
1470262659496638,0.867439,0.411929,2.49052
1470262659519160,0.868712,0.414628,2.50123
1470262659540678,0.877624,0.419195,2.51281
1470262659556694,0.89108,0.422723,2.52488
1470262659579212,0.900673,0.42803,2.5378
1470262659600732,0.905611,0.437026,2.55259
1470262659616746,0.913444,0.452469,2.56913
1470262659645272,0.923209,0.473141,2.5825
1470262659660286,0.878121,0.475302,2.56356
1470262659676800,0.800133,0.459212,2.50673
1470262659699320,0.72146,0.402159,2.39592
1470262659720355,0.608237,0.285633,2.23602
1470262659744360,0.561432,0.205634,2.13941
1470262659759374,0.589393,0.191782,2.07855
1470262659780419,0.631278,0.125492,2.12723
1470262659796908,0.650015,0.103908,2.15823
1470262659819453,0.662423,0.119812,2.18251
1470262659840479,0.686484,0.132436,2.21155
1470262659856964,0.70743,0.151283,2.22972
1470262659879482,0.723358,0.167643,2.23631
1470262659900534,0.738576,0.169976,2.23625
1470262659916515,0.743198,0.161906,2.23059
1470262659939535,0.741229,0.150137,2.22225
1470262659960575,0.738596,0.137883,2.21614
1470262659976071,0.74027,0.128512,2.21149
1470262659999590,0.746018,0.122892,2.20777
1470262660020608,0.750258,0.119693,2.20476
1470262660036125,0.751523,0.118061,2.20322
1470262660059187,0.750882,0.118762,2.20256
1470262660081690,0.74876,0.120148,2.20214
1470262660096677,0.745884,0.123127,2.20251
1470262660119197,0.743494,0.128289,2.20389
1470262660141717,0.743016,0.134647,2.20647
1470262660156230,0.743545,0.141168,2.20925
1470262660179253,0.742961,0.147369,2.21274
1470262660201771,0.744224,0.153605,2.217
1470262660217307,0.748435,0.158677,2.22184
1470262660239305,0.754443,0.163296,2.22707
1470262660261825,0.757723,0.168542,2.23456
1470262660275838,0.758408,0.176618,2.2437
1470262660306869,0.759268,0.187193,2.25445
1470262660322380,0.758825,0.197992,2.26531
1470262660342901,0.755875,0.209651,2.27587
1470262660359413,0.752373,0.224179,2.28789
1470262660381933,0.753522,0.242107,2.30301
1470262660402968,0.761962,0.264087,2.32
1470262660419469,0.778045,0.288094,2.33841
1470262660441989,0.798232,0.313071,2.35876
1470262660463063,0.818289,0.33917,2.38019
1470262660479521,0.835676,0.365978,2.40239
1470262660501589,0.850216,0.393006,2.42475
1470262660523105,0.863661,0.419077,2.44696
1470262660539574,0.878977,0.445117,2.46888
1470262660561596,0.897212,0.472142,2.49061
1470262660567099,0.918803,0.498949,2.51109
1470262660589620,0.939955,0.524732,2.52967
1470262660605171,0.955514,0.546941,2.54678
1470262660634664,0.968907,0.566826,2.56308
1470262660649675,0.983301,0.584813,2.57769
1470262660664688,0.998097,0.59988,2.59129
1470262660687207,1.01267,0.61269,2.60411
1470262660709744,1.027,0.624135,2.61742
1470262660724740,1.04025,0.633996,2.6303
1470262660754768,1.05269,0.643226,2.64309
1470262660769782,1.0666,0.652416,2.65636
1470262660784795,1.08123,0.661324,2.67015
1470262660807316,1.09344,0.670508,2.68419
1470262660832838,1.10391,0.681732,2.69885
1470262660844849,1.11456,0.697421,2.71337
1470262660867368,1.12745,0.717066,2.72922
1470262660889889,1.14148,0.741554,2.74583
1470262660904955,1.1375,0.772856,2.74559
1470262660927519,1.03291,0.766881,2.66848
1470262660949489,0.936494,0.71667,2.57763
1470262660964986,0.832696,0.601775,2.45466
1470262660986977,0.695641,0.4167,2.27876
1470262661009498,0.639494,0.32656,2.19861
1470262661026012,0.64257,0.293118,2.13836
1470262661047555,0.702596,0.227528,2.18777
1470262661070180,0.726119,0.218758,2.21139
1470262661084607,0.731702,0.247255,2.23016
1470262661107681,0.743641,0.259587,2.26024
1470262661129604,0.755313,0.271138,2.28181
1470262661146119,0.767685,0.279822,2.29386
1470262661167138,0.782574,0.275376,2.29911
1470262661189661,0.792959,0.265843,2.29684
1470262661204687,0.796232,0.253935,2.29062
1470262661230210,0.795376,0.239678,2.28406
1470262661249712,0.79385,0.226765,2.27836
1470262661264726,0.794699,0.217697,2.2731
1470262661287246,0.795892,0.21165,2.26881
1470262661309766,0.793702,0.20865,2.26571
1470262661326280,0.788706,0.207667,2.26304
1470262661354808,0.782964,0.207382,2.2598
1470262661365316,0.777864,0.207368,2.25667
1470262661386335,0.773985,0.207749,2.25502
1470262661409356,0.772212,0.209378,2.25479
1470262661424870,0.772695,0.212152,2.25552
1470262661444888,0.773873,0.216028,2.25724
1470262661483424,0.774526,0.220814,2.26009
1470262661489428,0.775991,0.226981,2.26426
1470262661504941,0.778703,0.234685,2.27027
1470262661528464,0.782711,0.244408,2.27814
1470262661552990,0.787666,0.256528,2.28823
1470262661565106,0.792498,0.27168,2.30098
1470262661590542,0.795496,0.290282,2.31484
1470262661610123,0.795812,0.311018,2.3305
1470262661625051,0.795107,0.335948,2.34944
1470262661647071,0.796245,0.367523,2.37185
1470262661669591,0.801655,0.405644,2.39627
1470262661693611,0.807893,0.449311,2.42092
1470262661708624,0.800241,0.493976,2.43701
1470262661729657,0.734373,0.515167,2.42548
1470262661746158,0.678406,0.477034,2.37047
1470262661767177,0.645418,0.344632,2.27063
1470262661789699,0.593594,0.198722,2.14574
1470262661807811,0.569539,0.118447,2.05985
1470262661827297,0.623003,0.0902736,2.02792
1470262661849751,0.684003,0.0419428,2.07754
1470262661867767,0.698851,0.0417919,2.0966
1470262661887284,0.688585,0.0710336,2.11849
1470262661909806,0.681311,0.094578,2.14666
1470262661926320,0.67658,0.118127,2.15993
1470262661947338,0.680257,0.133947,2.16529
1470262661969875,0.693057,0.13757,2.16728
1470262661992378,0.703589,0.13751,2.16434
1470262662007393,0.708174,0.135341,2.15861
1470262662029942,0.707535,0.130964,2.1522
1470262662047434,0.704425,0.12734,2.14701
1470262662067447,0.703189,0.126017,2.14384
1470262662089966,0.704467,0.126607,2.14302
1470262662107482,0.708028,0.129419,2.14577
1470262662127500,0.710665,0.135058,2.1511
1470262662152523,0.71178,0.143371,2.15882
1470262662167537,0.713474,0.153193,2.16895
1470262662190101,0.715367,0.164932,2.18005
1470262662209574,0.718139,0.178546,2.19179
1470262662232122,0.724329,0.192604,2.20417
1470262662247688,0.729783,0.206804,2.21834
1470262662269628,0.733752,0.224611,2.23593
1470262662287644,0.738755,0.247083,2.25773
1470262662307162,0.746674,0.274937,2.28272
1470262662329724,0.750289,0.307658,2.3099
1470262662347709,0.749267,0.345353,2.34014
1470262662367215,0.750198,0.387141,2.3727
1470262662389778,0.760084,0.431707,2.40634
1470262662413758,0.777919,0.479705,2.44034
1470262662434778,0.800551,0.529621,2.47452
1470262662449792,0.82727,0.580402,2.50991
1470262662467805,0.859618,0.632147,2.5472
1470262662487342,0.896578,0.683843,2.58547
1470262662509877,0.939314,0.733432,2.62397
1470262662527861,0.982815,0.775949,2.65779
1470262662547472,1.01854,0.812768,2.68575
1470262662569983,1.04852,0.842946,2.71414
1470262662592465,1.07668,0.865749,2.74233
1470262662608432,1.10285,0.881203,2.77026
1470262662629950,1.12824,0.891054,2.79597
1470262662647467,1.15401,0.896419,2.81937
1470262662668986,1.18203,0.898779,2.84097
1470262662692508,1.20659,0.90212,2.85922
1470262662707521,1.2313,0.90162,2.87719
1470262662728540,1.24321,0.890717,2.88658
1470262662757569,1.25336,0.891433,2.8952
1470262662767576,1.26067,0.883594,2.90133
1470262662788595,1.26371,0.879955,2.90839
1470262662809613,1.26972,0.881298,2.91594
1470262662827629,1.25106,0.886256,2.90418
1470262662848648,1.11901,0.859181,2.82121
1470262662869682,0.957883,0.769576,2.70559
1470262662887703,0.881634,0.627683,2.6147
1470262662910204,0.851728,0.488803,2.46361
1470262662929720,0.766732,0.355158,2.3182
1470262662955244,0.745951,0.272108,2.2418
1470262662976266,0.765342,0.215519,2.20168
1470262662989794,0.785658,0.176457,2.20212
1470262663007824,0.775714,0.181958,2.19451
1470262663030813,0.754083,0.19669,2.20269
1470262663050329,0.738131,0.208087,2.22225
1470262663067345,0.733463,0.219099,2.23705
1470262663090865,0.739361,0.226679,2.24846
1470262663110383,0.750869,0.225917,2.2552
1470262663126436,0.762293,0.220134,2.25769
1470262663149418,0.77062,0.212455,2.25574
1470262663170452,0.774703,0.202397,2.24884
1470262663186952,0.774721,0.191083,2.23762
1470262663209474,0.775092,0.177347,2.22375
1470262663230501,0.769534,0.159981,2.21038
1470262663247006,0.757458,0.143585,2.20127
1470262663269526,0.745963,0.137615,2.1948
1470262663290546,0.740138,0.138691,2.19074
1470262663307061,0.736154,0.143524,2.18902
1470262663329579,0.729087,0.151242,2.1876
1470262663350600,0.719974,0.15898,2.18647
1470262663367114,0.709702,0.165798,2.18531
1470262663389133,0.699638,0.172176,2.18438
1470262663410652,0.690021,0.178597,2.18312
1470262663426667,0.679577,0.185128,2.18176
1470262663449189,0.668586,0.192458,2.18047
1470262663470706,0.655635,0.200172,2.17947
1470262663486721,0.642424,0.207402,2.17882
1470262663509244,0.628584,0.2141,2.17816
1470262663530315,0.613451,0.220824,2.17741
1470262663546777,0.599748,0.228206,2.17642
1470262663569295,0.587459,0.235369,2.17656
1470262663590314,0.577148,0.24211,2.17641
1470262663606830,0.566778,0.249066,2.17555
1470262663629349,0.557753,0.255967,2.1753
1470262663650367,0.550243,0.261211,2.17685
1470262663666882,0.543269,0.265486,2.17888
1470262663689403,0.534325,0.269264,2.17865
1470262663710421,0.524872,0.272056,2.17633
1470262663726937,0.517804,0.272429,2.17501
1470262663749456,0.51413,0.271843,2.17665
1470262663770477,0.509351,0.271718,2.17762
1470262663786490,0.503259,0.271318,2.17638
1470262663809511,0.495964,0.269224,2.17393
1470262663830593,0.488722,0.266443,2.17233
1470262663846044,0.479853,0.264348,2.17065
1470262663869565,0.470391,0.263162,2.16811
1470262663892085,0.460351,0.261108,2.16496
1470262663906099,0.452044,0.256222,2.16115
1470262663929148,0.443426,0.248909,2.15773
1470262663951638,0.435003,0.241038,2.15457
1470262663966153,0.427734,0.234094,2.15029
1470262663989172,0.422622,0.228046,2.1459
1470262664011694,0.41854,0.222372,2.14281
1470262664026206,0.412551,0.217563,2.14081
1470262664049726,0.405482,0.214294,2.13869
1470262664071746,0.40004,0.212017,2.13613
1470262664086260,0.395256,0.21099,2.13403
1470262664109282,0.391649,0.211219,2.13282
1470262664131813,0.389208,0.213073,2.13119
1470262664146313,0.387679,0.216234,2.12933
1470262664169335,0.385654,0.219152,2.12661
1470262664191856,0.383451,0.221072,2.12413
1470262664206367,0.382595,0.221572,2.12245
1470262664229387,0.382586,0.221553,2.12078
1470262664251908,0.380535,0.221316,2.11929
1470262664266421,0.377138,0.220628,2.11877
1470262664289442,0.373741,0.220212,2.11886
1470262664311963,0.371522,0.220802,2.11816
1470262664326475,0.370006,0.222256,2.11625
1470262664349496,0.369213,0.224167,2.1135
1470262664372016,0.368385,0.226157,2.11096
1470262664393035,0.368156,0.227641,2.10911
1470262664409550,0.369583,0.229492,2.10727
1470262664432072,0.371269,0.231146,2.10572
1470262664453088,0.372745,0.232378,2.1042
1470262664469605,0.373944,0.233099,2.10302
1470262664492123,0.374542,0.233337,2.10237
1470262664512642,0.374279,0.233291,2.10197
1470262664529160,0.372986,0.233224,2.10144
1470262664551726,0.371902,0.233309,2.1008
1470262664573294,0.370698,0.233384,2.10001
1470262664589242,0.368733,0.233483,2.09897
1470262664611747,0.367185,0.233586,2.0977
1470262664632756,0.366198,0.234304,2.09653
1470262664649265,0.365269,0.235162,2.09548
1470262664671786,0.364518,0.236198,2.09464
1470262664692804,0.365318,0.236889,2.09442
1470262664709319,0.366738,0.237492,2.09426
1470262664731864,0.36784,0.238372,2.09389
1470262664753366,0.368263,0.239418,2.09354
1470262664769372,0.367832,0.240699,2.09311
1470262664797944,0.36705,0.242062,2.09209
1470262664812955,0.366003,0.243377,2.09067
1470262664829426,0.364986,0.244338,2.08896
1470262664851946,0.364824,0.245066,2.08732
1470262664874467,0.364626,0.24538,2.08617
1470262664889480,0.364305,0.245683,2.08539
1470262664912003,0.363923,0.245843,2.08501
1470262664934521,0.363923,0.245843,2.08501
1470262664949534,0.363927,0.245543,2.08447
1470262664972054,0.36443,0.2449,2.08422
1470262664994574,0.364722,0.244158,2.08398
1470262665008587,0.364547,0.243158,2.08354
1470262665032108,0.364138,0.242303,2.08308
1470262665054146,0.363845,0.241513,2.08268
1470262665068651,0.363996,0.240732,2.08218
1470262665091662,0.364266,0.239988,2.08179
1470262665114684,0.364446,0.239155,2.08155
1470262665128696,0.364711,0.238192,2.0815
1470262665159222,0.364978,0.237202,2.0815
1470262665174237,0.364886,0.236099,2.08173
1470262665188749,0.3643,0.235038,2.08164
1470262665211770,0.363713,0.23403,2.08144
1470262665234291,0.362805,0.233297,2.08104
1470262665248803,0.361837,0.232942,2.08073
1470262665271823,0.361016,0.233064,2.0805
1470262665294344,0.361016,0.233064,2.0805
1470262665308856,0.36096,0.233662,2.08024
1470262665331878,0.361227,0.234478,2.07992
1470262665353897,0.361023,0.235582,2.07956
1470262665375435,0.361111,0.236712,2.07928
1470262665391932,0.361172,0.237894,2.07875
1470262665414451,0.361326,0.238892,2.07799
1470262665435472,0.361453,0.23967,2.07691
1470262665451986,0.360841,0.239973,2.076
1470262665474505,0.360023,0.240094,2.07524
1470262665495524,0.359442,0.240043,2.07456
1470262665518048,0.35918,0.239992,2.07416
1470262665534560,0.35918,0.239992,2.07416
1470262665555578,0.359568,0.239561,2.07395
1470262665571592,0.359628,0.239457,2.07393
1470262665600618,0.359512,0.239392,2.07389
1470262665615688,0.359074,0.239381,2.07345
1470262665631648,0.358723,0.239733,2.07294
1470262665654667,0.35852,0.240317,2.07238
1470262665675686,0.358374,0.241071,2.07189
1470262665691700,0.358078,0.241839,2.07156
1470262665714221,0.357721,0.242711,2.07124
1470262665735797,0.357634,0.24358,2.07091
1470262665751755,0.357691,0.244243,2.0707
1470262665774275,0.35742,0.244986,2.07057
1470262665796795,0.357387,0.245558,2.07052
1470262665811808,0.357183,0.245869,2.0704
1470262665834333,0.35697,0.246261,2.07066
1470262665856849,0.356495,0.246822,2.07069
1470262665871862,0.356286,0.247434,2.0706
1470262665894382,0.35631,0.248176,2.0706
1470262665916903,0.356426,0.248982,2.07051
1470262665931916,0.356333,0.249659,2.07046
1470262665954460,0.355948,0.25031,2.07034
1470262665976959,0.35583,0.250986,2.07015
1470262665991470,0.356091,0.251584,2.07018
1470262666014490,0.355973,0.25226,2.06998
1470262666037010,0.355849,0.25277,2.07003
1470262666051023,0.356263,0.253054,2.06987
1470262666074544,0.356618,0.253195,2.0696
1470262666103069,0.356739,0.252986,2.06906
1470262666111077,0.356772,0.252906,2.06833
1470262666134098,0.35657,0.252476,2.06784
1470262666156634,0.356255,0.251706,2.06723
1470262666171133,0.356176,0.250821,2.0666
1470262666194152,0.356095,0.250182,2.06609
1470262666217172,0.356011,0.249817,2.06565
1470262666231185,0.356079,0.249412,2.0651
1470262666254205,0.356791,0.249203,2.06483
1470262666276726,0.357032,0.249033,2.06438
1470262666305753,0.357032,0.249033,2.06438
1470262666314260,0.357032,0.249033,2.06438
1470262666336780,0.357034,0.249006,2.06443
1470262666358299,0.357034,0.249006,2.06443
1470262666374313,0.357034,0.249006,2.06443
1470262666396834,0.357706,0.24915,2.06496
1470262666417853,0.358586,0.249176,2.06583
1470262666434368,0.359612,0.249462,2.0666
1470262666456887,0.360283,0.249604,2.06765
1470262666477920,0.360778,0.249785,2.06866
1470262666494421,0.361212,0.250097,2.06964
1470262666516942,0.361469,0.250475,2.07053
1470262666537976,0.361879,0.251032,2.07096
1470262666554476,0.362199,0.25202,2.07123
1470262666583002,0.362286,0.253125,2.07101
1470262666599516,0.362016,0.254363,2.07114
1470262666614529,0.36151,0.255497,2.07112
1470262666637049,0.361359,0.256526,2.07122
1470262666658083,0.361474,0.257113,2.07147
1470262666674583,0.361445,0.257164,2.07173
1470262666696620,0.361381,0.257323,2.07216
1470262666718137,0.360969,0.257258,2.0725
1470262666734136,0.36064,0.257366,2.07304
1470262666757159,0.360462,0.257679,2.0736
1470262666779178,0.360284,0.257992,2.07416
1470262666794190,0.360163,0.258502,2.07473
1470262666817211,0.359958,0.258841,2.07509
1470262666839233,0.35981,0.259376,2.07545
1470262666854745,0.359603,0.259743,2.07576
1470262666882772,0.360163,0.260093,2.07632
1470262666899285,0.360724,0.260168,2.07681
1470262666913798,0.360724,0.260168,2.07681
1470262666936819,0.360725,0.259921,2.0772
1470262666959339,0.360608,0.259334,2.07747
1470262666973852,0.360694,0.25871,2.07793
1470262666996873,0.361107,0.258004,2.0783
1470262667025899,0.36134,0.257119,2.07898
1470262667033907,0.361692,0.256023,2.07964
1470262667057427,0.361573,0.25519,2.07978
1470262667079447,0.361452,0.254384,2.07987
1470262667093461,0.361363,0.253774,2.07982
1470262667116980,0.361245,0.253709,2.07977
1470262667139502,0.361245,0.253709,2.07977
1470262667153513,0.360953,0.253931,2.0793
1470262667177034,0.361279,0.254124,2.07877
1470262667199555,0.361574,0.254122,2.07839
1470262667213567,0.361695,0.254132,2.07802
1470262667237088,0.361251,0.253628,2.07785
1470262667259608,0.361013,0.253032,2.07797
1470262667280627,0.361103,0.252354,2.07801
1470262667297142,0.361367,0.251389,2.07847
1470262667327169,0.361424,0.25027,2.07905
1470262667340697,0.361301,0.249491,2.07961
1470262667356695,0.361769,0.248708,2.08044
1470262667379220,0.36386,0.247623,2.0817
1470262667400734,0.366827,0.245566,2.08385
1470262667417250,0.370017,0.243164,2.08683
1470262667439270,0.373082,0.240416,2.09021
1470262667460807,0.374715,0.236781,2.09366
1470262667476803,0.374363,0.228893,2.09647
1470262667499323,0.367871,0.21471,2.09798
1470262667520912,0.354542,0.202671,2.09947
1470262667536857,0.339478,0.195649,2.10091
1470262667559377,0.33136,0.191854,2.10253
1470262667580902,0.332576,0.190157,2.10304
1470262667596911,0.339511,0.189937,2.1031
1470262667626939,0.346632,0.189884,2.10411
1470262667640450,0.350766,0.190223,2.10565
1470262667655966,0.351984,0.190621,2.107
1470262667679486,0.351601,0.189734,2.10803
1470262667702006,0.34981,0.186989,2.11
1470262667717019,0.348199,0.184616,2.1138
1470262667739540,0.3495,0.184833,2.11805
1470262667769566,0.353032,0.18594,2.12138
1470262667777073,0.357905,0.187554,2.12528
1470262667799593,0.362955,0.189606,2.13002
1470262667822113,0.370285,0.192479,2.13535
1470262667836127,0.37817,0.195894,2.14181
1470262667859646,0.385953,0.200124,2.14975
1470262667882167,0.393535,0.204225,2.15972
1470262667903186,0.398242,0.206941,2.17352
1470262667919200,0.399202,0.208405,2.19016
1470262667942221,0.400795,0.211585,2.20617
1470262667963240,0.40849,0.216603,2.22259
1470262667979256,0.422789,0.224652,2.24011
1470262668001774,0.438521,0.233829,2.25707
1470262668023415,0.452001,0.242371,2.27424
1470262668046826,0.462501,0.250709,2.29203
1470262668061828,0.47055,0.259472,2.30921
1470262668083349,0.478145,0.26875,2.32615
1470262668099362,0.487543,0.277348,2.34204
1470262668127890,0.499657,0.285877,2.35802
1470262668142902,0.513181,0.295843,2.37369
1470262668159416,0.525814,0.307659,2.38895
1470262668181937,0.539951,0.320572,2.40385
1470262668202955,0.554058,0.334692,2.4188
1470262668219472,0.568069,0.349501,2.43308
1470262668241994,0.582706,0.364237,2.4477
1470262668264510,0.600034,0.377638,2.46367
1470262668270016,0.620201,0.388921,2.48101
1470262668285041,0.640182,0.397393,2.49956
1470262668307549,0.656653,0.402657,2.51952
1470262668330077,0.67106,0.405069,2.54129
1470262668345091,0.683612,0.404429,2.56517
1470262668367604,0.694588,0.399985,2.58987
1470262668390123,0.702546,0.392412,2.61524
1470262668404680,0.70831,0.382511,2.64222
1470262668427657,0.71263,0.371067,2.67143
1470262668449676,0.714584,0.356787,2.70218
1470262668464735,0.712973,0.338495,2.73502
1470262668494773,0.70968,0.317758,2.76958
1470262668509787,0.705434,0.294097,2.80466
1470262668526246,0.699687,0.268828,2.83927
1470262668547264,0.690494,0.242164,2.87286
1470262668578793,0.678413,0.213977,2.90517
1470262668584798,0.665966,0.184565,2.93524
1470262668607319,0.651845,0.155286,2.96162
1470262668629839,0.635378,0.125526,2.98244
1470262668644876,0.616967,0.0969011,2.99734
1470262668667375,0.59955,0.0723067,3.00809
1470262668689936,0.587375,0.0508985,3.01528
1470262668704949,0.581466,0.0335886,3.02095
1470262668727430,0.579353,0.0201606,3.02614
1470262668749985,0.578882,0.00755857,3.02981
1470262668766461,0.57901,-0.00484173,3.0312
1470262668787480,0.578942,-0.0186212,3.0299
1470262668810061,0.583,-0.0319848,3.02834
1470262668825014,0.598994,-0.0409953,3.02579
1470262668847533,0.632965,-0.0399537,3.01771
1470262668870054,0.68253,-0.00709256,2.99323
1470262668885068,0.74119,0.0685923,2.94664
1470262668907587,0.793134,0.184182,2.8797
1470262668938690,0.817432,0.338075,2.78984
1470262668945121,0.796322,0.519886,2.67844
1470262668967642,0.722743,0.708455,2.54112
1470262668990162,0.578876,0.881182,2.35589
1470262669005177,0.350748,1.01364,2.1098
1470262669027697,0.0688061,1.09685,1.8135
1470262669049715,-0.179617,1.13041,1.54733
1470262669064729,-0.269207,1.12489,1.4396
1470262669087250,-0.158965,1.09286,1.53976
1470262669109787,0.0481877,1.03231,1.73666
1470262669124784,0.259513,0.940493,1.93888
1470262669147316,0.437443,0.811037,2.12055
1470262669169828,0.562663,0.674594,2.26584
1470262669184838,0.641663,0.542725,2.37589
1470262669207357,0.701474,0.430109,2.46093
1470262669229878,0.752202,0.33734,2.53022
1470262669246392,0.777945,0.262607,2.58468
1470262669267414,0.773765,0.199727,2.62654
1470262669289931,0.751261,0.146666,2.66134
1470262669306446,0.727415,0.111574,2.68686
1470262669327466,0.713647,0.0915214,2.70102
1470262669352488,0.708199,0.0758655,2.71013
1470262669372505,0.697175,0.0601625,2.71806
1470262669387520,0.682382,0.0455673,2.7255
1470262669410039,0.674641,0.0344729,2.73339
1470262669426554,0.677925,0.0256061,2.73951
1470262669447573,0.683775,0.017341,2.74462
1470262669470104,0.684406,0.00734056,2.75077
1470262669486108,0.682686,-0.00351444,2.75696
1470262669507627,0.679792,-0.0133445,2.76115
1470262669530159,0.679397,-0.0196972,2.76213
1470262669546162,0.684592,-0.0218718,2.75984
1470262669567180,0.69421,-0.0196008,2.75494
1470262669589719,0.705444,-0.0122523,2.74477
1470262669607716,0.716839,0.00215972,2.72265
1470262669627234,0.716278,0.0269455,2.68478
1470262669649754,0.705058,0.0558082,2.61846
1470262669667771,0.670072,0.0865182,2.50681
1470262669687320,0.588461,0.134945,2.36107
1470262669709810,0.484868,0.185667,2.19262
1470262669727826,0.426464,0.225339,2.06581
1470262669747342,0.38228,0.241299,2.00309
1470262669769877,0.353588,0.22115,1.98808
1470262669787899,0.402496,0.208084,2.0138
1470262669807410,0.492326,0.189415,2.06056
1470262669829916,0.578093,0.173454,2.11027
1470262669847932,0.641056,0.166154,2.15567
1470262669867450,0.678268,0.173231,2.19487
1470262669889970,0.695519,0.186893,2.22629
1470262669915494,0.700279,0.204339,2.25024
1470262669927504,0.695892,0.222236,2.26811
1470262669950024,0.684378,0.23656,2.28385
1470262669968040,0.669977,0.245636,2.29738
1470262669987557,0.653907,0.24994,2.30951
1470262670010092,0.63856,0.249488,2.32089
1470262670027595,0.623621,0.246927,2.33102
1470262670047611,0.609951,0.243703,2.33936
1470262670069632,0.605243,0.240625,2.34698
1470262670088151,0.608285,0.238437,2.35344
1470262670107182,0.61531,0.237353,2.35906
1470262670130274,0.620408,0.236042,2.36472
1470262670147746,0.621973,0.235512,2.36999
1470262670167235,0.620088,0.235817,2.37322
1470262670190259,0.61712,0.237365,2.37491
1470262670207771,0.615583,0.240312,2.3751
1470262670228776,0.614675,0.244338,2.37311
1470262670249798,0.613555,0.249686,2.36834
1470262670267810,0.610631,0.255975,2.36063
1470262670288829,0.605079,0.261582,2.35114
1470262670309862,0.591283,0.264117,2.34196
1470262670327869,0.562044,0.26662,2.33594
1470262670348885,0.521539,0.273143,2.333
1470262670369934,0.476403,0.279055,2.33134
1470262670387952,0.428769,0.280714,2.33248
1470262670408936,0.374829,0.279353,2.34119
1470262670430015,0.340094,0.282897,2.36001
1470262670447996,0.347928,0.298151,2.37342
1470262670468991,0.411866,0.315403,2.37929
1470262670490008,0.487332,0.329925,2.37803
1470262670512530,0.556737,0.339141,2.37357
1470262670529044,0.61601,0.342651,2.37281
1470262670550062,0.653073,0.338705,2.37598
1470262670568079,0.653422,0.331585,2.3801
1470262670590599,0.628192,0.323615,2.38271
1470262670610117,0.597322,0.315831,2.37978
1470262670627634,0.579176,0.308685,2.37094
1470262670650153,0.58046,0.302562,2.35892
1470262670669712,0.593661,0.296327,2.34721
1470262670687703,0.603187,0.289669,2.33671
1470262670710207,0.601102,0.281871,2.32706
1470262670737231,0.589877,0.27288,2.31828
1470262670748244,0.572112,0.262637,2.31062
1470262670769261,0.547691,0.251444,2.30563
1470262670790887,0.519991,0.241414,2.30391
1470262670806793,0.487477,0.235278,2.30181
1470262670829313,0.453874,0.230345,2.29679
1470262670850833,0.42644,0.2264,2.29092
1470262670866847,0.420165,0.224583,2.28549
1470262670889368,0.439306,0.226415,2.28156
1470262670910386,0.471752,0.229339,2.28211
1470262670926901,0.499293,0.230552,2.28774
1470262670949421,0.505019,0.229333,2.29928
1470262670970442,0.497781,0.229583,2.31579
1470262670986956,0.494753,0.23428,2.33645
1470262671009475,0.503928,0.245883,2.36104
1470262671030493,0.527469,0.263975,2.39158
1470262671047009,0.54742,0.289055,2.4276
1470262671069532,0.553396,0.315785,2.46919
1470262671090589,0.553545,0.340413,2.51515
1470262671107063,0.563712,0.36545,2.56371
1470262671129583,0.592296,0.393903,2.61193
1470262671150610,0.632369,0.426414,2.65707
1470262671167117,0.674229,0.464245,2.70058
1470262671189636,0.709947,0.502025,2.74076
1470262671210656,0.742131,0.533927,2.77947
1470262671227170,0.774224,0.561328,2.81705
1470262671249691,0.80858,0.586143,2.8539
1470262671270743,0.834562,0.608492,2.88776
1470262671301738,0.859108,0.628197,2.92023
1470262671309244,0.881938,0.64306,2.94743
1470262671330276,0.90046,0.650822,2.96062
1470262671346778,0.872968,0.634485,2.91814
1470262671369299,0.788111,0.578894,2.8261
1470262671390317,0.718639,0.519029,2.73362
1470262671406332,0.691662,0.459822,2.61139
1470262671429352,0.641682,0.371095,2.44928
1470262671450872,0.540753,0.280934,2.29773
1470262671466405,0.513424,0.283874,2.20953
1470262671489421,0.539443,0.240077,2.24062
1470262671511926,0.563318,0.233598,2.26132
1470262671526440,0.582862,0.257061,2.28
1470262671549459,0.60917,0.27446,2.31499
1470262671579988,0.62668,0.290719,2.34624
1470262671586493,0.639364,0.310147,2.36922
1470262671609514,0.651928,0.32192,2.38511
1470262671632537,0.662629,0.325738,2.39392
1470262671646061,0.668679,0.324296,2.39727
1470262671669568,0.670866,0.316792,2.39852
1470262671692090,0.669534,0.306317,2.39711
1470262671706132,0.668177,0.293918,2.39494
1470262671737145,0.664998,0.279621,2.39283
1470262671752142,0.660961,0.267643,2.39021
1470262671774663,0.657248,0.258497,2.38767
1470262671789685,0.657042,0.2516,2.38464
1470262671811700,0.656124,0.245997,2.38026
1470262671833216,0.651369,0.241297,2.37524
1470262671856738,0.643364,0.23777,2.37095
1470262671871749,0.63737,0.235719,2.36719
1470262671892784,0.635014,0.235357,2.36314
1470262671909283,0.634468,0.235457,2.35963
1470262671931803,0.633808,0.235117,2.3572
1470262671946329,0.632231,0.234454,2.35558
1470262671969337,0.631883,0.23361,2.35412
1470262671991860,0.6325,0.232095,2.35225
1470262672013376,0.632237,0.229896,2.35001
1470262672029393,0.631139,0.227674,2.34794
1470262672051911,0.630481,0.225513,2.34554
1470262672072948,0.629184,0.223572,2.34247
1470262672089451,0.626961,0.221362,2.33966
1470262672111969,0.625008,0.220057,2.33748
1470262672133013,0.623897,0.219727,2.33505
1470262672149531,0.623385,0.22017,2.33287
1470262672172022,0.622923,0.221025,2.33103
1470262672193081,0.623155,0.222009,2.3298
1470262672209552,0.624796,0.222879,2.32904
1470262672232073,0.627727,0.222427,2.32832
1470262672253092,0.630827,0.220499,2.32729
1470262672269608,0.632886,0.21798,2.32579
1470262672292126,0.633052,0.214855,2.32351
1470262672313164,0.632521,0.210818,2.32106
1470262672329660,0.632372,0.206181,2.31798
1470262672352181,0.63276,0.201015,2.31474
1470262672373199,0.632083,0.195357,2.31187
1470262672389221,0.6306,0.189904,2.30968
1470262672412281,0.629285,0.185016,2.30803
1470262672433253,0.628807,0.180847,2.30702
1470262672449268,0.629048,0.177326,2.30631
1470262672471789,0.629361,0.173576,2.30591
1470262672494310,0.629283,0.169628,2.30633
1470262672509322,0.629225,0.165804,2.30756
1470262672531862,0.62991,0.161943,2.30914
1470262672554362,0.630585,0.157306,2.31132
1470262672569876,0.63002,0.152984,2.31491
1470262672591930,0.628913,0.151016,2.32018
1470262672614428,0.630713,0.151495,2.32663
1470262672628929,0.634707,0.153726,2.33397
1470262672651950,0.638194,0.157063,2.3425
1470262672674471,0.641222,0.162226,2.35222
1470262672695502,0.645389,0.168946,2.36271
1470262672712004,0.651363,0.177418,2.37335
1470262672734525,0.657577,0.186993,2.38397
1470262672755671,0.662016,0.196936,2.39363
1470262672772058,0.664896,0.206546,2.40226
1470262672794578,0.667776,0.215797,2.41034
1470262672815652,0.671232,0.225261,2.41722
1470262672832111,0.675004,0.234681,2.42314
1470262672854631,0.677208,0.243036,2.42896
1470262672875651,0.678234,0.251745,2.43434
1470262672892168,0.678816,0.260284,2.43895
1470262672914686,0.67915,0.268546,2.44299
1470262672935706,0.677358,0.277301,2.44663
1470262672951719,0.674832,0.287588,2.45008
1470262672974239,0.672788,0.299384,2.45339
1470262672995792,0.669493,0.312062,2.45619
1470262673012273,0.665039,0.326524,2.45853
1470262673042801,0.659749,0.342285,2.46034
1470262673055816,0.6554,0.358595,2.46185
1470262673072828,0.651175,0.375483,2.46325
1470262673094347,0.646882,0.392456,2.46474
1470262673115367,0.643356,0.409507,2.46644
1470262673131881,0.641816,0.426966,2.46845
1470262673161907,0.641628,0.444784,2.47073
1470262673175421,0.642336,0.462399,2.47334
1470262673191935,0.643429,0.479964,2.47577
1470262673214455,0.645638,0.498322,2.47925
1470262673235474,0.648162,0.517447,2.48243
1470262673251989,0.650086,0.537349,2.48482
1470262673274516,0.652168,0.558306,2.48696
1470262673295593,0.653961,0.580972,2.48831
1470262673318048,0.655397,0.606185,2.48929
1470262673334563,0.656781,0.633288,2.49049
1470262673355608,0.657151,0.662344,2.49211
1470262673371112,0.656267,0.693689,2.494
1470262673409631,0.657259,0.727672,2.49649
1470262673417138,0.662697,0.763886,2.5012
1470262673438281,0.670103,0.801372,2.50791
1470262673454172,0.677892,0.83976,2.51743
1470262673483243,0.689232,0.879366,2.52967
1470262673491241,0.705308,0.919754,2.54521
1470262673521738,0.725944,0.960633,2.56469
1470262673537244,0.75375,1.00221,2.5901
1470262673551258,0.787538,1.04423,2.62196
1470262673574778,0.827212,1.08437,2.66317
1470262673596801,0.877382,1.12455,2.71469
1470262673618319,0.944094,1.16491,2.77945
1470262673634834,1.01574,1.19717,2.85208
1470262673656852,1.1094,1.23156,2.94618
1470262673679873,1.21901,1.25807,3.05922
1470262673694386,1.34286,1.27773,-3.09684
1470262673716907,1.47986,1.29121,-2.95667
1470262673737925,1.62108,1.29686,-2.8125
1470262673754440,1.75782,1.29646,-2.67089
1470262673776960,1.88581,1.28975,-2.53553
1470262673797979,2.00231,1.27785,-2.41163
1470262673814494,2.10637,1.26198,-2.30252
1470262673837017,2.19598,1.24392,-2.20711
1470262673858034,2.26741,1.22423,-2.12819
1470262673874550,2.32713,1.20316,-2.06205
1470262673897068,2.37788,1.18154,-2.00543
1470262673918619,2.4214,1.15991,-1.95685
1470262673934601,2.45789,1.13767,-1.91518
1470262673964629,2.48815,1.11546,-1.88047
1470262673978158,2.51306,1.09355,-1.85144
1470262673994655,2.53329,1.07259,-1.82784
1470262674017176,2.55029,1.05212,-1.80797
1470262674039695,2.56314,1.03253,-1.79207
1470262674054710,2.57276,1.01393,-1.77998
1470262674077231,2.57877,0.996935,-1.77129
1470262674098323,2.58319,0.981259,-1.76491
1470262674113790,2.58635,0.96722,-1.76015
1470262674137283,2.58769,0.955333,-1.7572
1470262674158303,2.58791,0.945819,-1.75482
1470262674174817,2.58715,0.939217,-1.75376
1470262674204844,2.5836,0.934736,-1.75539
1470262674218356,2.57748,0.931602,-1.75837
1470262674233870,2.57205,0.930213,-1.76106
1470262674256892,2.56709,0.931397,-1.76367
1470262674277937,2.56123,0.935966,-1.76713
1470262674293924,2.55274,0.942478,-1.77276
1470262674316945,2.5408,0.950333,-1.78113
1470262674337966,2.52208,0.962487,-1.79426
1470262674353979,2.49756,0.977352,-1.81246
1470262674376999,2.4704,0.994336,-1.83501
1470262674400019,2.43948,1.01289,-1.86302
1470262674414032,2.40072,1.03337,-1.89902
1470262674437055,2.35188,1.05447,-1.94477
1470262674459573,2.29403,1.07393,-1.99952
1470262674474086,2.22388,1.09192,-2.06794
1470262674497106,2.13672,1.10681,-2.15249
1470262674519627,2.03661,1.11767,-2.25018
1470262674534140,1.93192,1.12471,-2.35513
1470262674557160,1.82608,1.12834,-2.46464
1470262674579682,1.71943,1.12684,-2.57671
1470262674600741,1.61417,1.12077,-2.69008
1470262674616793,1.51188,1.11086,-2.80357
1470262674639735,1.41502,1.09947,-2.91508
1470262674660772,1.32078,1.08446,-3.0239
1470262674677268,1.22748,1.06232,-3.12935
1470262674706839,1.13716,1.03203,3.05362
1470262674720808,1.05321,0.998091,2.9603
1470262674736822,0.97608,0.964652,2.87344
1470262674759342,0.910689,0.93172,2.79223
1470262674780861,0.858888,0.896696,2.71576
1470262674796878,0.817039,0.85849,2.64338
1470262674825470,0.778881,0.816846,2.57589
1470262674840429,0.740651,0.772517,2.51688
1470262674856983,0.700645,0.726727,2.46738
1470262674879450,0.660358,0.683139,2.42481
1470262674900471,0.6199,0.64396,2.38623
1470262674916983,0.584711,0.60599,2.35088
1470262674939504,0.557459,0.567213,2.31882
1470262674960541,0.530935,0.5288,2.29198
1470262674977037,0.508922,0.493686,2.26973
1470262674999558,0.494942,0.46063,2.24851
1470262675020643,0.494635,0.431108,2.23051
1470262675037095,0.501148,0.405309,2.21771
1470262675059612,0.50451,0.382389,2.20987
1470262675080648,0.502651,0.361514,2.20561
1470262675097147,0.500316,0.343578,2.20361
1470262675119665,0.50178,0.328027,2.20293
1470262675140747,0.506633,0.31359,2.20364
1470262675157199,0.513007,0.30056,2.20582
1470262675185725,0.518067,0.288782,2.2089
1470262675209754,0.521753,0.279547,2.21224
1470262675216255,0.526881,0.273049,2.21637
1470262675239773,0.534917,0.268606,2.22006
1470262675262294,0.542485,0.265447,2.22122
1470262675276306,0.545991,0.263553,2.22065
1470262675299327,0.54531,0.26219,2.21985
1470262675321847,0.54015,0.259592,2.21788
1470262675336360,0.532528,0.257961,2.21458
1470262675359387,0.525412,0.258667,2.20961
1470262675382402,0.517379,0.259357,2.20252
1470262675396456,0.50812,0.258778,2.19339
1470262675419435,0.497459,0.257997,2.18391
1470262675441956,0.486485,0.256637,2.17677
1470262675456469,0.469833,0.253883,2.16744
1470262675479488,0.450343,0.250684,2.15609
1470262675502010,0.435153,0.249049,2.1465
1470262675523028,0.422804,0.246964,2.13668
1470262675539546,0.407106,0.244807,2.12529
1470262675562062,0.393569,0.243218,2.11318
1470262675583082,0.385474,0.240226,2.10277
1470262675599597,0.380478,0.236203,2.09319
1470262675622117,0.374582,0.232479,2.08333
1470262675643164,0.366188,0.227556,2.07372
1470262675659650,0.356247,0.222343,2.06635
1470262675682171,0.345439,0.217628,2.06026
1470262675704691,0.336842,0.214458,2.05375
1470262675719705,0.330248,0.212359,2.04641
1470262675742224,0.328995,0.209994,2.04074
1470262675763259,0.330649,0.208221,2.0366
1470262675785802,0.329529,0.209085,2.03417
1470262675802298,0.326133,0.210769,2.03327
1470262675823329,0.323737,0.211798,2.03295
1470262675839312,0.324017,0.213287,2.03354
1470262675868338,0.326338,0.215328,2.03481
1470262675882850,0.329752,0.218005,2.03627
1470262675899867,0.334546,0.221337,2.03734
1470262675921886,0.341114,0.225177,2.03792
1470262675942906,0.347533,0.227823,2.03828
1470262675958921,0.351812,0.229562,2.03854
1470262675966439,0.352704,0.230833,2.03926
1470262675987446,0.351724,0.232211,2.03938
1470262676009966,0.35075,0.234301,2.03838
1470262676026479,0.351465,0.236075,2.03717
1470262676047514,0.353316,0.237151,2.03629
1470262676070034,0.355473,0.238038,2.03649
1470262676092594,0.35694,0.238797,2.03765
1470262676107596,0.358167,0.239773,2.03865
1470262676130072,0.359605,0.241325,2.03891
1470262676145086,0.360983,0.243006,2.03914
1470262676167606,0.362446,0.245275,2.03896
1470262676190142,0.363261,0.247865,2.03819
1470262676205143,0.363192,0.250446,2.03703
1470262676235167,0.361364,0.252652,2.03513
1470262676250181,0.358375,0.254617,2.0337
1470262676265193,0.354503,0.255849,2.03299
1470262676287715,0.351064,0.25633,2.03275
1470262676310234,0.348505,0.256878,2.03281
1470262676325382,0.346344,0.257223,2.03232
1470262676347768,0.344654,0.257755,2.03166
1470262676370289,0.343461,0.258258,2.03133
1470262676384801,0.343091,0.259071,2.0311
1470262676407321,0.344819,0.260688,2.03141
1470262676429843,0.34738,0.262369,2.03172
1470262676445373,0.349115,0.26396,2.03208
1470262676467375,0.349852,0.265251,2.03234
1470262676489923,0.34948,0.266092,2.03208
1470262676504942,0.349394,0.267432,2.03168
1470262676528931,0.348927,0.268455,2.03163
1470262676549950,0.348085,0.26908,2.03158
1470262676572530,0.347478,0.269621,2.03146
1470262676587484,0.347478,0.269621,2.03146
1470262676610021,0.3479,0.269391,2.03111
1470262676625063,0.349123,0.269083,2.03081
1470262676647540,0.350562,0.268414,2.03071
1470262676670066,0.351177,0.267407,2.03055
1470262676686572,0.351169,0.266443,2.03037
1470262676707680,0.350755,0.265352,2.0301
1470262676733151,0.350834,0.264507,2.02973
1470262676745126,0.350798,0.263789,2.02902
1470262676767645,0.350752,0.263565,2.02804
1470262676790165,0.350879,0.26336,2.02751
1470262676805178,0.351095,0.26322,2.02687
1470262676827699,0.351162,0.263091,2.0264
1470262676850240,0.351162,0.263091,2.0264
1470262676868350,0.351162,0.263091,2.0264
1470262676887267,0.351538,0.263435,2.0265
1470262676910273,0.352243,0.263541,2.02677
1470262676926290,0.352813,0.263329,2.02672
1470262676947338,0.352408,0.263009,2.02642
1470262676970331,0.351847,0.262947,2.0264
1470262676986341,0.351909,0.262844,2.02638
1470262677010912,0.351909,0.262844,2.02638
1470262677029896,0.351909,0.262844,2.02638
1470262677046396,0.351577,0.263138,2.02612
1470262677067416,0.350745,0.263487,2.02549
1470262677089950,0.350563,0.26377,2.02507
1470262677106451,0.350563,0.26377,2.02507
1470262677128969,0.350025,0.26393,2.02486
1470262677150014,0.349543,0.264234,2.02477
1470262677166505,0.349428,0.264166,2.02472
1470262677187522,0.349899,0.264357,2.02455
1470262677210045,0.350077,0.264322,2.02459
1470262677228064,0.349372,0.264216,2.02432
1470262677247593,0.348756,0.264009,2.02419
1470262677270096,0.348641,0.263941,2.02414
1470262677288112,0.348641,0.263941,2.02414
1470262677307630,0.348641,0.263941,2.02414
1470262677330155,0.348641,0.263941,2.02414
1470262677348167,0.349056,0.263988,2.02386
1470262677370686,0.349201,0.264226,2.02332
1470262677391210,0.34919,0.264721,2.02305
1470262677408224,0.349198,0.265658,2.02276
1470262677427737,0.349879,0.266755,2.0225
1470262677453260,0.350409,0.268083,2.02207
1470262677467774,0.350317,0.269231,2.02196
1470262677487872,0.349864,0.270695,2.0219
1470262677509887,0.349847,0.27243,2.02189
1470262677527831,0.350512,0.27427,2.02199
1470262677547872,0.350738,0.275867,2.02201
1470262677570375,0.350026,0.277027,2.02194
1470262677587926,0.348967,0.27779,2.02201
1470262677607428,0.347891,0.278082,2.02215
1470262677629923,0.346877,0.27827,2.02227
1470262677647962,0.345988,0.278253,2.02237
1470262677674962,0.34515,0.278434,2.02249
1470262677689991,0.344046,0.278751,2.02242
1470262677708007,0.34172,0.279345,2.0222
1470262677727553,0.338937,0.280217,2.02157
1470262677750069,0.339667,0.280684,2.02095
1470262677768043,0.340604,0.281065,2.02011
1470262677787595,0.341599,0.281591,2.01938
1470262677810113,0.341875,0.28234,2.01887
1470262677827597,0.341593,0.282805,2.01867
1470262677849116,0.341704,0.283093,2.01838
1470262677870137,0.342022,0.283295,2.01788
1470262677888151,0.341902,0.283447,2.01749
1470262677909171,0.341964,0.283343,2.01747
1470262677930190,0.341964,0.283343,2.01747
1470262677948323,0.342074,0.28366,2.01764
1470262677968723,0.342205,0.2842,2.01763
1470262677990324,0.342551,0.284598,2.01749
1470262678008298,0.342551,0.284598,2.01749
1470262678037285,0.342224,0.284616,2.01716
1470262678050323,0.342224,0.284616,2.01716
1470262678067813,0.342224,0.284616,2.01716
1470262678090882,0.342109,0.284547,2.0171
1470262678109851,0.342109,0.284547,2.0171
1470262678128374,0.342109,0.284547,2.0171
1470262678148885,0.342109,0.284547,2.0171
1470262678169965,0.3418,0.285036,2.01721
1470262678187980,0.341774,0.285863,2.01743
1470262678210473,0.341904,0.286623,2.01759
1470262678231459,0.342349,0.287642,2.01765
1470262678247976,0.342479,0.288403,2.01781
1470262678270494,0.342249,0.28926,2.01784
1470262678290014,0.341925,0.290301,2.01809
1470262678314534,0.341575,0.291338,2.01819
1470262678330551,0.341248,0.292408,2.0184
1470262678350083,0.340903,0.293197,2.01838
1470262678368109,0.34015,0.293692,2.01851
1470262678398216,0.339164,0.293828,2.01837
1470262678410121,0.338771,0.294005,2.01846
1470262678428184,0.338683,0.294105,2.01832
1470262678450657,0.338685,0.293913,2.01861
1470262678470702,0.338491,0.293476,2.01864
1470262678487193,0.338188,0.292529,2.01878
1470262678509709,0.337781,0.291211,2.01884
1470262678530728,0.337673,0.289679,2.01888
1470262678547243,0.337473,0.288274,2.01872
1470262678569764,0.337303,0.286817,2.01831
1470262678590782,0.337044,0.285295,2.01801
1470262678606833,0.33658,0.284025,2.01768
1470262678629349,0.33663,0.28323,2.01757
1470262678650865,0.336702,0.282822,2.01702
1470262678667351,0.336851,0.282782,2.0164
1470262678689372,0.336839,0.283055,2.01597
1470262678710889,0.336886,0.283447,2.01569
1470262678727405,0.337347,0.283914,2.0156
1470262678756933,0.338051,0.284216,2.01558
1470262678770943,0.338051,0.284216,2.01558
1470262678794466,0.337998,0.284044,2.01552
1470262678809478,0.337998,0.284044,2.01552
1470262678830497,0.337998,0.284044,2.01552
1470262678847030,0.338172,0.284065,2.01597
1470262678869545,0.337822,0.283915,2.01623
1470262678890564,0.337644,0.28395,2.01619
1470262678907066,0.337644,0.28395,2.01619
1470262678929587,0.337644,0.28395,2.01619
1470262678950605,0.337528,0.283881,2.01614
1470262678967120,0.33759,0.283778,2.01613
1470262678989640,0.337937,0.283984,2.01628
1470262679010659,0.338374,0.284255,2.01633
1470262679027174,0.338853,0.2842,2.01655
1470262679049694,0.339325,0.2842,2.01668
1470262679072214,0.339209,0.284131,2.01663
1470262679087228,0.339569,0.284034,2.01675
1470262679109748,0.339453,0.283965,2.0167
1470262679131769,0.339453,0.283965,2.0167
1470262679147283,0.339453,0.283965,2.0167
1470262679169802,0.339442,0.284461,2.01694
1470262679191843,0.339626,0.285202,2.01745
1470262679206856,0.339693,0.286066,2.01761
1470262679229355,0.339472,0.286648,2.01757
1470262679251876,0.339247,0.287258,2.01748
1470262679266389,0.339203,0.287805,2.01747
1470262679289912,0.339454,0.288387,2.01756
1470262679311963,0.339454,0.288387,2.01756
1470262679326443,0.33957,0.288455,2.01761
1470262679349964,0.338951,0.288275,2.01793
1470262679371984,0.338116,0.288429,2.01809
1470262679394504,0.338116,0.288429,2.01809
1470262679409517,0.338102,0.288924,2.01783
1470262679432039,0.338102,0.288924,2.01783
1470262679453561,0.337986,0.288855,2.01778
1470262679477085,0.337986,0.288855,2.01778
1470262679492117,0.337986,0.288855,2.01778
1470262679513154,0.337986,0.288855,2.01778
1470262679535674,0.337409,0.288319,2.01782
1470262679552146,0.337409,0.288319,2.01782
1470262679573206,0.337293,0.288251,2.01777
1470262679589687,0.337553,0.288336,2.01761
1470262679619205,0.337788,0.288417,2.0173
1470262679633219,0.33785,0.288313,2.01729
1470262679649732,0.33785,0.288313,2.01729
1470262679672255,0.338042,0.287755,2.01713
1470262679693300,0.337762,0.287197,2.01684
1470262679709287,0.337824,0.287093,2.01683
1470262679732307,0.33785,0.287097,2.01699
1470262679753418,0.338315,0.287537,2.01694
1470262679769341,0.339133,0.287935,2.01693
1470262679792361,0.339511,0.288254,2.01658
1470262679813379,0.339156,0.288103,2.01634
1470262679829894,0.339156,0.288103,2.01634
1470262679851915,0.33904,0.288034,2.01628
1470262679872966,0.339579,0.287903,2.01645
1470262679889448,0.339579,0.287903,2.01645
1470262679911970,0.339579,0.287903,2.01645
1470262679932989,0.339838,0.288209,2.01646
1470262679949503,0.340126,0.288463,2.01621
1470262679972022,0.340509,0.288534,2.01574
1470262679993097,0.340509,0.288534,2.01574
1470262680009556,0.340509,0.288534,2.01574
1470262680032076,0.340572,0.288431,2.01572
1470262680062103,0.340482,0.288366,2.01583
1470262680069611,0.340866,0.288465,2.01582
1470262680092130,0.341158,0.288692,2.01561
1470262680114651,0.341116,0.289019,2.01544
1470262680129664,0.341515,0.289591,2.01537
1470262680152184,0.341951,0.290055,2.01512
1470262680174705,0.342326,0.29043,2.01518
1470262680197225,0.342612,0.290741,2.01535
1470262680212239,0.34317,0.291054,2.0155
1470262680234758,0.34317,0.291054,2.0155
1470262680255793,0.34317,0.291054,2.0155
1470262680272293,0.343054,0.290985,2.01545
1470262680294385,0.343116,0.290882,2.01544
1470262680308825,0.343232,0.290951,2.01549
1470262680339853,0.343232,0.290951,2.01549
1470262680354866,0.343232,0.290951,2.01549
1470262680368879,0.343198,0.291222,2.01541
1470262680392399,0.343267,0.291867,2.01541
1470262680414419,0.343608,0.292514,2.01539
1470262680428933,0.343976,0.293166,2.01553
1470262680452454,0.344228,0.293748,2.01562
1470262680474474,0.344157,0.294127,2.01571
1470262680488986,0.343888,0.294316,2.01594
1470262680512007,0.343772,0.294247,2.01589
1470262680534528,0.343768,0.294275,2.01585
1470262680555560,0.343768,0.294275,2.01585
1470262680572061,0.343768,0.294275,2.01585
1470262680594583,0.343652,0.294206,2.01579
1470262680615644,0.343763,0.294523,2.01597
1470262680632115,0.343647,0.294454,2.01591
1470262680654635,0.343647,0.294454,2.01591
1470262680675672,0.343178,0.294206,2.01566
1470262680692169,0.343178,0.294206,2.01566
1470262680714689,0.343178,0.294206,2.01566
1470262680735710,0.343062,0.294137,2.01561
1470262680752222,0.343062,0.294137,2.01561
1470262680782250,0.342942,0.294096,2.01551
1470262680795781,0.343005,0.293773,2.01533
1470262680812277,0.342875,0.293176,2.01493
1470262680834797,0.342837,0.292287,2.01496
1470262680855858,0.34263,0.291157,2.01488
1470262680872345,0.341922,0.289859,2.01476
1470262680894350,0.34143,0.288419,2.01451
1470262680915869,0.340956,0.287259,2.01449
1470262680932384,0.340311,0.28605,2.01407
1470262680954905,0.339537,0.284911,2.01388
1470262680976927,0.338784,0.283414,2.01375
1470262680991959,0.338672,0.282158,2.01387
1470262681014959,0.339351,0.281298,2.01381
1470262681036978,0.340186,0.28018,2.01348
1470262681058498,0.34051,0.279361,2.01289
1470262681074517,0.34069,0.279299,2.01247
1470262681097033,0.341472,0.279943,2.01192
1470262681112046,0.343024,0.280596,2.01163
1470262681142073,0.344356,0.280835,2.01167
1470262681157086,0.344382,0.280838,2.01182
1470262681171599,0.344204,0.279906,2.01211
1470262681194620,0.343787,0.278917,2.01267
1470262681217142,0.343787,0.277951,2.013
1470262681231152,0.343554,0.276875,2.01318
1470262681254674,0.342571,0.276042,2.01337
1470262681277194,0.341369,0.27557,2.01336
1470262681291206,0.34125,0.275528,2.01327
1470262681314729,0.340753,0.275525,2.01248
1470262681337248,0.340536,0.275857,2.01181
1470262681351761,0.340849,0.276308,2.01142
1470262681374782,0.341022,0.276494,2.01112
1470262681397302,0.341022,0.276494,2.01112
1470262681411317,0.340183,0.275898,2.01078
1470262681434836,0.339393,0.274727,2.01049
1470262681457355,0.339439,0.273243,2.01079
1470262681471371,0.338582,0.271459,2.01096
1470262681494889,0.337385,0.270022,2.01129
1470262681517410,0.336607,0.269352,2.01139
1470262681538429,0.336492,0.269283,2.01135
1470262681554443,0.337103,0.269713,2.01113
1470262681576964,0.337373,0.27049,2.01106
1470262681598609,0.337335,0.271535,2.01144
1470262681614497,0.338077,0.273059,2.01252
1470262681637017,0.338555,0.274552,2.01366
1470262681658050,0.339207,0.276423,2.01421
1470262681674551,0.339859,0.278293,2.01426
1470262681697073,0.339195,0.279624,2.01425
1470262681718092,0.337289,0.280976,2.01431
1470262681734606,0.33525,0.281653,2.01459
1470262681757126,0.334054,0.282093,2.01433
1470262681778146,0.332672,0.282652,2.01441
1470262681794659,0.330407,0.283136,2.01418
1470262681817179,0.328657,0.283263,2.01378
1470262681839699,0.327091,0.283107,2.01331
1470262681854713,0.326508,0.282816,2.01297
1470262681877733,0.325863,0.282628,2.01265
1470262681898252,0.325748,0.28256,2.0126
1470262681914767,0.326189,0.282582,2.01252
1470262681937287,0.327129,0.282742,2.01202
1470262681959807,0.327751,0.282865,2.01127
1470262681974820,0.327737,0.283136,2.01084
1470262682004848,0.327899,0.283596,2.01062
1470262682019861,0.328442,0.284155,2.01037
1470262682034875,0.329439,0.284463,2.00998
1470262682056943,0.329439,0.284463,2.00998
1470262682079915,0.329031,0.284359,2.00984
1470262682094428,0.328915,0.28429,2.00979
1470262682117448,0.329192,0.283881,2.0099
1470262682139969,0.329388,0.283322,2.00975
1470262682154004,0.329129,0.282269,2.00973
1470262682177003,0.328429,0.281193,2.0098
1470262682199526,0.328137,0.280221,2.01
1470262682214036,0.328225,0.280122,2.01015
1470262682237058,0.328465,0.279984,2.01017
1470262682259576,0.32835,0.279915,2.01012
1470262682274089,0.328226,0.280091,2.00969
1470262682297110,0.328506,0.280593,2.00955
1470262682320133,0.329095,0.281573,2.00948
1470262682340692,0.329646,0.282661,2.00958
1470262682357187,0.329923,0.283384,2.00961
1470262682379684,0.330525,0.283898,2.00977
1470262682394197,0.330552,0.284067,2.00967
1470262682417719,0.330552,0.284067,2.00967
1470262682445786,0.330552,0.284067,2.00967
1470262682460801,0.330462,0.284001,2.00978
1470262682477271,0.329144,0.283651,2.00942
1470262682499792,0.326899,0.283414,2.00929
1470262682520852,0.325188,0.283271,2.00949
1470262682537325,0.32416,0.283919,2.00889
1470262682559845,0.324681,0.284998,2.00833
1470262682580365,0.328081,0.287064,2.00938
1470262682597380,0.330295,0.288216,2.0106
1470262682619900,0.331474,0.288493,2.01076
1470262682640918,0.332521,0.288227,2.01042
1470262682657433,0.332854,0.287933,2.01018
1470262682679953,0.332127,0.287434,2.01034
1470262682700472,0.332011,0.287365,2.01029
1470262682716987,0.332405,0.28716,2.00974
1470262682739507,0.333465,0.287366,2.00934
1470262682761029,0.334409,0.287504,2.00889
1470262682777041,0.334938,0.287621,2.00867
1470262682799561,0.335499,0.287688,2.00869
1470262682820598,0.33696,0.28753,2.00901
1470262682837095,0.33837,0.287007,2.00955
1470262682859615,0.338815,0.286093,2.01026
1470262682880649,0.338736,0.284978,2.01033
1470262682897149,0.338854,0.284052,2.01025
1470262682919669,0.338081,0.283132,2.01023
1470262682942189,0.336796,0.282539,2.01041
1470262682956201,0.33668,0.28247,2.01036
1470262682979723,0.337528,0.282819,2.01059
1470262683002243,0.33867,0.283203,2.01091
1470262683017258,0.33902,0.283383,2.01111
1470262683039777,0.338399,0.283392,2.01114
1470262683062297,0.337402,0.283054,2.01107
1470262683076310,0.336931,0.282889,2.01169
1470262683099830,0.336365,0.282908,2.01254
1470262683122351,0.335453,0.282692,2.01278
1470262683136365,0.334551,0.282201,2.01295
1470262683167391,0.333705,0.281823,2.01226
1470262683181905,0.332063,0.281298,2.01186
1470262683196419,0.3303,0.280953,2.01154
1470262683225945,0.329265,0.280914,2.01135
1470262683241959,0.32915,0.280845,2.0113
1470262683263478,0.329754,0.281328,2.01099
1470262683279493,0.330238,0.281769,2.0106
1470262683309519,0.330285,0.28216,2.01032
1470262683316525,0.33013,0.282389,2.01014
1470262683339546,0.330067,0.282493,2.01015
1470262683362066,0.329952,0.282423,2.0101
1470262683376579,0.330206,0.282757,2.01006
1470262683399601,0.330856,0.282888,2.00998
1470262683422120,0.331407,0.2832,2.00961
1470262683443171,0.331543,0.283656,2.00923
1470262683459654,0.331288,0.284096,2.00923
1470262683482175,0.330858,0.284543,2.00924
1470262683510701,0.330519,0.285055,2.00914
1470262683519707,0.330082,0.285556,2.00906
1470262683542233,0.329887,0.286084,2.00875
1470262683563269,0.329985,0.286648,2.00853
1470262683579761,0.329612,0.28721,2.00819
1470262683602286,0.329215,0.287577,2.00798
1470262683623300,0.32893,0.28804,2.00778
1470262683639816,0.328563,0.288353,2.00732
1470262683662350,0.327717,0.288749,2.0071
1470262683667342,0.326638,0.289229,2.00693
1470262683690362,0.325184,0.290106,2.00668
1470262683705415,0.323065,0.291319,2.00629
1470262683727396,0.320953,0.292445,2.00552
1470262683750424,0.32187,0.294071,2.00492
1470262683764929,0.323358,0.295579,2.00515
1470262683787507,0.323965,0.296068,2.00536
1470262683809970,0.324516,0.296412,2.00545
