GRT_LABELLED_TIME_SERIES_CLASSIFICATION_DATA_FILE_V1.0
DatasetName: Orient_Training_Data
InfoText: Gesture_Names:
Transport_Empty
Grasp
Transport_Load
Test
NumDimensions: 3
TotalNumTrainingExamples: 45
NumberOfClasses: 3
ClassIDsAndCounters: 
1	15
2	15
3	15
UseExternalRanges: 0
LabelledTimeSeriesTrainingData:
************TIME_SERIES************
ClassID: 1
TimeSeriesLength: 17
TimeSeriesData: 
0.422871	0.0236221	-0.481413
0.421805	0.0358891	-0.465175
0.435117	0.0378204	-0.43046
0.440735	0.033901	-0.403336
0.443014	0.0291069	-0.390819
0.442565	0.0312453	-0.388782
0.442957	0.0279289	-0.391492
0.437021	0.0106775	-0.393306
0.417699	0.0184028	-0.371874
0.307928	0.0964091	-0.383505
0.111209	0.157954	-0.355258
-0.131239	0.179601	-0.320774
-0.366384	0.159545	-0.300153
-0.594675	0.0907632	-0.295234
-0.689789	0.0385849	-0.310917
-0.758594	-0.0112143	-0.374074
-0.764949	0.00967407	-0.394356
************TIME_SERIES************
ClassID: 1
TimeSeriesLength: 31
TimeSeriesData: 
0.422871	0.0236221	-0.481413
0.421805	0.0358891	-0.465175
0.435117	0.0378204	-0.43046
0.440735	0.033901	-0.403336
0.443014	0.0291069	-0.390819
0.442565	0.0312453	-0.388782
0.442957	0.0279289	-0.391492
0.437021	0.0106775	-0.393306
0.417699	0.0184028	-0.371874
0.307928	0.0964091	-0.383505
0.111209	0.157954	-0.355258
-0.131239	0.179601	-0.320774
-0.366384	0.159545	-0.300153
-0.594675	0.0907632	-0.295234
-0.689789	0.0385849	-0.310917
-0.758594	-0.0112143	-0.374074
-0.764949	0.00967407	-0.394356
-0.714994	0.132575	-0.457947
-0.711492	0.133952	-0.460934
-0.699206	0.121269	-0.49929
-0.630166	0.146982	-0.55655
-0.475362	0.221273	-0.637014
-0.24292	0.262338	-0.687204
-0.0562045	0.248761	-0.682437
0.119289	0.216807	-0.653243
0.289175	0.186517	-0.614554
0.42928	0.111786	-0.52022
0.548884	-0.0130976	-0.411759
0.633895	-0.145189	-0.303772
0.6569	-0.211202	-0.268208
0.663497	-0.25732	-0.26633
************TIME_SERIES************
ClassID: 1
TimeSeriesLength: 44
TimeSeriesData: 
0.422871	0.0236221	-0.481413
0.421805	0.0358891	-0.465175
0.435117	0.0378204	-0.43046
0.440735	0.033901	-0.403336
0.443014	0.0291069	-0.390819
0.442565	0.0312453	-0.388782
0.442957	0.0279289	-0.391492
0.437021	0.0106775	-0.393306
0.417699	0.0184028	-0.371874
0.307928	0.0964091	-0.383505
0.111209	0.157954	-0.355258
-0.131239	0.179601	-0.320774
-0.366384	0.159545	-0.300153
-0.594675	0.0907632	-0.295234
-0.689789	0.0385849	-0.310917
-0.758594	-0.0112143	-0.374074
-0.764949	0.00967407	-0.394356
-0.714994	0.132575	-0.457947
-0.711492	0.133952	-0.460934
-0.699206	0.121269	-0.49929
-0.630166	0.146982	-0.55655
-0.475362	0.221273	-0.637014
-0.24292	0.262338	-0.687204
-0.0562045	0.248761	-0.682437
0.119289	0.216807	-0.653243
0.289175	0.186517	-0.614554
0.42928	0.111786	-0.52022
0.548884	-0.0130976	-0.411759
0.633895	-0.145189	-0.303772
0.6569	-0.211202	-0.268208
0.663497	-0.25732	-0.26633
0.677622	-0.234304	-0.204001
0.630809	-0.209206	-0.0772626
0.546994	-0.15567	-0.0579421
0.399018	-0.116741	-0.0259089
0.171946	-0.0993935	-0.00445301
-0.0277973	-0.107896	0.0345485
-0.213388	-0.120809	0.0578954
-0.373859	-0.115628	0.0319007
-0.513856	-0.0946767	-0.0282797
-0.628402	-0.0823044	-0.0889138
-0.714852	-0.108848	-0.131713
-0.757733	-0.123938	-0.170415
-0.771483	-0.137438	-0.19799
************TIME_SERIES************
ClassID: 1
TimeSeriesLength: 60
TimeSeriesData: 
0.422871	0.0236221	-0.481413
0.421805	0.0358891	-0.465175
0.435117	0.0378204	-0.43046
0.440735	0.033901	-0.403336
0.443014	0.0291069	-0.390819
0.442565	0.0312453	-0.388782
0.442957	0.0279289	-0.391492
0.437021	0.0106775	-0.393306
0.417699	0.0184028	-0.371874
0.307928	0.0964091	-0.383505
0.111209	0.157954	-0.355258
-0.131239	0.179601	-0.320774
-0.366384	0.159545	-0.300153
-0.594675	0.0907632	-0.295234
-0.689789	0.0385849	-0.310917
-0.758594	-0.0112143	-0.374074
-0.764949	0.00967407	-0.394356
-0.714994	0.132575	-0.457947
-0.711492	0.133952	-0.460934
-0.699206	0.121269	-0.49929
-0.630166	0.146982	-0.55655
-0.475362	0.221273	-0.637014
-0.24292	0.262338	-0.687204
-0.0562045	0.248761	-0.682437
0.119289	0.216807	-0.653243
0.289175	0.186517	-0.614554
0.42928	0.111786	-0.52022
0.548884	-0.0130976	-0.411759
0.633895	-0.145189	-0.303772
0.6569	-0.211202	-0.268208
0.663497	-0.25732	-0.26633
0.677622	-0.234304	-0.204001
0.630809	-0.209206	-0.0772626
0.546994	-0.15567	-0.0579421
0.399018	-0.116741	-0.0259089
0.171946	-0.0993935	-0.00445301
-0.0277973	-0.107896	0.0345485
-0.213388	-0.120809	0.0578954
-0.373859	-0.115628	0.0319007
-0.513856	-0.0946767	-0.0282797
-0.628402	-0.0823044	-0.0889138
-0.714852	-0.108848	-0.131713
-0.757733	-0.123938	-0.170415
-0.771483	-0.137438	-0.19799
-0.738001	-0.0993457	-0.204411
-0.73115	-0.127229	-0.258475
-0.721929	-0.107476	-0.22534
-0.69969	-0.0374565	-0.148313
-0.651325	0.0801247	-0.0258107
-0.605055	0.209809	0.0787381
-0.521174	0.351362	0.109234
-0.400349	0.445732	0.0527471
-0.265374	0.45462	-0.0486222
-0.124885	0.382095	-0.151429
0.00495976	0.194309	-0.271072
0.0521885	0.0311974	-0.312517
0.108834	-0.0856313	-0.319284
0.188203	-0.153987	-0.346151
0.246637	-0.189128	-0.362112
0.27	-0.212926	-0.37212
************TIME_SERIES************
ClassID: 1
TimeSeriesLength: 76
TimeSeriesData: 
0.422871	0.0236221	-0.481413
0.421805	0.0358891	-0.465175
0.435117	0.0378204	-0.43046
0.440735	0.033901	-0.403336
0.443014	0.0291069	-0.390819
0.442565	0.0312453	-0.388782
0.442957	0.0279289	-0.391492
0.437021	0.0106775	-0.393306
0.417699	0.0184028	-0.371874
0.307928	0.0964091	-0.383505
0.111209	0.157954	-0.355258
-0.131239	0.179601	-0.320774
-0.366384	0.159545	-0.300153
-0.594675	0.0907632	-0.295234
-0.689789	0.0385849	-0.310917
-0.758594	-0.0112143	-0.374074
-0.764949	0.00967407	-0.394356
-0.714994	0.132575	-0.457947
-0.711492	0.133952	-0.460934
-0.699206	0.121269	-0.49929
-0.630166	0.146982	-0.55655
-0.475362	0.221273	-0.637014
-0.24292	0.262338	-0.687204
-0.0562045	0.248761	-0.682437
0.119289	0.216807	-0.653243
0.289175	0.186517	-0.614554
0.42928	0.111786	-0.52022
0.548884	-0.0130976	-0.411759
0.633895	-0.145189	-0.303772
0.6569	-0.211202	-0.268208
0.663497	-0.25732	-0.26633
0.677622	-0.234304	-0.204001
0.630809	-0.209206	-0.0772626
0.546994	-0.15567	-0.0579421
0.399018	-0.116741	-0.0259089
0.171946	-0.0993935	-0.00445301
-0.0277973	-0.107896	0.0345485
-0.213388	-0.120809	0.0578954
-0.373859	-0.115628	0.0319007
-0.513856	-0.0946767	-0.0282797
-0.628402	-0.0823044	-0.0889138
-0.714852	-0.108848	-0.131713
-0.757733	-0.123938	-0.170415
-0.771483	-0.137438	-0.19799
-0.738001	-0.0993457	-0.204411
-0.73115	-0.127229	-0.258475
-0.721929	-0.107476	-0.22534
-0.69969	-0.0374565	-0.148313
-0.651325	0.0801247	-0.0258107
-0.605055	0.209809	0.0787381
-0.521174	0.351362	0.109234
-0.400349	0.445732	0.0527471
-0.265374	0.45462	-0.0486222
-0.124885	0.382095	-0.151429
0.00495976	0.194309	-0.271072
0.0521885	0.0311974	-0.312517
0.108834	-0.0856313	-0.319284
0.188203	-0.153987	-0.346151
0.246637	-0.189128	-0.362112
0.27	-0.212926	-0.37212
0.278287	-0.168442	-0.35201
0.273194	-0.195398	-0.388742
0.264741	-0.17102	-0.383131
0.209833	-0.0941142	-0.383011
0.122496	0.0195535	-0.442204
0.0159793	0.102996	-0.518838
-0.0805741	0.148798	-0.604682
-0.165603	0.163315	-0.688119
-0.262923	0.164855	-0.744919
-0.381007	0.16292	-0.727237
-0.524084	0.124142	-0.651027
-0.624838	0.0455066	-0.563836
-0.695884	-0.0565195	-0.456605
-0.745148	-0.138552	-0.321686
-0.770753	-0.20646	-0.186337
-0.7746	-0.220425	-0.135811
************TIME_SERIES************
ClassID: 1
TimeSeriesLength: 92
TimeSeriesData: 
0.422871	0.0236221	-0.481413
0.421805	0.0358891	-0.465175
0.435117	0.0378204	-0.43046
0.440735	0.033901	-0.403336
0.443014	0.0291069	-0.390819
0.442565	0.0312453	-0.388782
0.442957	0.0279289	-0.391492
0.437021	0.0106775	-0.393306
0.417699	0.0184028	-0.371874
0.307928	0.0964091	-0.383505
0.111209	0.157954	-0.355258
-0.131239	0.179601	-0.320774
-0.366384	0.159545	-0.300153
-0.594675	0.0907632	-0.295234
-0.689789	0.0385849	-0.310917
-0.758594	-0.0112143	-0.374074
-0.764949	0.00967407	-0.394356
-0.714994	0.132575	-0.457947
-0.711492	0.133952	-0.460934
-0.699206	0.121269	-0.49929
-0.630166	0.146982	-0.55655
-0.475362	0.221273	-0.637014
-0.24292	0.262338	-0.687204
-0.0562045	0.248761	-0.682437
0.119289	0.216807	-0.653243
0.289175	0.186517	-0.614554
0.42928	0.111786	-0.52022
0.548884	-0.0130976	-0.411759
0.633895	-0.145189	-0.303772
0.6569	-0.211202	-0.268208
0.663497	-0.25732	-0.26633
0.677622	-0.234304	-0.204001
0.630809	-0.209206	-0.0772626
0.546994	-0.15567	-0.0579421
0.399018	-0.116741	-0.0259089
0.171946	-0.0993935	-0.00445301
-0.0277973	-0.107896	0.0345485
-0.213388	-0.120809	0.0578954
-0.373859	-0.115628	0.0319007
-0.513856	-0.0946767	-0.0282797
-0.628402	-0.0823044	-0.0889138
-0.714852	-0.108848	-0.131713
-0.757733	-0.123938	-0.170415
-0.771483	-0.137438	-0.19799
-0.738001	-0.0993457	-0.204411
-0.73115	-0.127229	-0.258475
-0.721929	-0.107476	-0.22534
-0.69969	-0.0374565	-0.148313
-0.651325	0.0801247	-0.0258107
-0.605055	0.209809	0.0787381
-0.521174	0.351362	0.109234
-0.400349	0.445732	0.0527471
-0.265374	0.45462	-0.0486222
-0.124885	0.382095	-0.151429
0.00495976	0.194309	-0.271072
0.0521885	0.0311974	-0.312517
0.108834	-0.0856313	-0.319284
0.188203	-0.153987	-0.346151
0.246637	-0.189128	-0.362112
0.27	-0.212926	-0.37212
0.278287	-0.168442	-0.35201
0.273194	-0.195398	-0.388742
0.264741	-0.17102	-0.383131
0.209833	-0.0941142	-0.383011
0.122496	0.0195535	-0.442204
0.0159793	0.102996	-0.518838
-0.0805741	0.148798	-0.604682
-0.165603	0.163315	-0.688119
-0.262923	0.164855	-0.744919
-0.381007	0.16292	-0.727237
-0.524084	0.124142	-0.651027
-0.624838	0.0455066	-0.563836
-0.695884	-0.0565195	-0.456605
-0.745148	-0.138552	-0.321686
-0.770753	-0.20646	-0.186337
-0.7746	-0.220425	-0.135811
-0.704762	-0.144579	-0.206372
-0.647199	-0.0993495	-0.220499
-0.564748	-0.0677751	-0.239479
-0.448709	-0.0516988	-0.281102
-0.313888	-0.0505173	-0.316211
-0.178261	-0.0505656	-0.360771
-0.0498015	-0.0466753	-0.418674
0.0668932	-0.0787544	-0.436017
0.141934	-0.130058	-0.379377
0.224566	-0.18023	-0.301878
0.320109	-0.225414	-0.24015
0.419835	-0.264348	-0.176083
0.517184	-0.28865	-0.128915
0.602168	-0.300926	-0.13734
0.636744	-0.311668	-0.130286
0.649288	-0.307772	-0.142335
************TIME_SERIES************
ClassID: 1
TimeSeriesLength: 108
TimeSeriesData: 
0.422871	0.0236221	-0.481413
0.421805	0.0358891	-0.465175
0.435117	0.0378204	-0.43046
0.440735	0.033901	-0.403336
0.443014	0.0291069	-0.390819
0.442565	0.0312453	-0.388782
0.442957	0.0279289	-0.391492
0.437021	0.0106775	-0.393306
0.417699	0.0184028	-0.371874
0.307928	0.0964091	-0.383505
0.111209	0.157954	-0.355258
-0.131239	0.179601	-0.320774
-0.366384	0.159545	-0.300153
-0.594675	0.0907632	-0.295234
-0.689789	0.0385849	-0.310917
-0.758594	-0.0112143	-0.374074
-0.764949	0.00967407	-0.394356
-0.714994	0.132575	-0.457947
-0.711492	0.133952	-0.460934
-0.699206	0.121269	-0.49929
-0.630166	0.146982	-0.55655
-0.475362	0.221273	-0.637014
-0.24292	0.262338	-0.687204
-0.0562045	0.248761	-0.682437
0.119289	0.216807	-0.653243
0.289175	0.186517	-0.614554
0.42928	0.111786	-0.52022
0.548884	-0.0130976	-0.411759
0.633895	-0.145189	-0.303772
0.6569	-0.211202	-0.268208
0.663497	-0.25732	-0.26633
0.677622	-0.234304	-0.204001
0.630809	-0.209206	-0.0772626
0.546994	-0.15567	-0.0579421
0.399018	-0.116741	-0.0259089
0.171946	-0.0993935	-0.00445301
-0.0277973	-0.107896	0.0345485
-0.213388	-0.120809	0.0578954
-0.373859	-0.115628	0.0319007
-0.513856	-0.0946767	-0.0282797
-0.628402	-0.0823044	-0.0889138
-0.714852	-0.108848	-0.131713
-0.757733	-0.123938	-0.170415
-0.771483	-0.137438	-0.19799
-0.738001	-0.0993457	-0.204411
-0.73115	-0.127229	-0.258475
-0.721929	-0.107476	-0.22534
-0.69969	-0.0374565	-0.148313
-0.651325	0.0801247	-0.0258107
-0.605055	0.209809	0.0787381
-0.521174	0.351362	0.109234
-0.400349	0.445732	0.0527471
-0.265374	0.45462	-0.0486222
-0.124885	0.382095	-0.151429
0.00495976	0.194309	-0.271072
0.0521885	0.0311974	-0.312517
0.108834	-0.0856313	-0.319284
0.188203	-0.153987	-0.346151
0.246637	-0.189128	-0.362112
0.27	-0.212926	-0.37212
0.278287	-0.168442	-0.35201
0.273194	-0.195398	-0.388742
0.264741	-0.17102	-0.383131
0.209833	-0.0941142	-0.383011
0.122496	0.0195535	-0.442204
0.0159793	0.102996	-0.518838
-0.0805741	0.148798	-0.604682
-0.165603	0.163315	-0.688119
-0.262923	0.164855	-0.744919
-0.381007	0.16292	-0.727237
-0.524084	0.124142	-0.651027
-0.624838	0.0455066	-0.563836
-0.695884	-0.0565195	-0.456605
-0.745148	-0.138552	-0.321686
-0.770753	-0.20646	-0.186337
-0.7746	-0.220425	-0.135811
-0.704762	-0.144579	-0.206372
-0.647199	-0.0993495	-0.220499
-0.564748	-0.0677751	-0.239479
-0.448709	-0.0516988	-0.281102
-0.313888	-0.0505173	-0.316211
-0.178261	-0.0505656	-0.360771
-0.0498015	-0.0466753	-0.418674
0.0668932	-0.0787544	-0.436017
0.141934	-0.130058	-0.379377
0.224566	-0.18023	-0.301878
0.320109	-0.225414	-0.24015
0.419835	-0.264348	-0.176083
0.517184	-0.28865	-0.128915
0.602168	-0.300926	-0.13734
0.636744	-0.311668	-0.130286
0.649288	-0.307772	-0.142335
0.716853	-0.236489	-0.246024
0.708437	-0.214084	-0.371662
0.686865	-0.0878915	-0.476145
0.639145	-0.0144016	-0.523299
0.534158	0.0751232	-0.565253
0.432866	0.157523	-0.598274
0.317035	0.21966	-0.610161
0.18466	0.24073	-0.593302
-0.0018889	0.206885	-0.507129
-0.164061	0.138262	-0.399962
-0.312819	0.0418078	-0.278908
-0.437567	-0.0614208	-0.179232
-0.541871	-0.146571	-0.0822845
-0.635779	-0.247262	0.0701491
-0.683816	-0.292553	0.13282
-0.741758	-0.314631	0.152588
************TIME_SERIES************
ClassID: 1
TimeSeriesLength: 126
TimeSeriesData: 
0.422871	0.0236221	-0.481413
0.421805	0.0358891	-0.465175
0.435117	0.0378204	-0.43046
0.440735	0.033901	-0.403336
0.443014	0.0291069	-0.390819
0.442565	0.0312453	-0.388782
0.442957	0.0279289	-0.391492
0.437021	0.0106775	-0.393306
0.417699	0.0184028	-0.371874
0.307928	0.0964091	-0.383505
0.111209	0.157954	-0.355258
-0.131239	0.179601	-0.320774
-0.366384	0.159545	-0.300153
-0.594675	0.0907632	-0.295234
-0.689789	0.0385849	-0.310917
-0.758594	-0.0112143	-0.374074
-0.764949	0.00967407	-0.394356
-0.714994	0.132575	-0.457947
-0.711492	0.133952	-0.460934
-0.699206	0.121269	-0.49929
-0.630166	0.146982	-0.55655
-0.475362	0.221273	-0.637014
-0.24292	0.262338	-0.687204
-0.0562045	0.248761	-0.682437
0.119289	0.216807	-0.653243
0.289175	0.186517	-0.614554
0.42928	0.111786	-0.52022
0.548884	-0.0130976	-0.411759
0.633895	-0.145189	-0.303772
0.6569	-0.211202	-0.268208
0.663497	-0.25732	-0.26633
0.677622	-0.234304	-0.204001
0.630809	-0.209206	-0.0772626
0.546994	-0.15567	-0.0579421
0.399018	-0.116741	-0.0259089
0.171946	-0.0993935	-0.00445301
-0.0277973	-0.107896	0.0345485
-0.213388	-0.120809	0.0578954
-0.373859	-0.115628	0.0319007
-0.513856	-0.0946767	-0.0282797
-0.628402	-0.0823044	-0.0889138
-0.714852	-0.108848	-0.131713
-0.757733	-0.123938	-0.170415
-0.771483	-0.137438	-0.19799
-0.738001	-0.0993457	-0.204411
-0.73115	-0.127229	-0.258475
-0.721929	-0.107476	-0.22534
-0.69969	-0.0374565	-0.148313
-0.651325	0.0801247	-0.0258107
-0.605055	0.209809	0.0787381
-0.521174	0.351362	0.109234
-0.400349	0.445732	0.0527471
-0.265374	0.45462	-0.0486222
-0.124885	0.382095	-0.151429
0.00495976	0.194309	-0.271072
0.0521885	0.0311974	-0.312517
0.108834	-0.0856313	-0.319284
0.188203	-0.153987	-0.346151
0.246637	-0.189128	-0.362112
0.27	-0.212926	-0.37212
0.278287	-0.168442	-0.35201
0.273194	-0.195398	-0.388742
0.264741	-0.17102	-0.383131
0.209833	-0.0941142	-0.383011
0.122496	0.0195535	-0.442204
0.0159793	0.102996	-0.518838
-0.0805741	0.148798	-0.604682
-0.165603	0.163315	-0.688119
-0.262923	0.164855	-0.744919
-0.381007	0.16292	-0.727237
-0.524084	0.124142	-0.651027
-0.624838	0.0455066	-0.563836
-0.695884	-0.0565195	-0.456605
-0.745148	-0.138552	-0.321686
-0.770753	-0.20646	-0.186337
-0.7746	-0.220425	-0.135811
-0.704762	-0.144579	-0.206372
-0.647199	-0.0993495	-0.220499
-0.564748	-0.0677751	-0.239479
-0.448709	-0.0516988	-0.281102
-0.313888	-0.0505173	-0.316211
-0.178261	-0.0505656	-0.360771
-0.0498015	-0.0466753	-0.418674
0.0668932	-0.0787544	-0.436017
0.141934	-0.130058	-0.379377
0.224566	-0.18023	-0.301878
0.320109	-0.225414	-0.24015
0.419835	-0.264348	-0.176083
0.517184	-0.28865	-0.128915
0.602168	-0.300926	-0.13734
0.636744	-0.311668	-0.130286
0.649288	-0.307772	-0.142335
0.716853	-0.236489	-0.246024
0.708437	-0.214084	-0.371662
0.686865	-0.0878915	-0.476145
0.639145	-0.0144016	-0.523299
0.534158	0.0751232	-0.565253
0.432866	0.157523	-0.598274
0.317035	0.21966	-0.610161
0.18466	0.24073	-0.593302
-0.0018889	0.206885	-0.507129
-0.164061	0.138262	-0.399962
-0.312819	0.0418078	-0.278908
-0.437567	-0.0614208	-0.179232
-0.541871	-0.146571	-0.0822845
-0.635779	-0.247262	0.0701491
-0.683816	-0.292553	0.13282
-0.741758	-0.314631	0.152588
-0.819929	-0.158515	-0.210126
-0.785953	-0.0579322	-0.358246
-0.725857	0.0276811	-0.448356
-0.627292	0.107293	-0.504221
-0.534251	0.154333	-0.50142
-0.447772	0.164809	-0.432549
-0.365522	0.145524	-0.328246
-0.281141	0.112056	-0.22769
-0.197158	0.0521577	-0.117441
-0.105581	-0.0296254	-0.0037697
-0.0297297	-0.105792	0.102928
0.0434285	-0.1627	0.164368
0.109768	-0.20455	0.201767
0.179176	-0.23426	0.188406
0.268298	-0.241783	0.102609
0.373252	-0.242552	-0.0212313
0.49781	-0.251112	-0.154339
0.577149	-0.249797	-0.238309
************TIME_SERIES************
ClassID: 1
TimeSeriesLength: 145
TimeSeriesData: 
0.422871	0.0236221	-0.481413
0.421805	0.0358891	-0.465175
0.435117	0.0378204	-0.43046
0.440735	0.033901	-0.403336
0.443014	0.0291069	-0.390819
0.442565	0.0312453	-0.388782
0.442957	0.0279289	-0.391492
0.437021	0.0106775	-0.393306
0.417699	0.0184028	-0.371874
0.307928	0.0964091	-0.383505
0.111209	0.157954	-0.355258
-0.131239	0.179601	-0.320774
-0.366384	0.159545	-0.300153
-0.594675	0.0907632	-0.295234
-0.689789	0.0385849	-0.310917
-0.758594	-0.0112143	-0.374074
-0.764949	0.00967407	-0.394356
-0.714994	0.132575	-0.457947
-0.711492	0.133952	-0.460934
-0.699206	0.121269	-0.49929
-0.630166	0.146982	-0.55655
-0.475362	0.221273	-0.637014
-0.24292	0.262338	-0.687204
-0.0562045	0.248761	-0.682437
0.119289	0.216807	-0.653243
0.289175	0.186517	-0.614554
0.42928	0.111786	-0.52022
0.548884	-0.0130976	-0.411759
0.633895	-0.145189	-0.303772
0.6569	-0.211202	-0.268208
0.663497	-0.25732	-0.26633
0.677622	-0.234304	-0.204001
0.630809	-0.209206	-0.0772626
0.546994	-0.15567	-0.0579421
0.399018	-0.116741	-0.0259089
0.171946	-0.0993935	-0.00445301
-0.0277973	-0.107896	0.0345485
-0.213388	-0.120809	0.0578954
-0.373859	-0.115628	0.0319007
-0.513856	-0.0946767	-0.0282797
-0.628402	-0.0823044	-0.0889138
-0.714852	-0.108848	-0.131713
-0.757733	-0.123938	-0.170415
-0.771483	-0.137438	-0.19799
-0.738001	-0.0993457	-0.204411
-0.73115	-0.127229	-0.258475
-0.721929	-0.107476	-0.22534
-0.69969	-0.0374565	-0.148313
-0.651325	0.0801247	-0.0258107
-0.605055	0.209809	0.0787381
-0.521174	0.351362	0.109234
-0.400349	0.445732	0.0527471
-0.265374	0.45462	-0.0486222
-0.124885	0.382095	-0.151429
0.00495976	0.194309	-0.271072
0.0521885	0.0311974	-0.312517
0.108834	-0.0856313	-0.319284
0.188203	-0.153987	-0.346151
0.246637	-0.189128	-0.362112
0.27	-0.212926	-0.37212
0.278287	-0.168442	-0.35201
0.273194	-0.195398	-0.388742
0.264741	-0.17102	-0.383131
0.209833	-0.0941142	-0.383011
0.122496	0.0195535	-0.442204
0.0159793	0.102996	-0.518838
-0.0805741	0.148798	-0.604682
-0.165603	0.163315	-0.688119
-0.262923	0.164855	-0.744919
-0.381007	0.16292	-0.727237
-0.524084	0.124142	-0.651027
-0.624838	0.0455066	-0.563836
-0.695884	-0.0565195	-0.456605
-0.745148	-0.138552	-0.321686
-0.770753	-0.20646	-0.186337
-0.7746	-0.220425	-0.135811
-0.704762	-0.144579	-0.206372
-0.647199	-0.0993495	-0.220499
-0.564748	-0.0677751	-0.239479
-0.448709	-0.0516988	-0.281102
-0.313888	-0.0505173	-0.316211
-0.178261	-0.0505656	-0.360771
-0.0498015	-0.0466753	-0.418674
0.0668932	-0.0787544	-0.436017
0.141934	-0.130058	-0.379377
0.224566	-0.18023	-0.301878
0.320109	-0.225414	-0.24015
0.419835	-0.264348	-0.176083
0.517184	-0.28865	-0.128915
0.602168	-0.300926	-0.13734
0.636744	-0.311668	-0.130286
0.649288	-0.307772	-0.142335
0.716853	-0.236489	-0.246024
0.708437	-0.214084	-0.371662
0.686865	-0.0878915	-0.476145
0.639145	-0.0144016	-0.523299
0.534158	0.0751232	-0.565253
0.432866	0.157523	-0.598274
0.317035	0.21966	-0.610161
0.18466	0.24073	-0.593302
-0.0018889	0.206885	-0.507129
-0.164061	0.138262	-0.399962
-0.312819	0.0418078	-0.278908
-0.437567	-0.0614208	-0.179232
-0.541871	-0.146571	-0.0822845
-0.635779	-0.247262	0.0701491
-0.683816	-0.292553	0.13282
-0.741758	-0.314631	0.152588
-0.819929	-0.158515	-0.210126
-0.785953	-0.0579322	-0.358246
-0.725857	0.0276811	-0.448356
-0.627292	0.107293	-0.504221
-0.534251	0.154333	-0.50142
-0.447772	0.164809	-0.432549
-0.365522	0.145524	-0.328246
-0.281141	0.112056	-0.22769
-0.197158	0.0521577	-0.117441
-0.105581	-0.0296254	-0.0037697
-0.0297297	-0.105792	0.102928
0.0434285	-0.1627	0.164368
0.109768	-0.20455	0.201767
0.179176	-0.23426	0.188406
0.268298	-0.241783	0.102609
0.373252	-0.242552	-0.0212313
0.49781	-0.251112	-0.154339
0.577149	-0.249797	-0.238309
0.634297	-0.0685359	-0.109042
0.565819	-0.0196242	-0.0475828
0.490949	0.00961652	0.0299068
0.41936	0.016554	0.108565
0.332417	0.00918342	0.19295
0.255897	-0.0153813	0.258035
0.172671	-0.0537658	0.264929
0.0755728	-0.0878988	0.207122
-0.0222381	-0.110354	0.117523
-0.114532	-0.107498	-0.0247172
-0.220973	-0.0812248	-0.167586
-0.310398	-0.0599555	-0.224951
-0.398615	-0.0640986	-0.216467
-0.483093	-0.0839434	-0.177555
-0.559691	-0.118579	-0.114544
-0.638087	-0.172374	-0.0486733
-0.691191	-0.203883	-0.0390589
-0.739147	-0.214292	-0.0649559
-0.781586	-0.220334	-0.0840389
************TIME_SERIES************
ClassID: 1
TimeSeriesLength: 161
TimeSeriesData: 
0.422871	0.0236221	-0.481413
0.421805	0.0358891	-0.465175
0.435117	0.0378204	-0.43046
0.440735	0.033901	-0.403336
0.443014	0.0291069	-0.390819
0.442565	0.0312453	-0.388782
0.442957	0.0279289	-0.391492
0.437021	0.0106775	-0.393306
0.417699	0.0184028	-0.371874
0.307928	0.0964091	-0.383505
0.111209	0.157954	-0.355258
-0.131239	0.179601	-0.320774
-0.366384	0.159545	-0.300153
-0.594675	0.0907632	-0.295234
-0.689789	0.0385849	-0.310917
-0.758594	-0.0112143	-0.374074
-0.764949	0.00967407	-0.394356
-0.714994	0.132575	-0.457947
-0.711492	0.133952	-0.460934
-0.699206	0.121269	-0.49929
-0.630166	0.146982	-0.55655
-0.475362	0.221273	-0.637014
-0.24292	0.262338	-0.687204
-0.0562045	0.248761	-0.682437
0.119289	0.216807	-0.653243
0.289175	0.186517	-0.614554
0.42928	0.111786	-0.52022
0.548884	-0.0130976	-0.411759
0.633895	-0.145189	-0.303772
0.6569	-0.211202	-0.268208
0.663497	-0.25732	-0.26633
0.677622	-0.234304	-0.204001
0.630809	-0.209206	-0.0772626
0.546994	-0.15567	-0.0579421
0.399018	-0.116741	-0.0259089
0.171946	-0.0993935	-0.00445301
-0.0277973	-0.107896	0.0345485
-0.213388	-0.120809	0.0578954
-0.373859	-0.115628	0.0319007
-0.513856	-0.0946767	-0.0282797
-0.628402	-0.0823044	-0.0889138
-0.714852	-0.108848	-0.131713
-0.757733	-0.123938	-0.170415
-0.771483	-0.137438	-0.19799
-0.738001	-0.0993457	-0.204411
-0.73115	-0.127229	-0.258475
-0.721929	-0.107476	-0.22534
-0.69969	-0.0374565	-0.148313
-0.651325	0.0801247	-0.0258107
-0.605055	0.209809	0.0787381
-0.521174	0.351362	0.109234
-0.400349	0.445732	0.0527471
-0.265374	0.45462	-0.0486222
-0.124885	0.382095	-0.151429
0.00495976	0.194309	-0.271072
0.0521885	0.0311974	-0.312517
0.108834	-0.0856313	-0.319284
0.188203	-0.153987	-0.346151
0.246637	-0.189128	-0.362112
0.27	-0.212926	-0.37212
0.278287	-0.168442	-0.35201
0.273194	-0.195398	-0.388742
0.264741	-0.17102	-0.383131
0.209833	-0.0941142	-0.383011
0.122496	0.0195535	-0.442204
0.0159793	0.102996	-0.518838
-0.0805741	0.148798	-0.604682
-0.165603	0.163315	-0.688119
-0.262923	0.164855	-0.744919
-0.381007	0.16292	-0.727237
-0.524084	0.124142	-0.651027
-0.624838	0.0455066	-0.563836
-0.695884	-0.0565195	-0.456605
-0.745148	-0.138552	-0.321686
-0.770753	-0.20646	-0.186337
-0.7746	-0.220425	-0.135811
-0.704762	-0.144579	-0.206372
-0.647199	-0.0993495	-0.220499
-0.564748	-0.0677751	-0.239479
-0.448709	-0.0516988	-0.281102
-0.313888	-0.0505173	-0.316211
-0.178261	-0.0505656	-0.360771
-0.0498015	-0.0466753	-0.418674
0.0668932	-0.0787544	-0.436017
0.141934	-0.130058	-0.379377
0.224566	-0.18023	-0.301878
0.320109	-0.225414	-0.24015
0.419835	-0.264348	-0.176083
0.517184	-0.28865	-0.128915
0.602168	-0.300926	-0.13734
0.636744	-0.311668	-0.130286
0.649288	-0.307772	-0.142335
0.716853	-0.236489	-0.246024
0.708437	-0.214084	-0.371662
0.686865	-0.0878915	-0.476145
0.639145	-0.0144016	-0.523299
0.534158	0.0751232	-0.565253
0.432866	0.157523	-0.598274
0.317035	0.21966	-0.610161
0.18466	0.24073	-0.593302
-0.0018889	0.206885	-0.507129
-0.164061	0.138262	-0.399962
-0.312819	0.0418078	-0.278908
-0.437567	-0.0614208	-0.179232
-0.541871	-0.146571	-0.0822845
-0.635779	-0.247262	0.0701491
-0.683816	-0.292553	0.13282
-0.741758	-0.314631	0.152588
-0.819929	-0.158515	-0.210126
-0.785953	-0.0579322	-0.358246
-0.725857	0.0276811	-0.448356
-0.627292	0.107293	-0.504221
-0.534251	0.154333	-0.50142
-0.447772	0.164809	-0.432549
-0.365522	0.145524	-0.328246
-0.281141	0.112056	-0.22769
-0.197158	0.0521577	-0.117441
-0.105581	-0.0296254	-0.0037697
-0.0297297	-0.105792	0.102928
0.0434285	-0.1627	0.164368
0.109768	-0.20455	0.201767
0.179176	-0.23426	0.188406
0.268298	-0.241783	0.102609
0.373252	-0.242552	-0.0212313
0.49781	-0.251112	-0.154339
0.577149	-0.249797	-0.238309
0.634297	-0.0685359	-0.109042
0.565819	-0.0196242	-0.0475828
0.490949	0.00961652	0.0299068
0.41936	0.016554	0.108565
0.332417	0.00918342	0.19295
0.255897	-0.0153813	0.258035
0.172671	-0.0537658	0.264929
0.0755728	-0.0878988	0.207122
-0.0222381	-0.110354	0.117523
-0.114532	-0.107498	-0.0247172
-0.220973	-0.0812248	-0.167586
-0.310398	-0.0599555	-0.224951
-0.398615	-0.0640986	-0.216467
-0.483093	-0.0839434	-0.177555
-0.559691	-0.118579	-0.114544
-0.638087	-0.172374	-0.0486733
-0.691191	-0.203883	-0.0390589
-0.739147	-0.214292	-0.0649559
-0.781586	-0.220334	-0.0840389
-0.829113	-0.156026	-0.248319
-0.805394	-0.0953531	-0.255713
-0.756665	-0.0243929	-0.247567
-0.680868	0.0505261	-0.219929
-0.588184	0.114931	-0.173857
-0.464473	0.156217	-0.111693
-0.374721	0.17181	-0.0806575
-0.234015	0.176695	-0.0663839
-0.117393	0.157564	-0.0887198
-0.0136216	0.118726	-0.129151
0.0674188	0.0534149	-0.173537
0.143135	-0.051674	-0.211175
0.196569	-0.117213	-0.215601
0.259479	-0.172717	-0.202095
0.348127	-0.210264	-0.178108
0.454151	-0.228478	-0.163987
************TIME_SERIES************
ClassID: 1
TimeSeriesLength: 183
TimeSeriesData: 
0.422871	0.0236221	-0.481413
0.421805	0.0358891	-0.465175
0.435117	0.0378204	-0.43046
0.440735	0.033901	-0.403336
0.443014	0.0291069	-0.390819
0.442565	0.0312453	-0.388782
0.442957	0.0279289	-0.391492
0.437021	0.0106775	-0.393306
0.417699	0.0184028	-0.371874
0.307928	0.0964091	-0.383505
0.111209	0.157954	-0.355258
-0.131239	0.179601	-0.320774
-0.366384	0.159545	-0.300153
-0.594675	0.0907632	-0.295234
-0.689789	0.0385849	-0.310917
-0.758594	-0.0112143	-0.374074
-0.764949	0.00967407	-0.394356
-0.714994	0.132575	-0.457947
-0.711492	0.133952	-0.460934
-0.699206	0.121269	-0.49929
-0.630166	0.146982	-0.55655
-0.475362	0.221273	-0.637014
-0.24292	0.262338	-0.687204
-0.0562045	0.248761	-0.682437
0.119289	0.216807	-0.653243
0.289175	0.186517	-0.614554
0.42928	0.111786	-0.52022
0.548884	-0.0130976	-0.411759
0.633895	-0.145189	-0.303772
0.6569	-0.211202	-0.268208
0.663497	-0.25732	-0.26633
0.677622	-0.234304	-0.204001
0.630809	-0.209206	-0.0772626
0.546994	-0.15567	-0.0579421
0.399018	-0.116741	-0.0259089
0.171946	-0.0993935	-0.00445301
-0.0277973	-0.107896	0.0345485
-0.213388	-0.120809	0.0578954
-0.373859	-0.115628	0.0319007
-0.513856	-0.0946767	-0.0282797
-0.628402	-0.0823044	-0.0889138
-0.714852	-0.108848	-0.131713
-0.757733	-0.123938	-0.170415
-0.771483	-0.137438	-0.19799
-0.738001	-0.0993457	-0.204411
-0.73115	-0.127229	-0.258475
-0.721929	-0.107476	-0.22534
-0.69969	-0.0374565	-0.148313
-0.651325	0.0801247	-0.0258107
-0.605055	0.209809	0.0787381
-0.521174	0.351362	0.109234
-0.400349	0.445732	0.0527471
-0.265374	0.45462	-0.0486222
-0.124885	0.382095	-0.151429
0.00495976	0.194309	-0.271072
0.0521885	0.0311974	-0.312517
0.108834	-0.0856313	-0.319284
0.188203	-0.153987	-0.346151
0.246637	-0.189128	-0.362112
0.27	-0.212926	-0.37212
0.278287	-0.168442	-0.35201
0.273194	-0.195398	-0.388742
0.264741	-0.17102	-0.383131
0.209833	-0.0941142	-0.383011
0.122496	0.0195535	-0.442204
0.0159793	0.102996	-0.518838
-0.0805741	0.148798	-0.604682
-0.165603	0.163315	-0.688119
-0.262923	0.164855	-0.744919
-0.381007	0.16292	-0.727237
-0.524084	0.124142	-0.651027
-0.624838	0.0455066	-0.563836
-0.695884	-0.0565195	-0.456605
-0.745148	-0.138552	-0.321686
-0.770753	-0.20646	-0.186337
-0.7746	-0.220425	-0.135811
-0.704762	-0.144579	-0.206372
-0.647199	-0.0993495	-0.220499
-0.564748	-0.0677751	-0.239479
-0.448709	-0.0516988	-0.281102
-0.313888	-0.0505173	-0.316211
-0.178261	-0.0505656	-0.360771
-0.0498015	-0.0466753	-0.418674
0.0668932	-0.0787544	-0.436017
0.141934	-0.130058	-0.379377
0.224566	-0.18023	-0.301878
0.320109	-0.225414	-0.24015
0.419835	-0.264348	-0.176083
0.517184	-0.28865	-0.128915
0.602168	-0.300926	-0.13734
0.636744	-0.311668	-0.130286
0.649288	-0.307772	-0.142335
0.716853	-0.236489	-0.246024
0.708437	-0.214084	-0.371662
0.686865	-0.0878915	-0.476145
0.639145	-0.0144016	-0.523299
0.534158	0.0751232	-0.565253
0.432866	0.157523	-0.598274
0.317035	0.21966	-0.610161
0.18466	0.24073	-0.593302
-0.0018889	0.206885	-0.507129
-0.164061	0.138262	-0.399962
-0.312819	0.0418078	-0.278908
-0.437567	-0.0614208	-0.179232
-0.541871	-0.146571	-0.0822845
-0.635779	-0.247262	0.0701491
-0.683816	-0.292553	0.13282
-0.741758	-0.314631	0.152588
-0.819929	-0.158515	-0.210126
-0.785953	-0.0579322	-0.358246
-0.725857	0.0276811	-0.448356
-0.627292	0.107293	-0.504221
-0.534251	0.154333	-0.50142
-0.447772	0.164809	-0.432549
-0.365522	0.145524	-0.328246
-0.281141	0.112056	-0.22769
-0.197158	0.0521577	-0.117441
-0.105581	-0.0296254	-0.0037697
-0.0297297	-0.105792	0.102928
0.0434285	-0.1627	0.164368
0.109768	-0.20455	0.201767
0.179176	-0.23426	0.188406
0.268298	-0.241783	0.102609
0.373252	-0.242552	-0.0212313
0.49781	-0.251112	-0.154339
0.577149	-0.249797	-0.238309
0.634297	-0.0685359	-0.109042
0.565819	-0.0196242	-0.0475828
0.490949	0.00961652	0.0299068
0.41936	0.016554	0.108565
0.332417	0.00918342	0.19295
0.255897	-0.0153813	0.258035
0.172671	-0.0537658	0.264929
0.0755728	-0.0878988	0.207122
-0.0222381	-0.110354	0.117523
-0.114532	-0.107498	-0.0247172
-0.220973	-0.0812248	-0.167586
-0.310398	-0.0599555	-0.224951
-0.398615	-0.0640986	-0.216467
-0.483093	-0.0839434	-0.177555
-0.559691	-0.118579	-0.114544
-0.638087	-0.172374	-0.0486733
-0.691191	-0.203883	-0.0390589
-0.739147	-0.214292	-0.0649559
-0.781586	-0.220334	-0.0840389
-0.829113	-0.156026	-0.248319
-0.805394	-0.0953531	-0.255713
-0.756665	-0.0243929	-0.247567
-0.680868	0.0505261	-0.219929
-0.588184	0.114931	-0.173857
-0.464473	0.156217	-0.111693
-0.374721	0.17181	-0.0806575
-0.234015	0.176695	-0.0663839
-0.117393	0.157564	-0.0887198
-0.0136216	0.118726	-0.129151
0.0674188	0.0534149	-0.173537
0.143135	-0.051674	-0.211175
0.196569	-0.117213	-0.215601
0.259479	-0.172717	-0.202095
0.348127	-0.210264	-0.178108
0.454151	-0.228478	-0.163987
0.702918	-0.25703	-0.117433
0.691061	-0.222524	-0.0959018
0.666903	-0.160579	-0.073659
0.622789	-0.0820623	-0.0507754
0.559202	-0.0135355	-0.0363203
0.478466	0.048645	-0.00976908
0.36555	0.0944822	0.000770323
0.262774	0.10285	0.0101824
0.174863	0.0826256	-0.0141852
0.104341	0.0392074	-0.0568002
0.0484994	-0.0143858	-0.123472
-0.00712749	-0.0671013	-0.174829
-0.0695747	-0.0955075	-0.194623
-0.148895	-0.0813619	-0.188034
-0.219074	-0.0416242	-0.151214
-0.297209	-0.000901848	-0.105186
-0.378869	0.0213723	-0.0686608
-0.450494	0.0226659	-0.0572007
-0.518764	0.00391027	-0.0990467
-0.573706	-0.0215472	-0.151374
-0.620806	-0.0487011	-0.209293
-0.656947	-0.0733025	-0.238358
************TIME_SERIES************
ClassID: 1
TimeSeriesLength: 204
TimeSeriesData: 
0.422871	0.0236221	-0.481413
0.421805	0.0358891	-0.465175
0.435117	0.0378204	-0.43046
0.440735	0.033901	-0.403336
0.443014	0.0291069	-0.390819
0.442565	0.0312453	-0.388782
0.442957	0.0279289	-0.391492
0.437021	0.0106775	-0.393306
0.417699	0.0184028	-0.371874
0.307928	0.0964091	-0.383505
0.111209	0.157954	-0.355258
-0.131239	0.179601	-0.320774
-0.366384	0.159545	-0.300153
-0.594675	0.0907632	-0.295234
-0.689789	0.0385849	-0.310917
-0.758594	-0.0112143	-0.374074
-0.764949	0.00967407	-0.394356
-0.714994	0.132575	-0.457947
-0.711492	0.133952	-0.460934
-0.699206	0.121269	-0.49929
-0.630166	0.146982	-0.55655
-0.475362	0.221273	-0.637014
-0.24292	0.262338	-0.687204
-0.0562045	0.248761	-0.682437
0.119289	0.216807	-0.653243
0.289175	0.186517	-0.614554
0.42928	0.111786	-0.52022
0.548884	-0.0130976	-0.411759
0.633895	-0.145189	-0.303772
0.6569	-0.211202	-0.268208
0.663497	-0.25732	-0.26633
0.677622	-0.234304	-0.204001
0.630809	-0.209206	-0.0772626
0.546994	-0.15567	-0.0579421
0.399018	-0.116741	-0.0259089
0.171946	-0.0993935	-0.00445301
-0.0277973	-0.107896	0.0345485
-0.213388	-0.120809	0.0578954
-0.373859	-0.115628	0.0319007
-0.513856	-0.0946767	-0.0282797
-0.628402	-0.0823044	-0.0889138
-0.714852	-0.108848	-0.131713
-0.757733	-0.123938	-0.170415
-0.771483	-0.137438	-0.19799
-0.738001	-0.0993457	-0.204411
-0.73115	-0.127229	-0.258475
-0.721929	-0.107476	-0.22534
-0.69969	-0.0374565	-0.148313
-0.651325	0.0801247	-0.0258107
-0.605055	0.209809	0.0787381
-0.521174	0.351362	0.109234
-0.400349	0.445732	0.0527471
-0.265374	0.45462	-0.0486222
-0.124885	0.382095	-0.151429
0.00495976	0.194309	-0.271072
0.0521885	0.0311974	-0.312517
0.108834	-0.0856313	-0.319284
0.188203	-0.153987	-0.346151
0.246637	-0.189128	-0.362112
0.27	-0.212926	-0.37212
0.278287	-0.168442	-0.35201
0.273194	-0.195398	-0.388742
0.264741	-0.17102	-0.383131
0.209833	-0.0941142	-0.383011
0.122496	0.0195535	-0.442204
0.0159793	0.102996	-0.518838
-0.0805741	0.148798	-0.604682
-0.165603	0.163315	-0.688119
-0.262923	0.164855	-0.744919
-0.381007	0.16292	-0.727237
-0.524084	0.124142	-0.651027
-0.624838	0.0455066	-0.563836
-0.695884	-0.0565195	-0.456605
-0.745148	-0.138552	-0.321686
-0.770753	-0.20646	-0.186337
-0.7746	-0.220425	-0.135811
-0.704762	-0.144579	-0.206372
-0.647199	-0.0993495	-0.220499
-0.564748	-0.0677751	-0.239479
-0.448709	-0.0516988	-0.281102
-0.313888	-0.0505173	-0.316211
-0.178261	-0.0505656	-0.360771
-0.0498015	-0.0466753	-0.418674
0.0668932	-0.0787544	-0.436017
0.141934	-0.130058	-0.379377
0.224566	-0.18023	-0.301878
0.320109	-0.225414	-0.24015
0.419835	-0.264348	-0.176083
0.517184	-0.28865	-0.128915
0.602168	-0.300926	-0.13734
0.636744	-0.311668	-0.130286
0.649288	-0.307772	-0.142335
0.716853	-0.236489	-0.246024
0.708437	-0.214084	-0.371662
0.686865	-0.0878915	-0.476145
0.639145	-0.0144016	-0.523299
0.534158	0.0751232	-0.565253
0.432866	0.157523	-0.598274
0.317035	0.21966	-0.610161
0.18466	0.24073	-0.593302
-0.0018889	0.206885	-0.507129
-0.164061	0.138262	-0.399962
-0.312819	0.0418078	-0.278908
-0.437567	-0.0614208	-0.179232
-0.541871	-0.146571	-0.0822845
-0.635779	-0.247262	0.0701491
-0.683816	-0.292553	0.13282
-0.741758	-0.314631	0.152588
-0.819929	-0.158515	-0.210126
-0.785953	-0.0579322	-0.358246
-0.725857	0.0276811	-0.448356
-0.627292	0.107293	-0.504221
-0.534251	0.154333	-0.50142
-0.447772	0.164809	-0.432549
-0.365522	0.145524	-0.328246
-0.281141	0.112056	-0.22769
-0.197158	0.0521577	-0.117441
-0.105581	-0.0296254	-0.0037697
-0.0297297	-0.105792	0.102928
0.0434285	-0.1627	0.164368
0.109768	-0.20455	0.201767
0.179176	-0.23426	0.188406
0.268298	-0.241783	0.102609
0.373252	-0.242552	-0.0212313
0.49781	-0.251112	-0.154339
0.577149	-0.249797	-0.238309
0.634297	-0.0685359	-0.109042
0.565819	-0.0196242	-0.0475828
0.490949	0.00961652	0.0299068
0.41936	0.016554	0.108565
0.332417	0.00918342	0.19295
0.255897	-0.0153813	0.258035
0.172671	-0.0537658	0.264929
0.0755728	-0.0878988	0.207122
-0.0222381	-0.110354	0.117523
-0.114532	-0.107498	-0.0247172
-0.220973	-0.0812248	-0.167586
-0.310398	-0.0599555	-0.224951
-0.398615	-0.0640986	-0.216467
-0.483093	-0.0839434	-0.177555
-0.559691	-0.118579	-0.114544
-0.638087	-0.172374	-0.0486733
-0.691191	-0.203883	-0.0390589
-0.739147	-0.214292	-0.0649559
-0.781586	-0.220334	-0.0840389
-0.829113	-0.156026	-0.248319
-0.805394	-0.0953531	-0.255713
-0.756665	-0.0243929	-0.247567
-0.680868	0.0505261	-0.219929
-0.588184	0.114931	-0.173857
-0.464473	0.156217	-0.111693
-0.374721	0.17181	-0.0806575
-0.234015	0.176695	-0.0663839
-0.117393	0.157564	-0.0887198
-0.0136216	0.118726	-0.129151
0.0674188	0.0534149	-0.173537
0.143135	-0.051674	-0.211175
0.196569	-0.117213	-0.215601
0.259479	-0.172717	-0.202095
0.348127	-0.210264	-0.178108
0.454151	-0.228478	-0.163987
0.702918	-0.25703	-0.117433
0.691061	-0.222524	-0.0959018
0.666903	-0.160579	-0.073659
0.622789	-0.0820623	-0.0507754
0.559202	-0.0135355	-0.0363203
0.478466	0.048645	-0.00976908
0.36555	0.0944822	0.000770323
0.262774	0.10285	0.0101824
0.174863	0.0826256	-0.0141852
0.104341	0.0392074	-0.0568002
0.0484994	-0.0143858	-0.123472
-0.00712749	-0.0671013	-0.174829
-0.0695747	-0.0955075	-0.194623
-0.148895	-0.0813619	-0.188034
-0.219074	-0.0416242	-0.151214
-0.297209	-0.000901848	-0.105186
-0.378869	0.0213723	-0.0686608
-0.450494	0.0226659	-0.0572007
-0.518764	0.00391027	-0.0990467
-0.573706	-0.0215472	-0.151374
-0.620806	-0.0487011	-0.209293
-0.656947	-0.0733025	-0.238358
-0.694101	-0.0467457	-0.320412
-0.678671	-0.0578492	-0.280142
-0.645646	-0.0452282	-0.225672
-0.595229	-0.0294558	-0.169014
-0.529153	0.0010274	-0.106339
-0.429203	0.0801869	-0.0854714
-0.345567	0.131131	-0.116353
-0.205209	0.145258	-0.187347
-0.0946969	0.0905702	-0.267271
-0.00391218	0.021813	-0.32436
0.0724396	-0.0406857	-0.39354
0.149391	-0.0795823	-0.46378
0.236661	-0.118639	-0.506048
0.358066	-0.145821	-0.460855
0.463901	-0.176214	-0.375288
0.55887	-0.22093	-0.265931
0.644088	-0.264057	-0.129936
0.713452	-0.29985	-0.020342
0.777455	-0.328888	0.131534
0.818584	-0.370649	0.276078
0.835612	-0.434201	0.411423
************TIME_SERIES************
ClassID: 1
TimeSeriesLength: 224
TimeSeriesData: 
0.422871	0.0236221	-0.481413
0.421805	0.0358891	-0.465175
0.435117	0.0378204	-0.43046
0.440735	0.033901	-0.403336
0.443014	0.0291069	-0.390819
0.442565	0.0312453	-0.388782
0.442957	0.0279289	-0.391492
0.437021	0.0106775	-0.393306
0.417699	0.0184028	-0.371874
0.307928	0.0964091	-0.383505
0.111209	0.157954	-0.355258
-0.131239	0.179601	-0.320774
-0.366384	0.159545	-0.300153
-0.594675	0.0907632	-0.295234
-0.689789	0.0385849	-0.310917
-0.758594	-0.0112143	-0.374074
-0.764949	0.00967407	-0.394356
-0.714994	0.132575	-0.457947
-0.711492	0.133952	-0.460934
-0.699206	0.121269	-0.49929
-0.630166	0.146982	-0.55655
-0.475362	0.221273	-0.637014
-0.24292	0.262338	-0.687204
-0.0562045	0.248761	-0.682437
0.119289	0.216807	-0.653243
0.289175	0.186517	-0.614554
0.42928	0.111786	-0.52022
0.548884	-0.0130976	-0.411759
0.633895	-0.145189	-0.303772
0.6569	-0.211202	-0.268208
0.663497	-0.25732	-0.26633
0.677622	-0.234304	-0.204001
0.630809	-0.209206	-0.0772626
0.546994	-0.15567	-0.0579421
0.399018	-0.116741	-0.0259089
0.171946	-0.0993935	-0.00445301
-0.0277973	-0.107896	0.0345485
-0.213388	-0.120809	0.0578954
-0.373859	-0.115628	0.0319007
-0.513856	-0.0946767	-0.0282797
-0.628402	-0.0823044	-0.0889138
-0.714852	-0.108848	-0.131713
-0.757733	-0.123938	-0.170415
-0.771483	-0.137438	-0.19799
-0.738001	-0.0993457	-0.204411
-0.73115	-0.127229	-0.258475
-0.721929	-0.107476	-0.22534
-0.69969	-0.0374565	-0.148313
-0.651325	0.0801247	-0.0258107
-0.605055	0.209809	0.0787381
-0.521174	0.351362	0.109234
-0.400349	0.445732	0.0527471
-0.265374	0.45462	-0.0486222
-0.124885	0.382095	-0.151429
0.00495976	0.194309	-0.271072
0.0521885	0.0311974	-0.312517
0.108834	-0.0856313	-0.319284
0.188203	-0.153987	-0.346151
0.246637	-0.189128	-0.362112
0.27	-0.212926	-0.37212
0.278287	-0.168442	-0.35201
0.273194	-0.195398	-0.388742
0.264741	-0.17102	-0.383131
0.209833	-0.0941142	-0.383011
0.122496	0.0195535	-0.442204
0.0159793	0.102996	-0.518838
-0.0805741	0.148798	-0.604682
-0.165603	0.163315	-0.688119
-0.262923	0.164855	-0.744919
-0.381007	0.16292	-0.727237
-0.524084	0.124142	-0.651027
-0.624838	0.0455066	-0.563836
-0.695884	-0.0565195	-0.456605
-0.745148	-0.138552	-0.321686
-0.770753	-0.20646	-0.186337
-0.7746	-0.220425	-0.135811
-0.704762	-0.144579	-0.206372
-0.647199	-0.0993495	-0.220499
-0.564748	-0.0677751	-0.239479
-0.448709	-0.0516988	-0.281102
-0.313888	-0.0505173	-0.316211
-0.178261	-0.0505656	-0.360771
-0.0498015	-0.0466753	-0.418674
0.0668932	-0.0787544	-0.436017
0.141934	-0.130058	-0.379377
0.224566	-0.18023	-0.301878
0.320109	-0.225414	-0.24015
0.419835	-0.264348	-0.176083
0.517184	-0.28865	-0.128915
0.602168	-0.300926	-0.13734
0.636744	-0.311668	-0.130286
0.649288	-0.307772	-0.142335
0.716853	-0.236489	-0.246024
0.708437	-0.214084	-0.371662
0.686865	-0.0878915	-0.476145
0.639145	-0.0144016	-0.523299
0.534158	0.0751232	-0.565253
0.432866	0.157523	-0.598274
0.317035	0.21966	-0.610161
0.18466	0.24073	-0.593302
-0.0018889	0.206885	-0.507129
-0.164061	0.138262	-0.399962
-0.312819	0.0418078	-0.278908
-0.437567	-0.0614208	-0.179232
-0.541871	-0.146571	-0.0822845
-0.635779	-0.247262	0.0701491
-0.683816	-0.292553	0.13282
-0.741758	-0.314631	0.152588
-0.819929	-0.158515	-0.210126
-0.785953	-0.0579322	-0.358246
-0.725857	0.0276811	-0.448356
-0.627292	0.107293	-0.504221
-0.534251	0.154333	-0.50142
-0.447772	0.164809	-0.432549
-0.365522	0.145524	-0.328246
-0.281141	0.112056	-0.22769
-0.197158	0.0521577	-0.117441
-0.105581	-0.0296254	-0.0037697
-0.0297297	-0.105792	0.102928
0.0434285	-0.1627	0.164368
0.109768	-0.20455	0.201767
0.179176	-0.23426	0.188406
0.268298	-0.241783	0.102609
0.373252	-0.242552	-0.0212313
0.49781	-0.251112	-0.154339
0.577149	-0.249797	-0.238309
0.634297	-0.0685359	-0.109042
0.565819	-0.0196242	-0.0475828
0.490949	0.00961652	0.0299068
0.41936	0.016554	0.108565
0.332417	0.00918342	0.19295
0.255897	-0.0153813	0.258035
0.172671	-0.0537658	0.264929
0.0755728	-0.0878988	0.207122
-0.0222381	-0.110354	0.117523
-0.114532	-0.107498	-0.0247172
-0.220973	-0.0812248	-0.167586
-0.310398	-0.0599555	-0.224951
-0.398615	-0.0640986	-0.216467
-0.483093	-0.0839434	-0.177555
-0.559691	-0.118579	-0.114544
-0.638087	-0.172374	-0.0486733
-0.691191	-0.203883	-0.0390589
-0.739147	-0.214292	-0.0649559
-0.781586	-0.220334	-0.0840389
-0.829113	-0.156026	-0.248319
-0.805394	-0.0953531	-0.255713
-0.756665	-0.0243929	-0.247567
-0.680868	0.0505261	-0.219929
-0.588184	0.114931	-0.173857
-0.464473	0.156217	-0.111693
-0.374721	0.17181	-0.0806575
-0.234015	0.176695	-0.0663839
-0.117393	0.157564	-0.0887198
-0.0136216	0.118726	-0.129151
0.0674188	0.0534149	-0.173537
0.143135	-0.051674	-0.211175
0.196569	-0.117213	-0.215601
0.259479	-0.172717	-0.202095
0.348127	-0.210264	-0.178108
0.454151	-0.228478	-0.163987
0.702918	-0.25703	-0.117433
0.691061	-0.222524	-0.0959018
0.666903	-0.160579	-0.073659
0.622789	-0.0820623	-0.0507754
0.559202	-0.0135355	-0.0363203
0.478466	0.048645	-0.00976908
0.36555	0.0944822	0.000770323
0.262774	0.10285	0.0101824
0.174863	0.0826256	-0.0141852
0.104341	0.0392074	-0.0568002
0.0484994	-0.0143858	-0.123472
-0.00712749	-0.0671013	-0.174829
-0.0695747	-0.0955075	-0.194623
-0.148895	-0.0813619	-0.188034
-0.219074	-0.0416242	-0.151214
-0.297209	-0.000901848	-0.105186
-0.378869	0.0213723	-0.0686608
-0.450494	0.0226659	-0.0572007
-0.518764	0.00391027	-0.0990467
-0.573706	-0.0215472	-0.151374
-0.620806	-0.0487011	-0.209293
-0.656947	-0.0733025	-0.238358
-0.694101	-0.0467457	-0.320412
-0.678671	-0.0578492	-0.280142
-0.645646	-0.0452282	-0.225672
-0.595229	-0.0294558	-0.169014
-0.529153	0.0010274	-0.106339
-0.429203	0.0801869	-0.0854714
-0.345567	0.131131	-0.116353
-0.205209	0.145258	-0.187347
-0.0946969	0.0905702	-0.267271
-0.00391218	0.021813	-0.32436
0.0724396	-0.0406857	-0.39354
0.149391	-0.0795823	-0.46378
0.236661	-0.118639	-0.506048
0.358066	-0.145821	-0.460855
0.463901	-0.176214	-0.375288
0.55887	-0.22093	-0.265931
0.644088	-0.264057	-0.129936
0.713452	-0.29985	-0.020342
0.777455	-0.328888	0.131534
0.818584	-0.370649	0.276078
0.835612	-0.434201	0.411423
0.849736	-0.408103	-0.0383726
0.855484	-0.334731	-0.0890369
0.849334	-0.243403	-0.131363
0.817442	-0.155937	-0.157322
0.758254	-0.0662008	-0.185963
0.655247	0.0308004	-0.221934
0.556709	0.094112	-0.26699
0.461418	0.129494	-0.321161
0.385927	0.135493	-0.41177
0.30945	0.116981	-0.516533
0.219886	0.0816805	-0.603169
0.0713843	0.020626	-0.630751
-0.077282	-0.0136542	-0.598846
-0.231273	-0.0363368	-0.523815
-0.372513	-0.0657973	-0.416554
-0.490782	-0.104738	-0.30011
-0.578602	-0.147919	-0.19189
-0.641786	-0.204486	-0.098207
-0.68963	-0.260782	-0.0530851
-0.719947	-0.265545	-0.0574649
************TIME_SERIES************
ClassID: 1
TimeSeriesLength: 244
TimeSeriesData: 
0.422871	0.0236221	-0.481413
0.421805	0.0358891	-0.465175
0.435117	0.0378204	-0.43046
0.440735	0.033901	-0.403336
0.443014	0.0291069	-0.390819
0.442565	0.0312453	-0.388782
0.442957	0.0279289	-0.391492
0.437021	0.0106775	-0.393306
0.417699	0.0184028	-0.371874
0.307928	0.0964091	-0.383505
0.111209	0.157954	-0.355258
-0.131239	0.179601	-0.320774
-0.366384	0.159545	-0.300153
-0.594675	0.0907632	-0.295234
-0.689789	0.0385849	-0.310917
-0.758594	-0.0112143	-0.374074
-0.764949	0.00967407	-0.394356
-0.714994	0.132575	-0.457947
-0.711492	0.133952	-0.460934
-0.699206	0.121269	-0.49929
-0.630166	0.146982	-0.55655
-0.475362	0.221273	-0.637014
-0.24292	0.262338	-0.687204
-0.0562045	0.248761	-0.682437
0.119289	0.216807	-0.653243
0.289175	0.186517	-0.614554
0.42928	0.111786	-0.52022
0.548884	-0.0130976	-0.411759
0.633895	-0.145189	-0.303772
0.6569	-0.211202	-0.268208
0.663497	-0.25732	-0.26633
0.677622	-0.234304	-0.204001
0.630809	-0.209206	-0.0772626
0.546994	-0.15567	-0.0579421
0.399018	-0.116741	-0.0259089
0.171946	-0.0993935	-0.00445301
-0.0277973	-0.107896	0.0345485
-0.213388	-0.120809	0.0578954
-0.373859	-0.115628	0.0319007
-0.513856	-0.0946767	-0.0282797
-0.628402	-0.0823044	-0.0889138
-0.714852	-0.108848	-0.131713
-0.757733	-0.123938	-0.170415
-0.771483	-0.137438	-0.19799
-0.738001	-0.0993457	-0.204411
-0.73115	-0.127229	-0.258475
-0.721929	-0.107476	-0.22534
-0.69969	-0.0374565	-0.148313
-0.651325	0.0801247	-0.0258107
-0.605055	0.209809	0.0787381
-0.521174	0.351362	0.109234
-0.400349	0.445732	0.0527471
-0.265374	0.45462	-0.0486222
-0.124885	0.382095	-0.151429
0.00495976	0.194309	-0.271072
0.0521885	0.0311974	-0.312517
0.108834	-0.0856313	-0.319284
0.188203	-0.153987	-0.346151
0.246637	-0.189128	-0.362112
0.27	-0.212926	-0.37212
0.278287	-0.168442	-0.35201
0.273194	-0.195398	-0.388742
0.264741	-0.17102	-0.383131
0.209833	-0.0941142	-0.383011
0.122496	0.0195535	-0.442204
0.0159793	0.102996	-0.518838
-0.0805741	0.148798	-0.604682
-0.165603	0.163315	-0.688119
-0.262923	0.164855	-0.744919
-0.381007	0.16292	-0.727237
-0.524084	0.124142	-0.651027
-0.624838	0.0455066	-0.563836
-0.695884	-0.0565195	-0.456605
-0.745148	-0.138552	-0.321686
-0.770753	-0.20646	-0.186337
-0.7746	-0.220425	-0.135811
-0.704762	-0.144579	-0.206372
-0.647199	-0.0993495	-0.220499
-0.564748	-0.0677751	-0.239479
-0.448709	-0.0516988	-0.281102
-0.313888	-0.0505173	-0.316211
-0.178261	-0.0505656	-0.360771
-0.0498015	-0.0466753	-0.418674
0.0668932	-0.0787544	-0.436017
0.141934	-0.130058	-0.379377
0.224566	-0.18023	-0.301878
0.320109	-0.225414	-0.24015
0.419835	-0.264348	-0.176083
0.517184	-0.28865	-0.128915
0.602168	-0.300926	-0.13734
0.636744	-0.311668	-0.130286
0.649288	-0.307772	-0.142335
0.716853	-0.236489	-0.246024
0.708437	-0.214084	-0.371662
0.686865	-0.0878915	-0.476145
0.639145	-0.0144016	-0.523299
0.534158	0.0751232	-0.565253
0.432866	0.157523	-0.598274
0.317035	0.21966	-0.610161
0.18466	0.24073	-0.593302
-0.0018889	0.206885	-0.507129
-0.164061	0.138262	-0.399962
-0.312819	0.0418078	-0.278908
-0.437567	-0.0614208	-0.179232
-0.541871	-0.146571	-0.0822845
-0.635779	-0.247262	0.0701491
-0.683816	-0.292553	0.13282
-0.741758	-0.314631	0.152588
-0.819929	-0.158515	-0.210126
-0.785953	-0.0579322	-0.358246
-0.725857	0.0276811	-0.448356
-0.627292	0.107293	-0.504221
-0.534251	0.154333	-0.50142
-0.447772	0.164809	-0.432549
-0.365522	0.145524	-0.328246
-0.281141	0.112056	-0.22769
-0.197158	0.0521577	-0.117441
-0.105581	-0.0296254	-0.0037697
-0.0297297	-0.105792	0.102928
0.0434285	-0.1627	0.164368
0.109768	-0.20455	0.201767
0.179176	-0.23426	0.188406
0.268298	-0.241783	0.102609
0.373252	-0.242552	-0.0212313
0.49781	-0.251112	-0.154339
0.577149	-0.249797	-0.238309
0.634297	-0.0685359	-0.109042
0.565819	-0.0196242	-0.0475828
0.490949	0.00961652	0.0299068
0.41936	0.016554	0.108565
0.332417	0.00918342	0.19295
0.255897	-0.0153813	0.258035
0.172671	-0.0537658	0.264929
0.0755728	-0.0878988	0.207122
-0.0222381	-0.110354	0.117523
-0.114532	-0.107498	-0.0247172
-0.220973	-0.0812248	-0.167586
-0.310398	-0.0599555	-0.224951
-0.398615	-0.0640986	-0.216467
-0.483093	-0.0839434	-0.177555
-0.559691	-0.118579	-0.114544
-0.638087	-0.172374	-0.0486733
-0.691191	-0.203883	-0.0390589
-0.739147	-0.214292	-0.0649559
-0.781586	-0.220334	-0.0840389
-0.829113	-0.156026	-0.248319
-0.805394	-0.0953531	-0.255713
-0.756665	-0.0243929	-0.247567
-0.680868	0.0505261	-0.219929
-0.588184	0.114931	-0.173857
-0.464473	0.156217	-0.111693
-0.374721	0.17181	-0.0806575
-0.234015	0.176695	-0.0663839
-0.117393	0.157564	-0.0887198
-0.0136216	0.118726	-0.129151
0.0674188	0.0534149	-0.173537
0.143135	-0.051674	-0.211175
0.196569	-0.117213	-0.215601
0.259479	-0.172717	-0.202095
0.348127	-0.210264	-0.178108
0.454151	-0.228478	-0.163987
0.702918	-0.25703	-0.117433
0.691061	-0.222524	-0.0959018
0.666903	-0.160579	-0.073659
0.622789	-0.0820623	-0.0507754
0.559202	-0.0135355	-0.0363203
0.478466	0.048645	-0.00976908
0.36555	0.0944822	0.000770323
0.262774	0.10285	0.0101824
0.174863	0.0826256	-0.0141852
0.104341	0.0392074	-0.0568002
0.0484994	-0.0143858	-0.123472
-0.00712749	-0.0671013	-0.174829
-0.0695747	-0.0955075	-0.194623
-0.148895	-0.0813619	-0.188034
-0.219074	-0.0416242	-0.151214
-0.297209	-0.000901848	-0.105186
-0.378869	0.0213723	-0.0686608
-0.450494	0.0226659	-0.0572007
-0.518764	0.00391027	-0.0990467
-0.573706	-0.0215472	-0.151374
-0.620806	-0.0487011	-0.209293
-0.656947	-0.0733025	-0.238358
-0.694101	-0.0467457	-0.320412
-0.678671	-0.0578492	-0.280142
-0.645646	-0.0452282	-0.225672
-0.595229	-0.0294558	-0.169014
-0.529153	0.0010274	-0.106339
-0.429203	0.0801869	-0.0854714
-0.345567	0.131131	-0.116353
-0.205209	0.145258	-0.187347
-0.0946969	0.0905702	-0.267271
-0.00391218	0.021813	-0.32436
0.0724396	-0.0406857	-0.39354
0.149391	-0.0795823	-0.46378
0.236661	-0.118639	-0.506048
0.358066	-0.145821	-0.460855
0.463901	-0.176214	-0.375288
0.55887	-0.22093	-0.265931
0.644088	-0.264057	-0.129936
0.713452	-0.29985	-0.020342
0.777455	-0.328888	0.131534
0.818584	-0.370649	0.276078
0.835612	-0.434201	0.411423
0.849736	-0.408103	-0.0383726
0.855484	-0.334731	-0.0890369
0.849334	-0.243403	-0.131363
0.817442	-0.155937	-0.157322
0.758254	-0.0662008	-0.185963
0.655247	0.0308004	-0.221934
0.556709	0.094112	-0.26699
0.461418	0.129494	-0.321161
0.385927	0.135493	-0.41177
0.30945	0.116981	-0.516533
0.219886	0.0816805	-0.603169
0.0713843	0.020626	-0.630751
-0.077282	-0.0136542	-0.598846
-0.231273	-0.0363368	-0.523815
-0.372513	-0.0657973	-0.416554
-0.490782	-0.104738	-0.30011
-0.578602	-0.147919	-0.19189
-0.641786	-0.204486	-0.098207
-0.68963	-0.260782	-0.0530851
-0.719947	-0.265545	-0.0574649
-0.737157	-0.20586	-0.169082
-0.728155	-0.185008	-0.182048
-0.708996	-0.128637	-0.190307
-0.671876	-0.0421471	-0.216087
-0.603866	0.0482617	-0.26793
-0.515755	0.107833	-0.328066
-0.446577	0.110741	-0.354906
-0.397265	0.025175	-0.346903
-0.356163	-0.053108	-0.343183
-0.309978	-0.115672	-0.320843
-0.252199	-0.166641	-0.273322
-0.186485	-0.193608	-0.201804
-0.115685	-0.194695	-0.120381
-0.0470331	-0.125367	-0.0439587
0.00714739	-0.0481269	-0.0121601
0.0717967	0.00648322	-0.0201418
0.153645	0.00973668	-0.0689061
0.23216	-0.0476836	-0.116032
0.297707	-0.121163	-0.144937
0.366949	-0.169423	-0.186966
************TIME_SERIES************
ClassID: 1
TimeSeriesLength: 257
TimeSeriesData: 
0.422871	0.0236221	-0.481413
0.421805	0.0358891	-0.465175
0.435117	0.0378204	-0.43046
0.440735	0.033901	-0.403336
0.443014	0.0291069	-0.390819
0.442565	0.0312453	-0.388782
0.442957	0.0279289	-0.391492
0.437021	0.0106775	-0.393306
0.417699	0.0184028	-0.371874
0.307928	0.0964091	-0.383505
0.111209	0.157954	-0.355258
-0.131239	0.179601	-0.320774
-0.366384	0.159545	-0.300153
-0.594675	0.0907632	-0.295234
-0.689789	0.0385849	-0.310917
-0.758594	-0.0112143	-0.374074
-0.764949	0.00967407	-0.394356
-0.714994	0.132575	-0.457947
-0.711492	0.133952	-0.460934
-0.699206	0.121269	-0.49929
-0.630166	0.146982	-0.55655
-0.475362	0.221273	-0.637014
-0.24292	0.262338	-0.687204
-0.0562045	0.248761	-0.682437
0.119289	0.216807	-0.653243
0.289175	0.186517	-0.614554
0.42928	0.111786	-0.52022
0.548884	-0.0130976	-0.411759
0.633895	-0.145189	-0.303772
0.6569	-0.211202	-0.268208
0.663497	-0.25732	-0.26633
0.677622	-0.234304	-0.204001
0.630809	-0.209206	-0.0772626
0.546994	-0.15567	-0.0579421
0.399018	-0.116741	-0.0259089
0.171946	-0.0993935	-0.00445301
-0.0277973	-0.107896	0.0345485
-0.213388	-0.120809	0.0578954
-0.373859	-0.115628	0.0319007
-0.513856	-0.0946767	-0.0282797
-0.628402	-0.0823044	-0.0889138
-0.714852	-0.108848	-0.131713
-0.757733	-0.123938	-0.170415
-0.771483	-0.137438	-0.19799
-0.738001	-0.0993457	-0.204411
-0.73115	-0.127229	-0.258475
-0.721929	-0.107476	-0.22534
-0.69969	-0.0374565	-0.148313
-0.651325	0.0801247	-0.0258107
-0.605055	0.209809	0.0787381
-0.521174	0.351362	0.109234
-0.400349	0.445732	0.0527471
-0.265374	0.45462	-0.0486222
-0.124885	0.382095	-0.151429
0.00495976	0.194309	-0.271072
0.0521885	0.0311974	-0.312517
0.108834	-0.0856313	-0.319284
0.188203	-0.153987	-0.346151
0.246637	-0.189128	-0.362112
0.27	-0.212926	-0.37212
0.278287	-0.168442	-0.35201
0.273194	-0.195398	-0.388742
0.264741	-0.17102	-0.383131
0.209833	-0.0941142	-0.383011
0.122496	0.0195535	-0.442204
0.0159793	0.102996	-0.518838
-0.0805741	0.148798	-0.604682
-0.165603	0.163315	-0.688119
-0.262923	0.164855	-0.744919
-0.381007	0.16292	-0.727237
-0.524084	0.124142	-0.651027
-0.624838	0.0455066	-0.563836
-0.695884	-0.0565195	-0.456605
-0.745148	-0.138552	-0.321686
-0.770753	-0.20646	-0.186337
-0.7746	-0.220425	-0.135811
-0.704762	-0.144579	-0.206372
-0.647199	-0.0993495	-0.220499
-0.564748	-0.0677751	-0.239479
-0.448709	-0.0516988	-0.281102
-0.313888	-0.0505173	-0.316211
-0.178261	-0.0505656	-0.360771
-0.0498015	-0.0466753	-0.418674
0.0668932	-0.0787544	-0.436017
0.141934	-0.130058	-0.379377
0.224566	-0.18023	-0.301878
0.320109	-0.225414	-0.24015
0.419835	-0.264348	-0.176083
0.517184	-0.28865	-0.128915
0.602168	-0.300926	-0.13734
0.636744	-0.311668	-0.130286
0.649288	-0.307772	-0.142335
0.716853	-0.236489	-0.246024
0.708437	-0.214084	-0.371662
0.686865	-0.0878915	-0.476145
0.639145	-0.0144016	-0.523299
0.534158	0.0751232	-0.565253
0.432866	0.157523	-0.598274
0.317035	0.21966	-0.610161
0.18466	0.24073	-0.593302
-0.0018889	0.206885	-0.507129
-0.164061	0.138262	-0.399962
-0.312819	0.0418078	-0.278908
-0.437567	-0.0614208	-0.179232
-0.541871	-0.146571	-0.0822845
-0.635779	-0.247262	0.0701491
-0.683816	-0.292553	0.13282
-0.741758	-0.314631	0.152588
-0.819929	-0.158515	-0.210126
-0.785953	-0.0579322	-0.358246
-0.725857	0.0276811	-0.448356
-0.627292	0.107293	-0.504221
-0.534251	0.154333	-0.50142
-0.447772	0.164809	-0.432549
-0.365522	0.145524	-0.328246
-0.281141	0.112056	-0.22769
-0.197158	0.0521577	-0.117441
-0.105581	-0.0296254	-0.0037697
-0.0297297	-0.105792	0.102928
0.0434285	-0.1627	0.164368
0.109768	-0.20455	0.201767
0.179176	-0.23426	0.188406
0.268298	-0.241783	0.102609
0.373252	-0.242552	-0.0212313
0.49781	-0.251112	-0.154339
0.577149	-0.249797	-0.238309
0.634297	-0.0685359	-0.109042
0.565819	-0.0196242	-0.0475828
0.490949	0.00961652	0.0299068
0.41936	0.016554	0.108565
0.332417	0.00918342	0.19295
0.255897	-0.0153813	0.258035
0.172671	-0.0537658	0.264929
0.0755728	-0.0878988	0.207122
-0.0222381	-0.110354	0.117523
-0.114532	-0.107498	-0.0247172
-0.220973	-0.0812248	-0.167586
-0.310398	-0.0599555	-0.224951
-0.398615	-0.0640986	-0.216467
-0.483093	-0.0839434	-0.177555
-0.559691	-0.118579	-0.114544
-0.638087	-0.172374	-0.0486733
-0.691191	-0.203883	-0.0390589
-0.739147	-0.214292	-0.0649559
-0.781586	-0.220334	-0.0840389
-0.829113	-0.156026	-0.248319
-0.805394	-0.0953531	-0.255713
-0.756665	-0.0243929	-0.247567
-0.680868	0.0505261	-0.219929
-0.588184	0.114931	-0.173857
-0.464473	0.156217	-0.111693
-0.374721	0.17181	-0.0806575
-0.234015	0.176695	-0.0663839
-0.117393	0.157564	-0.0887198
-0.0136216	0.118726	-0.129151
0.0674188	0.0534149	-0.173537
0.143135	-0.051674	-0.211175
0.196569	-0.117213	-0.215601
0.259479	-0.172717	-0.202095
0.348127	-0.210264	-0.178108
0.454151	-0.228478	-0.163987
0.702918	-0.25703	-0.117433
0.691061	-0.222524	-0.0959018
0.666903	-0.160579	-0.073659
0.622789	-0.0820623	-0.0507754
0.559202	-0.0135355	-0.0363203
0.478466	0.048645	-0.00976908
0.36555	0.0944822	0.000770323
0.262774	0.10285	0.0101824
0.174863	0.0826256	-0.0141852
0.104341	0.0392074	-0.0568002
0.0484994	-0.0143858	-0.123472
-0.00712749	-0.0671013	-0.174829
-0.0695747	-0.0955075	-0.194623
-0.148895	-0.0813619	-0.188034
-0.219074	-0.0416242	-0.151214
-0.297209	-0.000901848	-0.105186
-0.378869	0.0213723	-0.0686608
-0.450494	0.0226659	-0.0572007
-0.518764	0.00391027	-0.0990467
-0.573706	-0.0215472	-0.151374
-0.620806	-0.0487011	-0.209293
-0.656947	-0.0733025	-0.238358
-0.694101	-0.0467457	-0.320412
-0.678671	-0.0578492	-0.280142
-0.645646	-0.0452282	-0.225672
-0.595229	-0.0294558	-0.169014
-0.529153	0.0010274	-0.106339
-0.429203	0.0801869	-0.0854714
-0.345567	0.131131	-0.116353
-0.205209	0.145258	-0.187347
-0.0946969	0.0905702	-0.267271
-0.00391218	0.021813	-0.32436
0.0724396	-0.0406857	-0.39354
0.149391	-0.0795823	-0.46378
0.236661	-0.118639	-0.506048
0.358066	-0.145821	-0.460855
0.463901	-0.176214	-0.375288
0.55887	-0.22093	-0.265931
0.644088	-0.264057	-0.129936
0.713452	-0.29985	-0.020342
0.777455	-0.328888	0.131534
0.818584	-0.370649	0.276078
0.835612	-0.434201	0.411423
0.849736	-0.408103	-0.0383726
0.855484	-0.334731	-0.0890369
0.849334	-0.243403	-0.131363
0.817442	-0.155937	-0.157322
0.758254	-0.0662008	-0.185963
0.655247	0.0308004	-0.221934
0.556709	0.094112	-0.26699
0.461418	0.129494	-0.321161
0.385927	0.135493	-0.41177
0.30945	0.116981	-0.516533
0.219886	0.0816805	-0.603169
0.0713843	0.020626	-0.630751
-0.077282	-0.0136542	-0.598846
-0.231273	-0.0363368	-0.523815
-0.372513	-0.0657973	-0.416554
-0.490782	-0.104738	-0.30011
-0.578602	-0.147919	-0.19189
-0.641786	-0.204486	-0.098207
-0.68963	-0.260782	-0.0530851
-0.719947	-0.265545	-0.0574649
-0.737157	-0.20586	-0.169082
-0.728155	-0.185008	-0.182048
-0.708996	-0.128637	-0.190307
-0.671876	-0.0421471	-0.216087
-0.603866	0.0482617	-0.26793
-0.515755	0.107833	-0.328066
-0.446577	0.110741	-0.354906
-0.397265	0.025175	-0.346903
-0.356163	-0.053108	-0.343183
-0.309978	-0.115672	-0.320843
-0.252199	-0.166641	-0.273322
-0.186485	-0.193608	-0.201804
-0.115685	-0.194695	-0.120381
-0.0470331	-0.125367	-0.0439587
0.00714739	-0.0481269	-0.0121601
0.0717967	0.00648322	-0.0201418
0.153645	0.00973668	-0.0689061
0.23216	-0.0476836	-0.116032
0.297707	-0.121163	-0.144937
0.366949	-0.169423	-0.186966
0.503022	-0.218216	-0.316185
0.466771	-0.175251	-0.3232
0.424107	-0.130312	-0.321467
0.382437	-0.0971796	-0.301112
0.348652	-0.0749716	-0.271834
0.326832	-0.0672421	-0.244009
0.308902	-0.0793481	-0.216484
0.301956	-0.10929	-0.18769
0.305641	-0.142874	-0.163154
0.316726	-0.173963	-0.156694
0.330361	-0.20311	-0.146122
0.334974	-0.221895	-0.142936
0.335874	-0.253785	-0.166908
************TIME_SERIES************
ClassID: 2
TimeSeriesLength: 14
TimeSeriesData: 
0.41853	-0.131506	-0.203516
0.416721	-0.116969	-0.189903
0.418253	-0.0973215	-0.166839
0.440844	-0.103427	-0.148265
0.484109	-0.126562	-0.185902
0.500002	-0.150696	-0.180889
0.511535	-0.164852	-0.163938
0.517198	-0.182221	-0.166558
0.513583	-0.19297	-0.156331
0.510844	-0.200449	-0.137842
0.507751	-0.204876	-0.125837
0.507531	-0.205858	-0.119609
0.505932	-0.213569	-0.11005
0.484089	-0.240885	-0.0678227
************TIME_SERIES************
ClassID: 2
TimeSeriesLength: 26
TimeSeriesData: 
0.41853	-0.131506	-0.203516
0.416721	-0.116969	-0.189903
0.418253	-0.0973215	-0.166839
0.440844	-0.103427	-0.148265
0.484109	-0.126562	-0.185902
0.500002	-0.150696	-0.180889
0.511535	-0.164852	-0.163938
0.517198	-0.182221	-0.166558
0.513583	-0.19297	-0.156331
0.510844	-0.200449	-0.137842
0.507751	-0.204876	-0.125837
0.507531	-0.205858	-0.119609
0.505932	-0.213569	-0.11005
0.484089	-0.240885	-0.0678227
0.435378	-0.117225	-0.199869
0.44005	-0.120225	-0.19318
0.444446	-0.135879	-0.173216
0.447126	-0.147259	-0.156916
0.446209	-0.16638	-0.137662
0.46572	-0.147393	-0.165123
0.477363	-0.140015	-0.16267
0.474678	-0.15404	-0.160508
0.46737	-0.159992	-0.163375
0.467258	-0.169582	-0.164486
0.465937	-0.17491	-0.157472
0.467823	-0.182998	-0.141829
************TIME_SERIES************
ClassID: 2
TimeSeriesLength: 40
TimeSeriesData: 
0.41853	-0.131506	-0.203516
0.416721	-0.116969	-0.189903
0.418253	-0.0973215	-0.166839
0.440844	-0.103427	-0.148265
0.484109	-0.126562	-0.185902
0.500002	-0.150696	-0.180889
0.511535	-0.164852	-0.163938
0.517198	-0.182221	-0.166558
0.513583	-0.19297	-0.156331
0.510844	-0.200449	-0.137842
0.507751	-0.204876	-0.125837
0.507531	-0.205858	-0.119609
0.505932	-0.213569	-0.11005
0.484089	-0.240885	-0.0678227
0.435378	-0.117225	-0.199869
0.44005	-0.120225	-0.19318
0.444446	-0.135879	-0.173216
0.447126	-0.147259	-0.156916
0.446209	-0.16638	-0.137662
0.46572	-0.147393	-0.165123
0.477363	-0.140015	-0.16267
0.474678	-0.15404	-0.160508
0.46737	-0.159992	-0.163375
0.467258	-0.169582	-0.164486
0.465937	-0.17491	-0.157472
0.467823	-0.182998	-0.141829
0.452813	-0.189636	-0.115709
0.452844	-0.189578	-0.116979
0.452383	-0.187989	-0.116789
0.451297	-0.183968	-0.115628
0.450298	-0.181515	-0.116702
0.449479	-0.178832	-0.118817
0.450105	-0.173999	-0.114173
0.454458	-0.17943	-0.09975
0.479267	-0.155083	-0.137337
0.474802	-0.168351	-0.148807
0.471538	-0.178752	-0.154801
0.46931	-0.184951	-0.15063
0.467836	-0.188603	-0.15032
0.466922	-0.188532	-0.150919
************TIME_SERIES************
ClassID: 2
TimeSeriesLength: 50
TimeSeriesData: 
0.41853	-0.131506	-0.203516
0.416721	-0.116969	-0.189903
0.418253	-0.0973215	-0.166839
0.440844	-0.103427	-0.148265
0.484109	-0.126562	-0.185902
0.500002	-0.150696	-0.180889
0.511535	-0.164852	-0.163938
0.517198	-0.182221	-0.166558
0.513583	-0.19297	-0.156331
0.510844	-0.200449	-0.137842
0.507751	-0.204876	-0.125837
0.507531	-0.205858	-0.119609
0.505932	-0.213569	-0.11005
0.484089	-0.240885	-0.0678227
0.435378	-0.117225	-0.199869
0.44005	-0.120225	-0.19318
0.444446	-0.135879	-0.173216
0.447126	-0.147259	-0.156916
0.446209	-0.16638	-0.137662
0.46572	-0.147393	-0.165123
0.477363	-0.140015	-0.16267
0.474678	-0.15404	-0.160508
0.46737	-0.159992	-0.163375
0.467258	-0.169582	-0.164486
0.465937	-0.17491	-0.157472
0.467823	-0.182998	-0.141829
0.452813	-0.189636	-0.115709
0.452844	-0.189578	-0.116979
0.452383	-0.187989	-0.116789
0.451297	-0.183968	-0.115628
0.450298	-0.181515	-0.116702
0.449479	-0.178832	-0.118817
0.450105	-0.173999	-0.114173
0.454458	-0.17943	-0.09975
0.479267	-0.155083	-0.137337
0.474802	-0.168351	-0.148807
0.471538	-0.178752	-0.154801
0.46931	-0.184951	-0.15063
0.467836	-0.188603	-0.15032
0.466922	-0.188532	-0.150919
0.453767	-0.16514	-0.128612
0.455041	-0.165354	-0.128962
0.455654	-0.165781	-0.123412
0.452949	-0.168993	-0.113164
0.45145	-0.171865	-0.104033
0.469754	-0.147564	-0.123195
0.472101	-0.157179	-0.124976
0.469519	-0.172537	-0.1362
0.46271	-0.194865	-0.135979
0.462199	-0.204789	-0.133862
************TIME_SERIES************
ClassID: 2
TimeSeriesLength: 66
TimeSeriesData: 
0.41853	-0.131506	-0.203516
0.416721	-0.116969	-0.189903
0.418253	-0.0973215	-0.166839
0.440844	-0.103427	-0.148265
0.484109	-0.126562	-0.185902
0.500002	-0.150696	-0.180889
0.511535	-0.164852	-0.163938
0.517198	-0.182221	-0.166558
0.513583	-0.19297	-0.156331
0.510844	-0.200449	-0.137842
0.507751	-0.204876	-0.125837
0.507531	-0.205858	-0.119609
0.505932	-0.213569	-0.11005
0.484089	-0.240885	-0.0678227
0.435378	-0.117225	-0.199869
0.44005	-0.120225	-0.19318
0.444446	-0.135879	-0.173216
0.447126	-0.147259	-0.156916
0.446209	-0.16638	-0.137662
0.46572	-0.147393	-0.165123
0.477363	-0.140015	-0.16267
0.474678	-0.15404	-0.160508
0.46737	-0.159992	-0.163375
0.467258	-0.169582	-0.164486
0.465937	-0.17491	-0.157472
0.467823	-0.182998	-0.141829
0.452813	-0.189636	-0.115709
0.452844	-0.189578	-0.116979
0.452383	-0.187989	-0.116789
0.451297	-0.183968	-0.115628
0.450298	-0.181515	-0.116702
0.449479	-0.178832	-0.118817
0.450105	-0.173999	-0.114173
0.454458	-0.17943	-0.09975
0.479267	-0.155083	-0.137337
0.474802	-0.168351	-0.148807
0.471538	-0.178752	-0.154801
0.46931	-0.184951	-0.15063
0.467836	-0.188603	-0.15032
0.466922	-0.188532	-0.150919
0.453767	-0.16514	-0.128612
0.455041	-0.165354	-0.128962
0.455654	-0.165781	-0.123412
0.452949	-0.168993	-0.113164
0.45145	-0.171865	-0.104033
0.469754	-0.147564	-0.123195
0.472101	-0.157179	-0.124976
0.469519	-0.172537	-0.1362
0.46271	-0.194865	-0.135979
0.462199	-0.204789	-0.133862
0.444115	-0.194769	-0.0825524
0.443985	-0.192335	-0.084933
0.442816	-0.190973	-0.083245
0.442511	-0.19165	-0.0861272
0.444642	-0.19062	-0.0874332
0.444151	-0.197119	-0.0861214
0.444938	-0.202904	-0.0752702
0.460455	-0.169148	-0.0851982
0.455771	-0.162108	-0.0920185
0.446255	-0.168441	-0.116347
0.441511	-0.171593	-0.114093
0.43913	-0.172574	-0.116436
0.438362	-0.175923	-0.115575
0.439801	-0.180531	-0.114471
0.440083	-0.187363	-0.107526
0.441078	-0.199192	-0.0801301
************TIME_SERIES************
ClassID: 2
TimeSeriesLength: 79
TimeSeriesData: 
0.41853	-0.131506	-0.203516
0.416721	-0.116969	-0.189903
0.418253	-0.0973215	-0.166839
0.440844	-0.103427	-0.148265
0.484109	-0.126562	-0.185902
0.500002	-0.150696	-0.180889
0.511535	-0.164852	-0.163938
0.517198	-0.182221	-0.166558
0.513583	-0.19297	-0.156331
0.510844	-0.200449	-0.137842
0.507751	-0.204876	-0.125837
0.507531	-0.205858	-0.119609
0.505932	-0.213569	-0.11005
0.484089	-0.240885	-0.0678227
0.435378	-0.117225	-0.199869
0.44005	-0.120225	-0.19318
0.444446	-0.135879	-0.173216
0.447126	-0.147259	-0.156916
0.446209	-0.16638	-0.137662
0.46572	-0.147393	-0.165123
0.477363	-0.140015	-0.16267
0.474678	-0.15404	-0.160508
0.46737	-0.159992	-0.163375
0.467258	-0.169582	-0.164486
0.465937	-0.17491	-0.157472
0.467823	-0.182998	-0.141829
0.452813	-0.189636	-0.115709
0.452844	-0.189578	-0.116979
0.452383	-0.187989	-0.116789
0.451297	-0.183968	-0.115628
0.450298	-0.181515	-0.116702
0.449479	-0.178832	-0.118817
0.450105	-0.173999	-0.114173
0.454458	-0.17943	-0.09975
0.479267	-0.155083	-0.137337
0.474802	-0.168351	-0.148807
0.471538	-0.178752	-0.154801
0.46931	-0.184951	-0.15063
0.467836	-0.188603	-0.15032
0.466922	-0.188532	-0.150919
0.453767	-0.16514	-0.128612
0.455041	-0.165354	-0.128962
0.455654	-0.165781	-0.123412
0.452949	-0.168993	-0.113164
0.45145	-0.171865	-0.104033
0.469754	-0.147564	-0.123195
0.472101	-0.157179	-0.124976
0.469519	-0.172537	-0.1362
0.46271	-0.194865	-0.135979
0.462199	-0.204789	-0.133862
0.444115	-0.194769	-0.0825524
0.443985	-0.192335	-0.084933
0.442816	-0.190973	-0.083245
0.442511	-0.19165	-0.0861272
0.444642	-0.19062	-0.0874332
0.444151	-0.197119	-0.0861214
0.444938	-0.202904	-0.0752702
0.460455	-0.169148	-0.0851982
0.455771	-0.162108	-0.0920185
0.446255	-0.168441	-0.116347
0.441511	-0.171593	-0.114093
0.43913	-0.172574	-0.116436
0.438362	-0.175923	-0.115575
0.439801	-0.180531	-0.114471
0.440083	-0.187363	-0.107526
0.441078	-0.199192	-0.0801301
0.452655	-0.176979	-0.0720685
0.449029	-0.173907	-0.0696402
0.442302	-0.179107	-0.0670847
0.433284	-0.186106	-0.0573124
0.426346	-0.195362	-0.0517667
0.429946	-0.211628	-0.0295332
0.43634	-0.199453	-0.047314
0.451418	-0.18126	-0.0592604
0.45091	-0.185287	-0.0697642
0.447802	-0.195212	-0.0786677
0.446603	-0.200178	-0.0774176
0.445588	-0.200625	-0.0785467
0.446557	-0.200828	-0.0770064
************TIME_SERIES************
ClassID: 2
TimeSeriesLength: 92
TimeSeriesData: 
0.41853	-0.131506	-0.203516
0.416721	-0.116969	-0.189903
0.418253	-0.0973215	-0.166839
0.440844	-0.103427	-0.148265
0.484109	-0.126562	-0.185902
0.500002	-0.150696	-0.180889
0.511535	-0.164852	-0.163938
0.517198	-0.182221	-0.166558
0.513583	-0.19297	-0.156331
0.510844	-0.200449	-0.137842
0.507751	-0.204876	-0.125837
0.507531	-0.205858	-0.119609
0.505932	-0.213569	-0.11005
0.484089	-0.240885	-0.0678227
0.435378	-0.117225	-0.199869
0.44005	-0.120225	-0.19318
0.444446	-0.135879	-0.173216
0.447126	-0.147259	-0.156916
0.446209	-0.16638	-0.137662
0.46572	-0.147393	-0.165123
0.477363	-0.140015	-0.16267
0.474678	-0.15404	-0.160508
0.46737	-0.159992	-0.163375
0.467258	-0.169582	-0.164486
0.465937	-0.17491	-0.157472
0.467823	-0.182998	-0.141829
0.452813	-0.189636	-0.115709
0.452844	-0.189578	-0.116979
0.452383	-0.187989	-0.116789
0.451297	-0.183968	-0.115628
0.450298	-0.181515	-0.116702
0.449479	-0.178832	-0.118817
0.450105	-0.173999	-0.114173
0.454458	-0.17943	-0.09975
0.479267	-0.155083	-0.137337
0.474802	-0.168351	-0.148807
0.471538	-0.178752	-0.154801
0.46931	-0.184951	-0.15063
0.467836	-0.188603	-0.15032
0.466922	-0.188532	-0.150919
0.453767	-0.16514	-0.128612
0.455041	-0.165354	-0.128962
0.455654	-0.165781	-0.123412
0.452949	-0.168993	-0.113164
0.45145	-0.171865	-0.104033
0.469754	-0.147564	-0.123195
0.472101	-0.157179	-0.124976
0.469519	-0.172537	-0.1362
0.46271	-0.194865	-0.135979
0.462199	-0.204789	-0.133862
0.444115	-0.194769	-0.0825524
0.443985	-0.192335	-0.084933
0.442816	-0.190973	-0.083245
0.442511	-0.19165	-0.0861272
0.444642	-0.19062	-0.0874332
0.444151	-0.197119	-0.0861214
0.444938	-0.202904	-0.0752702
0.460455	-0.169148	-0.0851982
0.455771	-0.162108	-0.0920185
0.446255	-0.168441	-0.116347
0.441511	-0.171593	-0.114093
0.43913	-0.172574	-0.116436
0.438362	-0.175923	-0.115575
0.439801	-0.180531	-0.114471
0.440083	-0.187363	-0.107526
0.441078	-0.199192	-0.0801301
0.452655	-0.176979	-0.0720685
0.449029	-0.173907	-0.0696402
0.442302	-0.179107	-0.0670847
0.433284	-0.186106	-0.0573124
0.426346	-0.195362	-0.0517667
0.429946	-0.211628	-0.0295332
0.43634	-0.199453	-0.047314
0.451418	-0.18126	-0.0592604
0.45091	-0.185287	-0.0697642
0.447802	-0.195212	-0.0786677
0.446603	-0.200178	-0.0774176
0.445588	-0.200625	-0.0785467
0.446557	-0.200828	-0.0770064
0.438522	-0.216807	-0.0562322
0.437356	-0.213912	-0.0616339
0.433507	-0.206999	-0.0553404
0.42824	-0.207073	-0.0559104
0.428051	-0.207656	-0.0676211
0.43196	-0.216421	-0.0621413
0.434836	-0.213588	-0.0603659
0.458277	-0.19015	-0.0753694
0.450555	-0.198858	-0.073933
0.44565	-0.209712	-0.0831876
0.440039	-0.213578	-0.0793124
0.440696	-0.21327	-0.078306
0.439253	-0.217846	-0.067742
************TIME_SERIES************
ClassID: 2
TimeSeriesLength: 108
TimeSeriesData: 
0.41853	-0.131506	-0.203516
0.416721	-0.116969	-0.189903
0.418253	-0.0973215	-0.166839
0.440844	-0.103427	-0.148265
0.484109	-0.126562	-0.185902
0.500002	-0.150696	-0.180889
0.511535	-0.164852	-0.163938
0.517198	-0.182221	-0.166558
0.513583	-0.19297	-0.156331
0.510844	-0.200449	-0.137842
0.507751	-0.204876	-0.125837
0.507531	-0.205858	-0.119609
0.505932	-0.213569	-0.11005
0.484089	-0.240885	-0.0678227
0.435378	-0.117225	-0.199869
0.44005	-0.120225	-0.19318
0.444446	-0.135879	-0.173216
0.447126	-0.147259	-0.156916
0.446209	-0.16638	-0.137662
0.46572	-0.147393	-0.165123
0.477363	-0.140015	-0.16267
0.474678	-0.15404	-0.160508
0.46737	-0.159992	-0.163375
0.467258	-0.169582	-0.164486
0.465937	-0.17491	-0.157472
0.467823	-0.182998	-0.141829
0.452813	-0.189636	-0.115709
0.452844	-0.189578	-0.116979
0.452383	-0.187989	-0.116789
0.451297	-0.183968	-0.115628
0.450298	-0.181515	-0.116702
0.449479	-0.178832	-0.118817
0.450105	-0.173999	-0.114173
0.454458	-0.17943	-0.09975
0.479267	-0.155083	-0.137337
0.474802	-0.168351	-0.148807
0.471538	-0.178752	-0.154801
0.46931	-0.184951	-0.15063
0.467836	-0.188603	-0.15032
0.466922	-0.188532	-0.150919
0.453767	-0.16514	-0.128612
0.455041	-0.165354	-0.128962
0.455654	-0.165781	-0.123412
0.452949	-0.168993	-0.113164
0.45145	-0.171865	-0.104033
0.469754	-0.147564	-0.123195
0.472101	-0.157179	-0.124976
0.469519	-0.172537	-0.1362
0.46271	-0.194865	-0.135979
0.462199	-0.204789	-0.133862
0.444115	-0.194769	-0.0825524
0.443985	-0.192335	-0.084933
0.442816	-0.190973	-0.083245
0.442511	-0.19165	-0.0861272
0.444642	-0.19062	-0.0874332
0.444151	-0.197119	-0.0861214
0.444938	-0.202904	-0.0752702
0.460455	-0.169148	-0.0851982
0.455771	-0.162108	-0.0920185
0.446255	-0.168441	-0.116347
0.441511	-0.171593	-0.114093
0.43913	-0.172574	-0.116436
0.438362	-0.175923	-0.115575
0.439801	-0.180531	-0.114471
0.440083	-0.187363	-0.107526
0.441078	-0.199192	-0.0801301
0.452655	-0.176979	-0.0720685
0.449029	-0.173907	-0.0696402
0.442302	-0.179107	-0.0670847
0.433284	-0.186106	-0.0573124
0.426346	-0.195362	-0.0517667
0.429946	-0.211628	-0.0295332
0.43634	-0.199453	-0.047314
0.451418	-0.18126	-0.0592604
0.45091	-0.185287	-0.0697642
0.447802	-0.195212	-0.0786677
0.446603	-0.200178	-0.0774176
0.445588	-0.200625	-0.0785467
0.446557	-0.200828	-0.0770064
0.438522	-0.216807	-0.0562322
0.437356	-0.213912	-0.0616339
0.433507	-0.206999	-0.0553404
0.42824	-0.207073	-0.0559104
0.428051	-0.207656	-0.0676211
0.43196	-0.216421	-0.0621413
0.434836	-0.213588	-0.0603659
0.458277	-0.19015	-0.0753694
0.450555	-0.198858	-0.073933
0.44565	-0.209712	-0.0831876
0.440039	-0.213578	-0.0793124
0.440696	-0.21327	-0.078306
0.439253	-0.217846	-0.067742
0.460856	-0.196339	-0.169304
0.456464	-0.194439	-0.169915
0.455537	-0.192938	-0.170364
0.456726	-0.190997	-0.155333
0.454694	-0.193837	-0.148659
0.450086	-0.193836	-0.149702
0.444209	-0.202999	-0.0964874
0.451207	-0.183009	-0.107197
0.465528	-0.168595	-0.131735
0.462888	-0.175104	-0.143992
0.460805	-0.18515	-0.154187
0.457428	-0.188667	-0.149835
0.458357	-0.188339	-0.149582
0.447244	-0.190432	-0.133738
0.444218	-0.193263	-0.127676
0.443345	-0.195531	-0.106099
************TIME_SERIES************
ClassID: 2
TimeSeriesLength: 124
TimeSeriesData: 
0.41853	-0.131506	-0.203516
0.416721	-0.116969	-0.189903
0.418253	-0.0973215	-0.166839
0.440844	-0.103427	-0.148265
0.484109	-0.126562	-0.185902
0.500002	-0.150696	-0.180889
0.511535	-0.164852	-0.163938
0.517198	-0.182221	-0.166558
0.513583	-0.19297	-0.156331
0.510844	-0.200449	-0.137842
0.507751	-0.204876	-0.125837
0.507531	-0.205858	-0.119609
0.505932	-0.213569	-0.11005
0.484089	-0.240885	-0.0678227
0.435378	-0.117225	-0.199869
0.44005	-0.120225	-0.19318
0.444446	-0.135879	-0.173216
0.447126	-0.147259	-0.156916
0.446209	-0.16638	-0.137662
0.46572	-0.147393	-0.165123
0.477363	-0.140015	-0.16267
0.474678	-0.15404	-0.160508
0.46737	-0.159992	-0.163375
0.467258	-0.169582	-0.164486
0.465937	-0.17491	-0.157472
0.467823	-0.182998	-0.141829
0.452813	-0.189636	-0.115709
0.452844	-0.189578	-0.116979
0.452383	-0.187989	-0.116789
0.451297	-0.183968	-0.115628
0.450298	-0.181515	-0.116702
0.449479	-0.178832	-0.118817
0.450105	-0.173999	-0.114173
0.454458	-0.17943	-0.09975
0.479267	-0.155083	-0.137337
0.474802	-0.168351	-0.148807
0.471538	-0.178752	-0.154801
0.46931	-0.184951	-0.15063
0.467836	-0.188603	-0.15032
0.466922	-0.188532	-0.150919
0.453767	-0.16514	-0.128612
0.455041	-0.165354	-0.128962
0.455654	-0.165781	-0.123412
0.452949	-0.168993	-0.113164
0.45145	-0.171865	-0.104033
0.469754	-0.147564	-0.123195
0.472101	-0.157179	-0.124976
0.469519	-0.172537	-0.1362
0.46271	-0.194865	-0.135979
0.462199	-0.204789	-0.133862
0.444115	-0.194769	-0.0825524
0.443985	-0.192335	-0.084933
0.442816	-0.190973	-0.083245
0.442511	-0.19165	-0.0861272
0.444642	-0.19062	-0.0874332
0.444151	-0.197119	-0.0861214
0.444938	-0.202904	-0.0752702
0.460455	-0.169148	-0.0851982
0.455771	-0.162108	-0.0920185
0.446255	-0.168441	-0.116347
0.441511	-0.171593	-0.114093
0.43913	-0.172574	-0.116436
0.438362	-0.175923	-0.115575
0.439801	-0.180531	-0.114471
0.440083	-0.187363	-0.107526
0.441078	-0.199192	-0.0801301
0.452655	-0.176979	-0.0720685
0.449029	-0.173907	-0.0696402
0.442302	-0.179107	-0.0670847
0.433284	-0.186106	-0.0573124
0.426346	-0.195362	-0.0517667
0.429946	-0.211628	-0.0295332
0.43634	-0.199453	-0.047314
0.451418	-0.18126	-0.0592604
0.45091	-0.185287	-0.0697642
0.447802	-0.195212	-0.0786677
0.446603	-0.200178	-0.0774176
0.445588	-0.200625	-0.0785467
0.446557	-0.200828	-0.0770064
0.438522	-0.216807	-0.0562322
0.437356	-0.213912	-0.0616339
0.433507	-0.206999	-0.0553404
0.42824	-0.207073	-0.0559104
0.428051	-0.207656	-0.0676211
0.43196	-0.216421	-0.0621413
0.434836	-0.213588	-0.0603659
0.458277	-0.19015	-0.0753694
0.450555	-0.198858	-0.073933
0.44565	-0.209712	-0.0831876
0.440039	-0.213578	-0.0793124
0.440696	-0.21327	-0.078306
0.439253	-0.217846	-0.067742
0.460856	-0.196339	-0.169304
0.456464	-0.194439	-0.169915
0.455537	-0.192938	-0.170364
0.456726	-0.190997	-0.155333
0.454694	-0.193837	-0.148659
0.450086	-0.193836	-0.149702
0.444209	-0.202999	-0.0964874
0.451207	-0.183009	-0.107197
0.465528	-0.168595	-0.131735
0.462888	-0.175104	-0.143992
0.460805	-0.18515	-0.154187
0.457428	-0.188667	-0.149835
0.458357	-0.188339	-0.149582
0.447244	-0.190432	-0.133738
0.444218	-0.193263	-0.127676
0.443345	-0.195531	-0.106099
0.438956	-0.193743	-0.111106
0.438576	-0.194043	-0.115589
0.43767	-0.194598	-0.115168
0.437436	-0.194487	-0.116847
0.435833	-0.194481	-0.11901
0.433722	-0.194543	-0.119073
0.431253	-0.192799	-0.123733
0.4277	-0.19432	-0.113554
0.42478	-0.191515	-0.112232
0.438524	-0.170599	-0.131366
0.438852	-0.172532	-0.106935
0.44259	-0.182182	-0.124366
0.442526	-0.190248	-0.128819
0.441021	-0.196743	-0.133529
0.442555	-0.198198	-0.135792
0.441559	-0.19745	-0.134188
************TIME_SERIES************
ClassID: 2
TimeSeriesLength: 136
TimeSeriesData: 
0.41853	-0.131506	-0.203516
0.416721	-0.116969	-0.189903
0.418253	-0.0973215	-0.166839
0.440844	-0.103427	-0.148265
0.484109	-0.126562	-0.185902
0.500002	-0.150696	-0.180889
0.511535	-0.164852	-0.163938
0.517198	-0.182221	-0.166558
0.513583	-0.19297	-0.156331
0.510844	-0.200449	-0.137842
0.507751	-0.204876	-0.125837
0.507531	-0.205858	-0.119609
0.505932	-0.213569	-0.11005
0.484089	-0.240885	-0.0678227
0.435378	-0.117225	-0.199869
0.44005	-0.120225	-0.19318
0.444446	-0.135879	-0.173216
0.447126	-0.147259	-0.156916
0.446209	-0.16638	-0.137662
0.46572	-0.147393	-0.165123
0.477363	-0.140015	-0.16267
0.474678	-0.15404	-0.160508
0.46737	-0.159992	-0.163375
0.467258	-0.169582	-0.164486
0.465937	-0.17491	-0.157472
0.467823	-0.182998	-0.141829
0.452813	-0.189636	-0.115709
0.452844	-0.189578	-0.116979
0.452383	-0.187989	-0.116789
0.451297	-0.183968	-0.115628
0.450298	-0.181515	-0.116702
0.449479	-0.178832	-0.118817
0.450105	-0.173999	-0.114173
0.454458	-0.17943	-0.09975
0.479267	-0.155083	-0.137337
0.474802	-0.168351	-0.148807
0.471538	-0.178752	-0.154801
0.46931	-0.184951	-0.15063
0.467836	-0.188603	-0.15032
0.466922	-0.188532	-0.150919
0.453767	-0.16514	-0.128612
0.455041	-0.165354	-0.128962
0.455654	-0.165781	-0.123412
0.452949	-0.168993	-0.113164
0.45145	-0.171865	-0.104033
0.469754	-0.147564	-0.123195
0.472101	-0.157179	-0.124976
0.469519	-0.172537	-0.1362
0.46271	-0.194865	-0.135979
0.462199	-0.204789	-0.133862
0.444115	-0.194769	-0.0825524
0.443985	-0.192335	-0.084933
0.442816	-0.190973	-0.083245
0.442511	-0.19165	-0.0861272
0.444642	-0.19062	-0.0874332
0.444151	-0.197119	-0.0861214
0.444938	-0.202904	-0.0752702
0.460455	-0.169148	-0.0851982
0.455771	-0.162108	-0.0920185
0.446255	-0.168441	-0.116347
0.441511	-0.171593	-0.114093
0.43913	-0.172574	-0.116436
0.438362	-0.175923	-0.115575
0.439801	-0.180531	-0.114471
0.440083	-0.187363	-0.107526
0.441078	-0.199192	-0.0801301
0.452655	-0.176979	-0.0720685
0.449029	-0.173907	-0.0696402
0.442302	-0.179107	-0.0670847
0.433284	-0.186106	-0.0573124
0.426346	-0.195362	-0.0517667
0.429946	-0.211628	-0.0295332
0.43634	-0.199453	-0.047314
0.451418	-0.18126	-0.0592604
0.45091	-0.185287	-0.0697642
0.447802	-0.195212	-0.0786677
0.446603	-0.200178	-0.0774176
0.445588	-0.200625	-0.0785467
0.446557	-0.200828	-0.0770064
0.438522	-0.216807	-0.0562322
0.437356	-0.213912	-0.0616339
0.433507	-0.206999	-0.0553404
0.42824	-0.207073	-0.0559104
0.428051	-0.207656	-0.0676211
0.43196	-0.216421	-0.0621413
0.434836	-0.213588	-0.0603659
0.458277	-0.19015	-0.0753694
0.450555	-0.198858	-0.073933
0.44565	-0.209712	-0.0831876
0.440039	-0.213578	-0.0793124
0.440696	-0.21327	-0.078306
0.439253	-0.217846	-0.067742
0.460856	-0.196339	-0.169304
0.456464	-0.194439	-0.169915
0.455537	-0.192938	-0.170364
0.456726	-0.190997	-0.155333
0.454694	-0.193837	-0.148659
0.450086	-0.193836	-0.149702
0.444209	-0.202999	-0.0964874
0.451207	-0.183009	-0.107197
0.465528	-0.168595	-0.131735
0.462888	-0.175104	-0.143992
0.460805	-0.18515	-0.154187
0.457428	-0.188667	-0.149835
0.458357	-0.188339	-0.149582
0.447244	-0.190432	-0.133738
0.444218	-0.193263	-0.127676
0.443345	-0.195531	-0.106099
0.438956	-0.193743	-0.111106
0.438576	-0.194043	-0.115589
0.43767	-0.194598	-0.115168
0.437436	-0.194487	-0.116847
0.435833	-0.194481	-0.11901
0.433722	-0.194543	-0.119073
0.431253	-0.192799	-0.123733
0.4277	-0.19432	-0.113554
0.42478	-0.191515	-0.112232
0.438524	-0.170599	-0.131366
0.438852	-0.172532	-0.106935
0.44259	-0.182182	-0.124366
0.442526	-0.190248	-0.128819
0.441021	-0.196743	-0.133529
0.442555	-0.198198	-0.135792
0.441559	-0.19745	-0.134188
0.420966	-0.216414	0.100943
0.419447	-0.220892	0.11738
0.417327	-0.219841	0.118071
0.415866	-0.219803	0.12198
0.416851	-0.222158	0.126322
0.423375	-0.226126	0.14413
0.443001	-0.237681	0.164053
0.457191	-0.231607	0.166891
0.472181	-0.218742	0.173328
0.487874	-0.218558	0.17821
0.497016	-0.229177	0.182143
0.497225	-0.240794	0.180249
************TIME_SERIES************
ClassID: 2
TimeSeriesLength: 151
TimeSeriesData: 
0.41853	-0.131506	-0.203516
0.416721	-0.116969	-0.189903
0.418253	-0.0973215	-0.166839
0.440844	-0.103427	-0.148265
0.484109	-0.126562	-0.185902
0.500002	-0.150696	-0.180889
0.511535	-0.164852	-0.163938
0.517198	-0.182221	-0.166558
0.513583	-0.19297	-0.156331
0.510844	-0.200449	-0.137842
0.507751	-0.204876	-0.125837
0.507531	-0.205858	-0.119609
0.505932	-0.213569	-0.11005
0.484089	-0.240885	-0.0678227
0.435378	-0.117225	-0.199869
0.44005	-0.120225	-0.19318
0.444446	-0.135879	-0.173216
0.447126	-0.147259	-0.156916
0.446209	-0.16638	-0.137662
0.46572	-0.147393	-0.165123
0.477363	-0.140015	-0.16267
0.474678	-0.15404	-0.160508
0.46737	-0.159992	-0.163375
0.467258	-0.169582	-0.164486
0.465937	-0.17491	-0.157472
0.467823	-0.182998	-0.141829
0.452813	-0.189636	-0.115709
0.452844	-0.189578	-0.116979
0.452383	-0.187989	-0.116789
0.451297	-0.183968	-0.115628
0.450298	-0.181515	-0.116702
0.449479	-0.178832	-0.118817
0.450105	-0.173999	-0.114173
0.454458	-0.17943	-0.09975
0.479267	-0.155083	-0.137337
0.474802	-0.168351	-0.148807
0.471538	-0.178752	-0.154801
0.46931	-0.184951	-0.15063
0.467836	-0.188603	-0.15032
0.466922	-0.188532	-0.150919
0.453767	-0.16514	-0.128612
0.455041	-0.165354	-0.128962
0.455654	-0.165781	-0.123412
0.452949	-0.168993	-0.113164
0.45145	-0.171865	-0.104033
0.469754	-0.147564	-0.123195
0.472101	-0.157179	-0.124976
0.469519	-0.172537	-0.1362
0.46271	-0.194865	-0.135979
0.462199	-0.204789	-0.133862
0.444115	-0.194769	-0.0825524
0.443985	-0.192335	-0.084933
0.442816	-0.190973	-0.083245
0.442511	-0.19165	-0.0861272
0.444642	-0.19062	-0.0874332
0.444151	-0.197119	-0.0861214
0.444938	-0.202904	-0.0752702
0.460455	-0.169148	-0.0851982
0.455771	-0.162108	-0.0920185
0.446255	-0.168441	-0.116347
0.441511	-0.171593	-0.114093
0.43913	-0.172574	-0.116436
0.438362	-0.175923	-0.115575
0.439801	-0.180531	-0.114471
0.440083	-0.187363	-0.107526
0.441078	-0.199192	-0.0801301
0.452655	-0.176979	-0.0720685
0.449029	-0.173907	-0.0696402
0.442302	-0.179107	-0.0670847
0.433284	-0.186106	-0.0573124
0.426346	-0.195362	-0.0517667
0.429946	-0.211628	-0.0295332
0.43634	-0.199453	-0.047314
0.451418	-0.18126	-0.0592604
0.45091	-0.185287	-0.0697642
0.447802	-0.195212	-0.0786677
0.446603	-0.200178	-0.0774176
0.445588	-0.200625	-0.0785467
0.446557	-0.200828	-0.0770064
0.438522	-0.216807	-0.0562322
0.437356	-0.213912	-0.0616339
0.433507	-0.206999	-0.0553404
0.42824	-0.207073	-0.0559104
0.428051	-0.207656	-0.0676211
0.43196	-0.216421	-0.0621413
0.434836	-0.213588	-0.0603659
0.458277	-0.19015	-0.0753694
0.450555	-0.198858	-0.073933
0.44565	-0.209712	-0.0831876
0.440039	-0.213578	-0.0793124
0.440696	-0.21327	-0.078306
0.439253	-0.217846	-0.067742
0.460856	-0.196339	-0.169304
0.456464	-0.194439	-0.169915
0.455537	-0.192938	-0.170364
0.456726	-0.190997	-0.155333
0.454694	-0.193837	-0.148659
0.450086	-0.193836	-0.149702
0.444209	-0.202999	-0.0964874
0.451207	-0.183009	-0.107197
0.465528	-0.168595	-0.131735
0.462888	-0.175104	-0.143992
0.460805	-0.18515	-0.154187
0.457428	-0.188667	-0.149835
0.458357	-0.188339	-0.149582
0.447244	-0.190432	-0.133738
0.444218	-0.193263	-0.127676
0.443345	-0.195531	-0.106099
0.438956	-0.193743	-0.111106
0.438576	-0.194043	-0.115589
0.43767	-0.194598	-0.115168
0.437436	-0.194487	-0.116847
0.435833	-0.194481	-0.11901
0.433722	-0.194543	-0.119073
0.431253	-0.192799	-0.123733
0.4277	-0.19432	-0.113554
0.42478	-0.191515	-0.112232
0.438524	-0.170599	-0.131366
0.438852	-0.172532	-0.106935
0.44259	-0.182182	-0.124366
0.442526	-0.190248	-0.128819
0.441021	-0.196743	-0.133529
0.442555	-0.198198	-0.135792
0.441559	-0.19745	-0.134188
0.420966	-0.216414	0.100943
0.419447	-0.220892	0.11738
0.417327	-0.219841	0.118071
0.415866	-0.219803	0.12198
0.416851	-0.222158	0.126322
0.423375	-0.226126	0.14413
0.443001	-0.237681	0.164053
0.457191	-0.231607	0.166891
0.472181	-0.218742	0.173328
0.487874	-0.218558	0.17821
0.497016	-0.229177	0.182143
0.497225	-0.240794	0.180249
0.444327	-0.243855	0.0794369
0.441968	-0.243751	0.0693328
0.442047	-0.244403	0.0664934
0.442242	-0.245549	0.0668342
0.442828	-0.247504	0.0626518
0.442574	-0.244458	0.0577506
0.444522	-0.244632	0.0549314
0.448053	-0.239856	0.0464616
0.462948	-0.229114	0.0489603
0.481238	-0.21475	0.0376723
0.487689	-0.227458	0.0378094
0.488034	-0.241904	0.0404927
0.48557	-0.25757	0.0415118
0.477605	-0.270173	0.0525243
0.47063	-0.273314	0.0544202
************TIME_SERIES************
ClassID: 2
TimeSeriesLength: 168
TimeSeriesData: 
0.41853	-0.131506	-0.203516
0.416721	-0.116969	-0.189903
0.418253	-0.0973215	-0.166839
0.440844	-0.103427	-0.148265
0.484109	-0.126562	-0.185902
0.500002	-0.150696	-0.180889
0.511535	-0.164852	-0.163938
0.517198	-0.182221	-0.166558
0.513583	-0.19297	-0.156331
0.510844	-0.200449	-0.137842
0.507751	-0.204876	-0.125837
0.507531	-0.205858	-0.119609
0.505932	-0.213569	-0.11005
0.484089	-0.240885	-0.0678227
0.435378	-0.117225	-0.199869
0.44005	-0.120225	-0.19318
0.444446	-0.135879	-0.173216
0.447126	-0.147259	-0.156916
0.446209	-0.16638	-0.137662
0.46572	-0.147393	-0.165123
0.477363	-0.140015	-0.16267
0.474678	-0.15404	-0.160508
0.46737	-0.159992	-0.163375
0.467258	-0.169582	-0.164486
0.465937	-0.17491	-0.157472
0.467823	-0.182998	-0.141829
0.452813	-0.189636	-0.115709
0.452844	-0.189578	-0.116979
0.452383	-0.187989	-0.116789
0.451297	-0.183968	-0.115628
0.450298	-0.181515	-0.116702
0.449479	-0.178832	-0.118817
0.450105	-0.173999	-0.114173
0.454458	-0.17943	-0.09975
0.479267	-0.155083	-0.137337
0.474802	-0.168351	-0.148807
0.471538	-0.178752	-0.154801
0.46931	-0.184951	-0.15063
0.467836	-0.188603	-0.15032
0.466922	-0.188532	-0.150919
0.453767	-0.16514	-0.128612
0.455041	-0.165354	-0.128962
0.455654	-0.165781	-0.123412
0.452949	-0.168993	-0.113164
0.45145	-0.171865	-0.104033
0.469754	-0.147564	-0.123195
0.472101	-0.157179	-0.124976
0.469519	-0.172537	-0.1362
0.46271	-0.194865	-0.135979
0.462199	-0.204789	-0.133862
0.444115	-0.194769	-0.0825524
0.443985	-0.192335	-0.084933
0.442816	-0.190973	-0.083245
0.442511	-0.19165	-0.0861272
0.444642	-0.19062	-0.0874332
0.444151	-0.197119	-0.0861214
0.444938	-0.202904	-0.0752702
0.460455	-0.169148	-0.0851982
0.455771	-0.162108	-0.0920185
0.446255	-0.168441	-0.116347
0.441511	-0.171593	-0.114093
0.43913	-0.172574	-0.116436
0.438362	-0.175923	-0.115575
0.439801	-0.180531	-0.114471
0.440083	-0.187363	-0.107526
0.441078	-0.199192	-0.0801301
0.452655	-0.176979	-0.0720685
0.449029	-0.173907	-0.0696402
0.442302	-0.179107	-0.0670847
0.433284	-0.186106	-0.0573124
0.426346	-0.195362	-0.0517667
0.429946	-0.211628	-0.0295332
0.43634	-0.199453	-0.047314
0.451418	-0.18126	-0.0592604
0.45091	-0.185287	-0.0697642
0.447802	-0.195212	-0.0786677
0.446603	-0.200178	-0.0774176
0.445588	-0.200625	-0.0785467
0.446557	-0.200828	-0.0770064
0.438522	-0.216807	-0.0562322
0.437356	-0.213912	-0.0616339
0.433507	-0.206999	-0.0553404
0.42824	-0.207073	-0.0559104
0.428051	-0.207656	-0.0676211
0.43196	-0.216421	-0.0621413
0.434836	-0.213588	-0.0603659
0.458277	-0.19015	-0.0753694
0.450555	-0.198858	-0.073933
0.44565	-0.209712	-0.0831876
0.440039	-0.213578	-0.0793124
0.440696	-0.21327	-0.078306
0.439253	-0.217846	-0.067742
0.460856	-0.196339	-0.169304
0.456464	-0.194439	-0.169915
0.455537	-0.192938	-0.170364
0.456726	-0.190997	-0.155333
0.454694	-0.193837	-0.148659
0.450086	-0.193836	-0.149702
0.444209	-0.202999	-0.0964874
0.451207	-0.183009	-0.107197
0.465528	-0.168595	-0.131735
0.462888	-0.175104	-0.143992
0.460805	-0.18515	-0.154187
0.457428	-0.188667	-0.149835
0.458357	-0.188339	-0.149582
0.447244	-0.190432	-0.133738
0.444218	-0.193263	-0.127676
0.443345	-0.195531	-0.106099
0.438956	-0.193743	-0.111106
0.438576	-0.194043	-0.115589
0.43767	-0.194598	-0.115168
0.437436	-0.194487	-0.116847
0.435833	-0.194481	-0.11901
0.433722	-0.194543	-0.119073
0.431253	-0.192799	-0.123733
0.4277	-0.19432	-0.113554
0.42478	-0.191515	-0.112232
0.438524	-0.170599	-0.131366
0.438852	-0.172532	-0.106935
0.44259	-0.182182	-0.124366
0.442526	-0.190248	-0.128819
0.441021	-0.196743	-0.133529
0.442555	-0.198198	-0.135792
0.441559	-0.19745	-0.134188
0.420966	-0.216414	0.100943
0.419447	-0.220892	0.11738
0.417327	-0.219841	0.118071
0.415866	-0.219803	0.12198
0.416851	-0.222158	0.126322
0.423375	-0.226126	0.14413
0.443001	-0.237681	0.164053
0.457191	-0.231607	0.166891
0.472181	-0.218742	0.173328
0.487874	-0.218558	0.17821
0.497016	-0.229177	0.182143
0.497225	-0.240794	0.180249
0.444327	-0.243855	0.0794369
0.441968	-0.243751	0.0693328
0.442047	-0.244403	0.0664934
0.442242	-0.245549	0.0668342
0.442828	-0.247504	0.0626518
0.442574	-0.244458	0.0577506
0.444522	-0.244632	0.0549314
0.448053	-0.239856	0.0464616
0.462948	-0.229114	0.0489603
0.481238	-0.21475	0.0376723
0.487689	-0.227458	0.0378094
0.488034	-0.241904	0.0404927
0.48557	-0.25757	0.0415118
0.477605	-0.270173	0.0525243
0.47063	-0.273314	0.0544202
0.475728	-0.270487	0.0444022
0.477054	-0.257264	0.010136
0.475294	-0.253399	-0.00450536
0.471188	-0.255521	-0.00477174
0.464646	-0.256087	-0.00319434
0.46068	-0.260319	0.01505
0.456003	-0.256323	0.0086231
0.45217	-0.253179	0.000699427
0.453619	-0.242739	-0.00587509
0.468727	-0.220854	-0.0264309
0.476035	-0.220396	-0.0194093
0.477141	-0.228761	-0.0198291
0.476731	-0.244656	-0.0280679
0.478508	-0.245353	-0.0299036
0.479871	-0.245348	-0.0281818
0.480815	-0.245643	-0.0291069
0.481315	-0.247428	-0.0296617
************TIME_SERIES************
ClassID: 2
TimeSeriesLength: 182
TimeSeriesData: 
0.41853	-0.131506	-0.203516
0.416721	-0.116969	-0.189903
0.418253	-0.0973215	-0.166839
0.440844	-0.103427	-0.148265
0.484109	-0.126562	-0.185902
0.500002	-0.150696	-0.180889
0.511535	-0.164852	-0.163938
0.517198	-0.182221	-0.166558
0.513583	-0.19297	-0.156331
0.510844	-0.200449	-0.137842
0.507751	-0.204876	-0.125837
0.507531	-0.205858	-0.119609
0.505932	-0.213569	-0.11005
0.484089	-0.240885	-0.0678227
0.435378	-0.117225	-0.199869
0.44005	-0.120225	-0.19318
0.444446	-0.135879	-0.173216
0.447126	-0.147259	-0.156916
0.446209	-0.16638	-0.137662
0.46572	-0.147393	-0.165123
0.477363	-0.140015	-0.16267
0.474678	-0.15404	-0.160508
0.46737	-0.159992	-0.163375
0.467258	-0.169582	-0.164486
0.465937	-0.17491	-0.157472
0.467823	-0.182998	-0.141829
0.452813	-0.189636	-0.115709
0.452844	-0.189578	-0.116979
0.452383	-0.187989	-0.116789
0.451297	-0.183968	-0.115628
0.450298	-0.181515	-0.116702
0.449479	-0.178832	-0.118817
0.450105	-0.173999	-0.114173
0.454458	-0.17943	-0.09975
0.479267	-0.155083	-0.137337
0.474802	-0.168351	-0.148807
0.471538	-0.178752	-0.154801
0.46931	-0.184951	-0.15063
0.467836	-0.188603	-0.15032
0.466922	-0.188532	-0.150919
0.453767	-0.16514	-0.128612
0.455041	-0.165354	-0.128962
0.455654	-0.165781	-0.123412
0.452949	-0.168993	-0.113164
0.45145	-0.171865	-0.104033
0.469754	-0.147564	-0.123195
0.472101	-0.157179	-0.124976
0.469519	-0.172537	-0.1362
0.46271	-0.194865	-0.135979
0.462199	-0.204789	-0.133862
0.444115	-0.194769	-0.0825524
0.443985	-0.192335	-0.084933
0.442816	-0.190973	-0.083245
0.442511	-0.19165	-0.0861272
0.444642	-0.19062	-0.0874332
0.444151	-0.197119	-0.0861214
0.444938	-0.202904	-0.0752702
0.460455	-0.169148	-0.0851982
0.455771	-0.162108	-0.0920185
0.446255	-0.168441	-0.116347
0.441511	-0.171593	-0.114093
0.43913	-0.172574	-0.116436
0.438362	-0.175923	-0.115575
0.439801	-0.180531	-0.114471
0.440083	-0.187363	-0.107526
0.441078	-0.199192	-0.0801301
0.452655	-0.176979	-0.0720685
0.449029	-0.173907	-0.0696402
0.442302	-0.179107	-0.0670847
0.433284	-0.186106	-0.0573124
0.426346	-0.195362	-0.0517667
0.429946	-0.211628	-0.0295332
0.43634	-0.199453	-0.047314
0.451418	-0.18126	-0.0592604
0.45091	-0.185287	-0.0697642
0.447802	-0.195212	-0.0786677
0.446603	-0.200178	-0.0774176
0.445588	-0.200625	-0.0785467
0.446557	-0.200828	-0.0770064
0.438522	-0.216807	-0.0562322
0.437356	-0.213912	-0.0616339
0.433507	-0.206999	-0.0553404
0.42824	-0.207073	-0.0559104
0.428051	-0.207656	-0.0676211
0.43196	-0.216421	-0.0621413
0.434836	-0.213588	-0.0603659
0.458277	-0.19015	-0.0753694
0.450555	-0.198858	-0.073933
0.44565	-0.209712	-0.0831876
0.440039	-0.213578	-0.0793124
0.440696	-0.21327	-0.078306
0.439253	-0.217846	-0.067742
0.460856	-0.196339	-0.169304
0.456464	-0.194439	-0.169915
0.455537	-0.192938	-0.170364
0.456726	-0.190997	-0.155333
0.454694	-0.193837	-0.148659
0.450086	-0.193836	-0.149702
0.444209	-0.202999	-0.0964874
0.451207	-0.183009	-0.107197
0.465528	-0.168595	-0.131735
0.462888	-0.175104	-0.143992
0.460805	-0.18515	-0.154187
0.457428	-0.188667	-0.149835
0.458357	-0.188339	-0.149582
0.447244	-0.190432	-0.133738
0.444218	-0.193263	-0.127676
0.443345	-0.195531	-0.106099
0.438956	-0.193743	-0.111106
0.438576	-0.194043	-0.115589
0.43767	-0.194598	-0.115168
0.437436	-0.194487	-0.116847
0.435833	-0.194481	-0.11901
0.433722	-0.194543	-0.119073
0.431253	-0.192799	-0.123733
0.4277	-0.19432	-0.113554
0.42478	-0.191515	-0.112232
0.438524	-0.170599	-0.131366
0.438852	-0.172532	-0.106935
0.44259	-0.182182	-0.124366
0.442526	-0.190248	-0.128819
0.441021	-0.196743	-0.133529
0.442555	-0.198198	-0.135792
0.441559	-0.19745	-0.134188
0.420966	-0.216414	0.100943
0.419447	-0.220892	0.11738
0.417327	-0.219841	0.118071
0.415866	-0.219803	0.12198
0.416851	-0.222158	0.126322
0.423375	-0.226126	0.14413
0.443001	-0.237681	0.164053
0.457191	-0.231607	0.166891
0.472181	-0.218742	0.173328
0.487874	-0.218558	0.17821
0.497016	-0.229177	0.182143
0.497225	-0.240794	0.180249
0.444327	-0.243855	0.0794369
0.441968	-0.243751	0.0693328
0.442047	-0.244403	0.0664934
0.442242	-0.245549	0.0668342
0.442828	-0.247504	0.0626518
0.442574	-0.244458	0.0577506
0.444522	-0.244632	0.0549314
0.448053	-0.239856	0.0464616
0.462948	-0.229114	0.0489603
0.481238	-0.21475	0.0376723
0.487689	-0.227458	0.0378094
0.488034	-0.241904	0.0404927
0.48557	-0.25757	0.0415118
0.477605	-0.270173	0.0525243
0.47063	-0.273314	0.0544202
0.475728	-0.270487	0.0444022
0.477054	-0.257264	0.010136
0.475294	-0.253399	-0.00450536
0.471188	-0.255521	-0.00477174
0.464646	-0.256087	-0.00319434
0.46068	-0.260319	0.01505
0.456003	-0.256323	0.0086231
0.45217	-0.253179	0.000699427
0.453619	-0.242739	-0.00587509
0.468727	-0.220854	-0.0264309
0.476035	-0.220396	-0.0194093
0.477141	-0.228761	-0.0198291
0.476731	-0.244656	-0.0280679
0.478508	-0.245353	-0.0299036
0.479871	-0.245348	-0.0281818
0.480815	-0.245643	-0.0291069
0.481315	-0.247428	-0.0296617
0.421045	-0.275471	0.193846
0.421153	-0.274069	0.202178
0.418174	-0.271503	0.214947
0.423719	-0.269114	0.213088
0.436755	-0.275415	0.234849
0.442539	-0.274568	0.259761
0.453559	-0.258539	0.260433
0.462277	-0.249158	0.264352
0.46778	-0.247252	0.26454
0.474185	-0.24724	0.252895
0.476348	-0.242368	0.255271
0.475169	-0.239309	0.247618
0.472297	-0.243709	0.251606
0.469653	-0.24771	0.24997
************TIME_SERIES************
ClassID: 2
TimeSeriesLength: 196
TimeSeriesData: 
0.41853	-0.131506	-0.203516
0.416721	-0.116969	-0.189903
0.418253	-0.0973215	-0.166839
0.440844	-0.103427	-0.148265
0.484109	-0.126562	-0.185902
0.500002	-0.150696	-0.180889
0.511535	-0.164852	-0.163938
0.517198	-0.182221	-0.166558
0.513583	-0.19297	-0.156331
0.510844	-0.200449	-0.137842
0.507751	-0.204876	-0.125837
0.507531	-0.205858	-0.119609
0.505932	-0.213569	-0.11005
0.484089	-0.240885	-0.0678227
0.435378	-0.117225	-0.199869
0.44005	-0.120225	-0.19318
0.444446	-0.135879	-0.173216
0.447126	-0.147259	-0.156916
0.446209	-0.16638	-0.137662
0.46572	-0.147393	-0.165123
0.477363	-0.140015	-0.16267
0.474678	-0.15404	-0.160508
0.46737	-0.159992	-0.163375
0.467258	-0.169582	-0.164486
0.465937	-0.17491	-0.157472
0.467823	-0.182998	-0.141829
0.452813	-0.189636	-0.115709
0.452844	-0.189578	-0.116979
0.452383	-0.187989	-0.116789
0.451297	-0.183968	-0.115628
0.450298	-0.181515	-0.116702
0.449479	-0.178832	-0.118817
0.450105	-0.173999	-0.114173
0.454458	-0.17943	-0.09975
0.479267	-0.155083	-0.137337
0.474802	-0.168351	-0.148807
0.471538	-0.178752	-0.154801
0.46931	-0.184951	-0.15063
0.467836	-0.188603	-0.15032
0.466922	-0.188532	-0.150919
0.453767	-0.16514	-0.128612
0.455041	-0.165354	-0.128962
0.455654	-0.165781	-0.123412
0.452949	-0.168993	-0.113164
0.45145	-0.171865	-0.104033
0.469754	-0.147564	-0.123195
0.472101	-0.157179	-0.124976
0.469519	-0.172537	-0.1362
0.46271	-0.194865	-0.135979
0.462199	-0.204789	-0.133862
0.444115	-0.194769	-0.0825524
0.443985	-0.192335	-0.084933
0.442816	-0.190973	-0.083245
0.442511	-0.19165	-0.0861272
0.444642	-0.19062	-0.0874332
0.444151	-0.197119	-0.0861214
0.444938	-0.202904	-0.0752702
0.460455	-0.169148	-0.0851982
0.455771	-0.162108	-0.0920185
0.446255	-0.168441	-0.116347
0.441511	-0.171593	-0.114093
0.43913	-0.172574	-0.116436
0.438362	-0.175923	-0.115575
0.439801	-0.180531	-0.114471
0.440083	-0.187363	-0.107526
0.441078	-0.199192	-0.0801301
0.452655	-0.176979	-0.0720685
0.449029	-0.173907	-0.0696402
0.442302	-0.179107	-0.0670847
0.433284	-0.186106	-0.0573124
0.426346	-0.195362	-0.0517667
0.429946	-0.211628	-0.0295332
0.43634	-0.199453	-0.047314
0.451418	-0.18126	-0.0592604
0.45091	-0.185287	-0.0697642
0.447802	-0.195212	-0.0786677
0.446603	-0.200178	-0.0774176
0.445588	-0.200625	-0.0785467
0.446557	-0.200828	-0.0770064
0.438522	-0.216807	-0.0562322
0.437356	-0.213912	-0.0616339
0.433507	-0.206999	-0.0553404
0.42824	-0.207073	-0.0559104
0.428051	-0.207656	-0.0676211
0.43196	-0.216421	-0.0621413
0.434836	-0.213588	-0.0603659
0.458277	-0.19015	-0.0753694
0.450555	-0.198858	-0.073933
0.44565	-0.209712	-0.0831876
0.440039	-0.213578	-0.0793124
0.440696	-0.21327	-0.078306
0.439253	-0.217846	-0.067742
0.460856	-0.196339	-0.169304
0.456464	-0.194439	-0.169915
0.455537	-0.192938	-0.170364
0.456726	-0.190997	-0.155333
0.454694	-0.193837	-0.148659
0.450086	-0.193836	-0.149702
0.444209	-0.202999	-0.0964874
0.451207	-0.183009	-0.107197
0.465528	-0.168595	-0.131735
0.462888	-0.175104	-0.143992
0.460805	-0.18515	-0.154187
0.457428	-0.188667	-0.149835
0.458357	-0.188339	-0.149582
0.447244	-0.190432	-0.133738
0.444218	-0.193263	-0.127676
0.443345	-0.195531	-0.106099
0.438956	-0.193743	-0.111106
0.438576	-0.194043	-0.115589
0.43767	-0.194598	-0.115168
0.437436	-0.194487	-0.116847
0.435833	-0.194481	-0.11901
0.433722	-0.194543	-0.119073
0.431253	-0.192799	-0.123733
0.4277	-0.19432	-0.113554
0.42478	-0.191515	-0.112232
0.438524	-0.170599	-0.131366
0.438852	-0.172532	-0.106935
0.44259	-0.182182	-0.124366
0.442526	-0.190248	-0.128819
0.441021	-0.196743	-0.133529
0.442555	-0.198198	-0.135792
0.441559	-0.19745	-0.134188
0.420966	-0.216414	0.100943
0.419447	-0.220892	0.11738
0.417327	-0.219841	0.118071
0.415866	-0.219803	0.12198
0.416851	-0.222158	0.126322
0.423375	-0.226126	0.14413
0.443001	-0.237681	0.164053
0.457191	-0.231607	0.166891
0.472181	-0.218742	0.173328
0.487874	-0.218558	0.17821
0.497016	-0.229177	0.182143
0.497225	-0.240794	0.180249
0.444327	-0.243855	0.0794369
0.441968	-0.243751	0.0693328
0.442047	-0.244403	0.0664934
0.442242	-0.245549	0.0668342
0.442828	-0.247504	0.0626518
0.442574	-0.244458	0.0577506
0.444522	-0.244632	0.0549314
0.448053	-0.239856	0.0464616
0.462948	-0.229114	0.0489603
0.481238	-0.21475	0.0376723
0.487689	-0.227458	0.0378094
0.488034	-0.241904	0.0404927
0.48557	-0.25757	0.0415118
0.477605	-0.270173	0.0525243
0.47063	-0.273314	0.0544202
0.475728	-0.270487	0.0444022
0.477054	-0.257264	0.010136
0.475294	-0.253399	-0.00450536
0.471188	-0.255521	-0.00477174
0.464646	-0.256087	-0.00319434
0.46068	-0.260319	0.01505
0.456003	-0.256323	0.0086231
0.45217	-0.253179	0.000699427
0.453619	-0.242739	-0.00587509
0.468727	-0.220854	-0.0264309
0.476035	-0.220396	-0.0194093
0.477141	-0.228761	-0.0198291
0.476731	-0.244656	-0.0280679
0.478508	-0.245353	-0.0299036
0.479871	-0.245348	-0.0281818
0.480815	-0.245643	-0.0291069
0.481315	-0.247428	-0.0296617
0.421045	-0.275471	0.193846
0.421153	-0.274069	0.202178
0.418174	-0.271503	0.214947
0.423719	-0.269114	0.213088
0.436755	-0.275415	0.234849
0.442539	-0.274568	0.259761
0.453559	-0.258539	0.260433
0.462277	-0.249158	0.264352
0.46778	-0.247252	0.26454
0.474185	-0.24724	0.252895
0.476348	-0.242368	0.255271
0.475169	-0.239309	0.247618
0.472297	-0.243709	0.251606
0.469653	-0.24771	0.24997
0.453668	-0.251396	0.0866512
0.45303	-0.250519	0.0836485
0.451438	-0.248943	0.0830853
0.449989	-0.247429	0.0718262
0.450976	-0.244535	0.0684042
0.454811	-0.241596	0.0605857
0.465259	-0.246518	0.0591465
0.48649	-0.231678	0.03252
0.495807	-0.226367	0.0475466
0.504268	-0.226441	0.0397481
0.506342	-0.231935	0.0370271
0.508537	-0.242307	0.0279482
0.504826	-0.252024	0.0175108
0.499739	-0.25808	0.0197434
************TIME_SERIES************
ClassID: 2
TimeSeriesLength: 207
TimeSeriesData: 
0.41853	-0.131506	-0.203516
0.416721	-0.116969	-0.189903
0.418253	-0.0973215	-0.166839
0.440844	-0.103427	-0.148265
0.484109	-0.126562	-0.185902
0.500002	-0.150696	-0.180889
0.511535	-0.164852	-0.163938
0.517198	-0.182221	-0.166558
0.513583	-0.19297	-0.156331
0.510844	-0.200449	-0.137842
0.507751	-0.204876	-0.125837
0.507531	-0.205858	-0.119609
0.505932	-0.213569	-0.11005
0.484089	-0.240885	-0.0678227
0.435378	-0.117225	-0.199869
0.44005	-0.120225	-0.19318
0.444446	-0.135879	-0.173216
0.447126	-0.147259	-0.156916
0.446209	-0.16638	-0.137662
0.46572	-0.147393	-0.165123
0.477363	-0.140015	-0.16267
0.474678	-0.15404	-0.160508
0.46737	-0.159992	-0.163375
0.467258	-0.169582	-0.164486
0.465937	-0.17491	-0.157472
0.467823	-0.182998	-0.141829
0.452813	-0.189636	-0.115709
0.452844	-0.189578	-0.116979
0.452383	-0.187989	-0.116789
0.451297	-0.183968	-0.115628
0.450298	-0.181515	-0.116702
0.449479	-0.178832	-0.118817
0.450105	-0.173999	-0.114173
0.454458	-0.17943	-0.09975
0.479267	-0.155083	-0.137337
0.474802	-0.168351	-0.148807
0.471538	-0.178752	-0.154801
0.46931	-0.184951	-0.15063
0.467836	-0.188603	-0.15032
0.466922	-0.188532	-0.150919
0.453767	-0.16514	-0.128612
0.455041	-0.165354	-0.128962
0.455654	-0.165781	-0.123412
0.452949	-0.168993	-0.113164
0.45145	-0.171865	-0.104033
0.469754	-0.147564	-0.123195
0.472101	-0.157179	-0.124976
0.469519	-0.172537	-0.1362
0.46271	-0.194865	-0.135979
0.462199	-0.204789	-0.133862
0.444115	-0.194769	-0.0825524
0.443985	-0.192335	-0.084933
0.442816	-0.190973	-0.083245
0.442511	-0.19165	-0.0861272
0.444642	-0.19062	-0.0874332
0.444151	-0.197119	-0.0861214
0.444938	-0.202904	-0.0752702
0.460455	-0.169148	-0.0851982
0.455771	-0.162108	-0.0920185
0.446255	-0.168441	-0.116347
0.441511	-0.171593	-0.114093
0.43913	-0.172574	-0.116436
0.438362	-0.175923	-0.115575
0.439801	-0.180531	-0.114471
0.440083	-0.187363	-0.107526
0.441078	-0.199192	-0.0801301
0.452655	-0.176979	-0.0720685
0.449029	-0.173907	-0.0696402
0.442302	-0.179107	-0.0670847
0.433284	-0.186106	-0.0573124
0.426346	-0.195362	-0.0517667
0.429946	-0.211628	-0.0295332
0.43634	-0.199453	-0.047314
0.451418	-0.18126	-0.0592604
0.45091	-0.185287	-0.0697642
0.447802	-0.195212	-0.0786677
0.446603	-0.200178	-0.0774176
0.445588	-0.200625	-0.0785467
0.446557	-0.200828	-0.0770064
0.438522	-0.216807	-0.0562322
0.437356	-0.213912	-0.0616339
0.433507	-0.206999	-0.0553404
0.42824	-0.207073	-0.0559104
0.428051	-0.207656	-0.0676211
0.43196	-0.216421	-0.0621413
0.434836	-0.213588	-0.0603659
0.458277	-0.19015	-0.0753694
0.450555	-0.198858	-0.073933
0.44565	-0.209712	-0.0831876
0.440039	-0.213578	-0.0793124
0.440696	-0.21327	-0.078306
0.439253	-0.217846	-0.067742
0.460856	-0.196339	-0.169304
0.456464	-0.194439	-0.169915
0.455537	-0.192938	-0.170364
0.456726	-0.190997	-0.155333
0.454694	-0.193837	-0.148659
0.450086	-0.193836	-0.149702
0.444209	-0.202999	-0.0964874
0.451207	-0.183009	-0.107197
0.465528	-0.168595	-0.131735
0.462888	-0.175104	-0.143992
0.460805	-0.18515	-0.154187
0.457428	-0.188667	-0.149835
0.458357	-0.188339	-0.149582
0.447244	-0.190432	-0.133738
0.444218	-0.193263	-0.127676
0.443345	-0.195531	-0.106099
0.438956	-0.193743	-0.111106
0.438576	-0.194043	-0.115589
0.43767	-0.194598	-0.115168
0.437436	-0.194487	-0.116847
0.435833	-0.194481	-0.11901
0.433722	-0.194543	-0.119073
0.431253	-0.192799	-0.123733
0.4277	-0.19432	-0.113554
0.42478	-0.191515	-0.112232
0.438524	-0.170599	-0.131366
0.438852	-0.172532	-0.106935
0.44259	-0.182182	-0.124366
0.442526	-0.190248	-0.128819
0.441021	-0.196743	-0.133529
0.442555	-0.198198	-0.135792
0.441559	-0.19745	-0.134188
0.420966	-0.216414	0.100943
0.419447	-0.220892	0.11738
0.417327	-0.219841	0.118071
0.415866	-0.219803	0.12198
0.416851	-0.222158	0.126322
0.423375	-0.226126	0.14413
0.443001	-0.237681	0.164053
0.457191	-0.231607	0.166891
0.472181	-0.218742	0.173328
0.487874	-0.218558	0.17821
0.497016	-0.229177	0.182143
0.497225	-0.240794	0.180249
0.444327	-0.243855	0.0794369
0.441968	-0.243751	0.0693328
0.442047	-0.244403	0.0664934
0.442242	-0.245549	0.0668342
0.442828	-0.247504	0.0626518
0.442574	-0.244458	0.0577506
0.444522	-0.244632	0.0549314
0.448053	-0.239856	0.0464616
0.462948	-0.229114	0.0489603
0.481238	-0.21475	0.0376723
0.487689	-0.227458	0.0378094
0.488034	-0.241904	0.0404927
0.48557	-0.25757	0.0415118
0.477605	-0.270173	0.0525243
0.47063	-0.273314	0.0544202
0.475728	-0.270487	0.0444022
0.477054	-0.257264	0.010136
0.475294	-0.253399	-0.00450536
0.471188	-0.255521	-0.00477174
0.464646	-0.256087	-0.00319434
0.46068	-0.260319	0.01505
0.456003	-0.256323	0.0086231
0.45217	-0.253179	0.000699427
0.453619	-0.242739	-0.00587509
0.468727	-0.220854	-0.0264309
0.476035	-0.220396	-0.0194093
0.477141	-0.228761	-0.0198291
0.476731	-0.244656	-0.0280679
0.478508	-0.245353	-0.0299036
0.479871	-0.245348	-0.0281818
0.480815	-0.245643	-0.0291069
0.481315	-0.247428	-0.0296617
0.421045	-0.275471	0.193846
0.421153	-0.274069	0.202178
0.418174	-0.271503	0.214947
0.423719	-0.269114	0.213088
0.436755	-0.275415	0.234849
0.442539	-0.274568	0.259761
0.453559	-0.258539	0.260433
0.462277	-0.249158	0.264352
0.46778	-0.247252	0.26454
0.474185	-0.24724	0.252895
0.476348	-0.242368	0.255271
0.475169	-0.239309	0.247618
0.472297	-0.243709	0.251606
0.469653	-0.24771	0.24997
0.453668	-0.251396	0.0866512
0.45303	-0.250519	0.0836485
0.451438	-0.248943	0.0830853
0.449989	-0.247429	0.0718262
0.450976	-0.244535	0.0684042
0.454811	-0.241596	0.0605857
0.465259	-0.246518	0.0591465
0.48649	-0.231678	0.03252
0.495807	-0.226367	0.0475466
0.504268	-0.226441	0.0397481
0.506342	-0.231935	0.0370271
0.508537	-0.242307	0.0279482
0.504826	-0.252024	0.0175108
0.499739	-0.25808	0.0197434
0.504641	-0.245494	-0.100274
0.496107	-0.241193	-0.108648
0.493763	-0.235414	-0.116715
0.487619	-0.239806	-0.078604
0.483411	-0.232067	-0.0897407
0.480085	-0.231156	-0.0694617
0.478873	-0.227354	-0.0629368
0.480033	-0.222466	-0.0611148
0.484991	-0.213816	-0.0700543
0.490239	-0.208989	-0.0743654
0.490986	-0.206618	-0.0644112
************TIME_SERIES************
ClassID: 3
TimeSeriesLength: 17
TimeSeriesData: 
0.445567	-0.171694	-0.267593
0.378099	-0.146022	-0.224027
0.295548	-0.0707648	-0.207824
0.20602	-0.0278961	-0.179983
0.081041	0.00271857	-0.173415
-0.0285419	0.0163055	-0.162937
-0.141002	0.0224197	-0.156054
-0.249001	0.0234491	-0.146518
-0.345491	0.00643466	-0.135179
-0.434791	-0.0175424	-0.132817
-0.509747	-0.0480275	-0.139672
-0.570094	-0.0782217	-0.157712
-0.628129	-0.115093	-0.188725
-0.67006	-0.149024	-0.208156
-0.704047	-0.174018	-0.208734
-0.721112	-0.192894	-0.209734
-0.732341	-0.21172	-0.208115
************TIME_SERIES************
ClassID: 3
TimeSeriesLength: 34
TimeSeriesData: 
0.445567	-0.171694	-0.267593
0.378099	-0.146022	-0.224027
0.295548	-0.0707648	-0.207824
0.20602	-0.0278961	-0.179983
0.081041	0.00271857	-0.173415
-0.0285419	0.0163055	-0.162937
-0.141002	0.0224197	-0.156054
-0.249001	0.0234491	-0.146518
-0.345491	0.00643466	-0.135179
-0.434791	-0.0175424	-0.132817
-0.509747	-0.0480275	-0.139672
-0.570094	-0.0782217	-0.157712
-0.628129	-0.115093	-0.188725
-0.67006	-0.149024	-0.208156
-0.704047	-0.174018	-0.208734
-0.721112	-0.192894	-0.209734
-0.732341	-0.21172	-0.208115
-0.767218	-0.21221	-0.17716
-0.766715	-0.202082	-0.163314
-0.748544	-0.172269	-0.148087
-0.717088	-0.134552	-0.128282
-0.666903	-0.0923497	-0.114003
-0.596535	-0.0434664	-0.101719
-0.503197	-0.000441536	-0.0952131
-0.392541	0.0364093	-0.106928
-0.279598	0.0627695	-0.132741
-0.152437	0.0647199	-0.147017
-0.0471162	0.0393494	-0.146809
0.0535108	0.00542199	-0.148826
0.145284	-0.0245729	-0.162182
0.227476	-0.058139	-0.171414
0.303885	-0.0998598	-0.183287
0.365766	-0.146199	-0.191528
0.407486	-0.19266	-0.198041
************TIME_SERIES************
ClassID: 3
TimeSeriesLength: 50
TimeSeriesData: 
0.445567	-0.171694	-0.267593
0.378099	-0.146022	-0.224027
0.295548	-0.0707648	-0.207824
0.20602	-0.0278961	-0.179983
0.081041	0.00271857	-0.173415
-0.0285419	0.0163055	-0.162937
-0.141002	0.0224197	-0.156054
-0.249001	0.0234491	-0.146518
-0.345491	0.00643466	-0.135179
-0.434791	-0.0175424	-0.132817
-0.509747	-0.0480275	-0.139672
-0.570094	-0.0782217	-0.157712
-0.628129	-0.115093	-0.188725
-0.67006	-0.149024	-0.208156
-0.704047	-0.174018	-0.208734
-0.721112	-0.192894	-0.209734
-0.732341	-0.21172	-0.208115
-0.767218	-0.21221	-0.17716
-0.766715	-0.202082	-0.163314
-0.748544	-0.172269	-0.148087
-0.717088	-0.134552	-0.128282
-0.666903	-0.0923497	-0.114003
-0.596535	-0.0434664	-0.101719
-0.503197	-0.000441536	-0.0952131
-0.392541	0.0364093	-0.106928
-0.279598	0.0627695	-0.132741
-0.152437	0.0647199	-0.147017
-0.0471162	0.0393494	-0.146809
0.0535108	0.00542199	-0.148826
0.145284	-0.0245729	-0.162182
0.227476	-0.058139	-0.171414
0.303885	-0.0998598	-0.183287
0.365766	-0.146199	-0.191528
0.407486	-0.19266	-0.198041
0.628649	-0.144704	0.31634
0.589627	-0.122592	0.381501
0.495666	-0.0434278	0.415532
0.404335	0.0192064	0.413071
0.299333	0.0718925	0.389416
0.182178	0.118248	0.329309
0.0135192	0.153269	0.285134
-0.141423	0.17992	0.211997
-0.28785	0.185001	0.145116
-0.427709	0.169392	0.0922181
-0.548771	0.151938	0.024695
-0.638733	0.130009	-0.0705717
-0.705285	0.0656806	-0.177593
-0.751284	0.00124827	-0.24306
-0.792631	-0.0350112	-0.270039
-0.803866	-0.0603516	-0.286348
************TIME_SERIES************
ClassID: 3
TimeSeriesLength: 67
TimeSeriesData: 
0.445567	-0.171694	-0.267593
0.378099	-0.146022	-0.224027
0.295548	-0.0707648	-0.207824
0.20602	-0.0278961	-0.179983
0.081041	0.00271857	-0.173415
-0.0285419	0.0163055	-0.162937
-0.141002	0.0224197	-0.156054
-0.249001	0.0234491	-0.146518
-0.345491	0.00643466	-0.135179
-0.434791	-0.0175424	-0.132817
-0.509747	-0.0480275	-0.139672
-0.570094	-0.0782217	-0.157712
-0.628129	-0.115093	-0.188725
-0.67006	-0.149024	-0.208156
-0.704047	-0.174018	-0.208734
-0.721112	-0.192894	-0.209734
-0.732341	-0.21172	-0.208115
-0.767218	-0.21221	-0.17716
-0.766715	-0.202082	-0.163314
-0.748544	-0.172269	-0.148087
-0.717088	-0.134552	-0.128282
-0.666903	-0.0923497	-0.114003
-0.596535	-0.0434664	-0.101719
-0.503197	-0.000441536	-0.0952131
-0.392541	0.0364093	-0.106928
-0.279598	0.0627695	-0.132741
-0.152437	0.0647199	-0.147017
-0.0471162	0.0393494	-0.146809
0.0535108	0.00542199	-0.148826
0.145284	-0.0245729	-0.162182
0.227476	-0.058139	-0.171414
0.303885	-0.0998598	-0.183287
0.365766	-0.146199	-0.191528
0.407486	-0.19266	-0.198041
0.628649	-0.144704	0.31634
0.589627	-0.122592	0.381501
0.495666	-0.0434278	0.415532
0.404335	0.0192064	0.413071
0.299333	0.0718925	0.389416
0.182178	0.118248	0.329309
0.0135192	0.153269	0.285134
-0.141423	0.17992	0.211997
-0.28785	0.185001	0.145116
-0.427709	0.169392	0.0922181
-0.548771	0.151938	0.024695
-0.638733	0.130009	-0.0705717
-0.705285	0.0656806	-0.177593
-0.751284	0.00124827	-0.24306
-0.792631	-0.0350112	-0.270039
-0.803866	-0.0603516	-0.286348
-0.753377	-0.00490083	-0.473068
-0.730128	0.0177017	-0.485386
-0.707218	0.0598934	-0.476032
-0.67534	0.10925	-0.453409
-0.62285	0.160579	-0.422122
-0.564808	0.213108	-0.405725
-0.491102	0.253536	-0.3816
-0.391228	0.280578	-0.3866
-0.279979	0.29053	-0.411918
-0.144812	0.258559	-0.426433
-0.0283932	0.192623	-0.405059
0.0699191	0.087383	-0.308289
0.160337	0.000813618	-0.254982
0.245	-0.0824262	-0.195626
0.3123	-0.155293	-0.133309
0.368935	-0.204685	-0.0704188
0.435412	-0.270917	0.0176011
************TIME_SERIES************
ClassID: 3
TimeSeriesLength: 84
TimeSeriesData: 
0.445567	-0.171694	-0.267593
0.378099	-0.146022	-0.224027
0.295548	-0.0707648	-0.207824
0.20602	-0.0278961	-0.179983
0.081041	0.00271857	-0.173415
-0.0285419	0.0163055	-0.162937
-0.141002	0.0224197	-0.156054
-0.249001	0.0234491	-0.146518
-0.345491	0.00643466	-0.135179
-0.434791	-0.0175424	-0.132817
-0.509747	-0.0480275	-0.139672
-0.570094	-0.0782217	-0.157712
-0.628129	-0.115093	-0.188725
-0.67006	-0.149024	-0.208156
-0.704047	-0.174018	-0.208734
-0.721112	-0.192894	-0.209734
-0.732341	-0.21172	-0.208115
-0.767218	-0.21221	-0.17716
-0.766715	-0.202082	-0.163314
-0.748544	-0.172269	-0.148087
-0.717088	-0.134552	-0.128282
-0.666903	-0.0923497	-0.114003
-0.596535	-0.0434664	-0.101719
-0.503197	-0.000441536	-0.0952131
-0.392541	0.0364093	-0.106928
-0.279598	0.0627695	-0.132741
-0.152437	0.0647199	-0.147017
-0.0471162	0.0393494	-0.146809
0.0535108	0.00542199	-0.148826
0.145284	-0.0245729	-0.162182
0.227476	-0.058139	-0.171414
0.303885	-0.0998598	-0.183287
0.365766	-0.146199	-0.191528
0.407486	-0.19266	-0.198041
0.628649	-0.144704	0.31634
0.589627	-0.122592	0.381501
0.495666	-0.0434278	0.415532
0.404335	0.0192064	0.413071
0.299333	0.0718925	0.389416
0.182178	0.118248	0.329309
0.0135192	0.153269	0.285134
-0.141423	0.17992	0.211997
-0.28785	0.185001	0.145116
-0.427709	0.169392	0.0922181
-0.548771	0.151938	0.024695
-0.638733	0.130009	-0.0705717
-0.705285	0.0656806	-0.177593
-0.751284	0.00124827	-0.24306
-0.792631	-0.0350112	-0.270039
-0.803866	-0.0603516	-0.286348
-0.753377	-0.00490083	-0.473068
-0.730128	0.0177017	-0.485386
-0.707218	0.0598934	-0.476032
-0.67534	0.10925	-0.453409
-0.62285	0.160579	-0.422122
-0.564808	0.213108	-0.405725
-0.491102	0.253536	-0.3816
-0.391228	0.280578	-0.3866
-0.279979	0.29053	-0.411918
-0.144812	0.258559	-0.426433
-0.0283932	0.192623	-0.405059
0.0699191	0.087383	-0.308289
0.160337	0.000813618	-0.254982
0.245	-0.0824262	-0.195626
0.3123	-0.155293	-0.133309
0.368935	-0.204685	-0.0704188
0.435412	-0.270917	0.0176011
0.59704	-0.315879	0.436816
0.568491	-0.290682	0.438703
0.530979	-0.23026	0.441564
0.483668	-0.170989	0.465836
0.415784	-0.105419	0.483394
0.324419	-0.0372482	0.48244
0.201566	0.0651668	0.38991
0.111429	0.122896	0.305096
0.0177636	0.153885	0.221768
-0.0750464	0.178743	0.12047
-0.16042	0.18676	0.026431
-0.251112	0.185056	-0.126123
-0.322436	0.163216	-0.216784
-0.382622	0.120182	-0.325699
-0.444208	0.0740429	-0.49226
-0.50346	0.0363895	-0.633987
-0.539379	0.0114726	-0.746166
************TIME_SERIES************
ClassID: 3
TimeSeriesLength: 102
TimeSeriesData: 
0.445567	-0.171694	-0.267593
0.378099	-0.146022	-0.224027
0.295548	-0.0707648	-0.207824
0.20602	-0.0278961	-0.179983
0.081041	0.00271857	-0.173415
-0.0285419	0.0163055	-0.162937
-0.141002	0.0224197	-0.156054
-0.249001	0.0234491	-0.146518
-0.345491	0.00643466	-0.135179
-0.434791	-0.0175424	-0.132817
-0.509747	-0.0480275	-0.139672
-0.570094	-0.0782217	-0.157712
-0.628129	-0.115093	-0.188725
-0.67006	-0.149024	-0.208156
-0.704047	-0.174018	-0.208734
-0.721112	-0.192894	-0.209734
-0.732341	-0.21172	-0.208115
-0.767218	-0.21221	-0.17716
-0.766715	-0.202082	-0.163314
-0.748544	-0.172269	-0.148087
-0.717088	-0.134552	-0.128282
-0.666903	-0.0923497	-0.114003
-0.596535	-0.0434664	-0.101719
-0.503197	-0.000441536	-0.0952131
-0.392541	0.0364093	-0.106928
-0.279598	0.0627695	-0.132741
-0.152437	0.0647199	-0.147017
-0.0471162	0.0393494	-0.146809
0.0535108	0.00542199	-0.148826
0.145284	-0.0245729	-0.162182
0.227476	-0.058139	-0.171414
0.303885	-0.0998598	-0.183287
0.365766	-0.146199	-0.191528
0.407486	-0.19266	-0.198041
0.628649	-0.144704	0.31634
0.589627	-0.122592	0.381501
0.495666	-0.0434278	0.415532
0.404335	0.0192064	0.413071
0.299333	0.0718925	0.389416
0.182178	0.118248	0.329309
0.0135192	0.153269	0.285134
-0.141423	0.17992	0.211997
-0.28785	0.185001	0.145116
-0.427709	0.169392	0.0922181
-0.548771	0.151938	0.024695
-0.638733	0.130009	-0.0705717
-0.705285	0.0656806	-0.177593
-0.751284	0.00124827	-0.24306
-0.792631	-0.0350112	-0.270039
-0.803866	-0.0603516	-0.286348
-0.753377	-0.00490083	-0.473068
-0.730128	0.0177017	-0.485386
-0.707218	0.0598934	-0.476032
-0.67534	0.10925	-0.453409
-0.62285	0.160579	-0.422122
-0.564808	0.213108	-0.405725
-0.491102	0.253536	-0.3816
-0.391228	0.280578	-0.3866
-0.279979	0.29053	-0.411918
-0.144812	0.258559	-0.426433
-0.0283932	0.192623	-0.405059
0.0699191	0.087383	-0.308289
0.160337	0.000813618	-0.254982
0.245	-0.0824262	-0.195626
0.3123	-0.155293	-0.133309
0.368935	-0.204685	-0.0704188
0.435412	-0.270917	0.0176011
0.59704	-0.315879	0.436816
0.568491	-0.290682	0.438703
0.530979	-0.23026	0.441564
0.483668	-0.170989	0.465836
0.415784	-0.105419	0.483394
0.324419	-0.0372482	0.48244
0.201566	0.0651668	0.38991
0.111429	0.122896	0.305096
0.0177636	0.153885	0.221768
-0.0750464	0.178743	0.12047
-0.16042	0.18676	0.026431
-0.251112	0.185056	-0.126123
-0.322436	0.163216	-0.216784
-0.382622	0.120182	-0.325699
-0.444208	0.0740429	-0.49226
-0.50346	0.0363895	-0.633987
-0.539379	0.0114726	-0.746166
-0.503996	-0.0404003	-0.39633
-0.408905	-0.0268358	-0.371343
-0.328837	-0.0163862	-0.325906
-0.263407	0.00284737	-0.263054
-0.203479	0.0226134	-0.187063
-0.131633	0.0252835	-0.127874
-0.0423334	0.00426947	-0.0803074
0.0297793	-0.0166626	-0.0446677
0.102797	-0.0468111	-0.021424
0.177966	-0.0690109	-0.0127957
0.253374	-0.0977271	-0.00371148
0.314528	-0.139961	0.00197919
0.353118	-0.164904	0.00682307
0.386226	-0.185266	0.027997
0.41315	-0.205173	0.0251689
0.415772	-0.219726	-0.000193021
0.399437	-0.226454	-0.0214185
0.384545	-0.230573	-0.0390694
************TIME_SERIES************
ClassID: 3
TimeSeriesLength: 119
TimeSeriesData: 
0.445567	-0.171694	-0.267593
0.378099	-0.146022	-0.224027
0.295548	-0.0707648	-0.207824
0.20602	-0.0278961	-0.179983
0.081041	0.00271857	-0.173415
-0.0285419	0.0163055	-0.162937
-0.141002	0.0224197	-0.156054
-0.249001	0.0234491	-0.146518
-0.345491	0.00643466	-0.135179
-0.434791	-0.0175424	-0.132817
-0.509747	-0.0480275	-0.139672
-0.570094	-0.0782217	-0.157712
-0.628129	-0.115093	-0.188725
-0.67006	-0.149024	-0.208156
-0.704047	-0.174018	-0.208734
-0.721112	-0.192894	-0.209734
-0.732341	-0.21172	-0.208115
-0.767218	-0.21221	-0.17716
-0.766715	-0.202082	-0.163314
-0.748544	-0.172269	-0.148087
-0.717088	-0.134552	-0.128282
-0.666903	-0.0923497	-0.114003
-0.596535	-0.0434664	-0.101719
-0.503197	-0.000441536	-0.0952131
-0.392541	0.0364093	-0.106928
-0.279598	0.0627695	-0.132741
-0.152437	0.0647199	-0.147017
